##NAMES=Actinolite
##RRUFFID=R050025
##IDEAL CHEMISTRY=Ca_2_(Mg_4.5-2.5_Fe^2+^_0.5-2.5_)_&#931;=5_Si_8_O_22_(OH)_2_
##LOCALITY=Tyrol, Austria
##OWNER=RRUFF
##SOURCE=Eugene Schlepp
##DESCRIPTION=Green colored bladed single crystals
##STATUS=The identification of this mineral has been confirmed by X-ray diffraction and chemical analysis
##URL=rruff.info/R050025
##MEASURED CHEMISTRY=(Ca_.930_Na_.056_Mn_.010_K_.004_)_2_(Mg_.883_Fe_.117_)_5_(Si_.978_Al_.022_)_8_O_22_(OH)_2_
143.3943, 0.0000000E+00
143.8764, 6.408386
144.3585, 9.364807
144.8407, 14.70581
145.3228, 10.16174
145.8049, 5.096985
146.2870, 1.994019
146.7691, 0.9230960
147.2512, 0.1915280
147.7334, 1.051086
148.2155, 3.548828
148.6976, 3.295105
149.1797, 4.793335
149.6618, 2.264343
150.1439, 11.75836
150.6261, 49.73285
151.1082, 87.69464
151.5903, 117.6558
152.0724, 131.0816
152.5545, 155.0195
153.0366, 192.9625
153.5188, 242.5118
154.0009, 298.7048
154.4830, 367.2146
154.9651, 438.0907
155.4472, 507.2843
155.9293, 569.6662
156.4115, 636.7636
156.8936, 715.8572
157.3757, 802.9041
157.8578, 885.1437
158.3399, 977.5164
158.8221, 1052.994
159.3042, 1095.009
159.7863, 1093.075
160.2684, 1063.358
160.7505, 1000.172
161.2326, 907.0030
161.7148, 814.9045
162.1969, 733.1658
162.6790, 659.8365
163.1611, 593.9572
163.6432, 537.2588
164.1253, 485.5048
164.6075, 433.8320
165.0896, 381.9664
165.5717, 341.1127
166.0538, 320.4150
166.5359, 314.2270
167.0180, 314.2499
167.5002, 316.7765
167.9823, 324.3134
168.4644, 338.5421
168.9465, 359.5571
169.4286, 387.4408
169.9107, 425.1390
170.3929, 469.7263
170.8750, 516.1025
171.3571, 558.6023
171.8392, 602.3290
172.3213, 651.3492
172.8034, 704.2689
173.2856, 766.9336
173.7677, 847.8530
174.2498, 944.3588
174.7319, 1045.589
175.2140, 1155.005
175.6961, 1262.868
176.1783, 1354.769
176.6604, 1428.507
177.1425, 1482.859
177.6246, 1522.111
178.1067, 1543.501
178.5888, 1531.234
179.0710, 1464.197
179.5531, 1355.332
180.0352, 1230.414
180.5173, 1088.050
180.9994, 941.4906
181.4815, 812.8727
181.9637, 701.0455
182.4458, 605.3335
182.9279, 527.0477
183.4100, 464.3074
183.8921, 408.2781
184.3742, 355.2473
184.8564, 307.6085
185.3385, 273.6605
185.8206, 253.5974
186.3027, 241.3428
186.7848, 232.4337
187.2669, 226.5826
187.7491, 221.2507
188.2312, 215.4954
188.7133, 209.5908
189.1954, 204.4149
189.6775, 200.0242
190.1596, 196.2688
190.6418, 193.7607
191.1239, 192.4314
191.6060, 189.3455
192.0881, 183.2532
192.5702, 174.2982
193.0524, 162.7877
193.5345, 147.7457
194.0166, 132.7432
194.4987, 124.9767
194.9808, 125.0156
195.4629, 123.6777
195.9451, 113.6052
196.4272, 95.00269
196.9093, 87.19141
197.3914, 92.96411
197.8735, 106.0862
198.3556, 114.2932
198.8378, 116.5052
199.3199, 120.4285
199.8020, 130.6946
200.2841, 147.5900
200.7662, 165.3882
201.2483, 183.3439
201.7305, 201.5657
202.2126, 216.8572
202.6947, 227.7396
203.1768, 241.1941
203.6589, 260.7471
204.1410, 286.0742
204.6232, 320.0587
205.1053, 367.1674
205.5874, 421.1633
206.0695, 458.6191
206.5516, 473.3563
207.0337, 487.9678
207.5159, 518.6320
207.9980, 567.2302
208.4801, 620.3063
208.9622, 678.0675
209.4443, 739.0002
209.9264, 794.7572
210.4086, 842.7418
210.8907, 890.9893
211.3728, 946.5487
211.8549, 1013.678
212.3370, 1075.242
212.8191, 1126.394
213.3013, 1168.751
213.7834, 1222.098
214.2655, 1289.076
214.7476, 1363.118
215.2297, 1436.595
215.7118, 1506.222
216.1940, 1585.955
216.6761, 1680.507
217.1582, 1789.677
217.6403, 1896.194
218.1224, 1996.602
218.6045, 2096.348
219.0867, 2203.281
219.5688, 2325.079
220.0509, 2436.041
220.5330, 2532.096
221.0151, 2614.301
221.4972, 2665.901
221.9794, 2685.753
222.4615, 2679.051
222.9436, 2649.808
223.4257, 2594.091
223.9078, 2518.638
224.3899, 2421.579
224.8721, 2299.593
225.3542, 2183.620
225.8363, 2067.687
226.3184, 1963.616
226.8005, 1883.991
227.2827, 1834.346
227.7648, 1800.366
228.2469, 1783.072
228.7290, 1786.071
229.2111, 1778.034
229.6932, 1756.036
230.1754, 1725.486
230.6575, 1692.835
231.1396, 1658.629
231.6217, 1622.059
232.1038, 1586.666
232.5859, 1557.450
233.0681, 1501.030
233.5502, 1407.460
234.0323, 1294.258
234.5144, 1183.798
234.9965, 1074.115
235.4786, 971.6976
235.9608, 876.5728
236.4429, 787.7123
236.9250, 716.9914
237.4071, 672.0431
237.8892, 641.0502
238.3713, 604.5780
238.8535, 555.3525
239.3356, 512.8263
239.8177, 483.6721
240.2998, 470.2924
240.7819, 461.1849
241.2640, 457.0283
241.7462, 456.6031
242.2283, 457.5006
242.7104, 458.0325
243.1925, 462.6637
243.6746, 472.9427
244.1567, 489.5051
244.6389, 510.4102
245.1210, 538.3920
245.6031, 569.0255
246.0852, 593.9105
246.5673, 609.9014
247.0494, 625.6072
247.5316, 645.9686
248.0137, 676.4459
248.4958, 692.3219
248.9779, 688.1920
249.4600, 672.3730
249.9421, 661.7079
250.4243, 663.9539
250.9064, 657.3258
251.3885, 631.4749
251.8706, 578.3330
252.3527, 532.2961
252.8348, 494.6305
253.3170, 463.3330
253.7991, 435.5438
254.2812, 413.4489
254.7633, 391.1583
255.2454, 364.6802
255.7275, 330.0962
256.2097, 307.6816
256.6918, 302.6487
257.1739, 306.4420
257.6560, 302.6802
258.1381, 287.5896
258.6202, 272.6809
259.1024, 262.2343
259.5845, 257.2656
260.0666, 253.3063
260.5487, 251.6364
261.0308, 250.0044
261.5129, 244.2802
261.9951, 234.2440
262.4772, 220.6949
262.9593, 203.0215
263.4414, 179.5366
263.9235, 159.5479
264.4056, 144.0254
264.8878, 130.8729
265.3699, 116.0942
265.8520, 99.17419
266.3341, 81.70642
266.8162, 62.86890
267.2983, 41.62952
267.7805, 27.57239
268.2626, 23.58313
268.7447, 23.70166
269.2268, 12.28037
269.7089, 16.13952
270.1910, 17.59251
270.6732, 16.77514
271.1553, 6.520378
271.6374, 8.734012
272.1195, 6.122972
272.6016, 3.432030
273.0837, 7.751823
273.5659, -0.4980095
274.0480, 3.958366
274.5301, 3.514703
275.0122, 5.492784
275.4943, 2.615754
275.9764, 1.399148
276.4586, 5.285054
276.9407, 6.536630
277.4228, 3.578123
277.9049, 6.439730
278.3870, -0.7549084
278.8691, 1.105689
279.3513, 6.943155
279.8334, 4.849446
280.3155, 8.416519
280.7976, 9.997383
281.2798, 2.116075
281.7619, 11.02719
282.2440, 12.85204
282.7261, 7.397721
283.2082, 16.10625
283.6903, 11.91819
284.1725, 13.76062
284.6546, 22.65137
285.1367, 39.11597
285.6188, 54.24133
286.1009, 64.47864
286.5830, 70.77808
287.0652, 76.44238
287.5473, 81.08289
288.0294, 87.02771
288.5115, 98.80945
288.9936, 115.4957
289.4757, 128.9663
289.9579, 136.9333
290.4400, 139.7289
290.9221, 136.4929
291.4042, 126.7075
291.8863, 117.3589
292.3684, 116.2850
292.8506, 121.9908
293.3327, 127.8828
293.8148, 131.2823
294.2969, 133.9711
294.7790, 141.7126
295.2611, 154.5505
295.7433, 163.9714
296.2254, 156.4586
296.7075, 139.0212
297.1896, 131.7561
297.6717, 143.5895
298.1538, 165.6444
298.6360, 186.6639
299.1181, 206.7092
299.6002, 224.0652
300.0823, 237.3441
300.5644, 247.2091
301.0465, 255.2120
301.5287, 262.5081
302.0108, 267.1672
302.4929, 266.9297
302.9750, 261.9865
303.4571, 253.3787
303.9392, 240.8085
304.4214, 225.2919
304.9035, 207.0179
305.3856, 183.1829
305.8677, 161.8385
306.3498, 152.8740
306.8319, 153.4216
307.3141, 153.2212
307.7962, 146.2480
308.2783, 135.6130
308.7604, 123.7565
309.2425, 110.3202
309.7246, 98.06445
310.2068, 88.78906
310.6889, 82.05347
311.1710, 76.59253
311.6531, 75.42651
312.1352, 73.08130
312.6173, 63.89490
313.0995, 43.51367
313.5816, 26.70862
314.0637, 21.43054
314.5458, 24.43579
315.0279, 29.51233
315.5100, 39.36743
315.9922, 46.83679
316.4743, 47.33704
316.9564, 38.90356
317.4385, 29.47290
317.9206, 18.13611
318.4027, 8.162964
318.8849, 4.123535
319.3670, 13.01501
319.8491, 22.97449
320.3312, 29.25586
320.8133, 30.75525
321.2954, 33.32275
321.7776, 39.16260
322.2597, 46.24231
322.7418, 52.39551
323.2239, 52.33020
323.7060, 56.28198
324.1881, 69.68054
324.6703, 93.94446
325.1524, 110.9397
325.6345, 111.0670
326.1166, 107.6779
326.5987, 111.5555
327.0808, 129.7617
327.5630, 146.3464
328.0451, 158.2817
328.5272, 166.1044
329.0093, 176.8125
329.4914, 194.2666
329.9735, 210.7716
330.4557, 220.5254
330.9378, 215.8130
331.4199, 218.9946
331.9020, 235.7772
332.3841, 262.2250
332.8662, 280.1448
333.3484, 288.4828
333.8305, 290.6051
334.3126, 285.8036
334.7947, 267.5930
335.2768, 262.3357
335.7589, 277.4569
336.2411, 303.5955
336.7232, 314.8707
337.2053, 304.8357
337.6874, 295.1311
338.1695, 297.0516
338.6516, 312.8525
339.1338, 329.5300
339.6159, 347.0889
340.0980, 364.8116
340.5801, 380.6370
341.0622, 393.9336
341.5443, 407.4373
342.0265, 423.0791
342.5086, 440.3977
342.9907, 455.3156
343.4728, 466.6516
343.9549, 479.7113
344.4370, 502.4139
344.9192, 533.7057
345.4013, 565.0662
345.8834, 594.4666
346.3655, 621.1498
346.8476, 641.4034
347.3297, 655.0729
347.8119, 665.0281
348.2940, 671.1056
348.7761, 675.1339
349.2582, 683.2133
349.7403, 701.9113
350.2225, 720.7056
350.7046, 722.0641
351.1867, 707.8497
351.6688, 692.3015
352.1509, 689.1920
352.6331, 690.3987
353.1152, 682.7202
353.5973, 659.5559
354.0794, 633.7629
354.5615, 616.2349
355.0436, 605.3962
355.5258, 596.4578
356.0079, 583.8688
356.4900, 573.6492
356.9721, 571.2028
357.4542, 578.0457
357.9363, 590.3402
358.4185, 606.2948
358.9006, 626.2069
359.3827, 650.5914
359.8648, 677.7853
360.3469, 710.9839
360.8290, 753.7635
361.3112, 807.9626
361.7933, 861.4526
362.2754, 906.0334
362.7575, 949.9387
363.2396, 1002.337
363.7217, 1071.418
364.2039, 1142.360
364.6860, 1212.108
365.1681, 1280.820
365.6502, 1347.766
366.1323, 1408.532
366.6144, 1470.625
367.0966, 1539.674
367.5787, 1639.303
368.0608, 1716.426
368.5429, 1771.689
369.0250, 1803.105
369.5071, 1798.821
369.9893, 1742.615
370.4714, 1669.940
370.9535, 1597.736
371.4356, 1532.724
371.9177, 1453.456
372.3998, 1352.942
372.8820, 1241.041
373.3641, 1139.407
373.8462, 1047.351
374.3283, 967.8668
374.8104, 903.5820
375.2925, 854.3732
375.7747, 817.5237
376.2568, 796.0172
376.7389, 780.3190
377.2210, 756.3201
377.7031, 723.1030
378.1852, 694.8395
378.6674, 675.4672
379.1495, 664.4607
379.6316, 659.0745
380.1137, 659.3992
380.5958, 664.9719
381.0779, 674.4607
381.5601, 688.6315
382.0422, 710.3134
382.5243, 740.8989
383.0064, 778.8816
383.4885, 824.8191
383.9706, 877.9805
384.4528, 929.7629
384.9349, 969.7634
385.4170, 1006.121
385.8991, 1053.323
386.3812, 1115.409
386.8633, 1186.594
387.3455, 1265.388
387.8276, 1347.337
388.3097, 1426.411
388.7918, 1492.697
389.2739, 1560.065
389.7560, 1643.659
390.2382, 1745.737
390.7203, 1837.166
391.2024, 1907.082
391.6845, 1957.810
392.1666, 1990.815
392.6487, 2005.225
393.1309, 2000.598
393.6130, 1982.668
394.0951, 1950.347
394.5772, 1884.983
395.0593, 1757.964
395.5414, 1611.430
396.0236, 1472.307
396.5057, 1345.141
396.9878, 1222.675
397.4699, 1103.001
397.9520, 989.4004
398.4341, 890.9265
398.9163, 809.6160
399.3984, 740.7799
399.8805, 682.3049
400.3626, 632.6176
400.8447, 598.2356
401.3268, 586.8502
401.8090, 584.6946
402.2911, 569.8645
402.7732, 534.1704
403.2553, 509.2635
403.7374, 503.7616
404.2195, 516.6880
404.7017, 533.7081
405.1838, 556.6058
405.6659, 579.8055
406.1480, 596.3142
406.6301, 605.7131
407.1122, 618.1879
407.5944, 634.8169
408.0765, 656.6428
408.5586, 687.3118
409.0407, 726.8062
409.5228, 768.0127
410.0049, 805.9742
410.4871, 841.5715
410.9692, 878.6235
411.4513, 918.3652
411.9334, 956.3621
412.4155, 987.8215
412.8976, 1014.083
413.3798, 1037.867
413.8619, 1067.283
414.3440, 1091.424
414.8261, 1098.504
415.3082, 1088.244
415.7903, 1068.451
416.2725, 1043.768
416.7546, 1012.532
417.2367, 971.8657
417.7188, 913.4323
418.2009, 854.6571
418.6830, 805.0747
419.1652, 762.1901
419.6473, 718.8380
420.1294, 668.8076
420.6115, 620.0637
421.0937, 575.2771
421.5758, 532.8448
422.0579, 500.7427
422.5400, 494.5551
423.0221, 496.2600
423.5042, 475.6853
423.9864, 404.4592
424.4685, 342.0530
424.9506, 303.0297
425.4327, 289.8469
425.9148, 275.5568
426.3969, 259.7432
426.8791, 243.3082
427.3612, 225.7717
427.8433, 203.8617
428.3254, 191.9358
428.8075, 195.0663
429.2896, 208.4619
429.7718, 215.5677
430.2539, 215.4375
430.7360, 214.2065
431.2181, 214.6252
431.7002, 216.7659
432.1823, 221.9333
432.6645, 230.4996
433.1466, 241.1077
433.6287, 255.1350
434.1108, 270.8362
434.5929, 279.1207
435.0750, 271.4126
435.5572, 255.9308
436.0393, 249.0471
436.5214, 250.2095
437.0035, 247.6581
437.4856, 231.0507
437.9677, 205.4250
438.4499, 176.9902
438.9320, 144.2203
439.4141, 114.2921
439.8962, 94.19434
440.3783, 81.21545
440.8604, 67.72693
441.3426, 47.74573
441.8247, 28.51477
442.3068, 15.04614
442.7889, 4.672904
443.2710, 10.29161
443.7531, 13.38136
444.2353, 14.07803
444.7174, 5.214227
445.1995, 8.695837
445.6816, 7.229959
446.1637, 5.561218
446.6458, 10.78038
447.1280, 3.307109
447.6101, 8.417040
448.0922, 8.504004
448.5743, 10.88985
449.0564, 8.297672
449.5385, 7.243040
450.0207, 11.16802
450.5028, 12.33575
450.9849, 9.170525
451.4670, 11.70250
451.9491, 4.055366
452.4312, 5.340541
452.9134, 10.47959
453.3955, 7.564646
453.8776, 10.18765
454.3597, 10.70149
454.8418, 1.630123
455.3239, 9.228396
455.8061, 9.617573
456.2882, 2.604622
456.7703, 9.631732
457.2524, 3.639251
457.7345, 2.293972
458.2166, 4.445999
458.6988, 2.952180
459.1809, 7.206447
459.6630, 5.923196
460.1451, 4.145186
460.6272, 4.526308
461.1093, -1.210870
461.5915, 4.402593
462.0736, 2.262612
462.5557, 3.976719
463.0378, 6.564388
463.5199, 2.463113
464.0020, 7.440430
464.4842, 13.40161
464.9663, 23.22839
465.4484, 30.93005
465.9305, 33.07166
466.4126, 25.11914
466.8947, 19.38953
467.3769, 16.18860
467.8590, 15.07703
468.3411, 15.25537
468.8232, 16.31348
469.3053, 19.64575
469.7874, 26.46826
470.2696, 36.48816
470.7517, 44.20447
471.2338, 49.26636
471.7159, 53.06360
472.1980, 57.46838
472.6801, 62.38660
473.1623, 62.53589
473.6444, 55.16370
474.1265, 46.66162
474.6086, 48.46875
475.0907, 59.54346
475.5728, 73.13525
476.0550, 86.66455
476.5371, 100.1499
477.0192, 114.5837
477.5013, 130.1249
477.9834, 142.3982
478.4655, 145.7755
478.9477, 144.5642
479.4298, 144.2595
479.9119, 145.8610
480.3940, 149.5503
480.8761, 154.8813
481.3582, 162.2802
481.8404, 172.9792
482.3225, 191.4054
482.8046, 209.9078
483.2867, 226.0409
483.7688, 240.7941
484.2509, 248.9420
484.7331, 244.5173
485.2152, 236.0923
485.6973, 231.9268
486.1794, 237.5704
486.6615, 237.7527
487.1436, 228.6653
487.6258, 212.4106
488.1079, 198.5157
488.5900, 186.9945
489.0721, 178.0557
489.5542, 171.6920
490.0363, 167.8596
490.5185, 168.8564
491.0006, 176.4802
491.4827, 183.0939
491.9648, 176.3507
492.4470, 158.6385
492.9291, 142.9526
493.4112, 134.1615
493.8933, 129.7314
494.3754, 126.3613
494.8575, 124.1218
495.3397, 123.6807
495.8218, 127.3313
496.3039, 132.1008
496.7860, 133.7268
497.2681, 130.0284
497.7502, 129.4236
498.2324, 136.8844
498.7145, 149.9701
499.1966, 165.5076
499.6787, 189.0155
500.1608, 208.2061
500.6429, 214.6958
501.1251, 209.8278
501.6072, 214.9783
502.0893, 241.7448
502.5714, 269.5098
503.0535, 288.5234
503.5356, 289.7896
504.0178, 302.9235
504.4999, 332.5864
504.9820, 369.2043
505.4641, 399.1455
505.9462, 421.3489
506.4283, 441.1567
506.9105, 457.6642
507.3926, 472.7859
507.8747, 492.0858
508.3568, 516.0931
508.8389, 544.4337
509.3210, 583.0670
509.8032, 625.8770
510.2853, 654.6897
510.7674, 664.9276
511.2495, 671.7617
511.7316, 693.0503
512.2137, 722.5259
512.6959, 746.4038
513.1780, 756.5750
513.6601, 760.7395
514.1422, 765.6744
514.6243, 770.4425
515.1064, 767.1523
515.5886, 747.3395
516.0707, 722.6244
516.5528, 700.4059
517.0349, 681.6377
517.5170, 663.3286
517.9991, 642.4238
518.4813, 622.3210
518.9634, 609.4733
519.4455, 609.9587
519.9276, 606.9231
520.4097, 595.4385
520.8918, 577.0541
521.3740, 561.9884
521.8561, 550.6432
522.3382, 542.6473
522.8203, 537.8458
523.3024, 536.1478
523.7845, 538.1582
524.2667, 544.8781
524.7488, 551.5452
525.2309, 550.5420
525.7130, 544.3450
526.1951, 541.6460
526.6772, 547.4961
527.1594, 556.4048
527.6415, 563.6074
528.1236, 568.6893
528.6057, 570.0491
529.0878, 565.4075
529.5699, 557.5520
530.0521, 550.3834
530.5342, 546.6893
531.0163, 532.9369
531.4984, 494.5709
531.9805, 448.2032
532.4626, 411.3628
532.9448, 395.3234
533.4269, 378.1057
533.9090, 354.7250
534.3911, 328.1132
534.8732, 311.2499
535.3553, 308.4783
535.8375, 307.0455
536.3196, 302.0494
536.8017, 293.4308
537.2838, 281.4362
537.7659, 264.6571
538.2480, 248.8586
538.7302, 241.4637
539.2123, 241.1851
539.6944, 239.9451
540.1765, 237.0811
540.6586, 232.3618
541.1407, 222.3142
541.6229, 207.8948
542.1050, 195.9026
542.5871, 191.0967
543.0692, 191.2916
543.5513, 196.8604
544.0334, 207.1755
544.5156, 212.5270
544.9977, 204.0123
545.4798, 191.5021
545.9619, 182.4039
546.4440, 180.1774
546.9261, 177.9424
547.4083, 175.9856
547.8904, 174.3029
548.3725, 171.5248
548.8546, 165.3097
549.3367, 160.4067
549.8188, 158.8639
550.3010, 160.7260
550.7831, 163.8640
551.2652, 168.7301
551.7473, 172.5710
552.2294, 172.9650
552.7115, 170.2394
553.1937, 168.4045
553.6758, 168.2628
554.1579, 166.5942
554.6400, 156.6040
555.1221, 141.4911
555.6042, 130.8871
556.0864, 131.8363
556.5685, 135.1240
557.0506, 130.6399
557.5327, 120.8967
558.0148, 113.5833
558.4969, 114.0773
558.9791, 116.8467
559.4612, 118.5983
559.9433, 118.7115
560.4254, 119.2115
560.9075, 123.2632
561.3896, 126.2142
561.8718, 123.9934
562.3539, 113.3029
562.8360, 102.7797
563.3181, 91.93616
563.8002, 82.25366
564.2823, 77.62622
564.7645, 78.83447
565.2466, 81.80530
565.7287, 85.18140
566.2108, 89.00635
566.6929, 94.97937
567.1750, 103.2950
567.6572, 108.1350
568.1393, 101.7885
568.6214, 88.83923
569.1035, 77.81995
569.5856, 69.38416
570.0677, 65.36340
570.5499, 71.26331
571.0320, 81.70618
571.5141, 88.21326
571.9962, 79.85754
572.4783, 74.76562
572.9604, 85.09851
573.4426, 106.8374
573.9247, 119.2006
574.4068, 109.3378
574.8889, 98.00427
575.3710, 93.49524
575.8531, 97.69031
576.3353, 98.92737
576.8174, 96.17151
577.2995, 91.95740
577.7816, 87.97351
578.2637, 84.01770
578.7458, 83.16040
579.2280, 86.65320
579.7101, 91.95410
580.1922, 95.10596
580.6743, 96.17944
581.1564, 95.56934
581.6385, 90.77148
582.1207, 85.82727
582.6028, 88.18103
583.0849, 96.65698
583.5670, 102.2401
584.0491, 98.04211
584.5313, 89.82129
585.0134, 81.48877
585.4955, 73.03979
585.9776, 66.52478
586.4597, 63.43616
586.9418, 62.20020
587.4240, 61.21399
587.9061, 62.64258
588.3882, 60.65796
588.8703, 52.89893
589.3524, 41.79993
589.8345, 34.70044
590.3167, 32.36157
590.7988, 31.10828
591.2809, 29.50439
591.7630, 27.69397
592.2451, 27.01599
592.7272, 27.55859
593.2094, 27.00061
593.6915, 22.40906
594.1736, 15.54285
594.6557, 9.668213
595.1378, 5.454956
595.6199, 2.048706
596.1021, 0.7158200
596.5842, 0.6939700
597.0663, 5.261719
597.5485, 23.04333
598.0306, 34.56116
598.5127, 27.80127
598.9948, 8.032837
599.4769, 1.587402
599.9590, 8.817139
600.4412, 19.02710
600.9233, 21.94653
601.4054, 16.96692
601.8875, 15.24438
602.3696, 18.44299
602.8517, 20.83813
603.3339, 14.86621
603.8160, 1.601440
604.2981, 1.839844
604.7802, 8.734009
605.2623, 21.45459
605.7444, 18.26440
606.2266, 4.649658
606.7087, 4.390015
607.1908, 0.3874510
607.6729, 7.021118
608.1550, 10.87964
608.6371, 11.91052
609.1193, 12.54541
609.6014, 14.05359
610.0835, 15.12427
610.5656, 15.11011
611.0477, 13.89075
611.5298, 12.09827
612.0120, 8.602905
612.4941, 5.719238
612.9762, 5.955566
613.4583, 11.83997
613.9404, 10.82031
614.4225, 1.5503000E-02
614.9047, 13.61584
615.3868, 19.87671
615.8689, 19.28418
616.3510, 17.19617
616.8331, 14.28992
617.3152, 11.85657
617.7974, 13.20483
618.2795, 17.13403
618.7616, 19.13208
619.2437, 13.08691
619.7258, 6.854858
620.2079, 6.760864
620.6901, 13.11072
621.1722, 20.37988
621.6543, 25.96399
622.1364, 32.36133
622.6185, 41.41479
623.1006, 55.41541
623.5828, 67.64624
624.0649, 80.04614
624.5470, 88.89954
625.0291, 87.03308
625.5112, 70.85120
625.9933, 64.06055
626.4755, 73.26147
626.9576, 90.99182
627.4397, 101.5437
627.9218, 105.9132
628.4039, 111.6863
628.8860, 125.6000
629.3682, 141.5444
629.8503, 150.5336
630.3324, 153.2966
630.8145, 155.1758
631.2966, 157.0345
631.7787, 160.6364
632.2609, 167.2864
632.7430, 177.4014
633.2251, 189.6307
633.7072, 206.1943
634.1893, 223.1152
634.6714, 237.1918
635.1536, 247.4409
635.6357, 256.5284
636.1178, 262.7878
636.5999, 269.7649
637.0820, 285.5416
637.5641, 310.4673
638.0463, 333.5651
638.5284, 349.7915
639.0105, 363.5111
639.4926, 384.0161
639.9747, 410.6702
640.4568, 438.9814
640.9390, 470.8842
641.4211, 500.5562
641.9032, 518.3826
642.3853, 523.6748
642.8674, 538.3724
643.3495, 578.4607
643.8317, 626.1432
644.3138, 669.7104
644.7959, 705.1865
645.2780, 740.8495
645.7601, 774.0177
646.2422, 809.5442
646.7244, 855.7847
647.2065, 915.4878
647.6886, 969.7821
648.1707, 1015.230
648.6528, 1053.043
649.1349, 1081.377
649.6171, 1102.236
650.0992, 1130.526
650.5813, 1175.564
651.0634, 1230.360
651.5455, 1288.654
652.0276, 1350.158
652.5098, 1410.660
652.9919, 1465.849
653.4740, 1521.070
653.9561, 1580.510
654.4382, 1645.615
654.9203, 1708.050
655.4025, 1755.117
655.8846, 1807.704
656.3667, 1881.597
656.8488, 1985.625
657.3309, 2084.399
657.8130, 2167.357
658.2952, 2259.385
658.7773, 2400.677
659.2594, 2589.536
659.7415, 2784.067
660.2236, 2971.104
660.7057, 3163.071
661.1879, 3370.741
661.6700, 3596.496
662.1521, 3843.018
662.6342, 4116.263
663.1163, 4405.261
663.5984, 4706.936
664.0806, 5021.122
664.5627, 5344.178
665.0448, 5667.887
665.5269, 6001.693
666.0090, 6348.337
666.4911, 6703.894
666.9733, 7081.123
667.4554, 7483.232
667.9375, 7900.540
668.4196, 8335.405
668.9017, 8788.163
669.3839, 9218.407
669.8660, 9626.092
670.3481, 9988.571
670.8302, 10297.35
671.3123, 10537.24
671.7944, 10679.55
672.2766, 10726.99
672.7587, 10653.38
673.2408, 10431.85
673.7229, 10078.77
674.2050, 9622.710
674.6871, 8990.619
675.1693, 8342.852
675.6514, 7708.173
676.1335, 7085.009
676.6156, 6473.813
677.0977, 5862.568
677.5798, 5293.478
678.0620, 4794.366
678.5441, 4357.781
679.0262, 3952.447
679.5083, 3574.453
679.9904, 3237.047
680.4725, 2957.510
680.9547, 2723.451
681.4368, 2511.495
681.9189, 2321.406
682.4010, 2149.126
682.8831, 1993.696
683.3652, 1855.726
683.8474, 1738.486
684.3295, 1651.870
684.8116, 1571.379
685.2937, 1494.182
685.7758, 1420.659
686.2579, 1353.056
686.7401, 1293.471
687.2222, 1234.011
687.7043, 1172.029
688.1864, 1111.184
688.6685, 1061.298
689.1506, 1021.910
689.6328, 985.8411
690.1149, 952.7458
690.5970, 918.7930
691.0791, 876.0029
691.5612, 825.9351
692.0433, 777.9275
692.5255, 736.3643
693.0076, 697.8237
693.4897, 660.6792
693.9718, 624.9241
694.4539, 588.6246
694.9360, 549.1438
695.4182, 511.3547
695.9003, 477.7467
696.3824, 449.9265
696.8645, 420.8604
697.3466, 389.3988
697.8287, 359.7145
698.3109, 338.4391
698.7930, 323.6465
699.2751, 304.1635
699.7572, 277.0082
700.2393, 249.4054
700.7214, 225.9554
701.2036, 207.9336
701.6857, 197.7167
702.1678, 208.7703
702.6499, 213.0225
703.1320, 193.2014
703.6141, 159.0071
704.0963, 134.9738
704.5784, 128.0494
705.0605, 122.5055
705.5426, 116.1141
706.0247, 108.4355
706.5068, 97.22302
706.9890, 82.08679
707.4711, 66.24133
707.9532, 48.05054
708.4353, 31.14856
708.9174, 29.66077
709.3995, 41.78992
709.8817, 49.93408
710.3638, 37.24963
710.8459, 18.25000
711.3280, 5.233643
711.8101, 0.2595210
712.2922, 2.581299
712.7744, 0.9375000
713.2565, 1.998779
713.7386, 4.468628
714.2207, 5.662109
714.7028, 8.822144
715.1849, 16.11365
715.6671, 22.36877
716.1492, 19.63318
716.6313, 8.968872
717.1134, 4.415894
717.5955, 9.364624
718.0776, 15.62805
718.5598, 15.41223
719.0419, 12.15857
719.5240, 11.28467
720.0061, 17.34021
720.4882, 23.00281
720.9703, 23.58496
721.4525, 21.43872
721.9346, 21.87585
722.4167, 25.10278
722.8988, 32.32471
723.3809, 46.32239
723.8630, 64.28564
724.3452, 73.62500
724.8273, 73.29553
725.3094, 71.52832
725.7915, 69.79602
726.2736, 70.09082
726.7557, 81.07263
727.2379, 101.4955
727.7200, 121.5231
728.2021, 130.7338
728.6842, 139.6549
729.1663, 159.1476
729.6484, 190.3815
730.1306, 218.3676
730.6127, 235.2289
731.0948, 249.9117
731.5769, 267.9818
732.0590, 291.0393
732.5411, 313.6340
733.0233, 335.6633
733.5054, 357.5304
733.9875, 377.3240
734.4696, 396.4639
734.9517, 427.3942
735.4338, 473.0056
735.9160, 518.5781
736.3981, 549.2284
736.8802, 571.4806
737.3623, 595.6029
737.8444, 630.1578
738.3266, 655.8127
738.8087, 657.7600
739.2908, 649.3961
739.7729, 650.3428
740.2551, 669.9536
740.7372, 681.9335
741.2193, 682.3705
741.7014, 675.3428
742.1835, 668.5679
742.6656, 661.9786
743.1478, 655.4575
743.6299, 647.8521
744.1120, 641.6650
744.5941, 641.7354
745.0762, 646.7966
745.5583, 653.1765
746.0405, 660.2490
746.5226, 666.4775
747.0047, 672.0002
747.4868, 675.6057
747.9689, 673.2170
748.4510, 664.8145
748.9332, 651.0636
749.4153, 629.4087
749.8974, 600.6945
750.3795, 579.8918
750.8616, 568.7672
751.3438, 554.1459
751.8259, 527.1274
752.3080, 490.8063
752.7901, 446.9189
753.2722, 396.3918
753.7543, 354.3834
754.2365, 341.7368
754.7186, 334.4336
755.2007, 310.9000
755.6828, 264.2314
756.1649, 227.3385
756.6470, 211.0444
757.1292, 200.9055
757.6113, 189.0570
758.0934, 175.6067
758.5755, 161.6901
759.0576, 144.1752
759.5397, 126.6718
760.0219, 116.2865
760.5040, 110.5768
760.9861, 100.9817
761.4682, 85.49329
761.9503, 70.87561
762.4324, 59.41272
762.9146, 52.48108
763.3967, 52.86230
763.8788, 69.61389
764.3609, 80.72217
764.8430, 77.54407
765.3251, 68.65771
765.8073, 64.56702
766.2894, 67.58435
766.7715, 67.21375
767.2536, 61.25073
767.7357, 52.02954
768.2178, 42.10889
768.7000, 31.98303
769.1821, 24.14160
769.6642, 21.21021
770.1463, 18.33350
770.6284, 7.156860
771.1105, 7.571777
771.5927, 15.19495
772.0748, 5.314575
772.5569, 5.175293
773.0390, 14.19812
773.5211, 19.11121
774.0032, 9.512085
774.4854, 22.28381
774.9675, 37.55823
775.4496, 18.18921
775.9317, 19.22192
776.4138, 31.95276
776.8959, 24.16931
777.3781, 16.64441
777.8602, 24.12451
778.3423, 31.81152
778.8244, 24.10022
779.3065, 5.111328
779.7886, 7.801880
780.2708, 6.415161
780.7529, 1.110596
781.2350, 6.925171
781.7171, 16.73010
782.1992, 17.04590
782.6813, 4.587158
783.1635, 4.262939
783.6456, 1.463989
784.1277, 16.97534
784.6098, 27.68286
785.0919, 33.41870
785.5740, 34.58679
786.0562, 30.08984
786.5383, 22.23120
787.0204, 10.18079
787.5025, 6.027954
787.9846, 15.08618
788.4667, 8.247559
788.9489, 0.6490480
789.4310, 6.784424
789.9131, 10.30127
790.3952, 8.687622
790.8773, 1.005981
791.3594, 7.131836
791.8416, 13.07983
792.3237, 16.02222
792.8058, 11.69531
793.2879, 0.1126710
793.7700, 9.338135
794.2521, 8.421631
794.7343, 3.789917
795.2164, 0.7506100
795.6985, 0.4665530
796.1806, 0.4484860
796.6627, 4.283447
797.1448, 6.719238
797.6270, 3.950317
798.1091, 5.187012
798.5912, 9.347900
799.0733, 7.633911
799.5554, 5.631348
800.0375, 10.74109
800.5197, 19.47180
801.0018, 23.90173
801.4839, 22.71045
801.9660, 18.01941
802.4481, 7.852051
802.9302, 3.241333
803.4124, 11.74841
803.8945, 18.01379
804.3766, 18.90894
804.8587, 11.35645
805.3408, 2.479004
805.8229, 0.2030030
806.3051, 2.995605
806.7872, 1.302124
807.2693, 6.638306
807.7514, 15.18738
808.2335, 19.62708
808.7156, 20.87109
809.1978, 19.24438
809.6799, 13.16162
810.1620, 9.802490
810.6441, 13.71130
811.1262, 20.93262
811.6083, 27.75635
812.0905, 35.09009
812.5726, 39.36853
813.0547, 39.35583
813.5368, 38.44690
814.0189, 44.64697
814.5010, 54.97498
814.9832, 47.52380
815.4653, 14.34326
815.9474, 14.88806
816.4295, 6.648682
816.9116, 18.94324
817.3937, 37.19055
817.8759, 41.07227
818.3580, 39.12390
818.8401, 26.52515
819.3222, 13.09448
819.8043, 9.349976
820.2864, 18.67773
820.7686, 20.95264
821.2507, 12.53186
821.7328, 2.353027
822.2149, 3.709229
822.6970, 12.38733
823.1791, 16.99280
823.6613, 13.12695
824.1434, 10.92090
824.6255, 20.37183
825.1076, 33.66284
825.5897, 41.95093
826.0718, 44.07349
826.5540, 39.48730
827.0361, 23.38342
827.5182, 6.117920
828.0003, 2.230713
828.4824, 11.52625
828.9645, 12.83423
829.4467, 0.7879640
829.9288, 10.03088
830.4109, 0.6689450
830.8930, 21.27856
831.3751, 33.76440
831.8572, 29.99316
832.3394, 24.61157
832.8215, 25.46741
833.3036, 27.88147
833.7857, 22.94153
834.2678, 3.592407
834.7499, 3.701416
835.2321, 6.001831
835.7142, 20.32837
836.1963, 22.69629
836.6784, 16.38989
837.1605, 13.56653
837.6426, 16.79175
838.1248, 21.27478
838.6069, 23.76001
839.0890, 25.04675
839.5711, 26.17029
840.0532, 28.88208
840.5353, 28.20032
841.0175, 20.38489
841.4996, 12.75439
841.9817, 14.00037
842.4638, 24.71118
842.9459, 28.62219
843.4280, 23.34375
843.9102, 15.66528
844.3923, 12.07324
844.8744, 11.39587
845.3565, 11.26196
845.8386, 10.69580
846.3207, 12.76147
846.8029, 23.07642
847.2850, 32.93896
847.7671, 34.71619
848.2492, 24.58276
848.7313, 16.33276
849.2134, 9.590210
849.6956, 4.500488
850.1777, 1.924194
850.6598, 1.713379
851.1419, 1.900146
851.6240, 1.518311
852.1061, 2.535400
852.5883, 8.114746
853.0704, 14.77747
853.5525, 19.48425
854.0346, 20.73950
854.5167, 22.88794
854.9988, 28.49573
855.4810, 32.61841
855.9631, 31.67505
856.4452, 25.11743
856.9273, 15.28345
857.4094, 1.701538
857.8915, 8.053833
858.3737, 4.554565
858.8558, 5.244019
859.3379, 13.41138
859.8200, 18.96509
860.3021, 21.99219
860.7842, 20.40405
861.2664, 17.07202
861.7485, 14.00745
862.2306, 11.83606
862.7127, 7.100342
863.1948, 1.091797
863.6769, 7.924561
864.1591, 9.739136
864.6412, 7.623901
865.1233, 3.796265
865.6054, 1.338989
866.0875, 5.632935
866.5696, 5.922485
867.0518, 6.670288
867.5339, 11.94434
868.0160, 22.32642
868.4981, 27.87219
868.9802, 27.54529
869.4623, 24.26819
869.9445, 16.65002
870.4266, 7.339478
870.9087, 12.13464
871.3908, 29.58472
871.8729, 43.45154
872.3550, 43.00916
872.8372, 35.68005
873.3193, 23.12122
873.8014, 6.155762
874.2835, 2.079102
874.7656, 7.946289
875.2477, 19.36328
875.7299, 29.59949
876.2120, 37.82166
876.6941, 38.92480
877.1762, 32.75464
877.6583, 30.82117
878.1404, 42.94592
878.6226, 57.36340
879.1047, 55.13574
879.5869, 42.31665
880.0690, 35.60645
880.5511, 49.02380
881.0332, 60.63586
881.5153, 61.43530
881.9974, 56.94238
882.4796, 60.13892
882.9617, 73.44031
883.4438, 78.81140
883.9259, 69.09351
884.4080, 55.34338
884.8901, 56.55286
885.3723, 66.92993
885.8544, 74.10156
886.3365, 73.46521
886.8186, 70.27710
887.3007, 63.28906
887.7828, 55.78906
888.2650, 54.21277
888.7471, 61.09216
889.2292, 66.47791
889.7113, 69.02979
890.1934, 70.78674
890.6755, 73.09448
891.1577, 76.89417
891.6398, 87.73059
892.1219, 108.6494
892.6040, 122.8156
893.0861, 110.9828
893.5682, 92.38721
894.0504, 86.09399
894.5325, 103.2860
895.0146, 109.2410
895.4967, 98.04285
895.9788, 86.89526
896.4609, 92.73694
896.9431, 112.3188
897.4252, 125.7999
897.9073, 132.1079
898.3894, 134.9637
898.8715, 135.1226
899.3536, 134.5759
899.8358, 134.7578
900.3179, 135.7887
900.8000, 139.7164
901.2821, 148.6029
901.7642, 157.3254
902.2463, 165.0687
902.7285, 171.0526
903.2106, 167.1787
903.6927, 153.9437
904.1748, 144.1737
904.6569, 152.7162
905.1390, 163.2820
905.6212, 153.5663
906.1033, 129.7168
906.5854, 119.1649
907.0675, 146.9080
907.5496, 167.9392
908.0317, 169.3950
908.5139, 157.9313
908.9960, 153.5277
909.4781, 156.2032
909.9602, 158.9752
910.4423, 159.1753
910.9244, 158.8364
911.4066, 158.7853
911.8887, 160.1643
912.3708, 165.2379
912.8529, 179.7004
913.3350, 191.4911
913.8171, 196.2307
914.2993, 198.8281
914.7814, 204.7600
915.2635, 213.6191
915.7456, 229.3713
916.2277, 255.1110
916.7098, 281.5930
917.1920, 294.1323
917.6741, 300.9086
918.1562, 315.3375
918.6383, 343.3950
919.1204, 366.6843
919.6025, 369.3816
920.0847, 373.9575
920.5668, 397.4995
921.0489, 444.0255
921.5310, 479.2928
922.0131, 502.4296
922.4952, 523.6626
922.9774, 549.5764
923.4595, 580.2836
923.9416, 617.7856
924.4237, 660.6821
924.9058, 695.8973
925.3879, 710.5671
925.8701, 725.5411
926.3522, 750.9358
926.8343, 785.2770
927.3164, 815.2893
927.7985, 841.9224
928.2806, 857.3470
928.7628, 852.7261
929.2449, 839.5029
929.7270, 837.7100
930.2091, 842.3064
930.6912, 839.8035
931.1733, 825.9438
931.6555, 803.0779
932.1376, 770.6997
932.6197, 730.2690
933.1018, 679.5396
933.5839, 614.6455
934.0660, 565.8384
934.5482, 540.9224
935.0303, 526.7150
935.5124, 506.7158
935.9945, 484.7959
936.4766, 469.2090
936.9587, 466.2098
937.4409, 456.8207
937.9230, 424.3320
938.4051, 391.0875
938.8872, 374.5220
939.3693, 376.6750
939.8514, 384.0613
940.3336, 397.2854
940.8157, 408.7086
941.2978, 411.4614
941.7799, 408.6547
942.2620, 402.3645
942.7441, 393.3691
943.2263, 389.8165
943.7084, 400.1282
944.1905, 411.1976
944.6726, 417.6279
945.1547, 420.2190
945.6368, 425.6621
946.1190, 434.5762
946.6011, 436.2280
947.0832, 422.0414
947.5653, 402.1776
948.0474, 390.4336
948.5295, 383.5994
949.0117, 374.2097
949.4938, 362.5920
949.9759, 343.7375
950.4580, 310.8582
950.9401, 274.9812
951.4222, 254.2535
951.9044, 248.8322
952.3865, 243.3021
952.8686, 235.2922
953.3507, 226.3568
953.8328, 219.1675
954.3149, 211.5568
954.7971, 199.9781
955.2792, 182.2295
955.7613, 167.2382
956.2434, 157.4590
956.7255, 149.3964
957.2076, 141.2277
957.6898, 132.9305
958.1719, 123.5936
958.6540, 113.2222
959.1361, 106.3275
959.6182, 110.2279
960.1003, 115.6389
960.5825, 113.0824
961.0646, 103.7417
961.5467, 96.39551
962.0288, 94.24170
962.5109, 91.73682
962.9930, 87.29138
963.4752, 82.01355
963.9573, 79.71265
964.4394, 79.60986
964.9215, 76.43103
965.4036, 66.62439
965.8857, 56.85461
966.3679, 49.82214
966.8500, 47.13855
967.3321, 51.62341
967.8142, 76.09070
968.2963, 83.11792
968.7784, 66.46326
969.2606, 44.50574
969.7427, 37.07910
970.2248, 40.03149
970.7069, 37.94592
971.1890, 29.71509
971.6711, 21.59766
972.1533, 16.73877
972.6354, 14.23340
973.1175, 14.73926
973.5996, 18.03186
974.0817, 18.04260
974.5638, 13.73511
975.0460, 9.621216
975.5281, 6.554199
976.0102, 5.799316
976.4923, 11.20581
976.9744, 21.25635
977.4565, 31.49707
977.9387, 45.17993
978.4208, 52.64111
978.9029, 49.05139
979.3850, 37.79541
979.8671, 21.14575
980.3492, 3.102295
980.8314, 19.37561
981.3135, 25.85571
981.7956, 24.83435
982.2777, 12.72388
982.7598, 2.441406
983.2419, 8.017334
983.7241, 0.9633790
984.2062, 5.485718
984.6883, 5.328003
985.1704, 5.991455
985.6525, 12.16833
986.1346, 22.79395
986.6168, 25.54016
987.0989, 20.62073
987.5810, 14.74463
988.0631, 10.04150
988.5452, 7.573120
989.0273, 10.71655
989.5095, 16.84729
989.9916, 19.21484
990.4737, 15.39331
990.9558, 8.872559
991.4379, 1.755981
991.9200, 12.24780
992.4022, 14.79541
992.8843, 11.10046
993.3664, 8.737305
993.8485, 9.287720
994.3306, 10.06384
994.8127, 10.71765
995.2949, 9.747070
995.7770, 4.362183
996.2591, 6.925781
996.7412, 11.68018
997.2233, 9.512451
997.7054, 2.125977
998.1876, 12.11902
998.6697, 29.77588
999.1518, 43.61340
999.6339, 54.24878
1000.116, 64.37854
1000.598, 77.96326
1001.080, 88.03772
1001.562, 86.84204
1002.044, 83.18506
1002.527, 96.67090
1003.009, 129.1584
1003.491, 148.4688
1003.973, 145.9928
1004.455, 139.4994
1004.937, 153.0889
1005.419, 172.0260
1005.901, 173.9348
1006.384, 146.6696
1006.866, 139.3578
1007.348, 169.8297
1007.830, 201.4752
1008.312, 209.7308
1008.794, 200.8092
1009.276, 215.7932
1009.758, 251.7369
1010.240, 284.4703
1010.723, 295.4888
1011.205, 303.1886
1011.687, 320.4285
1012.169, 343.1071
1012.651, 358.2622
1013.133, 359.0439
1013.615, 374.0197
1014.097, 411.3552
1014.580, 453.8560
1015.062, 473.3621
1015.544, 481.4845
1016.026, 500.5172
1016.508, 535.2684
1016.990, 576.2794
1017.472, 630.8083
1017.954, 679.6791
1018.436, 707.4695
1018.919, 715.7925
1019.401, 752.1750
1019.883, 816.7164
1020.365, 871.5905
1020.847, 883.4353
1021.329, 884.8132
1021.811, 904.9155
1022.293, 940.1858
1022.776, 982.4834
1023.258, 1033.415
1023.740, 1086.912
1024.222, 1144.859
1024.704, 1201.242
1025.186, 1248.868
1025.668, 1287.752
1026.150, 1315.493
1026.632, 1331.639
1027.115, 1341.368
1027.597, 1350.753
1028.079, 1352.082
1028.561, 1339.146
1029.043, 1312.721
1029.525, 1282.164
1030.007, 1248.780
1030.489, 1204.390
1030.972, 1141.046
1031.454, 1069.467
1031.936, 1002.349
1032.418, 937.7476
1032.900, 872.5610
1033.382, 799.8907
1033.864, 733.5490
1034.346, 672.4977
1034.828, 620.8464
1035.311, 590.4368
1035.793, 576.3806
1036.275, 543.2618
1036.757, 487.8365
1037.239, 440.3217
1037.721, 428.8223
1038.203, 426.8093
1038.685, 414.6792
1039.167, 393.8490
1039.650, 382.4270
1040.132, 382.6093
1040.614, 386.1212
1041.096, 389.9159
1041.578, 394.3613
1042.060, 398.0016
1042.542, 403.0454
1043.024, 413.3033
1043.507, 430.5402
1043.989, 450.9885
1044.471, 477.5518
1044.953, 504.4363
1045.435, 525.2866
1045.917, 540.9541
1046.399, 565.1213
1046.881, 597.9854
1047.364, 635.9001
1047.846, 685.4155
1048.328, 732.8835
1048.810, 762.3035
1049.292, 780.7373
1049.774, 819.1597
1050.256, 884.1777
1050.738, 945.8828
1051.220, 996.9558
1051.703, 1046.007
1052.185, 1109.116
1052.667, 1175.959
1053.149, 1226.487
1053.631, 1252.626
1054.113, 1282.018
1054.595, 1323.155
1055.077, 1369.012
1055.559, 1420.621
1056.042, 1474.358
1056.524, 1511.408
1057.006, 1531.633
1057.488, 1533.939
1057.970, 1510.735
1058.452, 1476.594
1058.934, 1436.028
1059.416, 1391.652
1059.899, 1349.592
1060.381, 1312.039
1060.863, 1268.847
1061.345, 1218.722
1061.827, 1164.264
1062.309, 1093.656
1062.791, 1026.699
1063.273, 1003.772
1063.755, 1026.325
1064.238, 1030.740
1064.720, 981.9087
1065.202, 934.9753
1065.684, 908.9226
1066.166, 896.0583
1066.648, 874.9285
1067.130, 847.8208
1067.612, 823.9341
1068.094, 807.3899
1068.577, 791.8645
1069.059, 782.3306
1069.541, 765.4578
1070.023, 725.7803
1070.505, 656.6545
1070.987, 603.8677
1071.469, 568.0991
1071.951, 536.1892
1072.434, 495.8518
1072.916, 455.6443
1073.398, 428.6772
1073.880, 410.6509
1074.362, 387.5125
1074.844, 349.8193
1075.326, 319.1624
1075.808, 299.6782
1076.291, 285.4607
1076.773, 266.2405
1077.255, 244.5627
1077.737, 231.1836
1078.219, 228.6284
1078.701, 222.8474
1079.183, 194.7737
1079.665, 176.1482
1080.147, 187.6113
1080.630, 218.6863
1081.112, 216.0776
1081.594, 181.0911
1082.076, 150.2393
1082.558, 137.2563
1083.040, 133.3540
1083.522, 139.0618
1084.004, 145.3787
1084.486, 137.8779
1084.969, 102.2864
1085.451, 92.66479
1085.933, 115.8379
1086.415, 139.9248
1086.897, 136.5396
1087.379, 119.0981
1087.861, 111.7083
1088.343, 112.0862
1088.826, 108.2869
1089.308, 91.12158
1089.790, 75.46069
1090.272, 61.59106
1090.754, 53.35645
1091.236, 61.75269
1091.718, 82.04663
1092.200, 92.47461
1092.682, 89.52515
1093.165, 80.13696
1093.647, 60.74512
1094.129, 44.28027
1094.611, 39.91919
1095.093, 44.73975
1095.575, 42.93408
1096.057, 34.38623
1096.539, 28.35840
1097.022, 29.65552
1097.504, 33.50513
1097.986, 31.12280
1098.468, 26.74023
1098.950, 29.87329
1099.432, 49.87451
1099.914, 55.76733
1100.396, 44.13647
1100.879, 29.22363
1101.361, 19.21973
1101.843, 13.96362
1102.325, 17.11157
1102.807, 26.52661
1103.289, 27.36987
1103.771, 2.241455
1104.253, 11.37854
1104.735, 2.394043
1105.218, 14.28735
1105.700, 20.91260
1106.182, 19.32520
1106.664, 15.88867
1107.146, 12.37964
1107.628, 11.05664
1108.110, 17.49512
1108.592, 24.67065
1109.074, 30.57788
1109.557, 34.01221
1110.039, 26.78589
1110.521, 8.579834
1111.003, 0.2016600
1111.485, 9.132080
1111.967, 21.22583
1112.449, 21.66528
1112.931, 16.77954
1113.414, 12.49536
1113.896, 8.610596
1114.378, 11.90845
1114.860, 24.80664
1115.342, 34.30713
1115.824, 29.00696
1116.306, 19.22437
1116.788, 25.04602
1117.271, 38.80920
1117.753, 43.36255
1118.235, 21.91199
1118.717, 7.854736
1119.199, 3.867798
1119.681, 6.306030
1120.163, 17.23560
1120.645, 30.84998
1121.127, 23.73853
1121.609, 1.763794
1122.092, 15.08557
1122.574, 14.57971
1123.056, 40.88696
1123.538, 48.28406
1124.020, 42.55566
1124.502, 31.72046
1124.984, 17.13684
1125.466, 11.15918
1125.949, 17.15479
1126.431, 22.53027
1126.913, 14.53821
1127.395, 6.151245
1127.877, 11.00220
1128.359, 25.98669
1128.841, 20.36743
1129.323, 7.425659
1129.806, 28.03455
1130.288, 29.70374
1130.770, 22.20032
1131.252, 9.203247
1131.734, 4.021118
1132.216, 9.919800
1132.698, 5.785522
1133.180, 1.103027
1133.662, 4.854614
1134.145, 8.156006
1134.627, 4.610229
1135.109, 1.995361
1135.591, 8.542969
1136.073, 13.14404
1136.555, 10.85571
1137.037, 16.66687
1137.519, 22.66064
1138.001, 4.183838
1138.484, 34.58740
1138.966, 31.14502
1139.448, 9.375244
1139.930, 11.21533
1140.412, 35.66040
1140.894, 51.66284
1141.376, 38.40942
1141.858, 25.24976
1142.341, 20.17725
1142.823, 19.20093
1143.305, 11.98413
1143.787, 1.757080
1144.269, 5.666504
1144.751, 28.09351
1145.233, 47.34888
1145.715, 52.49023
1146.198, 49.02954
1146.680, 37.85425
1147.162, 21.62598
1147.644, 13.47021
1148.126, 12.97070
1148.608, 14.42627
1149.090, 16.81641
1149.572, 18.56323
1150.054, 20.14575
1150.536, 19.15796
1151.019, 11.33838
1151.501, 4.398926
1151.983, 8.444824
1152.465, 0.4409180
1152.947, 9.658936
1153.429, 21.16602
1153.911, 27.09961
1154.393, 12.54761
1154.876, 9.716797
1155.358, 15.97656
1155.840, 0.1054690
1156.322, 17.13574
1156.804, 36.39429
1157.286, 50.70190
1157.768, 52.07593
1158.250, 46.52710
1158.733, 39.90625
1159.215, 32.87109
1159.697, 26.46484
1160.179, 11.37817
1160.661, 11.47388
1161.143, 24.75928
1161.625, 28.99487
1162.107, 3.304932
1162.589, 11.40454
1163.072, 7.472412
1163.554, 2.751709
1164.036, 24.03955
1164.518, 2.649902
1165.000, 18.20752
1165.482, 20.07471
1165.964, 30.66821
1166.446, 22.51807
1166.928, 21.01001
1167.411, 13.31787
1167.893, 9.518555
1168.375, 10.82983
1168.857, 21.70459
1169.339, 32.99780
1169.821, 42.01733
1170.303, 48.38354
1170.785, 50.99780
1171.268, 50.06543
1171.750, 45.34888
1172.232, 33.14966
1172.714, 26.73926
1173.196, 39.22168
1173.678, 51.50586
1174.160, 49.05225
1174.642, 35.99609
1175.125, 45.11719
1175.607, 70.38428
1176.089, 84.10156
1176.571, 63.92505
1177.053, 44.21045
1177.535, 39.45020
1178.017, 42.81445
1178.499, 52.47021
1178.981, 68.22632
1179.464, 59.92188
1179.946, 28.35840
1180.428, 4.607178
1180.910, 8.981201
1181.392, 22.04980
1181.874, 40.22363
1182.356, 57.23071
1182.838, 62.82788
1183.320, 56.66284
1183.803, 49.46313
1184.285, 41.78418
1184.767, 41.21045
1185.249, 66.08252
1185.731, 88.13501
1186.213, 83.68481
1186.695, 61.06274
1187.177, 41.94897
1187.660, 25.32324
1188.142, 18.57422
1188.624, 23.94238
1189.106, 35.25098
1189.588, 54.34912
1190.070, 69.80640
1190.552, 69.91406
1191.034, 56.75928
1191.516, 47.68872
1191.999, 43.11621
1192.481, 41.22949
1192.963, 42.48657
1193.445, 42.73340
1193.927, 34.90894
1194.409, 26.08008
1194.891, 22.84253
1195.373, 26.75122
1195.855, 31.11353
1196.338, 34.16040
1196.820, 38.62939
1197.302, 47.50293
1197.784, 54.15503
1198.266, 47.07959
1198.748, 35.59424
1199.230, 32.06201
1199.712, 39.00854
1200.195, 46.01440
1200.677, 53.71606
1201.159, 56.68237
1201.641, 48.43188
1202.123, 38.38232
1202.605, 39.10376
1203.087, 44.32275
1203.569, 42.99878
1204.052, 28.41455
1204.534, 26.24463
1205.016, 38.85107
1205.498, 49.58032
1205.980, 44.29858
1206.462, 33.29272
1206.944, 24.83716
1207.426, 20.45361
1207.908, 24.74194
1208.391, 41.58740
1208.873, 56.83984
1209.355, 70.58911
1209.837, 76.72070
1210.319, 64.99243
1210.801, 47.50757
1211.283, 39.72266
1211.765, 38.10059
1212.247, 27.48535
1212.730, 2.027832
1213.212, 14.34839
1213.694, 2.336914
1214.176, 18.22998
1214.658, 40.79980
1215.140, 57.45288
1215.622, 53.38867
1216.104, 33.08179
1216.587, 26.19824
1217.069, 38.58643
1217.551, 50.48022
1218.033, 58.46631
1218.515, 61.95801
1218.997, 52.26416
1219.479, 38.15503
1219.961, 27.53223
1220.443, 22.91528
1220.926, 25.08057
1221.408, 36.89746
1221.890, 43.50415
1222.372, 39.67529
1222.854, 31.67969
1223.336, 16.96729
1223.818, 5.745850
1224.300, 12.68188
1224.782, 40.40112
1225.265, 61.43604
1225.747, 76.51318
1226.229, 79.67578
1226.711, 65.08545
1227.193, 48.96655
1227.675, 55.06763
1228.157, 68.42773
1228.639, 70.53613
1229.122, 58.19507
1229.604, 48.29028
1230.086, 41.07788
1230.568, 34.33130
1231.050, 28.05811
1231.532, 20.48877
1232.014, 1.275879
1232.496, 16.37061
1232.979, 12.58862
1233.461, 17.11572
1233.943, 33.82593
1234.425, 36.58179
1234.907, 34.47632
1235.389, 29.69141
1235.871, 25.09180
1236.353, 21.20581
1236.835, 20.33643
1237.318, 27.94946
1237.800, 46.69922
1238.282, 49.38721
1238.764, 35.68140
1239.246, 23.39087
1239.728, 25.21240
1240.210, 28.67163
1240.692, 19.38721
1241.175, 8.196777
1241.657, 8.663086
1242.139, 23.55908
1242.621, 39.05078
1243.103, 55.39014
1243.585, 61.65820
1244.067, 41.18872
1244.549, 19.44629
1245.031, 14.60254
1245.514, 18.71680
1245.996, 19.54761
1246.478, 16.63940
1246.960, 18.67456
1247.442, 25.48022
1247.924, 31.63428
1248.406, 32.87085
1248.888, 32.52295
1249.370, 30.60254
1249.853, 29.27051
1250.335, 32.02295
1250.817, 38.74048
1251.299, 46.27100
1251.781, 53.85718
1252.263, 54.01050
1252.745, 29.65918
1253.227, 11.82568
1253.710, 19.95605
1254.192, 37.52319
1254.674, 44.77441
1255.156, 42.93335
1255.638, 39.46948
1256.120, 34.98901
1256.602, 31.98633
1257.084, 31.28833
1257.567, 33.62158
1258.049, 39.58813
1258.531, 47.70679
1259.013, 57.71631
1259.495, 66.71167
1259.977, 69.04077
1260.459, 62.93408
1260.941, 56.25879
1261.423, 53.70459
1261.906, 48.79150
1262.388, 36.69385
1262.870, 27.14893
1263.352, 42.78857
1263.834, 69.41431
1264.316, 69.97974
1264.798, 43.41675
1265.280, 22.73877
1265.762, 19.16748
1266.245, 19.86035
1266.727, 23.59375
1267.209, 28.44800
1267.691, 33.86816
1268.173, 37.60352
1268.655, 32.88550
1269.137, 17.44897
1269.619, 13.93262
1270.102, 23.51025
1270.584, 35.07471
1271.066, 47.93994
1271.548, 56.28906
1272.030, 47.16699
1272.512, 32.56396
1272.994, 26.50464
1273.476, 29.84229
1273.958, 35.40796
1274.441, 44.52808
1274.923, 44.72363
1275.405, 31.08643
1275.887, 17.65503
1276.369, 16.35205
1276.851, 24.29639
1277.333, 47.20923
1277.815, 78.89062
1278.297, 79.05664
1278.780, 45.46582
1279.262, 30.94238
1279.744, 50.88989
1280.226, 72.30078
1280.708, 67.27759
1281.190, 54.79663
1281.672, 49.35034
1282.154, 47.93872
1282.637, 34.76709
1283.119, 12.17114
1283.601, 4.728516
1284.083, 19.28735
1284.565, 36.24194
1285.047, 50.47998
1285.529, 55.41724
1286.011, 44.13037
1286.494, 25.30127
1286.976, 28.57031
1287.458, 45.64502
1287.940, 44.72876
1288.422, 16.11792
1288.904, 3.011963
1289.386, 8.409424
1289.868, 22.99829
1290.350, 34.54639
1290.833, 40.61597
1291.315, 29.37207
1291.797, 11.06396
1292.279, 7.605957
1292.761, 24.99829
1293.243, 39.16431
1293.725, 48.22388
1294.207, 50.92456
1294.689, 45.06592
1295.172, 37.00732
1295.654, 31.63672
1296.136, 31.26245
1296.618, 44.87012
1297.100, 74.28833
1297.582, 69.77100
1298.064, 21.89624
1298.546, 5.056396
1299.029, 13.95386
1299.511, 45.18384
1299.993, 58.59766
1300.475, 61.69238
1300.957, 60.38599
1301.439, 55.57153
1301.921, 34.05786
1302.403, 12.99292
1302.885, 0.5915530
1303.368, 1.385986
1303.850, 7.798340
1304.332, 6.586914
1304.814, 0.0000000E+00
##END=



