##NAMES=Aegirine
##RRUFFID=R070253
##IDEAL CHEMISTRY=NaFe^3+^Si_2_O_6_
##LOCALITY=Lovozero Massif, Kola Peninsula, Murmanskaya Oblast'; Northern Region, Russia
##OWNER=RRUFF
##SOURCE=Michael Scott
##DESCRIPTION=Dark green to black prismatic aegirine associated with a brown mica and microcline
##STATUS=The identification of this mineral has been confirmed by single-crystal X-ray diffraction.
##URL=rruff.info/R070253
122.8708, 0.0000000E+00
123.3529, 2.037231
123.8350, 4.661865
124.3171, 5.639404
124.7993, 0.7160640
125.2814, 2.408203
125.7635, 1.661621
126.2456, 3.830566
126.7277, 7.378662
127.2098, 5.094482
127.6920, 2.314453
128.1741, 5.170898
128.6562, 15.26880
129.1383, 28.57959
129.6204, 39.32031
130.1025, 47.74097
130.5847, 59.65771
131.0668, 80.47461
131.5489, 107.2966
132.0310, 129.9666
132.5131, 145.5671
132.9952, 156.9573
133.4774, 168.5620
133.9595, 180.3713
134.4416, 187.9414
134.9237, 186.8547
135.4058, 176.3938
135.8879, 162.1914
136.3701, 141.4456
136.8522, 119.7158
137.3343, 99.54834
137.8164, 81.56470
138.2985, 66.01855
138.7806, 53.42285
139.2628, 45.61377
139.7449, 37.60449
140.2270, 25.21826
140.7091, 14.01733
141.1912, 10.27441
141.6733, 16.79785
142.1555, 29.92871
142.6376, 37.05371
143.1197, 30.54443
143.6018, 26.05786
144.0839, 25.70972
144.5660, 28.36230
145.0482, 32.18921
145.5303, 36.23315
146.0124, 40.45874
146.4945, 44.73706
146.9766, 50.02783
147.4587, 54.44507
147.9409, 57.48462
148.4230, 59.06689
148.9051, 58.48022
149.3872, 53.21753
149.8693, 45.38477
150.3514, 44.96143
150.8336, 59.14893
151.3157, 76.49658
151.7978, 85.99390
152.2799, 86.49585
152.7620, 85.96509
153.2441, 90.66309
153.7263, 98.50171
154.2084, 106.3525
154.6905, 111.9287
155.1726, 116.9634
155.6547, 125.7888
156.1368, 140.3008
156.6190, 155.2766
157.1011, 167.5452
157.5832, 178.1428
158.0653, 189.2942
158.5474, 203.4829
159.0295, 220.2051
159.5117, 232.8948
159.9938, 242.3687
160.4759, 246.1023
160.9580, 241.0535
161.4401, 229.2109
161.9222, 215.3950
162.4044, 204.0286
162.8865, 195.7361
163.3686, 185.7007
163.8507, 171.8628
164.3328, 158.0930
164.8149, 145.2666
165.2971, 133.8408
165.7792, 124.8516
166.2613, 119.6234
166.7434, 119.7805
167.2255, 119.4966
167.7076, 114.7288
168.1898, 112.2340
168.6719, 118.1896
169.1540, 133.3909
169.6361, 152.1819
170.1182, 166.6602
170.6003, 174.5826
171.0825, 183.5411
171.5646, 192.1101
172.0467, 202.4979
172.5288, 218.3488
173.0109, 241.2004
173.4930, 266.5645
173.9752, 287.2874
174.4573, 303.4802
174.9394, 317.8578
175.4215, 328.8234
175.9036, 338.6021
176.3857, 353.9246
176.8679, 381.1860
177.3500, 407.4679
177.8321, 415.2045
178.3142, 403.6333
178.7963, 388.1294
179.2784, 377.7903
179.7606, 371.7407
180.2427, 363.5764
180.7248, 348.8308
181.2069, 332.9297
181.6890, 317.9080
182.1711, 303.6543
182.6533, 295.2542
183.1354, 300.8768
183.6175, 323.0428
184.0996, 340.3344
184.5817, 341.2642
185.0638, 339.7292
185.5460, 343.5452
186.0281, 354.3969
186.5102, 368.9166
186.9923, 382.6490
187.4744, 395.2555
187.9565, 407.9241
188.4387, 422.7424
188.9208, 436.5739
189.4029, 446.3988
189.8850, 451.4945
190.3671, 454.2853
190.8492, 459.6042
191.3314, 470.0980
191.8135, 478.7860
192.2956, 484.5332
192.7777, 488.8682
193.2598, 493.4210
193.7419, 498.7766
194.2241, 503.9287
194.7062, 506.4377
195.1883, 501.8853
195.6704, 499.6981
196.1525, 501.6339
196.6346, 505.5419
197.1168, 508.9250
197.5989, 510.6868
198.0810, 511.4567
198.5631, 513.0596
199.0452, 516.3477
199.5273, 519.2837
200.0095, 521.0876
200.4916, 522.3928
200.9737, 523.6865
201.4558, 524.7191
201.9379, 526.8545
202.4200, 535.0746
202.9022, 554.9426
203.3843, 570.2388
203.8664, 569.6569
204.3485, 559.2844
204.8306, 556.4600
205.3128, 570.2394
205.7949, 594.5500
206.2770, 614.9679
206.7591, 630.1743
207.2412, 644.9589
207.7233, 662.4216
208.2055, 682.1835
208.6876, 701.8689
209.1697, 721.6697
209.6518, 739.3040
210.1339, 752.4899
210.6160, 760.7998
211.0982, 765.7002
211.5803, 768.2800
212.0624, 768.7332
212.5445, 766.8223
213.0266, 763.8340
213.5087, 756.7329
213.9909, 741.8491
214.4730, 718.0031
214.9551, 690.6748
215.4372, 666.3943
215.9193, 645.8350
216.4014, 623.8182
216.8836, 597.0732
217.3657, 569.1814
217.8478, 541.8367
218.3299, 515.3944
218.8120, 489.4999
219.2941, 464.2426
219.7763, 439.5522
220.2584, 415.7661
220.7405, 392.5984
221.2226, 370.9996
221.7047, 352.0315
222.1868, 335.5730
222.6690, 319.6385
223.1511, 301.2358
223.6332, 277.4381
224.1153, 258.8195
224.5974, 250.5453
225.0795, 244.1238
225.5617, 232.8073
226.0438, 214.9501
226.5259, 194.7297
227.0080, 179.1952
227.4901, 169.8708
227.9722, 163.2009
228.4544, 162.7482
228.9365, 162.3353
229.4186, 156.0093
229.9007, 142.5693
230.3828, 126.6426
230.8649, 116.4836
231.3471, 116.2009
231.8292, 115.5566
232.3113, 115.4078
232.7934, 114.4620
233.2755, 110.5309
233.7576, 103.3650
234.2398, 95.97827
234.7219, 93.71887
235.2040, 101.9755
235.6861, 105.7113
236.1682, 101.2605
236.6503, 94.37366
237.1325, 89.83606
237.6146, 88.99658
238.0967, 90.88293
238.5788, 94.53101
239.0609, 102.0671
239.5430, 106.0265
240.0252, 101.6388
240.5073, 95.77209
240.9894, 96.50537
241.4715, 105.7201
241.9536, 116.9900
242.4357, 121.4969
242.9179, 117.5538
243.4000, 114.0563
243.8821, 112.2343
244.3642, 111.0627
244.8463, 108.7437
245.3284, 104.7709
245.8106, 101.9270
246.2927, 104.0083
246.7748, 111.1433
247.2569, 118.8025
247.7390, 129.9962
248.2211, 139.8187
248.7033, 141.1058
249.1854, 132.0756
249.6675, 120.0237
250.1496, 111.0165
250.6317, 104.8037
251.1138, 101.6423
251.5960, 104.4012
252.0781, 109.0563
252.5602, 109.6488
253.0423, 104.9794
253.5244, 100.2561
254.0065, 102.9738
254.4887, 109.7706
254.9708, 110.4855
255.4529, 97.31311
255.9350, 78.76196
256.4171, 66.94983
256.8992, 63.15735
257.3813, 61.83679
257.8635, 59.38416
258.3456, 56.68408
258.8277, 55.46094
259.3098, 57.90137
259.7919, 61.09753
260.2740, 61.30322
260.7562, 58.58667
261.2383, 52.55139
261.7204, 37.37158
262.2025, 20.01843
262.6846, 9.798584
263.1667, 11.88098
263.6489, 19.15955
264.1310, 22.08936
264.6131, 20.25366
265.0952, 15.85107
265.5773, 6.644531
266.0594, 3.347290
266.5416, 10.05847
267.0237, 11.92297
267.5058, 11.46265
267.9879, 11.71655
268.4700, 12.60889
268.9521, 14.50562
269.4343, 19.21533
269.9164, 24.10815
270.3985, 26.94836
270.8806, 27.11597
271.3627, 26.10181
271.8448, 25.57886
272.3270, 25.58557
272.8091, 25.93604
273.2912, 27.07410
273.7733, 28.26477
274.2554, 29.58923
274.7375, 30.98499
275.2197, 31.09802
275.7018, 27.92151
276.1839, 20.90161
276.6660, 14.26599
277.1481, 6.928955
277.6302, 1.458862
278.1124, 0.6557620
278.5945, 4.033447
279.0766, 7.452759
279.5587, 6.052246
280.0408, 0.9636230
280.5229, 5.603394
281.0051, 3.939331
281.4872, 2.898682
281.9693, 6.526978
282.4514, 13.75366
282.9335, 20.29297
283.4156, 21.50391
283.8978, 17.19250
284.3799, 16.88489
284.8620, 24.64600
285.3441, 32.59692
285.8262, 38.18884
286.3083, 41.83716
286.7905, 44.68445
287.2726, 47.02393
287.7547, 49.16370
288.2368, 54.36816
288.7189, 66.41516
289.2010, 77.12109
289.6832, 86.06921
290.1653, 91.96655
290.6474, 92.02893
291.1295, 83.57935
291.6116, 69.91589
292.0938, 64.81958
292.5759, 74.21143
293.0580, 84.44226
293.5401, 93.97241
294.0222, 102.3695
294.5043, 109.1780
294.9865, 114.1921
295.4686, 117.6720
295.9507, 120.0627
296.4328, 120.3750
296.9149, 121.3718
297.3970, 122.5529
297.8792, 124.8882
298.3613, 130.6580
298.8434, 140.1682
299.3255, 149.4119
299.8076, 150.3683
300.2897, 135.7521
300.7719, 129.6179
301.2540, 138.1798
301.7361, 150.4091
302.2182, 160.3011
302.7003, 166.4266
303.1824, 170.1216
303.6646, 172.7283
304.1467, 173.8896
304.6288, 175.2343
305.1109, 177.9131
305.5930, 179.7734
306.0751, 178.2578
306.5573, 174.5186
307.0394, 172.7438
307.5215, 177.7537
308.0036, 190.4443
308.4857, 196.7595
308.9678, 187.8829
309.4500, 181.0592
309.9321, 183.8610
310.4142, 192.5149
310.8963, 198.5107
311.3784, 195.6337
311.8605, 185.3168
312.3427, 179.0320
312.8248, 181.5421
313.3069, 182.6655
313.7890, 180.8381
314.2711, 176.5024
314.7532, 168.9113
315.2354, 157.4089
315.7175, 145.4214
316.1996, 143.9717
316.6817, 164.9663
317.1638, 177.5645
317.6459, 173.9376
318.1281, 163.8667
318.6102, 154.6743
319.0923, 149.0480
319.5744, 147.2716
320.0565, 150.6229
320.5386, 162.5297
321.0208, 171.6112
321.5029, 177.4264
321.9850, 180.7640
322.4671, 179.8589
322.9492, 175.7964
323.4313, 173.6553
323.9135, 179.7958
324.3956, 196.7479
324.8777, 209.0985
325.3598, 211.3442
325.8419, 214.3311
326.3240, 223.2356
326.8062, 236.6031
327.2883, 249.3265
327.7704, 257.0660
328.2525, 260.4288
328.7346, 268.4666
329.2168, 286.6968
329.6989, 303.8103
330.1810, 315.8036
330.6631, 325.2036
331.1452, 335.7732
331.6273, 349.6202
332.1095, 365.8107
332.5916, 381.7218
333.0737, 398.7008
333.5558, 413.2860
334.0379, 423.4490
334.5201, 432.4756
335.0022, 444.5819
335.4843, 460.8643
335.9664, 476.4116
336.4485, 482.5592
336.9306, 475.7227
337.4128, 470.4155
337.8949, 468.5065
338.3770, 468.4156
338.8591, 470.1746
339.3412, 473.2490
339.8233, 475.6958
340.3055, 476.7010
340.7876, 476.8142
341.2697, 468.8840
341.7518, 441.8683
342.2339, 417.4319
342.7160, 406.2177
343.1982, 404.4661
343.6803, 401.9882
344.1624, 391.2452
344.6445, 374.3588
345.1266, 362.1494
345.6087, 357.0732
346.0909, 352.9631
346.5730, 347.6173
347.0551, 341.9077
347.5372, 337.3060
348.0193, 334.6566
348.5014, 332.2932
348.9836, 326.2250
349.4657, 314.5157
349.9478, 305.7627
350.4299, 303.4325
350.9120, 304.1594
351.3941, 306.4004
351.8763, 309.7764
352.3584, 313.1763
352.8405, 314.3503
353.3226, 313.1320
353.8047, 316.1654
354.2868, 327.8835
354.7690, 340.6235
355.2511, 348.5007
355.7332, 352.5002
356.2153, 357.8015
356.6974, 368.0596
357.1795, 382.3855
357.6617, 397.7269
358.1438, 415.0819
358.6259, 431.6377
359.1080, 442.9844
359.5901, 452.4049
360.0722, 466.0920
360.5544, 488.0393
361.0365, 513.2642
361.5186, 535.5590
362.0007, 554.8154
362.4828, 571.9705
362.9649, 587.2307
363.4471, 600.1327
363.9292, 609.9725
364.4113, 616.3501
364.8934, 622.7853
365.3755, 632.1077
365.8576, 643.4786
366.3398, 653.1747
366.8219, 659.5363
367.3040, 665.5669
367.7861, 676.3430
368.2682, 691.6906
368.7503, 703.4811
369.2325, 703.8911
369.7146, 699.8066
370.1967, 704.4009
370.6788, 719.9487
371.1609, 735.9303
371.6430, 742.8322
372.1252, 743.5477
372.6073, 747.7892
373.0894, 759.9829
373.5715, 773.7385
374.0536, 782.8567
374.5357, 788.3759
375.0179, 796.8547
375.5000, 812.3380
375.9821, 832.0045
376.4642, 849.0850
376.9463, 862.6746
377.4284, 875.5283
377.9106, 888.3217
378.3927, 901.0734
378.8748, 913.4457
379.3569, 925.1681
379.8390, 937.7959
380.3211, 954.7638
380.8033, 977.9951
381.2854, 994.6638
381.7675, 999.4265
382.2496, 1000.413
382.7317, 1003.898
383.2138, 1010.114
383.6960, 1016.265
384.1781, 1020.838
384.6602, 1023.566
385.1423, 1020.997
385.6244, 1012.579
386.1065, 1000.606
386.5887, 984.8517
387.0708, 966.2550
387.5529, 946.1979
388.0350, 925.2510
388.5171, 903.1389
388.9992, 879.2479
389.4814, 855.1066
389.9635, 826.2643
390.4456, 788.7354
390.9277, 749.2670
391.4098, 712.9049
391.8919, 680.6008
392.3741, 650.3909
392.8562, 620.6346
393.3383, 591.4645
393.8204, 560.7688
394.3025, 527.9811
394.7846, 494.3600
395.2668, 458.7710
395.7489, 422.7008
396.2310, 388.3789
396.7131, 356.9330
397.1952, 328.5636
397.6773, 304.0743
398.1595, 286.1482
398.6416, 267.6942
399.1237, 245.9243
399.6058, 224.3845
400.0879, 205.8329
400.5700, 190.9805
401.0522, 179.1139
401.5343, 170.4020
402.0164, 165.9951
402.4985, 158.0231
402.9806, 142.0110
403.4627, 126.2598
403.9449, 114.8672
404.4270, 106.6989
404.9091, 98.17200
405.3912, 86.21240
405.8733, 72.69751
406.3554, 63.64941
406.8376, 59.70337
407.3197, 58.56287
407.8018, 63.09869
408.2839, 68.19214
408.7660, 68.04840
409.2481, 60.76361
409.7303, 51.09271
410.2124, 43.87067
410.6945, 38.88843
411.1766, 32.02582
411.6587, 19.53931
412.1408, 8.780884
412.6230, 8.184143
413.1051, 16.31494
413.5872, 22.61450
414.0693, 21.97308
414.5514, 17.03778
415.0335, 11.02509
415.5157, 3.863892
415.9978, 1.561096
416.4799, 2.584473
416.9620, 0.4639280
417.4441, 0.6010130
417.9262, 0.6986690
418.4084, 0.6027830
418.8905, 4.697144
419.3726, 10.42249
419.8547, 14.35217
420.3368, 14.93292
420.8189, 14.62549
421.3011, 18.21674
421.7832, 27.72235
422.2653, 32.34833
422.7474, 28.21887
423.2295, 20.57062
423.7116, 11.72852
424.1938, 2.945618
424.6759, 1.824768
425.1580, 1.128601
425.6401, 11.28503
426.1222, 19.04779
426.6043, 24.99957
427.0865, 28.33533
427.5686, 27.95398
428.0507, 25.13110
428.5328, 21.21454
429.0149, 16.76300
429.4970, 12.34638
429.9792, 8.969116
430.4613, 7.067688
430.9434, 5.282715
431.4255, 2.262024
431.9076, 0.4708860
432.3897, 2.349915
432.8719, 6.943237
433.3540, 11.01025
433.8361, 11.95343
434.3182, 10.15656
434.8003, 8.319275
435.2824, 6.012451
435.7646, 4.366821
436.2467, 4.724121
436.7288, 5.298523
437.2109, 3.808533
437.6930, 0.4860840
438.1751, 5.341858
438.6573, 7.317932
439.1394, 6.056519
439.6215, 7.284546
440.1036, 15.20203
440.5857, 21.86328
441.0678, 21.25800
441.5500, 14.89209
442.0321, 8.720337
442.5142, 5.629944
442.9963, 4.659790
443.4784, 4.040649
443.9605, 3.704590
444.4427, 4.348755
444.9248, 7.360535
445.4069, 11.04572
445.8890, 11.81787
446.3711, 7.611572
446.8532, 5.883545
447.3354, 14.21100
447.8175, 27.59436
448.2996, 34.65247
448.7817, 32.43402
449.2638, 26.35211
449.7459, 21.24536
450.2281, 17.17719
450.7102, 15.63861
451.1923, 17.42920
451.6744, 21.10095
452.1565, 27.34619
452.6386, 34.90735
453.1208, 40.15942
453.6029, 41.05054
454.0850, 39.06653
454.5671, 38.31677
455.0492, 39.37506
455.5313, 41.01263
456.0135, 44.31537
456.4956, 47.45850
456.9777, 48.68811
457.4598, 47.99518
457.9419, 46.83862
458.4240, 46.46289
458.9062, 46.86865
459.3883, 48.54431
459.8704, 54.97760
460.3525, 58.65979
460.8346, 53.90698
461.3167, 46.98413
461.7989, 47.04822
462.2810, 57.71954
462.7631, 71.53400
463.2452, 76.36670
463.7273, 70.55377
464.2094, 65.59119
464.6916, 63.39319
465.1737, 61.94171
465.6558, 59.92566
466.1379, 57.58228
466.6200, 55.93176
467.1021, 55.79004
467.5843, 56.58008
468.0664, 57.28381
468.5485, 57.93805
469.0306, 58.17328
469.5127, 57.59686
469.9948, 56.52942
470.4770, 55.32910
470.9591, 53.64056
471.4412, 53.73761
471.9233, 59.02802
472.4054, 66.31293
472.8875, 69.48645
473.3697, 67.24774
473.8518, 62.11011
474.3339, 55.51270
474.8160, 47.92816
475.2981, 45.16852
475.7802, 51.70239
476.2624, 58.01337
476.7445, 59.90222
477.2266, 58.26794
477.7087, 54.56592
478.1908, 49.46564
478.6729, 44.92957
479.1551, 44.36768
479.6372, 50.01801
480.1193, 53.56384
480.6014, 56.15466
481.0835, 57.17603
481.5656, 53.55121
482.0478, 47.84045
482.5299, 46.56494
483.0120, 54.32123
483.4941, 67.70947
483.9762, 75.48151
484.4583, 76.00439
484.9405, 74.57709
485.4226, 70.25879
485.9047, 66.40533
486.3868, 65.08319
486.8689, 66.77155
487.3510, 71.72357
487.8332, 81.84973
488.3153, 95.68872
488.7974, 106.5745
489.2795, 113.4020
489.7616, 119.5485
490.2437, 125.9304
490.7259, 132.8180
491.2080, 141.4905
491.6901, 153.3494
492.1722, 165.2942
492.6543, 174.4386
493.1364, 181.7511
493.6186, 189.9569
494.1007, 199.8217
494.5828, 210.1798
495.0649, 220.1157
495.5470, 229.7354
496.0291, 238.1902
496.5113, 247.5667
496.9934, 253.8132
497.4755, 254.2185
497.9576, 249.6516
498.4397, 241.9436
498.9218, 231.8995
499.4040, 220.1526
499.8861, 208.1464
500.3682, 194.8992
500.8503, 183.4921
501.3324, 173.9608
501.8145, 165.9567
502.2967, 161.3163
502.7788, 158.2474
503.2609, 151.4645
503.7430, 136.2965
504.2251, 115.6423
504.7072, 101.2054
505.1894, 95.00500
505.6715, 90.42590
506.1536, 87.89563
506.6357, 84.88342
507.1178, 77.92676
507.5999, 67.01819
508.0821, 58.41455
508.5642, 59.43408
509.0463, 66.27148
509.5284, 66.99670
510.0105, 59.79700
510.4926, 51.42053
510.9748, 44.26514
511.4569, 39.47583
511.9390, 39.66968
512.4211, 47.86389
512.9032, 55.79626
513.3853, 58.59082
513.8674, 58.63654
514.3495, 60.52985
514.8317, 65.29633
515.3138, 69.27521
515.7959, 67.77917
516.2780, 59.99927
516.7601, 59.87842
517.2422, 71.45636
517.7244, 84.83533
518.2065, 98.62708
518.6886, 111.5037
519.1707, 122.3491
519.6528, 130.6676
520.1349, 135.7974
520.6171, 134.1804
521.0992, 120.6718
521.5813, 121.5250
522.0634, 153.7297
522.5455, 183.9390
523.0276, 197.0669
523.5098, 199.9833
523.9919, 206.7551
524.4740, 224.4574
524.9561, 246.1929
525.4382, 261.0951
525.9203, 268.8967
526.4025, 280.5967
526.8846, 299.9255
527.3667, 322.2753
527.8488, 342.9656
528.3309, 362.4135
528.8130, 384.2695
529.2952, 412.3324
529.7773, 441.1132
530.2594, 463.9249
530.7415, 482.4151
531.2236, 504.9795
531.7057, 535.8204
532.1879, 571.2546
532.6700, 604.1609
533.1521, 633.0345
533.6342, 663.2070
534.1163, 693.7528
534.5984, 726.3342
535.0806, 765.0634
535.5627, 806.9694
536.0448, 843.3046
536.5269, 867.8367
537.0090, 885.8566
537.4911, 913.5366
537.9733, 956.3050
538.4554, 997.4268
538.9375, 1040.320
539.4196, 1076.692
539.9017, 1099.369
540.3839, 1110.024
540.8660, 1117.263
541.3481, 1127.072
541.8302, 1136.978
542.3123, 1140.950
542.7944, 1138.500
543.2766, 1134.762
543.7587, 1133.341
544.2408, 1130.076
544.7229, 1119.137
545.2050, 1100.021
545.6871, 1078.744
546.1693, 1053.448
546.6514, 1029.510
547.1335, 1014.927
547.6156, 1008.639
548.0977, 1000.393
548.5798, 983.4545
549.0620, 960.8521
549.5441, 942.9799
550.0262, 935.6181
550.5083, 925.4503
550.9904, 910.6049
551.4725, 894.4878
551.9547, 878.0531
552.4368, 861.9744
552.9189, 848.7124
553.4010, 840.5436
553.8831, 836.2762
554.3652, 829.7629
554.8474, 819.4634
555.3295, 809.4435
555.8116, 800.8024
556.2937, 793.0733
556.7758, 785.8708
557.2579, 779.1971
557.7401, 773.4567
558.2222, 770.5117
558.7043, 768.4407
559.1864, 761.9927
559.6685, 750.3132
560.1506, 740.2745
560.6328, 737.1252
561.1149, 736.7165
561.5970, 728.3404
562.0791, 708.8188
562.5612, 693.2896
563.0433, 686.0400
563.5255, 681.8499
564.0076, 678.0961
564.4897, 674.4631
564.9718, 669.9486
565.4539, 663.7208
565.9360, 656.1285
566.4182, 648.9900
566.9003, 644.4183
567.3824, 635.3693
567.8645, 615.9964
568.3466, 597.5667
568.8287, 588.4409
569.3109, 587.0495
569.7930, 586.1906
570.2751, 582.0818
570.7572, 575.5312
571.2393, 566.1486
571.7214, 552.9988
572.2036, 542.3086
572.6857, 537.9614
573.1678, 534.9296
573.6499, 526.4379
574.1320, 512.6367
574.6141, 499.8929
575.0963, 490.6201
575.5784, 482.6456
576.0605, 474.2482
576.5427, 465.5322
577.0248, 456.9203
577.5069, 448.6292
577.9890, 441.1839
578.4711, 435.9781
578.9532, 436.2775
579.4354, 429.7410
579.9175, 407.5494
580.3996, 388.2875
580.8817, 385.2614
581.3638, 391.0928
581.8459, 390.5344
582.3281, 376.0597
582.8102, 355.0952
583.2923, 339.6057
583.7744, 330.0844
584.2565, 319.3201
584.7386, 305.8218
585.2208, 291.4863
585.7029, 275.7068
586.1850, 260.0760
586.6671, 249.1921
587.1492, 246.8007
587.6313, 245.7917
588.1135, 239.9928
588.5956, 231.7250
589.0777, 227.6147
589.5598, 229.4907
590.0419, 230.8331
590.5240, 224.4196
591.0062, 209.9001
591.4883, 196.5060
591.9704, 184.2157
592.4525, 172.9067
592.9346, 162.6482
593.4167, 153.3246
593.8989, 144.9136
594.3810, 137.3616
594.8631, 130.1844
595.3452, 123.1611
595.8273, 116.2054
596.3094, 107.7051
596.7916, 96.18243
597.2737, 86.41614
597.7558, 82.65302
598.2379, 80.57947
598.7200, 74.89557
599.2021, 64.48987
599.6843, 55.92480
600.1664, 56.06201
600.6485, 58.25922
601.1306, 50.33209
601.6127, 32.93195
602.0948, 20.21039
602.5770, 21.22528
603.0591, 30.86597
603.5412, 35.11346
604.0233, 31.08185
604.5054, 25.91913
604.9875, 17.43024
605.4697, 9.718506
605.9518, 6.046143
606.4339, 5.391235
606.9160, 4.744507
607.3981, 2.430542
607.8802, 0.7760620
608.3624, 3.958496
608.8445, 7.471863
609.3266, 7.526978
609.8087, 0.1235350
610.2908, 6.587463
610.7729, 3.550537
611.2551, 5.942017
611.7372, 12.81989
612.2193, 13.34460
612.7014, 12.40692
613.1835, 13.24835
613.6656, 15.25189
614.1478, 16.90454
614.6299, 17.83228
615.1120, 19.41241
615.5941, 23.71204
616.0762, 30.77264
616.5583, 32.20380
617.0405, 21.48370
617.5226, 13.32434
618.0047, 11.06451
618.4868, 11.84863
618.9689, 14.17499
619.4510, 17.01215
619.9332, 17.63110
620.4153, 11.96014
620.8974, 2.611755
621.3795, 0.1262210
621.8616, 5.032776
622.3438, 10.09229
622.8259, 13.34778
623.3080, 13.88605
623.7901, 9.553101
624.2722, 1.9958001E-02
624.7543, 7.269836
625.2365, 8.818298
625.7186, 8.447815
626.2007, 9.783508
626.6828, 11.81598
627.1649, 10.32837
627.6470, 3.417358
628.1292, 4.070068
628.6113, 3.563110
629.0934, 8.095947
629.5755, 14.50995
630.0576, 10.49896
630.5397, 6.547791
631.0219, 5.709229
631.5040, 6.725952
631.9861, 7.820740
632.4682, 8.493225
632.9503, 8.900513
633.4324, 9.459595
633.9146, 9.871765
634.3967, 8.729126
634.8788, 5.693909
635.3609, 3.263733
635.8430, 2.511353
636.3251, 3.619629
636.8073, 7.564087
637.2894, 16.00641
637.7715, 22.90582
638.2536, 25.50983
638.7357, 27.77246
639.2178, 33.82196
639.7000, 42.28485
640.1821, 48.58972
640.6642, 50.20288
641.1463, 48.87726
641.6284, 47.98254
642.1105, 47.56720
642.5927, 47.26099
643.0748, 46.29193
643.5569, 46.43500
644.0390, 49.61823
644.5211, 54.35126
645.0032, 57.61176
645.4854, 58.52478
645.9675, 58.29688
646.4496, 56.79034
646.9317, 54.98694
647.4138, 55.10809
647.8959, 57.34137
648.3781, 59.38483
648.8602, 59.35406
649.3423, 57.89862
649.8244, 58.11115
650.3065, 61.74182
650.7886, 64.45294
651.2708, 65.31195
651.7529, 65.92859
652.2350, 65.25940
652.7171, 65.22437
653.1992, 71.77698
653.6813, 90.82062
654.1635, 111.0120
654.6456, 111.0464
655.1277, 93.04370
655.6098, 84.69446
656.0919, 93.38507
656.5740, 106.4398
657.0562, 113.6234
657.5383, 115.6056
658.0204, 118.6213
658.5025, 125.4302
658.9846, 129.7994
659.4667, 126.5844
659.9489, 122.0557
660.4310, 123.4475
660.9131, 130.8823
661.3952, 139.1886
661.8773, 144.4995
662.3594, 148.0879
662.8416, 154.0547
663.3237, 162.4632
663.8058, 173.3035
664.2879, 189.6160
664.7700, 205.2687
665.2521, 215.9354
665.7343, 222.3668
666.2164, 227.0214
666.6985, 227.6664
667.1806, 230.7419
667.6627, 242.0412
668.1448, 258.7155
668.6270, 277.2555
669.1091, 296.1235
669.5912, 312.3141
670.0733, 323.3550
670.5554, 329.9050
671.0375, 336.2330
671.5197, 341.9179
672.0018, 347.8521
672.4839, 355.0085
672.9660, 361.6472
673.4481, 366.5516
673.9302, 369.5037
674.4124, 371.2291
674.8945, 372.6034
675.3766, 373.4556
675.8587, 374.0436
676.3408, 373.6986
676.8229, 370.2841
677.3051, 363.3921
677.7872, 352.7589
678.2693, 337.5195
678.7514, 318.4827
679.2335, 301.9117
679.7156, 286.9781
680.1978, 274.0927
680.6799, 266.2253
681.1620, 258.5480
681.6441, 246.4147
682.1262, 230.8804
682.6083, 216.4877
683.0905, 206.1063
683.5726, 197.6638
684.0547, 187.6488
684.5368, 176.0963
685.0189, 161.4005
685.5010, 140.8535
685.9832, 121.8780
686.4653, 112.3708
686.9474, 111.3953
687.4295, 110.0100
687.9116, 107.2706
688.3937, 104.8690
688.8759, 105.3120
689.3580, 105.1833
689.8401, 99.96350
690.3222, 90.31195
690.8043, 80.49634
691.2864, 72.99255
691.7686, 68.16443
692.2507, 67.78967
692.7328, 72.81427
693.2149, 75.84613
693.6970, 76.32617
694.1791, 74.27777
694.6613, 67.49420
695.1434, 58.51874
695.6255, 53.33551
696.1076, 55.35004
696.5897, 56.09491
697.0718, 48.70819
697.5540, 39.68707
698.0361, 38.10779
698.5182, 43.38879
699.0003, 48.26538
699.4824, 48.33441
699.9645, 44.88715
700.4467, 40.48407
700.9288, 34.16852
701.4109, 30.56323
701.8930, 30.90601
702.3751, 32.91016
702.8572, 36.88446
703.3394, 41.21655
703.8215, 43.21545
704.3036, 42.22223
704.7857, 39.33331
705.2678, 32.53381
705.7499, 25.66431
706.2321, 25.33087
706.7142, 30.69653
707.1963, 34.51483
707.6784, 32.74603
708.1605, 29.15253
708.6426, 32.10193
709.1248, 45.35394
709.6069, 51.64899
710.0890, 45.65479
710.5711, 38.79486
711.0532, 34.07745
711.5353, 31.23383
712.0175, 29.96930
712.4996, 30.15240
712.9817, 31.14661
713.4638, 32.78137
713.9459, 35.00226
714.4280, 38.47626
714.9102, 42.65088
715.3923, 44.57849
715.8744, 42.81769
716.3565, 39.75800
716.8386, 38.69415
717.3207, 39.67426
717.8029, 43.34711
718.2850, 55.66449
718.7671, 62.29102
719.2492, 54.57703
719.7313, 43.63727
720.2134, 41.77386
720.6956, 49.62305
721.1777, 56.20331
721.6598, 55.11023
722.1419, 49.13794
722.6240, 38.65094
723.1061, 25.92242
723.5883, 20.84790
724.0704, 26.63287
724.5525, 36.10461
725.0346, 42.22137
725.5167, 44.93420
725.9988, 44.84973
726.4810, 38.03320
726.9631, 34.23309
727.4452, 36.09717
727.9273, 39.98303
728.4094, 43.67126
728.8915, 46.93848
729.3737, 50.12610
729.8558, 53.88391
730.3379, 56.82605
730.8200, 56.99109
731.3021, 55.24200
731.7842, 54.41583
732.2664, 54.82458
732.7485, 53.49005
733.2306, 47.91895
733.7127, 39.64240
734.1948, 34.84552
734.6769, 36.52057
735.1591, 36.33997
735.6412, 30.29779
736.1233, 26.38165
736.6054, 31.06390
737.0875, 40.62762
737.5696, 47.46436
738.0518, 48.36938
738.5339, 47.08978
739.0160, 47.75000
739.4981, 48.94995
739.9802, 46.74902
740.4623, 41.51880
740.9445, 38.44904
741.4266, 39.81158
741.9087, 43.94818
742.3908, 48.74774
742.8729, 55.10077
743.3550, 58.69043
743.8372, 56.72980
744.3193, 55.59259
744.8014, 57.50391
745.2835, 60.25916
745.7656, 61.44269
746.2477, 60.83789
746.7299, 60.62347
747.2120, 62.18219
747.6941, 64.67981
748.1762, 66.88391
748.6583, 69.13617
749.1404, 73.63104
749.6226, 80.94202
750.1047, 86.37445
750.5868, 84.40430
751.0689, 75.96472
751.5510, 71.66089
752.0331, 74.25977
752.5153, 75.63391
752.9974, 72.51959
753.4795, 69.74438
753.9616, 71.61176
754.4437, 75.99188
754.9258, 77.46899
755.4080, 73.64185
755.8901, 68.08850
756.3722, 62.56244
756.8543, 57.16089
757.3364, 52.02344
757.8185, 47.21692
758.3007, 42.66443
758.7828, 38.29150
759.2649, 34.46869
759.7470, 32.06079
760.2291, 31.27148
760.7112, 30.87354
761.1934, 30.88531
761.6755, 31.23340
762.1576, 31.95233
762.6397, 32.95935
763.1218, 34.66248
763.6039, 37.39716
764.0861, 38.03479
764.5682, 34.30853
765.0503, 29.18652
765.5324, 23.60193
766.0145, 18.74432
766.4966, 17.71545
766.9788, 20.84686
767.4609, 23.09149
767.9430, 18.69031
768.4251, 9.285034
768.9072, 2.572876
769.3893, 1.823364
769.8715, 0.8227540
770.3536, 9.733154
770.8357, 21.11530
771.3178, 24.97925
771.7999, 22.44940
772.2820, 19.25378
772.7642, 15.62042
773.2463, 11.46271
773.7284, 5.863647
774.2105, 0.4151000
774.6926, 4.396851
775.1747, 7.735352
775.6569, 7.391357
776.1390, 2.013916
776.6211, 5.019775
777.1032, 9.777954
777.5853, 12.24915
778.0674, 11.50061
778.5496, 6.937683
779.0317, 4.041931
779.5138, 6.330933
779.9959, 10.51880
780.4780, 10.52490
780.9601, 4.708008
781.4423, 1.353394
781.9244, 0.1723630
782.4065, 1.650024
782.8886, 9.690918
783.3707, 18.16187
783.8528, 19.14832
784.3350, 12.80518
784.8171, 7.721130
785.2992, 10.61627
785.7813, 15.77209
786.2634, 15.47772
786.7455, 11.15002
787.2277, 7.261292
787.7098, 4.722900
788.1919, 2.502197
788.6740, 0.3695070
789.1561, 3.254089
789.6382, 3.685364
790.1204, 0.8512570
790.6025, 2.500671
791.0846, 8.133118
791.5667, 12.13049
792.0488, 12.83325
792.5309, 10.83325
793.0131, 6.645081
793.4952, 2.9967999E-02
793.9773, 6.336548
794.4594, 13.84674
794.9415, 18.36096
795.4236, 13.25641
795.9058, 2.392944
796.3879, 5.459045
796.8700, 7.535217
797.3521, 6.045471
797.8342, 2.228027
798.3163, 2.742981
798.7985, 1.561401
799.2806, 7.470764
799.7627, 12.60040
800.2448, 10.01837
800.7269, 4.696594
801.2090, 0.2769780
801.6912, 4.504822
802.1733, 6.271484
802.6554, 4.118530
803.1375, 1.832581
803.6196, 0.1671750
804.1017, 1.824646
804.5839, 2.494934
805.0660, 2.913208
805.5481, 5.096863
806.0302, 9.826843
806.5123, 13.68073
806.9944, 12.13171
807.4766, 7.468933
807.9587, 4.625549
808.4408, 3.834656
808.9229, 6.576843
809.4050, 14.13715
809.8871, 20.47601
810.3693, 17.33276
810.8514, 4.864136
811.3335, 0.8781740
811.8156, 4.415039
812.2977, 9.256775
812.7798, 11.27094
813.2620, 12.93665
813.7441, 15.80481
814.2262, 19.64575
814.7083, 23.89673
815.1904, 29.39551
815.6725, 32.77252
816.1547, 30.70862
816.6368, 26.52252
817.1189, 22.71033
817.6010, 20.29462
818.0831, 21.74286
818.5652, 28.00677
819.0474, 35.39160
819.5295, 39.22784
820.0116, 39.75598
820.4937, 38.85474
820.9758, 36.21399
821.4579, 33.89655
821.9401, 32.23767
822.4222, 31.71265
822.9043, 33.20496
823.3864, 36.61298
823.8685, 39.32526
824.3506, 40.60315
824.8328, 42.23743
825.3149, 44.89734
825.7970, 47.64185
826.2791, 50.14886
826.7612, 52.09857
827.2433, 52.79651
827.7255, 51.97723
828.2076, 50.94214
828.6897, 50.19098
829.1718, 50.09857
829.6539, 51.90967
830.1360, 55.16663
830.6182, 57.23383
831.1003, 57.09076
831.5824, 57.44714
832.0645, 61.73682
832.5466, 69.50568
833.0287, 76.66638
833.5109, 84.64282
833.9930, 88.51910
834.4751, 84.06854
834.9572, 78.49939
835.4393, 78.65900
835.9214, 82.38434
836.4036, 83.08533
836.8857, 77.35345
837.3678, 74.55316
837.8499, 78.41736
838.3320, 84.61487
838.8141, 92.30219
839.2963, 99.25861
839.7784, 101.1333
840.2605, 96.82635
840.7426, 92.62769
841.2247, 95.35742
841.7068, 101.6917
842.1890, 104.0767
842.6711, 103.0391
843.1532, 104.2510
843.6353, 109.3998
844.1174, 114.7615
844.5995, 116.0282
845.0817, 114.5451
845.5638, 119.4463
846.0459, 135.5825
846.5280, 144.4903
847.0101, 139.4614
847.4922, 133.8486
847.9744, 134.8903
848.4565, 139.7884
848.9386, 144.4780
849.4207, 148.4602
849.9028, 151.8895
850.3849, 155.8279
850.8671, 158.1272
851.3492, 154.0132
851.8313, 148.7572
852.3134, 151.6288
852.7955, 162.9479
853.2776, 174.0789
853.7598, 179.1611
854.2419, 179.5637
854.7240, 175.7418
855.2061, 169.7662
855.6882, 170.5618
856.1703, 178.6825
856.6525, 185.6694
857.1346, 186.5223
857.6167, 184.6198
858.0988, 187.1827
858.5809, 195.5906
859.0630, 200.2449
859.5452, 198.4753
860.0273, 195.9142
860.5094, 192.5444
860.9915, 191.1202
861.4736, 195.6073
861.9557, 204.5314
862.4379, 210.5670
862.9200, 211.7062
863.4021, 210.7092
863.8842, 207.8011
864.3663, 203.9113
864.8484, 198.3508
865.3306, 192.6401
865.8127, 191.0051
866.2948, 195.0355
866.7769, 198.2034
867.2590, 191.4152
867.7411, 180.1761
868.2233, 177.5633
868.7054, 181.8176
869.1875, 182.0911
869.6696, 175.7188
870.1517, 168.4375
870.6339, 165.8275
871.1160, 166.7481
871.5981, 166.0712
872.0802, 163.3816
872.5623, 160.6765
873.0444, 158.8415
873.5266, 155.8346
874.0087, 149.6169
874.4908, 141.8734
874.9729, 135.9595
875.4550, 132.3226
875.9371, 127.8964
876.4193, 122.5466
876.9014, 116.0228
877.3835, 105.8867
877.8656, 96.14044
878.3477, 91.04535
878.8298, 90.61444
879.3120, 92.71918
879.7941, 97.79254
880.2762, 101.0800
880.7583, 96.96228
881.2404, 88.33264
881.7225, 77.79926
882.2047, 67.28094
882.6868, 64.44086
883.1689, 72.54980
883.6510, 82.61395
884.1331, 82.68182
884.6152, 74.31488
885.0974, 69.52173
885.5795, 68.84869
886.0616, 67.92181
886.5437, 65.73163
887.0258, 63.20441
887.5079, 61.97443
887.9901, 60.78760
888.4722, 54.23450
888.9543, 34.45398
889.4364, 24.40106
889.9185, 31.91479
890.4006, 39.87006
890.8828, 41.56689
891.3649, 39.97858
891.8470, 39.12982
892.3291, 39.37592
892.8112, 38.23120
893.2933, 32.52924
893.7755, 27.60468
894.2576, 28.16168
894.7397, 30.55066
895.2218, 30.55304
895.7039, 27.87366
896.1860, 23.22119
896.6682, 16.77075
897.1503, 11.48370
897.6324, 13.04260
898.1145, 18.22827
898.5966, 15.65375
899.0787, 6.208130
899.5609, 2.296753
900.0430, 8.191101
900.5251, 14.56439
901.0072, 11.69415
901.4893, 2.376587
901.9714, 1.110657
902.4536, 11.40240
902.9357, 16.69336
903.4178, 13.61249
903.8999, 8.876038
904.3820, 5.620850
904.8641, 3.081116
905.3463, 0.3757320
905.8284, 5.057739
906.3105, 8.017944
906.7926, 7.983643
907.2747, 7.540344
907.7568, 7.593689
908.2390, 7.460388
908.7211, 5.671997
909.2032, 3.152649
909.6853, 3.087341
910.1674, 7.487183
910.6495, 10.83997
911.1317, 7.492676
911.6138, 2.728455
912.0959, 3.477112
912.5780, 7.643066
913.0601, 9.426697
913.5422, 7.384583
914.0244, 4.228638
914.5065, 1.586670
914.9886, 0.5771480
915.4707, 6.598816
915.9528, 17.42688
916.4349, 16.20007
916.9171, 0.4718630
917.3992, 11.66077
917.8813, 9.856140
918.3634, 1.039124
918.8455, 3.443481
919.3276, 3.391357
919.8098, 2.388123
920.2919, 1.5259000E-02
920.7740, 2.258423
921.2561, 3.928772
921.7382, 5.415283
922.2203, 6.743958
922.7025, 8.165039
923.1846, 10.68207
923.6667, 15.12970
924.1488, 18.89551
924.6309, 24.05457
925.1130, 25.85907
925.5952, 18.38000
926.0773, 8.640991
926.5594, 5.370605
927.0415, 9.049927
927.5236, 13.71356
928.0057, 17.02124
928.4879, 20.36420
928.9700, 26.13055
929.4521, 31.38464
929.9342, 30.55804
930.4163, 26.30780
930.8984, 27.09296
931.3806, 35.91534
931.8627, 46.30847
932.3448, 52.08630
932.8269, 54.77118
933.3090, 56.61383
933.7911, 58.08716
934.2733, 61.54132
934.7554, 67.32336
935.2375, 72.88226
935.7196, 76.32312
936.2017, 79.32196
936.6838, 85.82391
937.1660, 96.10815
937.6481, 104.2834
938.1302, 109.8030
938.6123, 115.6451
939.0944, 123.0774
939.5765, 130.5812
940.0587, 136.3934
940.5408, 140.9083
941.0229, 146.4968
941.5050, 151.6659
941.9871, 160.6859
942.4692, 177.5310
942.9514, 193.6536
943.4335, 204.9420
943.9156, 213.9574
944.3977, 223.8300
944.8798, 234.7285
945.3619, 245.6406
945.8441, 255.2834
946.3262, 266.1887
946.8083, 281.5631
947.2904, 296.5231
947.7725, 305.7705
948.2546, 311.6364
948.7368, 320.8347
949.2189, 335.5687
949.7010, 347.7103
950.1831, 349.6797
950.6652, 348.7098
951.1473, 352.7878
951.6295, 359.0276
952.1116, 360.9254
952.5937, 358.7091
953.0758, 358.8709
953.5579, 365.4080
954.0400, 373.4722
954.5222, 375.5442
955.0043, 373.9465
955.4864, 376.2738
955.9685, 382.2463
956.4506, 388.4082
956.9327, 393.5345
957.4149, 395.0410
957.8970, 390.3723
958.3791, 381.9061
958.8612, 376.7612
959.3433, 374.7652
959.8254, 376.1593
960.3076, 382.9426
960.7897, 385.6609
961.2718, 379.0013
961.7539, 369.1046
962.2360, 363.5313
962.7181, 362.1560
963.2003, 362.7598
963.6824, 370.0995
964.1645, 369.1412
964.6466, 350.9579
965.1287, 334.0148
965.6108, 331.3291
966.0930, 334.4602
966.5751, 329.4832
967.0572, 314.8215
967.5393, 307.1223
968.0214, 315.6521
968.5035, 320.7269
968.9857, 316.9119
969.4678, 308.5963
969.9499, 297.5831
970.4320, 284.5812
970.9141, 269.7061
971.3962, 252.5841
971.8784, 239.9410
972.3605, 239.6593
972.8426, 239.6753
973.3247, 230.2556
973.8068, 216.2695
974.2889, 204.7928
974.7711, 197.1144
975.2532, 190.2583
975.7353, 183.1738
976.2174, 174.7167
976.6995, 159.8284
977.1816, 145.9227
977.6638, 147.2159
978.1459, 157.3538
978.6280, 158.9226
979.1101, 148.8433
979.5922, 135.8358
980.0743, 125.4382
980.5565, 118.3655
981.0386, 118.9811
981.5207, 123.7822
982.0028, 119.1788
982.4849, 105.3481
982.9670, 89.45923
983.4492, 73.91589
983.9313, 62.73828
984.4134, 60.24622
984.8955, 64.02783
985.3776, 67.41724
985.8597, 70.53052
986.3419, 68.32007
986.8240, 59.42261
987.3061, 51.30920
987.7882, 47.16516
988.2703, 45.29626
988.7524, 44.06360
989.2346, 43.21436
989.7167, 39.76257
990.1988, 31.79065
990.6809, 27.23633
991.1630, 28.57751
991.6451, 30.04529
992.1273, 28.04077
992.6094, 25.22961
993.0915, 26.50024
993.5736, 32.33789
994.0557, 33.22705
994.5378, 25.38708
995.0200, 18.10608
995.5021, 9.017944
995.9842, 4.116699
996.4663, 10.56250
996.9484, 21.61829
997.4305, 26.57104
997.9127, 24.41809
998.3948, 18.75293
998.8769, 3.092163
999.3590, 6.596436
999.8411, 1.572388
1000.323, 7.660889
1000.805, 16.07849
1001.287, 21.42114
1001.770, 18.47839
1002.252, 5.432861
1002.734, 2.206177
1003.216, 6.786011
1003.698, 17.46570
1004.180, 21.70996
1004.662, 22.59265
1005.144, 22.39087
1005.627, 22.22473
1006.109, 23.48315
1006.591, 26.64819
1007.073, 31.29773
1007.555, 38.63220
1008.037, 45.86121
1008.519, 49.66895
1009.001, 51.79944
1009.483, 54.28162
1009.966, 57.92773
1010.448, 64.03564
1010.930, 73.24243
1011.412, 83.57190
1011.894, 95.72327
1012.376, 105.8376
1012.858, 105.1804
1013.340, 98.14026
1013.823, 96.15515
1014.305, 100.6770
1014.787, 106.5059
1015.269, 110.6864
1015.751, 114.3586
1016.233, 119.2401
1016.715, 124.7557
1017.197, 130.1869
1017.679, 134.8918
1018.162, 134.8884
1018.644, 129.7587
1019.126, 125.2263
1019.608, 124.9744
1020.090, 128.3712
1020.572, 137.1155
1021.054, 149.3237
1021.536, 150.5000
1022.018, 140.9053
1022.501, 130.9742
1022.983, 123.1189
1023.465, 115.9641
1023.947, 108.0260
1024.429, 101.8048
1024.911, 104.3052
1025.393, 115.8378
1025.875, 120.2888
1026.358, 116.8440
1026.840, 112.8365
1027.322, 109.9290
1027.804, 107.7649
1028.286, 105.7858
1028.768, 104.9042
1029.250, 108.3201
1029.732, 117.3401
1030.214, 119.5388
1030.697, 111.8929
1031.179, 108.1936
1031.661, 113.3604
1032.143, 120.4504
1032.625, 124.4664
1033.107, 125.9288
1033.589, 126.0786
1034.071, 124.3636
1034.553, 123.7544
1035.036, 123.8302
1035.518, 126.1472
1036.000, 133.1342
1036.482, 139.3984
1036.964, 139.5642
1037.446, 136.2695
1037.928, 137.3617
1038.410, 144.8129
1038.893, 150.1252
1039.375, 154.4441
1039.857, 154.7786
1040.339, 148.7822
1040.821, 140.2521
1041.303, 130.2853
1041.785, 120.4071
1042.267, 115.0347
1042.750, 116.3398
1043.232, 114.7419
1043.714, 107.9189
1044.196, 101.1980
1044.678, 96.20093
1045.160, 91.31836
1045.642, 84.04944
1046.124, 76.27271
1046.606, 73.35413
1047.089, 77.71204
1047.571, 77.90540
1048.053, 66.64282
1048.535, 58.91235
1049.017, 63.15857
1049.499, 68.25793
1049.981, 64.45264
1050.463, 55.36011
1050.945, 49.32739
1051.428, 47.29834
1051.910, 48.27563
1052.392, 56.00623
1052.874, 61.49463
1053.356, 60.66821
1053.838, 57.69824
1054.320, 54.23242
1054.802, 51.61499
1055.285, 53.02612
1055.767, 59.50830
1056.249, 62.32483
1056.731, 54.36572
1057.213, 48.70898
1057.695, 54.44641
1058.177, 60.38953
1058.659, 55.18225
1059.141, 44.77881
1059.624, 41.90686
1060.106, 48.76331
1060.588, 54.21375
1061.070, 55.31396
1061.552, 53.63025
1062.034, 45.30597
1062.516, 38.72894
1062.998, 43.79077
1063.480, 53.81555
1063.963, 55.65906
1064.445, 47.74628
1064.927, 43.04553
1065.409, 49.66516
1065.891, 55.82507
1066.373, 54.99207
1066.855, 53.58484
1067.337, 58.98999
1067.820, 65.98120
1068.302, 64.27356
1068.784, 53.69708
1069.266, 46.83746
1069.748, 49.93512
1070.230, 54.97437
1070.712, 61.58466
1071.194, 65.61865
1071.677, 61.82245
1072.159, 54.66003
1072.641, 50.53613
1073.123, 49.92670
1073.605, 49.55280
1074.087, 47.93152
1074.569, 47.08270
1075.051, 49.10223
1075.533, 51.01276
1076.016, 51.41315
1076.498, 49.94653
1076.980, 44.46851
1077.462, 36.62720
1077.944, 33.68756
1078.426, 40.18964
1078.908, 44.12115
1079.390, 35.08905
1079.873, 27.00861
1080.355, 31.67529
1080.837, 40.55981
1081.319, 43.60657
1081.801, 41.28931
1082.283, 39.24493
1082.765, 39.39929
1083.247, 37.90869
1083.729, 30.75610
1084.212, 24.17865
1084.694, 22.31866
1085.176, 22.42590
1085.658, 22.83142
1086.140, 22.41144
1086.622, 18.88239
1087.104, 11.62683
1087.586, 5.419006
1088.068, 2.961914
1088.551, 1.737366
1089.033, 0.8873290
1089.515, 0.3646240
1089.997, 0.5979610
1090.479, 1.005371
1090.961, 0.5678100
1091.443, 0.7122190
1091.925, 1.835327
1092.408, 2.532532
1092.890, 2.923401
1093.372, 3.117676
1093.854, 3.577148
1094.336, 6.743225
1094.818, 9.400574
1095.300, 4.438416
1095.782, 8.119324
1096.265, 16.79541
1096.747, 15.22205
1097.229, 12.02734
1097.711, 12.19629
1098.193, 11.22729
1098.675, 1.796448
1099.157, 8.151428
1099.639, 6.065857
1100.121, 5.822327
1100.604, 12.53802
1101.086, 8.201965
1101.568, 5.533569
1102.050, 8.550781
1102.532, 13.61035
1103.014, 24.50671
1103.496, 31.89136
1103.978, 21.60022
1104.460, 1.520569
1104.943, 4.975586
1105.425, 8.430054
1105.907, 18.30389
1106.389, 16.46948
1106.871, 15.52704
1107.353, 21.53705
1107.835, 27.86932
1108.317, 28.36200
1108.800, 25.54547
1109.282, 26.39648
1109.764, 31.84882
1110.246, 32.39075
1110.728, 20.84979
1111.210, 13.55280
1111.692, 16.67712
1112.174, 19.69385
1112.656, 16.12915
1113.139, 11.15302
1113.621, 10.59698
1114.103, 13.54694
1114.585, 16.83374
1115.067, 22.24744
1115.549, 25.17535
1116.031, 23.27844
1116.513, 22.32397
1116.995, 24.98749
1117.478, 28.18463
1117.960, 28.87250
1118.442, 28.12177
1118.924, 29.62115
1119.406, 34.75854
1119.888, 36.40344
1120.370, 31.69464
1120.852, 29.59314
1121.335, 33.73883
1121.817, 37.81482
1122.299, 37.13037
1122.781, 34.57697
1123.263, 35.58624
1123.745, 40.20343
1124.227, 42.28918
1124.709, 40.30060
1125.192, 41.89954
1125.674, 49.95398
1126.156, 55.81952
1126.638, 55.25507
1127.120, 51.00934
1127.602, 45.45404
1128.084, 39.68268
1128.566, 39.72406
1129.048, 46.38428
1129.531, 52.45074
1130.013, 58.30341
1130.495, 56.98163
1130.977, 45.10175
1131.459, 34.00592
1131.941, 33.32300
1132.423, 38.35315
1132.905, 38.15070
1133.387, 33.37952
1133.870, 36.24664
1134.352, 46.26074
1134.834, 46.91083
1135.316, 35.23071
1135.798, 27.70581
1136.280, 33.57550
1136.762, 43.12714
1137.244, 43.63184
1137.727, 38.14880
1138.209, 35.89020
1138.691, 35.94092
1139.173, 34.42365
1139.655, 31.09064
1140.137, 26.82025
1140.619, 22.08069
1141.101, 18.50250
1141.583, 17.48285
1142.066, 18.04376
1142.548, 20.64410
1143.030, 22.74707
1143.512, 16.46625
1143.994, 5.716553
1144.476, 2.273193
1144.958, 7.077148
1145.440, 12.58618
1145.922, 15.16339
1146.405, 15.29980
1146.887, 11.82166
1147.369, 7.729187
1147.851, 7.553040
1148.333, 8.250183
1148.815, 4.832397
1149.297, 1.740601
1149.779, 8.526855
1150.262, 14.35028
1150.744, 17.30707
1151.226, 15.45605
1151.708, 11.78308
1152.190, 4.655212
1152.672, 0.1084590
1153.154, 7.986755
1153.636, 18.72192
1154.119, 16.00586
1154.601, 1.752197
1155.083, 6.151611
1155.565, 0.4628300
1156.047, 3.399292
1156.529, 3.050903
1157.011, 7.807007
1157.493, 3.511108
1157.975, 2.106812
1158.458, 2.105957
1158.940, 1.176025
1159.422, 2.042542
1159.904, 0.2085570
1160.386, 1.341492
1160.868, 2.241882
1161.350, 4.0955000E-02
1161.832, 9.883972
1162.314, 17.26855
1162.797, 15.31909
1163.279, 11.45673
1163.761, 14.66644
1164.243, 22.36322
1164.725, 21.45032
1165.207, 6.737122
1165.689, 2.522217
1166.171, 13.56750
1166.654, 20.57513
1167.136, 17.79004
1167.618, 13.31348
1168.100, 11.73828
1168.582, 13.67871
1169.064, 21.97772
1169.546, 34.75494
1170.028, 31.04755
1170.510, 10.18127
1170.993, 3.647400
1171.475, 14.98700
1171.957, 25.69843
1172.439, 28.90680
1172.921, 27.83044
1173.403, 24.85278
1173.885, 21.56561
1174.367, 21.56354
1174.849, 23.82184
1175.332, 25.05322
1175.814, 25.31842
1176.296, 24.93634
1176.778, 24.26459
1177.260, 24.93408
1177.742, 27.70264
1178.224, 30.20923
1178.706, 30.38983
1179.189, 28.82068
1179.671, 24.65320
1180.153, 20.32513
1180.635, 19.22656
1181.117, 21.13373
1181.599, 26.10596
1182.081, 33.10242
1182.563, 37.37000
1183.046, 35.89459
1183.528, 34.00977
1184.010, 35.11407
1184.492, 36.45648
1184.974, 36.10669
1185.456, 35.17206
1185.938, 34.62555
1186.420, 34.58484
1186.902, 35.35150
1187.385, 37.06805
1187.867, 37.37750
1188.349, 33.72644
1188.831, 31.78278
1189.313, 32.95776
1189.795, 35.60370
1190.277, 40.47717
1190.759, 45.16949
1191.241, 47.38324
1191.724, 47.35168
1192.206, 45.57867
1192.688, 40.53351
1193.170, 40.87738
1193.652, 49.62830
1194.134, 54.22125
1194.616, 51.33948
1195.098, 46.41742
1195.581, 41.71851
1196.063, 39.17151
1196.545, 42.03937
1197.027, 48.68286
1197.509, 51.88391
1197.991, 51.85614
1198.473, 51.19135
1198.955, 50.25214
1199.438, 52.05920
1199.920, 57.08868
1200.402, 59.65283
1200.884, 55.73181
1201.366, 49.85022
1201.848, 47.08551
1202.330, 46.91766
1202.812, 51.04285
1203.294, 56.37079
1203.776, 56.52960
1204.259, 52.26709
1204.741, 46.51422
1205.223, 40.85114
1205.705, 39.74396
1206.187, 47.99097
1206.669, 55.36072
1207.151, 53.43622
1207.633, 48.91504
1208.116, 45.68884
1208.598, 44.26514
1209.080, 47.02026
1209.562, 51.54474
1210.044, 50.86505
1210.526, 42.92023
1211.008, 38.04108
1211.490, 42.10742
1211.973, 44.05853
1212.455, 39.89734
1212.937, 36.62427
1213.419, 37.90985
1213.901, 39.65924
1214.383, 37.88824
1214.865, 33.86041
1215.347, 31.63965
1215.829, 30.56567
1216.312, 36.41437
1216.794, 52.13995
1217.276, 60.15735
1217.758, 56.34637
1218.240, 50.46765
1218.722, 47.14008
1219.204, 44.69092
1219.686, 41.10858
1220.168, 37.37018
1220.651, 36.66699
1221.133, 38.25922
1221.615, 40.08551
1222.097, 41.82739
1222.579, 42.28290
1223.061, 41.07928
1223.543, 39.55804
1224.025, 38.89111
1224.508, 38.29199
1224.990, 36.71936
1225.472, 34.97095
1225.954, 33.90857
1226.436, 33.27386
1226.918, 32.36279
1227.400, 31.83240
1227.882, 33.22998
1228.365, 35.85596
1228.847, 37.61108
1229.329, 39.46509
1229.811, 39.10724
1230.293, 33.81909
1230.775, 29.42499
1231.257, 26.68542
1231.739, 26.38239
1232.221, 32.25580
1232.703, 38.62384
1233.186, 37.26379
1233.668, 29.62976
1234.150, 24.54346
1234.632, 20.91058
1235.114, 24.37762
1235.596, 37.42706
1236.078, 46.21228
1236.560, 47.41125
1237.043, 45.14502
1237.525, 41.43768
1238.007, 36.44843
1238.489, 29.76758
1238.971, 22.66180
1239.453, 19.35498
1239.935, 18.63342
1240.417, 15.15186
1240.900, 10.24420
1241.382, 10.44543
1241.864, 16.57550
1242.346, 24.88812
1242.828, 33.81433
1243.310, 39.15002
1243.792, 34.22046
1244.274, 28.25336
1244.756, 30.94464
1245.239, 34.11865
1245.721, 27.05560
1246.203, 16.66510
1246.685, 14.62671
1247.167, 20.53888
1247.649, 26.23999
1248.131, 31.57275
1248.613, 32.53027
1249.095, 23.39587
1249.578, 18.02423
1250.060, 20.40344
1250.542, 24.74139
1251.024, 30.13422
1251.506, 32.60242
1251.988, 25.47101
1252.470, 12.79797
1252.952, 11.35370
1253.435, 21.46521
1253.917, 29.56195
1254.399, 35.37134
1254.881, 35.51062
1255.363, 29.70148
1255.845, 22.57159
1256.327, 16.33685
1256.809, 11.20331
1257.292, 6.545227
1257.774, 5.142761
1258.256, 15.32910
1258.738, 27.56378
1259.220, 26.07050
1259.702, 17.82440
1260.184, 15.15234
1260.666, 18.44873
1261.148, 23.80481
1261.630, 30.19702
1262.113, 31.67676
1262.595, 19.47192
1263.077, 11.97876
1263.559, 20.25104
1264.041, 27.04224
1264.523, 21.41425
1265.005, 12.87720
1265.487, 8.298706
1265.970, 8.159790
1266.452, 14.99530
1266.934, 29.05853
1267.416, 32.99829
1267.898, 25.08887
1268.380, 20.80420
1268.862, 21.91724
1269.344, 20.71313
1269.827, 14.64075
1270.309, 7.820984
1270.791, 3.038025
1271.273, 0.8287960
1271.755, 1.431458
1272.237, 5.473450
1272.719, 18.09906
1273.201, 32.69092
1273.683, 37.59924
1274.166, 34.18933
1274.648, 24.97534
1275.130, 13.20123
1275.612, 10.19073
1276.094, 23.01135
1276.576, 32.17651
1277.058, 27.51166
1277.540, 21.11987
1278.022, 15.09302
1278.505, 11.64355
1278.987, 15.17133
1279.469, 19.73401
1279.951, 18.08197
1280.433, 11.62451
1280.915, 5.763428
1281.397, 0.2359620
1281.879, 1.015076
1282.362, 2.527283
1282.844, 4.259766
1283.326, 3.089539
1283.808, 1.906616
1284.290, 0.1244510
1284.772, 0.6086430
1285.254, 0.3692020
1285.736, 0.0000000E+00
##END=



