##NAMES=Aegirine
##RRUFFID=R061093
##IDEAL CHEMISTRY=NaFe^3+^Si_2_O_6_
##LOCALITY=Lacotal Breccia, Alto Chapere, Cochabamba, Bolivia
##OWNER=Michael Scott
##SOURCE=Michael Scott
##DESCRIPTION=Aggregates of light green prismatic crystals associated with dark rutile
##STATUS=The identification of this mineral is confirmed by single-crystal X-ray diffraction and chemical analysis.
##URL=rruff.info/R061093
##MEASURED CHEMISTRY=light phase: Na_1.00_(Fe^3+^_0.97_Al_0.02_Cr_0.01_)_Σ=1_Si_2.00_O_6_ ; darker phase: (Na_0.96_Ca_0.02_[box]_0.02_)_Σ=1_(Fe^3+^_0.89_Al_0.11_)_Σ=1_Si_2.00_O_6_
123.0111, 0.0000000E+00
123.4933, 23.52124
123.9754, 122.8108
124.4575, 250.4080
124.9396, 377.0432
125.4217, 494.7014
125.9038, 614.8982
126.3860, 727.6470
126.8681, 794.1733
127.3502, 822.2720
127.8323, 833.2346
128.3144, 835.3789
128.7965, 843.1328
129.2787, 852.2607
129.7608, 866.7856
130.2429, 889.4309
130.7250, 919.8579
131.2071, 961.0430
131.6892, 1020.064
132.1714, 1093.689
132.6535, 1164.048
133.1356, 1244.097
133.6177, 1324.623
134.0998, 1354.158
134.5819, 1317.396
135.0640, 1223.647
135.5462, 1113.119
136.0283, 975.0420
136.5104, 830.9377
136.9925, 697.2947
137.4746, 573.0256
137.9567, 459.6748
138.4389, 353.3665
138.9210, 260.7554
139.4031, 195.4343
139.8852, 163.6440
140.3673, 137.3850
140.8494, 106.2205
141.3316, 67.21069
141.8137, 35.50952
142.2958, 12.26611
142.7779, 4.335449
143.2600, 19.63525
143.7421, 34.37720
144.2243, 46.16577
144.7064, 54.25854
145.1885, 62.03394
145.6706, 59.45483
146.1527, 38.48608
146.6348, 2.621826
147.1170, 13.87646
147.5991, 9.954346
148.0812, 37.79199
148.5633, 42.84033
149.0454, 11.73364
149.5275, 25.85254
150.0097, 66.72168
150.4918, 111.4609
150.9739, 155.6951
151.4560, 197.0149
151.9381, 237.9429
152.4202, 281.6826
152.9024, 329.5334
153.3845, 378.4492
153.8666, 429.3408
154.3487, 484.7034
154.8308, 533.4531
155.3129, 564.6953
155.7950, 588.6792
156.2772, 625.0557
156.7593, 682.1511
157.2414, 749.2708
157.7235, 822.1089
158.2056, 901.5999
158.6877, 982.8962
159.1699, 1075.109
159.6520, 1171.528
160.1341, 1244.373
160.6162, 1292.539
161.0983, 1310.189
161.5804, 1292.956
162.0626, 1226.247
162.5447, 1137.415
163.0268, 1023.665
163.5089, 887.2344
163.9910, 768.4758
164.4731, 685.2695
164.9553, 630.0454
165.4374, 594.0608
165.9195, 581.4602
166.4016, 581.5461
166.8837, 584.1484
167.3658, 586.6545
167.8480, 606.7231
168.3301, 654.3867
168.8122, 727.2598
169.2943, 821.0273
169.7764, 932.9883
170.2585, 1065.305
170.7407, 1222.470
171.2228, 1409.736
171.7049, 1609.578
172.1870, 1816.268
172.6691, 2026.726
173.1512, 2226.262
173.6334, 2398.777
174.1155, 2559.689
174.5976, 2727.771
175.0797, 2904.008
175.5618, 3091.923
176.0439, 3284.897
176.5260, 3487.375
177.0082, 3724.070
177.4903, 4007.497
177.9724, 4346.304
178.4545, 4741.235
178.9366, 5217.719
179.4187, 5737.769
179.9009, 6269.991
180.3830, 6815.697
180.8651, 7283.151
181.3472, 7592.497
181.8293, 7771.558
182.3114, 7911.479
182.7936, 7993.557
183.2757, 8066.186
183.7578, 8263.039
184.2399, 8592.646
184.7220, 8985.651
185.2041, 9343.593
185.6863, 9679.479
186.1684, 10064.78
186.6505, 10558.60
187.1326, 11133.71
187.6147, 11704.66
188.0968, 12266.72
188.5790, 12836.34
189.0611, 13467.85
189.5432, 14156.86
190.0253, 14830.26
190.5074, 15506.20
190.9895, 16157.23
191.4717, 16647.24
191.9538, 17004.98
192.4359, 17151.39
192.9180, 16892.19
193.4001, 16211.30
193.8822, 15285.31
194.3644, 14155.52
194.8465, 12827.15
195.3286, 11567.91
195.8107, 10405.45
196.2928, 9347.165
196.7749, 8425.948
197.2570, 7650.146
197.7392, 6979.067
198.2213, 6394.439
198.7034, 5895.525
199.1855, 5463.580
199.6676, 5090.120
200.1497, 4776.323
200.6319, 4536.902
201.1140, 4378.657
201.5961, 4275.498
202.0782, 4199.952
202.5603, 4148.905
203.0424, 4145.289
203.5246, 4209.662
204.0067, 4342.040
204.4888, 4452.852
204.9709, 4532.253
205.4530, 4602.425
205.9352, 4695.347
206.4173, 4816.586
206.8994, 4947.148
207.3815, 5076.945
207.8636, 5206.249
208.3457, 5336.415
208.8279, 5462.038
209.3100, 5594.222
209.7921, 5758.675
210.2742, 5968.564
210.7563, 6177.314
211.2384, 6370.258
211.7206, 6561.044
212.2027, 6694.783
212.6848, 6787.410
213.1669, 6813.698
213.6490, 6708.582
214.1311, 6457.904
214.6133, 6106.539
215.0954, 5653.281
215.5775, 5066.080
216.0596, 4507.188
216.5417, 3974.815
217.0238, 3480.376
217.5059, 3049.210
217.9881, 2689.631
218.4702, 2378.578
218.9523, 2098.894
219.4344, 1852.174
219.9165, 1639.297
220.3986, 1463.460
220.8808, 1322.413
221.3629, 1193.447
221.8450, 1076.592
222.3271, 971.6858
222.8092, 877.7585
223.2913, 797.3433
223.7735, 723.2224
224.2556, 653.6497
224.7377, 588.3984
225.2198, 535.1438
225.7019, 499.1809
226.1840, 468.3066
226.6662, 430.8298
227.1483, 380.9585
227.6304, 336.2290
228.1125, 300.6582
228.5946, 274.7515
229.0767, 244.6416
229.5589, 206.1125
230.0410, 167.7744
230.5231, 139.2178
231.0052, 128.1067
231.4873, 113.0134
231.9694, 87.02148
232.4516, 48.27490
232.9337, 18.85718
233.4158, 1.173828
233.8979, 9.058105
234.3800, 15.87769
234.8621, 14.94775
235.3443, 18.13062
235.8264, 30.60425
236.3085, 55.65356
236.7906, 70.63477
237.2727, 69.16870
237.7548, 62.10107
238.2369, 65.36572
238.7191, 85.75488
239.2012, 105.7336
239.6833, 120.6641
240.1654, 130.6306
240.6475, 135.1545
241.1296, 130.4473
241.6118, 122.5376
242.0939, 122.1306
242.5760, 134.7200
243.0581, 146.1465
243.5402, 152.2876
244.0223, 153.6677
244.5045, 146.8445
244.9866, 123.5613
245.4687, 95.85571
245.9508, 89.90039
246.4329, 122.9436
246.9150, 150.5342
247.3972, 152.2314
247.8793, 110.8630
248.3614, 91.48389
248.8435, 107.4707
249.3256, 140.6821
249.8077, 147.4106
250.2899, 114.5947
250.7720, 76.15723
251.2541, 47.27197
251.7362, 36.03271
252.2183, 15.04980
252.7004, 19.49658
253.1826, 62.32910
253.6647, 98.99268
254.1468, 126.4771
254.6289, 152.4390
255.1110, 180.3125
255.5931, 209.8340
256.0753, 242.8970
256.5574, 282.9849
257.0395, 326.3149
257.5216, 358.4536
258.0037, 370.4941
258.4858, 387.6030
258.9680, 423.6284
259.4501, 485.9570
259.9322, 548.3745
260.4143, 611.3394
260.8964, 673.5957
261.3785, 726.4717
261.8607, 764.0068
262.3428, 804.9058
262.8249, 864.4341
263.3070, 953.5405
263.7891, 1024.644
264.2712, 1073.877
264.7534, 1102.894
265.2355, 1110.359
265.7176, 1088.453
266.1997, 1062.419
266.6818, 1045.253
267.1639, 1036.455
267.6461, 1039.742
268.1282, 1059.083
268.6103, 1089.209
269.0924, 1111.160
269.5745, 1119.379
270.0566, 1132.177
270.5387, 1163.093
271.0208, 1215.473
271.5030, 1268.252
271.9851, 1320.010
272.4672, 1370.487
272.9493, 1419.844
273.4314, 1468.925
273.9135, 1513.627
274.3957, 1553.244
274.8778, 1589.411
275.3599, 1607.846
275.8420, 1604.339
276.3241, 1583.931
276.8062, 1563.181
277.2884, 1544.275
277.7705, 1516.620
278.2526, 1468.758
278.7347, 1399.145
279.2168, 1336.542
279.6989, 1286.301
280.1811, 1243.112
280.6632, 1187.465
281.1453, 1116.479
281.6274, 1049.626
282.1095, 1004.110
282.5916, 979.5967
283.0738, 947.2524
283.5559, 898.9531
284.0380, 844.7124
284.5201, 811.9160
285.0022, 801.6069
285.4843, 797.3267
285.9665, 783.2144
286.4486, 761.5742
286.9307, 760.6191
287.4128, 790.4771
287.8949, 834.6475
288.3770, 853.6626
288.8592, 847.8745
289.3413, 844.8296
289.8234, 870.9258
290.3055, 918.6289
290.7876, 947.4258
291.2697, 947.7793
291.7519, 936.0073
292.2340, 944.9336
292.7161, 973.5625
293.1982, 995.9482
293.6803, 993.6958
294.1624, 970.2148
294.6446, 940.6270
295.1267, 909.4980
295.6088, 870.6758
296.0909, 807.3223
296.5730, 722.1763
297.0551, 636.5059
297.5373, 562.1362
298.0194, 498.3174
298.5015, 443.1958
298.9836, 396.5322
299.4657, 361.3442
299.9478, 347.5078
300.4300, 349.7104
300.9121, 350.1650
301.3942, 324.0537
301.8763, 293.6250
302.3584, 298.3291
302.8405, 351.9316
303.3227, 419.2715
303.8048, 463.2798
304.2869, 487.7300
304.7690, 515.2959
305.2511, 565.5068
305.7332, 626.6074
306.2154, 680.5557
306.6975, 720.4956
307.1796, 758.0869
307.6617, 809.3735
308.1438, 869.1206
308.6259, 923.6597
309.1081, 966.8296
309.5901, 998.1079
310.0723, 1018.678
310.5544, 1027.499
311.0365, 1025.002
311.5186, 1010.878
312.0007, 985.8872
312.4828, 951.7725
312.9650, 901.2661
313.4471, 847.4385
313.9292, 798.0015
314.4113, 753.5366
314.8934, 714.6484
315.3755, 677.2563
315.8577, 646.3462
316.3398, 629.9028
316.8219, 635.4092
317.3040, 651.7637
317.7861, 670.7964
318.2682, 689.9331
318.7504, 728.1382
319.2325, 801.0571
319.7146, 893.9419
320.1967, 988.6821
320.6788, 1071.592
321.1609, 1164.919
321.6431, 1272.069
322.1252, 1392.342
322.6073, 1538.346
323.0894, 1724.060
323.5715, 1931.321
324.0536, 2144.184
324.5358, 2325.075
325.0179, 2544.652
325.5000, 2829.131
325.9821, 3178.606
326.4642, 3526.255
326.9464, 3851.217
327.4285, 4182.420
327.9106, 4542.798
328.3927, 4908.579
328.8748, 5328.593
329.3569, 5818.462
329.8391, 6375.080
330.3212, 6929.181
330.8033, 7470.956
331.2854, 8022.133
331.7675, 8591.079
332.2496, 9190.707
332.7318, 9794.545
333.2139, 10403.42
333.6960, 11015.41
334.1781, 11648.47
334.6602, 12311.44
335.1423, 12984.74
335.6245, 13672.12
336.1066, 14400.92
336.5887, 15071.35
337.0708, 15675.71
337.5529, 16230.58
338.0350, 16787.85
338.5172, 17380.92
338.9993, 17891.00
339.4814, 18259.60
339.9635, 18477.86
340.4456, 18608.90
340.9277, 18664.43
341.4099, 18621.99
341.8920, 18428.16
342.3741, 18077.90
342.8562, 17633.80
343.3383, 17109.00
343.8204, 16510.97
344.3026, 15887.31
344.7847, 15246.04
345.2668, 14593.29
345.7489, 13966.38
346.2310, 13355.75
346.7131, 12712.38
347.1953, 11988.51
347.6774, 11210.82
348.1595, 10481.07
348.6416, 9810.582
349.1237, 9171.041
349.6058, 8534.957
350.0880, 7916.602
350.5700, 7346.851
351.0522, 6831.873
351.5343, 6381.539
352.0164, 6014.674
352.4985, 5730.675
352.9806, 5511.078
353.4627, 5352.130
353.9449, 5245.589
354.4270, 5178.104
354.9091, 5146.769
355.3912, 5150.864
355.8733, 5191.071
356.3554, 5266.540
356.8376, 5375.321
357.3197, 5532.189
357.8018, 5714.055
358.2839, 5896.215
358.7660, 6058.188
359.2481, 6240.953
359.7303, 6472.223
360.2124, 6741.293
360.6945, 7027.401
361.1766, 7332.028
361.6587, 7643.237
362.1408, 7950.314
362.6230, 8252.319
363.1051, 8550.702
363.5872, 8852.165
364.0693, 9155.718
364.5514, 9450.658
365.0335, 9750.448
365.5157, 10025.08
365.9978, 10274.59
366.4799, 10519.25
366.9620, 10678.60
367.4441, 10732.41
367.9262, 10698.27
368.4084, 10597.67
368.8905, 10420.60
369.3726, 10184.08
369.8547, 9878.142
370.3368, 9492.243
370.8189, 9126.806
371.3011, 8779.210
371.7832, 8450.545
372.2653, 8132.598
372.7474, 7804.763
373.2295, 7546.010
373.7116, 7378.215
374.1938, 7292.580
374.6759, 7235.824
375.1580, 7210.504
375.6401, 7212.464
376.1222, 7238.000
376.6043, 7285.942
377.0865, 7369.018
377.5686, 7491.434
378.0507, 7646.686
378.5328, 7817.918
379.0149, 8007.296
379.4970, 8207.882
379.9792, 8415.038
380.4613, 8630.572
380.9434, 8848.177
381.4255, 9071.622
381.9076, 9290.680
382.3897, 9495.790
382.8719, 9689.347
383.3540, 9864.650
383.8361, 10035.50
384.3182, 10180.96
384.8003, 10264.27
385.2824, 10285.81
385.7646, 10244.50
386.2467, 10126.14
386.7288, 9941.987
387.2109, 9719.279
387.6930, 9472.129
388.1751, 9187.741
388.6573, 8833.266
389.1394, 8411.673
389.6215, 7988.193
390.1036, 7601.965
390.5857, 7238.911
391.0678, 6877.729
391.5499, 6512.144
392.0320, 6148.263
392.5142, 5792.046
392.9963, 5445.595
393.4784, 5110.060
393.9605, 4781.014
394.4426, 4467.325
394.9247, 4177.156
395.4069, 3921.012
395.8890, 3669.242
396.3711, 3408.000
396.8532, 3148.930
397.3353, 2915.201
397.8174, 2726.968
398.2996, 2548.315
398.7817, 2370.215
399.2638, 2190.343
399.7459, 2017.755
400.2280, 1845.771
400.7101, 1685.247
401.1923, 1545.991
401.6744, 1440.285
402.1565, 1336.993
402.6386, 1229.873
403.1207, 1119.606
403.6028, 1015.658
404.0850, 916.1333
404.5671, 826.0947
405.0492, 748.7773
405.5313, 685.0918
406.0134, 629.6743
406.4955, 584.5410
406.9777, 545.7930
407.4598, 504.7417
407.9419, 461.1431
408.4240, 415.3281
408.9061, 362.0039
409.3882, 304.1987
409.8704, 265.4014
410.3525, 250.2988
410.8346, 242.3125
411.3167, 216.9331
411.7988, 177.6650
412.2809, 143.4658
412.7631, 122.2314
413.2452, 110.5303
413.7273, 108.3086
414.2094, 115.4297
414.6915, 115.4277
415.1736, 87.81396
415.6558, 45.72998
416.1379, 10.70654
416.6200, 6.832520
417.1021, 20.32324
417.5842, 39.94971
418.0663, 64.21582
418.5485, 85.85254
419.0306, 106.9673
419.5127, 120.9092
419.9948, 120.0874
420.4769, 89.53613
420.9590, 72.59570
421.4412, 98.16309
421.9233, 143.7012
422.4054, 168.1230
422.8875, 139.8643
423.3696, 110.7466
423.8517, 97.86279
424.3339, 105.6060
424.8160, 114.4019
425.2981, 127.5640
425.7802, 139.3765
426.2623, 143.9565
426.7444, 134.3296
427.2266, 129.7896
427.7087, 137.8452
428.1908, 154.7622
428.6729, 152.2495
429.1550, 120.5142
429.6371, 90.36816
430.1193, 86.60449
430.6014, 114.1387
431.0835, 127.4951
431.5656, 120.5571
432.0477, 102.1045
432.5298, 87.27490
433.0119, 76.14453
433.4940, 67.84131
433.9762, 64.22656
434.4583, 63.49121
434.9404, 57.39893
435.4225, 45.20557
435.9046, 33.82373
436.3867, 32.07129
436.8689, 36.85010
437.3510, 40.71729
437.8331, 42.88184
438.3152, 41.33154
438.7973, 28.77441
439.2794, 7.916992
439.7616, 5.501953
440.2437, 9.736816
440.7258, 31.17773
441.2079, 35.82617
441.6900, 10.34863
442.1721, 12.52539
442.6543, 13.71338
443.1364, 2.106445
443.6185, 5.427734
444.1006, 0.4711910
444.5827, 7.916992
445.0648, 12.74414
445.5470, 14.51270
446.0291, 14.81543
446.5112, 13.18994
446.9933, 10.53711
447.4754, 7.133789
447.9576, 5.058105
448.4397, 5.452637
448.9218, 16.33203
449.4039, 53.75781
449.8860, 67.16553
450.3681, 43.80469
450.8503, 19.71436
451.3324, 16.80762
451.8145, 39.69043
452.2966, 54.69531
452.7787, 56.76758
453.2608, 57.61230
453.7430, 82.55762
454.2251, 131.9307
454.7072, 169.7847
455.1893, 170.6221
455.6714, 150.1963
456.1535, 166.0088
456.6357, 218.9946
457.1178, 277.1919
457.5999, 319.1230
458.0820, 344.2422
458.5641, 346.1309
459.0462, 308.0142
459.5284, 270.6758
460.0105, 285.8457
460.4926, 338.2886
460.9747, 381.3662
461.4568, 380.9688
461.9389, 367.9185
462.4211, 366.4473
462.9032, 381.8242
463.3853, 394.9180
463.8674, 397.5112
464.3495, 393.4961
464.8316, 387.5112
465.3138, 382.7646
465.7959, 373.8784
466.2780, 357.2847
466.7601, 333.6113
467.2422, 313.6562
467.7243, 294.7188
468.2065, 282.3066
468.6886, 280.9292
469.1707, 301.9619
469.6528, 308.4580
470.1349, 293.0142
470.6170, 267.9121
471.0992, 256.7202
471.5813, 261.9512
472.0634, 271.9907
472.5455, 284.8818
473.0276, 299.8149
473.5097, 307.0386
473.9918, 304.6943
474.4739, 305.3750
474.9561, 325.5264
475.4382, 360.4653
475.9203, 387.7437
476.4024, 400.3120
476.8845, 407.0962
477.3666, 418.2773
477.8488, 435.0723
478.3309, 460.7681
478.8130, 498.6079
479.2951, 540.8330
479.7772, 579.3740
480.2593, 614.4712
480.7415, 657.6313
481.2236, 712.7524
481.7057, 777.9258
482.1878, 850.8057
482.6699, 928.6411
483.1520, 1016.558
483.6342, 1119.927
484.1163, 1237.198
484.5984, 1354.776
485.0805, 1468.692
485.5626, 1582.327
486.0447, 1697.016
486.5269, 1808.427
487.0090, 1936.863
487.4911, 2084.692
487.9732, 2244.501
488.4553, 2409.818
488.9374, 2582.423
489.4196, 2754.879
489.9017, 2924.788
490.3838, 3092.119
490.8659, 3270.424
491.3480, 3460.403
491.8301, 3650.540
492.3123, 3827.688
492.7944, 3995.705
493.2765, 4187.590
493.7586, 4410.361
494.2407, 4643.553
494.7228, 4862.812
495.2050, 5068.198
495.6871, 5259.044
496.1692, 5460.625
496.6513, 5634.507
497.1334, 5744.742
497.6155, 5789.889
498.0977, 5787.739
498.5798, 5754.575
499.0619, 5676.639
499.5440, 5541.578
500.0261, 5327.245
500.5082, 5082.334
500.9904, 4810.770
501.4725, 4520.266
501.9546, 4223.623
502.4367, 3907.252
502.9188, 3602.146
503.4009, 3316.627
503.8831, 3051.235
504.3652, 2797.699
504.8473, 2551.455
505.3294, 2322.017
505.8115, 2121.281
506.2936, 1953.689
506.7758, 1801.458
507.2579, 1663.297
507.7400, 1537.398
508.2221, 1420.997
508.7042, 1313.826
509.1863, 1218.090
509.6685, 1135.908
510.1506, 1066.615
510.6327, 1009.091
511.1148, 963.4878
511.5969, 930.1724
512.0790, 916.9766
512.5612, 914.2241
513.0433, 904.3647
513.5254, 874.9321
514.0075, 847.4585
514.4896, 837.4956
514.9717, 842.2100
515.4539, 853.3540
515.9360, 867.8911
516.4181, 887.3311
516.9002, 910.7383
517.3823, 936.0146
517.8644, 974.2070
518.3466, 1029.128
518.8287, 1096.841
519.3108, 1173.259
519.7929, 1266.576
520.2750, 1355.170
520.7571, 1431.085
521.2393, 1501.695
521.7214, 1593.961
522.2035, 1712.264
522.6856, 1840.317
523.1677, 1965.207
523.6498, 2087.430
524.1320, 2238.789
524.6141, 2420.673
525.0962, 2628.318
525.5783, 2870.004
526.0604, 3137.899
526.5425, 3399.009
527.0247, 3625.353
527.5068, 3862.783
527.9889, 4174.903
528.4710, 4544.597
528.9531, 4926.603
529.4352, 5295.528
529.9174, 5662.160
530.3995, 6031.359
530.8816, 6395.768
531.3637, 6782.833
531.8458, 7209.127
532.3279, 7657.093
532.8101, 8104.898
533.2922, 8527.431
533.7743, 8980.311
534.2564, 9486.836
534.7385, 10025.53
535.2206, 10568.10
535.7027, 11089.17
536.1848, 11648.42
536.6669, 12284.36
537.1490, 12995.08
537.6312, 13676.31
538.1133, 14316.65
538.5954, 14948.09
539.0775, 15623.39
539.5596, 16332.98
540.0417, 16964.78
540.5239, 17504.31
541.0060, 17964.23
541.4881, 18392.35
541.9702, 18768.57
542.4523, 19016.12
542.9344, 19117.60
543.4166, 19058.40
543.8987, 18816.05
544.3808, 18390.53
544.8629, 17822.03
545.3450, 17070.87
545.8271, 16221.08
546.3093, 15330.37
546.7914, 14374.68
547.2735, 13459.35
547.7556, 12610.92
548.2377, 11822.22
548.7198, 11077.79
549.2020, 10363.03
549.6841, 9709.651
550.1662, 9122.832
550.6483, 8606.378
551.1304, 8152.484
551.6125, 7771.370
552.0947, 7426.282
552.5768, 7089.107
553.0589, 6760.092
553.5410, 6474.294
554.0231, 6237.242
554.5052, 6035.918
554.9874, 5851.101
555.4695, 5686.426
555.9516, 5563.137
556.4337, 5523.947
556.9158, 5499.583
557.3979, 5397.523
557.8801, 5233.932
558.3622, 5085.576
558.8443, 5003.891
559.3264, 4943.447
559.8085, 4878.388
560.2906, 4808.635
560.7728, 4721.493
561.2549, 4618.995
561.7370, 4495.347
562.2191, 4344.369
562.7012, 4146.714
563.1833, 3946.333
563.6655, 3743.881
564.1476, 3541.359
564.6297, 3347.582
565.1118, 3169.447
565.5939, 2988.071
566.0760, 2787.917
566.5582, 2575.445
567.0403, 2384.438
567.5224, 2216.990
568.0045, 2065.338
568.4866, 1924.963
568.9688, 1796.062
569.4509, 1682.820
569.9330, 1591.921
570.4151, 1506.224
570.8972, 1403.429
571.3793, 1295.178
571.8615, 1206.279
572.3436, 1158.698
572.8257, 1121.305
573.3078, 1078.246
573.7899, 1029.363
574.2720, 985.8223
574.7542, 948.8359
575.2363, 917.7983
575.7184, 894.8555
576.2005, 890.0649
576.6826, 865.0469
577.1647, 808.6211
577.6469, 743.2808
578.1290, 700.3394
578.6111, 683.8149
579.0932, 662.9712
579.5753, 626.7847
580.0574, 587.0122
580.5396, 579.7651
581.0217, 602.6274
581.5038, 616.8926
581.9859, 592.6821
582.4680, 548.0117
582.9501, 511.0327
583.4323, 482.4312
583.9144, 460.9375
584.3965, 451.2778
584.8786, 445.7017
585.3607, 436.3706
585.8428, 422.0708
586.3250, 403.0747
586.8071, 375.6504
587.2892, 344.4219
587.7713, 317.2041
588.2534, 296.7065
588.7355, 278.5669
589.2177, 262.5083
589.6998, 248.5967
590.1819, 235.5366
