##NAMES=Aegirine
##RRUFFID=R120144
##IDEAL CHEMISTRY=NaFe^3+^Si_2_O_6_
##LOCALITY=Zagi Mountain, Hameed Abad Kafoor Dheri, Peshawar, Khyber Pakhtunkhwa, Pakistan
##OWNER=RRUFF
##SOURCE=Ikram Mineralogy
##DESCRIPTION=Black bladed crystal
##STATUS=The identification of this mineral has been confirmed by single-crystal X-ray diffraction.
##URL=rruff.info/R120144
168.4288, 0.0000000E+00
168.9109, 9.4071001E-02
169.3930, 2.0847000E-02
169.8751, 0.1732030
170.3572, 0.4533920
170.8394, 0.3080660
171.3215, 5.4306000E-02
171.8036, 0.1035360
172.2857, 8.4976003E-02
172.7678, 6.9582000E-02
173.2499, 0.3464060
173.7321, 0.7582050
174.2142, 1.206852
174.6963, 1.626522
175.1784, 2.026792
175.6605, 2.434666
176.1426, 2.735450
176.6248, 3.088785
177.1069, 3.726489
177.5890, 4.694656
178.0711, 5.860851
178.5532, 7.141537
179.0353, 8.525489
179.5175, 9.922433
179.9996, 11.50598
180.4817, 13.04307
180.9638, 14.12257
181.4459, 14.69022
181.9280, 14.80582
182.4102, 14.30886
182.8923, 13.30739
183.3744, 12.42998
183.8565, 12.01865
184.3386, 12.04253
184.8207, 12.39442
185.3029, 13.02346
185.7850, 14.05530
186.2671, 15.65754
186.7492, 17.83258
187.2313, 20.67659
187.7134, 24.14472
188.1956, 28.31644
188.6777, 33.42636
189.1598, 39.64455
189.6419, 46.74620
190.1240, 54.45237
190.6061, 62.88667
191.0883, 71.44096
191.5704, 80.67342
192.0525, 90.34369
192.5346, 97.38233
193.0167, 101.5364
193.4988, 102.4557
193.9810, 98.20324
194.4631, 88.40982
194.9452, 76.90234
195.4273, 65.52005
195.9094, 54.26752
196.3915, 44.79914
196.8737, 37.55199
197.3558, 32.19851
197.8379, 27.63211
198.3200, 23.87005
198.8021, 20.80701
199.2842, 18.50696
199.7664, 16.96468
200.2485, 15.68886
200.7306, 14.59839
201.2127, 13.75713
201.6948, 13.17113
202.1769, 12.85208
202.6591, 12.65798
203.1412, 12.42034
203.6233, 12.17258
204.1054, 12.16331
204.5875, 12.44576
205.0696, 13.01825
205.5518, 13.70393
206.0339, 14.43249
206.5160, 15.26964
206.9981, 16.33089
207.4802, 17.60244
207.9623, 19.00937
208.4445, 20.40376
208.9266, 21.82893
209.4087, 24.07192
209.8908, 27.20735
210.3729, 30.89260
210.8550, 34.92498
211.3372, 39.38845
211.8193, 43.84861
212.3014, 48.40169
212.7835, 53.01785
213.2656, 56.75050
213.7477, 59.77449
214.2299, 61.71233
214.7120, 62.20071
215.1941, 61.40954
215.6762, 58.71826
216.1583, 53.46880
216.6404, 45.54009
217.1226, 38.31229
217.6047, 31.68942
218.0868, 25.85644
218.5689, 20.96154
219.0510, 17.04397
219.5331, 13.92494
220.0153, 11.62042
220.4974, 10.18510
220.9795, 8.849678
221.4616, 7.559744
221.9437, 6.410769
222.4258, 5.529539
222.9080, 5.037107
223.3901, 4.560000
223.8722, 3.985498
224.3543, 3.278679
224.8364, 2.733352
225.3185, 2.397752
225.8007, 2.182101
226.2828, 2.001003
226.7649, 1.847464
227.2470, 1.677505
227.7291, 1.481453
228.2112, 1.251904
228.6934, 1.014649
229.1755, 0.7427460
229.6576, 0.4820040
230.1397, 0.3095500
230.6218, 0.2570860
231.1039, 0.2328360
231.5861, 0.2306930
232.0682, 0.2655040
232.5503, 0.2165060
233.0324, 3.4205999E-02
233.5145, 0.1891980
233.9966, 0.3379890
234.4788, 0.3804290
234.9609, 0.4037180
235.4430, 0.4319680
235.9251, 0.4700310
236.4072, 0.4731500
236.8893, 0.4031550
237.3715, 0.3296380
237.8536, 0.3484090
238.3357, 0.5269830
238.8178, 0.6790280
239.2999, 0.7479630
239.7820, 0.7189840
240.2642, 0.7197510
240.7463, 0.7612360
241.2284, 0.8234460
241.7105, 0.8885610
242.1926, 0.9834140
242.6747, 1.031443
243.1569, 0.9961850
243.6390, 0.8606580
244.1211, 0.7835090
244.6032, 0.7901540
245.0853, 0.8313020
245.5674, 0.8540150
246.0496, 0.8665090
246.5317, 0.8444990
247.0138, 0.7751700
247.4959, 0.6533040
247.9780, 0.5306710
248.4601, 0.3786630
248.9423, 0.2514290
249.4244, 0.2228220
249.9065, 0.3684020
250.3886, 0.4618260
250.8707, 0.4420090
251.3528, 0.3043290
251.8350, 0.1708620
252.3171, 2.5328999E-02
252.7992, 9.6533000E-02
253.2813, 0.1366540
253.7634, 8.1399996E-03
254.2455, 1.3579000E-02
254.7277, 0.1534520
255.2098, 0.5140340
255.6919, 0.8221180
256.1740, 1.012324
256.6561, 1.230510
257.1382, 1.619566
257.6204, 2.239376
258.1025, 2.884367
258.5846, 3.465569
259.0667, 3.998116
259.5488, 4.794274
260.0309, 5.877677
260.5131, 7.163307
260.9952, 8.562956
261.4773, 10.09042
261.9594, 11.73728
262.4415, 13.57151
262.9236, 15.56433
263.4058, 17.27732
263.8879, 18.81383
264.3700, 19.92930
264.8521, 20.52620
265.3342, 20.69598
265.8163, 19.97102
266.2985, 18.02321
266.7806, 15.10616
267.2627, 12.55412
267.7448, 10.37309
268.2269, 8.579547
268.7090, 7.241337
269.1912, 6.424157
269.6733, 5.726143
270.1554, 5.085428
270.6375, 4.528239
271.1196, 4.199873
271.6017, 4.138692
272.0839, 4.198939
272.5660, 4.293429
273.0481, 4.422554
273.5302, 4.591634
274.0123, 4.821054
274.4944, 5.080555
274.9766, 5.273834
275.4587, 5.381801
275.9408, 5.496872
276.4229, 5.713038
276.9050, 6.052559
277.3871, 6.223253
277.8693, 6.174829
278.3514, 5.981731
278.8335, 5.802022
279.3156, 5.638801
279.7977, 5.463795
280.2798, 5.269600
280.7620, 5.057686
281.2441, 4.779279
281.7262, 4.405672
282.2083, 4.011990
282.6904, 3.712020
283.1725, 3.504148
283.6547, 3.409463
284.1368, 3.454145
284.6189, 3.631130
285.1010, 3.872921
285.5831, 4.182141
286.0652, 4.543976
286.5474, 4.880438
287.0295, 5.195841
287.5116, 5.709435
287.9937, 6.585388
288.4758, 7.777985
288.9579, 8.911398
289.4401, 9.973115
289.9222, 11.10407
290.4043, 12.47563
290.8864, 14.06655
291.3685, 15.77117
291.8506, 17.60238
292.3328, 19.52054
292.8149, 21.45105
293.2970, 23.43425
293.7791, 25.07953
294.2612, 25.96312
294.7433, 26.16136
295.2255, 25.92331
295.7076, 25.30022
296.1897, 24.28997
296.6718, 22.80564
297.1539, 20.86847
297.6360, 18.83732
298.1182, 16.92697
298.6003, 15.15810
299.0824, 13.52835
299.5645, 11.97811
300.0466, 10.62849
300.5287, 9.638618
301.0109, 9.008414
301.4930, 8.690618
301.9751, 8.723942
302.4572, 9.026013
302.9393, 9.464375
303.4214, 10.02230
303.9036, 10.70271
304.3857, 11.48217
304.8678, 12.37875
305.3499, 13.47707
305.8320, 14.76897
306.3141, 16.30775
306.7963, 18.17549
307.2784, 20.47816
307.7605, 22.86942
308.2426, 25.05386
308.7247, 27.12256
309.2068, 29.28549
309.6890, 32.09716
310.1711, 34.79023
310.6532, 36.68349
311.1353, 37.66901
311.6174, 37.99926
312.0995, 37.86277
312.5817, 37.16045
313.0638, 35.73883
313.5459, 33.06389
314.0280, 29.98728
314.5101, 26.97003
314.9922, 24.05889
315.4744, 21.16917
315.9565, 18.09870
316.4386, 15.09854
316.9207, 12.49178
317.4028, 10.40913
317.8849, 8.678596
318.3671, 7.292364
318.8492, 6.227062
319.3313, 5.332016
319.8134, 4.553589
320.2955, 3.921715
320.7776, 3.467731
321.2598, 3.323912
321.7419, 3.216919
322.2240, 2.999454
322.7061, 2.729681
323.1882, 2.713308
323.6703, 3.219906
324.1525, 3.851547
324.6346, 4.383045
325.1167, 4.658844
325.5988, 5.019341
326.0809, 5.432875
326.5630, 5.946287
327.0452, 6.691282
327.5273, 7.848658
328.0094, 9.081656
328.4915, 10.27045
328.9736, 11.32796
329.4557, 12.50255
329.9379, 13.73368
330.4200, 15.10793
330.9021, 16.74743
331.3842, 18.77891
331.8663, 20.91764
332.3484, 23.04959
332.8306, 25.06744
333.3127, 27.50248
333.7948, 30.32076
334.2769, 33.60047
334.7590, 37.41371
335.2411, 41.90763
335.7233, 46.66643
336.2054, 51.52745
336.6875, 56.55069
337.1696, 62.06599
337.6517, 68.20195
338.1339, 74.56247
338.6160, 80.75082
339.0981, 86.77715
339.5802, 92.81097
340.0623, 98.94326
340.5444, 105.0642
341.0266, 110.5866
341.5087, 115.6617
341.9908, 119.7884
342.4729, 122.5018
342.9550, 123.7844
343.4371, 124.8111
343.9193, 125.6397
344.4014, 126.2864
344.8835, 126.9124
345.3656, 127.5140
345.8477, 127.5280
346.3298, 127.1345
346.8120, 126.0270
347.2941, 122.7887
347.7762, 117.2607
348.2583, 110.1433
348.7404, 101.7814
349.2225, 92.38340
349.7047, 82.79615
350.1868, 72.73933
350.6689, 63.00104
351.1510, 54.91182
351.6331, 48.49672
352.1152, 43.05763
352.5974, 38.15272
353.0795, 33.79487
353.5616, 30.00855
354.0437, 26.79910
354.5258, 24.17458
355.0079, 22.23327
355.4901, 20.91385
355.9722, 19.89033
356.4543, 18.96356
356.9364, 18.23873
357.4185, 17.81488
357.9006, 17.73101
358.3828, 17.88095
358.8649, 18.17554
359.3470, 18.65116
359.8291, 19.38889
360.3112, 20.41771
360.7933, 21.72916
361.2755, 23.35287
361.7576, 25.31238
362.2397, 27.46994
362.7218, 29.69518
363.2039, 32.10750
363.6860, 34.84719
364.1682, 38.09635
364.6503, 41.57254
365.1324, 45.18485
365.6145, 48.94613
366.0966, 52.68241
366.5787, 56.80635
367.0609, 60.61662
367.5430, 63.66833
368.0251, 66.47340
368.5072, 67.88168
368.9893, 67.48259
369.4714, 65.57596
369.9536, 63.09294
370.4357, 59.91316
370.9178, 56.28022
371.3999, 52.20239
371.8820, 47.19316
372.3641, 42.89940
372.8463, 39.46852
373.3284, 36.69756
373.8105, 34.25027
374.2926, 32.09089
374.7747, 30.33525
375.2568, 29.00176
375.7390, 28.08606
376.2211, 27.59201
376.7032, 27.59073
377.1853, 27.86798
377.6674, 28.13291
378.1495, 28.32635
378.6317, 28.99422
379.1138, 30.31731
379.5959, 32.15373
380.0780, 34.13124
380.5601, 36.24090
381.0422, 38.46833
381.5244, 40.76501
382.0065, 43.17177
382.4886, 45.83594
382.9707, 48.85898
383.4528, 51.95343
383.9349, 54.89310
384.4171, 57.64658
384.8992, 60.01569
385.3813, 62.18936
385.8634, 63.86409
386.3455, 64.55923
386.8276, 64.25146
387.3098, 63.10524
387.7919, 61.09973
388.2740, 58.34491
388.7561, 55.05515
389.2382, 51.00481
389.7203, 46.70801
390.2025, 42.48025
390.6846, 38.37459
391.1667, 34.54562
391.6488, 31.11108
392.1309, 28.02280
392.6130, 25.25063
393.0952, 22.89301
393.5773, 20.70004
394.0594, 18.56132
394.5415, 16.53921
395.0236, 14.74903
395.5057, 13.27788
395.9879, 11.99991
396.4700, 10.88250
396.9521, 9.931993
397.4342, 9.081281
397.9163, 8.377837
398.3984, 7.741870
398.8806, 7.100502
399.3627, 6.423126
399.8448, 5.768917
400.3269, 5.114913
400.8090, 4.472977
401.2911, 3.962551
401.7733, 3.655744
402.2554, 3.389260
402.7375, 3.070666
403.2196, 2.644402
403.7017, 2.310449
404.1838, 2.108026
404.6660, 1.973007
405.1481, 1.788351
405.6302, 1.539747
406.1123, 1.287807
406.5944, 1.034878
407.0765, 0.7841400
407.5587, 0.6434760
408.0408, 0.6306360
408.5229, 0.6550000
409.0050, 0.6312300
409.4871, 0.5609910
409.9692, 0.4636620
410.4514, 0.3308320
410.9335, 0.1859850
411.4156, 8.1141002E-02
411.8977, 1.4746000E-02
412.3798, 4.7371998E-02
412.8619, 0.1201120
413.3441, 0.2041630
413.8262, 0.3118620
414.3083, 0.4526140
414.7904, 0.5790520
415.2725, 0.6549210
415.7546, 0.6833700
416.2368, 0.6738260
416.7189, 0.5916080
417.2010, 0.4997670
417.6831, 0.4376410
418.1652, 0.4072140
418.6473, 0.4186030
419.1295, 0.5220520
419.6116, 0.6473980
420.0937, 0.7278290
420.5758, 0.7122850
421.0579, 0.7032030
421.5400, 0.7567730
422.0222, 0.8426880
422.5043, 0.8888410
422.9864, 0.8601400
423.4685, 0.8039710
423.9506, 0.7275380
424.4327, 0.6128740
424.9149, 0.5427180
425.3970, 0.5601110
425.8791, 0.6006090
426.3612, 0.5971950
426.8433, 0.4930910
427.3254, 0.4378960
427.8076, 0.4766180
428.2897, 0.5910820
428.7718, 0.6459960
429.2539, 0.6272970
429.7360, 0.5765460
430.2181, 0.5082870
430.7003, 0.4156820
431.1824, 0.3541820
431.6645, 0.3329430
432.1466, 0.3317060
432.6287, 0.3095680
433.1108, 0.2655710
433.5930, 0.2478740
434.0751, 0.3075160
434.5572, 0.4032290
435.0393, 0.3741460
435.5214, 0.2173600
436.0035, 5.3031001E-02
436.4857, 7.6600001E-04
436.9678, 2.3443000E-02
437.4499, 2.9465999E-02
437.9320, 6.8359999E-03
438.4141, 5.5137999E-02
438.8962, 7.9334997E-02
439.3784, 8.7564997E-02
439.8605, 0.1037450
440.3426, 0.1619520
440.8247, 0.2200090
441.3068, 0.2291550
441.7889, 0.1796330
442.2711, 0.1548200
442.7532, 0.2469990
443.2353, 0.3650570
443.7174, 0.4143630
444.1995, 0.2911250
444.6816, 0.1769910
445.1638, 0.1240170
445.6459, 0.1232600
446.1280, 0.1283970
446.6101, 0.1053470
447.0922, 0.1095600
447.5743, 0.1739430
448.0565, 0.3376770
448.5386, 0.4599870
449.0207, 0.5150430
449.5028, 0.5443430
449.9849, 0.6047830
450.4670, 0.7231960
450.9492, 0.8113100
451.4313, 0.8363670
451.9134, 0.8111410
452.3955, 0.8314690
452.8776, 0.9059480
453.3597, 0.9951550
453.8419, 1.072736
454.3240, 1.138529
454.8061, 1.202345
455.2882, 1.255678
455.7703, 1.330354
456.2524, 1.499670
456.7346, 1.749164
457.2167, 1.965236
457.6988, 2.050530
458.1809, 2.096883
458.6630, 2.294207
459.1451, 2.631480
459.6273, 2.960623
460.1094, 3.108490
460.5915, 3.199204
461.0736, 3.409198
461.5557, 3.839242
462.0378, 4.261970
462.5200, 4.522108
463.0021, 4.671984
463.4842, 4.807763
463.9663, 5.009605
464.4484, 5.170090
464.9305, 5.228680
465.4127, 5.179550
465.8948, 5.096738
466.3769, 5.012597
466.8590, 4.889798
467.3411, 4.701121
467.8232, 4.330712
468.3054, 4.042749
468.7875, 3.890253
469.2696, 3.819566
469.7517, 3.699384
470.2338, 3.520417
470.7159, 3.304330
471.1981, 3.029991
471.6802, 2.688591
472.1623, 2.476340
472.6444, 2.423919
473.1265, 2.424589
473.6086, 2.381075
474.0908, 2.296347
474.5729, 2.208234
475.0550, 2.117302
475.5371, 2.034005
476.0192, 1.979108
476.5013, 1.948792
476.9835, 1.928163
477.4656, 1.941894
477.9477, 1.952802
478.4298, 1.869659
478.9119, 1.684496
479.3940, 1.540980
479.8762, 1.575182
480.3583, 1.714952
480.8404, 1.870424
481.3225, 2.054325
481.8046, 2.201088
482.2867, 2.220061
482.7689, 2.170729
483.2510, 2.207756
483.7331, 2.432462
484.2152, 2.714333
484.6973, 3.017874
485.1794, 3.351602
485.6616, 3.631268
486.1437, 3.778173
486.6258, 3.908073
487.1079, 4.107242
487.5900, 4.347628
488.0721, 4.719570
488.5543, 5.247264
489.0364, 5.904737
489.5185, 6.626410
490.0006, 7.412706
490.4827, 8.233795
490.9648, 9.013007
491.4470, 9.765956
491.9291, 10.82228
492.4112, 12.19999
492.8933, 13.76613
493.3754, 15.32367
493.8575, 16.93642
494.3397, 18.90483
494.8218, 21.37654
495.3039, 24.03082
495.7860, 26.43321
496.2681, 28.62295
496.7502, 30.71972
497.2324, 33.15994
497.7145, 35.32811
498.1966, 36.70203
498.6787, 37.26349
499.1608, 37.10812
499.6429, 36.22412
500.1251, 34.68506
500.6072, 32.50948
501.0893, 29.24859
501.5714, 26.00817
502.0535, 22.85657
502.5356, 19.87644
503.0178, 17.24084
503.4999, 14.97276
503.9820, 13.00016
504.4641, 11.32577
504.9462, 9.948545
505.4283, 8.859772
505.9105, 8.160620
506.3926, 7.610154
506.8747, 7.029075
507.3568, 6.404757
507.8389, 5.843200
508.3210, 5.362996
508.8032, 4.951260
509.2853, 4.591605
509.7674, 4.283969
510.2495, 4.032787
510.7316, 3.848584
511.2137, 3.715625
511.6959, 3.600211
512.1780, 3.503469
512.6601, 3.429047
513.1422, 3.411128
513.6243, 3.404780
514.1064, 3.326523
514.5886, 3.121660
515.0707, 2.992706
515.5528, 3.140521
516.0349, 3.424629
516.5170, 3.644104
516.9991, 3.635477
517.4813, 3.653802
517.9634, 3.805915
518.4455, 4.075131
518.9276, 4.311484
519.4097, 4.431430
519.8918, 4.571981
520.3740, 4.778313
520.8561, 5.043214
521.3382, 5.405403
521.8203, 5.895883
522.3024, 6.447920
522.7845, 6.960701
523.2667, 7.395988
523.7488, 8.027262
524.2309, 8.964254
524.7130, 10.06888
525.1951, 10.95634
525.6772, 11.63733
526.1594, 12.42560
526.6415, 13.57577
527.1236, 14.95841
527.6057, 16.25626
528.0878, 17.45260
528.5699, 18.69141
529.0521, 20.10357
529.5342, 21.60945
530.0163, 23.12424
530.4984, 24.69757
530.9805, 26.11721
531.4626, 27.14100
531.9448, 27.92710
532.4269, 28.77817
532.9090, 29.70944
533.3911, 30.79729
533.8732, 32.00153
534.3553, 33.30627
534.8375, 35.08476
535.3196, 37.35281
535.8017, 40.06225
536.2838, 43.15937
536.7659, 46.61808
537.2480, 50.62383
537.7302, 55.16678
538.2123, 60.25820
538.6944, 65.83466
539.1765, 71.94663
539.6586, 78.54881
540.1407, 85.64896
540.6229, 93.13815
541.1050, 100.7961
541.5871, 108.5535
542.0692, 115.6712
542.5513, 122.6603
543.0334, 128.4358
543.5156, 131.2345
543.9977, 130.9393
544.4798, 128.5968
544.9619, 124.4198
545.4440, 118.8078
545.9261, 112.1406
546.4083, 103.9816
546.8904, 95.55891
547.3725, 86.81287
547.8546, 78.19613
548.3367, 70.48587
548.8188, 63.90459
549.3010, 58.16040
549.7831, 53.24471
550.2652, 49.15345
550.7473, 45.56962
551.2294, 42.47647
551.7115, 39.91779
552.1937, 37.93843
552.6758, 36.56902
553.1579, 35.47503
553.6400, 34.61738
554.1221, 34.10068
554.6042, 34.12672
555.0864, 34.65147
555.5685, 35.37425
556.0506, 36.15379
556.5327, 37.14441
557.0148, 38.54705
557.4969, 40.34449
557.9791, 42.48177
558.4612, 45.19404
558.9433, 48.03001
559.4254, 50.71675
559.9075, 53.25356
560.3896, 55.28130
560.8718, 56.63750
561.3539, 57.41744
561.8360, 57.69247
562.3181, 57.66565
562.8002, 56.81351
563.2823, 54.89616
563.7645, 52.27015
564.2466, 49.43961
564.7287, 46.40142
565.2108, 43.21595
565.6929, 39.80765
566.1750, 36.29043
566.6572, 32.99533
567.1393, 29.92669
567.6214, 27.13114
568.1035, 24.62909
568.5856, 22.42780
569.0677, 20.44906
569.5499, 18.71029
570.0320, 17.14705
570.5141, 15.74652
570.9962, 14.48412
571.4783, 13.32138
571.9604, 12.21571
572.4426, 11.26542
572.9247, 10.59758
573.4068, 10.11375
573.8889, 9.622221
574.3710, 9.023767
574.8531, 8.449752
575.3353, 7.951283
575.8174, 7.527493
576.2995, 7.102828
576.7816, 6.674600
577.2637, 6.252406
577.7458, 5.810864
578.2280, 5.314830
578.7101, 5.033301
579.1922, 5.047348
579.6743, 5.096181
580.1564, 4.851374
580.6385, 4.336204
581.1207, 3.961321
581.6028, 3.832949
582.0849, 3.802374
582.5670, 3.640553
583.0491, 3.387700
583.5313, 3.164507
584.0134, 3.063365
584.4955, 2.994448
584.9776, 2.887424
585.4597, 2.743677
585.9418, 2.572782
586.4240, 2.306355
586.9061, 2.071089
587.3882, 1.957100
587.8703, 2.019284
588.3524, 2.026963
588.8345, 1.882697
589.3167, 1.719341
589.7988, 1.649033
590.2809, 1.745042
590.7630, 1.764845
591.2451, 1.681350
591.7272, 1.523523
592.2094, 1.320733
592.6915, 1.068959
593.1736, 0.8695460
593.6557, 0.7772910
594.1378, 0.7464870
594.6199, 0.6583170
595.1021, 0.5221320
595.5842, 0.4063540
596.0663, 0.3604970
596.5484, 0.3573300
597.0305, 0.3893850
597.5126, 0.4589670
597.9948, 0.4681260
598.4769, 0.2627620
598.9590, 2.9139001E-02
599.4411, 6.6449001E-02
599.9232, 0.1262310
600.4053, 0.2625920
600.8875, 0.2767630
601.3696, 0.2113620
601.8517, 0.1163000
602.3338, 3.7684001E-02
602.8159, 0.1624350
603.2980, 0.2453130
603.7802, 0.2871070
604.2623, 0.2795530
604.7444, 0.2150480
605.2265, 0.1651040
605.7086, 0.1867920
606.1907, 0.2527500
606.6729, 0.2580410
607.1550, 0.2039100
607.6371, 0.1525820
608.1192, 0.1604290
608.6013, 0.1983050
609.0834, 0.2290370
609.5656, 0.2464970
610.0477, 0.2585070
610.5298, 0.2891370
611.0119, 0.3085530
611.4940, 0.2836010
611.9761, 0.1303800
612.4583, 2.2888999E-02
612.9404, 2.8700000E-04
613.4225, 3.7261002E-02
613.9046, 8.6704001E-02
614.3867, 0.1658310
614.8688, 0.2181580
615.3510, 0.2235980
615.8331, 0.1882680
616.3152, 0.1409230
616.7973, 7.7705003E-02
617.2794, 4.0970001E-02
617.7615, 8.6953998E-02
618.2437, 0.1802320
618.7258, 0.2141080
619.2079, 0.1816950
619.6900, 0.1435910
620.1721, 0.1639220
620.6542, 0.2039010
621.1364, 0.2125980
621.6185, 0.1669400
622.1006, 0.1153660
622.5827, 5.9455998E-02
623.0648, 1.6142000E-02
623.5469, 9.1100000E-03
624.0291, 0.1257750
624.5112, 0.1743650
624.9933, 6.9660999E-02
625.4754, 0.1190810
625.9575, 0.1374810
626.4396, 7.8832000E-02
626.9218, 0.2783110
627.4039, 0.3750750
627.8860, 0.3748660
628.3681, 0.2847640
628.8502, 0.1010700
629.3323, 7.5200997E-02
629.8145, 0.1776560
630.2966, 0.2169830
630.7787, 0.1986170
631.2608, 0.1182160
631.7429, 4.5855999E-02
632.2250, 3.8656998E-02
632.7072, 6.4893998E-02
633.1893, 9.0910003E-02
633.6714, 0.1112640
634.1535, 0.1259740
634.6356, 0.1277880
635.1177, 0.1259330
635.5999, 0.1345970
636.0820, 0.1538650
636.5641, 0.1844520
637.0462, 0.2312310
637.5283, 0.2882000
638.0104, 0.3420590
638.4926, 0.3974060
638.9747, 0.4213500
639.4568, 0.3782960
639.9389, 0.2958150
640.4210, 0.2633660
640.9031, 0.2798260
641.3853, 0.3327910
641.8674, 0.4543930
642.3495, 0.5869180
642.8316, 0.6539970
643.3137, 0.6431330
643.7958, 0.6173710
644.2780, 0.5716660
644.7601, 0.5454740
645.2422, 0.5767030
645.7243, 0.7405880
646.2064, 0.8534050
646.6885, 0.8689350
647.1707, 0.8517600
647.6528, 0.8979170
648.1349, 1.044597
648.6170, 1.127754
649.0991, 1.088236
649.5812, 0.9983810
650.0634, 1.060365
650.5455, 1.261189
651.0276, 1.404917
651.5097, 1.340881
651.9918, 1.203031
652.4739, 1.225528
652.9561, 1.377273
653.4382, 1.496345
653.9203, 1.441118
654.4024, 1.354999
654.8845, 1.331700
655.3666, 1.383376
655.8488, 1.462809
656.3309, 1.587198
656.8130, 1.715752
657.2951, 1.823126
657.7772, 1.905381
658.2593, 1.980430
658.7415, 2.043324
659.2236, 2.108292
659.7057, 2.191591
660.1878, 2.291739
660.6699, 2.403941
661.1520, 2.538300
661.6342, 2.653420
662.1163, 2.636834
662.5984, 2.553339
663.0805, 2.569618
663.5626, 2.831571
664.0447, 3.128561
664.5269, 3.310090
665.0090, 3.411773
665.4911, 3.535356
665.9732, 3.710763
666.4553, 3.908973
666.9374, 4.123631
667.4196, 4.355203
667.9017, 4.597383
668.3838, 4.846198
668.8659, 5.113393
669.3480, 5.399586
669.8301, 5.712171
670.3123, 6.115375
670.7944, 6.616154
671.2765, 7.136737
671.7586, 7.578445
672.2407, 7.998871
672.7228, 8.534859
673.2050, 9.225060
673.6871, 9.956241
674.1692, 10.70389
674.6513, 11.43032
675.1334, 12.07175
675.6155, 12.50657
676.0977, 13.01460
676.5798, 13.81411
677.0619, 14.67156
677.5440, 15.22760
678.0261, 15.39864
678.5082, 15.42363
678.9904, 15.34809
679.4725, 15.15463
679.9546, 14.78458
680.4367, 14.24471
680.9188, 13.53523
681.4009, 12.57022
681.8831, 11.48785
682.3652, 10.57064
682.8473, 9.805038
683.3294, 9.123433
683.8115, 8.555481
684.2936, 7.962676
684.7758, 7.176015
685.2579, 6.202247
685.7400, 5.377221
686.2221, 4.882863
686.7042, 4.507996
687.1863, 4.127179
687.6685, 3.706951
688.1506, 3.410528
688.6327, 3.282013
689.1148, 3.171510
689.5969, 2.914888
690.0790, 2.528006
690.5612, 2.252073
691.0433, 2.122741
691.5254, 2.047159
692.0075, 1.943886
692.4896, 1.815648
692.9717, 1.661899
693.4539, 1.454840
693.9360, 1.280553
694.4181, 1.211367
694.9002, 1.203457
695.3823, 1.188064
695.8644, 1.154294
696.3466, 1.105687
696.8287, 1.040779
697.3108, 0.9619300
697.7929, 0.8660500
698.2750, 0.7356010
698.7571, 0.6562970
699.2393, 0.6544960
699.7214, 0.7250110
700.2035, 0.9199980
700.6856, 1.213522
701.1677, 1.370580
701.6498, 1.134258
702.1320, 0.7614740
702.6141, 0.5260920
703.0962, 0.4279000
703.5783, 0.3907480
704.0604, 0.3145160
704.5425, 0.3402790
705.0247, 0.6418080
705.5068, 1.345519
705.9889, 1.622338
706.4710, 1.228757
706.9531, 0.7188630
707.4352, 0.4512350
707.9174, 0.4487770
708.3995, 0.4348500
708.8816, 0.4023970
709.3637, 0.3705490
709.8458, 0.3690340
710.3279, 0.3830540
710.8101, 0.3673330
711.2922, 0.3041550
711.7743, 0.2554660
712.2564, 0.2893940
712.7385, 0.3559660
713.2206, 0.3955470
713.7028, 0.3797390
714.1849, 0.3531080
714.6670, 0.3256490
715.1491, 0.2909220
715.6312, 0.2305630
716.1133, 0.1156030
716.5955, 6.1887000E-02
717.0776, 0.1046650
717.5597, 0.2011810
718.0418, 0.2632610
718.5239, 0.2940960
719.0060, 0.3190580
719.4882, 0.3575980
719.9703, 0.3846630
720.4524, 0.3448160
720.9345, 0.2650850
721.4166, 0.2247760
721.8987, 0.3255470
722.3809, 0.4121070
722.8630, 0.3942530
723.3451, 0.2833820
723.8272, 0.1969030
724.3093, 0.1425300
724.7914, 0.1110350
725.2736, 0.1047070
725.7557, 0.1210120
726.2378, 0.1245250
726.7199, 0.1119310
727.2020, 0.1180170
727.6841, 0.1988120
728.1663, 0.3075200
728.6484, 0.3171180
729.1305, 0.2277720
729.6126, 0.1564680
730.0947, 0.2262420
730.5768, 0.3179360
731.0590, 0.3201190
731.5411, 0.1931110
732.0232, 0.1144910
732.5053, 0.1480270
732.9874, 0.2153370
733.4695, 0.2708880
733.9517, 0.3092020
734.4338, 0.3500580
734.9159, 0.4012630
735.3980, 0.4388860
735.8801, 0.4177760
736.3622, 0.3553980
736.8444, 0.3358000
737.3265, 0.3800440
737.8086, 0.4262500
738.2907, 0.4002450
738.7728, 0.3499670
739.2549, 0.3376840
739.7371, 0.3961250
740.2192, 0.4519720
740.7013, 0.4814090
741.1834, 0.5009390
741.6655, 0.5311410
742.1476, 0.5695900
742.6298, 0.6283920
743.1119, 0.7214320
743.5940, 0.8220040
744.0761, 0.8737820
744.5582, 0.8827310
745.0403, 0.8957700
745.5225, 0.9193220
746.0046, 0.9521090
746.4867, 0.9878130
746.9688, 1.038667
747.4509, 1.127391
747.9330, 1.322499
748.4152, 1.493792
748.8973, 1.565404
749.3794, 1.568825
749.8615, 1.616147
750.3436, 1.718886
750.8257, 1.865612
751.3079, 2.056008
751.7900, 2.274021
752.2721, 2.457945
752.7542, 2.611565
753.2363, 2.817799
753.7184, 3.152215
754.2006, 3.540027
754.6827, 3.819499
755.1648, 4.028442
755.6469, 4.338226
756.1290, 4.896375
756.6111, 5.531600
757.0933, 6.179966
757.5754, 6.824062
758.0575, 7.471135
758.5396, 8.190025
759.0217, 8.803039
759.5038, 9.278724
759.9860, 9.603025
760.4681, 9.647089
760.9502, 9.401432
761.4323, 8.926771
761.9144, 8.152057
762.3965, 7.217949
762.8787, 6.349727
763.3608, 5.557334
763.8429, 4.843478
764.3250, 4.221886
764.8071, 3.678950
765.2892, 3.227597
765.7714, 2.872480
766.2535, 2.522003
766.7356, 2.112443
767.2177, 1.780400
767.6998, 1.628018
768.1819, 1.666411
768.6641, 1.638588
769.1462, 1.534364
769.6283, 1.430656
770.1104, 1.424171
770.5925, 1.453631
771.0746, 1.372202
771.5568, 1.158181
772.0389, 0.9747510
772.5210, 0.9410820
773.0031, 0.9677920
773.4852, 0.9939700
773.9673, 1.031039
774.4495, 0.9998670
774.9316, 0.8498510
775.4137, 0.6935070
775.8958, 0.6139720
776.3779, 0.6154160
776.8600, 0.6558280
777.3422, 0.7460020
777.8243, 0.8005320
778.3064, 0.6825670
778.7885, 0.4801280
779.2706, 0.3619600
779.7527, 0.3635090
780.2349, 0.4046970
780.7170, 0.4771040
781.1991, 0.5439260
781.6812, 0.5701860
782.1633, 0.5160240
782.6454, 0.4899630
783.1276, 0.5111870
783.6097, 0.5382320
784.0918, 0.5271720
784.5739, 0.4773080
785.0560, 0.4244340
785.5381, 0.3702840
786.0203, 0.3278890
786.5024, 0.3216530
786.9845, 0.3340070
787.4666, 0.3350020
787.9487, 0.3169340
788.4308, 0.2944280
788.9130, 0.2799460
789.3951, 0.2608180
789.8772, 0.2214050
790.3593, 0.1160750
790.8414, 8.0943003E-02
791.3235, 0.1498720
791.8057, 0.2431870
792.2878, 0.2532130
792.7699, 0.1870290
793.2520, 0.1541250
793.7341, 0.1735350
794.2162, 0.2111430
794.6984, 0.2596740
795.1805, 0.2934950
795.6626, 0.2600510
796.1447, 9.4540998E-02
796.6268, 1.8391000E-02
797.1089, 2.5000000E-02
797.5911, 0.1361030
798.0732, 0.2152140
798.5553, 0.2542280
799.0374, 0.2808000
799.5195, 0.3034870
800.0016, 0.3010350
800.4838, 0.2274600
800.9659, 9.7594000E-02
801.4480, 8.9419996E-03
801.9301, 8.0752999E-02
802.4122, 0.1118840
802.8943, 5.9039000E-02
803.3765, 2.4253000E-02
803.8586, 6.6953003E-02
804.3407, 2.8337000E-02
804.8228, 9.9430000E-03
805.3049, 3.7719999E-02
805.7870, 5.3319000E-02
806.2692, 4.7628999E-02
806.7513, 5.3699999E-03
807.2334, 1.2676000E-02
807.7155, 9.3558997E-02
808.1976, 0.1790730
808.6797, 0.1636080
809.1619, 7.9643004E-02
809.6440, 2.1965001E-02
810.1261, 1.3808000E-02
810.6082, 2.2519000E-02
811.0903, 5.4303002E-02
811.5724, 7.5718001E-02
812.0546, 4.5841999E-02
812.5367, 0.1286720
813.0188, 0.2092580
813.5009, 0.1446980
813.9830, 2.5575999E-02
814.4651, 5.5629998E-02
814.9473, 9.8256998E-02
815.4294, 0.1197570
815.9115, 0.1197600
816.3936, 0.1096980
816.8757, 0.1110410
817.3578, 0.1092720
817.8400, 6.9154002E-02
818.3221, 3.5778999E-02
818.8042, 0.1126860
819.2863, 8.4785998E-02
819.7684, 2.6252000E-02
820.2505, 8.8250004E-03
820.7327, 5.2025001E-02
821.2148, 0.1016810
821.6969, 0.1690810
822.1790, 0.2224090
822.6611, 0.2189260
823.1432, 0.1669450
823.6254, 0.1146170
824.1075, 6.6060998E-02
824.5896, 2.5574001E-02
825.0717, 2.3529001E-02
825.5538, 5.1725999E-02
826.0359, 7.1210000E-03
826.5181, 0.1587360
827.0002, 0.2553220
827.4823, 0.1731320
827.9644, 6.0637999E-02
828.4465, 1.5492000E-02
828.9286, 5.5605002E-02
829.4108, 7.0165001E-02
829.8929, 5.0069001E-02
830.3750, 4.3651000E-02
830.8571, 0.1070660
831.3392, 0.2145060
831.8214, 0.3190120
832.3035, 0.4152840
832.7856, 0.4916900
833.2677, 0.5526000
833.7498, 0.5804480
834.2319, 0.5413380
834.7141, 0.3922160
835.1962, 0.3588440
835.6783, 0.4856010
836.1604, 0.6518530
836.6425, 0.7945720
837.1246, 0.9115450
837.6068, 0.9458890
838.0889, 0.8969400
838.5710, 0.8785800
839.0531, 1.016653
839.5352, 1.207147
840.0173, 1.333314
840.4995, 1.389236
840.9816, 1.450389
841.4637, 1.502110
841.9458, 1.607064
842.4279, 1.816545
842.9100, 2.130684
843.3922, 2.354152
843.8743, 2.472260
844.3564, 2.560641
844.8385, 2.647192
845.3206, 2.743669
845.8027, 2.877557
846.2849, 3.051867
846.7670, 3.258984
847.2491, 3.453213
847.7312, 3.689400
848.2133, 4.005587
848.6954, 4.414246
849.1776, 4.914135
849.6597, 5.573622
850.1418, 6.166257
850.6239, 6.570703
851.1060, 6.868806
851.5881, 7.359641
852.0703, 8.026362
852.5524, 8.704267
853.0345, 9.272898
853.5166, 9.837192
853.9987, 10.45899
854.4808, 11.15109
854.9630, 11.96584
855.4451, 12.93831
855.9272, 14.00216
856.4093, 15.16830
856.8914, 16.39249
857.3735, 17.59900
857.8557, 18.77828
858.3378, 20.11045
858.8199, 21.65243
859.3020, 23.37409
859.7841, 25.19899
860.2662, 27.16603
860.7484, 29.32023
861.2305, 31.70380
861.7126, 34.23264
862.1947, 36.87741
862.6768, 39.63804
863.1589, 42.45984
863.6411, 45.37925
864.1232, 48.39960
864.6053, 51.65026
865.0874, 54.68808
865.5695, 57.01756
866.0516, 58.67138
866.5338, 59.78984
867.0159, 60.41007
867.4980, 60.51581
867.9801, 60.12727
868.4622, 59.20013
868.9443, 57.67385
869.4265, 55.36535
869.9086, 52.77383
870.3907, 49.86398
870.8728, 46.75230
871.3549, 43.44189
871.8370, 39.96298
872.3192, 36.92104
872.8013, 34.30785
873.2834, 31.84165
873.7655, 29.21485
874.2476, 26.65934
874.7297, 24.41527
875.2119, 22.48945
875.6940, 20.74878
876.1761, 19.32202
876.6582, 17.92574
877.1403, 16.40059
877.6224, 14.77552
878.1046, 13.50008
878.5867, 12.59250
879.0688, 11.77658
879.5509, 10.89717
880.0330, 10.02600
880.5151, 9.278986
880.9973, 8.637303
881.4794, 8.028024
881.9615, 7.441207
882.4436, 6.859046
882.9257, 6.245912
883.4078, 5.638087
883.8900, 5.112529
884.3721, 4.674548
884.8542, 4.304772
885.3363, 4.020429
885.8184, 3.764354
886.3005, 3.418452
886.7827, 3.024181
887.2648, 2.681950
887.7469, 2.419388
888.2290, 2.228622
888.7111, 2.188899
889.1932, 2.188023
889.6754, 2.051715
890.1575, 1.689681
890.6396, 1.434376
891.1217, 1.331933
891.6038, 1.297025
892.0859, 1.219567
892.5681, 1.121667
893.0502, 1.089974
893.5323, 1.152068
894.0144, 1.177303
894.4965, 1.059089
894.9786, 0.8750310
895.4608, 0.6767140
895.9429, 0.4508940
896.4250, 0.2966790
896.9071, 0.2319350
897.3892, 0.2050290
897.8713, 0.1969480
898.3535, 0.2003720
898.8356, 0.1683400
899.3177, 0.1021140
899.7998, 2.5450001E-02
900.2819, 7.4449003E-02
900.7640, 0.1553040
901.2462, 0.1742180
901.7283, 0.1364030
902.2104, 0.1071120
902.6925, 7.4666999E-02
903.1746, 8.9399002E-02
903.6567, 0.2021220
904.1389, 0.3526160
904.6210, 0.2988990
905.1031, 7.0546001E-02
905.5852, 6.4741001E-02
906.0673, 6.0456000E-02
906.5494, 0.2430140
907.0316, 0.3187920
907.5137, 0.3172660
907.9958, 0.2905950
908.4779, 0.2088650
908.9600, 0.1637200
909.4421, 0.1812060
909.9243, 0.2185050
910.4064, 0.2267280
910.8885, 0.2048650
911.3706, 0.1212800
911.8527, 4.0183000E-02
912.3348, 0.1895960
912.8170, 0.2205880
913.2991, 0.2019330
913.7812, 0.2073680
914.2633, 0.2490850
914.7454, 0.3178370
915.2275, 0.4323620
915.7097, 0.5484930
916.1918, 0.6378940
916.6739, 0.7012010
917.1560, 0.7789660
917.6381, 0.8705190
918.1202, 0.9690550
918.6024, 1.068373
919.0845, 1.172846
919.5666, 1.296109
920.0487, 1.431586
920.5308, 1.548997
921.0129, 1.633480
921.4951, 1.700860
921.9772, 1.727239
922.4593, 1.751742
922.9414, 1.933977
923.4235, 2.267822
923.9056, 2.496723
924.3878, 2.467785
924.8699, 2.437059
925.3520, 2.764179
925.8341, 3.269374
926.3162, 3.671417
926.7983, 3.818987
927.2805, 3.961892
927.7626, 4.082674
928.2447, 4.260413
928.7268, 4.613184
929.2089, 5.141482
929.6910, 5.550602
930.1732, 5.807504
930.6553, 6.052331
931.1374, 6.398166
931.6195, 6.808615
932.1016, 7.257082
932.5837, 7.733565
933.0659, 8.229920
933.5480, 8.714375
934.0301, 9.248644
934.5122, 9.848642
934.9943, 10.51807
935.4764, 11.22987
935.9586, 11.99464
936.4407, 12.86555
936.9228, 13.94037
937.4049, 15.09168
937.8870, 16.13792
938.3691, 17.16780
938.8513, 18.35872
939.3334, 19.74723
939.8155, 21.36200
940.2976, 23.20113
940.7797, 25.23978
941.2618, 27.37997
941.7440, 29.63139
942.2261, 32.07695
942.7082, 34.72718
943.1903, 37.74142
943.6724, 41.26970
944.1545, 45.19877
944.6367, 49.42982
945.1188, 53.89029
945.6009, 58.79821
946.0830, 63.92296
946.5651, 69.79903
947.0472, 76.78562
947.5294, 84.88757
948.0115, 93.51007
948.4936, 102.6410
948.9757, 111.7961
949.4578, 120.9686
949.9399, 129.7810
950.4221, 138.6552
950.9042, 147.0685
951.3863, 152.8249
951.8684, 156.0480
952.3505, 156.4048
952.8326, 153.6225
953.3148, 148.2532
953.7969, 140.6766
954.2790, 131.2948
954.7611, 121.6655
955.2432, 112.0772
955.7253, 102.9986
956.2075, 94.36704
956.6896, 86.67446
957.1717, 80.37566
957.6538, 75.59547
958.1359, 71.85768
958.6180, 69.20929
959.1002, 67.47102
959.5823, 66.69393
960.0644, 66.68627
960.5465, 67.06229
961.0286, 67.75107
961.5107, 68.29640
961.9929, 68.42513
962.4750, 68.37188
962.9571, 68.11981
963.4392, 67.77927
963.9213, 67.68306
964.4034, 67.77023
964.8856, 68.32626
965.3677, 69.42717
965.8498, 71.04031
966.3319, 72.86908
966.8140, 75.22241
967.2961, 78.66361
967.7783, 83.32172
968.2604, 89.22047
968.7425, 96.53715
969.2246, 105.0898
969.7067, 114.8188
970.1888, 125.5529
970.6710, 137.6305
971.1531, 151.0231
971.6352, 165.1153
972.1173, 180.3771
972.5994, 195.2466
973.0815, 209.0555
973.5637, 221.0921
974.0458, 228.2545
974.5279, 229.5363
975.0100, 225.3242
975.4921, 215.1601
975.9742, 200.1415
976.4564, 181.8496
976.9385, 160.3691
977.4206, 139.7241
977.9027, 120.8441
978.3848, 104.1242
978.8669, 89.99813
979.3491, 78.11488
979.8312, 68.02024
980.3133, 59.87017
980.7954, 53.18661
981.2775, 48.12002
981.7596, 44.01601
982.2418, 40.47651
982.7239, 37.45890
983.2060, 34.78441
983.6881, 32.43969
984.1702, 30.32863
984.6523, 28.52047
985.1345, 26.80358
985.6166, 24.99721
986.0987, 23.16494
986.5808, 21.53466
987.0629, 20.16808
987.5450, 18.81154
988.0272, 17.41117
988.5093, 16.00892
988.9914, 14.62650
989.4735, 13.31466
989.9556, 12.20920
990.4377, 11.37463
990.9199, 10.59481
991.4020, 9.766758
991.8841, 8.979150
992.3662, 8.300529
992.8483, 7.746537
993.3304, 7.110241
993.8126, 6.383791
994.2947, 5.709598
994.7768, 5.196999
995.2589, 4.771533
995.7410, 4.330810
996.2231, 3.897591
996.7053, 3.525749
997.1874, 3.294479
997.6695, 3.049589
998.1516, 2.770116
998.6337, 2.468810
999.1158, 2.121601
999.5980, 1.748276
1000.080, 1.536244
1000.562, 1.526237
1001.044, 1.519329
1001.526, 1.329584
1002.009, 1.099916
1002.491, 0.9595620
1002.973, 0.9288040
1003.455, 0.8626450
1003.937, 0.7560260
1004.419, 0.6281460
1004.901, 0.4677540
1005.383, 0.3078980
1005.865, 0.2358100
1006.348, 0.2233430
1006.830, 0.1871770
1007.312, 2.4362000E-02
1007.794, 8.3613001E-02
1008.276, 3.3789999E-03
1008.758, 0.1085250
1009.240, 6.7266002E-02
1009.722, 0.1488000
1010.205, 0.2919880
1010.687, 0.3453100
1011.169, 0.3571970
1011.651, 0.3546690
1012.133, 0.3461210
1012.615, 0.3568110
1013.097, 0.3841350
1013.579, 0.3431520
1014.061, 0.1763100
1014.544, 1.9250000E-03
1015.026, 0.1764130
1015.508, 0.3311870
1015.990, 0.3936500
1016.472, 0.3827050
1016.954, 0.3631320
1017.436, 0.3329730
1017.918, 0.3678760
1018.401, 0.5351010
1018.883, 0.7720230
1019.365, 1.028980
1019.847, 1.323535
1020.329, 1.535170
1020.811, 1.652122
1021.293, 1.758469
1021.775, 1.928376
1022.257, 2.111931
1022.740, 2.251959
1023.222, 2.344750
1023.704, 2.365683
1024.186, 2.180381
1024.668, 2.091767
1025.150, 2.194151
1025.632, 2.383703
1026.114, 2.501479
1026.596, 2.548781
1027.079, 2.522188
1027.561, 2.402956
1028.043, 2.361024
1028.525, 2.592886
1029.007, 2.926698
1029.489, 3.213464
1029.971, 3.429951
1030.453, 3.702450
1030.936, 4.029363
1031.418, 4.429778
1031.900, 4.894394
1032.382, 5.462477
1032.864, 6.212178
1033.346, 7.125968
1033.828, 8.155046
1034.310, 9.332380
1034.792, 10.51052
1035.275, 11.50120
1035.757, 12.61324
1036.239, 14.12807
1036.721, 16.03514
1037.203, 18.23428
1037.685, 20.68848
1038.167, 23.50901
1038.649, 26.59728
1039.132, 30.22960
1039.614, 34.58303
1040.096, 39.71481
1040.578, 45.78567
1041.060, 52.85175
1041.542, 60.83002
1042.024, 69.95601
1042.506, 79.69855
1042.989, 90.51445
1043.471, 101.1999
1043.953, 109.6618
1044.435, 115.8464
1044.917, 118.1891
1045.399, 115.3088
1045.881, 108.9923
1046.363, 99.49464
1046.845, 87.26271
1047.328, 75.48061
1047.810, 64.06951
1048.292, 54.03276
1048.774, 45.91864
1049.256, 39.05181
1049.738, 32.88732
1050.220, 27.54207
1050.702, 23.24980
1051.184, 20.24723
1051.667, 17.58757
1052.149, 15.23511
1052.631, 13.26803
1053.113, 11.83353
1053.595, 10.75074
1054.077, 9.689355
1054.559, 8.634286
1055.041, 7.608263
1055.523, 6.481940
1056.006, 5.573922
1056.488, 5.011712
1056.970, 4.656209
1057.452, 4.223294
1057.934, 3.728079
1058.416, 3.315382
1058.898, 3.019344
1059.380, 2.764028
1059.863, 2.524216
1060.345, 2.280200
1060.827, 1.991641
1061.309, 1.653400
1061.791, 1.455870
1062.273, 1.430994
1062.755, 1.394178
1063.237, 1.257990
1063.719, 1.075880
1064.202, 0.9047950
1064.684, 0.7536360
1065.166, 0.6412730
1065.648, 0.6132140
1066.130, 0.5520680
1066.612, 0.4175880
1067.094, 0.2860890
1067.576, 0.2233940
1068.059, 0.2145180
1068.541, 0.1933570
1069.023, 0.1611670
1069.505, 0.1258900
1069.987, 4.2862002E-02
1070.469, 9.7859995E-03
1070.951, 0.1665950
1071.433, 0.3811920
1071.916, 0.3721190
1072.398, 9.8215997E-02
1072.880, 3.4511998E-02
1073.362, 4.8333000E-02
1073.844, 0.1546870
1074.326, 6.3236997E-02
1074.808, 8.8680997E-02
1075.290, 0.1531100
1075.772, 0.1152030
1076.255, 8.0389000E-02
1076.737, 5.2315999E-02
1077.219, 3.8268998E-02
1077.701, 4.1402999E-02
1078.183, 5.8724001E-02
1078.665, 0.1107120
1079.147, 0.1684960
1079.629, 0.1501320
1080.111, 1.1757000E-02
1080.594, 0.1120240
1081.076, 2.1371000E-02
1081.558, 9.8967001E-02
1082.040, 0.1626580
1082.522, 0.1737610
1083.004, 0.1637530
1083.486, 0.1338240
1083.968, 9.4210997E-02
1084.450, 4.5685001E-02
1084.933, 5.4660002E-03
1085.415, 8.3664000E-02
1085.897, 0.1488700
1086.379, 0.1274730
1086.861, 2.6868001E-02
1087.343, 6.7929998E-02
1087.825, 3.0079000E-02
1088.307, 0.1428820
1088.790, 0.1594030
1089.272, 0.1303630
1089.754, 0.1239400
1090.236, 0.1323700
1090.718, 9.1127001E-02
1091.200, 8.8339001E-02
1091.682, 0.1735760
1092.164, 0.1071160
1092.646, 3.7198000E-02
1093.129, 0.1796300
1093.611, 0.3032530
1094.093, 0.3580290
1094.575, 0.3324100
1095.057, 0.3092080
1095.539, 0.3701450
1096.021, 0.3864510
1096.503, 0.2693460
1096.986, 7.7081002E-02
1097.468, 5.1084001E-02
1097.950, 0.1711560
1098.432, 0.2632290
1098.914, 0.2620500
1099.396, 0.2464730
1099.878, 0.2675170
1100.360, 0.3071560
1100.843, 0.3527200
1101.325, 0.4074340
1101.807, 0.4111460
1102.289, 0.3559950
1102.771, 0.3355110
1103.253, 0.4409100
1103.735, 0.5711930
1104.217, 0.5842450
1104.699, 0.5392010
1105.182, 0.5502440
1105.664, 0.7024960
1106.146, 0.7931860
1106.628, 0.8028090
1107.110, 0.7838240
1107.592, 0.7884070
1108.074, 0.7969900
1108.556, 0.7420570
1109.038, 0.6423620
1109.521, 0.6032330
1110.003, 0.7559490
1110.485, 0.8476290
1110.967, 0.7979850
1111.449, 0.6984070
1111.931, 0.6912190
1112.413, 0.7575900
1112.895, 0.8096830
1113.377, 0.8362950
1113.860, 0.8621490
1114.342, 0.9217690
1114.824, 0.9644100
1115.306, 0.9524330
1115.788, 0.9043430
1116.270, 0.8775890
1116.752, 0.8717410
1117.234, 0.8736000
1117.717, 0.8785190
1118.199, 0.8997760
1118.681, 0.9610830
1119.163, 1.030319
1119.645, 1.084826
1120.127, 1.124277
1120.609, 1.108534
1121.091, 1.024565
1121.573, 0.9724300
1122.056, 1.010399
1122.538, 1.075714
1123.020, 1.092755
1123.502, 1.080267
1123.984, 1.069789
1124.466, 1.087378
1124.948, 1.046709
1125.430, 0.9152740
1125.913, 0.8079810
1126.395, 0.8014500
1126.877, 0.8729860
1127.359, 1.018242
1127.841, 1.196051
1128.323, 1.296701
1128.805, 1.204384
1129.287, 1.151362
1129.770, 1.197881
1130.252, 1.247399
1130.734, 1.170940
1131.216, 1.022264
1131.698, 0.9830240
1132.180, 1.044785
1132.662, 1.116317
1133.144, 1.206677
1133.626, 1.247333
1134.109, 1.188076
1134.591, 1.087036
1135.073, 1.025507
1135.555, 1.001426
1136.037, 0.9888740
1136.519, 0.9838290
1137.001, 0.9520880
1137.483, 0.8186210
1137.965, 0.7179470
1138.448, 0.7601080
1138.930, 0.8839800
1139.412, 0.9158290
1139.894, 0.8551280
1140.376, 0.8017380
1140.858, 0.7786770
1141.340, 0.7543660
1141.822, 0.6844930
1142.304, 0.6142520
1142.787, 0.5954200
1143.269, 0.6302620
1143.751, 0.6226800
1144.233, 0.5618430
1144.715, 0.4897050
1145.197, 0.4152190
1145.679, 0.3819060
1146.161, 0.4856990
1146.644, 0.6277610
1147.126, 0.6741130
1147.608, 0.5672060
1148.090, 0.5030470
1148.572, 0.4996450
1149.054, 0.4752110
1149.536, 0.3804710
1150.018, 0.2783160
1150.500, 0.2886820
1150.983, 0.3574520
1151.465, 0.3812610
1151.947, 0.2981120
1152.429, 0.2345690
1152.911, 0.1996820
1153.393, 0.1862430
1153.875, 0.1900880
1154.357, 0.2080400
1154.840, 0.2442330
1155.322, 0.2924710
1155.804, 0.3259990
1156.286, 0.3396190
1156.768, 0.3162480
1157.250, 0.2300060
1157.732, 0.1468340
1158.214, 0.1356040
1158.697, 0.1792270
1159.179, 0.2070990
1159.661, 0.2200880
1160.143, 0.2363720
1160.625, 0.2656560
1161.107, 0.3036970
1161.589, 0.3824400
1162.071, 0.4346970
1162.553, 0.3288300
1163.036, 0.1019450
1163.518, 3.8214002E-02
1164.000, 0.1478420
1164.482, 0.2549030
1164.964, 0.2558700
1165.446, 0.2249450
1165.928, 0.1837600
1166.410, 0.1424770
1166.892, 0.1167100
1167.375, 0.1060690
1167.857, 0.1272410
1168.339, 0.1851280
1168.821, 0.2116110
1169.303, 0.1070390
1169.785, 3.2190001E-03
1170.267, 6.2050000E-03
1170.749, 5.1387001E-02
1171.231, 0.1085130
1171.714, 0.1652060
1172.196, 0.2048300
1172.678, 0.2233950
1173.160, 0.2260640
1173.642, 0.2261150
1174.124, 0.2045850
1174.606, 0.1228880
1175.088, 1.3590000E-03
1175.571, 6.1138999E-02
1176.053, 5.4891001E-02
1176.535, 2.1844000E-02
1177.017, 3.0978000E-02
1177.499, 9.3571000E-02
1177.981, 0.1803910
1178.463, 0.2553730
1178.945, 0.2778560
1179.427, 0.2469390
1179.910, 0.2054310
1180.392, 0.1504370
1180.874, 0.1110870
1181.356, 0.1012800
1181.838, 0.1042370
1182.320, 0.1082730
1182.802, 0.1113310
1183.284, 0.1078290
1183.767, 9.4389997E-02
1184.249, 0.1049380
1184.731, 0.1434610
1185.213, 0.1782540
1185.695, 0.1999500
1186.177, 0.2019580
1186.659, 0.1625340
1187.141, 0.1043870
1187.624, 6.0236000E-02
1188.106, 3.5298001E-02
1188.588, 1.9179000E-02
1189.070, 1.1228000E-02
1189.552, 1.8478001E-02
1190.034, 6.7045003E-02
1190.516, 0.1086020
1190.998, 5.4574002E-02
1191.480, 4.0098000E-02
1191.963, 7.8955002E-02
1192.445, 2.3474000E-02
1192.927, 2.7809000E-02
1193.409, 7.3665999E-02
1193.891, 0.1217010
1194.373, 0.1970210
1194.855, 0.2631640
1195.337, 0.2693950
1195.819, 0.2293950
1196.302, 0.1706670
1196.784, 7.7459998E-02
1197.266, 8.8470001E-03
1197.748, 3.8570002E-02
1198.230, 4.1940998E-02
1198.712, 6.7188002E-02
1199.194, 0.1958150
1199.676, 0.2067370
1200.158, 0.1326840
1200.641, 6.3570999E-02
1201.123, 1.7750000E-03
1201.605, 2.1056000E-02
1202.087, 3.1389999E-03
1202.569, 4.0904999E-02
1203.051, 6.8726003E-02
1203.533, 8.6608000E-02
1204.015, 9.5276996E-02
1204.498, 9.4283000E-02
1204.980, 8.1678003E-02
1205.462, 4.5361001E-02
1205.944, 2.8368000E-02
1206.426, 3.7307002E-02
1206.908, 5.3700998E-02
1207.390, 4.7449999E-02
1207.872, 4.5145001E-02
1208.354, 0.1087830
1208.837, 0.2152060
1209.319, 0.2430440
1209.801, 0.1443140
1210.283, 6.1576001E-02
1210.765, 9.6260002E-03
1211.247, 1.7448001E-02
1211.729, 2.8852001E-02
1212.211, 1.8333999E-02
1212.694, 4.2043000E-02
1213.176, 0.1391990
1213.658, 0.1876950
1214.140, 0.1713030
1214.622, 0.1323530
1215.104, 6.7287996E-02
1215.586, 2.0541999E-02
1216.068, 7.4047998E-02
1216.551, 0.1521440
1217.033, 0.1489650
1217.515, 7.2515003E-02
1217.997, 3.7946001E-02
1218.479, 6.3156001E-02
1218.961, 9.6887000E-02
1219.443, 0.1352460
1219.925, 0.1558810
1220.407, 0.1045980
1220.890, 4.1520000E-02
1221.372, 5.0648000E-02
1221.854, 0.1359040
1222.336, 0.1765520
1222.818, 0.1661440
1223.300, 0.1367460
1223.782, 8.6140998E-02
1224.264, 5.4682001E-02
1224.746, 0.1219170
1225.229, 0.2067170
1225.711, 0.2185750
1226.193, 0.1563320
1226.675, 0.1069670
1227.157, 7.0964001E-02
1227.639, 4.3745000E-02
1228.121, 2.5086001E-02
1228.603, 1.8467000E-02
1229.085, 2.9583000E-02
1229.568, 5.0981998E-02
1230.050, 7.5763002E-02
1230.532, 0.1039120
1231.014, 0.1446650
1231.496, 0.2033390
1231.978, 0.2223810
1232.460, 0.1787050
1232.942, 0.1399720
1233.425, 0.1989840
1233.907, 0.2715950
1234.389, 0.2748810
1234.871, 0.2181870
1235.353, 0.1727550
1235.835, 0.1383340
1236.317, 0.1353090
1236.799, 0.1762720
1237.281, 0.2063810
1237.764, 0.1623850
1238.246, 0.1030140
1238.728, 7.2039001E-02
1239.210, 6.7106999E-02
1239.692, 9.0359002E-02
1240.174, 0.1391400
1240.656, 0.1441910
1241.138, 8.0457002E-02
1241.621, 2.2169000E-02
1242.103, 2.7691999E-02
1242.585, 5.7071000E-02
1243.067, 9.2106998E-02
1243.549, 0.1265640
1244.031, 0.1342570
1244.513, 0.1189690
1244.995, 0.1163870
1245.478, 0.1376250
1245.960, 0.1445320
1246.442, 8.1210002E-02
1246.924, 3.2985002E-02
1247.406, 5.4175001E-02
1247.888, 0.1250140
1248.370, 0.1619220
1248.852, 0.1719520
1249.334, 0.1911910
1249.817, 0.2306550
1250.299, 0.2473040
1250.781, 0.2044470
1251.263, 0.1649240
1251.745, 0.1575100
1252.227, 0.1656710
1252.709, 0.1456620
1253.191, 0.1074430
1253.673, 8.0209002E-02
1254.156, 6.8779998E-02
1254.638, 7.5015999E-02
1255.120, 0.1225080
1255.602, 0.1525200
1256.084, 0.1400510
1256.566, 0.1022300
1257.048, 6.3024998E-02
1257.530, 3.3257000E-02
1258.012, 3.9055001E-02
1258.495, 8.8055000E-02
1258.977, 0.1058880
1259.459, 6.6933997E-02
1259.941, 3.7345000E-02
1260.423, 3.6593001E-02
1260.905, 5.8667999E-02
1261.387, 0.1093540
1261.869, 0.1642890
1262.352, 0.1912430
1262.834, 0.1824770
1263.316, 0.1566820
1263.798, 0.1051700
1264.280, 8.3318003E-02
1264.762, 0.1106970
1265.244, 0.1608500
1265.726, 0.2333010
1266.208, 0.2913170
1266.691, 0.2767410
1267.173, 0.1868700
1267.655, 0.1465800
1268.137, 0.1613090
1268.619, 0.1849990
1269.101, 0.2125340
1269.583, 0.2138820
1270.065, 0.1105540
1270.548, 8.1380000E-03
1271.030, 2.8041000E-02
1271.512, 0.1374580
1271.994, 0.1916560
1272.476, 0.1916920
1272.958, 0.1613400
1273.440, 9.9904999E-02
1273.922, 4.6236001E-02
1274.405, 3.6708001E-02
1274.887, 3.4515001E-02
1275.369, 1.4845000E-02
1275.851, 1.1599000E-02
1276.333, 1.8745000E-02
1276.815, 3.7250000E-03
1277.297, 7.7610999E-02
1277.779, 0.2425020
1278.261, 0.3167290
1278.744, 6.1732002E-02
1279.226, 0.1106770
1279.708, 1.4963000E-02
1280.190, 0.1968790
1280.672, 0.2304040
1281.154, 0.1458000
1281.636, 9.7333997E-02
1282.118, 0.1067610
1282.600, 0.1357280
1283.083, 0.2155450
1283.565, 0.2310910
1284.047, 0.1329630
1284.529, 1.5461000E-02
1285.011, 2.9734001E-02
1285.493, 0.1047480
1285.975, 0.1330820
1286.457, 0.1060530
1286.939, 7.6095000E-02
1287.422, 4.0601999E-02
1287.904, 3.5484999E-02
1288.386, 7.2774999E-02
1288.868, 0.1137310
1289.350, 0.1041720
1289.832, 8.8014998E-02
1290.314, 9.9569999E-02
1290.796, 9.3787998E-02
1291.279, 8.7277003E-02
1291.761, 5.2715000E-02
1292.243, 3.3472002E-02
1292.725, 3.6456998E-02
1293.207, 5.1286999E-02
1293.689, 7.8605004E-02
1294.171, 0.1055090
1294.653, 0.1009720
1295.135, 8.8032998E-02
1295.618, 0.1315380
1296.100, 0.2202030
1296.582, 0.2531480
1297.064, 0.2245460
1297.546, 0.1872190
1298.028, 0.1900420
1298.510, 0.1684210
1298.992, 8.3769001E-02
1299.475, 2.2110001E-03
1299.957, 7.8819999E-03
1300.439, 7.8929998E-02
1300.921, 8.6116001E-02
1301.403, 4.7295999E-02
1301.885, 0.0000000E+00
##END=



