##NAMES=Aegirine
##RRUFFID=R120167
##IDEAL CHEMISTRY=NaFe^3+^Si_2_O_6_
##LOCALITY=Locotal metaevaporite breccia, Alto Chapare, Cochabamba Dept, Bolivia
##OWNER=RRUFF
##SOURCE=Rock Currier
##DESCRIPTION=Mass of dark green crystals
##STATUS=The identification of this mineral has been confirmed only by single crystal X-ray diffraction.
##URL=rruff.info/R120167
112.4127, 0.0000000E+00
112.8948, 0.5159150
113.3769, 0.9417570
113.8591, 1.075836
114.3412, 0.4452820
114.8233, 0.1109470
115.3054, 0.4053800
115.7875, 0.8960420
116.2696, 1.028030
116.7517, 0.8202820
117.2339, 0.4100040
117.7160, 0.1253200
118.1981, 0.1026460
118.6802, 0.1683810
119.1623, 1.1459000E-02
119.6444, 0.3894960
120.1266, 0.8131100
120.6087, 1.182922
121.0908, 1.627747
121.5729, 2.355209
122.0550, 3.455780
122.5371, 4.651169
123.0193, 5.696609
123.5014, 6.572830
123.9835, 7.388138
124.4656, 7.961777
124.9477, 8.589691
125.4298, 9.601318
125.9120, 11.18602
126.3941, 13.20758
126.8762, 15.14638
127.3583, 16.56798
127.8404, 18.69617
128.3225, 21.74063
128.8047, 25.80009
129.2868, 30.52676
129.7689, 35.95934
130.2510, 42.23346
130.7331, 49.19460
131.2152, 57.86067
131.6974, 65.46751
132.1795, 72.39182
132.6616, 77.69441
133.1437, 79.90733
133.6258, 77.68785
134.1079, 70.42581
134.5901, 62.20036
135.0722, 51.79831
135.5543, 41.61583
136.0364, 32.86885
136.5185, 25.73132
137.0006, 19.89972
137.4828, 15.23795
137.9649, 11.91440
138.4470, 9.258102
138.9291, 7.483414
139.4112, 6.253235
139.8933, 5.206802
140.3755, 4.283737
140.8576, 3.503006
141.3397, 2.953918
141.8218, 2.616760
142.3039, 2.304031
142.7860, 1.965317
143.2681, 1.596588
143.7503, 1.150818
144.2324, 0.4777980
144.7145, 0.1000670
145.1966, 0.2837830
145.6787, 7.0373997E-02
146.1608, 0.2404790
146.6430, 0.4323120
147.1251, 0.5027770
147.6072, 0.4376220
148.0893, 8.4930003E-02
148.5714, 0.5465240
149.0535, 0.5766300
149.5357, 0.1161800
150.0178, 0.5008700
150.4999, 0.7359310
150.9820, 0.2855070
151.4641, 0.1218720
151.9462, 0.3131870
152.4284, 0.7705540
152.9105, 1.486008
153.3926, 2.444489
153.8747, 3.548325
154.3568, 4.550903
154.8389, 5.238907
155.3211, 6.080246
155.8032, 6.781479
156.2853, 7.732437
156.7674, 9.471603
157.2495, 12.29639
157.7316, 15.95879
158.2138, 19.43526
158.6959, 23.21835
159.1780, 26.32544
159.6601, 28.76138
160.1422, 30.35403
160.6243, 30.62923
161.1065, 29.15549
161.5886, 26.16647
162.0707, 23.11195
162.5528, 19.56096
163.0349, 16.35265
163.5170, 13.92004
163.9991, 12.24576
164.4813, 11.26250
164.9634, 11.17802
165.4455, 11.76033
165.9276, 12.37747
166.4097, 12.79578
166.8918, 13.36110
167.3740, 14.41139
167.8561, 15.93484
168.3382, 17.99770
168.8203, 20.64326
169.3024, 23.83791
169.7845, 27.66338
170.2667, 32.11429
170.7488, 37.27449
171.2309, 43.49989
171.7130, 50.72327
172.1951, 59.31404
172.6772, 68.81447
173.1594, 79.62257
173.6415, 92.33354
174.1236, 107.1190
174.6057, 124.0679
175.0878, 143.4525
175.5699, 163.4476
176.0521, 188.6927
176.5342, 221.2944
177.0163, 259.7649
177.4984, 302.9101
177.9805, 352.3609
178.4626, 408.3863
178.9448, 441.2350
179.4269, 449.0195
179.9090, 436.0027
180.3911, 391.5583
180.8732, 324.9168
181.3553, 255.9435
181.8375, 200.6046
182.3196, 159.4129
182.8017, 130.2763
183.2838, 115.1577
183.7659, 107.1113
184.2480, 103.9160
184.7301, 105.0001
185.2123, 110.0007
185.6944, 118.6756
186.1765, 131.5216
186.6586, 147.1502
187.1407, 164.2809
187.6228, 184.7713
188.1050, 210.6292
188.5871, 241.8445
189.0692, 276.3153
189.5513, 314.3725
190.0334, 355.4281
190.5155, 389.1972
190.9977, 420.5137
191.4798, 441.1057
191.9619, 439.7544
192.4440, 413.4626
192.9261, 374.0629
193.4082, 325.4081
193.8904, 270.7693
194.3725, 221.3138
194.8546, 179.6738
195.3367, 145.4598
195.8188, 118.3480
196.3009, 99.58842
196.7831, 85.59601
197.2652, 74.18054
197.7473, 64.93216
198.2294, 57.41991
198.7115, 51.69489
199.1936, 47.55193
199.6758, 44.19594
200.1579, 41.69232
200.6400, 39.96945
201.1221, 38.81839
201.6042, 38.27512
202.0863, 38.45048
202.5685, 39.49280
203.0506, 41.38292
203.5327, 43.66582
204.0148, 46.00279
204.4969, 49.18268
204.9790, 53.29234
205.4612, 58.40528
205.9433, 64.62719
206.4254, 71.92136
206.9075, 80.27641
207.3896, 90.52334
207.8717, 102.4695
208.3539, 116.6448
208.8360, 133.7434
209.3181, 153.3511
209.8002, 174.7162
210.2823, 197.7921
210.7644, 223.1466
211.2466, 243.7792
211.7287, 263.6538
212.2108, 275.8264
212.6929, 276.8124
213.1750, 267.2760
213.6571, 249.6959
214.1393, 225.4761
214.6214, 193.1503
215.1035, 164.2019
215.5856, 138.0793
216.0677, 114.8245
216.5498, 94.31780
217.0320, 76.63367
217.5141, 61.78107
217.9962, 50.01612
218.4783, 41.70447
218.9604, 34.86778
219.4425, 29.86430
219.9247, 25.80125
220.4068, 22.27751
220.8889, 19.22002
221.3710, 16.57527
221.8531, 14.32441
222.3352, 12.52011
222.8174, 10.94441
223.2995, 9.715500
223.7816, 8.621300
224.2637, 7.467117
224.7458, 6.250755
225.2279, 5.197113
225.7100, 4.567787
226.1922, 4.310120
226.6743, 3.896584
227.1564, 3.136902
227.6385, 2.308495
228.1206, 1.656227
228.6027, 1.194069
229.0849, 0.8522570
229.5670, 0.6623310
230.0491, 0.5600130
230.5312, 0.3633960
231.0133, 1.0600000E-03
231.4954, 0.4478450
231.9776, 0.9569320
232.4597, 1.564774
232.9418, 1.974464
233.4239, 1.706764
233.9060, 1.166107
234.3881, 0.9948350
234.8703, 1.529572
235.3524, 2.354576
235.8345, 2.999023
236.3166, 3.512566
236.7987, 3.643913
237.2808, 2.889122
237.7630, 1.792686
238.2451, 0.9234240
238.7272, 0.4595950
239.2093, 0.2911220
239.6914, 0.2966540
240.1735, 0.5377660
240.6557, 0.7537380
241.1378, 0.8322530
241.6199, 0.8392640
242.1020, 0.8443220
242.5841, 0.8845210
243.0662, 0.8465420
243.5484, 0.4902880
244.0305, 0.3348390
244.5126, 0.9921420
244.9947, 1.251831
245.4768, 1.301788
245.9589, 1.238914
246.4410, 1.089485
246.9232, 0.9825820
247.4053, 1.176590
247.8874, 1.861122
248.3695, 2.389412
248.8516, 2.519592
249.3337, 2.543274
249.8159, 2.686890
250.2980, 3.018562
250.7801, 3.434090
251.2622, 3.728806
251.7443, 3.731323
252.2264, 4.014526
252.7086, 4.838966
253.1907, 5.776840
253.6728, 6.474380
254.1549, 6.863182
254.6370, 7.206558
255.1191, 7.925659
255.6013, 9.190781
256.0834, 10.48460
256.5655, 11.58862
257.0476, 12.85018
257.5297, 14.54381
258.0118, 16.69492
258.4940, 19.09914
258.9761, 21.44372
259.4582, 23.48619
259.9403, 26.14121
260.4224, 30.00972
260.9045, 33.92295
261.3867, 37.07127
261.8688, 39.43608
262.3509, 41.58885
262.8330, 44.26585
263.3151, 47.82967
263.7972, 50.53761
264.2794, 52.02638
264.7615, 53.14326
265.2436, 54.14320
265.7257, 55.15254
266.2078, 56.29688
266.6899, 57.61008
267.1721, 58.92836
267.6542, 61.67256
268.1363, 66.45332
268.6184, 71.77420
269.1005, 76.80753
269.5826, 81.66135
270.0648, 86.99686
270.5469, 93.41904
271.0290, 100.9285
271.5111, 108.3688
271.9932, 115.9141
272.4753, 123.2260
272.9575, 130.5614
273.4396, 137.5905
273.9217, 143.5691
274.4038, 148.0786
274.8859, 151.0872
275.3680, 151.8723
275.8501, 150.5739
276.3322, 147.5594
276.8144, 142.6022
277.2965, 136.0017
277.7786, 128.3365
278.2607, 119.8533
278.7428, 110.6487
279.2249, 100.9673
279.7071, 89.80861
280.1892, 79.39236
280.6713, 70.33611
281.1534, 62.38161
281.6355, 55.06061
282.1176, 48.17000
282.5998, 41.80824
283.0819, 36.47058
283.5640, 32.25574
284.0461, 28.60544
284.5282, 25.36469
285.0103, 22.62820
285.4925, 20.60553
285.9746, 19.39563
286.4567, 18.73082
286.9388, 18.18660
287.4209, 17.71675
287.9030, 17.52496
288.3852, 17.62747
288.8673, 18.01654
289.3494, 18.69673
289.8315, 19.66769
290.3136, 20.91081
290.7957, 22.66014
291.2779, 25.11447
291.7600, 26.73036
292.2421, 27.01892
292.7242, 26.50682
293.2063, 25.72249
293.6884, 24.74545
294.1706, 23.34706
294.6527, 21.25310
295.1348, 18.48340
295.6169, 15.76019
296.0990, 13.02473
296.5811, 10.35291
297.0633, 7.702347
297.5454, 5.102661
298.0275, 2.794937
298.5096, 1.003677
298.9917, 0.2868040
299.4738, 1.507904
299.9560, 2.907639
300.4381, 4.017273
300.9202, 4.530426
301.4023, 4.479752
301.8844, 4.085007
302.3665, 3.455688
302.8487, 2.617569
303.3308, 1.632935
303.8129, 0.5293730
304.2950, 0.7348480
304.7771, 2.210037
305.2592, 3.873993
305.7414, 5.678513
306.2235, 7.647385
306.7056, 9.658661
307.1877, 11.47768
307.6698, 13.13393
308.1519, 14.59894
308.6341, 15.92090
309.1162, 17.03236
309.5983, 17.87030
310.0804, 18.46306
310.5625, 18.57332
311.0446, 17.69386
311.5268, 15.82422
312.0089, 13.87645
312.4910, 11.84868
312.9731, 9.917297
313.4552, 8.262543
313.9373, 6.914642
314.4195, 5.836395
314.9016, 5.000290
315.3837, 4.420792
315.8658, 4.115250
316.3479, 4.182831
316.8300, 4.457291
317.3121, 4.699341
317.7943, 4.936737
318.2764, 5.573196
318.7585, 6.936203
319.2406, 8.953110
319.7227, 11.04843
320.2048, 13.13733
320.6870, 15.39391
321.1691, 17.92403
321.6512, 20.69972
322.1333, 23.66394
322.6154, 26.76346
323.0975, 30.05273
323.5797, 33.51231
324.0618, 36.83453
324.5439, 40.90352
325.0260, 46.33963
325.5081, 52.69641
325.9902, 59.12598
326.4724, 65.32085
326.9545, 71.70982
327.4366, 78.94191
327.9187, 86.90433
328.4008, 95.87534
328.8829, 105.9003
329.3651, 116.9430
329.8472, 128.7287
330.3293, 141.2082
330.8114, 155.1435
331.2935, 171.4164
331.7756, 190.2562
332.2578, 210.6958
332.7399, 232.1359
333.2220, 255.4523
333.7041, 281.5306
334.1862, 310.1743
334.6683, 341.0972
335.1505, 374.4681
335.6326, 409.9208
336.1147, 443.6462
336.5968, 477.0275
337.0789, 507.8870
337.5610, 536.9187
338.0432, 562.9050
338.5253, 583.0466
339.0074, 596.3345
339.4895, 602.4528
339.9716, 599.2959
340.4537, 585.4026
340.9359, 566.8701
341.4180, 542.4930
341.9001, 514.9059
342.3822, 487.1263
342.8643, 460.1151
343.3464, 434.0310
343.8286, 409.1843
344.3107, 385.8376
344.7928, 363.3759
345.2749, 342.7089
345.7570, 322.4743
346.2391, 301.6710
346.7213, 280.3335
347.2034, 258.5748
347.6855, 236.5296
348.1676, 214.0516
348.6497, 193.7293
349.1318, 175.2828
349.6140, 158.8366
350.0961, 144.9367
350.5782, 133.2368
351.0603, 122.9231
351.5424, 113.5965
352.0245, 105.3024
352.5067, 98.21550
352.9888, 92.48355
353.4709, 87.77847
353.9530, 84.02165
354.4351, 81.29863
354.9172, 79.82338
355.3994, 79.65947
355.8815, 80.42462
356.3636, 81.44443
356.8457, 82.36034
357.3278, 84.38847
357.8099, 87.61372
358.2920, 91.74036
358.7741, 96.51605
359.2563, 101.9862
359.7384, 108.3694
360.2205, 115.9311
360.7026, 124.7231
361.1847, 134.2984
361.6668, 144.0899
362.1490, 155.1558
362.6311, 168.1600
363.1132, 182.7081
363.5953, 198.0914
364.0774, 214.0362
364.5595, 230.1426
365.0417, 244.7751
365.5238, 258.6603
366.0059, 269.6994
366.4880, 278.2007
366.9701, 283.6149
367.4522, 285.0883
367.9344, 282.4380
368.4165, 276.7907
368.8986, 269.4532
369.3807, 259.4996
369.8628, 250.4340
370.3449, 241.5226
370.8271, 234.0856
371.3092, 228.4634
371.7913, 224.9094
372.2734, 223.7347
372.7555, 225.3364
373.2376, 229.6842
373.7198, 235.8508
374.2019, 243.1943
374.6840, 253.5312
375.1661, 267.5309
375.6482, 284.6004
376.1303, 303.6153
376.6125, 323.9980
377.0946, 346.4521
377.5767, 372.7985
378.0588, 403.6675
378.5409, 436.7083
379.0230, 471.5549
379.5052, 508.1373
379.9873, 547.1175
380.4694, 588.5941
380.9515, 630.6369
381.4336, 672.6329
381.9157, 714.5720
382.3979, 750.9883
382.8800, 783.1243
383.3621, 806.2217
383.8442, 819.3078
384.3263, 822.3297
384.8084, 815.5151
385.2906, 797.8398
385.7727, 770.6023
386.2548, 735.3840
386.7369, 690.9454
387.2190, 643.3303
387.7011, 593.4016
388.1833, 542.8698
388.6654, 493.8565
389.1475, 445.9392
389.6296, 401.1326
390.1117, 361.4016
390.5938, 326.4004
391.0760, 294.8227
391.5581, 266.5274
392.0402, 241.3536
392.5223, 218.8841
393.0044, 199.0488
393.4865, 181.0737
393.9687, 165.0027
394.4508, 150.5504
394.9329, 137.5256
395.4150, 125.8132
395.8971, 115.2490
396.3792, 105.6342
396.8614, 97.06021
397.3435, 89.54405
397.8256, 83.74311
398.3077, 78.35175
398.7898, 72.25992
399.2719, 65.76730
399.7540, 60.06499
400.2361, 55.83762
400.7183, 52.64517
401.2004, 49.31463
401.6825, 45.67078
402.1646, 42.20782
402.6467, 38.86073
403.1288, 35.80429
403.6110, 33.39621
404.0931, 31.68895
404.5752, 30.18080
405.0573, 28.26746
405.5394, 25.82991
406.0215, 23.65543
406.5037, 21.83450
406.9858, 20.16241
407.4679, 18.48327
407.9500, 16.86002
408.4321, 15.50486
408.9142, 14.56560
409.3964, 13.91650
409.8785, 12.94754
410.3606, 11.13161
410.8427, 9.684296
411.3248, 9.006981
411.8069, 8.569153
412.2891, 7.780098
412.7712, 6.522713
413.2533, 5.235970
413.7354, 4.575356
414.2175, 4.766457
414.6996, 4.661011
415.1818, 4.081863
415.6639, 3.362061
416.1460, 2.425209
416.6281, 1.439568
417.1102, 0.8019180
417.5923, 0.8633960
418.0745, 1.357300
418.5566, 1.308723
419.0387, 0.4244610
419.5208, 0.3493730
420.0029, 0.6591420
420.4850, 0.7651600
420.9672, 0.8630980
421.4493, 0.9961320
421.9314, 1.186386
422.4135, 1.524467
422.8956, 1.994476
423.3777, 2.284981
423.8599, 2.314171
424.3420, 2.191353
424.8241, 1.899544
425.3062, 1.513710
425.7883, 1.315727
426.2704, 1.620575
426.7526, 2.091766
427.2347, 2.206650
427.7168, 1.948517
428.1989, 1.599174
428.6810, 1.215363
429.1631, 0.8858180
429.6453, 0.7717900
430.1274, 0.9184570
430.6095, 1.180008
431.0916, 1.689980
431.5737, 2.233299
432.0558, 2.292328
432.5380, 1.691971
433.0201, 0.9244690
433.5022, 0.5559080
433.9843, 0.6479030
434.4664, 0.7332920
434.9485, 0.8634800
435.4307, 0.9276580
435.9128, 0.7497020
436.3949, 0.4204250
436.8770, 0.2738270
437.3591, 0.5384600
437.8412, 1.061935
438.3234, 1.253868
438.8055, 0.6506810
439.2876, 0.3073430
439.7697, 0.4952160
440.2518, 0.8579940
440.7339, 1.074486
441.2160, 1.073685
441.6982, 0.9674070
442.1803, 0.8725660
442.6624, 0.7868650
443.1445, 0.7269130
443.6266, 0.7066190
444.1087, 0.6974030
444.5909, 0.7411580
445.0730, 0.7798390
445.5551, 0.7007980
446.0372, 0.4317780
446.5193, 8.6571001E-02
447.0014, 4.9919002E-02
447.4836, 0.1346970
447.9657, 0.1918180
448.4478, 0.1180650
448.9299, 0.4666600
449.4120, 0.5867540
449.8941, 0.4964750
450.3763, 0.4974900
450.8584, 0.9516750
451.3405, 1.714439
451.8226, 2.127472
452.3047, 2.071465
452.7868, 1.930519
453.2690, 1.751549
453.7511, 1.673561
454.2332, 1.985954
454.7153, 2.950851
455.1974, 3.921440
455.6795, 4.272522
456.1617, 4.143578
456.6438, 4.154366
457.1259, 4.496971
457.6080, 5.001457
458.0901, 5.461159
458.5722, 5.874702
459.0544, 6.329460
459.5365, 7.005432
460.0186, 7.609634
460.5007, 7.788681
460.9828, 7.607559
461.4649, 7.519676
461.9471, 7.857338
462.4292, 8.445633
462.9113, 8.549782
463.3934, 7.573975
463.8755, 6.927223
464.3576, 7.031921
464.8398, 7.392273
465.3219, 7.508980
465.8040, 7.283752
466.2861, 6.926971
466.7682, 6.675072
467.2503, 6.548523
467.7325, 6.298019
468.2146, 5.703995
468.6967, 5.219460
469.1788, 5.030304
469.6609, 5.011597
470.1430, 4.962486
470.6252, 4.791527
471.1073, 4.602829
471.5894, 4.572319
472.0715, 4.708755
472.5536, 4.970459
473.0357, 5.586258
473.5179, 6.123611
474.0000, 6.334915
474.4821, 6.242233
474.9642, 5.995125
475.4463, 5.505684
475.9284, 4.983658
476.4106, 4.978951
476.8927, 5.586411
477.3748, 6.083733
477.8569, 6.080498
478.3390, 5.825844
478.8211, 5.661652
479.3033, 5.561386
479.7854, 5.682236
480.2675, 6.236946
480.7496, 7.014877
481.2317, 7.642532
481.7138, 8.063698
482.1959, 8.488686
482.6780, 9.101585
483.1602, 9.913254
483.6423, 10.80487
484.1244, 11.66323
484.6065, 12.63847
485.0886, 13.82101
485.5707, 15.21706
486.0529, 16.78170
486.5350, 18.50325
487.0171, 20.41649
487.4992, 22.52052
487.9813, 24.65827
488.4634, 27.44434
488.9456, 30.97195
489.4277, 34.89536
489.9098, 38.93816
490.3919, 43.30484
490.8740, 48.36725
491.3561, 54.29683
491.8383, 61.01691
492.3204, 68.49454
492.8025, 76.94692
493.2846, 85.49754
493.7667, 94.54352
494.2488, 103.1775
494.7310, 111.1764
495.2131, 118.2973
495.6952, 123.6232
496.1773, 126.6625
496.6594, 127.4526
497.1415, 125.7965
497.6237, 121.5329
498.1058, 115.2698
498.5879, 106.3507
499.0700, 95.88910
499.5521, 86.05470
500.0342, 76.94379
500.5164, 68.41258
500.9985, 59.83939
501.4806, 51.87831
501.9627, 45.94308
502.4448, 42.35860
502.9269, 39.34966
503.4091, 35.16063
503.8912, 29.71776
504.3733, 25.45161
504.8554, 22.76510
505.3375, 20.61042
505.8196, 18.75655
506.3018, 17.18961
506.7839, 15.95988
507.2660, 15.05934
507.7481, 14.29905
508.2302, 13.36986
508.7123, 12.13005
509.1945, 11.30289
509.6766, 10.90749
510.1587, 10.88410
510.6408, 11.68584
511.1229, 12.78240
511.6050, 13.16453
512.0872, 12.24503
512.5693, 10.67706
513.0514, 9.573257
513.5335, 8.956650
514.0156, 8.564568
514.4977, 8.349419
514.9799, 8.353104
515.4620, 8.632881
515.9441, 9.159828
516.4262, 9.747681
516.9083, 10.35196
517.3904, 10.95767
517.8726, 11.53194
518.3547, 12.07934
518.8368, 12.63500
519.3189, 13.15090
519.8010, 13.76186
520.2831, 14.79930
520.7653, 16.32522
521.2474, 17.98911
521.7295, 19.76138
522.2116, 21.62164
522.6937, 23.43729
523.1758, 25.27116
523.6580, 27.41272
524.1401, 30.04880
524.6222, 33.16090
525.1043, 36.76452
525.5864, 41.25008
526.0685, 45.65195
526.5507, 49.61998
527.0328, 53.67505
527.5149, 58.22926
527.9970, 63.32283
528.4791, 68.71317
528.9612, 74.09048
529.4434, 79.55164
529.9255, 85.75749
530.4076, 92.66363
530.8897, 100.3888
531.3718, 108.5606
531.8539, 117.7899
532.3361, 128.8945
532.8182, 142.0042
533.3003, 156.9083
533.7824, 173.3825
534.2645, 191.6003
534.7466, 211.8939
535.2288, 234.2485
535.7109, 259.4096
536.1930, 287.6731
536.6751, 319.3472
537.1572, 354.5376
537.6393, 394.7032
538.1215, 436.3675
538.6036, 480.2438
539.0857, 524.4954
539.5678, 568.6901
540.0499, 611.8706
540.5320, 650.3088
541.0142, 680.4715
541.4963, 702.4672
541.9784, 712.3375
542.4604, 708.1838
542.9426, 692.8023
543.4247, 663.0715
543.9068, 624.2201
544.3889, 580.6851
544.8710, 533.9821
545.3531, 486.3456
545.8353, 439.3654
546.3174, 393.2317
546.7995, 352.5325
547.2816, 318.3073
547.7637, 287.9527
548.2458, 260.4131
548.7280, 235.6672
549.2101, 213.9502
549.6922, 195.7623
550.1743, 179.8827
550.6564, 165.6530
551.1385, 153.0652
551.6207, 142.2495
552.1028, 133.2608
552.5849, 125.5004
553.0670, 118.4361
553.5491, 112.0448
554.0313, 106.6726
554.5134, 102.7561
554.9955, 99.19498
555.4776, 95.54451
555.9597, 92.12640
556.4418, 89.46851
556.9240, 87.64865
557.4061, 86.23853
557.8882, 84.71624
558.3703, 83.07166
558.8524, 81.81756
559.3345, 81.51907
559.8167, 80.78332
560.2988, 79.06314
560.7809, 76.74818
561.2630, 74.24300
561.7451, 71.63612
562.2272, 68.91354
562.7094, 66.10121
563.1915, 63.19713
563.6736, 60.09584
564.1557, 56.72749
564.6378, 53.33986
565.1199, 49.97350
565.6021, 46.74623
566.0842, 44.05431
566.5663, 42.29022
567.0484, 40.51363
567.5305, 38.27954
568.0126, 35.90060
568.4948, 33.71464
568.9769, 31.81849
569.4590, 30.18263
569.9411, 28.82083
570.4232, 27.71777
570.9053, 26.66350
571.3875, 25.55132
571.8696, 24.66867
572.3517, 24.17055
572.8338, 23.80030
573.3159, 23.40285
573.7980, 22.92427
574.2802, 22.24285
574.7623, 21.05592
575.2444, 19.54977
575.7265, 18.54116
576.2086, 18.11765
576.6907, 17.83634
577.1729, 17.60049
577.6550, 17.32643
578.1371, 16.87473
578.6192, 16.20370
579.1013, 15.53265
579.5834, 14.85075
580.0656, 14.26752
580.5477, 13.93555
581.0298, 13.84303
581.5119, 13.84457
581.9940, 13.86097
582.4761, 13.88001
582.9583, 13.86372
583.4404, 13.86255
583.9225, 13.73794
584.4046, 13.48207
584.8867, 13.11314
585.3688, 12.61346
585.8510, 12.00840
586.3331, 11.34167
586.8152, 10.60897
587.2973, 9.892700
587.7794, 9.419258
588.2615, 9.224129
588.7437, 9.023232
589.2258, 8.733444
589.7079, 8.430962
590.1900, 8.236084
590.6721, 8.118141
591.1542, 7.870811
591.6364, 7.349449
592.1185, 6.745934
592.6006, 6.188858
593.0827, 5.688461
593.5648, 5.286736
594.0469, 5.009781
594.5291, 4.744820
595.0112, 4.317337
595.4933, 3.663605
595.9754, 3.138596
596.4575, 2.836082
596.9396, 2.539429
597.4218, 2.089058
597.9039, 1.625702
598.3860, 1.378548
598.8681, 1.419434
599.3502, 1.559227
599.8323, 1.591599
600.3145, 1.516945
600.7966, 1.348610
601.2787, 1.038811
601.7608, 0.7378080
602.2429, 0.5572280
602.7250, 0.4319230
603.2072, 0.2607800
603.6893, 1.3580000E-03
604.1714, 0.2180860
604.6535, 0.3192980
605.1356, 0.3488620
605.6177, 0.3344730
606.0999, 0.2953720
606.5820, 0.3532710
607.0641, 0.6217800
607.5462, 1.027916
608.0283, 1.240967
608.5104, 1.062721
608.9926, 0.9664310
609.4747, 1.080597
609.9568, 1.189125
610.4389, 1.099213
610.9210, 0.8544080
611.4031, 0.6464770
611.8853, 0.5939640
612.3674, 0.6555860
612.8495, 0.7642060
613.3316, 0.9266200
613.8137, 1.069130
614.2958, 1.179474
614.7780, 1.257690
615.2601, 1.305359
615.7422, 1.324127
616.2243, 1.311020
616.7064, 1.231598
617.1885, 1.153877
617.6707, 1.172997
618.1528, 1.216278
618.6349, 1.095329
619.1170, 0.7619250
619.5991, 0.4197010
620.0812, 0.3208690
620.5634, 0.4857710
621.0455, 0.5855480
621.5276, 0.6041870
622.0097, 0.5719990
622.4918, 0.4436260
622.9739, 0.2971340
623.4561, 0.2344280
623.9382, 0.2657620
624.4203, 0.2704540
624.9023, 0.1249390
625.3845, 0.1185460
625.8666, 0.3208080
626.3487, 0.4770510
626.8308, 0.6351390
627.3129, 0.8701860
627.7950, 1.070023
628.2772, 0.9543760
628.7593, 0.4305190
629.2414, 9.3239002E-02
629.7235, 7.3990002E-02
630.2056, 0.2262950
630.6877, 0.5650860
631.1699, 0.9825360
631.6520, 1.246872
632.1341, 1.250778
632.6162, 1.137512
633.0983, 1.130829
633.5804, 1.229103
634.0626, 1.453102
634.5447, 1.917908
635.0268, 2.358406
635.5089, 2.719162
635.9910, 2.965584
636.4731, 2.986084
636.9553, 2.682854
637.4374, 2.482071
637.9195, 2.817192
638.4016, 3.424088
638.8837, 3.772423
639.3658, 3.809479
639.8480, 3.869431
640.3301, 4.181801
640.8122, 4.662094
641.2943, 5.029175
641.7764, 5.118553
642.2585, 5.335205
642.7407, 5.890350
643.2228, 6.383789
643.7049, 6.412323
644.1870, 6.170341
644.6691, 6.178169
645.1512, 6.720200
645.6334, 7.576759
646.1155, 8.534348
646.5976, 9.589111
647.0797, 10.15756
647.5618, 9.970650
648.0439, 9.667267
648.5261, 9.686737
649.0082, 9.980087
649.4903, 10.40295
649.9724, 11.02075
650.4545, 11.64918
650.9366, 12.17999
651.4188, 12.70042
651.9009, 13.33956
652.3830, 14.08910
652.8651, 14.82404
653.3472, 15.45437
653.8293, 15.99689
654.3115, 16.51069
654.7936, 16.96249
655.2757, 17.46191
655.7578, 18.01493
656.2399, 18.63006
656.7220, 19.27038
657.2042, 19.97700
657.6863, 20.87080
658.1684, 22.06392
658.6505, 23.35863
659.1326, 24.52094
659.6147, 25.63503
660.0969, 26.99973
660.5790, 28.68284
661.0611, 30.37604
661.5432, 31.75647
662.0253, 32.89271
662.5074, 34.50130
662.9896, 36.92343
663.4717, 39.37252
663.9538, 41.65072
664.4359, 44.04558
664.9180, 46.79108
665.4001, 49.86115
665.8823, 53.06901
666.3644, 56.26923
666.8465, 59.68610
667.3286, 63.76879
667.8107, 68.52478
668.2928, 73.75878
668.7750, 79.45512
669.2571, 85.41945
669.7392, 91.17986
670.2213, 96.91046
670.7034, 103.6665
671.1855, 111.8611
671.6677, 120.5285
672.1498, 129.5507
672.6319, 138.7033
673.1140, 147.8779
673.5961, 156.9861
674.0782, 165.9942
674.5604, 175.0712
675.0425, 183.8188
675.5246, 191.1340
676.0067, 197.2146
676.4888, 200.9963
676.9709, 202.0280
677.4531, 200.9106
677.9352, 198.3033
678.4173, 194.1165
678.8994, 187.9671
679.3815, 179.2428
679.8636, 169.2297
680.3458, 158.0479
680.8279, 146.3262
681.3100, 134.7707
681.7921, 123.6257
682.2742, 113.0551
682.7563, 103.2145
683.2385, 94.07099
683.7206, 85.28416
684.2027, 76.55119
684.6848, 68.86069
685.1669, 62.80747
685.6490, 57.49006
686.1312, 52.54081
686.6133, 47.91567
687.0954, 43.54888
687.5775, 39.40565
688.0596, 35.62722
688.5417, 32.34342
689.0239, 29.52151
689.5060, 27.20710
689.9881, 25.38562
690.4702, 23.77438
690.9523, 22.16737
691.4344, 20.55579
691.9166, 18.84377
692.3987, 16.64658
692.8808, 14.98890
693.3629, 14.34474
693.8450, 13.83392
694.3271, 12.84552
694.8093, 11.54558
695.2914, 10.47465
695.7735, 9.909004
696.2556, 9.525040
696.7377, 9.008858
697.2198, 8.375259
697.7020, 7.597305
698.1841, 6.654854
698.6662, 5.884247
699.1483, 5.562798
699.6304, 5.570831
700.1125, 5.459846
700.5947, 5.179237
701.0768, 4.853775
701.5589, 4.415504
702.0410, 3.998444
702.5231, 3.686790
703.0052, 3.462097
703.4874, 3.277023
703.9695, 3.117783
704.4516, 2.950966
704.9337, 2.729347
705.4158, 2.464951
705.8979, 2.180092
706.3801, 1.854996
706.8622, 1.695946
707.3442, 1.941154
707.8264, 2.343575
708.3085, 2.216209
708.7906, 1.205620
709.2727, 0.5979840
709.7548, 0.7263030
710.2369, 1.032471
710.7191, 1.191956
711.2012, 1.290154
711.6833, 1.604477
712.1654, 2.225929
712.6475, 2.756187
713.1296, 2.619690
713.6118, 1.955956
714.0939, 1.555374
714.5760, 1.476357
715.0581, 1.455414
715.5402, 1.375809
716.0223, 1.287857
716.5045, 1.258240
716.9866, 1.266479
717.4687, 1.445869
717.9508, 2.307289
718.4329, 2.807449
718.9150, 1.963402
719.3972, 0.6233900
719.8793, 0.1244740
720.3614, 0.7459950
720.8435, 1.545380
721.3256, 1.571434
721.8077, 1.038208
722.2899, 0.8237150
722.7720, 0.9728390
723.2541, 0.9814830
723.7362, 0.6488950
724.2183, 0.1916500
724.7004, 0.2162400
725.1826, 0.5769040
725.6647, 0.6250990
726.1468, 0.1180800
726.6289, 0.6254040
727.1110, 0.2284550
727.5931, 0.4222180
728.0753, 0.5376970
728.5574, 7.7141002E-02
729.0395, 0.4338840
729.5216, 0.6121370
730.0037, 0.5879060
730.4858, 0.7120740
730.9680, 0.9979400
731.4501, 0.9522630
731.9322, 0.2901990
732.4143, 0.2634510
732.8964, 1.8082000E-02
733.3785, 0.9181370
733.8607, 1.322037
734.3428, 0.8185580
734.8249, 0.4617160
735.3070, 0.6483310
735.7891, 0.9241870
736.2712, 0.8683850
736.7534, 0.5499800
737.2355, 0.3475570
737.7176, 0.4759290
738.1997, 0.6991120
738.6818, 0.5914540
739.1639, 0.2102580
739.6461, 0.1624450
740.1282, 0.5825810
740.6103, 0.9249040
741.0924, 0.8607940
741.5745, 0.5582430
742.0566, 0.3424840
742.5388, 0.1219330
743.0209, 0.1466370
743.5030, 0.7948460
743.9851, 1.360352
744.4672, 1.368256
744.9493, 1.073494
745.4315, 0.8627470
745.9136, 0.8474810
746.3957, 0.9535600
746.8778, 1.207771
747.3599, 1.531235
747.8420, 1.563454
748.3242, 1.284981
748.8063, 1.276794
749.2884, 1.803825
749.7705, 2.516815
750.2526, 3.031479
750.7347, 3.335129
751.2169, 3.567497
751.6990, 3.713943
752.1811, 3.852890
752.6632, 3.993546
753.1453, 4.083191
753.6274, 3.854637
754.1096, 3.458107
754.5917, 3.520668
755.0738, 4.584259
755.5559, 5.888092
756.0380, 6.252731
756.5201, 5.903534
757.0023, 5.898621
757.4844, 6.438950
757.9665, 6.869774
758.4486, 6.695740
758.9307, 6.087608
759.4128, 5.620041
759.8950, 5.338287
760.3771, 5.125969
760.8592, 5.129517
761.3413, 5.063385
761.8234, 4.715813
762.3055, 4.222183
762.7877, 3.779388
763.2698, 3.434479
763.7519, 3.176956
764.2340, 3.073433
764.7161, 3.021210
765.1982, 2.789543
765.6804, 2.416176
766.1625, 2.146049
766.6446, 2.079285
767.1267, 2.128624
767.6088, 2.184647
768.0909, 2.265579
768.5731, 2.292976
769.0552, 2.250069
769.5373, 2.182899
770.0194, 2.004364
770.5015, 1.881927
770.9836, 2.050949
771.4658, 2.430054
771.9479, 2.589775
772.4300, 2.205009
772.9121, 1.795670
773.3942, 1.800346
773.8763, 1.977890
774.3585, 1.914490
774.8406, 1.593117
775.3227, 1.300301
775.8048, 1.224815
776.2869, 1.294571
776.7690, 1.355164
777.2512, 1.412704
777.7333, 1.412842
778.2154, 1.370964
778.6975, 1.243988
779.1796, 0.8311310
779.6617, 0.3949280
780.1439, 0.4600910
780.6260, 1.200600
781.1081, 1.652321
781.5902, 1.257607
782.0723, 0.8240360
782.5544, 0.9834900
783.0366, 1.400429
783.5187, 1.481270
784.0008, 1.129639
784.4829, 0.7164540
784.9650, 0.6176910
785.4471, 0.7106860
785.9293, 0.7021640
786.4114, 0.6218720
786.8935, 0.5223310
787.3756, 0.4106220
787.8577, 0.3041840
788.3398, 0.2218860
788.8220, 0.1623380
789.3040, 0.1065060
789.7861, 4.3570999E-02
790.2682, 6.2171999E-02
790.7504, 0.1937710
791.2325, 0.5018540
791.7146, 0.8384400
792.1967, 1.087234
792.6788, 0.9791410
793.1609, 0.3717120
793.6431, 0.1768040
794.1252, 9.3314998E-02
794.6073, 0.3435900
795.0894, 0.6648480
795.5715, 0.8435520
796.0536, 0.8911510
796.5358, 0.8029330
797.0179, 0.6783370
797.5000, 0.6807940
797.9821, 0.8260270
798.4642, 0.7268140
798.9464, 0.1463470
799.4285, 0.2561650
799.9106, 0.1380460
800.3927, 7.6026998E-02
800.8748, 6.6551000E-02
801.3569, 0.1275630
801.8391, 0.2828750
802.3212, 0.3661420
802.8033, 0.3684620
803.2854, 0.2074050
803.7675, 8.0340002E-03
804.2496, 4.7759999E-02
804.7318, 8.8419998E-03
805.2139, 1.5205000E-02
805.6960, 0.2286910
806.1781, 0.4830170
806.6602, 0.5231700
807.1423, 0.3692860
807.6245, 0.2625350
808.1066, 0.2185820
808.5887, 0.1217650
809.0708, 0.3324280
809.5529, 0.5030290
810.0350, 0.9316640
810.5172, 4.497841
810.9993, 6.054001
811.4814, 3.962982
811.9635, 1.976418
812.4456, 1.071114
812.9277, 0.7523800
813.4099, 0.6798480
813.8920, 0.7335130
814.3741, 0.7566530
814.8562, 0.6443330
815.3383, 0.5292430
815.8204, 0.6089400
816.3026, 0.7751390
816.7847, 0.7820360
817.2668, 0.6085820
817.7489, 0.3525620
818.2310, 5.9799001E-02
818.7131, 0.2275090
819.1953, 0.4371340
819.6774, 0.5769650
820.1595, 0.5920100
820.6416, 0.4786530
821.1237, 0.2412490
821.6058, 0.3158490
822.0880, 0.8554840
822.5701, 0.9535900
823.0522, 0.6226040
823.5343, 0.3340990
824.0164, 2.3705000E-02
824.4985, 3.9413001E-02
824.9807, 0.5104520
825.4628, 1.208466
825.9449, 1.532814
826.4270, 1.480003
826.9091, 1.327576
827.3912, 1.215569
827.8734, 1.145157
828.3555, 1.170807
828.8376, 1.246780
829.3197, 1.088463
829.8018, 0.6563190
830.2839, 0.5125960
830.7661, 0.9987340
831.2482, 1.754669
831.7303, 2.213028
832.2124, 2.360298
832.6945, 2.309898
833.1766, 1.786469
833.6588, 1.377739
834.1409, 1.165359
834.6230, 1.192657
835.1051, 1.640953
835.5872, 2.375641
836.0693, 2.835983
836.5515, 2.698242
837.0336, 2.527916
837.5157, 2.674973
837.9978, 2.910294
838.4799, 2.930328
838.9620, 2.801804
839.4442, 2.813927
839.9263, 3.074028
840.4084, 3.408730
840.8905, 3.616776
841.3726, 3.726425
841.8547, 3.922539
842.3369, 4.202827
842.8190, 4.465881
843.3011, 4.674202
843.7832, 4.848473
844.2653, 5.010559
844.7474, 5.151062
845.2296, 5.291084
845.7117, 5.354706
846.1938, 5.529411
846.6759, 5.891525
847.1580, 6.309212
847.6401, 6.706024
848.1223, 7.094650
848.6044, 7.518524
849.0865, 7.987144
849.5686, 8.454086
850.0507, 8.863121
850.5328, 9.281906
851.0150, 9.781319
851.4971, 10.33228
851.9792, 10.93925
852.4613, 11.59341
852.9434, 12.22309
853.4255, 12.72059
853.9077, 13.17153
854.3898, 13.87981
854.8719, 14.84571
855.3540, 15.72478
855.8361, 16.41741
856.3182, 17.13699
856.8004, 18.02643
857.2825, 19.04060
857.7646, 20.11654
858.2467, 21.26565
858.7288, 22.44855
859.2109, 23.67806
859.6931, 24.90079
860.1752, 25.95049
860.6573, 27.08485
861.1394, 28.71075
861.6215, 30.84550
862.1036, 32.88370
862.5858, 34.57832
863.0679, 36.12632
863.5500, 37.64704
864.0321, 39.11470
864.5142, 40.54210
864.9963, 41.88235
865.4785, 43.00765
865.9606, 43.87814
866.4427, 44.26015
866.9248, 43.67880
867.4069, 42.26060
867.8890, 40.54185
868.3712, 38.49319
868.8533, 36.51655
869.3354, 34.81520
869.8175, 33.09546
870.2996, 30.92129
870.7817, 28.28295
871.2639, 26.08134
871.7459, 24.60555
872.2280, 23.06128
872.7101, 21.34866
873.1923, 19.51366
873.6744, 17.36423
874.1565, 15.15110
874.6386, 13.46629
875.1207, 12.55777
875.6028, 11.73553
876.0850, 10.78423
876.5671, 9.800163
877.0492, 8.932312
877.5313, 8.070313
878.0134, 6.900566
878.4955, 5.435646
878.9777, 4.226982
879.4598, 3.762749
879.9419, 3.731636
880.4240, 3.813927
880.9061, 3.911110
881.3882, 3.595490
881.8704, 2.816368
882.3525, 2.005066
882.8346, 1.444176
883.3167, 1.064491
883.7988, 0.7511220
884.2809, 0.4963000
884.7631, 0.3707430
885.2452, 0.4519040
885.7273, 0.4589460
886.2094, 0.1790850
886.6915, 9.7061001E-02
887.1736, 9.4760004E-03
887.6558, 0.4171750
888.1379, 0.8089750
888.6200, 1.537415
889.1021, 1.698997
889.5842, 0.5191960
890.0663, 0.6933060
890.5485, 0.9388580
891.0306, 0.5591200
891.5127, 0.3463290
891.9948, 0.5226210
892.4769, 0.7150120
892.9590, 0.6406020
893.4412, 0.5008010
893.9233, 0.5403980
894.4054, 0.6739730
894.8875, 0.6792600
895.3696, 0.5351330
895.8517, 0.4690250
896.3339, 0.6895140
896.8160, 0.9562680
897.2981, 0.6516190
897.7802, 0.1351550
898.2623, 0.4351350
898.7444, 0.1142040
899.2266, 8.6677998E-02
899.7087, 0.2368700
900.1908, 0.6906200
900.6729, 0.6380920
901.1550, 3.8330000E-02
901.6371, 0.1212160
902.1193, 0.5182040
902.6014, 0.9293370
903.0835, 0.7751460
903.5656, 0.4777370
904.0477, 0.2283170
904.5298, 6.8030998E-02
905.0120, 0.1128310
905.4941, 0.4282990
905.9762, 0.7965770
906.4583, 1.303383
906.9404, 1.701370
907.4225, 1.703751
907.9047, 1.573647
908.3868, 1.731117
908.8689, 2.193542
909.3510, 2.560745
909.8331, 2.526726
910.3152, 2.408882
910.7974, 2.603516
911.2795, 2.916321
911.7616, 2.877609
912.2437, 2.556564
912.7258, 2.526405
913.2079, 3.058830
913.6901, 3.761848
914.1722, 4.042549
914.6543, 4.023300
915.1364, 4.531181
915.6185, 5.592789
916.1006, 6.363152
916.5828, 6.566574
917.0649, 6.728516
917.5470, 7.211525
918.0291, 8.065025
918.5112, 9.595406
918.9933, 12.63774
919.4755, 14.22198
919.9576, 13.55009
920.4397, 12.55794
920.9218, 11.67327
921.4039, 11.06207
921.8860, 10.92903
922.3682, 11.27062
922.8503, 11.91177
923.3324, 13.04119
923.8145, 14.17938
924.2966, 15.20878
924.7787, 16.18067
925.2609, 16.78713
925.7430, 17.45484
926.2251, 19.15206
926.7072, 22.18790
927.1893, 25.29675
927.6714, 28.13583
928.1536, 30.19102
928.6357, 30.09020
929.1178, 29.13072
929.5999, 30.10890
930.0820, 33.15474
930.5641, 35.98955
931.0463, 37.13812
931.5284, 37.48038
932.0105, 38.02167
932.4926, 38.92724
932.9747, 41.05377
933.4568, 44.38290
933.9390, 47.94426
934.4211, 51.36125
934.9032, 54.81642
935.3853, 58.44520
935.8674, 62.31618
936.3495, 66.84763
936.8317, 72.11026
937.3138, 77.74965
937.7959, 83.69530
938.2780, 90.09235
938.7601, 96.88519
939.2422, 104.3701
939.7244, 113.0347
940.2065, 122.7880
940.6886, 134.1559
941.1707, 147.5231
941.6528, 161.9461
942.1349, 176.7391
942.6171, 192.9935
943.0992, 211.0178
943.5813, 231.2168
944.0634, 254.3458
944.5455, 280.7600
945.0276, 309.5275
945.5098, 340.9398
945.9919, 373.9990
946.4740, 409.4558
946.9561, 445.0919
947.4382, 479.2275
947.9203, 510.6034
948.4025, 537.4181
948.8846, 559.9610
949.3667, 574.3179
949.8488, 576.9911
950.3309, 569.0682
950.8130, 550.4663
951.2952, 522.8771
951.7773, 489.4943
952.2594, 451.8945
952.7415, 413.4798
953.2236, 376.5588
953.7057, 341.9841
954.1878, 311.7167
954.6699, 285.5858
955.1520, 262.5459
955.6342, 242.3466
956.1163, 225.4102
956.5984, 211.9291
957.0805, 201.5700
957.5626, 194.2294
958.0447, 189.8022
958.5269, 185.4332
959.0090, 181.2031
959.4911, 176.6505
959.9732, 171.8258
960.4553, 166.3423
960.9374, 159.8019
961.4196, 152.5105
961.9017, 145.2378
962.3838, 137.6332
962.8659, 131.1475
963.3480, 126.1840
963.8301, 121.8326
964.3123, 117.2577
964.7944, 113.6567
965.2765, 112.0856
965.7586, 112.4020
966.2407, 113.8135
966.7228, 116.2332
967.2050, 119.7167
967.6871, 124.1013
968.1692, 129.7518
968.6513, 136.9297
969.1334, 145.4586
969.6155, 155.5550
970.0977, 166.9337
970.5798, 177.8541
971.0619, 188.1331
971.5440, 196.7617
972.0261, 204.2292
972.5082, 208.8552
972.9904, 208.9875
973.4725, 204.6740
973.9546, 195.9528
974.4367, 183.0758
974.9188, 167.7405
975.4009, 150.0889
975.8831, 132.1298
976.3652, 116.2303
976.8473, 102.2029
977.3294, 89.50365
977.8115, 78.04962
978.2936, 68.27692
978.7758, 60.32762
979.2579, 53.70020
979.7400, 47.47832
980.2221, 42.13911
980.7042, 40.47064
981.1863, 41.83433
981.6685, 40.66705
982.1506, 35.88533
982.6327, 30.62386
983.1148, 26.85792
983.5969, 24.19132
984.0790, 21.96626
984.5612, 20.18835
985.0433, 18.51478
985.5254, 16.93713
986.0075, 15.53552
986.4896, 14.35187
986.9717, 13.26076
987.4539, 12.14539
987.9360, 11.05834
988.4181, 10.20343
988.9002, 9.745735
989.3823, 8.899979
989.8644, 7.281937
990.3466, 6.003334
990.8287, 5.293144
991.3108, 5.190475
991.7929, 5.972122
992.2750, 7.453888
992.7571, 8.557762
993.2393, 9.790337
993.7214, 9.736328
994.2035, 7.116219
994.6856, 4.714142
995.1677, 3.696304
995.6498, 3.367088
996.1320, 3.039856
996.6141, 2.681107
997.0962, 2.430862
997.5783, 2.510902
998.0604, 2.374725
998.5425, 1.713127
999.0247, 0.9736250
999.5068, 0.2816090
999.9889, 0.2249530
1000.471, 0.2148900
1000.953, 0.2541660
1001.435, 0.3835910
1001.917, 0.5213090
1002.399, 1.284172
1002.882, 1.068733
1003.364, 0.5911180
1003.846, 0.4810490
1004.328, 0.6493840
1004.810, 0.8535770
1005.292, 1.008430
1005.774, 1.009247
1006.256, 0.6967770
1006.739, 0.3263630
1007.221, 7.5768001E-02
1007.703, 4.2992000E-02
1008.185, 0.1290590
1008.667, 0.4237670
1009.149, 0.2819140
1009.631, 0.4451370
1010.113, 1.180977
1010.595, 1.321060
1011.078, 1.259148
1011.560, 1.677002
1012.042, 2.413879
1012.524, 2.983032
1013.006, 3.425529
1013.488, 4.278549
1013.970, 5.744370
1014.452, 7.248909
1014.935, 7.982056
1015.417, 8.403908
1015.899, 9.694969
1016.381, 11.70766
1016.863, 14.01388
1017.345, 16.48559
1017.827, 19.05227
1018.309, 21.67593
1018.791, 24.11256
1019.274, 26.00049
1019.756, 27.40984
1020.238, 28.99453
1020.720, 30.68967
1021.202, 31.51619
1021.684, 31.29192
1022.166, 30.44495
1022.648, 29.18913
1023.130, 27.63030
1023.613, 25.88064
1024.095, 23.93803
1024.577, 22.02649
1025.059, 20.14391
1025.541, 18.42164
1026.023, 16.88183
1026.505, 15.43654
1026.987, 13.98304
1027.469, 12.70767
1027.952, 11.99670
1028.434, 11.86559
1028.916, 11.59829
1029.398, 11.12779
1029.880, 10.76719
1030.362, 10.59740
1030.844, 10.47959
1031.326, 10.25462
1031.809, 10.10107
1032.291, 10.39115
1032.773, 11.16273
1033.255, 12.04957
1033.737, 12.96280
1034.219, 14.20618
1034.701, 16.02283
1035.183, 17.93160
1035.666, 19.32198
1036.148, 20.66193
1036.630, 23.03353
1037.112, 26.60894
1037.594, 30.29387
1038.076, 33.60500
1038.558, 37.77123
1039.040, 43.34644
1039.522, 49.43005
1040.005, 55.75136
1040.487, 62.08688
1040.969, 68.19537
1041.451, 74.48194
1041.933, 78.50744
1042.415, 80.21266
1042.897, 79.70181
1043.379, 76.65916
1043.861, 71.75414
1044.344, 64.55320
1044.826, 56.08372
1045.308, 48.12878
1045.790, 40.74821
1046.272, 34.48566
1046.754, 29.90408
1047.236, 25.75377
1047.718, 21.59329
1048.201, 17.92443
1048.683, 15.10411
1049.165, 13.00863
1049.647, 11.42176
1050.129, 10.36688
1050.611, 9.379005
1051.093, 8.317924
1051.575, 7.387268
1052.057, 6.746117
1052.540, 6.171608
1053.022, 5.425613
1053.504, 4.641235
1053.986, 4.028915
1054.468, 3.614655
1054.950, 3.420837
1055.432, 3.643173
1055.914, 3.829147
1056.396, 3.849495
1056.879, 3.753998
1057.361, 3.487694
1057.843, 3.167992
1058.325, 3.045197
1058.807, 3.154427
1059.289, 3.129097
1059.771, 2.722542
1060.253, 2.277321
1060.736, 1.984779
1061.218, 1.754311
1061.700, 1.405411
1062.182, 1.070740
1062.664, 1.107597
1063.146, 1.519760
1063.628, 1.623283
1064.110, 0.8154370
1064.593, 0.1924590
1065.075, 0.4936980
1065.557, 0.8429260
1066.039, 0.4449840
1066.521, 0.3058620
1067.003, 0.7697300
1067.485, 0.8360750
1067.967, 0.6552810
1068.449, 7.4265003E-02
1068.932, 0.3859560
1069.414, 0.4365770
1069.896, 0.3350070
1070.378, 0.1147840
1070.860, 4.0511999E-02
1071.342, 0.2923430
1071.824, 1.000870
1072.306, 1.157791
1072.788, 9.6396998E-02
1073.271, 0.8086090
1073.753, 0.9389950
1074.235, 0.6600720
1074.717, 0.1746370
1075.199, 0.9985280
1075.681, 0.9563290
1076.163, 0.1604230
1076.645, 0.4437940
1077.127, 0.5480420
1077.610, 0.3905640
1078.092, 0.2051240
1078.574, 0.7126390
1079.056, 0.7177200
1079.538, 0.4738620
1080.020, 0.2132420
1080.502, 1.3382000E-02
1080.984, 6.6220001E-03
1081.467, 0.2349170
1081.949, 0.4296880
1082.431, 0.3820880
1082.913, 0.3155670
1083.395, 0.4074480
1083.877, 0.5177310
1084.359, 0.4197310
1084.841, 0.2157440
1085.323, 0.2289430
1085.806, 0.5649640
1086.288, 0.9025960
1086.770, 1.198227
1087.252, 1.345619
1087.734, 1.197319
1088.216, 0.9572300
1088.698, 0.7921980
1089.180, 0.6943590
1089.662, 0.6073000
1090.145, 0.5189820
1090.627, 0.4693370
1091.109, 0.5978010
1091.591, 0.5963440
1092.073, 9.2818998E-02
1092.555, 0.3529590
1093.037, 0.2928850
1093.519, 0.1372760
1094.002, 0.7978900
1094.484, 1.616966
1094.966, 2.092110
1095.448, 1.834938
1095.930, 1.532394
1096.412, 1.269402
1096.894, 1.207924
1097.376, 1.630196
1097.859, 2.192085
1098.341, 2.503853
1098.823, 2.527756
1099.305, 2.337791
1099.787, 1.821869
1100.269, 1.368988
1100.751, 1.027283
1101.233, 0.8329700
1101.715, 0.8501890
1102.198, 0.9854050
1102.680, 1.224709
1103.162, 1.502609
1103.644, 1.591614
1104.126, 1.379112
1104.608, 1.232231
1105.090, 1.200912
1105.572, 1.258522
1106.054, 1.462502
1106.537, 1.697884
1107.019, 1.930153
1107.501, 2.104576
1107.983, 2.115646
1108.465, 1.955925
1108.947, 1.651604
1109.429, 0.6509480
1109.911, 0.2861710
1110.394, 1.482994
1110.876, 2.692551
1111.358, 2.972153
1111.840, 2.678482
1112.322, 2.272141
1112.804, 1.733902
1113.286, 1.684258
1113.768, 2.578758
1114.250, 3.208153
1114.733, 3.497086
1115.215, 3.512077
1115.697, 3.020645
1116.179, 2.445549
1116.661, 2.349648
1117.143, 2.649048
1117.625, 2.691856
1118.107, 2.313187
1118.589, 2.075500
1119.072, 1.998978
1119.554, 2.051491
1120.036, 2.338135
1120.518, 2.546631
1121.000, 2.329445
1121.482, 1.890076
1121.964, 1.875816
1122.446, 2.419884
1122.929, 2.512489
1123.411, 1.927788
1123.893, 1.668770
1124.375, 2.035439
1124.857, 2.379555
1125.339, 2.317574
1125.821, 2.007561
1126.303, 1.662056
1126.786, 1.287331
1127.268, 1.399170
1127.750, 2.071587
1128.232, 2.495087
1128.714, 2.546799
1129.196, 2.464920
1129.678, 2.317825
1130.160, 2.159111
1130.642, 2.037766
1131.125, 1.908699
1131.607, 1.833389
1132.089, 1.835846
1132.571, 1.900230
1133.053, 1.986931
1133.535, 2.186325
1134.017, 2.511276
1134.499, 2.566002
1134.981, 2.052834
1135.464, 1.363770
1135.946, 1.236671
1136.428, 1.507523
1136.910, 1.681793
1137.392, 1.754478
1137.874, 1.717262
1138.356, 1.586502
1138.838, 1.515823
1139.321, 1.592407
1139.803, 1.622299
1140.285, 1.291840
1140.767, 0.8615800
1141.249, 0.8435820
1141.731, 1.088463
1142.213, 1.331604
1142.695, 1.507195
1143.177, 1.535774
1143.660, 1.416695
1144.142, 1.285004
1144.624, 1.251389
1145.106, 1.214516
1145.588, 1.031479
1146.070, 0.8123630
1146.552, 0.7033310
1147.034, 0.6608200
1147.516, 0.5497970
1147.999, 0.3956070
1148.481, 0.4235990
1148.963, 0.7713240
1149.445, 1.066643
1149.927, 1.034920
1150.409, 0.8703160
1150.891, 0.7567440
1151.373, 0.6406020
1151.856, 0.3336410
1152.338, 4.8370000E-02
1152.820, 0.1683040
1153.302, 4.2273998E-02
1153.784, 0.1657330
1154.266, 6.9710001E-02
1154.748, 0.2264860
1155.230, 0.1319960
1155.713, 5.3725999E-02
1156.195, 0.3212280
1156.677, 0.5633320
1157.159, 0.6275790
1157.641, 0.5345540
1158.123, 0.4751590
1158.605, 0.4577410
1159.087, 0.4932250
1159.569, 0.7504880
1160.052, 0.8327480
1160.534, 0.4895630
1161.016, 0.1047970
1161.498, 7.0229001E-02
1161.980, 7.1739003E-02
1162.462, 5.1750001E-02
1162.944, 0.3281250
1163.426, 0.4327090
1163.908, 0.2694090
1164.391, 0.2330020
1164.873, 0.4532930
1165.355, 0.5584340
1165.837, 0.3255230
1166.319, 1.3794000E-02
1166.801, 9.4337001E-02
1167.283, 1.0380000E-03
1167.765, 0.3474040
1168.247, 0.9407880
1168.730, 1.387268
1169.212, 1.672997
1169.694, 1.691490
1170.176, 1.409019
1170.658, 1.030045
1171.140, 0.6872630
1171.622, 0.3720780
1172.104, 8.0720000E-03
1172.587, 0.3447720
1173.069, 0.1929170
1173.551, 0.3219150
1174.033, 0.7947770
1174.515, 1.138229
1174.997, 1.236717
1175.479, 1.065643
1175.961, 0.8418730
1176.443, 0.6706700
1176.926, 0.5747380
1177.408, 0.6846470
1177.890, 0.8731690
1178.372, 0.9893570
1178.854, 0.9996950
1179.336, 0.7906650
1179.818, 0.4282150
1180.300, 0.2147370
1180.782, 0.2787250
1181.265, 0.4408190
1181.747, 0.6334610
1182.229, 0.8469770
1182.711, 1.232567
1183.193, 1.489784
1183.675, 1.171059
1184.157, 0.5941010
1184.639, 0.3488160
1185.122, 0.4640810
1185.604, 0.5830000
1186.086, 0.6141660
1186.568, 0.6585690
1187.050, 0.7175980
1187.532, 0.8151320
1188.014, 1.010269
1188.496, 1.200081
1188.979, 1.363678
1189.461, 1.436584
1189.943, 1.188171
1190.425, 0.3611760
1190.907, 0.1943590
1191.389, 1.086685
1191.871, 1.587341
1192.353, 1.328842
1192.835, 1.067253
1193.318, 1.191643
1193.800, 1.461006
1194.282, 1.598846
1194.764, 1.615967
1195.246, 1.510605
1195.728, 1.292801
1196.210, 1.292152
1196.692, 1.505402
1197.174, 1.523102
1197.657, 1.251015
1198.139, 0.9485470
1198.621, 0.7682190
1199.103, 0.7450330
1199.585, 0.9234850
1200.067, 1.289566
1200.549, 2.074890
1201.031, 2.921844
1201.514, 2.926125
1201.996, 2.260368
1202.478, 1.652451
1202.960, 1.324631
1203.442, 1.166550
1203.924, 1.126991
1204.406, 1.199524
1204.888, 1.394562
1205.370, 1.682617
1205.853, 2.168159
1206.335, 2.635155
1206.817, 2.784775
1207.299, 2.706352
1207.781, 2.671448
1208.263, 2.728394
1208.745, 2.907578
1209.227, 3.328377
1209.709, 3.701668
1210.192, 4.075874
1210.674, 4.255493
1211.156, 3.967651
1211.638, 3.606529
1212.120, 3.548813
1212.602, 3.745689
1213.084, 4.109894
1213.566, 4.816940
1214.049, 4.712357
1214.531, 3.515900
1215.013, 2.607918
1215.495, 2.257401
1215.977, 2.216026
1216.459, 2.421066
1216.941, 2.496765
1217.423, 1.900887
1217.906, 0.9488300
1218.388, 0.6488420
1218.870, 0.8863980
1219.352, 1.181709
1219.834, 1.468872
1220.316, 1.524925
1220.798, 1.343109
1221.280, 1.258408
1221.762, 1.458900
1222.245, 1.593224
1222.727, 1.192207
1223.209, 0.6574860
1223.691, 0.4278340
1224.173, 0.3547740
1224.655, 2.5620000E-02
1225.137, 0.2798160
1225.619, 0.8952870
1226.101, 3.283524
1226.584, 4.413155
1227.066, 2.952438
1227.548, 1.641678
1228.030, 1.531128
1228.512, 1.592331
1228.994, 1.576363
1229.476, 1.503044
1229.958, 1.365959
1230.441, 1.159554
1230.923, 0.8535610
1231.405, 0.4603650
1231.887, 0.2301790
1232.369, 0.2483830
1232.851, 0.1003110
1233.333, 0.3452070
1233.815, 0.5178990
1234.297, 0.2295910
1234.780, 0.2711110
1235.262, 0.8773120
1235.744, 1.356102
1236.226, 1.237717
1236.708, 0.6925510
1237.190, 0.3791810
1237.672, 0.2683640
1238.154, 0.4572140
1238.636, 0.8328630
1239.119, 0.9455260
1239.601, 0.6972050
1240.083, 0.4139400
1240.565, 0.3087230
1241.047, 0.2354350
1241.529, 0.1525880
1242.011, 0.3670350
1242.493, 0.3704830
1242.975, 1.336617
1243.458, 1.648773
1243.940, 1.447014
1244.422, 1.115623
1244.904, 0.7692950
1245.386, 0.7887500
1245.868, 1.880463
1246.350, 2.203918
1246.832, 0.4870380
1247.315, 0.7329250
1247.797, 0.2691350
1248.279, 0.5685650
1248.761, 0.9185940
1249.243, 0.9955140
1249.725, 1.178421
1250.207, 1.460098
1250.689, 1.775307
1251.172, 2.139114
1251.654, 2.259941
1252.136, 2.128586
1252.618, 1.890633
1253.100, 1.589554
1253.582, 1.319572
1254.064, 1.120445
1254.546, 1.046837
1255.028, 1.273438
1255.510, 1.701157
1255.993, 1.925278
1256.475, 2.008728
1256.957, 2.102875
1257.439, 2.139496
1257.921, 1.825470
1258.403, 1.199509
1258.885, 0.7386170
1259.367, 0.6667020
1259.850, 0.9917910
1260.332, 1.811447
1260.814, 2.418396
1261.296, 2.405365
1261.778, 2.199829
1262.260, 1.976608
1262.742, 1.796219
1263.224, 1.664474
1263.707, 1.828461
1264.189, 1.847137
1264.671, 1.581970
1265.153, 1.573807
1265.635, 1.925735
1266.117, 1.684906
1266.599, 1.195953
1267.081, 0.8573760
1267.563, 1.051636
1268.046, 1.411560
1268.528, 1.528717
1269.010, 1.470215
1269.492, 1.376862
1269.974, 1.255554
1270.456, 0.9713590
1270.938, 0.6495510
1271.420, 0.6525570
1271.902, 0.9681240
1272.385, 1.427582
1272.867, 1.939651
1273.349, 2.112930
1273.831, 1.466904
1274.313, 0.7823790
1274.795, 0.2677920
1275.277, 5.0034001E-02
1275.759, 0.4472050
1276.242, 0.9895940
1276.724, 1.128632
1277.206, 0.9796300
1277.688, 1.003387
1278.170, 1.246933
1278.652, 1.235260
1279.134, 0.8835750
1279.616, 0.5595090
1280.099, 0.2632450
1280.581, 0.2574310
1281.063, 0.6814420
1281.545, 1.011581
1282.027, 0.8203430
1282.509, 0.3858800
1282.991, 0.1088410
1283.473, 6.3020000E-03
1283.955, 0.0000000E+00
##END=



