##NAMES=Aenigmatite
##RRUFFID=R061089
##IDEAL CHEMISTRY=Na_4_(Fe^2+^_10_Ti_2_)O_4_[Si_12_O_36_]
##LOCALITY=Eveslogchorr, Khibiny Massif, Kola Peninsula, Russia
##OWNER=RRUFF
##SOURCE=Michael Scott
##DESCRIPTION=Black prismatic crystals embedded in eucryptite with astrophyllite and magnesioriebeckite
##STATUS=The identification of this mineral is confirmed by single-crystal X-ray diffraction and chemical analysis.
##URL=rruff.info/R061089
##MEASURED CHEMISTRY=Na_2.00_(Fe^2+^_4.08_Mn_0.51_Fe^3+^_0.21_Mg_0.16_Ca_0.03_Cr^3+^_0.01_)_Σ=5_Ti_1.00_(Si_5.78_Al_0.22_)_Σ=6.00_O_20_
117.7079, 0.0000000E+00
118.1900, 1.720215
118.6721, 5.056335
119.1542, 18.20972
119.6363, 34.34790
120.1185, 46.39221
120.6006, 62.42444
121.0827, 89.85815
121.5648, 128.3152
122.0469, 166.9280
122.5290, 193.2480
123.0111, 214.0895
123.4933, 242.2579
123.9754, 291.9703
124.4575, 349.0842
124.9396, 395.0607
125.4217, 425.7889
125.9038, 452.0103
126.3860, 472.5723
126.8681, 474.9834
127.3502, 469.3528
127.8323, 472.9952
128.3144, 481.3942
128.7966, 482.6517
129.2787, 472.5371
129.7608, 457.6288
130.2429, 452.8593
130.7250, 458.1450
131.2071, 457.6597
131.6892, 434.9510
132.1714, 392.3285
132.6535, 346.5089
133.1356, 296.5536
133.6177, 245.4833
134.0998, 216.1219
134.5819, 211.2164
135.0641, 214.6344
135.5462, 185.5995
136.0283, 192.1829
136.5104, 192.5365
136.9925, 186.9930
137.4746, 157.6676
137.9568, 159.2075
138.4389, 148.4677
138.9210, 137.2809
139.4031, 143.3350
139.8852, 117.7751
140.3673, 123.6603
140.8495, 117.0581
141.3316, 114.8029
141.8137, 115.3804
142.2958, 113.9895
142.7779, 111.2892
143.2600, 111.5493
143.7422, 115.4125
144.2243, 121.5486
144.7064, 129.5125
145.1885, 143.8693
145.6706, 152.9652
146.1527, 154.4022
146.6349, 147.6262
147.1170, 138.2247
147.5991, 120.7368
148.0812, 104.4578
148.5633, 97.76196
149.0454, 104.3984
149.5276, 118.4359
150.0097, 136.2908
150.4918, 171.2535
150.9739, 190.5594
151.4560, 179.0167
151.9381, 152.0247
152.4203, 142.1094
152.9024, 170.3076
153.3845, 200.4592
153.8666, 217.0734
154.3487, 209.6825
154.8308, 199.8759
155.3130, 188.7935
155.7951, 176.9196
156.2772, 166.3170
156.7593, 152.8204
157.2414, 143.3342
157.7235, 142.5883
158.2057, 164.3899
158.6878, 182.7053
159.1699, 187.4814
159.6520, 178.5038
160.1341, 173.3546
160.6162, 180.9104
161.0983, 194.3658
161.5805, 206.2778
162.0626, 218.6827
162.5447, 225.6013
163.0268, 221.7485
163.5089, 204.4226
163.9910, 189.0482
164.4732, 186.2548
164.9553, 190.1091
165.4374, 190.3003
165.9195, 178.1608
166.4016, 162.9877
166.8837, 151.2545
167.3659, 144.1332
167.8480, 140.1117
168.3301, 140.6525
168.8122, 144.0616
169.2943, 145.1868
169.7764, 141.2858
170.2586, 133.4635
170.7407, 122.4971
171.2228, 107.0258
171.7049, 90.54749
172.1870, 74.46716
172.6691, 60.06494
173.1513, 51.42480
173.6334, 54.14136
174.1155, 60.27039
174.5976, 61.02551
175.0797, 45.68738
175.5618, 21.53625
176.0440, 7.955200
176.5261, 5.138672
177.0082, 4.393188
177.4903, 3.476196
177.9724, 15.64551
178.4545, 24.29041
178.9367, 21.85168
179.4188, 14.36865
179.9009, 14.31042
180.3830, 23.89355
180.8651, 32.59656
181.3472, 24.72412
181.8294, 4.035400
182.3115, 12.81482
182.7936, 12.27344
183.2757, 1.250732
183.7578, 0.3464360
184.2399, 12.36658
184.7221, 27.96570
185.2042, 25.61511
185.6863, 6.457886
186.1684, 11.27454
186.6505, 14.58350
187.1326, 5.881104
187.6148, 4.319824
188.0969, 15.06567
188.5790, 25.75342
189.0611, 36.56433
189.5432, 47.62354
190.0253, 55.12402
190.5075, 53.47021
190.9896, 43.74280
191.4717, 37.22083
191.9538, 36.61023
192.4359, 40.86768
192.9180, 47.76355
193.4001, 58.02832
193.8823, 67.04419
194.3644, 68.25745
194.8465, 61.55115
195.3286, 57.64331
195.8107, 61.17737
196.2928, 70.72021
196.7750, 74.95947
197.2571, 73.02271
197.7392, 68.29895
198.2213, 63.34460
198.7034, 57.58472
199.1855, 56.52808
199.6677, 63.49207
200.1498, 78.46387
200.6319, 92.48401
201.1140, 105.9536
201.5961, 117.7423
202.0782, 125.8728
202.5604, 130.0452
203.0425, 131.9490
203.5246, 132.2218
204.0067, 130.8702
204.4888, 127.3778
204.9709, 120.4532
205.4531, 112.5012
205.9352, 109.1350
206.4173, 110.8174
206.8994, 115.4725
207.3815, 122.8767
207.8636, 133.9952
208.3458, 143.2761
208.8279, 150.8748
209.3100, 156.2264
209.7921, 157.2450
210.2742, 153.2909
210.7563, 146.3746
211.2385, 136.3464
211.7206, 120.8109
212.2027, 111.2202
212.6848, 110.8284
213.1669, 117.6551
213.6490, 120.3224
214.1312, 117.7533
214.6133, 112.8288
215.0954, 107.3975
215.5775, 100.8997
216.0596, 95.65918
216.5417, 92.56677
217.0239, 91.44366
217.5060, 89.27661
217.9881, 87.45465
218.4702, 82.75854
218.9523, 70.30151
219.4344, 44.10034
219.9166, 24.77606
220.3987, 17.68152
220.8808, 23.29730
221.3629, 28.86224
221.8450, 35.90729
222.3271, 41.29462
222.8092, 40.66919
223.2914, 30.64764
223.7735, 21.31818
224.2556, 14.72162
224.7377, 10.69598
225.2198, 10.67920
225.7020, 18.21442
226.1841, 26.90082
226.6662, 27.00366
227.1483, 13.02264
227.6304, 8.2764000E-02
228.1125, 7.802979
228.5947, 10.00604
229.0768, 9.058594
229.5589, 2.046570
230.0410, 6.362061
230.5231, 7.774414
231.0052, 2.141418
231.4874, 12.09760
231.9695, 18.17603
232.4516, 19.58759
232.9337, 19.91736
233.4158, 19.38660
233.8979, 17.62921
234.3801, 13.20581
234.8622, 2.350952
235.3443, 5.502502
235.8264, 5.803528
236.3085, 5.582397
236.7906, 14.60944
237.2728, 21.87964
237.7549, 26.71448
238.2370, 26.80316
238.7191, 20.20282
239.2012, 11.01044
239.6833, 0.8813480
240.1655, 10.36560
240.6476, 20.69916
241.1297, 30.61920
241.6118, 39.54785
242.0939, 45.17297
242.5760, 45.01392
243.0582, 44.89349
243.5403, 48.17596
244.0224, 57.14691
244.5045, 63.82086
244.9866, 67.34204
245.4687, 68.43170
245.9509, 70.69867
246.4330, 74.74506
246.9151, 79.20264
247.3972, 83.90552
247.8793, 91.37549
248.3614, 92.88074
248.8436, 82.77881
249.3257, 65.16254
249.8078, 63.58154
250.2899, 89.36389
250.7720, 116.2817
251.2541, 125.2952
251.7363, 103.8985
252.2184, 92.17145
252.7005, 98.65503
253.1826, 119.5573
253.6647, 126.8173
254.1468, 112.9177
254.6289, 95.43768
255.1111, 87.55115
255.5932, 94.14716
256.0753, 99.01544
256.5574, 99.37927
257.0395, 95.93567
257.5216, 95.13422
258.0038, 97.40918
258.4859, 101.6874
258.9680, 107.4891
259.4501, 115.9049
259.9322, 123.4380
260.4143, 130.7725
260.8965, 137.4211
261.3786, 137.5699
261.8607, 129.0770
262.3428, 117.5032
262.8249, 106.2106
263.3070, 93.59814
263.7892, 86.67670
264.2713, 88.62799
264.7534, 98.31812
265.2355, 103.4996
265.7176, 102.5106
266.1997, 99.98206
266.6819, 99.78693
267.1640, 102.2372
267.6461, 106.1086
268.1282, 111.6803
268.6103, 118.6823
269.0924, 124.7145
269.5746, 130.1602
270.0567, 133.9059
270.5388, 133.9320
271.0209, 128.7803
271.5030, 126.0468
271.9851, 127.0575
272.4673, 131.7375
272.9494, 140.6597
273.4315, 155.6992
273.9136, 170.4337
274.3957, 178.1705
274.8778, 177.7167
275.3600, 177.1661
275.8421, 178.0890
276.3242, 180.3770
276.8063, 183.2643
277.2884, 186.6627
277.7705, 190.9837
278.2527, 197.3777
278.7348, 206.1475
279.2169, 213.3398
279.6990, 218.0585
280.1811, 220.3925
280.6632, 220.2468
281.1454, 216.8712
281.6275, 213.9036
282.1096, 214.9888
282.5917, 220.3199
283.0738, 226.8582
283.5559, 233.1202
284.0381, 239.9033
284.5202, 252.2627
285.0023, 271.5198
285.4844, 288.0643
285.9665, 288.2162
286.4486, 273.6464
286.9308, 268.7476
287.4129, 283.3614
287.8950, 311.1412
288.3771, 332.5287
288.8592, 347.1030
289.3413, 355.6680
289.8235, 358.6498
290.3056, 356.2363
290.7877, 332.4432
291.2698, 351.2893
291.7519, 365.1760
292.2340, 374.5450
292.7162, 365.4641
293.1983, 381.4431
293.6804, 404.9901
294.1625, 405.4680
294.6446, 405.7960
295.1267, 411.2114
295.6089, 417.9966
296.0910, 417.3283
296.5731, 410.0426
297.0552, 404.9100
297.5373, 411.2836
298.0194, 425.1959
298.5016, 437.4141
298.9836, 447.2107
299.4658, 451.8149
299.9479, 441.8783
300.4300, 419.4089
300.9121, 402.0029
301.3942, 408.1366
301.8763, 427.3586
302.3585, 440.7937
302.8406, 443.9257
303.3227, 439.6976
303.8048, 427.7250
304.2869, 409.6436
304.7690, 393.7779
305.2512, 385.9291
305.7333, 383.3701
306.2154, 382.8359
306.6975, 385.1085
307.1796, 386.7810
307.6617, 385.7723
308.1439, 381.9164
308.6260, 374.4545
309.1081, 344.7672
309.5902, 352.1769
310.0723, 353.2742
310.5544, 348.3975
311.0366, 319.6633
311.5187, 321.7282
312.0008, 311.4467
312.4829, 300.6550
312.9650, 307.0461
313.4471, 281.7661
313.9293, 287.8766
314.4114, 281.4523
314.8935, 280.7615
315.3756, 267.6467
315.8577, 258.3655
316.3398, 261.5051
316.8220, 237.2205
317.3041, 226.0176
317.7862, 217.7696
318.2683, 212.9662
318.7504, 209.8647
319.2325, 212.4690
319.7147, 215.9700
320.1968, 211.7829
320.6789, 185.4695
321.1610, 160.7559
321.6431, 148.8730
322.1252, 155.5130
322.6074, 161.0776
323.0895, 161.9532
323.5716, 159.6650
324.0537, 156.4204
324.5358, 151.8953
325.0179, 147.1487
325.5001, 143.2570
325.9822, 141.7342
326.4643, 135.7524
326.9464, 119.2947
327.4285, 100.1396
327.9106, 87.71033
328.3928, 92.82843
328.8749, 92.88489
329.3570, 79.32910
329.8391, 47.66333
330.3212, 32.54340
330.8033, 46.00806
331.2855, 67.87079
331.7676, 78.14984
332.2497, 70.84161
332.7318, 61.72253
333.2139, 53.50201
333.6960, 46.15118
334.1782, 37.36761
334.6603, 25.51154
335.1424, 14.26117
335.6245, 6.834229
336.1066, 4.140869
336.5887, 2.864929
337.0709, 2.857544
337.5530, 3.864197
338.0351, 4.414978
338.5172, 4.592468
338.9993, 3.910278
339.4814, 0.9735110
339.9636, 4.943848
340.4457, 6.314575
340.9278, 1.6845999E-02
341.4099, 10.19489
341.8920, 12.00732
342.3741, 4.466675
342.8563, 3.965088
343.3384, 8.466736
343.8205, 8.548035
344.3026, 4.161011
344.7847, 7.285278
345.2668, 20.05017
345.7490, 20.81726
346.2311, 10.11078
346.7132, 0.1595460
347.1953, 3.641724
347.6774, 1.037903
348.1595, 6.750732
348.6417, 20.88141
349.1238, 35.73920
349.6059, 46.21503
350.0880, 52.19055
350.5701, 53.04138
351.0522, 42.17969
351.5344, 27.76117
352.0165, 24.02527
352.4986, 32.24396
352.9807, 45.17218
353.4628, 61.19318
353.9449, 77.57336
354.4271, 87.94855
354.9092, 84.12518
355.3913, 75.76489
355.8734, 71.50787
356.3555, 71.75836
356.8376, 75.87604
357.3198, 89.57013
357.8019, 105.7349
358.2840, 115.0476
358.7661, 104.2991
359.2482, 92.72052
359.7303, 91.76239
360.2125, 101.4794
360.6946, 113.9581
361.1767, 130.6661
361.6588, 142.3946
362.1409, 145.2252
362.6230, 127.1328
363.1051, 113.1533
363.5872, 114.5909
364.0694, 127.2034
364.5515, 133.7011
365.0336, 122.7778
365.5157, 110.2665
365.9978, 104.2357
366.4799, 109.4233
366.9621, 115.1667
367.4442, 123.0087
367.9263, 130.8089
368.4084, 133.2684
368.8905, 125.6151
369.3727, 117.1251
369.8548, 110.5399
370.3369, 105.8052
370.8190, 102.9183
371.3011, 102.0208
371.7832, 102.8783
372.2654, 106.4990
372.7475, 119.1191
373.2296, 122.2285
373.7117, 105.5585
374.1938, 66.49841
374.6759, 51.14246
375.1581, 68.96588
375.6402, 95.03699
376.1223, 100.3939
376.6044, 80.84515
377.0865, 63.97504
377.5686, 56.36206
378.0508, 56.24402
378.5329, 56.39447
379.0150, 57.22101
379.4971, 56.21936
379.9792, 48.32379
380.4613, 34.55109
380.9435, 28.69702
381.4256, 34.88049
381.9077, 47.59235
382.3898, 57.20294
382.8719, 63.78552
383.3540, 67.48315
383.8362, 64.59576
384.3183, 59.04102
384.8004, 62.96527
385.2825, 80.63800
385.7646, 97.62823
386.2467, 93.29095
386.7289, 74.16351
387.2110, 59.21716
387.6931, 65.12799
388.1752, 76.63733
388.6573, 74.81281
389.1394, 57.72681
389.6216, 40.89276
390.1037, 35.28497
390.5858, 36.77008
391.0679, 39.55414
391.5500, 43.74066
392.0321, 46.76099
392.5143, 46.96814
392.9964, 44.45856
393.4785, 40.86456
393.9606, 36.72498
394.4427, 31.85486
394.9248, 26.07965
395.4070, 14.34882
395.8891, 7.299866
396.3712, 11.53210
396.8533, 23.36481
397.3354, 28.96771
397.8175, 15.78680
398.2997, 4.296509
398.7818, 5.074646
399.2639, 32.98462
399.7460, 45.53986
400.2281, 31.56378
400.7102, 5.260803
401.1924, 7.514893
401.6745, 1.087402
402.1566, 12.07886
402.6387, 20.55023
403.1208, 26.29449
403.6029, 28.46021
404.0851, 25.60107
404.5672, 20.95233
405.0493, 19.07196
405.5314, 21.70642
406.0135, 20.04242
406.4956, 10.06415
406.9778, 5.719177
407.4599, 14.92975
407.9420, 16.95502
408.4241, 15.95532
408.9062, 15.27008
409.3883, 14.62799
409.8705, 11.30505
410.3526, 3.625549
410.8347, 4.646667
411.3168, 5.580688
411.7989, 0.2091670
412.2810, 3.612549
412.7632, 2.162903
413.2453, 11.63177
413.7274, 13.67542
414.2095, 6.640442
414.6916, 3.323792
415.1737, 14.08368
415.6559, 23.67059
416.1380, 27.96326
416.6201, 18.28546
417.1022, 7.917236
417.5843, 11.91364
418.0664, 29.52087
418.5486, 36.05005
419.0307, 3.726868
419.5128, 38.40369
419.9949, 63.89044
420.4770, 47.72180
420.9591, 34.06946
421.4413, 38.99634
421.9234, 57.35083
422.4055, 69.84106
422.8876, 69.46857
423.3697, 64.79974
423.8518, 58.77155
424.3339, 47.35876
424.8160, 43.15576
425.2982, 50.42737
425.7803, 63.54431
426.2624, 74.02838
426.7445, 83.37537
427.2266, 87.75092
427.7087, 84.21497
428.1909, 71.93408
428.6730, 66.72583
429.1551, 71.70996
429.6372, 78.29565
430.1193, 77.39337
430.6014, 67.46161
431.0836, 59.62927
431.5657, 55.22021
432.0478, 54.64789
432.5299, 60.80933
433.0120, 74.21460
433.4941, 87.37982
433.9763, 96.57526
434.4584, 101.5814
434.9405, 99.28015
435.4226, 87.06036
435.9047, 75.73547
436.3868, 83.92938
436.8690, 105.5556
437.3511, 121.2617
437.8332, 117.1451
438.3153, 104.6136
438.7974, 96.66296
439.2795, 93.66675
439.7617, 91.41370
440.2438, 87.32446
440.7259, 82.22491
441.2080, 76.97760
441.6901, 70.06641
442.1722, 65.07104
442.6544, 64.83716
443.1365, 68.19049
443.6186, 70.89978
444.1007, 71.38727
444.5828, 70.96075
445.0649, 69.94226
445.5471, 67.16486
446.0292, 66.53809
446.5113, 72.74121
446.9934, 80.17444
447.4755, 80.16199
447.9576, 62.19360
448.4398, 50.57703
448.9219, 52.95740
449.4040, 69.77753
449.8861, 79.18011
450.3682, 78.07098
450.8503, 74.06573
451.3325, 74.13910
451.8146, 79.86316
452.2967, 81.15289
452.7788, 75.60358
453.2609, 65.86786
453.7430, 57.28778
454.2252, 49.92676
454.7073, 46.69159
455.1894, 52.89099
455.6715, 65.16840
456.1536, 68.68396
456.6357, 61.95740
457.1179, 52.91736
457.6000, 50.35980
458.0821, 52.07538
458.5642, 52.17822
459.0463, 47.01263
459.5284, 40.73633
460.0106, 34.11334
460.4927, 27.62115
460.9748, 26.21588
461.4569, 37.54779
461.9390, 52.85278
462.4211, 64.36060
462.9033, 70.47754
463.3854, 72.83850
463.8675, 69.25397
464.3496, 62.51746
464.8317, 57.42914
465.3138, 55.80060
465.7960, 56.01953
466.2781, 58.69177
466.7602, 64.78156
467.2423, 67.36975
467.7244, 61.82324
468.2065, 56.60681
468.6887, 59.65833
469.1708, 81.70782
469.6529, 88.13513
470.1350, 67.66327
470.6171, 30.64819
471.0992, 14.24396
471.5814, 23.21680
472.0635, 37.28339
472.5456, 46.68927
473.0277, 51.14246
473.5098, 54.19537
473.9919, 56.60425
474.4741, 57.57513
474.9562, 52.49548
475.4383, 41.97034
475.9204, 34.52893
476.4025, 35.81024
476.8846, 44.05750
477.3668, 52.32172
477.8489, 59.85565
478.3310, 64.90112
478.8131, 64.65710
479.2952, 61.84363
479.7773, 59.46222
480.2595, 57.75549
480.7416, 57.38281
481.2237, 58.24335
481.7058, 60.76392
482.1879, 65.70734
482.6700, 77.09692
483.1522, 87.49390
483.6343, 93.51300
484.1164, 94.87177
484.5985, 95.45026
485.0806, 96.49225
485.5627, 96.43115
486.0448, 94.23456
486.5269, 89.10773
487.0091, 82.81079
487.4912, 73.22467
487.9733, 63.13055
488.4554, 60.50958
488.9375, 68.45410
489.4196, 75.86853
489.9018, 78.99158
490.3839, 77.87506
490.8660, 69.57013
491.3481, 51.40894
491.8302, 35.94836
492.3123, 41.94446
492.7945, 65.44031
493.2766, 78.92773
493.7587, 72.65808
494.2408, 57.20776
494.7229, 46.22620
495.2050, 39.99677
495.6872, 40.63464
496.1693, 60.35223
496.6514, 82.00385
497.1335, 83.42334
497.6156, 59.73083
498.0977, 35.98425
498.5799, 27.20160
499.0620, 27.51843
499.5441, 29.83496
500.0262, 33.51611
500.5083, 37.28760
500.9904, 42.69495
501.4726, 48.68066
501.9547, 49.44092
502.4368, 39.13855
502.9189, 27.48883
503.4010, 18.48303
503.8831, 12.33478
504.3653, 8.072571
504.8474, 4.964600
505.3295, 4.311523
505.8116, 8.780090
506.2937, 20.16016
506.7758, 29.92090
507.2580, 35.27808
507.7401, 37.57037
508.2222, 43.78229
508.7043, 54.44049
509.1864, 63.28998
509.6685, 64.62799
510.1507, 60.39301
510.6328, 56.81085
511.1149, 54.35730
511.5970, 53.70587
512.0792, 56.59821
512.5613, 61.89014
513.0434, 66.96216
513.5255, 69.53052
514.0076, 72.35956
514.4897, 76.27209
514.9718, 81.93805
515.4539, 92.38654
515.9360, 118.6274
516.4182, 144.1799
516.9003, 156.4810
517.3824, 144.1783
517.8645, 135.4587
518.3466, 136.6844
518.8287, 144.7361
519.3109, 153.9548
519.7930, 167.9823
520.2751, 177.6786
520.7572, 179.3879
521.2393, 174.0454
521.7214, 171.9889
522.2036, 173.0789
522.6857, 176.5161
523.1678, 185.0365
523.6499, 199.5510
524.1320, 206.1839
524.6141, 201.0755
525.0963, 192.3111
525.5784, 192.0516
526.0605, 199.2576
526.5426, 207.6699
527.0247, 214.9397
527.5068, 222.2198
527.9890, 232.1351
528.4711, 244.0309
528.9532, 253.1672
529.4353, 253.7721
529.9174, 250.6256
530.3995, 249.3090
530.8817, 253.6526
531.3638, 258.1458
531.8459, 260.7621
532.3280, 258.3033
532.8101, 251.2029
533.2922, 234.1437
533.7744, 218.1072
534.2565, 202.8843
534.7386, 189.3004
535.2207, 185.9433
535.7028, 199.7599
536.1849, 213.7124
536.6671, 218.6426
537.1492, 212.3887
537.6313, 206.8043
538.1134, 201.6899
538.5955, 197.6323
539.0776, 195.6944
539.5598, 195.7904
540.0419, 196.3970
540.5240, 197.4087
541.0061, 198.3650
541.4882, 198.2771
541.9703, 197.2540
542.4525, 195.9347
542.9346, 197.5892
543.4167, 197.7997
543.8988, 188.5449
544.3809, 167.0130
544.8630, 151.2969
545.3452, 157.6935
545.8273, 173.4062
546.3094, 184.2556
546.7915, 179.6581
547.2736, 177.1592
547.7557, 183.3624
548.2379, 195.5233
548.7200, 201.9473
549.2021, 200.2221
549.6842, 195.1990
550.1663, 186.9817
550.6484, 174.4255
551.1306, 169.1202
551.6127, 173.7189
552.0948, 180.3046
552.5769, 180.8433
553.0590, 175.2260
553.5411, 168.2068
554.0233, 159.1946
554.5054, 151.4836
554.9875, 152.9006
555.4696, 161.8026
555.9517, 169.9409
556.4338, 174.0151
556.9160, 174.3596
557.3981, 170.3223
557.8802, 162.0429
558.3623, 153.1409
558.8444, 146.6472
559.3265, 140.0275
559.8087, 130.4573
560.2908, 113.8702
560.7729, 101.0304
561.2550, 97.01703
561.7371, 98.02490
562.2192, 97.55408
562.7014, 95.98865
563.1835, 91.79962
563.6656, 82.80096
564.1477, 69.85358
564.6298, 64.12915
565.1119, 68.77704
565.5941, 72.75250
566.0762, 67.38684
566.5583, 52.88220
567.0404, 43.25879
567.5225, 39.65222
568.0046, 39.16779
568.4868, 38.59296
568.9689, 38.24518
569.4510, 39.71362
569.9331, 46.73077
570.4152, 51.70306
570.8973, 44.11688
571.3795, 27.26263
571.8616, 11.77802
572.3437, 4.344421
572.8258, 0.8279420
573.3079, 8.610352
573.7900, 20.56744
574.2722, 26.21088
574.7543, 16.22693
575.2364, 3.272644
575.7185, 2.691040
576.2006, 2.923340
576.6827, 8.292175
577.1649, 13.40521
577.6470, 17.80304
578.1291, 20.59021
578.6112, 21.94006
579.0933, 20.56976
579.5754, 13.37708
580.0576, 3.404175
580.5397, 6.304565
581.0218, 22.16199
581.5039, 37.11078
581.9860, 38.57166
582.4681, 31.99377
582.9503, 27.11444
583.4324, 25.10522
583.9145, 24.84235
584.3966, 26.83667
584.8787, 29.64026
585.3608, 31.26068
585.8430, 32.60382
586.3251, 30.98651
586.8072, 20.03558
587.2893, 4.271729
587.7714, 4.2174999E-02
588.2535, 30.28741
588.7357, 50.28455
589.2178, 42.07086
589.6999, 1.691406
590.1820, 24.34064
590.6641, 33.50958
591.1462, 33.90356
591.6284, 29.95197
592.1105, 21.54462
592.5926, 15.80176
593.0747, 13.12421
593.5568, 14.30450
594.0389, 22.18500
594.5211, 35.33984
595.0032, 48.31055
595.4853, 60.07489
595.9674, 69.75879
596.4495, 73.65753
596.9316, 73.62512
597.4138, 78.28870
597.8959, 100.6611
598.3780, 122.4186
598.8601, 130.6522
599.3422, 120.3351
599.8243, 113.5732
600.3065, 114.6437
600.7886, 120.1035
601.2707, 127.0339
601.7528, 133.9377
602.2349, 146.3324
602.7170, 167.6265
603.1992, 191.9356
603.6813, 205.2266
604.1634, 206.5065
604.6455, 209.2004
605.1276, 219.9898
605.6097, 234.8920
606.0919, 242.3135
606.5740, 242.9163
607.0561, 243.7995
607.5382, 250.5950
608.0203, 260.1433
608.5024, 269.2681
608.9846, 277.6995
609.4667, 284.5198
609.9488, 288.9488
610.4309, 291.7407
610.9130, 293.5704
611.3951, 291.4824
611.8773, 292.3745
612.3594, 298.8297
612.8415, 308.7253
613.3236, 317.2429
613.8057, 323.3074
614.2878, 330.7682
614.7700, 342.7866
615.2521, 357.5038
615.7342, 359.3257
616.2163, 346.1956
616.6984, 335.4072
617.1805, 340.7729
617.6627, 358.1086
618.1448, 375.7775
618.6269, 392.9926
619.1090, 408.9351
619.5911, 422.6519
620.0732, 434.8459
620.5554, 446.4147
621.0375, 454.8940
621.5196, 466.6509
622.0017, 487.9136
622.4838, 514.2172
622.9659, 535.8994
623.4481, 544.6458
623.9302, 555.8911
624.4123, 574.7156
624.8944, 600.0825
625.3765, 619.7173
625.8586, 627.9105
626.3408, 643.4783
626.8229, 679.6615
627.3050, 736.0570
627.7871, 793.8252
628.2692, 853.5005
628.7513, 909.4988
629.2335, 950.1143
629.7156, 982.2996
630.1977, 1022.910
630.6798, 1078.300
631.1619, 1136.743
631.6440, 1188.166
632.1262, 1236.228
632.6083, 1287.130
633.0904, 1346.514
633.5725, 1406.201
634.0546, 1464.123
634.5367, 1519.826
635.0189, 1567.612
635.5010, 1594.485
635.9831, 1630.087
636.4652, 1690.385
636.9473, 1778.016
637.4294, 1854.063
637.9116, 1914.359
638.3937, 1973.489
638.8757, 2053.420
639.3578, 2146.490
639.8400, 2211.793
640.3221, 2238.341
640.8042, 2253.117
641.2863, 2281.454
641.7684, 2320.395
642.2505, 2365.030
642.7327, 2425.857
643.2148, 2479.292
643.6969, 2514.227
644.1790, 2532.035
644.6611, 2539.919
645.1432, 2531.169
645.6254, 2520.205
646.1075, 2511.262
646.5896, 2505.015
647.0717, 2491.747
647.5538, 2473.255
648.0359, 2447.587
648.5181, 2412.669
649.0002, 2368.344
649.4823, 2329.653
649.9644, 2298.276
650.4465, 2267.800
650.9286, 2230.768
651.4108, 2189.497
651.8929, 2150.622
652.3750, 2119.997
652.8571, 2083.713
653.3392, 2024.433
653.8214, 1952.456
654.3035, 1886.791
654.7856, 1835.599
655.2677, 1789.832
655.7498, 1750.813
656.2319, 1716.982
656.7141, 1675.185
657.1962, 1620.152
657.6783, 1565.586
658.1604, 1516.822
658.6425, 1473.888
659.1246, 1437.452
659.6068, 1408.593
660.0889, 1380.058
660.5710, 1339.577
661.0531, 1294.106
661.5352, 1266.783
662.0173, 1262.883
662.4995, 1263.986
662.9816, 1257.180
663.4637, 1243.098
663.9458, 1222.019
664.4279, 1185.446
664.9100, 1153.085
665.3922, 1133.430
665.8743, 1122.345
666.3564, 1110.674
666.8385, 1099.727
667.3206, 1084.903
667.8027, 1062.192
668.2849, 1034.501
668.7670, 1017.811
669.2491, 1012.330
669.7312, 1017.013
670.2133, 1038.456
670.6954, 1070.162
671.1776, 1086.560
671.6597, 1087.240
672.1418, 1082.861
672.6239, 1082.298
673.1060, 1081.277
673.5881, 1072.891
674.0703, 1052.833
674.5524, 1037.527
675.0345, 1042.560
675.5166, 1052.040
675.9987, 1048.553
676.4808, 1009.054
676.9630, 986.6917
677.4451, 993.0703
677.9272, 1012.559
678.4093, 1012.028
678.8914, 986.7288
679.3735, 967.4357
679.8557, 963.8083
680.3378, 970.9550
680.8199, 980.5242
681.3020, 991.5549
681.7841, 996.7122
682.2662, 989.8058
682.7484, 976.1710
683.2305, 958.1982
683.7126, 936.5919
684.1947, 920.7876
684.6768, 916.0583
685.1589, 917.5623
685.6411, 924.9857
686.1232, 944.5120
686.6053, 950.1376
687.0874, 935.6554
687.5695, 912.9652
688.0516, 892.3516
688.5338, 874.1714
689.0159, 855.4026
689.4980, 836.1566
689.9801, 814.3925
690.4622, 783.8894
690.9443, 748.6627
691.4265, 721.5887
691.9086, 711.8173
692.3907, 703.3221
692.8728, 683.1796
693.3549, 653.5035
693.8370, 619.0199
694.3192, 565.6606
694.8013, 523.0927
695.2834, 510.1864
695.7655, 522.3035
696.2476, 516.2081
696.7297, 482.5900
697.2119, 445.7750
697.6940, 414.7480
698.1761, 389.6420
698.6582, 371.6818
699.1403, 361.5116
699.6224, 350.3000
700.1046, 326.7081
700.5867, 297.7310
701.0688, 279.6986
701.5509, 274.8776
702.0330, 271.0112
702.5151, 263.5743
702.9973, 251.9550
703.4794, 234.5317
703.9615, 202.4421
704.4436, 179.1855
704.9257, 175.9065
705.4078, 180.7194
705.8900, 179.3303
706.3721, 170.4758
706.8542, 158.6569
707.3363, 143.2350
707.8184, 126.7055
708.3005, 117.7261
708.7827, 111.5237
709.2648, 120.0427
709.7469, 123.5790
710.2290, 122.3208
710.7111, 101.9304
711.1932, 106.1874
711.6754, 100.5718
712.1575, 94.55768
712.6396, 102.2946
713.1217, 84.71100
713.6038, 92.27661
714.0859, 89.79022
714.5681, 91.88599
715.0502, 70.04236
715.5323, 60.24158
716.0144, 49.75623
716.4965, 41.62384
716.9786, 35.54016
717.4608, 32.94342
717.9429, 41.76459
718.4250, 55.35889
718.9071, 48.00592
719.3892, 12.68774
719.8713, 18.02295
720.3535, 7.445251
720.8356, 20.70935
721.3177, 37.38947
721.7998, 25.49127
722.2819, 16.15106
722.7640, 20.04596
723.2462, 29.69952
723.7283, 34.16992
724.2104, 30.42236
724.6925, 28.42328
725.1746, 30.45795
725.6567, 34.40424
726.1389, 35.42505
726.6210, 33.55951
727.1031, 30.48633
727.5852, 23.31360
728.0673, 19.23584
728.5494, 34.90668
729.0316, 62.86572
729.5137, 80.10822
729.9958, 67.19720
730.4779, 50.34802
730.9600, 42.77039
731.4421, 45.00055
731.9243, 47.87604
732.4064, 49.88556
732.8885, 53.21039
733.3706, 60.16382
733.8527, 70.87018
734.3348, 73.77997
734.8170, 68.34479
735.2991, 59.62347
735.7812, 50.49854
736.2633, 41.34332
736.7454, 33.53345
737.2275, 27.25751
737.7097, 22.08051
738.1918, 17.52423
738.6739, 13.08997
739.1560, 8.864258
739.6381, 3.526733
740.1202, 2.209778
740.6024, 12.27063
741.0845, 22.84698
741.5666, 23.17096
742.0487, 10.01965
742.5308, 4.790039
743.0129, 22.03772
743.4951, 35.99530
743.9772, 33.27142
744.4593, 17.51147
744.9414, 8.706604
745.4235, 16.76367
745.9056, 27.11206
746.3878, 21.24109
746.8699, 6.867065
747.3520, 0.2703250
747.8341, 21.78101
748.3162, 38.21600
748.7983, 32.29657
749.2805, 11.76489
749.7626, 3.361511
750.2447, 12.08844
750.7268, 20.75262
751.2089, 24.82855
751.6910, 26.06561
752.1732, 29.59839
752.6553, 34.87640
753.1374, 36.31757
753.6195, 27.70569
754.1016, 14.44220
754.5837, 3.753845
755.0659, 3.692871
755.5480, 10.29895
756.0301, 22.28522
756.5122, 30.72626
756.9943, 28.85962
757.4764, 14.43964
757.9586, 4.373352
758.4407, 3.081543
758.9228, 3.733215
759.4049, 9.533936
759.8870, 36.84869
760.3691, 47.39532
760.8513, 39.41449
761.3334, 28.26715
761.8154, 28.62061
762.2975, 34.70581
762.7797, 36.41754
763.2618, 31.44989
763.7439, 27.73315
764.2260, 31.79254
764.7081, 37.75031
765.1902, 40.30499
765.6724, 37.28656
766.1545, 32.99359
766.6366, 25.02441
767.1187, 18.49573
767.6008, 20.89386
768.0829, 32.48834
768.5651, 41.37006
769.0472, 45.98999
769.5293, 46.66254
770.0114, 40.43890
770.4935, 30.97772
770.9756, 26.32312
771.4578, 32.38690
771.9399, 38.22833
772.4220, 38.27533
772.9041, 34.45691
773.3862, 29.82953
773.8683, 21.81213
774.3505, 17.56616
774.8326, 19.26489
775.3147, 24.28961
775.7968, 27.14935
776.2789, 27.79669
776.7610, 26.94354
777.2432, 23.74451
777.7253, 20.23181
778.2074, 21.24115
778.6895, 25.50366
779.1716, 29.50781
779.6537, 30.90143
780.1359, 32.38251
780.6180, 37.31726
781.1001, 44.00977
781.5822, 44.76129
782.0643, 34.35858
782.5464, 25.37634
783.0286, 21.17096
783.5107, 21.05243
783.9928, 23.97076
784.4749, 30.21246
784.9570, 31.20099
785.4391, 13.52338
785.9213, 8.169189
786.4034, 5.390259
786.8855, 17.55817
787.3676, 36.48132
787.8497, 37.23688
788.3318, 32.03564
788.8140, 25.70343
789.2961, 18.63403
789.7782, 15.16138
790.2603, 15.81744
790.7424, 19.37250
791.2245, 27.50482
791.7067, 39.18341
792.1888, 40.23480
792.6709, 30.31830
793.1530, 19.59967
793.6351, 15.75275
794.1172, 15.47968
794.5994, 12.86322
795.0815, 7.741943
795.5636, 7.268005
796.0457, 22.23926
796.5278, 37.06830
797.0099, 40.97937
797.4921, 31.23621
797.9742, 23.50201
798.4563, 17.13110
798.9384, 14.22510
799.4205, 18.15491
799.9026, 27.89844
800.3848, 33.76422
800.8669, 34.64038
801.3490, 33.14075
801.8311, 32.03790
802.3132, 32.02374
802.7953, 33.52856
803.2775, 36.70026
803.7596, 34.24164
804.2417, 17.37671
804.7238, 0.9990840
805.2059, 4.876099
805.6880, 2.045837
806.1702, 5.639404
806.6523, 7.528259
807.1344, 8.162842
807.6165, 2.987610
808.0986, 6.148132
808.5807, 4.836914
809.0629, 10.26825
809.5450, 23.13354
810.0271, 18.16803
810.5092, 4.992859
810.9913, 6.838074
811.4734, 16.83490
811.9556, 19.41583
812.4377, 7.792358
812.9198, 5.861938
813.4019, 11.03882
813.8840, 6.008789
814.3661, 2.054016
814.8483, 0.4345090
815.3304, 0.8433230
815.8125, 3.136047
816.2946, 9.034485
816.7767, 12.13818
817.2589, 11.99146
817.7410, 10.32220
818.2231, 7.095520
818.7052, 3.816040
819.1873, 2.011230
819.6694, 3.011414
820.1516, 3.551147
820.6337, 2.014282
821.1158, 2.031921
821.5979, 9.963196
822.0800, 25.56720
822.5621, 32.08575
823.0443, 26.04547
823.5264, 17.77063
824.0085, 17.13379
824.4906, 22.39050
824.9727, 32.39825
825.4548, 52.20966
825.9370, 63.56396
826.4191, 50.20074
826.9012, 30.56219
827.3833, 25.00677
827.8654, 42.86462
828.3475, 48.65790
828.8297, 36.92651
829.3118, 21.23883
829.7939, 16.57904
830.2760, 14.25287
830.7581, 28.18622
831.2402, 37.04224
831.7224, 41.02264
832.2045, 25.82068
832.6866, 35.28345
833.1687, 34.94727
833.6508, 34.23071
834.1329, 47.25891
834.6151, 34.93262
835.0972, 47.66467
835.5793, 50.29877
836.0614, 57.53259
836.5435, 65.59253
837.0256, 69.69763
837.5078, 66.55652
837.9899, 55.76941
838.4720, 43.41016
838.9541, 41.85785
839.4362, 56.93616
839.9183, 72.53375
840.4005, 83.74969
840.8826, 90.27014
841.3647, 91.02911
841.8468, 79.10614
842.3289, 77.98291
842.8110, 91.64685
843.2932, 108.2162
843.7753, 114.8385
844.2574, 113.6567
844.7395, 108.1931
845.2216, 96.65198
845.7037, 88.79633
846.1859, 95.44647
846.6680, 109.4348
847.1501, 123.0063
847.6322, 133.7996
848.1143, 146.9869
848.5964, 172.6098
849.0786, 192.3721
849.5607, 186.2173
850.0428, 148.9201
850.5249, 136.1492
851.0070, 153.4870
851.4891, 177.5904
851.9713, 184.2410
852.4534, 180.9337
852.9355, 178.4622
853.4176, 178.1396
853.8997, 183.3253
854.3818, 202.6644
854.8640, 222.1418
855.3461, 229.5449
855.8282, 220.8147
856.3103, 215.2296
856.7924, 212.6313
857.2745, 214.1263
857.7567, 226.6136
858.2388, 244.6131
858.7209, 239.1886
859.2030, 208.5359
859.6851, 185.2769
860.1672, 208.5770
860.6494, 240.3325
861.1315, 244.2120
861.6136, 210.1341
862.0957, 188.7482
862.5778, 190.9363
863.0599, 196.6072
863.5421, 196.3239
864.0242, 189.9562
864.5063, 179.9014
864.9884, 165.8820
865.4705, 155.0428
865.9526, 155.3956
866.4348, 160.9977
866.9169, 165.3162
867.3990, 167.2845
867.8811, 167.6393
868.3632, 160.7498
868.8453, 157.7464
869.3275, 167.3513
869.8096, 189.2881
870.2917, 194.3365
870.7738, 179.3406
871.2559, 166.4110
871.7380, 168.5894
872.2202, 181.8111
872.7023, 195.0339
873.1844, 207.9153
873.6665, 220.0640
874.1486, 233.9536
874.6307, 243.9727
875.1129, 242.9440
875.5950, 233.4137
876.0771, 235.3679
876.5592, 253.6241
877.0413, 272.2191
877.5234, 286.6655
878.0056, 297.5682
878.4877, 303.2267
878.9698, 305.4214
879.4519, 315.4445
879.9340, 348.6400
880.4161, 382.9567
880.8983, 403.0566
881.3804, 412.0178
881.8625, 417.1724
882.3446, 411.5676
882.8267, 414.6207
883.3088, 431.1006
883.7910, 456.3163
884.2731, 482.9976
884.7552, 510.6626
885.2373, 530.8304
885.7194, 539.2153
886.2015, 542.5975
886.6836, 546.5921
887.1657, 551.1252
887.6478, 556.0758
888.1299, 559.0211
888.6121, 565.9434
889.0942, 583.5985
889.5763, 601.1700
890.0584, 603.7617
890.5405, 589.7029
891.0226, 580.2902
891.5048, 578.9184
891.9869, 579.4289
892.4690, 578.0924
892.9511, 572.6115
893.4332, 557.0363
893.9153, 525.5432
894.3975, 500.5133
894.8796, 497.3102
895.3617, 499.1104
895.8438, 492.8457
896.3259, 476.5518
896.8080, 459.0100
897.2902, 439.7427
897.7723, 422.3497
898.2544, 412.8372
898.7365, 407.0134
899.2186, 395.6324
899.7007, 377.9292
900.1829, 360.5061
900.6650, 345.2593
901.1471, 333.1036
901.6292, 327.7822
902.1113, 329.6597
902.5934, 319.4409
903.0756, 292.7664
903.5577, 268.0834
904.0398, 258.6959
904.5219, 258.2826
905.0040, 243.3542
905.4861, 217.7606
905.9683, 203.0475
906.4504, 226.7156
906.9325, 250.1810
907.4146, 246.7913
907.8967, 221.7773
908.3788, 207.0308
908.8610, 206.4568
909.3431, 209.3707
909.8252, 214.4219
910.3073, 219.6267
910.7894, 220.7234
911.2715, 217.8588
911.7537, 211.7805
912.2358, 200.9128
912.7179, 189.5813
913.2000, 181.7365
913.6821, 175.1052
914.1642, 165.4674
914.6464, 145.9313
915.1285, 136.0245
915.6106, 141.9901
916.0927, 150.7566
916.5748, 140.3376
917.0569, 115.5315
917.5391, 102.8593
918.0212, 108.9469
918.5033, 116.9180
918.9854, 114.2566
919.4675, 105.6570
919.9496, 95.29907
920.4318, 82.57373
920.9139, 71.65039
921.3960, 62.06445
921.8781, 55.11450
922.3602, 52.50195
922.8423, 53.69263
923.3245, 54.84863
923.8066, 55.80334
924.2887, 53.93091
924.7708, 39.62109
925.2529, 4.605957
925.7350, 11.21350
926.2172, 12.77869
926.6993, 9.579956
927.1814, 12.69043
927.6635, 10.30957
928.1456, 17.79712
928.6277, 25.68848
929.1099, 19.83484
929.5920, 39.31293
930.0741, 33.68311
930.5562, 19.97107
931.0383, 12.57471
931.5204, 3.133057
932.0026, 7.003174
932.4847, 14.48706
932.9668, 17.66858
933.4489, 19.85583
933.9310, 22.53186
934.4131, 23.07861
934.8953, 13.83057
935.3774, 3.097290
935.8595, 12.05542
936.3416, 8.804077
936.8237, 0.2164310
937.3058, 12.09570
937.7880, 24.00891
938.2701, 30.56079
938.7522, 28.31873
939.2343, 26.53149
939.7164, 25.77319
940.1985, 25.23694
940.6807, 23.98059
941.1628, 22.22034
941.6449, 21.76086
942.1270, 22.65540
942.6091, 24.77502
943.0912, 31.03076
943.5734, 36.19666
944.0555, 34.08704
944.5376, 24.76086
945.0197, 20.17834
945.5018, 20.49121
945.9839, 26.79004
946.4661, 41.39746
946.9482, 61.18896
947.4303, 78.64148
947.9124, 92.79810
948.3945, 98.47656
948.8766, 87.94104
949.3588, 74.00854
949.8409, 61.06494
950.3230, 51.86938
950.8051, 53.16772
951.2872, 77.05908
951.7693, 86.36450
952.2515, 70.85376
952.7336, 51.68506
953.2157, 64.74231
953.6978, 100.1445
954.1799, 120.3337
954.6620, 117.3901
955.1442, 108.3805
955.6263, 100.7073
956.1084, 94.88550
956.5905, 91.14258
957.0726, 89.10046
957.5547, 92.61401
958.0369, 104.9290
958.5190, 113.6440
959.0011, 106.2981
959.4832, 89.63782
959.9653, 85.87634
960.4474, 93.38660
960.9296, 100.6210
961.4117, 103.8448
961.8938, 102.6628
962.3759, 92.06445
962.8580, 76.49548
963.3401, 73.79321
963.8223, 88.59143
964.3044, 98.05750
964.7865, 95.14014
965.2686, 86.35022
965.7507, 80.82898
966.2328, 77.87952
966.7150, 75.89758
967.1971, 74.60803
967.6792, 73.78003
968.1613, 74.16357
968.6434, 74.41309
969.1255, 73.06799
969.6077, 69.54736
970.0898, 66.84607
970.5719, 64.59900
971.0540, 65.93872
971.5361, 77.68237
972.0182, 92.72839
972.5004, 100.3918
972.9825, 100.3737
973.4646, 100.1743
973.9467, 102.9655
974.4288, 105.3225
974.9109, 104.8630
975.3931, 102.9562
975.8752, 107.7524
976.3573, 119.1008
976.8394, 128.3488
977.3215, 129.8690
977.8036, 130.8610
978.2858, 141.5076
978.7679, 156.7025
979.2500, 167.5132
979.7321, 171.5184
980.2142, 168.9889
980.6964, 153.2582
981.1785, 140.0621
981.6606, 155.7310
982.1427, 194.3512
982.6248, 206.8929
983.1069, 186.6193
983.5891, 165.6279
984.0712, 170.3003
984.5533, 183.7709
985.0354, 192.6216
985.5175, 195.6846
985.9996, 199.1898
986.4818, 204.4850
986.9639, 207.7216
987.4460, 205.9869
987.9281, 200.7247
988.4102, 191.6807
988.8923, 179.4718
989.3745, 167.6643
989.8566, 156.1356
990.3387, 146.6622
990.8208, 141.4755
991.3029, 138.5275
991.7850, 135.3453
992.2672, 133.1323
992.7493, 123.5143
993.2314, 103.3977
993.7135, 83.19397
994.1956, 79.13354
994.6777, 82.27197
995.1599, 76.80225
995.6420, 59.31201
996.1241, 45.50720
996.6062, 42.17664
997.0883, 42.72668
997.5704, 46.52246
998.0526, 52.45825
998.5347, 45.46973
999.0168, 26.04492
999.4989, 8.598877
999.9810, 2.140747
1000.463, 9.4360001E-02
1000.945, 3.513489
1001.427, 7.702332
1001.909, 10.23535
1002.392, 10.39056
1002.874, 9.271790
1003.356, 6.942932
1003.838, 3.372375
1004.320, 2.597168
1004.802, 10.01947
1005.284, 14.36206
1005.766, 14.84174
1006.249, 14.72089
1006.731, 15.74048
1007.213, 17.30145
1007.695, 17.68713
1008.177, 16.60107
1008.659, 23.29211
1009.141, 39.39478
1009.623, 56.75458
1010.105, 75.00427
1010.588, 89.09686
1011.070, 82.93335
1011.552, 64.55249
1012.034, 55.91412
1012.516, 78.80249
1012.998, 95.31885
1013.480, 90.39160
1013.962, 79.64783
1014.444, 84.42841
1014.927, 105.0367
1015.409, 115.9631
1015.891, 113.2775
1016.373, 108.7536
1016.855, 115.9092
1017.337, 124.1556
1017.819, 121.2990
1018.301, 105.0298
1018.784, 95.64636
1019.266, 94.12030
1019.748, 100.1155
1020.230, 116.8984
1020.712, 138.8052
1021.194, 150.7159
1021.676, 154.3149
1022.158, 155.1696
1022.640, 155.2729
1023.123, 154.1048
1023.605, 146.6298
1024.087, 139.8038
1024.569, 143.6757
1025.051, 160.9305
1025.533, 172.9573
1026.015, 178.0493
1026.497, 182.4763
1026.979, 195.3082
1027.462, 209.5170
1027.944, 214.0834
1028.426, 208.8972
1028.908, 206.1136
1029.390, 209.3840
1029.872, 214.2645
1030.354, 219.0912
1030.836, 225.0573
1031.319, 237.7897
1031.801, 255.4273
1032.283, 269.0693
1032.765, 275.2255
1033.247, 278.6747
1033.729, 280.3470
1034.211, 282.3658
1034.693, 286.7766
1035.176, 293.3207
1035.658, 304.3926
1036.140, 322.4539
1036.622, 334.9513
1037.104, 326.4225
1037.586, 308.0450
1038.068, 296.8312
1038.550, 293.8240
1039.032, 295.8888
1039.515, 309.8408
1039.997, 318.5975
1040.479, 317.4304
1040.961, 309.0806
1041.443, 297.1582
1041.925, 282.4059
1042.407, 273.6274
1042.889, 274.5480
1043.371, 274.0216
1043.854, 258.9750
1044.336, 240.8075
1044.818, 231.7478
1045.300, 234.7567
1045.782, 233.9319
1046.264, 229.4568
1046.746, 220.2822
1047.228, 202.1705
1047.711, 181.2510
1048.193, 171.5618
1048.675, 169.8640
1049.157, 166.1711
1049.639, 150.3008
1050.121, 140.2489
1050.603, 142.1561
1051.085, 148.1801
1051.568, 148.1976
1052.050, 142.8771
1052.532, 141.4184
1053.014, 145.4761
1053.496, 142.8004
1053.978, 109.2766
1054.460, 76.23956
1054.942, 73.02502
1055.424, 100.7344
1055.906, 116.4334
1056.389, 118.8536
1056.871, 113.1448
1057.353, 98.19958
1057.835, 80.59308
1058.317, 72.28796
1058.799, 68.96808
1059.281, 61.83527
1059.763, 43.97778
1060.246, 30.92316
1060.728, 24.30164
1061.210, 24.76154
1061.692, 38.74268
1062.174, 63.56500
1062.656, 63.23566
1063.138, 39.08826
1063.620, 15.62207
1064.103, 6.716309
1064.585, 6.072571
1065.067, 13.42413
1065.549, 25.83295
1066.031, 35.62769
1066.513, 43.76239
1066.995, 45.17059
1067.477, 38.12128
1067.959, 27.36859
1068.442, 17.16821
1068.924, 7.859131
1069.406, 1.575684
1069.888, 12.06818
1070.370, 13.79456
1070.852, 2.901062
1071.334, 15.25861
1071.816, 11.38342
1072.298, 2.297913
1072.781, 2.833252
1073.263, 6.722778
1073.745, 14.12006
1074.227, 13.05426
1074.709, 10.32782
1075.191, 8.788757
1075.673, 7.670532
1076.155, 6.254761
1076.637, 4.618286
1077.120, 2.812927
1077.602, 0.8627930
1078.084, 2.436951
1078.566, 13.45044
1079.048, 22.02411
1079.530, 13.39014
1080.012, 8.391724
1080.494, 20.07050
1080.977, 14.99170
1081.459, 10.48877
1081.941, 9.820068
1082.423, 10.76178
1082.905, 9.029175
1083.387, 6.569397
1083.869, 8.781494
1084.351, 17.61041
1084.833, 22.49017
1085.316, 15.71899
1085.798, 7.956604
1086.280, 3.764893
1086.762, 2.429138
1087.244, 1.876282
1087.726, 2.070374
1088.208, 0.4489140
1088.690, 9.002441
1089.172, 15.40857
1089.655, 5.688965
1090.137, 8.982422
1090.619, 13.45764
1091.101, 3.384033
1091.583, 1.857849
1092.065, 1.800720
1092.547, 0.7223510
1093.029, 6.480835
1093.512, 11.14508
1093.994, 5.172241
1094.476, 7.404602
1094.958, 9.070557
1095.440, 14.61993
1095.922, 30.21375
1096.404, 30.67065
1096.886, 25.27423
1097.369, 28.57935
1097.851, 36.63654
1098.333, 38.30780
1098.815, 31.63617
1099.297, 24.84497
1099.779, 19.63885
1100.261, 17.35034
1100.743, 18.75677
1101.225, 23.29620
1101.708, 31.05011
1102.190, 40.92731
1102.672, 42.53125
1103.154, 26.49420
1103.636, 14.54529
1104.118, 33.33411
1104.600, 57.80524
1105.082, 58.72571
1105.564, 29.70251
1106.047, 10.50421
1106.529, 1.382935
1107.011, 2.187439
1107.493, 3.122742
1107.975, 0.2724610
1108.457, 12.88525
1108.939, 30.71851
1109.421, 38.16925
1109.904, 25.17511
1110.386, 13.61548
1110.868, 3.071289
1111.350, 1.157715
1111.832, 13.20123
1112.314, 36.38281
1112.796, 45.23590
1113.278, 39.06610
1113.760, 31.62506
1114.243, 26.62317
1114.725, 23.64600
1115.207, 23.26538
1115.689, 24.16107
1116.171, 22.90259
1116.653, 20.04211
1117.135, 19.07666
1117.617, 21.24774
1118.099, 22.71490
1118.582, 20.91229
1119.064, 17.58722
1119.546, 12.82581
1120.028, 7.079834
1120.510, 8.648926
1120.992, 17.53198
1121.474, 22.94324
1121.956, 16.89032
1122.439, 10.96985
1122.921, 19.64282
1123.403, 33.48981
1123.885, 38.26520
1124.367, 28.77930
1124.849, 24.90161
1125.331, 27.72601
1125.813, 30.66254
1126.296, 28.26941
1126.778, 23.48151
1127.260, 17.58466
1127.742, 12.09967
1128.224, 13.17059
1128.706, 31.11871
1129.188, 43.66187
1129.670, 48.81329
1130.152, 47.34894
1130.635, 34.80194
1131.117, 18.97302
1131.599, 19.70294
1132.081, 37.37036
1132.563, 50.06000
1133.045, 47.50769
1133.527, 39.32263
1134.009, 25.49280
1134.491, 10.80701
1134.974, 6.876404
1135.456, 11.88336
1135.938, 17.52881
1136.420, 21.68042
1136.902, 25.69257
1137.384, 33.88129
1137.866, 41.23700
1138.348, 43.21655
1138.831, 40.31268
1139.313, 34.80786
1139.795, 26.97803
1140.277, 20.53125
1140.759, 16.68439
1141.241, 15.21832
1141.723, 20.18481
1142.205, 25.14624
1142.688, 21.22211
1143.170, 5.732300
1143.652, 0.4258420
1144.134, 3.516602
1144.616, 6.762512
1145.098, 2.482300
1145.580, 11.61920
1146.062, 4.763245
1146.544, 11.11389
1147.026, 22.85443
1147.509, 29.44580
1147.991, 35.03784
1148.473, 40.06323
1148.955, 39.98529
1149.437, 25.10199
1149.919, 6.365479
1150.401, 0.3489990
1150.883, 3.863159
1151.366, 8.488831
1151.848, 10.73358
1152.330, 13.03717
1152.812, 16.88885
1153.294, 21.68585
1153.776, 24.82996
1154.258, 25.98303
1154.740, 22.01434
1155.223, 12.64996
1155.705, 10.74359
1156.187, 31.59332
1156.669, 46.46448
1157.151, 45.00293
1157.633, 35.52081
1158.115, 39.16797
1158.597, 50.78925
1159.079, 53.06006
1159.562, 40.02789
1160.044, 27.11279
1160.526, 19.38861
1161.008, 15.39404
1161.490, 14.31580
1161.972, 16.28778
1162.454, 23.74457
1162.936, 34.95636
1163.418, 40.21167
1163.901, 32.18610
1164.383, 24.48792
1164.865, 23.82648
1165.347, 27.20648
1165.829, 33.87976
1166.311, 44.01520
1166.793, 42.20624
1167.275, 29.62659
1167.758, 22.66663
1168.240, 40.31897
1168.722, 55.65204
1169.204, 47.86310
1169.686, 31.22394
1170.168, 25.39771
1170.650, 31.74896
1171.132, 37.11200
1171.615, 41.05328
1172.097, 43.53278
1172.579, 44.44128
1173.061, 43.94366
1173.543, 41.34369
1174.025, 37.46387
1174.507, 33.68494
1174.989, 28.86639
1175.471, 31.51959
1175.953, 43.21429
1176.436, 55.97461
1176.918, 67.31805
1177.400, 72.07666
1177.882, 59.21820
1178.364, 33.29175
1178.846, 24.70508
1179.328, 39.19629
1179.810, 49.62091
1180.293, 51.05566
1180.775, 46.74872
1181.257, 33.24030
1181.739, 20.71710
1182.221, 22.71552
1182.703, 39.90021
1183.185, 51.17792
1183.667, 54.75970
1184.150, 55.38623
1184.632, 53.54962
1185.114, 51.51251
1185.596, 51.04150
1186.078, 53.21692
1186.560, 61.59717
1187.042, 78.95184
1187.524, 86.42853
1188.006, 80.66882
1188.489, 72.33221
1188.971, 64.70227
1189.453, 58.76740
1189.935, 57.24994
1190.417, 58.22565
1190.899, 58.76483
1191.381, 58.53735
1191.863, 56.12415
1192.345, 49.16083
1192.828, 45.61798
1193.310, 52.15186
1193.792, 63.50519
1194.274, 70.34833
1194.756, 73.60132
1195.238, 75.10266
1195.720, 72.85272
1196.202, 74.02515
1196.684, 81.64008
1197.167, 86.73883
1197.649, 79.52875
1198.131, 66.15259
1198.613, 60.16083
1199.095, 60.07721
1199.577, 61.18683
1200.059, 62.50439
1200.541, 64.22113
1201.024, 67.00476
1201.506, 68.50317
1201.988, 65.45483
1202.470, 60.46686
1202.952, 57.74292
1203.434, 55.95691
1203.916, 55.72485
1204.398, 56.15265
1204.880, 59.59253
1205.363, 68.94861
1205.845, 76.16644
1206.327, 67.75531
1206.809, 51.22510
1207.291, 44.15430
1207.773, 46.83484
1208.255, 52.39056
1208.737, 62.52655
1209.219, 69.61542
1209.702, 71.32898
1210.184, 71.32068
1210.666, 77.61780
1211.148, 85.51508
1211.630, 81.86322
1212.112, 65.81750
1212.594, 54.30957
1213.076, 58.51813
1213.559, 59.44830
1214.041, 51.46075
1214.523, 40.59125
1215.005, 36.33698
1215.487, 37.58801
1215.969, 45.22522
1216.451, 60.09882
1216.933, 62.78442
1217.416, 34.00354
1217.898, 14.99701
1218.380, 20.37494
1218.862, 37.21118
1219.344, 40.12561
1219.826, 34.93896
1220.308, 33.37952
1220.790, 37.70490
1221.272, 46.12018
1221.755, 62.87048
1222.237, 74.29413
1222.719, 74.38678
1223.201, 67.29858
1223.683, 59.19189
1224.165, 51.27844
1224.647, 47.32751
1225.129, 50.84930
1225.611, 45.55518
1226.094, 20.56506
1226.576, 5.213013
1227.058, 17.78198
1227.540, 42.19714
1228.022, 42.47797
1228.504, 28.92419
1228.986, 22.76294
1229.468, 31.33643
1229.951, 42.00732
1230.433, 56.19489
1230.915, 65.22418
1231.397, 62.61682
1231.879, 53.75537
1232.361, 50.07587
1232.843, 48.26086
1233.325, 40.95361
1233.807, 19.01782
1234.290, 10.52045
1234.772, 21.03003
1235.254, 31.36029
1235.736, 28.62415
1236.218, 19.39594
1236.700, 13.65198
1237.182, 10.47925
1237.664, 8.093811
1238.146, 7.272583
1238.629, 2.803223
1239.111, 8.658936
1239.593, 11.31909
1240.075, 16.19794
1240.557, 51.20294
1241.039, 61.54120
1241.521, 53.56262
1242.003, 39.00470
1242.486, 12.39697
1242.968, 1.136047
1243.450, 0.2833860
1243.932, 6.407837
1244.414, 10.63550
1244.896, 14.54633
1245.378, 22.53839
1245.860, 31.02246
1246.343, 30.93427
1246.825, 17.11005
1247.307, 13.48474
1247.789, 22.05859
1248.271, 29.20978
1248.753, 17.56671
1249.235, 6.137085
1249.717, 19.39520
1250.199, 43.91235
1250.682, 49.80646
1251.164, 31.78406
1251.646, 19.11835
1252.128, 13.21277
1252.610, 13.58765
1253.092, 28.05322
1253.574, 41.04633
1254.056, 37.13818
1254.538, 24.84918
1255.021, 21.01672
1255.503, 26.02246
1255.985, 35.14447
1256.467, 47.94318
1256.949, 56.25189
1257.431, 50.62909
1257.913, 42.27246
1258.395, 40.00562
1258.878, 36.70898
1259.360, 20.35681
1259.842, 5.089966
1260.324, 9.245422
1260.806, 8.515686
1261.288, 24.37714
1261.770, 18.40253
1262.252, 13.81500
1262.734, 24.32831
1263.217, 37.96008
1263.699, 35.50269
1264.181, 20.53650
1264.663, 13.61688
1265.145, 15.50250
1265.627, 18.67938
1266.109, 20.76447
1266.591, 22.57556
1267.073, 23.31085
1267.556, 25.50946
1268.038, 35.42957
1268.520, 48.98193
1269.002, 54.44092
1269.484, 43.58746
1269.966, 37.57922
1270.448, 27.59167
1270.930, 22.01239
1271.413, 22.03381
1271.895, 25.29053
1272.377, 32.07654
1272.859, 40.22540
1273.341, 49.27600
1273.823, 57.19263
1274.305, 51.46631
1274.787, 17.54553
1275.270, 0.9972530
1275.752, 4.794250
1276.234, 19.54541
1276.716, 29.45428
1277.198, 19.09821
1277.680, 10.76990
1278.162, 0.0000000E+00
##END=



