##NAMES=Agardite-(Y)
##RRUFFID=R060711
##IDEAL CHEMISTRY=Cu^2+^_6_Y^3+^(As^5+^O_4_)_3_(OH)_6_&#183;3H_2_O
##LOCALITY=Brumado, Bahia, Brazil
##OWNER=RRUFF
##SOURCE=Bob Jenkins
##DESCRIPTION=Mass of pale green fibers
##STATUS=The identification of this mineral has been confirmed by X-ray diffraction and chemical analysis
##URL=rruff.info/R060711
##MEASURED CHEMISTRY=(Cu_5.73_Fe_0.04_)_Σ=5.77_(Y_0.32_Gd_0.10_Nd_0.03_Sm_0.08_Ca_0.39_)_Σ=0.92_[(AsO_4_)_0.79_(PO_4_)_0.06_(SiO_4_)_0.01_]_3_(OH)_6_·4.58H_2_O
115.255, 0.000
115.737, 167.269
116.219, 352.473
116.702, 552.517
117.184, 726.723
117.666, 865.802
118.148, 969.501
118.630, 1037.175
119.112, 1054.597
119.594, 1046.113
120.076, 1023.861
120.559, 987.572
121.041, 943.549
121.523, 893.638
122.005, 838.253
122.487, 779.055
122.969, 712.830
123.451, 644.310
123.933, 578.011
124.415, 513.348
124.898, 454.102
125.380, 400.828
125.862, 354.889
126.344, 323.086
126.826, 310.938
127.308, 316.689
127.790, 337.781
128.272, 377.833
128.755, 429.416
129.237, 479.551
129.719, 528.119
130.201, 579.083
130.683, 632.312
131.165, 688.963
131.647, 760.124
132.129, 853.883
132.611, 965.554
133.094, 1076.991
133.576, 1190.073
134.058, 1296.538
134.540, 1381.194
135.022, 1443.787
135.504, 1498.727
135.986, 1557.752
136.468, 1621.037
136.951, 1661.438
137.433, 1677.782
137.915, 1671.459
138.397, 1644.195
138.879, 1593.470
139.361, 1529.070
139.843, 1451.667
140.325, 1355.508
140.807, 1269.447
141.290, 1197.117
141.772, 1137.169
142.254, 1075.814
142.736, 1004.292
143.218, 944.649
143.700, 914.588
144.182, 925.663
144.664, 943.400
145.146, 963.645
145.629, 986.481
146.111, 1008.488
146.593, 1021.283
147.075, 1038.447
147.557, 1074.126
148.039, 1146.645
148.521, 1215.494
149.003, 1271.035
149.486, 1307.102
149.968, 1349.451
150.450, 1402.336
150.932, 1461.491
151.414, 1519.780
151.896, 1579.701
152.378, 1638.776
152.860, 1697.234
153.342, 1760.256
153.824, 1815.730
154.307, 1851.843
154.789, 1880.106
155.271, 1925.892
155.753, 2008.939
156.235, 2099.225
156.717, 2182.569
157.199, 2256.597
157.682, 2325.096
158.164, 2381.140
158.646, 2429.029
159.128, 2488.857
159.610, 2567.976
160.092, 2659.004
160.574, 2755.719
161.056, 2860.827
161.538, 2966.264
162.020, 3072.035
162.503, 3177.068
162.985, 3272.998
163.467, 3344.736
163.949, 3408.390
164.431, 3479.932
164.913, 3581.661
165.395, 3680.107
165.877, 3749.870
166.360, 3788.668
166.842, 3835.685
167.324, 3914.898
167.806, 4016.716
168.288, 4127.882
168.770, 4257.125
169.252, 4385.353
169.734, 4498.406
170.217, 4593.807
170.699, 4676.414
171.181, 4744.276
171.663, 4801.134
172.145, 4856.908
172.627, 4920.027
173.109, 4982.178
173.591, 5038.149
174.073, 5088.107
174.555, 5128.566
175.038, 5148.648
175.520, 5153.456
176.002, 5161.324
176.484, 5185.602
176.966, 5219.873
177.448, 5254.836
177.930, 5289.541
178.413, 5322.784
178.895, 5351.503
179.377, 5376.740
179.859, 5404.460
180.341, 5434.464
180.823, 5470.710
181.305, 5524.348
181.787, 5609.448
182.269, 5703.807
182.751, 5766.977
183.234, 5798.655
183.716, 5825.912
184.198, 5872.257
184.680, 5934.010
185.162, 5997.631
185.644, 6065.909
186.126, 6131.043
186.608, 6174.004
187.091, 6193.292
187.573, 6199.955
188.055, 6200.614
188.537, 6196.327
189.019, 6196.197
189.501, 6211.551
189.983, 6234.831
190.465, 6230.594
190.947, 6195.663
191.430, 6147.764
191.912, 6109.931
192.394, 6082.342
192.876, 6052.256
193.358, 6019.544
193.840, 5983.026
194.322, 5924.332
194.804, 5839.561
195.286, 5742.772
195.769, 5655.397
196.251, 5577.196
196.733, 5501.037
197.215, 5422.480
197.697, 5341.677
198.179, 5265.326
198.661, 5197.208
199.143, 5128.772
199.626, 5041.087
200.108, 4930.075
200.590, 4819.745
201.072, 4720.966
201.554, 4633.930
202.036, 4555.125
202.518, 4488.101
203.000, 4425.229
203.482, 4344.389
203.965, 4239.670
204.447, 4135.743
204.929, 4051.708
205.411, 3991.144
205.893, 3920.292
206.375, 3832.051
206.857, 3732.831
207.339, 3645.843
207.822, 3574.927
208.304, 3506.561
208.786, 3434.186
209.268, 3358.843
209.750, 3273.821
210.232, 3172.580
210.714, 3062.060
211.196, 2971.460
211.678, 2904.061
212.161, 2850.854
212.643, 2809.597
213.125, 2786.819
213.607, 2753.294
214.089, 2701.366
214.571, 2633.472
215.053, 2568.488
215.535, 2499.185
216.018, 2444.429
216.500, 2423.545
216.982, 2447.412
217.464, 2474.249
217.946, 2495.167
218.428, 2510.484
218.910, 2537.706
219.392, 2580.062
219.874, 2629.970
220.357, 2679.957
220.839, 2724.676
221.321, 2781.839
221.803, 2859.590
222.285, 2958.022
222.767, 3047.892
223.249, 3121.762
223.731, 3195.001
224.214, 3285.198
224.696, 3408.045
225.178, 3518.410
225.660, 3606.414
226.142, 3669.646
226.624, 3731.768
227.106, 3790.217
227.588, 3849.085
228.070, 3912.812
228.553, 3986.647
229.035, 4057.340
229.517, 4128.981
229.999, 4207.721
230.481, 4241.378
230.963, 4223.818
231.445, 4166.140
231.927, 4079.705
232.410, 3951.770
232.892, 3817.536
233.374, 3685.334
233.856, 3555.683
234.338, 3426.573
234.820, 3299.218
235.302, 3170.475
235.784, 3036.825
236.266, 2905.981
236.749, 2756.682
237.231, 2577.574
237.713, 2354.749
238.195, 2165.461
238.677, 2017.542
239.159, 1898.046
239.641, 1790.956
240.123, 1706.124
240.605, 1615.256
241.088, 1506.438
241.570, 1369.843
242.052, 1255.606
242.534, 1169.886
243.016, 1102.594
243.498, 1038.430
243.980, 978.085
244.462, 918.999
244.945, 858.646
245.427, 794.590
245.909, 740.519
246.391, 699.618
246.873, 666.351
247.355, 631.190
247.837, 590.160
248.319, 553.589
248.801, 525.419
249.284, 508.315
249.766, 492.143
250.248, 481.307
250.730, 469.161
251.212, 443.115
251.694, 395.294
252.176, 348.219
252.658, 309.104
253.141, 279.996
253.623, 253.672
254.105, 231.346
254.587, 211.457
255.069, 189.156
255.551, 157.386
256.033, 136.710
256.515, 137.936
256.997, 170.354
257.480, 185.966
257.962, 178.593
258.444, 158.942
258.926, 142.567
259.408, 121.251
259.890, 119.982
260.372, 156.954
260.854, 248.986
261.336, 297.722
261.819, 290.760
262.301, 252.025
262.783, 217.934
263.265, 182.333
263.747, 165.299
264.229, 179.976
264.711, 234.803
265.193, 268.340
265.676, 266.798
266.158, 257.634
266.640, 290.080
267.122, 381.268
267.604, 465.385
268.086, 524.595
268.568, 561.938
269.050, 548.178
269.532, 465.562
270.015, 355.945
270.497, 283.974
270.979, 256.073
271.461, 243.247
271.943, 238.700
272.425, 243.110
272.907, 243.231
273.389, 233.864
273.871, 228.534
274.354, 250.763
274.836, 306.860
275.318, 361.245
275.800, 402.325
276.282, 430.029
276.764, 449.675
277.246, 458.316
277.728, 465.021
278.211, 484.040
278.693, 517.197
279.175, 546.955
279.657, 563.774
280.139, 569.313
280.621, 590.813
281.103, 633.490
281.585, 677.070
282.068, 694.245
282.550, 683.368
283.032, 676.050
283.514, 684.089
283.996, 704.939
284.478, 725.217
284.960, 746.874
285.442, 760.440
285.924, 752.644
286.406, 724.422
286.889, 690.717
287.371, 653.209
287.853, 614.118
288.335, 582.099
288.817, 557.609
289.299, 536.849
289.781, 518.481
290.263, 501.730
290.746, 480.974
291.228, 455.369
291.710, 424.465
292.192, 380.286
292.674, 322.124
293.156, 271.868
293.638, 259.171
294.120, 274.772
294.603, 278.759
295.085, 254.502
295.567, 217.786
296.049, 200.896
296.531, 203.523
297.013, 207.104
297.495, 189.317
297.977, 160.617
298.459, 148.513
298.942, 167.168
299.424, 196.995
299.906, 208.123
300.388, 202.427
300.870, 196.973
301.352, 202.644
301.834, 217.030
302.316, 236.490
302.798, 261.612
303.281, 288.649
303.763, 315.361
304.245, 340.827
304.727, 363.024
305.209, 376.409
305.691, 386.656
306.173, 401.569
306.655, 424.067
307.138, 448.737
307.620, 466.996
308.102, 483.100
308.584, 508.871
309.066, 548.959
309.548, 603.216
310.030, 672.881
310.512, 759.852
310.994, 856.247
311.477, 960.743
311.959, 1069.623
312.441, 1177.097
312.923, 1278.979
313.405, 1378.970
313.887, 1475.240
314.369, 1566.183
314.851, 1667.347
315.333, 1789.598
315.816, 1926.679
316.298, 2068.350
316.780, 2211.114
317.262, 2359.899
317.744, 2521.278
318.226, 2700.052
318.708, 2866.239
319.190, 3004.266
319.672, 3126.136
320.155, 3245.749
320.637, 3367.374
321.119, 3487.259
321.601, 3605.478
322.083, 3723.046
322.565, 3828.319
323.047, 3922.413
323.530, 4001.158
324.012, 4060.915
324.494, 4111.314
324.976, 4131.716
325.458, 4106.828
325.940, 4037.322
326.422, 3974.118
326.904, 3942.257
327.386, 3904.426
327.868, 3836.357
328.351, 3721.930
328.833, 3595.454
329.315, 3454.801
329.797, 3302.769
330.279, 3148.069
330.761, 2991.399
331.243, 2831.052
331.725, 2667.955
332.208, 2502.070
332.690, 2330.914
333.172, 2145.011
333.654, 1954.778
334.136, 1791.039
334.618, 1657.902
335.100, 1542.581
335.582, 1439.846
336.065, 1352.112
336.547, 1268.149
337.029, 1184.875
337.511, 1106.235
337.993, 1044.851
338.475, 1004.837
338.957, 965.387
339.439, 916.823
339.921, 857.826
340.404, 805.522
340.886, 762.624
341.368, 720.161
341.850, 661.309
342.332, 584.346
342.814, 516.455
343.296, 470.932
343.778, 443.681
344.260, 413.757
344.743, 382.248
345.225, 342.637
345.707, 278.176
346.189, 193.313
346.671, 128.243
347.153, 101.850
347.635, 96.573
348.117, 69.195
348.599, 19.373
349.082, 33.927
349.564, 71.846
350.046, 101.058
350.528, 141.856
351.010, 205.638
351.492, 272.220
351.974, 314.908
352.457, 336.024
352.939, 349.304
353.421, 355.750
353.903, 362.230
354.385, 379.682
354.867, 412.036
355.349, 448.039
355.831, 482.442
356.313, 512.918
356.796, 534.710
357.278, 543.185
357.760, 542.678
358.242, 535.401
358.724, 520.777
359.206, 504.597
359.688, 490.171
360.170, 476.256
360.652, 461.131
361.135, 442.970
361.617, 424.685
362.099, 407.658
362.581, 392.069
363.063, 376.627
363.545, 360.381
364.027, 344.516
364.509, 330.042
364.991, 328.888
365.474, 316.723
365.956, 279.294
366.438, 220.641
366.920, 176.112
367.402, 170.288
367.884, 164.609
368.366, 138.943
368.848, 73.065
369.331, 10.105
369.813, 53.163
370.295, 112.986
370.777, 155.563
371.259, 160.204
371.741, 172.724
372.223, 212.288
372.705, 288.891
373.188, 361.631
373.670, 427.425
374.152, 490.447
374.634, 557.535
375.116, 627.142
375.598, 702.858
376.080, 789.168
376.562, 885.170
377.044, 969.310
377.526, 1037.860
378.009, 1101.982
378.491, 1173.032
378.973, 1250.560
379.455, 1335.392
379.937, 1430.450
380.419, 1531.620
380.901, 1620.523
381.384, 1697.557
381.866, 1772.089
382.348, 1845.083
382.830, 1919.981
383.312, 2016.139
383.794, 2141.235
384.276, 2277.229
384.758, 2396.864
385.240, 2503.046
385.723, 2614.810
386.205, 2744.734
386.687, 2885.618
387.169, 3032.023
387.651, 3184.297
388.133, 3328.694
388.615, 3445.580
389.097, 3547.397
389.579, 3657.856
390.062, 3811.946
390.544, 3962.238
391.026, 4061.442
391.508, 4110.497
391.990, 4165.254
392.472, 4268.133
392.954, 4386.924
393.436, 4491.358
393.918, 4574.285
394.401, 4638.874
394.883, 4677.565
395.365, 4696.362
395.847, 4721.020
396.329, 4773.331
396.811, 4822.297
397.293, 4850.705
397.775, 4842.369
398.258, 4837.145
398.740, 4855.776
399.222, 4877.012
399.704, 4860.512
400.186, 4778.667
400.668, 4689.546
401.150, 4609.960
401.632, 4543.851
402.114, 4463.906
402.597, 4367.596
403.079, 4259.702
403.561, 4144.205
404.043, 4019.052
404.525, 3891.947
405.007, 3763.667
405.489, 3633.524
405.971, 3503.607
406.453, 3370.016
406.936, 3244.429
407.418, 3135.140
407.900, 3041.874
408.382, 2962.085
408.864, 2897.366
409.346, 2840.926
409.828, 2776.115
410.310, 2703.714
410.793, 2647.064
411.275, 2617.427
411.757, 2612.441
412.239, 2628.912
412.721, 2668.015
413.203, 2717.107
413.685, 2753.846
414.167, 2789.487
414.650, 2849.816
415.132, 2961.690
415.614, 3089.500
416.096, 3189.898
416.578, 3267.610
417.060, 3355.163
417.542, 3467.267
418.024, 3600.442
418.506, 3749.962
418.988, 3920.262
419.471, 4099.272
419.953, 4292.136
420.435, 4490.149
420.917, 4679.012
421.399, 4834.957
421.881, 4994.813
422.363, 5180.385
422.845, 5402.456
423.328, 5611.385
423.810, 5800.865
424.292, 5972.956
424.774, 6126.440
425.256, 6240.046
425.738, 6361.441
426.220, 6509.012
426.702, 6678.145
427.185, 6810.377
427.667, 6902.920
428.149, 6959.643
428.631, 6978.154
429.113, 6946.265
429.595, 6915.584
430.077, 6895.523
430.559, 6871.872
431.041, 6806.131
431.524, 6690.148
432.006, 6579.157
432.488, 6519.757
432.970, 6500.026
433.452, 6384.587
433.934, 6160.998
434.416, 5906.760
434.898, 5706.333
435.380, 5550.117
435.863, 5392.613
436.345, 5217.500
436.827, 5036.188
437.309, 4862.641
437.791, 4697.763
438.273, 4553.018
438.755, 4447.096
439.237, 4361.495
439.720, 4273.567
440.202, 4179.282
440.684, 4082.290
441.166, 3961.792
441.648, 3842.935
442.130, 3768.732
442.612, 3782.733
443.094, 3824.156
443.576, 3867.404
444.059, 3911.166
444.541, 3951.291
445.023, 3967.181
445.505, 3989.834
445.987, 4043.952
446.469, 4156.205
446.951, 4272.122
447.433, 4320.844
447.915, 4358.501
448.398, 4604.071
448.880, 4766.447
449.362, 4928.850
449.844, 5091.326
450.326, 5253.788
450.808, 5416.255
451.290, 5578.769
451.772, 5806.437
452.254, 6029.351
452.737, 6246.312
453.219, 6469.027
453.701, 6699.570
454.183, 6939.198
454.665, 7182.014
455.147, 7429.455
455.629, 7686.403
456.112, 7969.957
456.594, 8269.328
457.076, 8551.436
457.558, 8800.130
458.040, 9048.242
458.522, 9335.462
459.004, 9653.917
459.486, 9969.669
459.968, 10249.390
460.451, 10531.067
460.933, 10875.163
461.415, 11279.055
461.897, 11663.865
462.379, 11962.692
462.861, 12229.648
463.343, 12524.591
463.825, 12887.842
464.307, 13247.612
464.790, 13566.302
465.272, 13860.451
465.754, 14194.522
466.236, 14611.543
466.718, 15044.961
467.200, 15465.950
467.682, 15869.027
468.164, 16272.256
468.647, 16673.693
469.129, 17081.568
469.611, 17500.129
470.093, 17927.807
470.575, 18373.186
471.057, 18850.262
471.539, 19348.098
472.021, 19826.221
472.503, 20288.988
472.986, 20716.465
473.468, 21090.633
473.950, 21414.105
474.432, 21705.650
474.914, 21971.379
475.396, 22191.818
475.878, 22339.105
476.360, 22417.730
476.842, 22446.902
477.325, 22457.215
477.807, 22411.203
478.289, 22245.141
478.771, 21964.418
479.253, 21615.238
479.735, 21242.605
480.217, 20812.844
480.699, 20276.104
481.181, 19593.844
481.664, 18879.379
482.146, 18177.428
482.628, 17487.715
483.110, 16797.176
483.592, 16095.865
484.074, 15397.333
484.556, 14689.018
485.039, 13978.098
485.521, 13315.503
486.003, 12717.041
486.485, 12161.972
486.967, 11639.184
487.449, 11173.181
487.931, 10705.528
488.413, 10222.068
488.895, 9740.698
489.378, 9299.404
489.860, 8896.220
490.342, 8530.827
490.824, 8211.176
491.306, 7932.965
491.788, 7633.076
492.270, 7302.057
492.752, 6983.328
493.234, 6724.660
493.717, 6517.273
494.199, 6319.536
494.681, 6126.340
495.163, 5930.883
495.645, 5706.296
496.127, 5464.199
496.609, 5246.121
497.091, 5087.944
497.573, 4957.728
498.056, 4824.318
498.538, 4686.149
499.020, 4554.939
499.502, 4431.067
499.984, 4321.325
500.466, 4233.741
500.948, 4199.715
501.430, 4157.167
501.913, 4085.977
502.395, 3994.755
502.877, 3911.150
503.359, 3834.515
503.841, 3769.628
504.323, 3721.049
504.805, 3695.098
505.287, 3653.673
505.770, 3587.234
506.252, 3516.912
506.734, 3468.477
507.216, 3447.208
507.698, 3418.598
508.180, 3375.964
508.662, 3323.206
509.144, 3274.465
509.626, 3229.859
510.108, 3169.681
510.591, 3063.666
511.073, 2935.547
511.555, 2851.072
512.037, 2815.522
512.519, 2788.929
513.001, 2732.930
513.483, 2661.953
513.966, 2598.622
514.448, 2549.633
514.930, 2510.399
515.412, 2478.970
515.894, 2454.754
516.376, 2436.861
516.858, 2423.013
517.340, 2416.368
517.822, 2417.314
518.305, 2424.754
518.787, 2445.146
519.269, 2490.257
519.751, 2542.173
520.233, 2584.930
520.715, 2600.750
521.197, 2641.121
521.679, 2721.684
522.161, 2826.328
522.644, 2909.254
523.126, 2968.211
523.608, 3011.819
524.090, 3033.218
524.572, 3037.077
525.054, 3075.085
525.536, 3150.493
526.018, 3235.490
526.500, 3300.226
526.983, 3351.719
527.465, 3415.511
527.947, 3506.578
528.429, 3594.163
528.911, 3645.579
529.393, 3668.563
529.875, 3684.768
530.357, 3699.960
530.839, 3715.806
531.322, 3739.987
531.804, 3773.163
532.286, 3785.919
532.768, 3753.329
533.250, 3706.212
533.732, 3667.429
534.214, 3660.146
534.696, 3633.888
535.179, 3577.643
535.661, 3504.707
536.143, 3442.758
536.625, 3405.207
537.107, 3349.024
537.589, 3250.347
538.071, 3116.667
538.553, 3036.233
539.036, 3020.608
539.518, 3008.527
540.000, 2944.294
540.482, 2837.868
540.964, 2742.947
541.446, 2665.217
541.928, 2598.377
542.410, 2535.634
542.892, 2477.230
543.375, 2422.900
543.857, 2381.366
544.339, 2338.428
544.821, 2271.853
545.303, 2188.404
545.785, 2128.184
546.267, 2139.971
546.749, 2159.449
547.231, 2142.429
547.714, 2065.821
548.196, 2003.732
548.678, 1973.003
549.160, 1958.402
549.642, 1943.782
550.124, 1932.354
550.606, 1915.253
551.088, 1888.542
551.570, 1855.520
552.053, 1831.147
552.535, 1818.253
553.017, 1801.812
553.499, 1772.002
553.981, 1730.476
554.463, 1693.033
554.945, 1659.764
555.427, 1628.878
555.909, 1604.911
556.392, 1582.307
556.874, 1545.470
557.356, 1480.772
557.838, 1421.586
558.320, 1410.684
558.802, 1428.696
559.284, 1431.443
559.766, 1383.808
560.249, 1330.153
560.731, 1293.721
561.213, 1275.262
561.695, 1253.070
562.177, 1228.196
562.659, 1193.691
563.141, 1143.088
563.623, 1060.439
564.106, 997.902
564.588, 963.937
565.070, 942.632
565.552, 909.659
566.034, 861.833
566.516, 817.039
566.998, 780.381
567.480, 749.032
567.963, 711.759
568.445, 668.612
568.927, 631.486
569.409, 616.937
569.891, 610.733
570.373, 582.068
570.855, 527.680
571.337, 473.569
571.819, 438.939
572.302, 416.129
572.784, 396.968
573.266, 381.363
573.748, 365.442
574.230, 347.024
574.712, 327.139
575.194, 307.808
575.676, 304.006
576.158, 284.885
576.641, 231.523
577.123, 144.148
577.605, 102.216
578.087, 127.049
578.569, 158.729
579.051, 155.623
579.533, 115.469
580.015, 77.149
580.497, 39.728
580.980, 13.831
581.462, 26.669
581.944, 67.150
582.426, 86.466
582.908, 58.953
583.390, 14.564
583.872, 16.687
584.354, 35.689
584.836, 45.114
585.319, 38.035
585.801, 28.371
586.283, 22.525
586.765, 20.564
587.247, 31.285
587.729, 72.407
588.211, 117.251
588.693, 146.482
589.176, 151.314
589.658, 153.327
590.140, 148.464
590.622, 143.698
591.104, 153.375
591.586, 182.016
592.068, 203.721
592.550, 209.631
593.032, 204.446
593.515, 201.670
593.997, 201.267
594.479, 203.788
594.961, 209.931
595.443, 219.189
595.925, 233.326
596.407, 252.827
596.890, 266.180
597.372, 252.232
597.854, 233.124
598.336, 234.634
598.818, 285.725
599.300, 322.416
599.782, 317.652
600.264, 287.302
600.746, 260.364
601.229, 236.856
601.711, 220.266
602.193, 212.798
602.675, 213.470
603.157, 215.044
603.639, 218.492
604.121, 220.022
604.603, 218.087
605.085, 212.612
605.568, 198.422
606.050, 173.627
606.532, 153.121
607.014, 157.558
607.496, 176.633
607.978, 188.374
608.460, 185.480
608.942, 177.399
609.424, 166.426
609.907, 156.339
610.389, 154.430
610.871, 175.870
611.353, 192.848
611.835, 191.890
612.317, 174.338
612.799, 161.891
613.281, 156.610
613.763, 154.880
614.246, 156.332
614.728, 162.140
615.210, 160.782
615.692, 148.762
616.174, 138.117
616.656, 144.743
617.138, 166.436
617.620, 182.390
618.103, 189.578
618.585, 189.042
619.067, 178.748
619.549, 161.909
620.031, 146.668
620.513, 127.183
620.995, 118.606
621.477, 144.202
621.959, 194.596
622.442, 225.503
622.924, 205.862
623.406, 177.535
623.888, 158.476
624.370, 150.989
624.852, 147.035
625.334, 147.229
625.816, 150.240
626.299, 157.750
626.781, 172.730
627.263, 170.512
627.745, 142.727
628.227, 111.529
628.709, 116.765
629.191, 151.582
629.673, 176.765
630.156, 173.190
630.638, 160.204
631.120, 165.592
631.602, 182.056
632.084, 186.076
632.566, 143.364
633.048, 102.859
633.530, 99.333
634.012, 135.902
634.495, 165.009
634.977, 172.939
635.459, 174.556
635.941, 178.138
636.423, 186.096
636.905, 189.392
637.387, 187.043
637.869, 181.729
638.351, 176.422
638.834, 171.221
639.316, 163.620
639.798, 150.437
640.280, 139.771
640.762, 152.318
641.244, 180.341
641.726, 197.851
642.208, 180.413
642.690, 155.522
643.173, 146.647
643.655, 151.260
644.137, 154.792
644.619, 155.562
645.101, 150.362
645.583, 133.983
646.065, 100.196
646.547, 83.239
647.029, 93.826
647.512, 109.759
647.994, 115.143
648.476, 109.996
648.958, 93.507
649.440, 62.314
649.922, 28.527
650.404, 8.476
650.886, 1.003
651.369, 2.457
651.851, 18.029
652.333, 32.825
652.815, 20.810
653.297, 7.086
653.779, 21.278
654.261, 4.851
654.743, 36.814
655.226, 56.670
655.708, 64.228
656.190, 72.756
656.672, 92.751
657.154, 105.975
657.636, 103.610
658.118, 83.204
658.600, 60.958
659.083, 36.142
659.565, 11.794
660.047, 15.247
660.529, 42.421
661.011, 41.179
661.493, 1.491
661.975, 46.167
662.457, 73.509
662.939, 80.875
663.422, 68.006
663.904, 4.858
664.386, 46.145
664.868, 38.854
665.350, 8.436
665.832, 48.216
666.314, 82.258
666.796, 92.954
667.278, 67.674
667.761, 9.547
668.243, 32.423
668.725, 55.886
669.207, 66.196
669.689, 59.685
670.171, 37.947
670.653, 32.098
671.135, 43.487
671.617, 59.189
672.100, 62.614
672.582, 62.796
673.064, 79.404
673.546, 121.939
674.028, 161.265
674.510, 189.182
674.992, 199.811
675.474, 185.729
675.956, 98.067
676.439, 42.708
676.921, 53.104
677.403, 103.799
677.885, 145.995
678.367, 181.627
678.849, 201.105
679.331, 193.247
679.813, 168.606
680.296, 174.271
680.778, 209.834
681.260, 248.071
681.742, 277.615
682.224, 296.337
682.706, 292.459
683.188, 267.071
683.670, 251.118
684.153, 275.932
684.635, 310.242
685.117, 330.274
685.599, 329.779
686.081, 324.164
686.563, 304.483
687.045, 288.271
687.527, 291.924
688.010, 325.164
688.492, 350.352
688.974, 363.025
689.456, 369.912
689.938, 384.377
690.420, 404.933
690.902, 415.108
691.384, 402.969
691.866, 387.436
692.349, 398.579
692.831, 427.293
693.313, 448.290
693.795, 441.970
694.277, 431.494
694.759, 431.036
695.241, 439.037
695.723, 439.143
696.205, 416.473
696.688, 399.295
697.170, 402.144
697.652, 427.071
698.134, 430.035
698.616, 407.296
699.098, 376.148
699.580, 343.865
700.062, 313.843
700.544, 302.549
701.027, 312.607
701.509, 325.555
701.991, 324.162
702.473, 315.596
702.955, 309.803
703.437, 311.662
703.919, 310.779
704.401, 308.217
704.883, 298.491
705.366, 272.714
705.848, 206.984
706.330, 163.334
706.812, 154.475
707.294, 166.880
707.776, 171.770
708.258, 168.909
708.740, 159.828
709.222, 138.296
709.705, 117.179
710.187, 134.619
710.669, 181.435
711.151, 210.433
711.633, 185.755
712.115, 141.127
712.597, 93.555
713.080, 45.652
713.562, 16.989
714.044, 32.491
714.526, 51.933
715.008, 55.944
715.490, 42.316
715.972, 25.824
716.454, 0.562
716.936, 14.184
717.419, 19.053
717.901, 91.164
718.383, 111.710
718.865, 68.945
719.347, 12.719
719.829, 14.120
720.311, 19.826
720.793, 15.479
721.276, 2.514
721.758, 15.606
722.240, 12.403
722.722, 0.729
723.204, 15.426
723.686, 35.828
724.168, 50.125
724.650, 53.301
725.132, 52.015
725.615, 61.710
726.097, 84.413
726.579, 103.611
727.061, 112.743
727.543, 117.505
728.025, 133.304
728.507, 156.176
728.989, 170.262
729.471, 157.316
729.954, 139.769
730.436, 136.215
730.918, 144.555
731.400, 149.921
731.882, 139.931
732.364, 134.483
732.846, 143.710
733.328, 168.317
733.810, 183.979
734.293, 187.278
734.775, 191.405
735.257, 209.389
735.739, 237.367
736.221, 251.085
736.703, 249.527
737.185, 241.381
737.667, 229.923
738.149, 218.001
738.632, 208.660
739.114, 202.209
739.596, 198.392
740.078, 202.760
740.560, 206.243
741.042, 199.556
741.524, 173.384
742.006, 154.217
742.489, 143.883
742.971, 138.893
743.453, 135.189
743.935, 132.992
744.417, 130.899
744.899, 127.865
745.381, 127.852
745.863, 146.236
746.346, 171.096
746.828, 176.131
747.310, 127.905
747.792, 83.563
748.274, 80.039
748.756, 100.016
749.238, 100.178
749.720, 44.304
750.203, 11.217
750.685, 22.204
751.167, 65.348
751.649, 101.766
752.131, 132.529
752.613, 145.055
753.095, 131.062
753.577, 96.387
754.059, 44.150
754.542, 21.493
755.024, 76.109
755.506, 107.550
755.988, 121.474
756.470, 111.940
756.952, 79.718
757.434, 67.207
757.916, 93.459
758.398, 128.361
758.881, 161.158
759.363, 191.429
759.845, 225.858
760.327, 265.694
760.809, 304.965
761.291, 336.142
761.773, 363.862
762.255, 404.461
762.737, 460.107
763.220, 509.079
763.702, 522.855
764.184, 529.682
764.666, 557.080
765.148, 614.926
765.630, 674.968
766.112, 734.720
766.594, 792.628
767.076, 846.704
767.559, 896.347
768.041, 942.175
768.523, 983.366
769.005, 1022.060
769.487, 1059.278
769.969, 1096.592
770.451, 1139.281
770.933, 1190.049
771.416, 1241.128
771.898, 1279.099
772.380, 1315.851
772.862, 1367.835
773.344, 1472.157
773.826, 1551.005
774.308, 1582.606
774.790, 1589.096
775.273, 1599.510
775.755, 1612.939
776.237, 1637.414
776.719, 1680.304
777.201, 1725.188
777.683, 1733.697
778.165, 1715.297
778.647, 1704.653
779.130, 1711.431
779.612, 1735.151
780.094, 1790.691
780.576, 1861.382
781.058, 1911.359
781.540, 1920.409
782.022, 1917.706
782.504, 1902.998
782.986, 1882.785
783.468, 1881.158
783.951, 1905.244
784.433, 1915.537
784.915, 1893.840
785.397, 1853.651
785.879, 1823.993
786.361, 1804.699
786.843, 1795.274
787.325, 1807.414
787.807, 1819.825
788.290, 1806.461
788.772, 1775.171
789.254, 1769.839
789.736, 1833.679
790.218, 1889.951
790.700, 1915.097
791.182, 1911.408
791.664, 1895.926
792.146, 1864.200
792.629, 1845.839
793.111, 1866.483
793.593, 1909.533
794.075, 1932.678
794.557, 1938.420
795.039, 1948.251
795.521, 1985.901
796.003, 2023.825
796.486, 2037.110
796.968, 2023.167
797.450, 2029.701
797.932, 2072.372
798.414, 2123.913
798.896, 2175.795
799.378, 2228.131
799.860, 2265.853
800.343, 2286.972
800.825, 2312.146
801.307, 2357.784
801.789, 2417.825
802.271, 2480.289
802.753, 2544.924
803.235, 2619.173
803.717, 2720.833
804.200, 2824.935
804.682, 2910.031
805.164, 2964.938
805.646, 3048.926
806.128, 3176.827
806.610, 3311.092
807.092, 3420.604
807.574, 3507.577
808.056, 3625.506
808.539, 3775.928
809.021, 3932.737
809.503, 4070.253
809.985, 4200.868
810.467, 4333.841
810.949, 4470.370
811.431, 4625.294
811.913, 4811.605
812.395, 5013.521
812.878, 5221.200
813.360, 5435.721
813.842, 5648.292
814.324, 5858.624
814.806, 6068.659
815.288, 6281.766
815.770, 6496.923
816.252, 6722.183
816.734, 6959.074
817.217, 7191.310
817.699, 7384.966
818.181, 7577.556
818.663, 7820.967
819.145, 8141.313
819.627, 8443.220
820.109, 8682.200
820.591, 8912.785
821.073, 9171.681
821.556, 9464.042
822.038, 9754.086
822.520, 10043.945
823.002, 10313.457
823.484, 10528.372
823.966, 10711.483
824.448, 10928.048
824.930, 11193.105
825.413, 11440.348
825.895, 11610.426
826.377, 11752.849
826.859, 11914.396
827.341, 12121.208
827.823, 12292.955
828.305, 12423.695
828.787, 12524.285
829.269, 12596.526
829.752, 12641.885
830.234, 12694.391
830.716, 12761.531
831.198, 12799.105
831.680, 12768.288
832.162, 12680.886
832.644, 12536.872
833.127, 12317.353
833.609, 12134.570
834.091, 12069.054
834.573, 12027.886
835.055, 11939.935
835.537, 11792.238
836.019, 11638.191
836.501, 11473.542
836.983, 11315.021
837.466, 11182.075
837.948, 11071.209
838.430, 10978.219
838.912, 10903.139
839.394, 10827.665
839.876, 10672.081
840.358, 10550.047
840.840, 10591.602
841.322, 10900.696
841.805, 11092.230
842.287, 11096.525
842.769, 11039.123
843.251, 11008.710
843.733, 11006.840
844.215, 10976.291
844.697, 10910.384
845.179, 10859.590
845.661, 10866.147
846.144, 10916.958
846.626, 10995.110
847.108, 11098.523
847.590, 11227.021
848.072, 11399.349
848.554, 11582.841
849.036, 11750.196
849.518, 11891.055
850.000, 12077.148
850.483, 12313.896
850.965, 12580.197
851.447, 12868.916
851.929, 13174.159
852.411, 13471.996
852.893, 13763.446
853.375, 14078.693
853.857, 14459.154
854.340, 14857.200
854.822, 15232.018
855.304, 15571.032
855.786, 15960.710
856.268, 16420.559
856.750, 16894.047
857.232, 17344.496
857.714, 17771.340
858.196, 18249.785
858.679, 18782.676
859.161, 19313.799
859.643, 19790.613
860.125, 20253.994
860.607, 20779.387
861.089, 21366.271
861.571, 21920.961
862.054, 22388.445
862.536, 22842.645
863.018, 23330.543
863.500, 23846.867
863.982, 24316.926
864.464, 24737.047
864.946, 25124.340
865.428, 25489.203
865.910, 25822.330
866.393, 26114.926
866.875, 26362.418
867.357, 26553.812
867.839, 26676.398
868.321, 26742.539
868.803, 26766.043
869.285, 26740.070
869.767, 26634.723
870.249, 26436.945
870.732, 26189.324
871.214, 25913.078
871.696, 25593.480
872.178, 25180.031
872.660, 24677.637
873.142, 24119.719
873.624, 23505.104
874.106, 22848.857
874.588, 22151.332
875.071, 21421.627
875.553, 20668.852
876.035, 19864.338
876.517, 19075.215
876.999, 18321.961
877.481, 17591.957
877.963, 16845.645
878.445, 16083.951
878.927, 15355.059
879.410, 14686.445
879.892, 14051.825
880.374, 13426.362
880.856, 12813.922
881.338, 12221.470
881.820, 11628.438
882.302, 11083.378
882.784, 10619.958
883.266, 10201.925
883.749, 9779.584
884.231, 9344.374
884.713, 8962.263
885.195, 8651.561
885.677, 8370.340
886.159, 8054.887
886.641, 7725.046
887.123, 7412.912
887.606, 7125.861
888.088, 6859.827
888.570, 6613.344
889.052, 6390.880
889.534, 6199.605
890.016, 6054.979
890.498, 5894.475
890.980, 5709.938
891.463, 5524.440
891.945, 5350.422
892.427, 5195.964
892.909, 5093.063
893.391, 5049.384
893.873, 4992.742
894.355, 4855.390
894.837, 4696.946
895.320, 4566.031
895.802, 4472.625
896.284, 4380.678
896.766, 4291.879
897.248, 4200.107
897.730, 4097.056
898.212, 3987.332
898.694, 3888.287
899.176, 3800.338
899.659, 3709.069
900.141, 3595.018
900.623, 3482.835
901.105, 3394.038
901.587, 3329.229
902.069, 3270.473
902.551, 3215.770
903.033, 3165.283
903.515, 3122.274
903.998, 3082.262
904.480, 3025.906
904.962, 2954.060
905.444, 2879.398
905.926, 2797.524
906.408, 2725.006
906.890, 2682.786
907.372, 2661.917
907.854, 2637.983
908.337, 2614.580
908.819, 2572.066
909.301, 2495.676
909.783, 2407.751
910.265, 2360.271
910.747, 2352.166
911.229, 2337.367
911.711, 2302.313
912.193, 2259.804
912.676, 2224.550
913.158, 2191.960
913.640, 2155.575
914.122, 2116.145
914.604, 2067.829
915.086, 2002.157
915.568, 1934.209
916.050, 1876.665
916.533, 1829.023
917.015, 1805.437
917.497, 1810.635
917.979, 1814.846
918.461, 1785.139
918.943, 1737.776
919.425, 1689.158
919.907, 1638.692
920.390, 1609.938
920.872, 1631.828
921.354, 1657.210
921.836, 1659.655
922.318, 1638.191
922.800, 1618.341
923.282, 1599.053
923.764, 1588.706
924.247, 1605.051
924.729, 1626.876
925.211, 1616.164
925.693, 1579.002
926.175, 1559.024
926.657, 1595.968
927.139, 1628.286
927.621, 1636.254
928.103, 1622.775
928.586, 1595.438
929.068, 1553.043
929.550, 1509.609
930.032, 1467.688
930.514, 1430.666
930.996, 1411.318
931.478, 1399.250
931.960, 1372.292
932.442, 1288.638
932.925, 1230.594
933.407, 1240.672
933.889, 1273.001
934.371, 1267.821
934.853, 1218.912
935.335, 1184.374
935.817, 1175.298
936.299, 1166.842
936.781, 1127.946
937.264, 1071.932
937.746, 1019.186
938.228, 973.851
938.710, 930.337
939.192, 883.306
939.674, 842.204
940.156, 815.932
940.638, 807.188
941.120, 778.114
941.603, 725.918
942.085, 678.859
942.567, 675.678
943.049, 679.866
943.531, 626.593
944.013, 524.931
944.495, 451.663
944.977, 469.180
945.460, 481.810
945.942, 451.202
946.424, 391.434
946.906, 365.438
947.388, 375.068
947.870, 359.419
948.352, 283.181
948.834, 193.065
949.317, 146.661
949.799, 130.064
950.281, 118.058
950.763, 103.816
951.245, 91.524
951.727, 79.823
952.209, 71.518
952.691, 70.819
953.173, 77.757
953.656, 87.293
954.138, 99.742
954.620, 107.924
955.102, 106.220
955.584, 95.839
956.066, 72.258
956.548, 29.438
957.030, 11.575
957.513, 52.312
957.995, 86.056
958.477, 72.039
958.959, 18.351
959.441, 11.876
959.923, 50.646
960.405, 89.168
960.887, 106.168
961.369, 105.099
961.852, 77.281
962.334, 32.205
962.816, 3.644
963.298, 8.189
963.780, 12.860
964.262, 12.334
964.744, 8.427
965.226, 1.197
965.708, 7.061
966.191, 1.363
966.673, 28.432
967.155, 55.090
967.637, 51.028
968.119, 35.006
968.601, 28.926
969.083, 42.103
969.565, 49.114
970.047, 45.418
970.530, 45.788
971.012, 71.353
971.494, 111.280
971.976, 122.850
972.458, 105.870
972.940, 90.048
973.422, 87.303
973.904, 96.700
974.386, 127.832
974.869, 175.689
975.351, 191.564
975.833, 163.479
976.315, 148.273
976.797, 171.958
977.279, 212.381
977.761, 232.154
978.244, 234.732
978.726, 228.869
979.208, 199.720
979.690, 187.409
980.172, 222.639
980.654, 272.403
981.136, 295.439
981.618, 284.937
982.100, 296.108
982.583, 336.758
983.065, 376.793
983.547, 376.907
984.029, 361.252
984.511, 365.293
984.993, 394.231
985.475, 418.087
985.957, 419.029
986.440, 423.189
986.922, 446.521
987.404, 483.198
987.886, 482.041
988.368, 445.328
988.850, 425.787
989.332, 467.498
989.814, 520.610
990.296, 538.811
990.779, 533.007
991.261, 527.345
991.743, 531.177
992.225, 526.589
992.707, 506.626
993.189, 486.523
993.671, 488.854
994.153, 509.162
994.635, 535.915
995.118, 569.955
995.600, 584.396
996.082, 535.983
996.564, 478.718
997.046, 463.179
997.528, 496.232
998.010, 486.235
998.492, 416.166
998.974, 365.141
999.457, 390.214
999.939, 453.632
1000.421, 478.268
1000.903, 472.160
1001.385, 460.813
1001.867, 455.991
1002.349, 446.928
1002.831, 426.307
1003.314, 401.441
1003.796, 384.933
1004.278, 377.487
1004.760, 368.146
1005.242, 355.743
1005.724, 338.786
1006.206, 312.052
1006.688, 281.507
1007.170, 252.087
1007.653, 222.670
1008.135, 205.617
1008.617, 208.343
1009.099, 212.753
1009.581, 211.063
1010.063, 203.536
1010.545, 189.248
1011.027, 169.363
1011.510, 151.503
1011.992, 150.349
1012.474, 141.975
1012.956, 91.673
1013.438, 26.979
1013.920, 16.740
1014.402, 88.992
1014.884, 132.079
1015.366, 128.600
1015.849, 104.262
1016.331, 82.197
1016.813, 66.626
1017.295, 70.926
1017.777, 100.573
1018.259, 119.431
1018.741, 105.640
1019.223, 84.385
1019.706, 68.297
1020.188, 56.899
1020.670, 38.451
1021.152, 12.940
1021.634, 2.841
1022.116, 0.153
1022.598, 16.341
1023.080, 50.059
1023.562, 91.306
1024.045, 117.637
1024.527, 115.175
1025.009, 112.302
1025.491, 109.856
1025.973, 109.478
1026.455, 115.427
1026.937, 125.234
1027.419, 132.291
1027.901, 136.038
1028.384, 131.014
1028.866, 107.495
1029.348, 80.060
1029.830, 55.010
1030.312, 33.527
1030.794, 29.286
1031.276, 45.628
1031.758, 54.201
1032.240, 39.132
1032.723, 14.812
1033.205, 6.412
1033.687, 20.804
1034.169, 21.580
1034.651, 15.434
1035.133, 33.048
1035.615, 14.721
1036.097, 8.987
1036.580, 0.508
1037.062, 33.012
1037.544, 44.704
1038.026, 31.251
1038.508, 16.426
1038.990, 24.625
1039.472, 30.266
1039.954, 10.653
1040.437, 30.641
1040.919, 59.523
1041.401, 74.570
1041.883, 83.189
1042.365, 87.561
1042.847, 86.472
1043.329, 68.160
1043.811, 45.381
1044.293, 44.555
1044.776, 92.938
1045.258, 119.038
1045.740, 89.349
1046.222, 57.467
1046.704, 70.021
1047.186, 123.217
1047.668, 144.684
1048.150, 135.638
1048.632, 121.418
1049.115, 112.903
1049.597, 110.756
1050.079, 121.928
1050.561, 140.253
1051.043, 141.099
1051.525, 114.597
1052.007, 105.391
1052.489, 125.732
1052.972, 156.270
1053.454, 178.932
1053.936, 190.196
1054.418, 180.970
1054.900, 145.338
1055.382, 111.244
1055.864, 77.622
1056.346, 58.198
1056.828, 65.688
1057.311, 94.614
1057.793, 104.556
1058.275, 97.569
1058.757, 91.225
1059.239, 101.615
1059.721, 108.163
1060.203, 88.564
1060.685, 58.856
1061.167, 49.040
1061.650, 63.968
1062.132, 85.395
1062.614, 114.252
1063.096, 137.926
1063.578, 139.060
1064.060, 128.753
1064.542, 125.204
1065.024, 129.450
1065.507, 124.660
1065.989, 87.981
1066.471, 65.945
1066.953, 77.353
1067.435, 108.579
1067.917, 123.434
1068.399, 123.458
1068.881, 113.769
1069.364, 90.084
1069.846, 72.369
1070.328, 83.639
1070.810, 99.734
1071.292, 96.619
1071.774, 71.215
1072.256, 41.398
1072.738, 5.729
1073.220, 17.612
1073.703, 5.951
1074.185, 18.623
1074.667, 33.976
1075.149, 39.699
1075.631, 35.386
1076.113, 11.975
1076.595, 8.537
1077.077, 25.179
1077.559, 34.835
1078.042, 30.976
1078.524, 16.789
1079.006, 4.002
1079.488, 32.102
1079.970, 45.762
1080.452, 21.758
1080.934, 8.492
1081.416, 28.324
1081.898, 39.352
1082.381, 49.093
1082.863, 57.497
1083.345, 77.823
1083.827, 122.249
1084.309, 167.841
1084.791, 192.024
1085.273, 205.140
1085.755, 220.928
1086.238, 233.489
1086.720, 275.974
1087.202, 361.257
1087.684, 430.822
1088.166, 419.401
1088.648, 370.287
1089.130, 359.242
1089.612, 383.407
1090.094, 418.759
1090.577, 470.319
1091.059, 515.254
1091.541, 551.064
1092.023, 576.128
1092.505, 577.767
1092.987, 564.353
1093.469, 581.583
1093.951, 639.137
1094.433, 696.637
1094.916, 735.452
1095.398, 758.167
1095.880, 759.383
1096.362, 743.368
1096.844, 747.936
1097.326, 774.383
1097.808, 793.939
1098.290, 795.210
1098.773, 784.574
1099.255, 776.993
1099.737, 759.210
1100.219, 709.938
1100.701, 606.554
1101.183, 515.193
1101.665, 434.637
1102.147, 367.251
1102.630, 318.656
1103.112, 283.753
1103.594, 253.010
1104.076, 226.391
1104.558, 203.097
1105.040, 179.621
1105.522, 164.512
1106.004, 164.765
1106.486, 168.444
1106.969, 155.488
1107.451, 129.176
1107.933, 106.553
1108.415, 90.372
1108.897, 75.197
1109.379, 51.293
1109.861, 33.947
1110.343, 37.012
1110.825, 55.040
1111.308, 62.096
1111.790, 58.123
1112.272, 49.192
1112.754, 35.593
1113.236, 21.639
1113.718, 3.646
1114.200, 8.374
1114.682, 3.179
1115.165, 53.047
1115.647, 64.382
1116.129, 25.667
1116.611, 7.838
1117.093, 7.862
1117.575, 43.773
1118.057, 53.504
1118.539, 43.510
1119.021, 30.657
1119.504, 6.282
1119.986, 3.889
1120.468, 40.786
1120.950, 75.739
1121.432, 48.617
1121.914, 16.323
1122.396, 39.361
1122.878, 18.445
1123.360, 0.836
1123.843, 7.094
1124.325, 17.717
1124.807, 19.815
1125.289, 19.523
1125.771, 36.235
1126.253, 66.854
1126.735, 79.104
1127.217, 63.632
1127.700, 45.248
1128.182, 41.547
1128.664, 43.961
1129.146, 48.882
1129.628, 55.438
1130.110, 45.680
1130.592, 18.388
1131.074, 3.465
1131.557, 9.103
1132.039, 7.110
1132.521, 9.161
1133.003, 9.188
1133.485, 3.562
1133.967, 40.741
1134.449, 59.243
1134.931, 54.683
1135.413, 46.832
1135.896, 55.162
1136.378, 66.264
1136.860, 51.910
1137.342, 21.362
1137.824, 3.696
1138.306, 19.485
1138.788, 33.179
1139.270, 45.127
1139.752, 48.118
1140.235, 17.352
1140.717, 25.066
1141.199, 7.595
1141.681, 70.179
1142.163, 119.869
1142.645, 71.324
1143.127, 23.852
1143.609, 9.196
1144.092, 16.333
1144.574, 25.542
1145.056, 36.098
1145.538, 45.230
1146.020, 52.118
1146.502, 57.000
1146.984, 53.533
1147.466, 53.961
1147.948, 68.837
1148.431, 94.770
1148.913, 108.288
1149.395, 109.705
1149.877, 98.990
1150.359, 69.260
1150.841, 41.750
1151.323, 31.162
1151.805, 32.834
1152.287, 45.098
1152.770, 73.188
1153.252, 72.251
1153.734, 39.813
1154.216, 8.544
1154.698, 6.561
1155.180, 10.135
1155.662, 9.610
1156.144, 40.948
1156.626, 57.000
1157.109, 56.174
1157.591, 36.968
1158.073, 5.537
1158.555, 42.276
1159.037, 36.009
1159.519, 14.535
1160.001, 14.529
1160.483, 34.896
1160.966, 58.934
1161.448, 99.674
1161.930, 106.224
1162.412, 56.654
1162.894, 3.005
1163.376, 34.675
1163.858, 106.998
1164.340, 130.918
1164.823, 94.167
1165.305, 72.450
1165.787, 104.725
1166.269, 122.808
1166.751, 105.794
1167.233, 62.048
1167.715, 17.285
1168.197, 106.373
1168.679, 126.909
1169.161, 40.741
1169.644, 36.611
1170.126, 68.151
1170.608, 77.253
1171.090, 67.685
1171.572, 45.928
1172.054, 42.011
1172.536, 50.448
1173.018, 47.451
1173.501, 16.466
1173.983, 14.408
1174.465, 40.327
1174.947, 55.881
1175.429, 55.421
1175.911, 39.662
1176.393, 14.805
1176.875, 16.517
1177.358, 34.192
1177.840, 11.918
1178.322, 10.590
1178.804, 9.405
1179.286, 0.419
1179.768, 5.349
1180.250, 24.186
1180.732, 31.494
1181.214, 25.882
1181.697, 19.032
1182.179, 18.539
1182.661, 19.879
1183.143, 21.365
1183.625, 21.873
1184.107, 18.806
1184.589, 11.913
1185.071, 7.168
1185.553, 5.767
1186.036, 2.285
1186.518, 15.959
1187.000, 31.312
1187.482, 28.616
1187.964, 9.384
1188.446, 23.463
1188.928, 74.674
1189.410, 85.610
1189.893, 32.759
1190.375, 23.679
1190.857, 10.199
1191.339, 21.131
1191.821, 14.180
1192.303, 34.144
1192.785, 60.971
1193.267, 64.757
1193.750, 58.976
1194.232, 46.227
1194.714, 31.451
1195.196, 11.264
1195.678, 3.354
1196.160, 6.354
1196.642, 50.275
1197.124, 70.530
1197.606, 64.977
1198.089, 48.727
1198.571, 18.135
1199.053, 4.374
1199.535, 29.993
1200.017, 83.594
1200.499, 89.768
1200.981, 9.664
1201.463, 27.838
1201.945, 15.399
1202.428, 4.755
1202.910, 3.800
1203.392, 6.446
1203.874, 16.781
1204.356, 24.019
1204.838, 19.816
1205.320, 1.327
1205.802, 24.782
1206.285, 52.854
1206.767, 69.948
1207.249, 53.845
1207.731, 24.265
1208.213, 6.261
1208.695, 2.536
1209.177, 17.655
1209.659, 49.013
1210.141, 62.779
1210.624, 51.112
1211.106, 36.146
1211.588, 51.366
1212.070, 70.927
1212.552, 56.977
1213.034, 11.421
1213.516, 30.327
1213.998, 74.502
1214.480, 83.077
1214.963, 39.360
1215.445, 10.450
1215.927, 2.697
1216.409, 30.839
1216.891, 50.188
1217.373, 50.604
1217.855, 42.997
1218.337, 24.816
1218.820, 9.442
1219.302, 0.405
1219.784, 3.946
1220.266, 8.232
1220.748, 22.941
1221.230, 19.284
1221.712, 8.607
1222.194, 23.206
1222.677, 21.077
1223.159, 11.229
1223.641, 7.080
1224.123, 24.704
1224.605, 23.928
1225.087, 16.207
1225.569, 21.003
1226.051, 49.683
1226.533, 53.821
1227.016, 29.707
1227.498, 9.715
1227.980, 73.990
1228.462, 127.330
1228.944, 104.348
1229.426, 42.312
1229.908, 2.169
1230.390, 14.211
1230.872, 25.253
1231.355, 36.603
1231.837, 38.603
1232.319, 16.106
1232.801, 8.288
1233.283, 1.993
1233.765, 28.707
1234.247, 38.986
1234.729, 22.990
1235.212, 6.104
1235.694, 11.657
1236.176, 28.646
1236.658, 50.982
1237.140, 65.333
1237.622, 43.491
1238.104, 5.848
1238.586, 2.255
1239.068, 35.071
1239.551, 50.729
1240.033, 41.124
1240.515, 29.528
1240.997, 37.141
1241.479, 47.729
1241.961, 47.031
1242.443, 36.982
1242.925, 22.898
1243.407, 1.740
1243.890, 1.446
1244.372, 15.366
1244.854, 34.598
1245.336, 47.526
1245.818, 52.218
1246.300, 36.494
1246.782, 13.267
1247.264, 13.953
1247.746, 42.339
1248.229, 57.446
1248.711, 55.027
1249.193, 40.849
1249.675, 10.238
1250.157, 19.802
1250.639, 42.832
1251.121, 54.735
1251.603, 42.375
1252.086, 5.042
1252.568, 28.415
1253.050, 54.000
1253.532, 63.518
1254.014, 31.763
1254.496, 0.485
1254.978, 5.471
1255.460, 9.661
1255.943, 48.319
1256.425, 104.513
1256.907, 120.782
1257.389, 85.895
1257.871, 49.573
1258.353, 44.500
1258.835, 45.498
1259.317, 38.461
1259.799, 28.712
1260.281, 29.081
1260.764, 36.807
1261.246, 39.053
1261.728, 33.188
1262.210, 25.919
1262.692, 22.667
1263.174, 16.274
1263.656, 4.721
1264.138, 9.382
1264.621, 23.744
1265.103, 35.433
1265.585, 35.378
1266.067, 20.888
1266.549, 0.726
1267.031, 35.152
1267.513, 55.648
1267.995, 42.347
1268.478, 17.392
1268.960, 31.796
1269.442, 68.423
1269.924, 90.690
1270.406, 89.371
1270.888, 83.275
1271.370, 73.944
1271.852, 60.746
1272.334, 42.245
1272.817, 24.221
1273.299, 16.115
1273.781, 17.183
1274.263, 28.141
1274.745, 51.871
1275.227, 74.505
1275.709, 101.188
1276.191, 105.252
1276.673, 65.689
1277.156, 20.160
1277.638, 30.229
1278.120, 57.810
1278.602, 43.526
1279.084, 26.394
1279.566, 40.006
1280.048, 7.590
1280.530, 54.454
1281.013, 79.136
1281.495, 84.771
1281.977, 57.018
1282.459, 24.044
1282.941, 19.398
1283.423, 43.019
1283.905, 60.935
1284.387, 73.076
1284.870, 75.871
1285.352, 63.817
1285.834, 47.798
1286.316, 34.815
1286.798, 30.974
1287.280, 48.276
1287.762, 81.732
1288.244, 82.149
1288.726, 54.832
1289.208, 26.940
1289.691, 5.167
1290.173, 7.773
1290.655, 9.069
1291.137, 3.998
1291.619, 0.000
##END=



