##NAMES=Ajoite
##RRUFFID=R060735
##IDEAL CHEMISTRY=K_3_Cu^2+^_20_Al_3_Si_29_O_76_(OH)_16_&#183;8H_2_O
##LOCALITY=Pinal County, Arizona, USA
##OWNER=RRUFF
##SOURCE=Bob Jenkins
##DESCRIPTION=Radiating aggregates of blue acicular crystals
##STATUS=The identification of this mineral is not yet confirmed.
##URL=rruff.info/R060735
193.0167, 0.0000000E+00
193.4988, 14.92896
193.9810, 26.99927
194.4631, 32.29224
194.9452, 37.56421
195.4273, 40.95166
195.9094, 42.30273
196.3915, 43.62256
196.8737, 45.43274
197.3558, 47.34131
197.8379, 48.03296
198.3200, 47.42676
198.8021, 45.97607
199.2842, 44.18176
199.7664, 42.10571
200.2485, 39.02759
200.7306, 34.37561
201.2127, 28.61060
201.6948, 24.56213
202.1769, 22.22607
202.6591, 20.11621
203.1412, 16.66211
203.6233, 11.65881
204.1054, 7.362793
204.5875, 3.916382
205.0696, 1.337646
205.5518, 0.1915280
206.0339, 0.7624510
206.5160, 1.836914
206.9981, 2.092773
207.4802, 1.296387
207.9623, 0.6988530
208.4445, 0.7185060
208.9266, 1.290405
209.4087, 0.9903560
209.8908, 0.8389890
210.3729, 2.427856
210.8550, 1.302856
211.3372, 3.670288
211.8193, 7.203979
212.3014, 7.299927
212.7835, 4.085205
213.2656, 3.804321
213.7477, 7.939209
214.2299, 14.73291
214.7120, 20.68384
215.1941, 22.43457
215.6762, 22.14429
216.1583, 21.28821
216.6404, 19.76367
217.1226, 19.17712
217.6047, 19.23755
218.0868, 19.42004
218.5689, 19.50586
219.0510, 19.18994
219.5331, 19.01868
220.0153, 19.38379
220.4974, 20.32202
220.9795, 20.29321
221.4616, 18.79968
221.9437, 16.88721
222.4258, 15.84082
222.9080, 15.92090
223.3901, 16.38989
223.8722, 17.13086
224.3543, 18.18616
224.8364, 19.17200
225.3185, 20.21118
225.8007, 21.00562
226.2828, 21.08411
226.7649, 19.95874
227.2470, 18.96204
227.7291, 18.59509
228.2112, 19.00549
228.6934, 18.60315
229.1755, 17.28503
229.6576, 15.22852
230.1397, 12.59900
230.6218, 8.899414
231.1039, 5.512817
231.5861, 2.837036
232.0682, 0.8514400
232.5503, 0.2564700
233.0324, 0.3330080
233.5145, 1.362915
233.9966, 1.004883
234.4788, 1.137817
234.9609, 3.180908
235.4430, 5.243652
235.9251, 7.845093
236.4072, 7.671631
236.8893, 4.584595
237.3715, 0.9240720
237.8536, 1.608154
238.3357, 1.892578
238.8178, 1.515747
239.2999, 1.087891
239.7820, 0.9829100
240.2642, 0.5140380
240.7463, 0.1704100
241.2284, 0.2640380
241.7105, 0.8432620
242.1926, 2.619141
242.6747, 4.116455
243.1569, 4.793701
243.6390, 4.580200
244.1211, 5.290405
244.6032, 7.204346
245.0853, 9.383545
245.5674, 10.57092
246.0496, 9.770020
246.5317, 9.374634
247.0138, 10.14661
247.4959, 12.28931
247.9780, 13.47266
248.4601, 13.05066
248.9423, 12.39148
249.4244, 13.11523
249.9065, 16.07898
250.3886, 18.83069
250.8707, 21.08215
251.3528, 22.57568
251.8350, 24.27771
252.3171, 26.62390
252.7992, 28.66138
253.2813, 29.21680
253.7634, 27.34766
254.2455, 25.95898
254.7277, 25.67957
255.2098, 26.50500
255.6919, 27.36743
256.1740, 28.36511
256.6561, 29.20374
257.1382, 29.50439
257.6204, 28.92480
258.1025, 28.62036
258.5846, 29.00574
259.0667, 30.01721
259.5488, 30.19299
260.0309, 29.33118
260.5131, 27.96387
260.9952, 26.43823
261.4773, 24.47852
261.9594, 23.20496
262.4415, 23.03870
262.9236, 23.85669
263.4058, 24.36621
263.8879, 24.69116
264.3700, 24.54358
264.8521, 23.53394
265.3342, 21.32812
265.8163, 19.42017
266.2985, 18.00574
266.7806, 17.06445
267.2627, 16.61182
267.7448, 16.91943
268.2269, 17.07947
268.7090, 16.33923
269.1912, 14.38586
269.6733, 12.73035
270.1554, 11.58386
270.6375, 10.82654
271.1196, 10.10559
271.6017, 9.461670
272.0839, 8.693848
272.5660, 7.560913
273.0481, 5.943237
273.5302, 4.836182
274.0123, 4.535889
274.4944, 4.685913
274.9766, 4.180054
275.4587, 2.907837
275.9408, 1.497192
276.4229, 0.2597660
276.9050, 0.8171390
277.3871, 1.379517
277.8693, 1.155518
278.3514, 0.6539310
278.8335, 1.428101
279.3156, 3.830933
279.7977, 5.409668
280.2798, 4.026855
280.7620, 0.3303220
281.2441, 2.455444
281.7262, 1.625122
282.2083, 0.7014160
282.6904, 2.182983
283.1725, 2.826294
283.6547, 2.768921
284.1368, 1.556885
284.6189, 0.6166990
285.1010, 1.310791
285.5831, 5.3589001E-02
286.0652, 1.514404
286.5474, 0.4514160
287.0295, 3.174805
287.5116, 6.048096
287.9937, 5.997925
288.4758, 3.694336
288.9579, 3.199951
289.4401, 4.730835
289.9222, 6.878906
290.4043, 7.994141
290.8864, 8.210205
291.3685, 8.298828
291.8506, 8.702148
292.3328, 9.096802
292.8149, 8.482666
293.2970, 6.794312
293.7791, 4.766846
294.2612, 3.113037
294.7433, 2.078125
295.2255, 1.998535
295.7076, 3.410889
296.1897, 5.285278
296.6718, 5.433472
297.1539, 3.901123
297.6360, 2.495117
298.1182, 3.191040
298.6003, 5.215698
299.0824, 6.662231
299.5645, 6.867554
300.0466, 6.507935
300.5287, 6.424805
301.0109, 6.556274
301.4930, 6.647461
301.9751, 5.994507
302.4572, 5.332031
302.9393, 5.993652
303.4214, 8.677979
303.9036, 11.99731
304.3857, 14.77673
304.8678, 17.04468
305.3499, 18.91772
305.8320, 19.35999
306.3141, 19.82263
306.7963, 22.30139
307.2784, 27.67468
307.7605, 33.52441
308.2426, 37.99976
308.7247, 41.38672
309.2068, 44.38818
309.6890, 46.37390
310.1711, 48.64026
310.6532, 52.70508
311.1353, 59.14441
311.6174, 65.07739
312.0995, 67.56104
312.5817, 68.37317
313.0638, 70.44458
313.5459, 76.77979
314.0280, 83.41736
314.5101, 87.86597
314.9922, 89.86902
315.4744, 91.32764
315.9565, 92.53894
316.4386, 93.93201
316.9207, 95.96484
317.4028, 99.73352
317.8849, 103.4138
318.3671, 106.5720
318.8492, 109.2231
319.3313, 110.6510
319.8134, 108.3960
320.2955, 105.9819
320.7776, 106.2159
321.2598, 113.3820
321.7419, 119.2971
322.2240, 121.1906
322.7061, 119.8270
323.1882, 119.3486
323.6703, 120.7667
324.1525, 123.1001
324.6346, 125.8159
325.1167, 129.2150
325.5988, 132.5234
326.0809, 135.9967
326.5630, 139.3784
327.0452, 141.9507
327.5273, 143.1466
328.0094, 143.9708
328.4915, 144.8806
328.9736, 146.4381
329.4557, 146.8127
329.9379, 145.4266
330.4200, 143.0160
330.9021, 140.7152
331.3842, 138.1659
331.8663, 136.1849
332.3484, 135.2123
332.8306, 135.4756
333.3127, 134.8939
333.7948, 133.0046
334.2769, 130.6254
334.7590, 128.7229
335.2411, 127.6544
335.7233, 126.3954
336.2054, 124.5421
336.6875, 122.1210
337.1696, 120.7467
337.6517, 120.9994
338.1339, 121.5919
338.6160, 121.3894
339.0981, 119.9750
339.5802, 118.8442
340.0623, 118.3252
340.5444, 118.0918
341.0266, 116.7661
341.5087, 114.1260
341.9908, 111.6353
342.4729, 110.6801
342.9550, 111.1235
343.4371, 109.6909
343.9193, 105.7188
344.4014, 100.5880
344.8835, 96.65027
345.3656, 93.81213
345.8477, 91.04980
346.3298, 87.90747
346.8120, 84.47363
347.2941, 81.02576
347.7762, 77.58948
348.2583, 74.04565
348.7404, 69.51001
349.2225, 64.50854
349.7047, 61.31360
350.1868, 62.69409
350.6689, 65.57373
351.1510, 64.02148
351.6331, 58.06934
352.1152, 51.07458
352.5974, 45.22876
353.0795, 40.42004
353.5616, 36.51025
354.0437, 33.69995
354.5258, 31.36035
355.0079, 29.04431
355.4901, 26.70020
355.9722, 24.17749
356.4543, 21.25635
356.9364, 18.13025
357.4185, 14.94189
357.9006, 11.61499
358.3828, 8.574463
358.8649, 6.004272
359.3470, 3.905396
359.8291, 2.252930
360.3112, 1.261719
360.7933, 0.5384520
361.2755, 0.1267090
361.7576, 0.7604980
362.2397, 1.400391
362.7218, 2.233643
363.2039, 3.044312
363.6860, 3.587402
364.1682, 3.787354
364.6503, 3.733032
365.1324, 3.345459
365.6145, 2.639648
366.0966, 2.040039
366.5787, 1.795044
367.0609, 1.556763
367.5430, 1.097778
368.0251, 0.2104490
368.5072, 1.040894
368.9893, 1.027710
369.4714, 0.4368900
369.9536, 0.1116940
370.4357, 0.2407230
370.9178, 0.4494630
371.3999, 0.5156250
371.8820, 0.1063230
372.3641, 0.5456540
372.8463, 2.686646
373.3284, 5.100220
373.8105, 5.287476
374.2926, 1.922607
374.7747, 0.7076420
375.2568, 1.289185
375.7390, 0.1907960
376.2211, 1.811768
376.7032, 3.639648
377.1853, 5.462280
377.6674, 7.095825
378.1495, 8.514526
378.6317, 10.06519
379.1138, 12.10083
379.5959, 14.16260
380.0780, 14.60730
380.5601, 13.30457
381.0422, 11.91907
381.5244, 11.77612
382.0065, 12.64636
382.4886, 13.07300
382.9707, 12.80493
383.4528, 12.47412
383.9349, 13.01257
384.4171, 14.33850
384.8992, 15.89978
385.3813, 17.48376
385.8634, 19.13623
386.3455, 21.00024
386.8276, 23.07007
387.3098, 25.18689
387.7919, 27.22437
388.2740, 29.21692
388.7561, 31.23462
389.2382, 33.49890
389.7203, 35.57935
390.2025, 36.75745
390.6846, 37.24207
391.1667, 38.14539
391.6488, 40.39075
392.1309, 43.12634
392.6130, 45.69189
393.0952, 47.97021
393.5773, 49.96631
394.0594, 51.20300
394.5415, 52.19788
395.0236, 53.90320
395.5057, 57.60364
395.9879, 61.24084
396.4700, 63.94043
396.9521, 65.51636
397.4342, 67.06335
397.9163, 68.86926
398.3984, 70.68457
398.8806, 72.27441
399.3627, 73.36060
399.8448, 74.51196
400.3269, 75.41003
400.8090, 76.24353
401.2911, 78.52771
401.7733, 83.81213
402.2554, 88.73071
402.7375, 91.35217
403.2196, 90.43542
403.7017, 90.36633
404.1838, 91.42236
404.6660, 93.18762
405.1481, 94.82471
405.6302, 96.26038
406.1123, 97.93274
406.5944, 100.3365
407.0765, 103.3829
407.5587, 104.6659
408.0408, 103.8342
408.5229, 102.5721
409.0050, 102.5007
409.4871, 103.6017
409.9692, 105.3605
410.4514, 107.9459
410.9335, 110.6904
411.4156, 111.9788
411.8977, 111.8816
412.3798, 111.4701
412.8619, 111.5643
413.3441, 111.8365
413.8262, 111.4855
414.3083, 110.2791
414.7904, 109.2301
415.2725, 109.8317
415.7546, 111.3188
416.2368, 112.1106
416.7189, 111.0630
417.2010, 109.3579
417.6831, 107.7004
418.1652, 106.1466
418.6473, 104.9413
419.1295, 103.9628
419.6116, 103.5089
420.0937, 103.9380
420.5758, 106.1936
421.0579, 108.0656
421.5400, 108.7729
422.0222, 108.6071
422.5043, 108.2903
422.9864, 107.8998
423.4685, 107.5265
423.9506, 107.3079
424.4327, 107.4788
424.9149, 107.0386
425.3970, 104.8430
425.8791, 102.6633
426.3612, 102.2754
426.8433, 104.9313
427.3254, 107.3956
427.8076, 109.3795
428.2897, 110.8135
428.7718, 110.9919
429.2539, 109.2384
429.7360, 107.5168
430.2181, 107.2566
430.7003, 108.8013
431.1824, 109.4152
431.6645, 108.9113
432.1466, 107.5753
432.6287, 105.7078
433.1108, 103.3335
433.5930, 101.0255
434.0751, 99.08044
434.5572, 97.36890
435.0393, 95.12219
435.5214, 92.33899
436.0035, 90.14563
436.4857, 90.24670
436.9678, 91.73059
437.4499, 92.34631
437.9320, 91.49683
438.4141, 89.90723
438.8962, 87.61255
439.3784, 85.04333
439.8605, 83.52869
440.3426, 85.38635
440.8247, 87.58203
441.3068, 87.38611
441.7889, 84.41626
442.2711, 80.88782
442.7532, 77.37842
443.2353, 74.08960
443.7174, 71.23474
444.1995, 68.55579
444.6816, 66.64124
445.1638, 66.20190
445.6459, 66.84082
446.1280, 66.70557
446.6101, 65.40686
447.0922, 63.38000
447.5743, 60.55737
448.0565, 56.08643
448.5386, 53.11719
449.0207, 52.69458
449.5028, 53.14136
449.9849, 52.32410
450.4670, 49.87488
450.9492, 46.95154
451.4313, 43.58777
451.9134, 39.93921
452.3955, 37.32605
452.8776, 36.12415
453.3597, 34.94287
453.8419, 32.65942
454.3240, 29.33801
454.8061, 26.39868
455.2882, 23.97217
455.7703, 21.99414
456.2524, 20.48364
456.7346, 19.38550
457.2167, 18.55176
457.6988, 18.01953
458.1809, 17.61047
458.6630, 17.08667
459.1451, 16.42810
459.6273, 15.43433
460.1094, 13.51172
460.5915, 11.31555
461.0736, 9.806763
461.5557, 9.529053
462.0378, 9.192627
462.5200, 7.882813
463.0021, 5.932617
463.4842, 4.020264
463.9663, 1.906372
464.4484, 0.3458250
464.9305, 0.1903080
465.4127, 1.598755
465.8948, 2.102173
466.3769, 0.3773190
466.8590, 2.970703
467.3411, 3.584229
467.8232, 0.5408940
468.3054, 3.090942
468.7875, 2.489502
469.2696, 0.4039310
469.7517, 1.332886
470.2338, 7.461304
470.7159, 12.46204
471.1981, 13.51624
471.6802, 10.38782
472.1623, 9.274414
472.6444, 10.36560
473.1265, 12.95996
473.6086, 16.92847
474.0908, 22.23059
474.5729, 26.87695
475.0550, 30.77966
475.5371, 33.39746
476.0192, 32.85327
476.5013, 29.53638
476.9835, 26.65662
477.4656, 25.90125
477.9477, 26.69604
478.4298, 28.66003
478.9119, 31.81030
479.3940, 34.33679
479.8762, 34.42493
480.3583, 33.15112
480.8404, 31.97083
481.3225, 31.61572
481.8046, 31.04956
482.2867, 29.20349
482.7689, 26.73230
483.2510, 25.29492
483.7331, 26.72107
484.2152, 28.25720
484.6973, 28.63672
485.1794, 27.55872
485.6616, 26.55151
486.1437, 26.10889
486.6258, 25.57056
487.1079, 24.34790
487.5900, 21.63953
488.0721, 19.69031
488.5543, 18.97766
489.0364, 18.95251
489.5185, 18.09900
490.0006, 16.03748
490.4827, 14.28333
490.9648, 13.96265
491.4470, 14.90796
491.9291, 13.50134
492.4112, 9.321411
492.8933, 4.881104
493.3754, 3.232910
493.8575, 3.708740
494.3397, 3.188721
494.8218, 0.6096190
495.3039, 2.352295
495.7860, 3.387329
496.2681, 2.774658
496.7502, 1.593140
497.2324, 7.6416001E-02
497.7145, 1.339966
498.1966, 2.125000
498.6787, 2.326050
499.1608, 3.004883
499.6429, 5.212402
500.1251, 7.614380
500.6072, 9.102661
501.0893, 7.976318
501.5714, 8.066284
502.0535, 11.35376
502.5356, 16.31165
503.0178, 19.53125
503.4999, 18.98328
503.9820, 18.57056
504.4641, 19.45068
504.9462, 21.81653
505.4283, 23.74170
505.9105, 24.90063
506.3926, 25.93689
506.8747, 27.38391
507.3568, 29.33459
507.8389, 31.66382
508.3210, 34.58826
508.8032, 37.30298
509.2853, 37.93774
509.7674, 36.66016
510.2495, 36.16162
510.7316, 38.37585
511.2137, 41.81335
511.6959, 42.84973
512.1780, 41.49622
512.6601, 39.70850
513.1422, 38.68994
513.6243, 38.33179
514.1064, 38.72473
514.5886, 40.24353
515.0707, 41.19434
515.5528, 40.15198
516.0349, 37.98840
516.5170, 35.95081
516.9991, 34.66052
517.4813, 33.64429
517.9634, 32.60156
518.4455, 31.39917
518.9276, 30.19592
519.4097, 28.81958
519.8918, 27.82581
520.3740, 27.56665
520.8561, 28.41406
521.3382, 28.38611
521.8203, 26.95227
522.3024, 25.16455
522.7845, 24.16650
523.2667, 23.99890
523.7488, 24.40356
524.2309, 25.60986
524.7130, 27.08301
525.1951, 27.48108
525.6772, 26.85291
526.1594, 25.81030
526.6415, 24.97998
527.1236, 23.99170
527.6057, 21.64539
528.0878, 17.91370
528.5699, 14.40906
529.0521, 12.51306
529.5342, 11.70056
530.0163, 11.36316
530.4984, 11.67725
530.9805, 11.83789
531.4626, 11.23914
531.9448, 10.19775
532.4269, 9.314941
532.9090, 8.886108
533.3911, 8.444336
533.8732, 7.532104
534.3553, 6.115112
534.8375, 5.728516
535.3196, 7.368286
535.8017, 8.989502
536.2838, 9.322876
536.7659, 7.572144
537.2480, 6.761108
537.7302, 7.274536
538.2123, 8.218750
538.6944, 8.215820
539.1765, 7.193726
539.6586, 6.280640
540.1407, 5.933716
540.6229, 5.821411
541.1050, 5.021851
541.5871, 3.642822
542.0692, 2.534424
542.5513, 2.518677
543.0334, 3.045410
543.5156, 3.373901
543.9977, 3.491943
544.4798, 3.169434
544.9619, 1.606567
545.4440, 0.2088620
545.9261, 1.210815
546.4083, 1.023804
546.8904, 0.1895750
547.3725, 1.929565
547.8546, 4.482056
548.3367, 5.708862
548.8188, 3.671143
549.3010, 1.987671
549.7831, 1.731689
550.2652, 2.861816
550.7473, 3.337280
551.2294, 2.987061
551.7115, 2.272217
552.1937, 1.454590
552.6758, 0.5566410
553.1579, 0.5803220
553.6400, 2.076782
554.1221, 3.304688
554.6042, 3.128296
555.0864, 1.795898
555.5685, 1.013794
556.0506, 1.688843
556.5327, 2.649658
557.0148, 1.874634
557.4969, 0.1545410
557.9791, 1.674072
558.4612, 1.136230
558.9433, 1.0990000E-03
559.4254, 0.6424560
559.9075, 0.7222900
560.3896, 0.4832760
560.8718, 0.7181400
561.3539, 1.751831
561.8360, 1.740845
562.3181, 0.5566410
562.8002, 2.161377
563.2823, 2.475952
563.7645, 2.158936
564.2466, 2.251465
564.7287, 3.060547
565.2108, 3.475708
565.6929, 3.101196
566.1750, 2.144775
566.6572, 1.502930
567.1393, 1.177612
567.6214, 1.228516
568.1035, 2.279419
568.5856, 3.830200
569.0677, 3.646851
569.5499, 1.574097
570.0320, 0.7203370
570.5141, 1.684082
570.9962, 1.800049
571.4783, 1.835938
571.9604, 1.924683
572.4426, 2.073486
572.9247, 2.758301
573.4068, 3.448120
573.8889, 3.197144
574.3710, 0.1115720
574.8531, 2.557373
575.3353, 2.069214
575.8174, 1.103882
576.2995, 2.712769
576.7816, 1.575317
577.2637, 0.1496580
577.7458, 0.5659180
578.2280, 0.4967040
578.7101, 1.2451000E-02
579.1922, 1.144287
579.6743, 2.311768
580.1564, 2.934082
580.6385, 3.021240
581.1207, 2.601440
581.6028, 1.403564
582.0849, 0.3322750
582.5670, 1.111328
583.0491, 3.234009
583.5313, 5.083618
584.0134, 5.328491
584.4955, 5.346558
584.9776, 6.839233
585.4597, 9.454102
585.9418, 11.17798
586.4240, 10.27039
586.9061, 8.793579
587.3882, 7.973511
587.8703, 8.171021
588.3524, 8.112183
588.8345, 6.924805
589.3167, 5.887207
589.7988, 6.180664
590.2809, 8.987549
590.7630, 10.23218
591.2451, 8.905518
591.7272, 6.619385
592.2094, 6.806885
592.6915, 9.666748
593.1736, 11.88232
593.6557, 12.18457
594.1378, 11.21960
594.6199, 10.28259
595.1021, 9.417358
595.5842, 8.846680
596.0663, 8.766846
596.5484, 9.044678
597.0305, 9.530029
597.5126, 10.21033
597.9948, 11.08228
598.4769, 12.91113
598.9590, 14.49280
599.4411, 14.68457
599.9232, 11.77112
600.4053, 9.930542
600.8875, 10.75073
601.3696, 12.66467
601.8517, 13.48572
602.3338, 12.67249
602.8159, 11.77917
603.2980, 10.73572
603.7802, 9.846924
604.2623, 10.50977
604.7444, 12.92346
605.2265, 15.44336
605.7086, 17.02612
606.1907, 17.94800
606.6729, 19.35181
607.1550, 21.20459
607.6371, 22.72925
608.1192, 22.82996
608.6013, 22.40076
609.0834, 22.77258
609.5656, 24.42847
610.0477, 25.76025
610.5298, 25.81812
611.0119, 25.09058
611.4940, 24.13159
611.9761, 22.20837
612.4583, 21.29919
612.9404, 22.60193
613.4225, 25.06042
613.9046, 26.24194
614.3867, 25.42859
614.8688, 24.89392
615.3510, 25.27136
615.8331, 26.44849
616.3152, 28.15894
616.7973, 30.38586
617.2794, 32.57593
617.7615, 34.31055
618.2437, 35.68701
618.7258, 37.08972
619.2079, 38.48718
619.6900, 39.69922
620.1721, 40.19727
620.6542, 40.43384
621.1364, 41.24023
621.6185, 43.52490
622.1006, 44.84827
622.5827, 43.08777
623.0648, 40.07764
623.5469, 38.39136
624.0291, 39.60938
624.5112, 41.00598
624.9933, 42.71204
625.4754, 44.32349
625.9575, 44.15894
626.4396, 41.50867
626.9218, 39.23279
627.4039, 38.49023
627.8860, 39.14758
628.3681, 40.53418
628.8502, 42.64966
629.3323, 44.45935
629.8145, 45.00610
630.2966, 44.73535
630.7787, 44.28113
631.2608, 43.62012
631.7429, 43.60449
632.2250, 45.16541
632.7072, 47.35999
633.1893, 49.39380
633.6714, 50.85754
634.1535, 52.62915
634.6356, 55.54102
635.1177, 58.59949
635.5999, 60.28345
636.0820, 59.58191
636.5641, 59.26392
637.0462, 59.81152
637.5283, 61.05127
638.0104, 62.64221
638.4926, 64.73718
638.9747, 66.21143
639.4568, 65.95776
639.9389, 64.80103
640.4210, 65.74207
640.9031, 68.75281
641.3853, 72.38110
641.8674, 76.59668
642.3495, 80.32361
642.8316, 81.55298
643.3137, 79.74500
643.7958, 79.07007
644.2780, 82.22864
644.7601, 87.10425
645.2422, 91.92163
645.7243, 97.66833
646.2064, 101.1873
646.6885, 100.5092
647.1707, 98.64197
647.6528, 99.96350
648.1349, 105.9301
648.6170, 110.3030
649.0991, 111.4492
649.5812, 110.8269
650.0634, 111.9303
650.5455, 114.7135
651.0276, 117.9760
651.5097, 121.8171
651.9918, 125.4609
652.4739, 127.2827
652.9561, 127.6096
653.4382, 128.2863
653.9203, 130.3098
654.4024, 133.1012
654.8845, 136.4930
655.3666, 140.5179
655.8488, 144.3348
656.3309, 147.3956
656.8130, 150.4774
657.2951, 154.0115
657.7772, 158.0153
658.2593, 162.4598
658.7415, 167.4209
659.2236, 172.7482
659.7057, 178.1595
660.1878, 183.6520
660.6699, 189.9683
661.1520, 197.1188
661.6342, 204.9741
662.1163, 213.8818
662.5984, 223.4036
663.0805, 232.2804
663.5626, 238.6860
664.0447, 245.6127
664.5269, 256.0223
665.0090, 268.6891
665.4911, 280.3160
665.9732, 288.6129
666.4553, 296.9529
666.9374, 306.6008
667.4196, 317.5460
667.9017, 328.7074
668.3838, 340.5912
668.8659, 352.0006
669.3480, 362.7605
669.8301, 372.8768
670.3123, 380.8591
670.7944, 386.5695
671.2765, 391.1693
671.7586, 395.7961
672.2407, 400.1161
672.7228, 403.5579
673.2050, 406.1880
673.6871, 406.8634
674.1692, 404.7305
674.6513, 400.1429
675.1334, 393.5253
675.6155, 384.3298
676.0977, 373.9336
676.5798, 363.1775
677.0619, 351.2589
677.5440, 336.8625
678.0261, 318.6910
678.5082, 301.2261
678.9904, 285.4089
679.4725, 270.7693
679.9546, 255.3807
680.4367, 239.5818
680.9188, 224.2268
681.4009, 210.2686
681.8831, 196.8842
682.3652, 182.1152
682.8473, 166.3407
683.3294, 152.1796
683.8115, 141.4781
684.2936, 132.5619
684.7758, 123.9471
685.2579, 115.6764
685.7400, 108.0881
686.2221, 100.8350
686.7042, 94.77319
687.1863, 90.53223
687.6685, 88.79504
688.1506, 85.84839
688.6327, 81.30859
689.1148, 76.18420
689.5969, 71.02478
690.0790, 65.83740
690.5612, 61.86475
691.0433, 59.36890
691.5254, 57.27905
692.0075, 54.33484
692.4896, 50.97461
692.9717, 48.06848
693.4539, 46.01099
693.9360, 44.14160
694.4181, 42.43652
694.9002, 40.61951
695.3823, 38.24939
695.8644, 34.15564
696.3466, 31.08887
696.8287, 30.10901
697.3108, 30.33630
697.7929, 29.15576
698.2750, 26.20129
698.7571, 23.33569
699.2393, 21.00647
699.7214, 19.34119
700.2035, 19.31384
700.6856, 20.61243
701.1677, 20.77600
701.6498, 17.12085
702.1320, 12.37964
702.6141, 9.441040
703.0962, 8.265015
703.5783, 7.932373
704.0604, 8.649414
704.5425, 9.482910
705.0247, 9.806030
705.5068, 9.391846
705.9889, 9.349854
706.4710, 9.887573
706.9531, 10.49768
707.4352, 10.91650
707.9174, 11.16272
708.3995, 11.05457
708.8816, 10.59180
709.3637, 9.835449
709.8458, 8.760620
710.3279, 7.473145
710.8101, 6.187134
711.2922, 4.972778
711.7743, 3.766968
712.2564, 2.366577
712.7385, 1.024658
713.2206, 2.8198000E-02
713.7028, 0.5364990
714.1849, 0.7092290
714.6670, 0.3464360
715.1491, 0.3687740
715.6312, 1.363281
716.1133, 3.131348
716.5955, 3.628906
717.0776, 2.067749
717.5597, 0.4577640
718.0418, 1.646973
718.5239, 1.601196
719.0060, 1.027466
719.4882, 2.5635000E-02
719.9703, 1.117798
720.4524, 2.131592
720.9345, 2.988037
721.4166, 3.655884
721.8987, 3.665039
722.3809, 3.891846
722.8630, 5.402954
723.3451, 7.865356
723.8272, 8.314453
724.3093, 5.306885
724.7914, 2.344116
725.2736, 0.8034670
725.7557, 0.5653080
726.2378, 0.1643070
726.7199, 1.458496
727.2020, 2.517822
727.6841, 2.526855
728.1663, 1.977417
728.6484, 2.198242
729.1305, 3.175659
729.6126, 3.671143
730.0947, 2.728760
730.5768, 1.043091
731.0590, 1.237427
731.5411, 4.507568
732.0232, 6.036011
732.5053, 3.533691
732.9874, 0.5518800
733.4695, 0.6993410
733.9517, 0.4594730
734.4338, 0.7545170
734.9159, 0.1109620
735.3980, 1.045898
735.8801, 0.4132080
736.3622, 1.254761
736.8444, 1.436157
737.3265, 0.5450440
737.8086, 2.476318
738.2907, 1.836182
738.7728, 5.4930001E-03
739.2549, 1.252441
739.7371, 1.595581
740.2192, 1.162109
740.7013, 1.192627
741.1834, 3.781006
741.6655, 4.321899
742.1476, 1.759399
742.6298, 0.2685550
743.1119, 1.095703
743.5940, 1.457275
744.0761, 2.943970
744.5582, 5.363037
745.0403, 7.059570
745.5225, 7.401123
746.0046, 6.965210
746.4867, 5.999634
746.9688, 4.816162
747.4509, 4.128052
747.9330, 4.986328
748.4152, 5.590820
748.8973, 4.964478
749.3794, 3.516724
749.8615, 2.615967
750.3436, 2.338501
750.8257, 2.681274
751.3079, 4.228516
751.7900, 6.218872
752.2721, 5.106445
752.7542, 0.9073490
753.2363, 2.223755
753.7184, 1.393433
754.2006, 1.200195
754.6827, 2.261230
755.1648, 2.033325
755.6469, 1.482666
756.1290, 0.9251710
756.6111, 0.3381350
757.0933, 0.5578610
757.5754, 1.684082
758.0575, 1.957886
758.5396, 1.110718
759.0217, 0.2452390
759.5038, 2.230103
759.9860, 4.661255
760.4681, 5.167725
760.9502, 3.534302
761.4323, 2.442261
761.9144, 4.533203
762.3965, 8.047363
762.8787, 9.716797
763.3608, 9.542236
763.8429, 8.907959
764.3250, 7.762085
764.8071, 7.114380
765.2892, 8.109863
765.7714, 11.20837
766.2535, 12.76709
766.7356, 11.59302
767.2177, 10.20105
767.6998, 10.11487
768.1819, 11.45386
768.6641, 11.98450
769.1462, 11.62036
769.6283, 11.15222
770.1104, 11.10144
770.5925, 11.45569
771.0746, 12.46460
771.5568, 14.17566
772.0389, 15.33276
772.5210, 14.17065
773.0031, 12.79089
773.4852, 13.04419
773.9673, 16.02075
774.4495, 17.75354
774.9316, 17.54248
775.4137, 16.70239
775.8958, 16.26538
776.3779, 16.36157
776.8600, 15.45471
777.3422, 13.29614
777.8243, 11.35815
778.3064, 11.45508
778.7885, 12.78345
779.2706, 13.89392
779.7527, 14.58679
780.2349, 14.95435
780.7170, 14.59729
781.1991, 14.23242
781.6812, 14.55054
782.1633, 16.31897
782.6454, 17.47961
783.1276, 17.72937
783.6097, 17.75281
784.0918, 18.36462
784.5739, 19.53442
785.0560, 19.82715
785.5381, 19.00439
786.0203, 18.19714
786.5024, 18.85217
786.9845, 20.20142
787.4666, 20.93213
787.9487, 20.57642
788.4308, 20.53015
788.9130, 21.51208
789.3951, 22.97656
789.8772, 24.44592
790.3593, 26.23889
790.8414, 27.23218
791.3235, 26.94824
791.8057, 26.45435
792.2878, 27.40955
792.7699, 29.61902
793.2520, 29.72974
793.7341, 26.92456
794.2162, 23.85352
794.6984, 23.68958
795.1805, 25.01538
795.6626, 25.59119
796.1447, 24.93652
796.6268, 23.92224
797.1089, 22.44775
797.5911, 20.85620
798.0732, 19.56628
798.5553, 18.78430
799.0374, 17.52661
799.5195, 15.78394
800.0016, 14.05530
800.4838, 12.38611
800.9659, 10.83862
801.4480, 10.44336
801.9301, 11.69849
802.4122, 12.86682
802.8943, 11.82153
803.3765, 9.844482
803.8586, 8.591797
804.3407, 8.712280
804.8228, 9.140869
805.3049, 10.05481
805.7870, 10.91211
806.2692, 11.08875
806.7513, 10.32056
807.2334, 9.830566
807.7155, 9.726807
808.1976, 9.853271
808.6797, 10.38818
809.1619, 10.98438
809.6440, 10.45862
810.1261, 8.243164
810.6082, 6.085938
811.0903, 5.156250
811.5724, 5.071533
812.0546, 5.250122
812.5367, 5.473755
813.0188, 6.033936
813.5009, 7.195313
813.9830, 8.493896
814.4651, 9.585815
814.9473, 10.50354
815.4294, 10.26343
815.9115, 8.639282
816.3936, 6.856567
816.8757, 6.223755
817.3578, 6.346313
817.8400, 6.597046
818.3221, 6.789185
818.8042, 7.240479
819.2863, 8.053833
819.7684, 9.177856
820.2505, 10.64282
820.7327, 12.94714
821.2148, 14.22070
821.6969, 14.03064
822.1790, 13.50867
822.6611, 14.15112
823.1432, 15.64648
823.6254, 15.75830
824.1075, 14.05054
824.5896, 12.61584
825.0717, 14.15918
825.5538, 16.73499
826.0359, 18.12842
826.5181, 17.87964
827.0002, 16.71399
827.4823, 14.19983
827.9644, 11.33569
828.4465, 8.573853
828.9286, 5.758179
829.4108, 4.212891
829.8929, 4.112671
830.3750, 4.750977
830.8571, 6.181274
831.3392, 7.716797
831.8214, 7.619629
832.3035, 5.671631
832.7856, 3.526855
833.2677, 1.309326
833.7498, 5.9691999E-02
834.2319, 0.4968260
834.7141, 3.907471
835.1962, 5.532349
835.6783, 4.656494
836.1604, 3.123291
836.6425, 1.894897
837.1246, 1.017212
837.6068, 0.9165040
838.0889, 1.553467
838.5710, 2.582886
839.0531, 4.272705
839.5352, 6.039673
840.0173, 7.382935
840.4995, 8.277954
840.9816, 8.531372
841.4637, 6.676758
841.9458, 5.325562
842.4279, 6.101929
842.9100, 8.939941
843.3922, 9.728882
843.8743, 8.036377
844.3564, 6.578125
844.8385, 7.702148
845.3206, 10.00208
845.8027, 9.781738
846.2849, 7.483521
846.7670, 5.637207
847.2491, 6.423828
847.7312, 7.401733
848.2133, 7.246704
848.6954, 5.990234
849.1776, 4.496704
849.6597, 2.480469
850.1418, 1.106812
850.6239, 0.6746830
851.1060, 0.9215090
851.5881, 1.957397
852.0703, 3.702393
852.5524, 5.423340
853.0345, 7.169434
853.5166, 8.319214
853.9987, 7.696411
854.4808, 6.006958
854.9630, 5.058350
855.4451, 6.370728
855.9272, 7.209106
856.4093, 6.773193
856.8914, 5.603882
857.3735, 4.954712
857.8557, 4.827881
858.3378, 5.116089
858.8199, 5.973145
859.3020, 6.857666
859.7841, 7.062622
860.2662, 6.669556
860.7484, 5.802734
861.2305, 3.909058
861.7126, 2.486328
862.1947, 2.520508
862.6768, 3.215332
863.1589, 3.381348
863.6411, 2.684448
864.1232, 2.453613
864.6053, 2.872803
865.0874, 3.623779
865.5695, 4.496948
866.0516, 5.354858
866.5338, 5.839722
867.0159, 5.933594
867.4980, 5.384521
867.9801, 2.932373
868.4622, 0.3579100
868.9443, 0.5268550
869.4265, 1.488403
869.9086, 2.985596
870.3907, 3.931030
870.8728, 4.403076
871.3549, 4.375244
871.8370, 3.880371
872.3192, 3.095337
872.8013, 1.992432
873.2834, 1.431519
873.7655, 2.757324
874.2476, 4.532104
874.7297, 5.282837
875.2119, 4.857788
875.6940, 4.185547
876.1761, 2.510376
876.6582, 1.711060
877.1403, 2.965576
877.6224, 6.028809
878.1046, 7.598999
878.5867, 7.657227
879.0688, 6.801270
879.5509, 4.556030
880.0330, 2.140625
880.5151, 1.813232
880.9973, 3.002686
881.4794, 3.446045
881.9615, 1.104004
882.4436, 0.9429930
882.9257, 1.665649
883.4078, 1.208252
883.8900, 0.4263920
884.3721, 3.700684
884.8542, 5.599976
885.3363, 4.899170
885.8184, 2.938110
886.3005, 1.746948
886.7827, 1.183350
887.2648, 0.9028320
887.7469, 0.5852050
888.2290, 0.7829590
888.7111, 2.680786
889.1932, 4.847534
889.6754, 5.093872
890.1575, 2.308105
890.6396, 0.5231930
891.1217, 0.2309570
891.6038, 0.6278080
892.0859, 0.9311520
892.5681, 1.105225
893.0502, 0.9771730
893.5323, 0.4958500
894.0144, 3.5645001E-02
894.4965, 0.6866460
894.9786, 1.101318
895.4608, 0.8669430
895.9429, 0.3686520
896.4250, 1.130615
896.9071, 1.359741
897.3892, 1.182373
897.8713, 0.3305660
898.3535, 0.9188230
898.8356, 0.5667720
899.3177, 1.256470
899.7998, 2.908569
900.2819, 3.029297
900.7640, 2.804810
901.2462, 3.321167
901.7283, 4.460327
902.2104, 4.700439
902.6925, 3.373901
903.1746, 2.316040
903.6567, 2.184082
904.1389, 2.656616
904.6210, 2.584106
905.1031, 2.039185
905.5852, 1.412964
906.0673, 0.8417970
906.5494, 0.2679440
907.0316, 1.158936
907.5137, 2.462646
907.9958, 1.920776
908.4779, 3.978027
908.9600, 7.369141
909.4421, 6.431885
909.9243, 3.962280
910.4064, 3.769165
910.8885, 5.743530
911.3706, 8.187500
911.8527, 11.14404
912.3348, 12.69287
912.8170, 9.310547
913.2991, 4.404663
913.7812, 2.052246
914.2633, 3.632080
914.7454, 4.803711
915.2275, 4.782593
915.7097, 4.349243
916.1918, 3.805298
916.6739, 3.160767
917.1560, 3.078003
917.6381, 3.561523
918.1202, 4.089600
918.6024, 4.307129
919.0845, 4.366089
919.5666, 4.070801
920.0487, 3.628662
920.5308, 4.122437
921.0129, 6.744385
921.4951, 9.378052
921.9772, 12.07703
922.4593, 14.15771
922.9414, 12.66577
923.4235, 7.698364
923.9056, 4.474365
924.3878, 5.320923
924.8699, 7.349121
925.3520, 7.395630
925.8341, 6.327759
926.3162, 5.518433
926.7983, 5.358032
927.2805, 5.534546
927.7626, 6.324707
928.2447, 7.112183
928.7268, 7.311157
929.2089, 6.946899
929.6910, 6.047852
930.1732, 4.591431
930.6553, 3.287598
931.1374, 2.519043
931.6195, 2.437012
932.1016, 3.520142
932.5837, 5.867798
933.0659, 7.646118
933.5480, 8.149780
934.0301, 8.252808
934.5122, 8.144409
934.9943, 7.849731
935.4764, 7.574219
935.9586, 7.302368
936.4407, 7.556885
936.9228, 9.034058
937.4049, 10.71252
937.8870, 11.50745
938.3691, 11.68811
938.8513, 11.87317
939.3334, 13.00574
939.8155, 13.03467
940.2976, 11.13025
940.7797, 8.599243
941.2618, 7.897461
941.7440, 8.904419
942.2261, 8.898926
942.7082, 7.254883
943.1903, 5.637573
943.6724, 5.564575
944.1545, 6.397949
944.6367, 7.619263
945.1188, 9.331665
945.6009, 10.46387
946.0830, 10.74646
946.5651, 10.65552
947.0472, 10.41113
947.5294, 9.981201
948.0115, 9.280029
948.4936, 8.323120
948.9757, 7.484741
949.4578, 7.223022
949.9399, 7.007690
950.4221, 6.424927
950.9042, 5.571777
951.3863, 4.819580
951.8684, 4.441284
952.3505, 3.793945
952.8326, 2.735229
953.3148, 1.598999
953.7969, 1.132690
954.2790, 1.100586
954.7611, 0.5238040
955.2432, 1.035034
955.7253, 2.408203
956.2075, 2.631104
956.6896, 2.358154
957.1717, 2.368164
957.6538, 3.160400
958.1359, 3.248535
958.6180, 2.579468
959.1002, 1.447876
959.5823, 0.3989260
960.0644, 2.448730
960.5465, 2.724243
961.0286, 1.441406
961.5107, 0.6199950
961.9929, 1.878662
962.4750, 3.431885
962.9571, 4.214478
963.4392, 4.505249
963.9213, 5.669922
964.4034, 8.279785
964.8856, 9.156616
965.3677, 7.002075
965.8498, 4.047607
966.3319, 3.876221
966.8140, 5.419800
967.2961, 7.054077
967.7783, 8.767944
968.2604, 9.413574
968.7425, 7.436768
969.2246, 5.075806
969.7067, 4.105347
970.1888, 4.755737
970.6710, 5.308838
971.1531, 5.757446
971.6352, 6.060669
972.1173, 6.063965
972.5994, 6.007935
973.0815, 6.316406
973.5637, 6.906860
974.0458, 7.311890
974.5279, 7.097656
975.0100, 6.998291
975.4921, 7.266846
975.9742, 7.733032
976.4564, 7.823853
976.9385, 7.600220
977.4206, 8.148682
977.9027, 10.19971
978.3848, 11.79016
978.8669, 10.31946
979.3491, 7.687256
979.8312, 6.216064
980.3133, 6.941650
980.7954, 7.327759
981.2775, 7.121094
981.7596, 6.846802
982.2418, 6.814575
982.7239, 7.000000
983.2060, 7.551392
983.6881, 8.362549
984.1702, 8.702515
984.6523, 7.343140
985.1345, 6.085693
985.6166, 6.120361
986.0987, 7.156616
986.5808, 7.973633
987.0629, 8.522583
987.5450, 8.953369
988.0272, 9.248047
988.5093, 9.578735
988.9914, 10.77905
989.4735, 12.10388
989.9556, 11.65613
990.4377, 8.452026
990.9199, 5.980835
991.4020, 6.670532
991.8841, 7.779053
992.3662, 7.238525
992.8483, 4.976929
993.3304, 4.602173
993.8126, 6.253174
994.2947, 7.352051
994.7768, 5.250000
995.2589, 2.442017
995.7410, 1.997681
996.2231, 3.325439
996.7053, 4.654907
997.1874, 5.880615
997.6695, 6.365234
998.1516, 5.448853
998.6337, 4.401855
999.1158, 5.919067
999.5980, 9.405273
1000.080, 10.25659
1000.562, 7.555786
1001.044, 4.574707
1001.526, 3.591919
1002.009, 3.569824
1002.491, 3.897095
1002.973, 4.595093
1003.455, 4.591064
1003.937, 3.606079
1004.419, 2.875977
1004.901, 3.078003
1005.383, 3.806030
1005.865, 4.019043
1006.348, 3.994995
1006.830, 4.525024
1007.312, 6.789185
1007.794, 8.604248
1008.276, 8.854248
1008.758, 8.578369
1009.240, 8.975464
1009.722, 10.15979
1010.205, 10.47937
1010.687, 9.725342
1011.169, 8.986694
1011.651, 9.454468
1012.133, 10.32568
1012.615, 10.64038
1013.097, 10.30554
1013.579, 10.20483
1014.061, 10.94617
1014.544, 11.37378
1015.026, 10.95471
1015.508, 10.10840
1015.990, 10.21338
1016.472, 11.03931
1016.954, 11.42322
1017.436, 10.85950
1017.918, 10.24561
1018.401, 9.896973
1018.883, 9.848267
1019.365, 10.12708
1019.847, 10.83374
1020.329, 12.00183
1020.811, 13.89880
1021.293, 14.80786
1021.775, 12.15637
1022.257, 8.476440
1022.740, 8.310425
1023.222, 10.76392
1023.704, 12.22571
1024.186, 9.176514
1024.668, 7.983154
1025.150, 10.73999
1025.632, 15.18323
1026.114, 17.57886
1026.596, 18.08289
1027.079, 18.47400
1027.561, 19.04260
1028.043, 19.40234
1028.525, 19.03845
1029.007, 18.48218
1029.489, 18.12695
1029.971, 18.01831
1030.453, 18.46082
1030.936, 19.79285
1031.418, 20.52234
1031.900, 19.62097
1032.382, 18.17810
1032.864, 18.29761
1033.346, 19.61133
1033.828, 21.28662
1034.310, 23.69055
1034.792, 25.40894
1035.275, 25.52954
1035.757, 25.23779
1036.239, 25.74487
1036.721, 27.07837
1037.203, 28.31531
1037.685, 29.42273
1038.167, 30.00244
1038.649, 28.36255
1039.132, 27.29016
1039.614, 30.05054
1040.096, 35.68176
1040.578, 38.82959
1041.060, 38.21875
1041.542, 37.81934
1042.024, 38.25024
1042.506, 39.45276
1042.989, 41.68347
1043.471, 44.52173
1043.953, 47.02344
1044.435, 48.89856
1044.917, 51.15125
1045.399, 55.77710
1045.881, 59.15454
1046.363, 58.91052
1046.845, 55.66687
1047.328, 54.36279
1047.810, 54.91919
1048.292, 56.11609
1048.774, 58.09729
1049.256, 59.55615
1049.738, 59.48035
1050.220, 58.19800
1050.702, 56.04016
1051.184, 51.98486
1051.667, 49.99109
1052.149, 50.71460
1052.631, 51.56189
1053.113, 50.01550
1053.595, 47.04053
1054.077, 44.53333
1054.559, 42.45837
1055.041, 39.99084
1055.523, 35.39600
1056.006, 32.23865
1056.488, 32.20166
1056.970, 33.48828
1057.452, 32.33838
1057.934, 28.99695
1058.416, 25.39917
1058.898, 21.76074
1059.380, 18.97485
1059.863, 18.41553
1060.345, 18.61865
1060.827, 18.47937
1061.309, 17.91748
1061.791, 16.99634
1062.273, 15.55847
1062.755, 14.45520
1063.237, 14.24951
1063.719, 14.31018
1064.202, 13.61670
1064.684, 12.46143
1065.166, 11.41284
1065.648, 10.89185
1066.130, 10.05713
1066.612, 8.783203
1067.094, 7.266724
1067.576, 5.253784
1068.059, 3.038452
1068.541, 2.803589
1069.023, 4.336426
1069.505, 5.731934
1069.987, 5.822144
1070.469, 5.519043
1070.951, 5.099243
1071.433, 4.669067
1071.916, 4.477539
1072.398, 4.581665
1072.880, 4.458252
1073.362, 4.066528
1073.844, 3.316528
1074.326, 1.557983
1074.808, 0.2027590
1075.290, 0.6643070
1075.772, 0.3027340
1076.255, 0.7031250
1076.737, 0.1943360
1077.219, 0.3316650
1077.701, 0.5430910
1078.183, 0.6596680
1078.665, 1.338501
1079.147, 2.242554
1079.629, 2.532227
1080.111, 1.808350
1080.594, 1.048828
1081.076, 0.7498780
1081.558, 0.3774410
1082.040, 0.5604250
1082.522, 1.916870
1083.004, 1.899780
1083.486, 0.6760250
1083.968, 5.3100999E-02
1084.450, 1.181274
1084.933, 2.609253
1085.415, 3.261597
1085.897, 3.312378
1086.379, 3.020752
1086.861, 2.197754
1087.343, 1.951050
1087.825, 2.406982
1088.307, 3.001343
1088.790, 3.565186
1089.272, 3.786499
1089.754, 2.996338
1090.236, 1.416748
1090.718, 0.3205570
1091.200, 0.3479000
1091.682, 1.8677000E-02
1092.164, 1.276123
1092.646, 2.378662
1093.129, 0.8195800
1093.611, 2.204834
1094.093, 3.668823
1094.575, 3.028076
1095.057, 2.061890
1095.539, 1.237305
1096.021, 0.5998540
1096.503, 8.4105998E-02
1096.986, 0.2141110
1097.468, 0.2769780
1097.950, 1.436401
1098.432, 2.169312
1098.914, 1.998779
1099.396, 1.684692
1099.878, 1.831909
1100.360, 2.070679
1100.843, 1.984985
1101.325, 1.504639
1101.807, 1.355713
1102.289, 1.563354
1102.771, 1.814575
1103.253, 1.791138
1103.735, 1.867065
1104.217, 2.826904
1104.699, 4.137695
1105.182, 4.778809
1105.664, 4.196533
1106.146, 3.572632
1106.628, 2.902222
1107.110, 2.280762
1107.592, 1.651367
1108.074, 1.180664
1108.556, 1.299683
1109.038, 1.913940
1109.521, 2.445679
1110.003, 2.661621
1110.485, 2.714111
1110.967, 2.356812
1111.449, 2.179321
1111.931, 3.598022
1112.413, 6.066284
1112.895, 6.812744
1113.377, 5.492676
1113.860, 4.259033
1114.342, 4.626587
1114.824, 5.257813
1115.306, 5.527344
1115.788, 5.472412
1116.270, 5.040649
1116.752, 4.248291
1117.234, 3.957397
1117.717, 4.471680
1118.199, 5.174316
1118.681, 5.262451
1119.163, 5.438965
1119.645, 6.633789
1120.127, 8.928955
1120.609, 10.19775
1121.091, 10.37085
1121.573, 9.716187
1122.056, 7.712036
1122.538, 5.948975
1123.020, 7.459473
1123.502, 10.20630
1123.984, 10.86035
1124.466, 7.113892
1124.948, 5.074829
1125.430, 5.102905
1125.913, 6.167358
1126.395, 8.330322
1126.877, 10.71704
1127.359, 11.22168
1127.841, 10.28235
1128.323, 9.079346
1128.805, 7.352173
1129.287, 6.386475
1129.770, 6.122314
1130.252, 6.921997
1130.734, 9.953125
1131.216, 14.36755
1131.698, 16.71313
1132.180, 16.97888
1132.662, 16.50159
1133.144, 15.29346
1133.626, 14.42261
1134.109, 14.34790
1134.591, 14.62500
1135.073, 14.45569
1135.555, 13.93652
1136.037, 14.45447
1136.519, 16.18262
1137.001, 17.16882
1137.483, 15.11511
1137.965, 12.79480
1138.448, 12.29285
1138.930, 10.90417
1139.412, 9.988037
1139.894, 10.20459
1140.376, 9.311157
1140.858, 10.28894
1141.340, 11.40259
1141.822, 10.85913
1142.304, 9.831909
1142.787, 9.267700
1143.269, 9.259521
1143.751, 9.838257
1144.233, 11.10950
1144.715, 12.27747
1145.197, 13.03638
1145.679, 13.56726
1146.161, 13.95813
1146.644, 14.30713
1147.126, 14.79590
1147.608, 15.55176
1148.090, 15.94543
1148.572, 15.95142
1149.054, 15.65698
1149.536, 15.22424
1150.018, 14.37231
1150.500, 11.96472
1150.983, 9.063721
1151.465, 7.531006
1151.947, 8.422241
1152.429, 9.792480
1152.911, 12.01660
1153.393, 13.59656
1153.875, 13.21741
1154.357, 11.52832
1154.840, 9.964722
1155.322, 8.589478
1155.804, 7.664063
1156.286, 7.825317
1156.768, 7.616455
1157.250, 6.546753
1157.732, 5.474731
1158.214, 5.256714
1158.697, 5.719360
1159.179, 6.395142
1159.661, 7.155884
1160.143, 7.370483
1160.625, 6.036377
1161.107, 5.101196
1161.589, 5.208008
1162.071, 5.583008
1162.553, 5.336304
1163.036, 4.662964
1163.518, 4.861816
1164.000, 5.957642
1164.482, 6.607178
1164.964, 4.763428
1165.446, 3.294922
1165.928, 4.475830
1166.410, 6.662109
1166.892, 6.375366
1167.375, 3.860352
1167.857, 2.885132
1168.339, 4.016235
1168.821, 4.985474
1169.303, 2.955811
1169.785, 1.324463
1170.267, 3.155518
1170.749, 6.998535
1171.231, 8.687256
1171.714, 8.235596
1172.196, 7.861816
1172.678, 7.958496
1173.160, 8.221313
1173.642, 8.643555
1174.124, 8.992432
1174.606, 8.881104
1175.088, 8.476563
1175.571, 9.111206
1176.053, 10.91016
1176.535, 11.19287
1177.017, 8.697998
1177.499, 6.190552
1177.981, 6.751709
1178.463, 8.278564
1178.945, 8.670410
1179.427, 7.800293
1179.910, 7.329834
1180.392, 7.306274
1180.874, 7.195923
1181.356, 6.758667
1181.838, 6.130493
1182.320, 5.436157
1182.802, 4.690186
1183.284, 3.823364
1183.767, 2.773193
1184.249, 2.193848
1184.731, 2.178955
1185.213, 2.031616
1185.695, 1.178467
1186.177, 0.4085690
1186.659, 1.103149
1187.141, 2.309937
1187.624, 2.611450
1188.106, 1.643555
1188.588, 0.4116210
1189.070, 1.248047
1189.552, 2.099365
1190.034, 0.8468020
1190.516, 0.9902340
1190.998, 1.654663
1191.480, 1.503418
1191.963, 1.095581
1192.445, 0.3750000
1192.927, 0.2307130
1193.409, 0.7531740
1193.891, 1.129272
1194.373, 1.499146
1194.855, 1.604858
1195.337, 1.203003
1195.819, 0.2746580
1196.302, 1.360352
1196.784, 4.719604
1197.266, 6.251831
1197.748, 5.523071
1198.230, 4.461426
1198.712, 4.681396
1199.194, 5.457886
1199.676, 6.161987
1200.158, 6.608765
1200.641, 6.219238
1201.123, 4.105103
1201.605, 3.315796
1202.087, 4.315918
1202.569, 5.482544
1203.051, 5.134644
1203.533, 4.226685
1204.015, 4.063110
1204.498, 4.458008
1204.980, 4.568604
1205.462, 3.942139
1205.944, 3.875000
1206.426, 4.585571
1206.908, 5.392334
1207.390, 5.391479
1207.872, 5.238281
1208.354, 5.893799
1208.837, 7.201416
1209.319, 8.292480
1209.801, 9.024170
1210.283, 9.740234
1210.765, 10.62537
1211.247, 10.90271
1211.729, 8.917114
1212.211, 6.415771
1212.694, 5.903809
1213.176, 7.125854
1213.658, 7.857178
1214.140, 7.997559
1214.622, 7.280029
1215.104, 5.475708
1215.586, 3.721313
1216.068, 3.615234
1216.551, 4.017090
1217.033, 3.525391
1217.515, 2.152954
1217.997, 0.6746830
1218.479, 1.264282
1218.961, 1.709839
1219.443, 7.1410999E-02
1219.925, 1.962891
1220.407, 2.872314
1220.890, 2.846924
1221.372, 1.441650
1221.854, 1.009521
1222.336, 1.564819
1222.818, 0.3338620
1223.300, 2.209106
1223.782, 3.656494
1224.264, 4.608276
1224.746, 5.021118
1225.229, 4.888428
1225.711, 3.750977
1226.193, 1.834961
1226.675, 1.455078
1227.157, 2.941528
1227.639, 4.473999
1228.121, 5.842896
1228.603, 6.325317
1229.085, 3.752686
1229.568, 0.9926760
1230.050, 1.369385
1230.532, 4.624390
1231.014, 6.331421
1231.496, 6.400146
1231.978, 5.844482
1232.460, 4.831177
1232.942, 3.740601
1233.425, 2.555054
1233.907, 1.741211
1234.389, 2.056519
1234.871, 1.527222
1235.353, 1.533203
1235.835, 2.177734
1236.317, 1.994507
1236.799, 3.487793
1237.281, 4.697388
1237.764, 3.241577
1238.246, 1.454834
1238.728, 1.537109
1239.210, 2.958130
1239.692, 3.297363
1240.174, 2.601929
1240.656, 2.285278
1241.138, 2.777588
1241.621, 3.158325
1242.103, 2.391602
1242.585, 1.632446
1243.067, 1.653687
1243.549, 2.264038
1244.031, 2.827637
1244.513, 3.346924
1244.995, 3.559937
1245.478, 3.118164
1245.960, 2.832031
1246.442, 4.069092
1246.924, 5.846069
1247.406, 7.763794
1247.888, 9.417236
1248.370, 9.560913
1248.852, 8.623169
1249.334, 8.414185
1249.817, 9.355469
1250.299, 9.530396
1250.781, 7.303833
1251.263, 4.978394
1251.745, 3.290039
1252.227, 2.325928
1252.709, 2.822876
1253.191, 4.175903
1253.673, 4.400269
1254.156, 2.866943
1254.638, 2.091675
1255.120, 3.428589
1255.602, 4.754639
1256.084, 5.261963
1256.566, 5.511475
1257.048, 6.892334
1257.530, 8.790161
1258.012, 9.884521
1258.495, 9.864990
1258.977, 9.812012
1259.459, 9.766357
1259.941, 10.03223
1260.423, 10.68689
1260.905, 11.15149
1261.387, 10.41699
1261.869, 8.960938
1262.352, 7.610962
1262.834, 7.329224
1263.316, 6.845947
1263.798, 5.648193
1264.280, 5.676636
1264.762, 7.912964
1265.244, 10.53857
1265.726, 11.52808
1266.208, 11.30396
1266.691, 10.31128
1267.173, 8.528809
1267.655, 7.311523
1268.137, 6.629150
1268.619, 6.481201
1269.101, 6.972046
1269.583, 7.608276
1270.065, 7.924438
1270.548, 8.035767
1271.030, 8.430664
1271.512, 8.868286
1271.994, 8.549561
1272.476, 7.439575
1272.958, 6.090820
1273.440, 4.582031
1273.922, 3.601318
1274.405, 4.497314
1274.887, 5.283569
1275.369, 4.441162
1275.851, 2.764282
1276.333, 2.580688
1276.815, 3.605103
1277.297, 4.322388
1277.779, 4.481445
1278.261, 4.651855
1278.744, 5.580444
1279.226, 5.872803
1279.708, 4.504517
1280.190, 2.717896
1280.672, 3.108276
1281.154, 4.934937
1281.636, 6.559692
1282.118, 7.746582
1282.600, 7.929443
1283.083, 6.176514
1283.565, 4.657349
1284.047, 3.802856
1284.529, 3.532715
1285.011, 4.222534
1285.493, 5.167725
1285.975, 5.218018
1286.457, 4.327515
1286.939, 3.429688
1287.422, 2.697144
1287.904, 1.722046
1288.386, 0.2731930
1288.868, 0.6158450
1289.350, 1.2939000E-02
1289.832, 1.893433
1290.314, 5.758179
1290.796, 10.65955
1291.279, 12.53796
1291.761, 11.12598
1292.243, 9.047607
1292.725, 6.564941
1293.207, 4.743286
1293.689, 4.978027
1294.171, 5.583862
1294.653, 5.512695
1295.135, 4.935425
1295.618, 3.648682
1296.100, 2.508545
1296.582, 1.622314
1297.064, 0.9779050
1297.546, 1.072632
1298.028, 3.202148
1298.510, 4.151245
1298.992, 2.502075
1299.475, 0.2656250
1299.957, 5.6763001E-02
1300.439, 1.540894
1300.921, 2.447754
1301.403, 1.213379
1301.885, 0.0000000E+00
##END=



