##NAMES=Alabandite
##RRUFFID=R070174
##IDEAL CHEMISTRY=Mn^2+^S
##LOCALITY=Mina Preciosa, Sangue de Cristo, Puebla, Mexico
##OWNER=Michael Scott
##SOURCE=Michael Scott
##DESCRIPTION=Dull dark gray semi-metallic coarse crystals associated with pyrite and calcite
##STATUS=The identification of this mineral has been confirmed by X-ray diffraction and chemical analysis
##URL=rruff.info/R070174
##MEASURED CHEMISTRY=Mn^2+^_1.00_S_1.00_
199.4506, 0.0000000E+00
199.9327, 0.1356810
200.4148, 0.3366470
200.8969, 0.4889450
201.3790, 0.5797650
201.8611, 0.2923970
202.3433, 7.4607998E-02
202.8254, 8.9576997E-02
203.3075, 4.4922002E-02
203.7896, 0.2821810
204.2717, 0.7504430
204.7538, 0.9188310
205.2360, 0.6662140
205.7181, 0.5514980
206.2002, 1.034012
206.6823, 2.259056
207.1644, 3.073921
207.6465, 3.278008
208.1287, 3.069252
208.6108, 3.070549
209.0929, 3.351219
209.5750, 3.645226
210.0571, 3.719238
210.5392, 3.471252
211.0214, 3.556740
211.5035, 4.131088
211.9856, 5.034195
212.4677, 5.765785
212.9498, 6.320839
213.4319, 6.729225
213.9140, 7.029213
214.3962, 7.248772
214.8783, 7.251701
215.3604, 6.944214
215.8425, 6.423218
216.3246, 6.061577
216.8067, 5.841919
217.2889, 5.806389
217.7710, 6.073021
218.2531, 6.880997
218.7352, 7.249878
219.2173, 6.939346
219.6994, 6.128609
220.1816, 5.639778
220.6637, 5.673561
221.1458, 5.935005
221.6279, 6.210464
222.1100, 6.552818
222.5921, 6.895569
223.0743, 7.271500
223.5564, 7.605705
224.0385, 7.663963
224.5206, 7.337906
225.0027, 6.955017
225.4848, 6.716194
225.9670, 6.677132
226.4491, 6.657394
226.9312, 6.654190
227.4133, 6.662796
227.8954, 6.669426
228.3775, 6.689857
228.8597, 6.679688
229.3418, 6.620659
229.8239, 6.542953
230.3060, 6.338707
230.7881, 5.950233
231.2702, 5.420166
231.7524, 4.973015
232.2345, 4.663277
232.7166, 4.359192
233.1987, 3.972755
233.6808, 3.419800
234.1629, 2.963478
234.6451, 2.612114
235.1272, 2.365746
235.6093, 2.252396
236.0914, 2.429306
236.5735, 2.524277
237.0556, 2.302933
237.5378, 1.573700
238.0199, 0.9463880
238.5020, 0.4380040
238.9841, 5.4970000E-02
239.4662, 0.1273350
239.9483, 9.9068001E-02
240.4305, 0.2483900
240.9126, 1.5617000E-02
241.3947, 0.9133300
241.8768, 1.519142
242.3589, 1.671104
242.8410, 1.474632
243.3232, 1.286987
243.8053, 1.088089
244.2874, 0.9293290
244.7695, 0.8525920
245.2516, 0.9293820
245.7337, 0.9345630
246.2159, 0.8657380
246.6980, 0.7230000
247.1801, 0.4996640
247.6622, 0.1509020
248.1443, 0.2108690
248.6264, 0.5538560
249.1086, 0.9689560
249.5907, 1.130066
250.0728, 0.8843610
250.5549, 0.4241260
251.0370, 0.2680130
251.5191, 0.5217820
252.0013, 0.9162830
252.4834, 1.349464
252.9655, 1.827545
253.4476, 2.335350
253.9297, 2.943756
254.4118, 3.551285
254.8940, 3.921539
255.3761, 3.939606
255.8582, 3.923798
256.3403, 4.009178
256.8224, 4.236969
257.3046, 4.337570
257.7867, 4.342804
258.2688, 4.320549
258.7509, 4.388298
259.2330, 4.507675
259.7151, 4.788353
260.1973, 5.340599
260.6794, 6.267677
261.1615, 6.933464
261.6436, 7.245506
262.1257, 7.366165
262.6078, 7.511765
263.0900, 7.558792
263.5721, 7.933075
264.0542, 8.867020
264.5363, 10.49146
265.0184, 11.88845
265.5005, 13.01612
265.9827, 14.00085
266.4648, 15.07807
266.9469, 16.33176
267.4290, 17.40559
267.9111, 18.11739
268.3932, 18.42490
268.8754, 19.00164
269.3575, 19.86739
269.8396, 20.96302
270.3217, 22.23774
270.8038, 23.72643
271.2859, 25.23425
271.7681, 26.72923
272.2502, 28.19952
272.7323, 29.47283
273.2144, 30.43563
273.6965, 31.38523
274.1786, 32.70251
274.6608, 34.49976
275.1429, 36.12556
275.6250, 37.42432
276.1071, 38.41411
276.5892, 39.18963
277.0714, 39.64227
277.5535, 40.15750
278.0356, 41.16492
278.5177, 42.71773
278.9998, 44.18941
279.4819, 45.42186
279.9641, 46.48526
280.4462, 47.67583
280.9283, 49.04533
281.4104, 50.33150
281.8925, 51.27246
282.3746, 51.86269
282.8568, 52.54366
283.3389, 53.40918
283.8210, 54.39981
284.3031, 55.44141
284.7852, 56.57718
285.2673, 57.46170
285.7495, 57.65754
286.2316, 57.24215
286.7137, 57.23167
287.1958, 57.82585
287.6779, 58.78282
288.1600, 59.70418
288.6422, 60.59255
289.1243, 61.29639
289.6064, 61.56229
290.0885, 61.49786
290.5706, 61.71602
291.0527, 62.35284
291.5349, 63.07690
292.0170, 63.35706
292.4991, 63.21306
292.9812, 62.91455
293.4633, 62.47888
293.9454, 61.99159
294.4276, 61.77956
294.9097, 61.90308
295.3918, 62.12285
295.8739, 62.19777
296.3560, 62.12845
296.8381, 61.91231
297.3203, 61.31588
297.8024, 60.61848
298.2845, 60.57391
298.7666, 61.27287
299.2487, 61.82633
299.7308, 61.03844
300.2130, 59.35478
300.6951, 58.05310
301.1772, 57.99728
301.6593, 58.43660
302.1414, 58.28566
302.6235, 57.55293
303.1057, 56.62074
303.5878, 55.66103
304.0699, 54.74809
304.5520, 54.05801
305.0341, 53.85686
305.5162, 53.71326
305.9984, 53.11945
306.4805, 52.12994
306.9626, 51.07936
307.4447, 50.27550
307.9268, 49.52948
308.4089, 48.57590
308.8911, 47.17471
309.3732, 45.81431
309.8553, 45.10231
310.3374, 44.82214
310.8195, 44.21774
311.3016, 42.46812
311.7838, 40.41762
312.2659, 38.82568
312.7480, 37.97411
313.2301, 37.28932
313.7122, 36.39015
314.1943, 35.39383
314.6765, 34.57108
315.1586, 34.31628
315.6407, 34.08432
316.1228, 33.47093
316.6049, 32.33070
317.0870, 31.23242
317.5692, 30.51749
318.0513, 29.98586
318.5334, 29.36302
319.0155, 28.48753
319.4976, 27.56488
319.9797, 26.65573
320.4619, 25.75708
320.9440, 24.96704
321.4261, 24.50019
321.9082, 24.08260
322.3903, 23.45702
322.8724, 22.23830
323.3546, 21.13631
323.8367, 20.42198
324.3188, 20.08032
324.8009, 19.59415
325.2830, 18.70517
325.7651, 17.76349
326.2473, 16.99900
326.7294, 16.62389
327.2115, 16.21073
327.6936, 15.62673
328.1757, 14.94569
328.6578, 14.49765
329.1400, 14.65592
329.6221, 14.74158
330.1042, 14.44801
330.5863, 13.40887
331.0684, 12.59326
331.5505, 12.07297
332.0327, 11.76517
332.5148, 11.50055
332.9969, 11.28884
333.4790, 11.09794
333.9611, 10.90310
334.4432, 10.68640
334.9254, 10.51713
335.4075, 10.37939
335.8896, 10.30016
336.3717, 10.34226
336.8538, 10.58035
337.3359, 10.76089
337.8180, 10.82696
338.3001, 10.78065
338.7823, 10.60835
339.2644, 10.28130
339.7465, 9.899040
340.2286, 9.528938
340.7107, 9.159683
341.1928, 8.921158
341.6750, 8.886620
342.1571, 8.994583
342.6392, 9.012314
343.1213, 8.926208
343.6034, 8.820450
344.0855, 8.816162
344.5677, 8.905769
345.0498, 8.798088
345.5319, 8.372505
346.0140, 7.886322
346.4961, 7.927193
346.9782, 8.472183
347.4604, 8.961075
347.9425, 8.985413
348.4246, 8.664169
348.9067, 8.465050
349.3888, 8.423874
349.8709, 8.504646
350.3531, 8.730255
350.8352, 9.044258
351.3173, 9.260780
351.7994, 9.160751
352.2815, 8.973221
352.7636, 9.160728
353.2458, 9.733643
353.7279, 10.28295
354.2100, 10.44859
354.6921, 10.29716
355.1742, 9.976814
355.6563, 9.420395
356.1385, 8.897392
356.6206, 8.669525
357.1027, 8.679146
357.5848, 8.730721
358.0669, 8.747940
358.5490, 8.754303
359.0312, 8.777901
359.5133, 8.851471
359.9954, 8.888161
360.4775, 8.802208
360.9596, 8.639900
361.4417, 8.497765
361.9239, 8.467812
362.4060, 8.391716
362.8881, 8.151024
363.3702, 7.688919
363.8523, 7.300789
364.3344, 7.051224
364.8166, 6.965958
365.2987, 7.058685
365.7808, 7.676865
366.2629, 8.143707
366.7450, 8.124245
367.2271, 7.585114
367.7093, 7.292328
368.1914, 7.640259
368.6735, 8.116104
369.1556, 8.366364
369.6377, 8.027565
370.1198, 7.876228
370.6020, 8.058937
371.0841, 8.471184
371.5662, 8.723343
372.0483, 8.649956
372.5304, 8.654167
373.0125, 8.919838
373.4947, 9.599319
373.9768, 9.980934
374.4589, 9.983154
374.9410, 9.788559
375.4231, 9.654388
375.9052, 9.564117
376.3874, 9.561348
376.8695, 9.698860
377.3516, 9.972328
377.8337, 10.16230
378.3158, 10.27409
378.7979, 10.29663
379.2801, 10.18996
379.7622, 9.940849
380.2443, 9.691284
380.7264, 9.462860
381.2085, 9.265480
381.6906, 9.127335
382.1728, 9.052261
382.6549, 8.965775
383.1370, 8.834625
383.6191, 8.646133
384.1012, 8.379913
384.5833, 8.022736
385.0655, 7.596565
385.5476, 7.179588
386.0297, 6.736954
386.5118, 6.161469
386.9939, 5.112305
387.4760, 3.994003
387.9582, 3.473969
388.4403, 3.556366
388.9224, 3.748062
389.4045, 3.694725
389.8866, 3.501396
390.3687, 3.304741
390.8509, 3.186043
391.3330, 3.038246
391.8151, 2.789680
392.2972, 2.448784
392.7793, 2.040054
393.2614, 1.317314
393.7436, 0.6995010
394.2257, 0.5460430
394.7078, 1.188461
395.1899, 1.651413
395.6720, 1.394081
396.1541, 0.7629320
396.6363, 0.3242950
397.1184, 0.3519440
397.6005, 0.4703290
398.0826, 0.6066470
398.5647, 0.7750700
399.0468, 0.7718930
399.5290, 0.3187260
400.0111, 0.1667560
400.4932, 0.3441120
400.9753, 0.1312750
401.4574, 0.4557420
401.9395, 0.5444760
402.4217, 0.4242780
402.9038, 0.2052350
403.3859, 0.1908040
403.8680, 0.5631830
404.3501, 0.8371930
404.8322, 1.019283
405.3144, 1.044872
405.7965, 0.8452870
406.2786, 0.5562020
406.7607, 0.4212650
407.2428, 0.4758640
407.7249, 0.4914050
408.2071, 0.3557660
408.6892, 0.1060450
409.1713, 2.8599000E-02
409.6534, 4.4822998E-02
410.1355, 4.2904001E-02
410.6176, 0.3453140
411.0998, 0.7948840
411.5819, 0.9315190
412.0640, 0.5594180
412.5461, 1.5373000E-02
413.0282, 0.1156880
413.5103, 0.1049770
413.9925, 0.3140370
414.4746, 0.2375300
414.9567, 3.8867999E-02
415.4388, 3.1132000E-02
415.9209, 5.4462001E-02
416.4030, 0.2141040
416.8852, 0.4333800
417.3673, 0.6742290
417.8494, 0.8758510
418.3315, 1.087139
418.8136, 1.193981
419.2957, 1.082352
419.7779, 0.7790570
420.2600, 0.4655760
420.7421, 0.1215320
421.2242, 0.1395950
421.7063, 0.2213940
422.1884, 2.8130000E-02
422.6706, 0.1923410
423.1527, 0.5026440
423.6348, 0.7884450
424.1169, 0.8392940
424.5990, 0.3250920
425.0811, 0.1391640
425.5633, 0.3234440
426.0454, 0.1677630
426.5275, 0.1444700
427.0096, 0.3499490
427.4917, 0.6093670
427.9738, 0.7924160
428.4560, 0.9341160
428.9381, 0.9040110
429.4202, 0.5695110
429.9023, 7.9544000E-02
430.3844, 2.1515001E-02
430.8665, 0.4055790
431.3487, 0.8303910
431.8308, 0.9541130
432.3129, 0.7587780
432.7950, 0.6588550
433.2771, 0.6762390
433.7592, 0.7432140
434.2414, 0.7734720
434.7235, 0.7702940
435.2056, 0.7630420
435.6877, 0.7290610
436.1698, 0.7198260
436.6519, 0.9047700
437.1341, 1.270725
437.6162, 1.576370
438.0983, 1.618980
438.5804, 1.488930
439.0625, 1.321915
439.5446, 1.119755
440.0268, 0.9534070
440.5089, 0.9165000
440.9910, 0.9695050
441.4731, 1.007496
441.9552, 1.048790
442.4373, 1.050850
442.9195, 0.9517780
443.4016, 0.7666440
443.8837, 0.6530570
444.3658, 0.6830250
444.8479, 0.8272550
445.3300, 1.063515
445.8122, 1.577026
446.2943, 1.930828
446.7764, 1.953846
447.2585, 1.764912
447.7406, 1.672169
448.2227, 1.779316
448.7049, 1.909145
449.1870, 2.015106
449.6691, 2.102264
450.1512, 2.164978
450.6333, 2.215084
451.1154, 2.230457
451.5976, 2.163074
452.0797, 1.950077
452.5618, 1.858891
453.0439, 1.971802
453.5260, 2.207920
454.0081, 2.310478
454.4903, 2.266510
454.9724, 2.242954
455.4545, 2.350624
455.9366, 2.564114
456.4187, 2.751431
456.9008, 2.905849
457.3830, 3.017410
457.8651, 3.024319
458.3472, 2.958248
458.8293, 2.971386
459.3114, 3.191902
459.7935, 3.428497
460.2757, 3.358955
460.7578, 3.048462
461.2399, 2.820648
461.7220, 3.021473
462.2041, 3.310070
462.6862, 3.302834
463.1684, 2.862289
463.6505, 2.556087
464.1326, 2.841793
464.6147, 3.378738
465.0968, 3.731281
465.5789, 3.650127
466.0611, 3.496925
466.5432, 3.327278
467.0253, 3.150658
467.5074, 3.076023
467.9895, 3.208328
468.4716, 3.351997
468.9538, 3.410717
469.4359, 3.378315
469.9180, 3.356674
470.4001, 3.347767
470.8822, 3.336884
471.3643, 3.307514
471.8465, 3.230709
472.3286, 3.234993
472.8107, 3.391510
473.2928, 3.653942
473.7749, 3.811028
474.2570, 3.856247
474.7392, 3.789066
475.2213, 3.529335
475.7034, 3.123829
476.1855, 2.905529
476.6676, 2.953045
477.1497, 3.086494
477.6319, 3.039059
478.1140, 2.868294
478.5961, 2.760235
479.0782, 2.837608
479.5603, 2.972801
480.0424, 3.054710
480.5246, 3.072666
481.0067, 2.958435
481.4888, 2.541637
481.9709, 2.065369
482.4530, 1.767406
482.9352, 1.703339
483.4173, 1.745010
483.8994, 1.878998
484.3815, 2.070957
484.8636, 2.268459
485.3457, 2.547703
485.8279, 2.734127
486.3100, 2.750751
486.7921, 2.590015
487.2742, 2.429981
487.7563, 2.324226
488.2384, 2.158718
488.7206, 1.862984
489.2027, 1.306557
489.6848, 0.9453280
490.1669, 0.8062440
490.6490, 0.8220480
491.1311, 0.9338950
491.6133, 1.172466
492.0954, 1.287411
492.5775, 1.127243
493.0596, 0.8024520
493.5417, 0.7656020
494.0238, 1.020893
494.5060, 1.302143
494.9881, 1.439484
495.4702, 1.444725
495.9523, 1.340607
496.4344, 1.114876
496.9165, 0.8248140
497.3987, 0.3923490
497.8808, 5.3070001E-02
498.3629, 0.2559050
498.8450, 0.2605060
499.3271, 0.7446670
499.8092, 0.5476380
500.2914, 0.1924320
500.7735, 0.6944080
501.2556, 0.4316640
501.7377, 1.3916000E-02
502.2198, 0.1978800
502.7019, 7.4065998E-02
503.1841, 1.8350000E-03
503.6662, 0.1385690
504.1483, 0.3086320
504.6304, 0.2976190
505.1125, 6.1625998E-02
505.5946, 0.3391950
506.0768, 0.4368290
506.5589, 0.3946760
507.0410, 0.4236790
507.5231, 0.5474620
508.0052, 0.6798860
508.4873, 0.7980160
508.9695, 0.9024580
509.4516, 0.9096450
509.9337, 0.8136520
510.4158, 0.6617930
510.8979, 0.4218560
511.3800, 0.1400870
511.8622, 7.8396000E-02
512.3443, 0.3990360
512.8264, 0.8395650
513.3085, 1.081379
513.7906, 1.146797
514.2728, 1.123863
514.7549, 1.060764
515.2370, 0.9324910
515.7191, 0.6795080
516.2012, 0.2886730
516.6833, 4.7989000E-02
517.1655, 0.2171860
517.6476, 0.3146550
518.1297, 0.4163020
518.6118, 0.4032590
519.0939, 0.5579830
519.5760, 1.117851
520.0582, 1.872643
520.5403, 2.325607
521.0224, 2.229530
521.5045, 2.154961
521.9866, 2.266876
522.4688, 2.566853
522.9509, 2.894363
523.4330, 3.292961
523.9151, 3.612057
524.3972, 3.653515
524.8793, 3.406494
525.3615, 3.404037
525.8436, 3.724232
526.3257, 4.221317
526.8078, 4.754246
527.2899, 5.295776
527.7720, 5.705891
528.2542, 5.889599
528.7363, 5.937172
529.2184, 5.894264
529.7005, 5.792480
530.1826, 5.804119
530.6647, 6.118752
531.1469, 6.543552
531.6290, 6.907795
532.1111, 7.164223
532.5932, 7.466240
533.0753, 7.925659
533.5574, 8.439690
534.0396, 8.895615
534.5217, 9.277287
535.0038, 9.604778
535.4859, 9.849190
535.9680, 10.04126
536.4501, 10.28924
536.9323, 10.65357
537.4144, 10.96844
537.8965, 11.13571
538.3786, 11.14753
538.8607, 11.33558
539.3428, 11.74708
539.8250, 12.18170
540.3071, 12.41301
540.7892, 12.46616
541.2713, 12.60837
541.7534, 12.87841
542.2355, 13.24804
542.7177, 13.78027
543.1998, 14.40134
543.6819, 14.86096
544.1640, 14.94705
544.6461, 14.88333
545.1282, 14.77374
545.6104, 14.65589
546.0925, 14.74886
546.5746, 15.35040
547.0567, 16.07046
547.5388, 16.69184
548.0209, 17.22092
548.5031, 17.50996
548.9852, 17.17175
549.4673, 16.74975
549.9494, 16.84188
550.4315, 18.04669
550.9136, 18.82195
551.3958, 18.81036
551.8779, 18.31655
552.3600, 18.29517
552.8421, 18.89249
553.3242, 19.44404
553.8063, 19.62677
554.2885, 19.50046
554.7706, 19.56553
555.2527, 19.83914
555.7348, 20.11668
556.2169, 20.15800
556.6990, 20.09923
557.1812, 20.23548
557.6633, 20.65482
558.1454, 21.11251
558.6275, 21.40024
559.1096, 21.59116
559.5917, 21.76057
560.0739, 21.89841
560.5560, 22.02301
561.0381, 22.12493
561.5202, 22.21940
562.0023, 22.35405
562.4844, 22.57672
562.9666, 22.80793
563.4487, 22.99516
563.9308, 23.12215
564.4129, 23.32950
564.8950, 23.70810
565.3771, 24.05597
565.8593, 24.17699
566.3414, 23.99055
566.8235, 23.94061
567.3056, 24.11820
567.7877, 24.39255
568.2698, 24.48810
568.7520, 24.42287
569.2341, 24.43771
569.7162, 24.67237
570.1983, 24.99044
570.6804, 25.15561
571.1625, 25.18842
571.6447, 25.19275
572.1268, 25.22619
572.6089, 25.27407
573.0910, 25.32893
573.5731, 25.39790
574.0552, 25.45673
574.5374, 25.48294
575.0195, 25.48264
575.5016, 25.46644
575.9837, 25.24360
576.4658, 25.24485
576.9479, 25.70767
577.4301, 26.36964
577.9122, 26.71030
578.3943, 26.60046
578.8764, 26.42377
579.3585, 26.27947
579.8406, 26.15471
580.3228, 25.93331
580.8049, 25.59164
581.2870, 25.30635
581.7691, 25.16257
582.2512, 25.16902
582.7333, 25.42908
583.2155, 25.98069
583.6975, 26.48595
584.1796, 26.62241
584.6617, 26.50701
585.1439, 26.32161
585.6260, 26.06969
586.1081, 25.84627
586.5902, 25.74676
587.0723, 25.71275
587.5544, 25.63412
588.0366, 25.33915
588.5187, 25.13140
589.0008, 25.15833
589.4829, 25.40559
589.9650, 25.56440
590.4471, 25.64560
590.9293, 25.61797
591.4114, 25.43318
591.8935, 25.05224
592.3756, 24.79233
592.8577, 24.68292
593.3398, 24.61221
593.8220, 24.44934
594.3041, 24.20941
594.7862, 24.00289
595.2683, 23.84277
595.7504, 23.74282
596.2325, 23.75031
596.7147, 23.83247
597.1968, 23.90330
597.6789, 23.98607
598.1610, 23.99458
598.6431, 23.83385
599.1252, 23.53311
599.6074, 23.22651
600.0895, 22.87538
600.5716, 22.59981
601.0537, 22.48759
601.5358, 22.59740
602.0179, 22.62547
602.5001, 22.55218
602.9822, 22.41168
603.4643, 22.22021
603.9464, 21.95927
604.4285, 21.70775
604.9106, 21.46028
605.3928, 21.23695
605.8749, 21.09468
606.3570, 21.02181
606.8391, 20.86939
607.3212, 20.53804
607.8033, 20.17275
608.2855, 20.00897
608.7676, 20.00676
609.2497, 20.01140
609.7318, 19.94449
610.2139, 19.84570
610.6960, 19.75058
611.1782, 19.65949
611.6603, 19.54002
612.1424, 19.38285
612.6245, 19.19253
613.1066, 18.96302
613.5887, 18.64035
614.0709, 18.39511
614.5530, 18.27787
615.0351, 18.18921
615.5172, 18.01651
615.9993, 17.73704
616.4814, 17.47364
616.9636, 17.24475
617.4457, 17.03810
617.9278, 16.81535
618.4099, 16.58741
618.8920, 16.41468
619.3741, 16.36040
619.8563, 16.32700
620.3384, 16.15732
620.8205, 15.88976
621.3026, 15.67266
621.7847, 15.68544
622.2668, 15.67812
622.7490, 15.42991
623.2311, 14.89632
623.7132, 14.52010
624.1953, 14.59472
624.6774, 14.77694
625.1595, 14.80646
625.6417, 14.58717
626.1238, 14.30217
626.6059, 13.92546
627.0880, 13.55728
627.5701, 13.33080
628.0522, 13.25820
628.5344, 13.24458
629.0165, 13.31720
629.4986, 13.35289
629.9807, 13.07441
630.4628, 12.54653
630.9449, 12.02497
631.4271, 11.53624
631.9092, 11.13600
632.3913, 10.96427
632.8734, 10.99618
633.3555, 11.02287
633.8376, 10.89056
634.3198, 10.73859
634.8019, 10.71623
635.2840, 10.91716
635.7661, 10.87270
636.2482, 10.26508
636.7303, 9.575340
637.2125, 9.148666
637.6946, 9.077950
638.1767, 9.106777
638.6588, 9.271942
639.1409, 9.374104
639.6230, 9.029396
640.1052, 8.279278
640.5873, 7.775230
641.0694, 7.769684
641.5515, 7.961487
642.0336, 7.944717
642.5157, 7.744152
642.9979, 7.448296
643.4800, 6.863113
643.9621, 6.406605
644.4442, 6.549442
644.9263, 7.158314
645.4084, 7.469440
645.8906, 6.906799
646.3727, 6.282539
646.8548, 6.024830
647.3369, 6.213600
647.8190, 6.212307
648.3011, 5.945992
648.7833, 5.601959
649.2654, 5.303917
649.7475, 5.049381
650.2296, 4.814072
650.7117, 4.596302
651.1938, 4.437534
651.6760, 4.479275
652.1581, 4.614773
652.6402, 4.502571
653.1223, 3.925724
653.6044, 3.351067
654.0865, 3.267654
654.5687, 3.474667
655.0508, 3.581474
655.5329, 3.420647
656.0150, 3.151955
656.4971, 2.704708
656.9792, 2.156437
657.4614, 1.883633
657.9435, 2.144974
658.4256, 2.345280
658.9077, 2.255962
659.3898, 1.890266
659.8719, 1.617130
660.3541, 1.442455
660.8362, 1.340080
661.3183, 1.329166
661.8004, 1.379700
662.2825, 1.369202
662.7646, 1.291332
663.2468, 1.158550
663.7289, 0.9130610
664.2110, 0.6460950
664.6931, 0.4848310
665.1752, 0.4887790
665.6573, 0.5163020
666.1395, 0.4916950
666.6216, 0.4596820
667.1037, 0.4747030
667.5858, 0.6936720
668.0679, 0.7626270
668.5500, 0.6038680
669.0322, 0.3068330
669.5143, 5.4836001E-02
669.9964, 0.1628170
670.4785, 0.3078400
670.9606, 0.3551240
671.4427, 0.3295920
671.9249, 0.2845570
672.4070, 0.2236670
672.8891, 0.1752530
673.3712, 0.1603130
673.8533, 0.1636390
674.3354, 0.1514170
674.8176, 0.1287800
675.2997, 0.1550250
675.7818, 0.3300290
676.2639, 0.5086400
676.7460, 0.5856700
677.2281, 0.5076160
677.7103, 0.4955840
678.1924, 0.6562460
678.6745, 0.7860430
679.1566, 0.7047420
679.6387, 0.3379460
680.1208, 0.1128500
680.6030, 5.4945000E-02
681.0851, 0.1299610
681.5672, 0.4169730
682.0493, 0.8291440
682.5314, 0.9775350
683.0135, 0.6844580
683.4957, 0.2933240
683.9778, 0.1397380
684.4599, 0.1509530
684.9420, 0.1912170
685.4241, 0.2503300
685.9063, 0.2862970
686.3884, 0.2339420
686.8705, 0.1387580
687.3526, 0.1690480
687.8347, 0.5003700
688.3168, 0.7116130
688.7990, 0.6439020
689.2811, 0.3516480
689.7632, 0.2046790
690.2453, 0.2224830
690.7274, 0.2504650
691.2095, 0.1551900
691.6917, 2.3670001E-03
692.1738, 4.4611000E-02
692.6559, 0.2714670
693.1380, 0.4318890
693.6201, 0.2248150
694.1022, 6.6776000E-02
694.5844, 0.1133820
695.0665, 0.1834960
695.5486, 0.3256260
696.0307, 3.7512001E-02
696.5128, 0.5074040
696.9949, 0.7717360
697.4771, 0.7582300
697.9592, 0.6703210
698.4413, 0.4612620
698.9234, 0.2390040
699.4055, 0.1539800
699.8876, 0.2098180
700.3698, 0.2236500
700.8519, 0.1471390
701.3340, 6.6008002E-02
701.8161, 0.1168520
702.2982, 0.2610530
702.7803, 0.4067480
703.2625, 0.5642680
703.7446, 0.6559600
704.2267, 0.5834850
704.7088, 0.4094640
705.1909, 0.2695790
705.6730, 0.1060160
706.1552, 9.5921002E-02
706.6373, 0.3976420
707.1194, 0.9016400
707.6015, 1.050549
708.0836, 0.7026270
708.5657, 0.4273830
709.0479, 0.4931660
709.5300, 0.8137650
710.0121, 1.049295
710.4942, 1.198860
710.9763, 1.255121
711.4584, 1.159090
711.9406, 0.9981650
712.4227, 0.8373640
712.9048, 0.6859890
713.3869, 0.6742740
713.8690, 1.088428
714.3511, 1.496805
714.8333, 1.581205
715.3154, 1.150555
715.7975, 0.9185180
716.2796, 0.9779510
716.7617, 1.125563
717.2438, 1.202621
717.7260, 1.200891
718.2081, 1.232174
718.6902, 1.311235
719.1723, 1.388838
719.6544, 1.373758
720.1365, 1.314537
720.6187, 1.349720
721.1008, 1.545746
721.5829, 1.729445
722.0650, 1.757877
722.5471, 1.699333
723.0292, 1.644178
723.5114, 1.605349
723.9935, 1.590027
724.4756, 1.650015
724.9577, 1.713161
725.4398, 1.628206
725.9219, 1.305866
726.4041, 1.121658
726.8862, 1.179796
727.3683, 1.400232
727.8504, 1.622862
728.3325, 1.839132
728.8146, 2.007578
729.2968, 2.096739
729.7789, 2.143349
730.2610, 2.204985
730.7431, 2.259659
731.2252, 2.239731
731.7073, 2.014811
732.1895, 1.810776
732.6716, 1.763468
733.1537, 1.855370
733.6358, 1.811377
734.1179, 1.491316
734.6000, 1.280062
735.0822, 1.400600
735.5643, 1.801556
736.0464, 1.981373
736.5285, 1.933025
737.0106, 1.841282
737.4927, 1.858385
737.9749, 1.916103
738.4570, 1.886497
738.9391, 1.761868
739.4212, 1.641846
739.9033, 1.572052
740.3854, 1.542856
740.8676, 1.578205
741.3497, 1.703669
741.8318, 1.794598
742.3139, 1.851200
742.7960, 1.847967
743.2781, 1.744932
743.7603, 1.519251
744.2424, 1.370081
744.7245, 1.310879
745.2066, 1.294231
745.6887, 1.260439
746.1708, 1.222635
746.6530, 1.215464
747.1351, 1.256601
747.6172, 1.321873
748.0993, 1.456841
748.5814, 1.570374
749.0635, 1.561308
749.5457, 1.281326
750.0278, 1.071888
750.5099, 0.9731180
750.9920, 0.9551320
751.4741, 1.024473
751.9562, 1.212395
752.4384, 1.362312
752.9205, 1.428093
753.4026, 1.446228
753.8847, 1.513502
754.3668, 1.603413
754.8489, 1.594812
755.3311, 1.385614
755.8132, 1.194708
756.2953, 1.262379
756.7774, 1.465137
757.2595, 1.598209
757.7416, 1.527348
758.2238, 1.477102
758.7059, 1.587221
759.1880, 1.726439
759.6701, 1.580534
760.1522, 1.013668
760.6343, 0.6219230
761.1165, 0.5892680
761.5986, 0.7820240
762.0807, 0.8871970
762.5628, 0.9159700
763.0449, 0.9567910
763.5270, 1.109047
764.0092, 1.242636
764.4913, 1.198837
764.9734, 1.040398
765.4555, 0.9459570
765.9376, 1.038412
766.4197, 1.115929
766.9019, 1.087564
767.3840, 0.9974290
767.8661, 1.038324
768.3482, 1.275393
768.8303, 1.438555
769.3124, 1.404671
769.7946, 1.216558
770.2767, 0.9628350
770.7588, 0.6651710
771.2409, 0.5138340
771.7230, 0.7126580
772.2051, 1.017149
772.6873, 1.208544
773.1694, 1.284157
773.6515, 1.304951
774.1336, 1.290510
774.6157, 1.240974
775.0978, 1.125366
775.5800, 0.9482000
776.0621, 0.8807350
776.5442, 0.9619480
777.0263, 1.045471
777.5084, 1.046200
777.9905, 0.9798030
778.4727, 0.9237160
778.9548, 0.8790050
779.4369, 0.8287110
779.9190, 0.7426190
780.4011, 0.6560330
780.8832, 0.5786760
781.3654, 0.5142960
781.8475, 0.5429860
782.3296, 0.8399220
782.8117, 1.101627
783.2938, 1.173796
783.7759, 1.037880
784.2581, 0.8599830
784.7402, 0.6146140
785.2223, 0.4348510
785.7044, 0.4630150
786.1865, 0.6338830
786.6686, 0.6556000
787.1508, 0.5224990
787.6329, 0.4423050
788.1150, 0.6933190
788.5971, 0.9959960
789.0792, 1.024485
789.5613, 0.7035060
790.0435, 0.5149380
790.5256, 0.7545070
791.0077, 0.9979740
791.4898, 0.9957540
791.9719, 0.6896320
792.4540, 0.5271240
792.9362, 0.5332680
793.4183, 0.6193450
793.9004, 0.7400780
794.3825, 0.8744620
794.8646, 0.9730740
795.3467, 1.033564
795.8289, 1.030649
796.3110, 0.8827880
796.7931, 0.7052590
797.2752, 0.5940760
797.7573, 0.5683330
798.2394, 0.5847300
798.7216, 0.7020320
799.2037, 0.7906740
799.6858, 0.7454910
800.1679, 0.5363660
800.6500, 0.4202460
801.1321, 0.3955590
801.6143, 0.4579600
802.0964, 0.7195840
802.5785, 1.033514
803.0606, 1.061527
803.5427, 0.7456740
804.0248, 0.4753800
804.5070, 0.5115030
804.9891, 0.6623970
805.4712, 0.8017330
805.9533, 0.9447770
806.4354, 0.9614030
806.9175, 0.7792190
807.3997, 0.5729890
807.8818, 0.4797570
808.3639, 0.4982720
808.8460, 0.4804130
809.3281, 0.4164220
809.8102, 0.3779640
810.2924, 0.4447500
810.7745, 0.5683330
811.2566, 0.7167090
811.7387, 0.8946090
812.2208, 0.9517990
812.7029, 0.6751560
813.1851, 0.3718550
813.6672, 0.2738780
814.1493, 0.4506030
814.6314, 0.5415570
815.1135, 0.5272030
815.5956, 0.4722210
816.0778, 0.3984090
816.5599, 0.3240220
817.0420, 0.3477330
817.5241, 0.4761790
818.0062, 0.6221120
818.4883, 0.7768610
818.9705, 0.8827440
819.4526, 0.8573040
819.9347, 0.6679800
820.4168, 0.5149250
820.8989, 0.5118980
821.3810, 0.4872090
821.8632, 0.3111500
822.3453, 5.6231000E-02
822.8274, 0.1431180
823.3095, 9.4645999E-02
823.7916, 0.3558390
824.2737, 0.3569550
824.7559, 0.2210900
825.2380, 0.2055400
825.7201, 0.3236180
826.2022, 0.4482440
826.6843, 0.6002140
827.1664, 0.6536100
827.6486, 0.4497050
828.1307, 9.5147997E-02
828.6128, 0.3469200
829.0949, 0.1934740
829.5770, 6.3625000E-02
830.0591, 0.3013150
830.5413, 0.5090240
831.0234, 0.5545560
831.5055, 0.4395920
831.9876, 0.3242440
832.4697, 0.3533780
832.9518, 0.4241790
833.4340, 0.4104140
833.9161, 0.3054490
834.3982, 0.2246930
834.8803, 0.2149540
835.3624, 0.2416230
835.8445, 0.3151050
836.3267, 0.4291740
836.8088, 0.4017980
837.2909, 0.1915820
837.7730, 3.2467000E-02
838.2551, 0.1121690
838.7372, 0.3196980
839.2194, 0.3431090
839.7015, 0.2172890
840.1836, 0.1405510
840.6657, 0.2418940
841.1478, 0.4125560
841.6299, 0.6474320
842.1121, 0.9194560
842.5942, 1.023476
843.0763, 0.8827710
843.5584, 0.6993200
844.0405, 0.5231150
844.5226, 0.3557760
845.0048, 0.1845470
845.4869, 1.4807000E-02
845.9690, 6.9753997E-02
846.4511, 2.9654000E-02
846.9332, 0.1864130
847.4153, 0.2737640
847.8975, 0.3069080
848.3796, 0.3292980
848.8617, 0.3353650
849.3438, 0.3567920
849.8259, 0.4386020
850.3080, 0.5327630
850.7902, 0.4850920
851.2723, 0.2617510
851.7544, 0.1068900
852.2365, 9.3771003E-02
852.7186, 0.1790770
853.2007, 0.3385470
853.6829, 0.5356460
854.1650, 0.6717300
854.6471, 0.6884020
855.1292, 0.6609310
855.6113, 0.6197200
856.0934, 0.5596680
856.5756, 0.4638310
857.0577, 0.2716180
857.5398, 0.1700400
858.0219, 0.1915530
858.5040, 0.2882820
858.9861, 0.4107270
859.4683, 0.5479970
859.9504, 0.6380980
860.4325, 0.6643410
860.9146, 0.6387580
861.3967, 0.5291020
861.8788, 0.3916650
862.3610, 0.2932530
862.8431, 0.2202640
863.3252, 0.2555790
863.8073, 0.5266380
864.2894, 0.7792820
864.7715, 0.7137640
865.2537, 0.3076100
865.7358, 5.1275000E-02
866.2179, 9.9069998E-03
866.7000, 7.6690000E-03
867.1821, 1.3624000E-02
867.6642, 1.0782000E-02
868.1464, 2.2267999E-02
868.6285, 0.1078410
869.1106, 8.2523003E-02
869.5927, 0.3026220
870.0748, 0.6649070
870.5569, 0.7139870
871.0391, 0.3713610
871.5212, 0.2824060
872.0033, 0.5092960
872.4854, 0.7481860
872.9675, 0.7533040
873.4496, 0.6017110
873.9318, 0.4311870
874.4139, 0.2570590
874.8960, 0.1849420
875.3781, 0.4378890
875.8602, 0.6732310
876.3423, 0.6175560
876.8245, 0.2653710
877.3066, 0.1266140
877.7887, 0.2766270
878.2708, 0.4314170
878.7529, 0.4726940
879.2350, 0.4321860
879.7172, 0.4039380
880.1993, 0.3870640
880.6814, 0.3809090
881.1635, 0.4163610
881.6456, 0.4601840
882.1277, 0.4515090
882.6099, 0.3977870
883.0920, 0.3567330
883.5741, 0.3082900
884.0562, 0.3248480
884.5383, 0.4725990
885.0204, 0.6545850
885.5026, 0.5696110
885.9847, 0.2477040
886.4668, 5.5438999E-02
886.9489, 0.1671980
887.4310, 0.3833790
887.9131, 0.4934520
888.3953, 0.5169830
888.8774, 0.4638250
889.3595, 0.2707650
889.8416, 9.8255001E-02
890.3237, 8.0839001E-02
890.8058, 0.1889650
891.2880, 0.1187420
891.7701, 0.1468390
892.2522, 0.3945870
892.7343, 0.6230620
893.2164, 0.7404520
893.6985, 0.5185010
894.1807, 0.1798840
894.6628, 8.0250002E-02
895.1449, 0.3130000
895.6270, 0.4949820
896.1091, 0.4649140
896.5912, 0.3620320
897.0734, 0.2546120
897.5555, 0.1376630
898.0376, 9.6041001E-02
898.5197, 0.1395660
899.0018, 0.2074110
899.4839, 0.2756350
899.9661, 0.3323690
900.4482, 0.3535290
900.9303, 0.3408660
901.4124, 0.3062230
901.8945, 0.1790810
902.3766, 0.1056280
902.8588, 0.1978040
903.3409, 0.4112240
903.8230, 0.5642490
904.3051, 0.6712520
904.7872, 0.6641880
905.2693, 0.4713400
905.7515, 0.2103030
906.2336, 0.1032240
906.7157, 0.1261120
907.1978, 0.2218810
907.6799, 0.4749680
908.1620, 0.6675800
908.6442, 0.6147330
909.1263, 0.4687350
909.6084, 0.5089690
910.0905, 0.9082740
910.5726, 1.018594
911.0547, 0.7135110
911.5369, 0.2924740
912.0190, 0.1394220
912.5011, 0.1907670
912.9832, 0.2966310
913.4653, 0.4503430
913.9474, 0.5258020
914.4296, 0.3544980
914.9117, 0.1292980
915.3938, 1.3371000E-02
915.8759, 3.2853000E-02
916.3580, 0.1005540
916.8401, 0.2307160
917.3223, 0.3732050
917.8044, 0.5377360
918.2865, 0.6859440
918.7686, 0.6331750
919.2507, 0.4009170
919.7328, 0.1949050
920.2150, 0.1435100
920.6971, 0.1596980
921.1792, 0.2126690
921.6613, 0.2922410
922.1434, 0.3416560
922.6255, 0.3518420
923.1077, 0.3527230
923.5898, 0.3558410
924.0719, 0.3512390
924.5540, 0.2872290
925.0361, 0.1885990
925.5182, 0.1677280
926.0004, 0.3413070
926.4825, 0.4763080
926.9646, 0.3675530
927.4467, 0.1533390
927.9288, 4.0127002E-02
928.4109, 4.7757000E-02
928.8931, 0.1662010
929.3752, 0.4662000
929.8573, 0.7289780
930.3394, 0.6139920
930.8215, 0.2486480
931.3036, 0.1174140
931.7858, 0.2903450
932.2679, 0.4855100
932.7500, 0.5736050
933.2321, 0.5559590
933.7142, 0.3794030
934.1964, 2.1279999E-03
934.6785, 0.1464420
935.1606, 2.3301000E-02
935.6427, 0.2048040
936.1248, 0.2200960
936.6069, 0.1290580
937.0891, 0.1711590
937.5712, 0.3091010
938.0533, 0.3525550
938.5354, 3.4844998E-02
939.0175, 0.2443300
939.4996, 0.1923870
939.9818, 7.7629000E-02
940.4639, 0.2334010
940.9460, 0.2161870
941.4281, 0.1318870
941.9102, 3.3344001E-02
942.3923, 0.1664430
942.8745, 2.5107000E-02
943.3566, 0.4001720
943.8387, 0.4935390
944.3208, 9.1316998E-02
944.8029, 0.2215350
945.2850, 1.8617000E-02
945.7672, 0.4196990
946.2493, 0.6134410
946.7314, 0.5495110
947.2135, 0.4218710
947.6956, 0.1992860
948.1777, 1.9695001E-02
948.6599, 2.0405000E-02
949.1420, 0.1455970
949.6241, 0.2769640
950.1062, 0.3978180
950.5883, 0.4462130
951.0704, 0.2819420
951.5526, 0.1410770
952.0347, 0.1993550
952.5168, 0.3865910
952.9989, 0.4249040
953.4810, 0.2744370
953.9631, 0.1696410
954.4453, 0.1818460
954.9274, 0.2458760
955.4095, 0.3609680
955.8916, 0.4789240
956.3737, 0.4834740
956.8558, 0.2377860
957.3380, 6.4631000E-02
957.8201, 0.1631570
958.3022, 0.3240640
958.7843, 0.3258870
959.2664, 0.1074400
959.7485, 0.1257130
960.2307, 0.4292600
960.7128, 0.7066610
961.1949, 0.6291450
961.6770, 0.3793600
962.1591, 0.2001500
962.6412, 0.1063300
963.1234, 4.8811998E-02
963.6055, 3.6596999E-02
964.0876, 2.7150000E-02
964.5697, 0.1786790
965.0518, 0.5041410
965.5339, 0.5951170
966.0161, 0.4512540
966.4982, 0.2657800
966.9803, 6.2547997E-02
967.4624, 6.7486003E-02
967.9445, 3.9599001E-02
968.4266, 0.2770610
968.9088, 0.4665040
969.3909, 0.5642770
969.8730, 0.6011710
970.3551, 0.5636840
970.8372, 0.4919590
971.3193, 0.4090220
971.8015, 0.3216570
972.2836, 0.2811210
972.7657, 0.2915640
973.2478, 0.3626010
973.7299, 0.6008440
974.2120, 0.8291580
974.6942, 0.8773160
975.1763, 0.7340150
975.6584, 0.6356080
976.1405, 0.6106210
976.6226, 0.5563030
977.1047, 0.4183190
977.5869, 0.2505730
978.0690, 0.2080630
978.5511, 0.2698220
979.0332, 0.3563270
979.5153, 0.4445800
979.9974, 0.5375300
980.4796, 0.6914080
980.9617, 0.8248930
981.4438, 0.8201660
981.9259, 0.6231490
982.4080, 0.4436000
982.8901, 0.2843570
983.3723, 0.1665630
983.8544, 0.1091300
984.3365, 0.1092410
984.8186, 0.1881170
985.3007, 0.3437900
985.7828, 0.4597560
986.2650, 0.4677930
986.7471, 0.4415950
987.2292, 0.4064450
987.7113, 0.3712090
988.1934, 0.3560340
988.6755, 0.3511610
989.1577, 0.3470320
989.6398, 0.3281100
990.1219, 0.3231430
990.6040, 0.4044950
991.0861, 0.5069280
991.5682, 0.5329370
992.0504, 0.3292880
992.5325, 0.2394500
993.0146, 0.3625020
993.4967, 0.5317340
993.9788, 0.6052900
994.4609, 0.5902520
994.9431, 0.5395990
995.4252, 0.4560920
995.9073, 0.3632380
996.3894, 0.2736900
996.8715, 0.1704820
997.3536, 1.2891000E-02
997.8358, 0.1654570
998.3179, 0.1012080
998.8000, 0.3612040
999.2821, 0.6516530
999.7642, 0.5408850
1000.246, 0.2487000
1000.728, 0.2740030
1001.211, 0.4959870
1001.693, 0.6298210
1002.175, 0.5669120
1002.657, 0.4380570
1003.139, 0.2444730
1003.621, 9.0761997E-02
1004.103, 9.8063000E-02
1004.585, 0.3075400
1005.068, 0.4497430
1005.550, 0.5267430
1006.032, 0.5239630
1006.514, 0.3350240
1006.996, 0.1235410
1007.478, 0.1456730
1007.960, 0.3561310
1008.442, 0.4593050
1008.924, 0.2107750
1009.407, 6.7924000E-02
1009.889, 0.1851730
1010.371, 0.3987060
1010.853, 0.2951810
1011.335, 5.8476001E-02
1011.817, 0.1921630
1012.299, 4.3483000E-02
1012.781, 0.3307480
1013.263, 0.4752880
1013.746, 0.5294770
1014.228, 0.5362320
1014.710, 0.4965620
1015.192, 0.4290490
1015.674, 0.3191030
1016.156, 0.2326540
1016.638, 0.2182310
1017.120, 0.2500480
1017.603, 0.2629160
1018.085, 0.2707640
1018.567, 0.3233310
1019.049, 0.5451830
1019.531, 0.6864820
1020.013, 0.6004360
1020.495, 0.4424850
1020.977, 0.4725450
1021.459, 0.6946030
1021.942, 0.7582230
1022.424, 0.6075110
1022.906, 0.4179060
1023.388, 0.3380680
1023.870, 0.3214260
1024.352, 0.3247140
1024.834, 0.3432280
1025.316, 0.3849570
1025.799, 0.4861160
1026.281, 0.5628200
1026.763, 0.5700440
1027.245, 0.5420450
1027.727, 0.5829140
1028.209, 0.6678220
1028.691, 0.7126060
1029.173, 0.6687190
1029.656, 0.6029690
1030.138, 0.5472180
1030.620, 0.4834540
1031.102, 0.3903370
1031.584, 0.2607100
1032.066, 0.1247110
1032.548, 2.4062000E-02
1033.030, 0.1212230
1033.512, 8.4069997E-02
1033.995, 1.5985001E-02
1034.477, 0.1115870
1034.959, 0.1953330
1035.441, 0.2487870
1035.923, 0.1843900
1036.405, 0.2305410
1036.887, 0.4995990
1037.369, 0.8231570
1037.851, 0.8338810
1038.334, 0.6088340
1038.816, 0.4449150
1039.298, 0.4176760
1039.780, 0.4154420
1040.262, 0.3620890
1040.744, 0.3110530
1041.226, 0.3037480
1041.708, 0.3409380
1042.191, 0.4182140
1042.673, 0.5466020
1043.155, 0.6316590
1043.637, 0.6280350
1044.119, 0.5478190
1044.601, 0.2762610
1045.083, 4.7527000E-02
1045.565, 8.6570002E-02
1046.047, 0.7456690
1046.530, 1.101001
1047.012, 0.6518080
1047.494, 2.8287999E-02
1047.976, 1.5681000E-02
1048.458, 0.3857520
1048.940, 0.5772400
1049.422, 0.5138580
1049.904, 0.4284520
1050.386, 0.5113240
1050.869, 0.5746010
1051.351, 0.4571930
1051.833, 0.2280930
1052.315, 0.2075090
1052.797, 0.4368620
1053.279, 0.5427920
1053.761, 0.3867140
1054.243, 0.1734870
1054.726, 0.1201110
1055.208, 0.1908980
1055.690, 0.3705830
1056.172, 0.7891310
1056.654, 0.9234010
1057.136, 0.5724300
1057.618, 0.2171000
1058.100, 0.1548400
1058.583, 0.3178040
1059.065, 0.4819460
1059.547, 0.6372660
1060.029, 0.7379160
1060.511, 0.7109660
1060.993, 0.6786270
1061.475, 0.7197120
1061.957, 0.7696170
1062.439, 0.7187770
1062.922, 0.5444870
1063.404, 0.4898960
1063.886, 0.5857660
1064.368, 0.6907790
1064.850, 0.6828730
1065.332, 0.6190480
1065.814, 0.5544100
1066.296, 0.4913110
1066.778, 0.3875910
1067.261, 0.1631650
1067.743, 8.2066000E-02
1068.225, 0.2638820
1068.707, 0.5336080
1069.189, 0.5394490
1069.671, 0.3638640
1070.153, 0.2670390
1070.635, 0.3131370
1071.118, 0.3492090
1071.600, 0.2837400
1072.082, 0.2204620
1072.564, 0.2260460
1073.046, 0.2929320
1073.528, 0.3089190
1074.010, 0.2802170
1074.492, 0.2968370
1074.974, 0.4698180
1075.457, 0.6344480
1075.939, 0.6613120
1076.421, 0.5978980
1076.903, 0.5227870
1077.385, 0.4370070
1077.867, 0.3568890
1078.349, 0.2846760
1078.831, 0.2129540
1079.313, 8.5879996E-02
1079.796, 1.8374000E-02
1080.278, 6.1365999E-02
1080.760, 0.2910440
1081.242, 0.4777720
1081.724, 0.5999740
1082.206, 0.6002750
1082.688, 0.4095930
1083.170, 0.1606660
1083.652, 0.1084130
1084.135, 0.2112710
1084.617, 0.3226620
1085.099, 0.4184150
1085.581, 0.4955880
1086.063, 0.5823760
1086.545, 0.6181750
1087.027, 0.5296140
1087.509, 0.3421480
1087.992, 0.3477610
1088.474, 0.5489390
1088.956, 0.6874900
1089.438, 0.6198620
1089.920, 0.5143690
1090.402, 0.5040180
1090.884, 0.5656060
1091.366, 0.6984240
1091.849, 1.001986
1092.331, 1.092156
1092.813, 0.9255620
1093.295, 0.6882510
1093.777, 0.4483840
1094.259, 0.2642430
1094.741, 0.3035850
1095.223, 0.5005620
1095.705, 0.6233840
1096.188, 0.4593290
1096.670, 0.3941690
1097.152, 0.5352330
1097.634, 0.7362520
1098.116, 0.8233750
1098.598, 0.8067630
1099.080, 0.7023740
1099.562, 0.5105180
1100.044, 0.3761630
1100.527, 0.4634640
1101.009, 0.5574440
1101.491, 0.5606540
1101.973, 0.4754160
1102.455, 0.2452480
1102.937, 0.1390550
1103.419, 0.3221350
1103.901, 0.1728260
1104.384, 6.7583002E-02
1104.866, 0.2308750
1105.348, 0.3306930
1105.830, 0.3863370
1106.312, 0.4085800
1106.794, 0.3158130
1107.276, 5.3580001E-02
1107.758, 0.1034980
1108.240, 6.4920001E-03
1108.723, 0.2456720
1109.205, 0.4473900
1109.687, 0.6028820
1110.169, 0.6962830
1110.651, 0.7069220
1111.133, 0.6757050
1111.615, 0.5624580
1112.097, 0.4858300
1112.579, 0.5758650
1113.062, 0.7791560
1113.544, 0.8915460
1114.026, 0.9224240
1114.508, 0.9223770
1114.990, 0.9632350
1115.472, 0.9106400
1115.954, 0.6172720
1116.436, 0.3010380
1116.919, 0.2984300
1117.401, 0.5780570
1117.883, 0.6606320
1118.365, 0.5041700
1118.847, 0.3793860
1119.329, 0.5942180
1119.811, 0.7993060
1120.293, 0.6865020
1120.776, 0.3713340
1121.258, 0.2576060
1121.740, 0.3579330
1122.222, 0.5791570
1122.704, 0.9540480
1123.186, 1.215045
1123.668, 0.9625690
1124.150, 0.5356870
1124.632, 0.3058640
1125.115, 0.3406590
1125.597, 0.2671440
1126.079, 9.2000002E-03
1126.561, 9.8940998E-02
1127.043, 0.1377240
1127.525, 0.4821260
1128.007, 0.5345790
1128.489, 0.4186580
1128.971, 0.3424250
1129.454, 0.3661280
1129.936, 0.4140370
1130.418, 0.5169620
1130.900, 0.5674450
1131.382, 0.4718320
1131.864, 0.2863070
1132.346, 0.1320570
1132.828, 3.1204000E-02
1133.311, 5.6825001E-02
1133.793, 0.3856480
1134.275, 0.6531680
1134.757, 0.7922460
1135.239, 0.8283730
1135.721, 0.7710880
1136.203, 0.6241690
1136.685, 0.3777570
1137.167, 6.0038999E-02
1137.650, 9.3716003E-02
1138.132, 0.2624010
1138.614, 0.6011330
1139.096, 0.6304020
1139.578, 0.4983460
1140.060, 0.4037440
1140.542, 0.3457780
1141.024, 0.3210550
1141.506, 0.3293910
1141.989, 0.3647560
1142.471, 0.4615960
1142.953, 0.5491420
1143.435, 0.5864730
1143.917, 0.5663610
1144.399, 0.4433960
1144.881, 0.1808750
1145.363, 9.2092000E-02
1145.846, 0.2759210
1146.328, 0.5247380
1146.810, 0.6799610
1147.292, 0.7320300
1147.774, 0.6274750
1148.256, 0.3443430
1148.738, 0.1966200
1149.220, 0.2218730
1149.703, 0.2585680
1150.185, 0.2373400
1150.667, 0.2256680
1151.149, 0.3653710
1151.631, 0.5677700
1152.113, 0.6899250
1152.595, 0.6805360
1153.077, 0.6583130
1153.559, 0.6224760
1154.042, 0.6038140
1154.524, 0.6568780
1155.006, 0.7056480
1155.488, 0.5094640
1155.970, 0.1764750
1156.452, 2.0318000E-02
1156.934, 0.1045390
1157.416, 0.1897700
1157.898, 0.1586490
1158.381, 0.1286060
1158.863, 0.2305080
1159.345, 0.4052340
1159.827, 0.3502860
1160.309, 0.1370950
1160.791, 3.8162000E-02
1161.273, 0.3449240
1161.755, 0.5898590
1162.238, 0.6239960
1162.720, 0.5724770
1163.202, 0.6008460
1163.684, 0.6702520
1164.166, 0.6103120
1164.648, 0.4416250
1165.130, 0.3306890
1165.612, 0.4352250
1166.094, 0.5465350
1166.577, 0.5920090
1167.059, 0.5634680
1167.541, 0.4052870
1168.023, 0.1330040
1168.505, 4.7240999E-02
1168.987, 0.1153970
1169.469, 8.6770996E-02
1169.951, 0.1414860
1170.433, 0.3515200
1170.916, 0.3716180
1171.398, 0.2849980
1171.880, 0.3158970
1172.362, 0.4619060
1172.844, 0.5069630
1173.326, 0.3978860
1173.808, 0.2825470
1174.290, 0.3017040
1174.773, 0.3493490
1175.255, 0.3398710
1175.737, 0.2823420
1176.219, 0.2221800
1176.701, 0.1563480
1177.183, 0.1499850
1177.665, 0.2342410
1178.147, 0.3345370
1178.630, 0.4000220
1179.112, 0.4315640
1179.594, 0.4170000
1180.076, 0.3581440
1180.558, 0.3297840
1181.040, 0.3345200
1181.522, 0.3420410
1182.004, 0.3377170
1182.486, 0.3379460
1182.969, 0.3493690
1183.451, 0.3814880
1183.933, 0.4662490
1184.415, 0.6259060
1184.897, 0.6448430
1185.379, 0.4858550
1185.861, 0.3764320
1186.343, 0.4559430
1186.825, 0.6126220
1187.308, 0.7827330
1187.790, 0.9144790
1188.272, 0.9078330
1188.754, 0.6831580
1189.236, 0.5110030
1189.718, 0.3792000
1190.200, 0.3717880
1190.682, 0.7139980
1191.165, 1.070514
1191.647, 0.9329200
1192.129, 0.4973260
1192.611, 0.1503210
1193.093, 7.4438997E-02
1193.575, 9.3869999E-02
1194.057, 0.1418530
1194.539, 0.3847970
1195.021, 0.4567610
1195.504, 0.4043960
1195.986, 0.2477240
1196.468, 3.3374000E-02
1196.950, 8.6108997E-02
1197.432, 5.0664999E-02
1197.914, 4.5369999E-03
1198.396, 4.1048001E-02
1198.878, 0.1064310
1199.360, 0.2316840
1199.843, 0.3751370
1200.325, 0.4864020
1200.807, 0.5618070
1201.289, 0.5918010
1201.771, 0.5667480
1202.253, 0.5109040
1202.735, 0.4133730
1203.217, 0.3301680
1203.700, 0.3373020
1204.182, 0.3914370
1204.664, 0.4342390
1205.146, 0.4636730
1205.628, 0.4994950
1206.110, 0.5650530
1206.592, 0.5875270
1207.074, 0.5018770
1207.557, 0.4480040
1208.039, 0.6824810
1208.521, 0.9989070
1209.003, 1.073192
1209.485, 0.8928260
1209.967, 0.7423580
1210.449, 0.6466790
1210.931, 0.6289670
1211.413, 0.7321950
1211.896, 0.8106700
1212.378, 0.5684990
1212.860, 0.2282710
1213.342, 0.1536840
1213.824, 0.3842630
1214.306, 0.5228210
1214.788, 0.4935290
1215.270, 0.4943270
1215.752, 0.6083900
1216.235, 0.6949640
1216.717, 0.4507150
1217.199, 9.8064996E-02
1217.681, 1.7147999E-02
1218.163, 0.1707770
1218.645, 0.3241610
1219.127, 0.4534940
1219.609, 0.4205970
1220.092, 0.1107320
1220.574, 0.2212190
1221.056, 0.1584300
1221.538, 0.1084510
1222.020, 0.3135200
1222.502, 0.4025110
1222.984, 0.5059260
1223.466, 0.6474280
1223.948, 0.7420090
1224.431, 0.7574830
1224.913, 0.7142890
1225.395, 0.5957950
1225.877, 0.4596220
1226.359, 0.3923640
1226.841, 0.4323610
1227.323, 0.4047590
1227.805, 0.2894120
1228.287, 0.1948690
1228.770, 0.1590380
1229.252, 0.1853880
1229.734, 0.3500360
1230.216, 0.5534870
1230.698, 0.6292480
1231.180, 0.5183740
1231.662, 0.4130020
1232.144, 0.3030510
1232.627, 0.2745630
1233.109, 0.4170060
1233.591, 0.5752250
1234.073, 0.5630830
1234.555, 0.4521850
1235.037, 0.3216820
1235.519, 0.1638290
1236.001, 0.1016630
1236.484, 0.1413700
1236.966, 0.2334750
1237.448, 0.4018470
1237.930, 0.5361400
1238.412, 0.4709680
1238.894, 0.3308730
1239.376, 0.2905730
1239.858, 0.3696470
1240.340, 0.4515700
1240.823, 0.5370630
1241.305, 0.5752880
1241.787, 0.5009020
1242.269, 0.4213680
1242.751, 0.4523970
1243.233, 0.5175740
1243.715, 0.4986200
1244.197, 0.3710840
1244.679, 0.4444050
1245.162, 0.7144720
1245.644, 0.9502740
1246.126, 1.057764
1246.608, 1.058177
1247.090, 0.8880260
1247.572, 0.6719020
1248.054, 0.5483160
1248.536, 0.5055090
1249.019, 0.5556320
1249.501, 0.6752430
1249.983, 0.7330450
1250.465, 0.6057710
1250.947, 0.4596200
1251.429, 0.3180520
1251.911, 0.2225790
1252.393, 0.1420690
1252.875, 9.6539997E-02
1253.358, 0.7626000
1253.840, 1.977004
1254.322, 2.672874
1254.804, 1.780979
1255.286, 0.9351450
1255.768, 0.7236880
1256.250, 0.7512460
1256.732, 0.7424920
1257.214, 0.7007330
1257.697, 0.6369610
1258.179, 0.5566240
1258.661, 0.4850140
1259.143, 0.4189630
1259.625, 0.3866250
1260.107, 0.3990060
1260.589, 0.4286750
1261.071, 0.4564200
1261.554, 0.4902190
1262.036, 0.6201730
1262.518, 0.7989280
1263.000, 0.7924660
1263.482, 0.1243930
1263.964, 0.1399690
1264.446, 0.2309440
1264.928, 0.6693040
1265.411, 0.6291480
1265.893, 0.3662600
1266.375, 0.3871660
1266.857, 0.6022940
1267.339, 0.7549150
1267.821, 0.7669300
1268.303, 0.7188570
1268.785, 0.5915390
1269.267, 0.4848070
1269.750, 0.5147660
1270.232, 0.5832750
1270.714, 0.5665950
1271.196, 0.4835710
1271.678, 0.3691610
1272.160, 0.1714590
1272.642, 0.1446550
1273.124, 0.3136860
1273.606, 0.4915930
1274.089, 0.5459190
1274.571, 0.5463960
1275.053, 0.5255350
1275.535, 0.5056860
1276.017, 0.5263390
1276.499, 0.5957630
1276.981, 0.6462440
1277.463, 0.6768020
1277.946, 0.7208720
1278.428, 0.8995040
1278.910, 0.9917600
1279.392, 0.7680000
1279.874, 0.4362720
1280.356, 0.2158360
1280.838, 0.1097800
1281.320, 0.1623760
1281.802, 0.3516960
1282.285, 0.4917310
1282.767, 0.3813610
1283.249, 0.3384010
1283.731, 0.5304780
1284.213, 0.7722040
1284.695, 0.7851130
1285.177, 0.6225170
1285.659, 0.5594030
1286.141, 0.5624200
1286.624, 0.4883740
1287.106, 0.1202130
1287.588, 9.1701999E-02
1288.070, 8.4724002E-02
1288.552, 5.5387001E-02
1289.034, 0.3597280
1289.516, 0.6896510
1289.998, 0.6757030
1290.481, 0.4295250
1290.963, 0.2397690
1291.445, 0.2069810
1291.927, 0.2124430
1292.409, 0.2601520
1292.891, 0.3179190
1293.373, 0.3272610
1293.855, 0.3359360
1294.338, 0.4127820
1294.820, 0.5270200
1295.302, 0.6174820
1295.784, 0.5601590
1296.266, 0.5376780
1296.748, 0.4365780
1297.230, 0.3597550
1297.712, 0.4291330
1298.194, 0.4981090
1298.677, 0.4224590
1299.159, 0.2713650
1299.641, 0.1317320
1300.123, 5.9600002E-03
1300.605, 3.5910001E-03
1301.087, 9.3511000E-02
1301.569, 0.2063750
1302.051, 0.2926240
1302.533, 0.2605360
1303.016, 0.0000000E+00
##END=



