##NAMES=Alacranite
##RRUFFID=R140323
##IDEAL CHEMISTRY=As_8_S_9_
##LOCALITY=Solfatara di Pozzuoli, Napoli, Italy
##OWNER=RRUFF
##SOURCE=Renato and Adriana Pagano
##DESCRIPTION=Yellow crystals with red realgar. 2-fold twin around [1 1 0].
##STATUS=The identification of this mineral has been confirmed by single-crystal X-ray diffraction.
##URL=rruff.info/R140323
129.7989, 41.05408
130.2810, 40.63538
130.7631, 42.24548
131.2452, 43.45996
131.7274, 43.77332
132.2095, 43.27051
132.6916, 41.87976
133.1737, 39.46838
133.6558, 37.09814
134.1379, 35.71130
134.6201, 35.30249
135.1022, 35.50085
135.5843, 36.65515
136.0664, 38.50610
136.5485, 38.68127
137.0306, 36.66162
137.5128, 34.19495
137.9949, 33.62866
138.4770, 35.41211
138.9591, 36.82373
139.4412, 36.67175
139.9233, 34.75134
140.4055, 34.01831
140.8876, 34.83398
141.3697, 36.42297
141.8518, 37.49268
142.3339, 37.76038
142.8160, 38.09973
143.2982, 39.02600
143.7803, 41.12427
144.2624, 41.78235
144.7445, 40.17493
145.2266, 37.39001
145.7087, 36.03418
146.1909, 36.87036
146.6730, 38.15332
147.1551, 39.30481
147.6372, 40.91968
148.1193, 41.41565
148.6014, 40.47339
149.0836, 38.39551
149.5657, 36.09131
150.0478, 32.41492
150.5299, 29.51050
151.0120, 28.31091
151.4941, 30.42273
151.9763, 32.33545
152.4584, 34.27246
152.9405, 36.06299
153.4226, 36.92932
153.9047, 35.68066
154.3868, 34.21094
154.8690, 33.55151
155.3511, 34.73071
155.8332, 35.74902
156.3153, 36.16833
156.7974, 36.07031
157.2795, 36.13464
157.7617, 36.82397
158.2438, 37.57568
158.7259, 37.98132
159.2080, 37.49377
159.6901, 37.09351
160.1722, 36.98157
160.6544, 37.18201
161.1365, 37.82495
161.6186, 39.21545
162.1007, 40.96191
162.5828, 42.71167
163.0649, 44.67383
163.5471, 45.57312
164.0292, 45.59949
164.5113, 44.74341
164.9934, 44.40125
165.4755, 46.14832
165.9576, 48.50940
166.4398, 49.65283
166.9219, 47.76331
167.4040, 45.18994
167.8861, 43.27380
168.3682, 42.05798
168.8503, 41.65686
169.3325, 42.74670
169.8146, 44.65137
170.2967, 46.26428
170.7788, 46.42029
171.2609, 46.48511
171.7430, 48.07556
172.2252, 51.49731
172.7073, 54.65796
173.1894, 55.38171
173.6715, 54.54736
174.1536, 54.12427
174.6357, 55.64819
175.1179, 57.85242
175.6000, 59.32397
176.0821, 59.95630
176.5642, 59.77100
177.0463, 57.59094
177.5284, 54.30859
178.0106, 52.69775
178.4927, 56.36206
178.9748, 62.18445
179.4569, 64.18616
179.9390, 61.04626
180.4211, 57.09155
180.9033, 58.34277
181.3854, 63.72180
181.8675, 68.07019
182.3496, 67.03101
182.8317, 62.85986
183.3138, 61.23877
183.7960, 63.36243
184.2781, 66.46277
184.7602, 66.30640
185.2423, 63.21265
185.7244, 59.98083
186.2065, 58.44006
186.6887, 58.15430
187.1708, 57.43811
187.6529, 56.02930
188.1350, 54.26697
188.6171, 52.58179
189.0992, 50.95972
189.5814, 49.77832
190.0635, 50.05432
190.5456, 51.35767
191.0277, 50.63818
191.5098, 47.22131
191.9919, 42.19177
192.4741, 37.51392
192.9562, 33.21228
193.4383, 29.42419
193.9204, 26.27563
194.4025, 23.80835
194.8846, 22.01794
195.3668, 20.77087
195.8489, 20.54211
196.3310, 23.16357
196.8131, 28.96301
197.2952, 33.60010
197.7773, 33.75732
198.2595, 29.48438
198.7416, 25.99023
199.2237, 23.76770
199.7058, 22.47314
200.1879, 21.42065
200.6700, 20.47095
201.1522, 20.66272
201.6343, 23.17859
202.1164, 28.23352
202.5985, 31.73523
203.0806, 33.04663
203.5627, 33.05127
204.0449, 33.68567
204.5270, 34.63416
205.0091, 36.21289
205.4912, 39.14453
205.9733, 43.87097
206.4554, 48.29980
206.9376, 52.05530
207.4197, 55.02747
207.9018, 57.17285
208.3839, 58.14307
208.8660, 59.62939
209.3481, 62.76868
209.8303, 67.76538
210.3124, 73.04126
210.7945, 78.82629
211.2766, 84.74658
211.7587, 89.09119
212.2408, 91.28052
212.7230, 92.97375
213.2051, 95.47388
213.6872, 99.45178
214.1693, 102.5148
214.6514, 103.7676
215.1335, 103.8939
215.6157, 106.1954
216.0978, 111.5042
216.5799, 117.4116
217.0620, 122.4910
217.5441, 126.6854
218.0262, 130.0945
218.5084, 132.3849
218.9905, 133.9033
219.4726, 136.2823
219.9547, 139.8099
220.4368, 143.7916
220.9189, 147.7935
221.4011, 151.8922
221.8832, 156.0431
222.3653, 160.6289
222.8474, 165.3079
223.3295, 168.5439
223.8116, 169.6180
224.2938, 170.3069
224.7759, 171.6287
225.2580, 173.6929
225.7401, 176.1470
226.2222, 179.3424
226.7043, 182.8962
227.1865, 185.3834
227.6686, 186.7090
228.1507, 187.0188
228.6328, 186.1779
229.1149, 183.4080
229.5970, 181.3761
230.0792, 180.6714
230.5613, 180.8347
231.0434, 179.9359
231.5255, 177.1271
232.0076, 174.5701
232.4897, 173.6711
232.9719, 175.7400
233.4540, 176.5856
233.9361, 175.9451
234.4182, 173.9973
234.9003, 171.2502
235.3824, 167.3000
235.8646, 163.1295
236.3467, 159.2257
236.8288, 155.7548
237.3109, 152.1283
237.7930, 148.2786
238.2751, 144.2244
238.7573, 140.1851
239.2394, 136.1993
239.7215, 132.1005
240.2036, 127.7430
240.6857, 122.9714
241.1678, 118.2665
241.6500, 113.7581
242.1321, 109.2865
242.6142, 104.3628
243.0963, 98.94849
243.5784, 93.15918
244.0605, 86.93762
244.5427, 79.62146
245.0248, 73.58936
245.5069, 69.55408
245.9890, 66.52075
246.4711, 62.27625
246.9532, 56.00964
247.4354, 49.85193
247.9175, 44.80310
248.3996, 41.38831
248.8817, 37.31360
249.3638, 32.29773
249.8459, 26.81201
250.3281, 21.69568
250.8102, 16.99573
251.2923, 12.61060
251.7744, 8.520142
252.2565, 4.861938
252.7386, 0.9699710
253.2208, 3.809204
253.7029, 8.342773
254.1850, 10.58105
254.6671, 8.879883
255.1492, 8.163818
255.6313, 10.41870
256.1135, 16.34265
256.5956, 20.52234
257.0777, 22.28406
257.5598, 22.95496
258.0419, 24.43909
258.5240, 27.47009
259.0062, 29.61743
259.4883, 29.67480
259.9704, 27.38464
260.4525, 27.48303
260.9346, 31.24780
261.4167, 35.81592
261.8989, 37.60339
262.3810, 35.34619
262.8631, 33.66663
263.3452, 34.04492
263.8273, 36.43555
264.3094, 36.83887
264.7916, 34.43750
265.2737, 31.29626
265.7558, 29.56396
266.2379, 29.90442
266.7200, 29.44958
267.2021, 27.46497
267.6843, 24.10510
268.1664, 20.87317
268.6485, 17.94287
269.1306, 14.81555
269.6127, 11.06714
270.0948, 6.616455
270.5770, 2.063477
271.0591, 2.465210
271.5412, 6.943481
272.0233, 11.44678
272.5054, 15.84094
272.9875, 20.32971
273.4697, 25.12952
273.9518, 30.39417
274.4339, 35.16479
274.9160, 39.01282
275.3981, 42.46423
275.8802, 47.55396
276.3624, 54.62939
276.8445, 61.64539
277.3266, 66.78699
277.8087, 69.82544
278.2908, 74.76294
278.7729, 82.39941
279.2551, 91.56091
279.7372, 98.99194
280.2193, 104.3451
280.7014, 110.5087
281.1835, 119.6769
281.6656, 131.7935
282.1478, 142.7689
282.6299, 152.1471
283.1120, 160.9271
283.5941, 170.5521
284.0762, 181.0673
284.5583, 192.5396
285.0405, 205.1210
285.5226, 218.7948
286.0047, 233.6582
286.4868, 249.9670
286.9689, 266.5996
287.4510, 281.7968
287.9332, 295.6370
288.4153, 309.9348
288.8974, 324.6890
289.3795, 340.2522
289.8616, 357.8066
290.3438, 377.5055
290.8259, 398.0957
291.3080, 419.0424
291.7901, 439.8995
292.2722, 459.1917
292.7543, 475.3096
293.2365, 489.8334
293.7186, 506.3192
294.2007, 524.6312
294.6828, 543.9392
295.1649, 563.7297
295.6470, 583.8097
296.1292, 604.3000
296.6113, 625.0430
297.0934, 646.0677
297.5755, 667.9714
298.0576, 690.7618
298.5397, 713.2477
299.0219, 734.8918
299.5040, 755.9080
299.9861, 776.3217
300.4682, 795.9241
300.9503, 815.3789
301.4324, 836.1644
301.9146, 857.7659
302.3967, 878.9260
302.8788, 897.8247
303.3609, 915.9766
303.8430, 935.4893
304.3251, 957.0330
304.8073, 978.4399
305.2894, 997.9353
305.7715, 1015.776
306.2536, 1033.207
306.7357, 1049.360
307.2178, 1065.948
307.7000, 1085.227
308.1821, 1107.668
308.6642, 1129.384
309.1463, 1146.908
309.6284, 1161.735
310.1105, 1176.522
310.5927, 1192.823
311.0748, 1208.708
311.5569, 1222.679
312.0390, 1234.871
312.5211, 1247.573
313.0032, 1263.891
313.4854, 1280.570
313.9675, 1293.864
314.4496, 1299.071
314.9317, 1304.223
315.4138, 1314.083
315.8959, 1327.792
316.3781, 1340.502
316.8602, 1349.841
317.3423, 1357.681
317.8244, 1365.319
318.3065, 1372.279
318.7886, 1379.516
319.2708, 1387.671
319.7529, 1396.504
320.2350, 1405.166
320.7171, 1412.135
321.1992, 1419.373
321.6813, 1428.082
322.1635, 1439.968
322.6456, 1450.275
323.1277, 1456.116
323.6098, 1460.012
324.0919, 1466.245
324.5740, 1478.505
325.0562, 1490.496
325.5383, 1500.135
326.0204, 1506.653
326.5025, 1513.522
326.9846, 1521.678
327.4667, 1530.082
327.9489, 1537.756
328.4310, 1543.288
328.9131, 1549.674
329.3952, 1558.057
329.8773, 1568.558
330.3594, 1576.759
330.8416, 1582.077
331.3237, 1585.533
331.8058, 1587.504
332.2879, 1585.541
332.7700, 1586.348
333.2521, 1591.392
333.7343, 1599.764
334.2164, 1607.328
334.6985, 1614.387
335.1806, 1619.960
335.6627, 1623.135
336.1448, 1622.747
336.6270, 1623.389
337.1091, 1625.405
337.5912, 1628.310
338.0733, 1631.618
338.5554, 1635.972
339.0375, 1638.574
339.5197, 1637.764
340.0018, 1633.326
340.4839, 1629.808
340.9660, 1627.540
341.4481, 1625.591
341.9302, 1622.963
342.4124, 1619.631
342.8945, 1615.476
343.3766, 1610.159
343.8587, 1603.980
344.3408, 1598.056
344.8229, 1592.407
345.3051, 1586.994
345.7872, 1582.170
346.2693, 1577.761
346.7514, 1572.303
347.2335, 1565.291
347.7156, 1557.456
348.1978, 1550.250
348.6799, 1543.671
349.1620, 1537.398
349.6441, 1531.612
350.1262, 1525.992
350.6083, 1519.865
351.0905, 1513.193
351.5726, 1505.679
352.0547, 1496.081
352.5368, 1485.143
353.0189, 1475.122
353.5010, 1467.983
353.9832, 1461.971
354.4653, 1455.257
354.9474, 1447.729
355.4295, 1439.164
355.9116, 1428.156
356.3937, 1416.179
356.8759, 1405.589
357.3580, 1398.079
357.8401, 1391.247
358.3222, 1383.709
358.8043, 1375.509
359.2864, 1367.090
359.7686, 1359.171
360.2507, 1350.995
360.7328, 1341.744
361.2149, 1329.943
361.6970, 1318.338
362.1791, 1308.716
362.6613, 1300.436
363.1434, 1291.526
363.6255, 1280.716
364.1076, 1269.198
364.5897, 1257.303
365.0718, 1245.096
365.5540, 1233.605
366.0361, 1224.204
366.5182, 1215.260
367.0003, 1204.781
367.4824, 1190.823
367.9645, 1177.035
368.4467, 1164.467
368.9288, 1153.544
369.4109, 1141.690
369.8930, 1127.523
370.3751, 1113.421
370.8572, 1101.063
371.3394, 1091.883
371.8215, 1082.407
372.3036, 1072.286
372.7857, 1061.824
373.2678, 1051.673
373.7499, 1041.666
374.2321, 1031.933
374.7142, 1022.665
375.1963, 1013.841
375.6784, 1004.868
376.1605, 995.4832
376.6426, 986.0159
377.1248, 978.4810
377.6069, 973.7615
378.0890, 966.0913
378.5711, 951.9233
379.0532, 932.3616
379.5353, 918.5271
380.0175, 911.3176
380.4996, 904.6156
380.9817, 891.4885
381.4638, 872.9922
381.9459, 857.0220
382.4280, 846.1494
382.9102, 837.6414
383.3923, 826.7271
383.8744, 813.3162
384.3565, 798.8223
384.8386, 784.2826
385.3207, 769.6189
385.8029, 754.7236
386.2850, 738.9701
386.7671, 723.1526
387.2492, 708.4150
387.7313, 694.2523
388.2134, 679.6824
388.6956, 664.4526
389.1777, 648.7697
389.6598, 632.1842
390.1419, 614.8536
390.6240, 598.3850
391.1061, 585.7788
391.5883, 573.5425
392.0704, 557.6841
392.5525, 533.7815
393.0346, 510.8068
393.5167, 493.2009
393.9988, 479.5316
394.4810, 465.5266
394.9631, 449.0707
395.4452, 432.4148
395.9273, 416.7548
396.4094, 402.5586
396.8915, 388.2426
397.3737, 373.4440
397.8558, 358.3690
398.3379, 343.2733
398.8200, 328.3007
399.3021, 313.1304
399.7842, 297.7850
400.2664, 282.2556
400.7485, 265.8379
401.2306, 247.0922
401.7127, 229.0339
402.1948, 213.8253
402.6769, 203.1062
403.1591, 191.6265
403.6412, 178.6971
404.1233, 165.0436
404.6054, 152.2035
405.0875, 140.6984
405.5696, 128.8831
406.0518, 115.8666
406.5339, 101.6049
407.0160, 88.18774
407.4981, 75.80627
407.9802, 64.20422
408.4623, 52.88550
408.9445, 41.84717
409.4266, 32.53186
409.9087, 25.74377
410.3908, 20.59973
410.8729, 15.10339
411.3550, 9.259888
411.8372, 3.833862
412.3193, 0.8405760
412.8014, 4.737915
413.2835, 7.945557
413.7656, 10.58984
414.2477, 12.25232
414.7299, 11.71777
415.2120, 9.803833
415.6941, 8.442871
416.1762, 8.526855
416.6583, 9.632324
417.1404, 12.25989
417.6226, 16.32361
418.1047, 18.80640
418.5868, 16.04541
419.0689, 11.82812
419.5510, 9.868774
420.0331, 13.23071
420.5153, 16.22546
420.9974, 16.12537
421.4795, 13.95923
421.9616, 12.29321
422.4437, 11.99988
422.9258, 12.11365
423.4080, 12.30444
423.8901, 12.63538
424.3722, 12.65967
424.8543, 11.87573
425.3364, 10.94934
425.8185, 10.56311
426.3007, 11.39758
426.7828, 11.75037
427.2649, 11.17822
427.7470, 9.859375
428.2291, 8.903320
428.7112, 8.213501
429.1934, 8.087036
429.6755, 8.882813
430.1576, 10.86121
430.6397, 12.52039
431.1218, 13.87683
431.6039, 14.84082
432.0861, 15.36865
432.5682, 15.47314
433.0503, 14.74658
433.5324, 12.36914
434.0145, 9.170288
434.4966, 8.672729
434.9788, 10.96021
435.4609, 13.02930
435.9430, 12.13257
436.4251, 9.016724
436.9072, 5.640747
437.3893, 2.088867
437.8715, 0.9984130
438.3536, 2.721313
438.8357, 3.354614
439.3178, 3.662231
439.7999, 3.049194
440.2820, 2.887939
440.7642, 5.372559
441.2463, 10.62524
441.7284, 14.15173
442.2105, 10.86414
442.6926, 5.865234
443.1747, 4.136719
443.6569, 10.17139
444.1390, 15.83020
444.6211, 18.51880
445.1032, 18.90210
445.5853, 18.84619
446.0674, 17.82581
446.5496, 17.22302
447.0317, 17.58643
447.5138, 19.11780
447.9959, 21.17957
448.4780, 24.50598
448.9601, 27.92188
449.4423, 30.16431
449.9244, 30.21997
450.4065, 31.36035
450.8886, 34.76318
451.3707, 39.56946
451.8528, 41.86768
452.3350, 40.82483
452.8171, 39.76599
453.2992, 40.62659
453.7813, 43.42529
454.2634, 45.82129
454.7455, 47.65564
455.2277, 49.37915
455.7098, 51.49524
456.1919, 53.98352
456.6740, 56.95251
457.1561, 60.64954
457.6382, 64.60461
458.1204, 68.50574
458.6025, 72.19751
459.0846, 74.24365
459.5667, 72.11792
460.0488, 68.43250
460.5309, 66.65710
461.0131, 67.51160
461.4952, 69.27576
461.9773, 71.24512
462.4594, 73.24609
462.9415, 75.04480
463.4236, 76.04309
463.9058, 77.27002
464.3879, 79.16980
464.8700, 81.70312
465.3521, 84.58899
465.8342, 88.80359
466.3163, 92.61011
466.7985, 94.82312
467.2806, 93.23535
467.7627, 93.94910
468.2448, 98.87427
468.7269, 105.3776
469.2090, 109.7919
469.6912, 111.4110
470.1733, 112.1798
470.6554, 111.8579
471.1375, 110.7052
471.6196, 112.2129
472.1017, 117.3824
472.5839, 122.6907
473.0660, 125.5671
473.5481, 125.7887
474.0302, 126.3307
474.5123, 127.5607
474.9944, 128.8993
475.4766, 128.9696
475.9587, 128.1185
476.4408, 128.6301
476.9229, 132.1479
477.4050, 137.0697
477.8871, 140.8633
478.3693, 143.5236
478.8514, 145.4409
479.3335, 146.5554
479.8156, 147.3383
480.2977, 148.0551
480.7798, 148.4233
481.2620, 149.7451
481.7441, 153.8984
482.2262, 159.2489
482.7083, 163.4044
483.1904, 164.6191
483.6725, 165.3021
484.1547, 165.9202
484.6368, 166.5419
485.1189, 167.7406
485.6010, 170.9841
486.0831, 173.8658
486.5652, 175.0463
487.0474, 173.2157
487.5295, 171.9762
488.0116, 171.4463
488.4937, 171.3776
488.9758, 171.5979
489.4579, 172.5472
489.9401, 172.6505
490.4222, 171.4076
490.9043, 169.0208
491.3864, 166.6849
491.8685, 164.5175
492.3506, 162.0533
492.8328, 158.8660
493.3149, 155.0000
493.7970, 150.9104
494.2791, 146.7834
494.7612, 142.5286
495.2433, 137.1664
495.7255, 131.4896
496.2076, 127.5657
496.6897, 128.0085
497.1718, 128.7626
497.6539, 125.3243
498.1360, 118.6168
498.6182, 112.1986
499.1003, 107.7174
499.5824, 104.2793
500.0645, 101.2075
500.5466, 98.14124
501.0287, 95.29297
501.5109, 93.98181
501.9930, 92.84937
502.4751, 90.52979
502.9572, 84.76660
503.4393, 80.02698
503.9214, 77.06494
504.4036, 75.46399
504.8857, 73.72241
505.3678, 71.79626
505.8499, 69.96252
506.3320, 68.71228
506.8141, 68.15234
507.2963, 65.02100
507.7784, 58.27722
508.2605, 51.63257
508.7426, 49.57092
509.2247, 51.74402
509.7068, 52.56567
510.1890, 50.64832
510.6711, 47.80505
511.1532, 47.30469
511.6353, 48.36499
512.1174, 48.34717
512.5995, 43.97241
513.0817, 38.99243
513.5638, 39.12341
514.0459, 44.13916
514.5280, 47.80225
515.0101, 44.76038
515.4922, 39.26904
515.9744, 35.31653
516.4565, 34.27332
516.9386, 33.79944
517.4207, 33.47302
517.9028, 33.18103
518.3849, 32.74561
518.8671, 31.99841
519.3492, 31.20337
519.8313, 30.45105
520.3134, 29.72388
520.7955, 28.74329
521.2776, 27.34766
521.7598, 26.01929
522.2419, 25.00146
522.7240, 24.47302
523.2061, 23.60388
523.6882, 22.10132
524.1703, 20.84424
524.6525, 21.54858
525.1346, 24.04346
525.6167, 25.36267
526.0988, 24.39404
526.5809, 22.16675
527.0630, 20.02100
527.5452, 18.10693
528.0273, 17.14636
528.5094, 19.37402
528.9915, 21.85828
529.4736, 20.17078
529.9557, 13.79578
530.4379, 9.068481
530.9200, 11.57910
531.4021, 16.69482
531.8842, 19.80090
532.3663, 18.08447
532.8484, 16.66406
533.3306, 17.81226
533.8127, 20.02222
534.2948, 20.03723
534.7769, 14.72693
535.2590, 10.62732
535.7411, 9.494263
536.2233, 11.27783
536.7054, 12.51086
537.1875, 13.04980
537.6696, 13.34302
538.1517, 13.90735
538.6339, 14.85022
539.1160, 14.45618
539.5981, 12.30298
540.0802, 9.761597
540.5623, 8.535767
541.0444, 8.517456
541.5266, 9.105713
542.0087, 10.75879
542.4908, 12.17114
542.9729, 10.59558
543.4550, 6.811646
543.9371, 3.888550
544.4193, 4.277466
544.9014, 5.754761
545.3835, 6.589355
545.8656, 6.612061
546.3477, 6.286499
546.8298, 5.057007
547.3120, 3.982666
547.7941, 3.959106
548.2762, 6.730225
548.7583, 8.337769
549.2404, 7.652222
549.7225, 5.872925
550.2047, 5.087891
550.6868, 5.934326
551.1689, 6.543457
551.6510, 6.415283
552.1331, 5.656860
552.6152, 5.001587
553.0974, 4.553711
553.5795, 3.784180
554.0616, 2.127686
554.5437, 0.2061770
555.0258, 2.189697
555.5079, 3.779175
555.9901, 4.795654
556.4722, 5.345703
556.9543, 5.153931
557.4364, 3.366943
557.9185, 1.633301
558.4006, 6.062866
558.8828, 6.215698
559.3649, 3.494141
559.8470, 1.194946
560.3291, 0.3972170
560.8112, 0.4685060
561.2933, 1.618652
561.7755, 3.823853
562.2576, 4.953003
562.7397, 3.524170
563.2218, 1.848022
563.7039, 1.071777
564.1860, 1.635132
564.6682, 2.020874
565.1503, 2.354004
565.6324, 2.417236
566.1145, 1.962036
566.5966, 1.017822
567.0787, 0.6860350
567.5609, 3.791870
568.0430, 6.901733
568.5251, 6.182373
569.0072, 2.100952
569.4893, 1.388062
569.9714, 1.582642
570.4536, 0.1878660
570.9357, 0.4295650
571.4178, 0.2626950
571.8999, 6.2256001E-02
572.3820, 3.9062999E-02
572.8641, 9.0942003E-02
573.3463, 0.4627690
573.8284, 2.185791
574.3105, 3.215088
574.7926, 2.216309
575.2747, 0.4838870
575.7568, 0.3427730
576.2390, 0.8385010
576.7211, 1.617676
577.2032, 1.668457
577.6853, 1.132324
578.1674, 0.1394040
578.6495, 1.973511
579.1317, 2.488892
579.6138, 0.8284910
580.0959, 7.176025
580.5780, 9.339844
581.0601, 7.075317
581.5422, 3.683960
582.0244, 1.616455
582.5065, 0.6166990
582.9886, 0.1027830
583.4707, 5.1270001E-02
583.9528, 0.1467290
584.4349, 0.2675780
584.9171, 0.6308590
585.3992, 8.8988997E-02
585.8813, 3.043701
586.3634, 5.679077
586.8455, 6.126953
587.3276, 5.004639
587.8098, 3.951660
588.2919, 3.496216
588.7740, 3.021851
589.2561, 2.169312
589.7382, 0.8576660
590.2203, 0.2019040
590.7025, 0.6569820
591.1846, 0.9543460
591.6667, 0.2362060
592.1488, 3.161133
592.6309, 3.725586
593.1130, 1.362061
593.5952, 1.729736
594.0773, 2.999756
594.5594, 2.755737
595.0415, 2.091675
595.5236, 1.160034
596.0057, 0.2286380
596.4879, 0.6499020
596.9700, 1.316040
597.4521, 1.387939
597.9342, 0.2998050
598.4163, 1.751465
598.8984, 1.421509
599.3806, 0.4388430
599.8627, 1.416016
600.3448, 0.1900630
600.8269, 1.318604
601.3090, 2.138794
601.7911, 2.003052
602.2733, 2.294922
602.7554, 3.482666
603.2375, 4.479980
603.7196, 3.807739
604.2017, 1.160156
604.6838, 7.1898997E-02
605.1660, 1.173462
605.6481, 3.542114
606.1302, 6.356567
606.6123, 9.293457
607.0944, 10.91772
607.5765, 9.721558
608.0587, 7.946777
608.5408, 8.322998
609.0229, 10.39697
609.5050, 12.64124
609.9871, 14.89502
610.4692, 16.50330
610.9514, 16.74939
611.4335, 15.50134
611.9156, 14.57605
612.3977, 14.64563
612.8798, 14.79187
613.3619, 14.55859
613.8441, 14.22961
614.3262, 12.81885
614.8083, 9.575562
615.2904, 6.501343
615.7725, 6.889038
616.2546, 10.82495
616.7368, 12.78931
617.2189, 11.35413
617.7010, 8.097290
618.1831, 5.291870
618.6652, 3.143921
619.1473, 2.380249
619.6295, 4.293091
620.1116, 7.039673
620.5937, 9.110596
621.0758, 10.45667
621.5579, 11.02234
622.0400, 9.546021
622.5222, 8.272949
623.0043, 8.884644
623.4864, 12.07581
623.9685, 13.93225
624.4506, 13.13257
624.9327, 11.57422
625.4149, 10.42712
625.8970, 9.907837
626.3791, 9.337158
626.8612, 8.776001
627.3433, 8.470459
627.8254, 9.034668
628.3076, 10.37854
628.7897, 10.86609
629.2718, 9.849365
629.7539, 8.298096
630.2360, 7.487305
630.7181, 7.380005
631.2003, 7.876587
631.6824, 9.458618
632.1645, 11.19019
632.6466, 12.26453
633.1287, 12.78931
633.6108, 13.39062
634.0930, 15.44788
634.5751, 16.73596
635.0572, 15.56665
635.5393, 11.03027
636.0214, 8.604858
636.5035, 9.182617
636.9857, 10.67859
637.4678, 11.56653
637.9499, 11.60547
638.4320, 12.03455
638.9141, 12.97168
639.3962, 14.12683
639.8784, 15.23230
640.3605, 16.23584
640.8426, 17.02881
641.3247, 17.63867
641.8068, 17.89917
642.2889, 17.32568
642.7711, 16.27856
643.2532, 15.59631
643.7353, 15.95532
644.2174, 16.45862
644.6995, 16.95532
645.1816, 17.33313
645.6638, 16.99463
646.1459, 14.61719
646.6280, 12.77173
647.1101, 12.44128
647.5922, 13.70056
648.0743, 14.77808
648.5565, 15.44421
649.0386, 16.43372
649.5207, 18.87390
650.0028, 22.35327
650.4849, 23.56641
650.9670, 22.08118
651.4492, 20.04797
651.9313, 19.92859
652.4134, 20.88293
652.8955, 21.24097
653.3776, 20.27271
653.8597, 19.40723
654.3419, 19.96814
654.8240, 21.12891
655.3061, 21.60950
655.7882, 19.84436
656.2703, 18.85510
656.7524, 20.37988
657.2346, 23.20984
657.7167, 23.36365
658.1988, 19.25330
658.6809, 16.24866
659.1630, 16.53784
659.6451, 19.47473
660.1273, 21.16003
660.6094, 21.54150
661.0915, 21.96313
661.5736, 23.69092
662.0557, 25.97766
662.5378, 27.38428
663.0200, 27.81995
663.5021, 27.71899
663.9842, 26.49939
664.4663, 25.36963
664.9484, 25.73584
665.4305, 28.66736
665.9127, 30.65894
666.3948, 30.41589
666.8769, 29.07922
667.3590, 27.69678
667.8411, 25.43164
668.3232, 25.22852
668.8054, 28.45984
669.2875, 32.58325
669.7696, 32.40442
670.2517, 27.81250
670.7338, 24.47717
671.2159, 24.41370
671.6981, 26.03564
672.1802, 26.66980
672.6623, 26.60437
673.1444, 26.93066
673.6265, 29.19153
674.1086, 31.24634
674.5908, 30.90027
675.0729, 28.59436
675.5550, 27.37292
676.0371, 29.83423
676.5192, 32.11646
677.0013, 32.27905
677.4835, 30.05664
677.9656, 28.76147
678.4477, 28.73242
678.9298, 29.02344
679.4119, 29.05994
679.8940, 28.84277
680.3762, 28.24744
680.8583, 27.20618
681.3404, 26.10352
681.8225, 25.02673
682.3046, 24.21753
682.7867, 24.33008
683.2689, 25.73901
683.7510, 27.22278
684.2331, 28.22888
684.7152, 28.64636
685.1973, 28.29297
685.6794, 24.80396
686.1616, 23.35498
686.6437, 26.46021
687.1258, 31.79016
687.6079, 35.25391
688.0900, 36.48022
688.5721, 36.58374
689.0543, 35.38770
689.5364, 33.48962
690.0185, 32.75781
690.5006, 33.14795
690.9827, 33.65430
691.4648, 34.00806
691.9470, 34.03113
692.4291, 33.32324
692.9112, 31.98950
693.3933, 30.62573
693.8754, 29.08923
694.3575, 28.02014
694.8397, 28.30554
695.3218, 30.20520
695.8039, 30.77185
696.2860, 28.31372
696.7681, 25.73364
697.2502, 24.41663
697.7324, 24.51050
698.2145, 25.52246
698.6966, 27.83655
699.1787, 30.01965
699.6608, 30.49084
700.1429, 29.53210
700.6251, 28.55151
701.1072, 27.70081
701.5893, 26.92224
702.0714, 25.88464
702.5535, 24.94104
703.0356, 24.64661
703.5178, 25.40674
703.9999, 26.35596
704.4820, 27.32227
704.9641, 28.20947
705.4462, 28.91553
705.9283, 29.81567
706.4105, 29.87073
706.8926, 28.42957
707.3747, 26.39136
707.8568, 26.27039
708.3389, 28.30298
708.8210, 29.31836
709.3032, 27.65442
709.7853, 24.94250
710.2674, 25.02771
710.7495, 27.20996
711.2316, 28.54480
711.7137, 25.90515
712.1959, 22.96448
712.6780, 22.96497
713.1601, 25.51636
713.6422, 27.20776
714.1243, 26.66724
714.6064, 25.45935
715.0886, 24.11621
715.5707, 22.62500
716.0528, 21.24854
716.5349, 19.81067
717.0170, 18.93872
717.4991, 19.15540
717.9813, 20.35767
718.4634, 22.13391
718.9455, 24.53296
719.4276, 26.08813
719.9097, 24.17908
720.3918, 21.28064
720.8740, 21.48828
721.3561, 25.77319
721.8382, 28.51306
722.3203, 25.09216
722.8024, 20.48022
723.2845, 19.15393
723.7667, 24.76794
724.2488, 27.95752
724.7309, 27.71887
725.2130, 25.93677
725.6951, 24.74524
726.1772, 24.13293
726.6594, 24.64404
727.1415, 26.89478
727.6236, 28.74683
728.1057, 25.74890
728.5878, 19.98438
729.0699, 17.12769
729.5521, 21.22974
730.0342, 25.21094
730.5163, 22.93335
730.9984, 17.47791
731.4805, 14.33276
731.9626, 18.42761
732.4448, 20.58057
732.9269, 18.04456
733.4090, 12.76489
733.8911, 10.28918
734.3732, 11.19250
734.8553, 12.26294
735.3375, 12.54834
735.8196, 12.28394
736.3017, 11.54626
736.7838, 10.57581
737.2659, 11.07849
737.7480, 15.90161
738.2302, 20.53577
738.7123, 20.46753
739.1944, 16.68896
739.6765, 13.30896
740.1586, 11.50830
740.6407, 10.40112
741.1229, 9.700073
741.6050, 9.429077
742.0871, 10.02502
742.5692, 11.82788
743.0513, 13.64392
743.5334, 14.71826
744.0156, 15.35071
744.4977, 17.22852
744.9798, 20.21753
745.4619, 22.10779
745.9440, 19.70801
746.4261, 15.91553
746.9083, 14.77014
747.3904, 16.71716
747.8725, 18.60559
748.3546, 19.09216
748.8367, 18.88892
749.3188, 18.11475
749.8010, 16.08618
750.2831, 16.03406
750.7652, 19.31592
751.2473, 22.49084
751.7294, 22.76025
752.2115, 20.16748
752.6937, 16.63782
753.1758, 11.90344
753.6579, 7.992065
754.1400, 7.342773
754.6221, 8.756592
755.1042, 10.21741
755.5864, 11.17322
756.0685, 12.89197
756.5506, 18.58374
757.0327, 24.12317
757.5148, 25.17004
757.9969, 16.95154
758.4791, 10.72607
758.9612, 6.768555
759.4433, 4.473877
759.9254, 3.585083
760.4075, 4.168945
760.8896, 3.894653
761.3718, 2.071289
761.8539, 0.3040770
762.3360, 1.066650
762.8181, 3.421875
763.3002, 5.544067
763.7823, 7.437744
764.2645, 8.003174
764.7466, 5.279297
765.2287, 1.272095
765.7108, 1.035156
766.1929, 0.4436040
766.6750, 1.449097
767.1572, 1.640625
767.6393, 1.239868
768.1214, 0.2137450
768.6035, 1.576416
769.0856, 2.169067
769.5677, 0.5493160
770.0499, 1.813721
770.5320, 2.324097
771.0141, 1.488892
771.4962, 0.9155270
771.9783, 1.062012
772.4604, 1.956055
772.9426, 4.716553
773.4247, 8.154175
773.9068, 9.385498
774.3889, 5.757080
774.8710, 3.308105
775.3531, 3.551147
775.8353, 5.425781
776.3174, 6.126465
776.7995, 5.677979
777.2816, 3.769043
777.7637, 1.036621
778.2458, 5.934570
778.7280, 5.213135
779.2101, 0.3818360
779.6922, 3.368164
780.1743, 2.755371
780.6564, 1.108032
781.1385, 0.5364990
781.6207, 1.877686
782.1028, 1.804321
782.5849, 1.119873
783.0670, 3.278076
783.5491, 3.186646
784.0313, 1.705200
784.5134, 3.065552
784.9955, 7.332642
785.4776, 9.722412
785.9597, 5.697876
786.4418, 9.9243000E-02
786.9240, 2.271851
787.4061, 10.01123
787.8882, 15.20715
788.3703, 9.543945
788.8524, 4.310425
789.3345, 7.410400
789.8167, 17.24805
790.2988, 19.45508
790.7809, 7.987915
791.2630, 7.7026002E-02
791.7451, 2.662354
792.2272, 13.06616
792.7094, 17.71667
793.1915, 16.69641
793.6736, 12.80457
794.1557, 4.684448
794.6378, 3.571899
795.1199, 5.697632
795.6021, 2.858521
796.0842, 0.5700680
796.5663, 2.278198
797.0484, 4.042114
797.5305, 3.886108
798.0126, 2.052246
798.4948, 0.8105470
798.9769, 0.4206540
799.4590, 8.0688000E-02
799.9411, 1.574951
800.4232, 3.430542
800.9053, 2.416260
801.3875, 1.147705
801.8696, 4.143921
802.3517, 4.684692
802.8338, 3.775879
803.3159, 1.901489
803.7980, 0.6981200
804.2802, 2.853271
804.7623, 4.527588
805.2444, 5.241943
805.7265, 4.301758
806.2086, 2.014160
806.6907, 1.342773
807.1729, 2.564575
807.6550, 4.150391
808.1371, 5.846313
808.6192, 7.189941
809.1013, 6.050659
809.5834, 3.036133
810.0656, 1.475220
810.5477, 5.535889
811.0298, 9.912109
811.5119, 10.42737
811.9940, 7.572388
812.4761, 6.010498
812.9583, 8.215454
813.4404, 9.548950
813.9225, 7.976440
814.4046, 4.310547
814.8867, 3.594727
815.3688, 5.946777
815.8510, 8.923218
816.3331, 11.89233
816.8152, 14.31458
817.2973, 14.99963
817.7794, 14.22510
818.2615, 13.12927
818.7437, 11.97913
819.2258, 10.92444
819.7079, 9.866699
820.1900, 8.854614
820.6721, 8.260986
821.1542, 7.857178
821.6364, 8.491699
822.1185, 11.18945
822.6006, 14.75537
823.0827, 15.10400
823.5648, 12.53284
824.0469, 9.364014
824.5291, 6.374512
825.0112, 4.041626
825.4933, 3.345703
825.9754, 3.758911
826.4575, 3.515137
826.9396, 0.4031980
827.4218, 1.315552
827.9039, 0.1523440
828.3860, 3.057373
828.8681, 5.825317
829.3502, 8.294067
829.8323, 9.709106
830.3145, 9.554810
830.7966, 8.514404
831.2787, 7.687134
831.7608, 7.043091
832.2429, 6.529785
832.7250, 6.323853
833.2072, 6.036255
833.6893, 4.935547
834.1714, 3.607544
834.6535, 3.788940
835.1356, 7.376221
835.6177, 9.024902
836.0999, 6.897705
836.5820, 3.084961
837.0641, 2.156860
837.5462, 3.666870
838.0283, 4.495483
838.5104, 2.838623
838.9926, 1.575439
839.4747, 4.528809
839.9568, 10.00586
840.4389, 15.11694
840.9210, 20.13928
841.4031, 22.81812
841.8853, 20.80725
842.3674, 17.05518
842.8495, 15.78296
843.3316, 17.50134
843.8137, 19.11218
844.2958, 20.29651
844.7780, 20.73035
845.2601, 19.24963
845.7422, 16.62622
846.2243, 14.77283
846.7064, 14.42468
847.1885, 14.39722
847.6707, 14.04272
848.1528, 13.63647
848.6349, 13.54663
849.1170, 14.49487
849.5991, 14.52173
850.0812, 13.36816
850.5634, 11.55933
851.0455, 9.233154
851.5276, 6.630249
852.0097, 5.672607
852.4918, 6.528442
852.9739, 7.790161
853.4561, 8.548218
853.9382, 9.074585
854.4203, 9.551025
854.9024, 10.20447
855.3845, 10.24377
855.8666, 7.676758
856.3488, 6.235352
856.8309, 9.394409
857.3130, 18.33044
857.7951, 21.38013
858.2772, 17.71875
858.7593, 13.05725
859.2415, 12.54419
859.7236, 14.08447
860.2057, 14.30212
860.6878, 12.98169
861.1699, 11.81445
861.6520, 11.80383
862.1342, 12.03894
862.6163, 12.07166
863.0984, 11.99890
863.5805, 11.38831
864.0626, 9.865479
864.5447, 8.415894
865.0269, 7.961426
865.5090, 8.040771
865.9911, 6.439209
866.4732, 3.512329
866.9553, 1.635376
867.4374, 2.400513
867.9196, 4.600098
868.4017, 8.670288
868.8838, 13.95459
869.3659, 16.40881
869.8480, 14.19458
870.3301, 11.68896
870.8123, 9.897095
871.2944, 8.780151
871.7765, 8.216064
872.2586, 8.173950
872.7407, 8.713379
873.2228, 10.43640
873.7050, 12.31042
874.1871, 13.57361
874.6692, 14.04260
875.1513, 13.03125
875.6334, 8.011963
876.1155, 4.445557
876.5977, 3.234131
877.0798, 3.922852
877.5619, 6.493164
878.0440, 11.21948
878.5261, 14.10461
879.0082, 14.32654
879.4904, 12.61719
879.9725, 7.685547
880.4546, 1.912964
880.9367, 0.1177980
881.4188, 6.021362
881.9009, 10.69910
882.3831, 10.09912
882.8652, 7.254272
883.3473, 5.322876
883.8294, 4.638306
884.3115, 3.581299
884.7936, 1.808472
885.2758, 0.2130130
885.7579, 8.0932997E-02
886.2400, 1.029907
886.7221, 1.981323
887.2042, 2.771484
887.6863, 3.418579
888.1685, 3.672852
888.6506, 4.005493
889.1327, 4.846436
889.6148, 6.310059
890.0969, 7.257080
890.5790, 7.455933
891.0612, 7.671875
891.5433, 8.521851
892.0254, 9.669800
892.5075, 9.732056
892.9896, 8.933472
893.4717, 8.526245
893.9539, 10.32629
894.4360, 11.79004
894.9181, 10.90186
895.4002, 8.139282
895.8823, 6.194946
896.3644, 4.736328
896.8466, 5.069214
897.3287, 8.702515
897.8108, 13.70544
898.2929, 14.76123
898.7750, 12.35791
899.2571, 9.425537
899.7393, 6.310913
900.2214, 4.289185
900.7035, 5.836548
901.1856, 8.880859
901.6677, 9.885742
902.1498, 5.235718
902.6320, 2.476440
903.1141, 2.542847
903.5962, 4.017334
904.0783, 5.200317
904.5604, 6.093384
905.0425, 6.782471
905.5247, 7.353394
906.0068, 7.251221
906.4889, 4.654175
906.9710, 1.811279
907.4531, 1.511963
907.9352, 5.043701
908.4174, 8.075195
908.8995, 10.74512
909.3816, 11.88574
909.8637, 10.18079
910.3458, 5.674561
910.8279, 2.994507
911.3101, 2.133179
911.7922, 2.424438
912.2743, 4.885864
912.7564, 7.213623
913.2385, 6.102783
913.7206, 2.007324
914.2028, 0.9544680
914.6849, 1.120239
915.1670, 0.3443600
915.6491, 1.085083
916.1312, 2.994751
916.6133, 4.938477
917.0955, 6.958740
917.5776, 7.943848
918.0597, 7.290649
918.5418, 5.785034
919.0239, 4.038452
919.5060, 2.219482
919.9882, 0.6555180
920.4703, 1.401489
920.9524, 2.030273
921.4345, 0.1169430
921.9166, 2.886475
922.3987, 3.354126
922.8809, 1.303101
923.3630, 5.3222999E-02
923.8451, 1.5870000E-03
924.3272, 0.4172360
924.8093, 0.4808350
925.2914, 0.6339110
925.7736, 1.563354
926.2557, 3.558350
926.7378, 5.062622
927.2199, 5.803101
927.7020, 5.755981
928.1841, 4.674072
928.6663, 2.577637
929.1484, 1.123169
929.6305, 0.3364260
930.1126, 0.3493650
930.5947, 2.375122
931.0768, 3.818604
931.5590, 0.6229250
932.0411, 5.775879
932.5232, 9.160034
933.0053, 3.999634
933.4874, 0.2130130
933.9695, 0.8175050
934.4517, 0.9426270
934.9338, 2.460815
935.4159, 3.764404
935.8980, 3.617432
936.3801, 1.146362
936.8622, 1.472046
937.3444, 1.933716
937.8265, 0.7338870
938.3086, 1.585571
938.7907, 6.580078
939.2728, 9.409912
939.7549, 7.917480
940.2371, 5.081543
940.7192, 2.936279
941.2013, 1.458984
941.6834, 1.618774
942.1655, 3.509888
942.6476, 5.260376
943.1298, 5.156494
943.6119, 4.162476
944.0940, 2.719849
944.5761, 0.9532470
945.0582, 1.007935
945.5403, 5.339722
946.0225, 9.228271
946.5046, 11.40942
946.9867, 11.97693
947.4688, 10.62659
947.9509, 7.541016
948.4330, 5.471191
948.9152, 6.064453
949.3973, 7.493896
949.8794, 7.999634
950.3615, 8.086182
950.8436, 8.660522
951.3257, 11.14465
951.8079, 12.29346
952.2900, 11.47437
952.7721, 9.912720
953.2542, 9.077148
953.7363, 8.864868
954.2184, 8.456055
954.7006, 7.753784
955.1827, 7.115723
955.6648, 7.075439
956.1469, 7.062988
956.6290, 6.560303
957.1111, 5.479370
957.5933, 4.167847
958.0754, 1.915771
958.5575, 0.9729000
959.0396, 3.075073
959.5217, 7.040771
960.0038, 8.637939
960.4860, 8.235229
960.9681, 7.807007
961.4502, 8.435181
961.9323, 9.294800
962.4144, 9.787354
962.8965, 10.16199
963.3787, 10.93042
963.8608, 12.07458
964.3429, 13.87085
964.8250, 16.81873
965.3071, 19.30505
965.7892, 17.94995
966.2714, 14.52112
966.7535, 13.99316
967.2356, 17.69238
967.7177, 20.59863
968.1998, 18.41882
968.6819, 15.64038
969.1641, 16.01025
969.6462, 19.97449
970.1283, 20.55603
970.6104, 17.09937
971.0925, 13.97021
971.5746, 13.86084
972.0568, 15.54968
972.5389, 17.61792
973.0210, 19.86023
973.5031, 21.31396
973.9852, 21.42151
974.4673, 20.70190
974.9495, 18.59912
975.4316, 16.19214
975.9137, 15.71899
976.3958, 17.36487
976.8779, 17.58167
977.3600, 15.47388
977.8422, 13.22058
978.3243, 13.23108
978.8064, 14.40918
979.2885, 15.59094
979.7706, 16.52612
980.2527, 16.97131
980.7349, 16.39697
981.2170, 15.99719
981.6991, 16.67334
982.1812, 18.14270
982.6633, 17.88269
983.1454, 16.04785
983.6276, 14.62744
984.1097, 15.69849
984.5918, 16.75989
985.0739, 14.81946
985.5560, 11.38208
986.0381, 10.85425
986.5203, 15.94873
987.0024, 18.63000
987.4845, 17.47290
987.9666, 14.40942
988.4487, 11.57898
988.9308, 9.128296
989.4130, 7.530884
989.8951, 6.632324
990.3772, 6.831909
990.8593, 9.712646
991.3414, 12.73462
991.8235, 13.94507
992.3057, 13.31860
992.7878, 12.81372
993.2699, 12.56970
993.7520, 12.24243
994.2341, 11.37402
994.7162, 10.26685
995.1984, 9.493164
995.6805, 8.911133
996.1626, 7.873047
996.6447, 4.248291
997.1268, 2.642578
997.6089, 5.169800
998.0911, 9.175171
998.5732, 10.99011
999.0553, 10.64136
999.5374, 9.490601
1000.020, 7.603027
1000.502, 6.022583
1000.984, 6.024536
1001.466, 6.572388
1001.948, 6.589722
1002.430, 5.871216
1002.912, 5.682007
1003.394, 6.715698
1003.876, 7.206543
1004.359, 5.662598
1004.841, 3.406128
1005.323, 5.384766
1005.805, 10.38293
1006.287, 13.22144
1006.769, 9.337891
1007.251, 5.819702
1007.733, 7.476074
1008.216, 11.17627
1008.698, 12.50720
1009.180, 10.93726
1009.662, 8.574463
1010.144, 5.162964
1010.626, 2.755249
1011.108, 4.547119
1011.590, 8.081665
1012.072, 9.497070
1012.555, 8.638672
1013.037, 7.944824
1013.519, 8.352295
1014.001, 8.965820
1014.483, 9.716553
1014.965, 10.38672
1015.447, 10.02393
1015.929, 8.741455
1016.411, 7.773926
1016.894, 7.631592
1017.376, 7.740479
1017.858, 7.834717
1018.340, 7.781738
1018.822, 7.306396
1019.304, 5.829590
1019.786, 5.544434
1020.268, 6.863037
1020.751, 8.366943
1021.233, 8.947021
1021.715, 8.914551
1022.197, 8.820557
1022.679, 8.752930
1023.161, 9.089355
1023.643, 11.27881
1024.125, 12.43237
1024.607, 10.41040
1025.090, 6.923584
1025.572, 5.658936
1026.054, 6.844238
1026.536, 7.596924
1027.018, 7.306152
1027.500, 7.194092
1027.982, 9.778809
1028.464, 12.61230
1028.947, 12.58130
1029.429, 8.772461
1029.911, 5.140381
1030.393, 1.310547
1030.875, 0.6640630
1031.357, 1.103760
1031.839, 5.204590
1032.321, 6.330811
1032.803, 5.280273
1033.286, 4.882813
1033.768, 8.495117
1034.250, 11.43335
1034.732, 10.98877
1035.214, 8.932373
1035.696, 7.883545
1036.178, 8.064697
1036.660, 7.654053
1037.143, 6.373291
1037.625, 5.329834
1038.107, 5.718750
1038.589, 6.797607
1039.071, 7.965576
1039.553, 9.104980
1040.035, 9.066650
1040.517, 5.735352
1041.000, 4.227051
1041.482, 6.671387
1041.964, 11.14868
1042.446, 13.20801
1042.928, 13.24780
1043.410, 12.18433
1043.892, 10.05273
1044.374, 8.729736
1044.856, 10.88354
1045.339, 13.32715
1045.821, 12.74902
1046.303, 8.299072
1046.785, 7.094971
1047.267, 9.442871
1047.749, 12.46899
1048.231, 15.73535
1048.713, 17.42896
1049.195, 13.93335
1049.677, 6.983398
1050.160, 1.349854
1050.642, 2.496094
1051.124, 3.218994
1051.606, 0.5351560
1052.088, 5.637451
1052.570, 7.798340
1053.052, 7.679199
1053.534, 7.742920
1054.017, 8.289551
1054.499, 8.385010
1054.981, 6.649414
1055.463, 4.997559
1055.945, 5.229248
1056.427, 6.805176
1056.909, 5.922119
1057.391, 2.284912
1057.874, 2.6123000E-02
1058.356, 0.9187010
1058.838, 2.739502
1059.320, 2.850342
1059.802, 1.850098
1060.284, 0.4638670
1060.766, 1.935547
1061.248, 2.596436
1061.730, 0.6271970
1062.213, 1.469971
1062.695, 1.453613
1063.177, 0.1384280
1063.659, 0.7529300
1064.141, 2.901855
1064.623, 4.732910
1065.105, 4.808838
1065.587, 4.911377
1066.070, 6.345459
1066.552, 7.875488
1067.034, 7.171143
1067.516, 4.093994
1067.998, 2.768799
1068.480, 3.818359
1068.962, 5.191895
1069.444, 4.892090
1069.927, 4.166504
1070.409, 4.554688
1070.891, 6.119629
1071.373, 5.898438
1071.855, 2.805176
1072.337, 0.8979490
1072.819, 1.810791
1073.301, 4.081543
1073.783, 5.872070
1074.266, 6.763672
1074.748, 6.033691
1075.230, 2.439209
1075.712, 0.6315920
1076.194, 3.601074
1076.676, 6.579102
1077.158, 6.050781
1077.640, 2.634277
1078.122, 3.764648
1078.604, 8.821045
1079.087, 12.61548
1079.569, 10.35059
1080.051, 7.069580
1080.533, 5.375977
1081.015, 5.111328
1081.497, 6.206055
1081.979, 9.560547
1082.461, 9.131104
1082.944, 3.859863
1083.426, 1.048584
1083.908, 0.2109380
1084.390, 4.169189
1084.872, 7.797119
1085.354, 10.60840
1085.836, 9.781006
1086.318, 1.412354
1086.801, 3.457031
1087.283, 1.199707
1087.765, 4.280029
1088.247, 6.433838
1088.729, 5.906250
1089.211, 3.745361
1089.693, 0.6140140
1090.175, 2.639404
1090.657, 2.155273
1091.140, 7.357422
1091.622, 9.667725
1092.104, 9.301025
1092.586, 7.353271
1093.068, 4.021973
1093.550, 1.771729
1094.032, 2.443359
1094.514, 3.418457
1094.997, 2.268555
1095.479, 0.5253910
1095.961, 0.3588870
1096.443, 2.421631
1096.925, 3.985352
1097.407, 5.000488
1097.889, 5.846924
1098.371, 7.703857
1098.854, 8.936035
1099.336, 5.506348
1099.818, 0.7277830
1100.300, 2.320801
1100.782, 7.745850
1101.264, 12.94141
1101.746, 10.01880
1102.228, 3.989746
1102.710, 0.8947750
1103.193, 0.1086430
1103.675, 0.4919430
1104.157, 1.881104
1104.639, 2.449707
1105.121, 0.1245120
1105.603, 1.895996
1106.085, 1.446777
1106.567, 0.8894040
1107.049, 5.223633
1107.531, 11.01514
1108.014, 13.09082
1108.496, 8.955078
1108.978, 4.467041
1109.460, 4.262451
1109.942, 5.261963
1110.424, 4.682373
1110.906, 2.348145
1111.388, 1.170166
1111.871, 1.143555
1112.353, 2.433105
1112.835, 6.279785
1113.317, 10.04224
1113.799, 10.01953
1114.281, 8.147949
1114.763, 7.725586
1115.245, 10.90454
1115.728, 12.07178
1116.210, 10.89990
1116.692, 8.974121
1117.174, 7.046387
1117.656, 5.525391
1118.138, 5.338867
1118.620, 6.180420
1119.102, 7.171875
1119.584, 7.849609
1120.067, 9.225098
1120.549, 11.98315
1121.031, 14.52393
1121.513, 14.42407
1121.995, 12.30420
1122.477, 10.20557
1122.959, 8.303467
1123.441, 6.343994
1123.924, 3.484863
1124.406, 1.380859
1124.888, 0.9140630
1125.370, 1.563721
1125.852, 1.840576
1126.334, 1.869141
1126.816, 2.920410
1127.298, 5.628174
1127.781, 7.739990
1128.263, 6.722168
1128.745, 5.156982
1129.227, 5.817871
1129.709, 8.541992
1130.191, 7.302979
1130.673, 1.754150
1131.155, 2.063721
1131.637, 0.9763180
1132.120, 1.465820
1132.602, 1.260498
1133.084, 0.1108400
1133.566, 0.5859380
1134.048, 3.839844
1134.530, 5.906738
1135.012, 6.830078
1135.494, 6.189697
1135.976, 1.839600
1136.458, 2.939697
1136.941, 2.130371
1137.423, 2.475098
1137.905, 6.490723
1138.387, 8.376953
1138.869, 10.20264
1139.351, 12.34277
1139.833, 13.79810
1140.315, 12.80664
1140.798, 10.54907
1141.280, 10.13159
1141.762, 11.47510
1142.244, 12.18018
1142.726, 10.22632
1143.208, 8.892822
1143.690, 8.936523
1144.172, 9.871582
1144.655, 11.66870
1145.137, 13.98926
1145.619, 13.34814
1146.101, 9.197266
1146.583, 5.930664
1147.065, 6.763916
1147.547, 8.246338
1148.029, 8.989502
1148.511, 9.358398
1148.994, 9.174072
1149.476, 8.471680
1149.958, 7.366211
1150.440, 5.543945
1150.922, 5.003174
1151.404, 9.016113
1151.886, 13.32104
1152.368, 14.28442
1152.851, 12.28906
1153.333, 11.20044
1153.815, 10.99023
1154.297, 12.20630
1154.779, 15.73535
1155.261, 19.09961
1155.743, 20.27856
1156.225, 19.78491
1156.708, 17.62598
1157.190, 13.40161
1157.672, 11.24097
1158.154, 11.33325
1158.636, 12.29492
1159.118, 14.05493
1159.600, 14.88550
1160.082, 10.94702
1160.564, 5.316895
1161.047, 3.635254
1161.529, 9.435791
1162.011, 12.67749
1162.493, 13.06641
1162.975, 12.05029
1163.457, 10.12793
1163.939, 7.993408
1164.421, 5.663574
1164.903, 3.767334
1165.385, 4.623535
1165.868, 11.96509
1166.350, 15.48438
1166.832, 13.40918
1167.314, 9.978027
1167.796, 9.758057
1168.278, 11.16113
1168.760, 11.31616
1169.242, 10.32129
1169.725, 10.28882
1170.207, 13.47461
1170.689, 15.12036
1171.171, 14.13306
1171.653, 12.07007
1172.135, 10.80859
1172.617, 10.27905
1173.099, 10.51001
1173.582, 11.47021
1174.064, 12.19995
1174.546, 11.49609
1175.028, 11.81201
1175.510, 14.44653
1175.992, 17.52295
1176.474, 17.05591
1176.956, 14.10571
1177.438, 11.44141
1177.921, 9.351318
1178.403, 8.419922
1178.885, 9.609131
1179.367, 11.47705
1179.849, 14.05908
1180.331, 16.53271
1180.813, 15.58447
1181.295, 12.13672
1181.778, 9.769531
1182.260, 9.440674
1182.742, 9.005859
1183.224, 6.529541
1183.706, 4.690430
1184.188, 5.072266
1184.670, 7.315674
1185.152, 9.932129
1185.635, 12.68799
1186.117, 14.42480
1186.599, 13.72974
1187.081, 13.94556
1187.563, 19.62915
1188.045, 24.27832
1188.527, 21.36255
1189.009, 11.65747
1189.491, 9.787109
1189.974, 14.74536
1190.456, 18.87329
1190.938, 18.05322
1191.420, 15.98706
1191.902, 12.82837
1192.384, 10.53760
1192.866, 11.78613
1193.348, 16.71313
1193.830, 17.30664
1194.313, 13.71924
1194.795, 10.72681
1195.277, 10.95288
1195.759, 12.67432
1196.241, 17.39185
1196.723, 21.63452
1197.205, 20.12793
1197.687, 12.65527
1198.169, 8.532959
1198.652, 8.123779
1199.134, 9.037842
1199.616, 11.35938
1200.098, 12.74048
1200.580, 11.20044
1201.062, 8.027832
1201.544, 4.924316
1202.026, 1.851563
1202.509, 0.8034670
1202.991, 1.961914
1203.473, 4.038818
1203.955, 6.980225
1204.437, 9.621826
1204.919, 11.31958
1205.401, 12.13843
1205.883, 12.11938
1206.365, 11.23120
1206.848, 9.596436
1207.330, 7.122314
1207.812, 5.563965
1208.294, 7.202881
1208.776, 9.360352
1209.258, 10.25024
1209.740, 10.13330
1210.222, 9.447266
1210.705, 8.205322
1211.187, 8.374512
1211.669, 10.54150
1212.151, 12.24634
1212.633, 10.69702
1213.115, 8.697754
1213.597, 8.727539
1214.079, 10.07178
1214.562, 9.539063
1215.044, 7.212646
1215.526, 6.886230
1216.008, 9.893066
1216.490, 12.43359
1216.972, 10.18604
1217.454, 7.440430
1217.936, 7.656250
1218.418, 10.20410
1218.901, 12.63818
1219.383, 14.88989
1219.865, 14.39111
1220.347, 9.587646
1220.829, 5.161621
1221.311, 5.196533
1221.793, 6.473389
1222.275, 6.345459
1222.757, 5.140625
1223.240, 6.214600
1223.722, 9.320313
1224.204, 10.74219
1224.686, 9.089600
1225.168, 6.074219
1225.650, 1.359863
1226.132, 2.860107
1226.614, 4.994385
1227.096, 5.165039
1227.579, 4.397705
1228.061, 2.749023
1228.543, 0.6206050
1229.025, 2.191162
1229.507, 4.462402
1229.989, 5.085693
1230.471, 5.137939
1230.953, 5.653809
1231.436, 6.426025
1231.918, 4.927734
1232.400, 1.612549
1232.882, 0.1901860
1233.364, 2.092041
1233.846, 3.881104
1234.328, 1.705078
1234.810, 0.6188960
1235.292, 7.1044996E-02
1235.775, 2.915039
1236.257, 5.108643
1236.739, 6.536133
1237.221, 7.318604
1237.703, 7.929932
1238.185, 7.239502
1238.667, 1.959961
1239.149, 1.852783
1239.632, 2.025635
1240.114, 11.42896
1240.596, 12.94556
1241.078, 8.270020
1241.560, 4.247559
1242.042, 4.756836
1242.524, 5.514160
1243.006, 5.801514
1243.489, 5.519043
1243.971, 4.336182
1244.453, 2.507568
1244.935, 0.2233890
1245.417, 1.890869
1245.899, 1.260254
1246.381, 6.287598
1246.863, 12.25171
1247.345, 15.43774
1247.828, 16.81299
1248.310, 16.60669
1248.792, 15.35059
1249.274, 13.85083
1249.756, 12.52686
1250.238, 12.67676
1250.720, 17.53613
1251.202, 19.28101
1251.684, 16.15308
1252.167, 12.65186
1252.649, 13.15112
1253.131, 15.93750
1253.613, 18.32812
1254.095, 19.85059
1254.577, 19.28784
1255.059, 13.35059
1255.541, 11.12720
1256.023, 13.73901
1256.506, 17.71533
1256.988, 21.91260
1257.470, 24.37598
1257.952, 19.48145
1258.434, 10.59180
1258.916, 8.506836
1259.398, 18.12256
1259.880, 23.39893
1260.363, 23.12305
1260.845, 20.53906
1261.327, 17.02319
1261.809, 13.67920
1262.291, 12.02222
1262.773, 11.45557
1263.255, 10.35840
1263.737, 8.378662
1264.219, 5.968018
1264.702, 2.669434
1265.184, 1.870117
1265.666, 9.192871
1266.148, 16.35718
1266.630, 15.89404
1267.112, 11.11011
1267.594, 9.265625
1268.076, 10.87793
1268.559, 11.31079
1269.041, 10.52563
1269.523, 10.28857
1270.005, 12.79272
1270.487, 14.83154
1270.969, 13.86182
1271.451, 11.91211
1271.933, 9.946045
1272.416, 8.056152
1272.898, 7.561279
1273.380, 8.384033
1273.862, 9.042969
1274.344, 9.977051
1274.826, 10.62720
1275.308, 10.37695
1275.790, 9.644775
1276.272, 8.648926
1276.755, 7.633545
1277.237, 7.958496
1277.719, 9.406250
1278.201, 10.01123
1278.683, 7.454834
1279.165, 6.045410
1279.647, 6.623535
1280.129, 8.425781
1280.611, 11.69141
1281.094, 15.15479
1281.576, 15.99268
1282.058, 14.44165
1282.540, 12.24878
1283.022, 9.137695
1283.504, 6.748047
1283.986, 5.329834
1284.468, 4.547852
1284.950, 3.966309
1285.433, 3.849609
1285.915, 4.726074
1286.397, 6.388672
1286.879, 8.166016
1287.361, 10.27295
1287.843, 11.32178
1288.325, 11.18140
1288.807, 10.20215
1289.290, 7.391846
1289.772, 5.089844
1290.254, 6.095215
1290.736, 9.009521
1291.218, 10.43750
1291.700, 10.30029
1292.182, 9.063477
1292.664, 6.753662
1293.146, 5.717773
1293.629, 9.892822
1294.111, 13.25879
1294.593, 10.82983
1295.075, 6.566650
1295.557, 5.148193
1296.039, 6.337158
1296.521, 9.491211
1297.003, 13.94727
1297.486, 15.02856
1297.968, 4.786133
1298.450, 0.7990720
1298.932, 4.415527
1299.414, 12.05884
1299.896, 12.39917
1300.378, 5.416992
1300.860, 2.062744
1301.343, 0.4384770
1301.825, 0.0000000E+00
##END=



