##NAMES=Alamosite
##RRUFFID=R060067
##IDEAL CHEMISTRY=PbSiO_3_
##LOCALITY=Alamos, Sonora, Mexico
##OWNER=RRUFF
##SOURCE=University of Arizona Mineral Museum
##DESCRIPTION=Aggregate of transparent parallel acicular crystals
##STATUS=The identification of this mineral is confirmed by single-crystal X-ray diffraction and chemical analysis.
##URL=rruff.info/R060067
##MEASURED CHEMISTRY=Pb_1.00_Si_1.00_O_3_
125.5345, 0.0000000E+00
126.0167, 3.932983
126.4988, 0.7539060
126.9809, 0.6274410
127.4630, 2.907410
127.9451, 9.276062
128.4272, 17.54303
128.9093, 26.54419
129.3915, 36.26886
129.8736, 47.05878
130.3557, 58.04382
130.8378, 65.84546
131.3199, 71.48071
131.8020, 79.30859
132.2842, 88.90051
132.7663, 99.00092
133.2484, 109.6788
133.7305, 122.4035
134.2126, 138.7369
134.6947, 158.4772
135.1769, 179.0335
135.6590, 199.9613
136.1411, 221.5283
136.6232, 244.4479
137.1053, 268.4263
137.5874, 294.2749
138.0696, 323.6695
138.5517, 356.7067
139.0338, 389.5308
139.5159, 421.6180
139.9980, 452.6978
140.4801, 483.6492
140.9623, 516.8064
141.4444, 545.9174
141.9265, 565.8671
142.4086, 577.5251
142.8907, 577.9333
143.3728, 565.9692
143.8550, 541.4761
144.3371, 507.7463
144.8192, 462.5110
145.3013, 409.9781
145.7834, 357.5886
146.2655, 302.5988
146.7477, 250.6809
147.2298, 202.4585
147.7119, 157.2148
148.1940, 118.6784
148.6761, 88.05847
149.1582, 63.78937
149.6404, 43.77972
150.1225, 27.70422
150.6046, 15.83289
151.0867, 8.471863
151.5688, 6.879517
152.0509, 7.682251
152.5331, 10.68982
153.0152, 16.01141
153.4973, 24.05640
153.9794, 35.03174
154.4615, 48.44598
154.9436, 64.12915
155.4258, 83.73706
155.9079, 103.4213
156.3900, 123.8745
156.8721, 144.5063
157.3542, 162.9628
157.8363, 178.9345
158.3185, 192.4090
158.8006, 203.3381
159.2827, 211.3929
159.7648, 217.3237
160.2469, 220.1664
160.7290, 220.3461
161.2112, 221.5563
161.6933, 224.4385
162.1754, 229.0890
162.6575, 235.5861
163.1396, 242.7064
163.6217, 252.7511
164.1039, 266.6575
164.5860, 284.4138
165.0681, 305.3551
165.5502, 331.9346
166.0323, 360.6116
166.5145, 387.6790
166.9966, 414.6217
167.4787, 437.4414
167.9608, 454.9526
168.4429, 467.2767
168.9250, 471.0286
169.4072, 462.7714
169.8893, 444.7770
170.3714, 420.7233
170.8535, 388.2762
171.3356, 352.6125
171.8177, 317.0836
172.2999, 281.6500
172.7820, 248.4634
173.2641, 217.9945
173.7462, 190.9589
174.2283, 168.6514
174.7104, 151.6045
175.1926, 139.3232
175.6747, 131.6833
176.1568, 128.7574
176.6389, 129.5468
177.1210, 133.9609
177.6031, 141.5316
178.0853, 150.8380
178.5674, 161.6484
179.0495, 173.5435
179.5316, 186.4467
180.0137, 200.9214
180.4958, 215.4810
180.9780, 229.6552
181.4601, 242.7486
181.9422, 252.4368
182.4243, 257.8937
182.9064, 258.6392
183.3885, 251.1724
183.8707, 237.0651
184.3528, 218.3624
184.8349, 196.4150
185.3170, 171.6251
185.7991, 146.1505
186.2812, 120.2884
186.7633, 94.90082
187.2455, 73.20587
187.7276, 55.56354
188.2097, 41.57349
188.6918, 30.14636
189.1739, 21.31873
189.6560, 15.09912
190.1382, 11.61121
190.6203, 10.87244
191.1024, 12.48907
191.5845, 16.70667
192.0666, 22.99432
192.5487, 30.08215
193.0309, 37.92499
193.5130, 47.06268
193.9951, 58.62439
194.4772, 72.49152
194.9593, 85.98926
195.4414, 98.68439
195.9236, 110.7389
196.4057, 122.2422
196.8878, 133.1682
197.3699, 143.8395
197.8520, 154.4133
198.3341, 164.9805
198.8163, 175.6244
199.2984, 186.3721
199.7805, 197.2474
200.2626, 208.2153
200.7447, 219.0677
201.2268, 230.6391
201.7090, 243.7999
202.1911, 258.6858
202.6732, 273.8472
203.1553, 288.5386
203.6374, 303.1124
204.1195, 319.6083
204.6017, 338.2144
205.0838, 358.2524
205.5659, 378.9209
206.0480, 400.0383
206.5301, 422.9479
207.0122, 447.9365
207.4944, 474.9687
207.9765, 502.6616
208.4586, 530.8671
208.9407, 560.0244
209.4228, 590.9083
209.9049, 624.0181
210.3871, 657.0938
210.8692, 689.9630
211.3513, 722.4082
211.8334, 752.3513
212.3155, 780.4644
212.7976, 805.0076
213.2798, 824.5681
213.7619, 839.8438
214.2440, 848.0845
214.7261, 848.5690
215.2082, 841.3318
215.6903, 827.5459
216.1725, 806.7920
216.6546, 780.3922
217.1367, 749.4058
217.6188, 712.7009
218.1009, 673.9224
218.5830, 632.9543
219.0652, 589.2087
219.5473, 547.5535
220.0294, 507.6315
220.5115, 469.1690
220.9936, 432.3237
221.4757, 396.5450
221.9579, 362.8453
222.4400, 331.1179
222.9221, 301.0694
223.4042, 273.9526
223.8863, 249.8656
224.3684, 228.0286
224.8506, 207.0477
225.3327, 186.7339
225.8148, 168.1514
226.2969, 152.0793
226.7790, 138.5116
227.2611, 125.0689
227.7433, 111.0526
228.2254, 97.52271
228.7075, 85.70068
229.1896, 75.84555
229.6717, 66.96884
230.1538, 58.83667
230.6360, 51.53174
231.1181, 44.54654
231.6002, 37.89713
232.0823, 31.53928
232.5644, 25.39423
233.0465, 19.08237
233.5287, 13.53729
234.0108, 9.101746
234.4929, 5.807770
234.9750, 2.499084
235.4571, 0.9566350
235.9392, 4.229614
236.4214, 6.970459
236.9035, 8.922241
237.3856, 10.76416
237.8677, 12.69220
238.3498, 14.78061
238.8319, 16.40674
239.3141, 17.48434
239.7962, 18.16455
240.2783, 18.64474
240.7604, 18.98969
241.2425, 18.99799
241.7246, 18.58838
242.2068, 17.75311
242.6889, 16.78821
243.1710, 15.66379
243.6531, 14.44186
244.1352, 13.23801
244.6173, 12.32047
245.0995, 10.92139
245.5816, 8.909698
246.0637, 6.285400
246.5458, 3.097717
247.0279, 0.8148800
247.5100, 5.139648
247.9922, 9.543427
248.4743, 14.04984
248.9564, 18.69543
249.4385, 23.45703
249.9206, 28.34097
250.4027, 33.69965
250.8848, 39.65607
251.3670, 45.97543
251.8491, 52.44333
252.3312, 59.28607
252.8133, 65.88589
253.2954, 72.11334
253.7775, 77.99500
254.2597, 83.93445
254.7418, 89.72800
255.2239, 95.86084
255.7060, 102.7404
256.1881, 110.6316
256.6703, 118.7386
257.1524, 126.9525
257.6345, 135.3041
258.1166, 144.0948
258.5987, 153.1990
259.0808, 162.7859
259.5630, 173.0371
260.0451, 183.8082
260.5272, 195.1276
261.0093, 206.7669
261.4914, 218.8801
261.9735, 232.1519
262.4557, 246.5622
262.9378, 261.9819
263.4199, 278.4545
263.9020, 296.5479
264.3841, 313.8145
264.8662, 330.1649
265.3484, 345.5506
265.8305, 360.7469
266.3126, 376.5020
266.7947, 390.2370
267.2768, 400.3672
267.7589, 406.9617
268.2411, 410.3132
268.7232, 410.6245
269.2053, 407.6288
269.6874, 400.4250
270.1695, 388.3849
270.6516, 373.4462
271.1338, 356.2144
271.6159, 335.9848
272.0980, 315.7722
272.5801, 295.4581
273.0622, 275.2433
273.5443, 256.0974
274.0265, 238.1571
274.5086, 220.9309
274.9907, 204.2627
275.4728, 188.0894
275.9549, 173.1189
276.4370, 159.6684
276.9192, 147.0235
277.4013, 133.6719
277.8834, 119.3626
278.3655, 105.7945
278.8476, 93.77646
279.3297, 83.23535
279.8118, 73.44171
280.2939, 64.42212
280.7761, 56.33359
281.2582, 49.61279
281.7403, 44.32700
282.2224, 39.67307
282.7045, 35.39499
283.1866, 31.49228
283.6688, 27.92566
284.1509, 24.61954
284.6330, 21.84036
285.1151, 20.01480
285.5972, 19.13544
286.0793, 18.41501
286.5615, 17.50204
287.0436, 16.51691
287.5257, 16.06308
288.0078, 16.14960
288.4899, 16.53644
288.9720, 17.04123
289.4542, 17.65677
289.9363, 18.24930
290.4184, 18.57413
290.9005, 18.89514
291.3826, 20.08188
291.8647, 22.16666
292.3469, 24.52206
292.8290, 26.71484
293.3111, 28.64578
293.7932, 30.23407
294.2753, 31.34845
294.7574, 32.34741
295.2396, 33.94650
295.7217, 36.11462
296.2038, 38.16577
296.6859, 39.22644
297.1680, 39.76743
297.6501, 41.22430
298.1323, 44.26776
298.6144, 47.65280
299.0965, 49.68823
299.5786, 50.55463
300.0607, 51.02081
300.5428, 51.92139
301.0250, 52.75946
301.5071, 52.57181
301.9892, 51.07846
302.4713, 48.94553
302.9534, 46.83374
303.4355, 44.76508
303.9177, 42.71255
304.3998, 40.67261
304.8819, 38.71335
305.3640, 36.76379
305.8461, 34.68494
306.3282, 32.86633
306.8104, 31.55118
307.2925, 30.72427
307.7746, 30.40448
308.2567, 30.55310
308.7388, 31.23785
309.2209, 32.61783
309.7031, 34.71704
310.1852, 37.14182
310.6673, 39.84927
311.1494, 42.68549
311.6315, 45.43323
312.1136, 47.75110
312.5958, 50.13763
313.0779, 53.00659
313.5600, 56.31473
314.0421, 59.72379
314.5242, 62.91046
315.0063, 66.11584
315.4885, 69.56915
315.9706, 73.64935
316.4527, 77.70703
316.9348, 81.71634
317.4169, 85.56631
317.8990, 88.76877
318.3812, 91.49286
318.8633, 93.29605
319.3454, 93.95230
319.8275, 94.22177
320.3096, 92.11035
320.7917, 86.61105
321.2739, 78.27747
321.7560, 68.48141
322.2381, 56.07327
322.7202, 43.47913
323.2023, 31.62277
323.6844, 20.15918
324.1666, 10.50241
324.6487, 3.164368
325.1308, 2.217957
325.6129, 6.138123
326.0950, 8.268860
326.5771, 9.326721
327.0593, 9.526062
327.5414, 8.920990
328.0235, 7.291077
328.5056, 4.641937
328.9877, 0.9501950
329.4698, 3.743011
329.9520, 9.705750
330.4341, 16.38660
330.9162, 23.82816
331.3983, 32.04919
331.8804, 40.46988
332.3625, 48.81479
332.8447, 57.50162
333.3268, 66.94357
333.8089, 77.56729
334.2910, 88.24313
334.7731, 98.95328
335.2552, 109.7360
335.7374, 120.3603
336.2195, 130.5719
336.7016, 141.1779
337.1837, 152.7981
337.6658, 165.4708
338.1479, 178.7400
338.6301, 192.6236
339.1122, 206.8687
339.5943, 220.6488
340.0764, 233.5158
340.5585, 247.0562
341.0406, 261.7253
341.5228, 277.7639
342.0049, 294.1386
342.4870, 310.9733
342.9691, 328.1444
343.4512, 344.8764
343.9333, 361.2072
344.4155, 378.9804
344.8976, 399.1407
345.3797, 421.3298
345.8618, 442.5338
346.3439, 462.9562
346.8260, 482.3172
347.3082, 500.9325
347.7903, 518.6037
348.2724, 534.6961
348.7545, 549.5892
349.2366, 562.3169
349.7188, 571.1809
350.2009, 576.2617
350.6830, 577.4130
351.1651, 574.8318
351.6472, 568.2634
352.1293, 556.9692
352.6115, 540.7184
353.0936, 520.4401
353.5757, 495.9894
354.0578, 468.0163
354.5399, 438.4701
355.0220, 407.3429
355.5042, 375.6338
355.9863, 344.6070
356.4684, 314.5412
356.9505, 285.9813
357.4326, 259.0445
357.9147, 234.0168
358.3969, 211.4771
358.8790, 191.7177
359.3611, 174.2704
359.8432, 158.8196
360.3253, 145.3097
360.8074, 133.8336
361.2896, 124.4028
361.7717, 116.8348
362.2538, 110.9887
362.7359, 107.1914
363.2180, 104.7259
363.7001, 103.6089
364.1823, 103.6319
364.6644, 104.1672
365.1465, 105.0573
365.6286, 106.3819
366.1107, 108.3372
366.5928, 111.8341
367.0750, 114.1771
367.5571, 114.4209
368.0392, 113.4502
368.5213, 112.5961
369.0034, 112.6905
369.4855, 112.2319
369.9677, 110.5145
370.4498, 107.1433
370.9319, 104.6091
371.4140, 103.6153
371.8961, 102.9752
372.3782, 101.4591
372.8604, 98.07361
373.3425, 95.50940
373.8246, 94.19699
374.3067, 94.07724
374.7888, 94.59253
375.2709, 95.78287
375.7531, 97.56189
376.2352, 99.90979
376.7173, 102.8391
377.1994, 106.3147
377.6815, 110.4276
378.1636, 115.0663
378.6458, 119.9193
379.1279, 125.0405
379.6100, 130.3482
380.0921, 135.9926
380.5742, 141.9316
381.0563, 147.7258
381.5385, 153.4666
382.0206, 158.6660
382.5027, 162.7365
382.9848, 165.6761
383.4669, 167.3904
383.9490, 167.9178
384.4312, 167.2498
384.9133, 165.4283
385.3954, 162.4813
385.8775, 158.1924
386.3596, 152.1328
386.8417, 144.6755
387.3239, 136.3334
387.8060, 127.0367
388.2881, 117.3736
388.7702, 107.5504
389.2523, 97.80624
389.7344, 88.91141
390.2166, 81.32510
390.6987, 74.66730
391.1808, 68.64355
391.6629, 63.19913
392.1450, 58.09918
392.6271, 52.99063
393.1093, 48.22507
393.5914, 44.31720
394.0735, 41.87692
394.5556, 39.90097
395.0377, 38.02441
395.5198, 36.23505
396.0020, 34.49799
396.4841, 32.90280
396.9662, 31.29926
397.4483, 29.56018
397.9304, 27.09207
398.4125, 25.27512
398.8947, 24.25458
399.3768, 24.01642
399.8589, 24.53003
400.3410, 26.03177
400.8231, 28.06625
401.3052, 30.75577
401.7874, 34.56396
402.2695, 37.14545
402.7516, 37.69934
403.2337, 37.61633
403.7158, 38.56158
404.1979, 41.35620
404.6800, 43.42606
405.1621, 44.23965
405.6443, 43.91763
406.1264, 43.28973
406.6085, 42.29428
407.0906, 41.15955
407.5727, 40.15363
408.0548, 39.33432
408.5370, 37.81982
409.0191, 35.37762
409.5012, 32.56250
409.9833, 30.55020
410.4654, 29.32822
410.9475, 27.86041
411.4297, 25.57465
411.9118, 22.65738
412.3939, 19.72235
412.8760, 16.82401
413.3581, 13.95914
413.8402, 11.13782
414.3224, 8.384705
414.8045, 5.650604
415.2866, 2.781403
415.7687, 0.1080020
416.2508, 1.941284
416.7329, 3.453705
417.2151, 4.867218
417.6972, 6.614075
418.1793, 8.310944
418.6614, 9.589966
419.1435, 10.31897
419.6256, 10.87198
420.1078, 11.62631
420.5899, 12.29065
421.0720, 12.48074
421.5541, 11.89053
422.0362, 10.94650
422.5183, 9.859558
423.0005, 8.634399
423.4826, 6.961700
423.9647, 5.047577
424.4468, 2.481628
424.9289, 0.9714050
425.4110, 5.712433
425.8932, 10.88797
426.3753, 16.35910
426.8574, 22.19971
427.3395, 28.75769
427.8216, 36.58582
428.3037, 44.31616
428.7859, 51.44366
429.2680, 57.85309
429.7501, 64.51422
430.2322, 71.75818
430.7143, 78.75925
431.1964, 84.37021
431.6786, 88.31039
432.1607, 92.37708
432.6428, 97.09106
433.1249, 102.0759
433.6070, 105.8913
434.0891, 108.4319
434.5713, 111.0689
435.0534, 114.8079
435.5355, 119.4302
436.0176, 123.7891
436.4997, 127.6267
436.9818, 131.9454
437.4640, 137.9326
437.9461, 145.4441
438.4282, 154.0274
438.9103, 163.7696
439.3924, 174.3131
439.8745, 185.2676
440.3567, 196.5646
440.8388, 208.4004
441.3209, 221.5813
441.8030, 235.0195
442.2851, 247.8046
442.7672, 260.2660
443.2494, 270.8680
443.7315, 279.4422
444.2136, 285.4848
444.6957, 287.9054
445.1778, 286.4378
445.6599, 281.2793
446.1421, 272.1351
446.6242, 258.8061
447.1063, 243.2927
447.5884, 224.0318
448.0705, 203.6314
448.5526, 184.1917
449.0348, 165.1441
449.5169, 147.6724
449.9990, 131.6176
450.4811, 117.0509
450.9632, 104.5019
451.4453, 94.15140
451.9275, 85.30435
452.4096, 77.76779
452.8917, 71.72571
453.3738, 66.30301
453.8559, 61.44019
454.3380, 57.54190
454.8202, 55.26242
455.3023, 54.63083
455.7844, 54.44592
456.2665, 54.31247
456.7486, 54.65601
457.2307, 56.43912
457.7129, 59.58704
458.1950, 63.47510
458.6771, 67.65384
459.1592, 72.29691
459.6413, 77.72217
460.1234, 83.97659
460.6056, 90.81644
461.0877, 98.23169
461.5698, 106.1014
462.0519, 114.2444
462.5340, 123.2101
463.0161, 131.9836
463.4983, 140.2776
463.9804, 147.9286
464.4625, 154.2956
464.9446, 160.3563
465.4267, 164.3842
465.9088, 165.3727
466.3910, 163.0530
466.8731, 158.1089
467.3552, 149.4508
467.8373, 138.6717
468.3194, 127.7666
468.8015, 116.7014
469.2837, 105.6384
469.7658, 94.06866
470.2479, 82.15341
470.7300, 72.61276
471.2121, 66.12582
471.6942, 60.94199
472.1764, 56.00064
472.6585, 51.14404
473.1406, 47.68799
473.6227, 45.80975
474.1048, 45.05261
474.5869, 44.90186
475.0691, 45.36069
475.5512, 46.35657
476.0333, 47.95877
476.5154, 50.05399
476.9975, 52.41171
477.4796, 55.05133
477.9618, 58.00504
478.4439, 61.39032
478.9260, 65.09009
479.4081, 68.86145
479.8902, 72.64700
480.3723, 76.73132
480.8545, 81.44049
481.3366, 86.67624
481.8187, 92.23172
482.3008, 97.79520
482.7829, 103.8472
483.2650, 110.3918
483.7472, 117.5205
484.2293, 125.6468
484.7114, 135.6247
485.1935, 146.2527
485.6756, 156.6469
486.1577, 166.1899
486.6399, 176.6475
487.1220, 189.2363
487.6041, 202.5412
488.0862, 214.3829
488.5683, 224.1948
489.0504, 233.8363
489.5326, 243.9526
490.0147, 254.2942
490.4968, 262.7507
490.9789, 269.3642
491.4610, 273.8430
491.9431, 276.1593
492.4253, 276.2903
492.9074, 273.3490
493.3895, 267.1794
493.8716, 258.2562
494.3537, 246.4226
494.8358, 232.0625
495.3180, 216.7037
495.8001, 200.6676
496.2822, 184.3141
496.7643, 167.8740
497.2464, 151.3513
497.7285, 135.7579
498.2107, 121.1402
498.6928, 107.9318
499.1749, 96.42581
499.6570, 86.83885
500.1391, 78.49001
500.6212, 71.27100
501.1034, 64.98178
501.5855, 59.31044
502.0676, 54.46194
502.5497, 50.01930
503.0318, 45.91902
503.5139, 42.12738
503.9961, 38.49400
504.4782, 34.67468
504.9603, 31.24042
505.4424, 28.53564
505.9245, 26.82829
506.4066, 24.61905
506.8888, 21.70273
507.3709, 18.55946
507.8530, 15.57663
508.3351, 12.77487
508.8172, 10.33609
509.2993, 8.322784
509.7815, 6.654312
510.2636, 5.212463
510.7457, 3.978561
511.2278, 2.789963
511.7099, 1.427032
512.1920, 5.7526000E-02
512.6741, 0.8919220
513.1563, 1.405807
513.6384, 1.821045
514.1205, 2.543350
514.6026, 3.314636
515.0847, 3.745102
515.5668, 3.626053
516.0490, 3.325897
516.5311, 2.972809
517.0132, 2.604309
517.4953, 2.298218
517.9774, 2.093369
518.4595, 1.941910
518.9417, 1.795212
519.4238, 1.646240
519.9059, 1.650330
520.3880, 2.292984
520.8701, 2.734756
521.3522, 2.487869
521.8344, 1.123901
522.3165, 4.2557001E-02
522.7986, 0.9213260
523.2807, 1.671600
523.7628, 2.556305
524.2449, 3.614563
524.7271, 4.624435
525.2092, 5.513199
525.6913, 6.308975
526.1734, 7.117111
526.6555, 7.938492
527.1376, 8.786057
527.6198, 9.660248
528.1019, 10.56339
528.5840, 11.70667
529.0661, 13.19855
529.5482, 14.14690
530.0303, 13.39946
530.5125, 11.64406
530.9946, 9.913696
531.4767, 8.641525
531.9588, 7.447433
532.4409, 5.984192
532.9230, 4.431366
533.4052, 3.257034
533.8873, 3.021591
534.3694, 2.847122
534.8515, 2.308380
535.3336, 1.250946
535.8157, 0.5246730
536.2979, 0.2923280
536.7800, 0.2523960
537.2621, 0.2011110
537.7442, 0.1410520
538.2263, 4.3884002E-02
538.7084, 0.1565860
539.1906, 0.3321380
539.6727, 0.1711730
540.1548, 0.3575440
540.6369, 0.8349460
541.1190, 1.149323
541.6011, 1.292343
542.0833, 1.121094
542.5654, 0.6543730
543.0475, 0.2985230
543.5296, 0.4338530
544.0117, 0.8421630
544.4938, 1.184082
544.9760, 1.406357
545.4581, 1.623291
545.9402, 1.845718
546.4223, 2.132233
546.9044, 2.558762
547.3865, 3.532715
547.8687, 4.240082
548.3508, 4.138290
548.8329, 3.515915
549.3150, 3.301315
549.7971, 4.275299
550.2792, 5.035294
550.7614, 4.980057
551.2435, 3.988190
551.7256, 3.762268
552.2077, 4.752426
552.6898, 5.839294
553.1719, 6.046310
553.6541, 5.226883
554.1362, 4.789291
554.6183, 4.928696
555.1004, 5.323502
555.5825, 5.551300
556.0646, 5.604996
556.5468, 5.388580
557.0289, 4.551086
557.5110, 3.689285
557.9931, 3.852264
558.4752, 4.886124
558.9573, 5.980530
559.4395, 6.895950
559.9216, 7.497910
560.4037, 7.499588
560.8858, 6.771759
561.3679, 6.359756
561.8500, 7.049408
562.3322, 8.054291
562.8143, 8.698776
563.2964, 8.374786
563.7785, 8.316040
564.2606, 8.826019
564.7427, 9.583023
565.2249, 9.887741
565.7070, 9.364456
566.1891, 9.195145
566.6712, 9.759628
567.1533, 10.95923
567.6354, 12.26277
568.1176, 13.70134
568.5997, 15.06876
569.0818, 16.15265
569.5639, 17.01260
570.0460, 18.01344
570.5281, 19.19138
571.0103, 20.34489
571.4924, 21.14986
571.9745, 21.76942
572.4566, 22.55986
572.9387, 23.76700
573.4208, 25.01906
573.9030, 26.13713
574.3851, 27.12718
574.8672, 28.00987
575.3493, 28.38168
575.8314, 29.02699
576.3135, 30.33064
576.7957, 32.29692
577.2778, 34.17706
577.7599, 35.78259
578.2420, 37.40968
578.7241, 39.20122
579.2062, 41.22534
579.6884, 43.43405
580.1705, 45.78848
580.6526, 48.38905
581.1347, 51.48886
581.6168, 55.09134
582.0989, 58.58867
582.5811, 61.90111
583.0632, 64.94547
583.5453, 67.74808
584.0274, 70.26755
584.5095, 72.25108
584.9916, 73.78183
585.4738, 74.57977
585.9559, 74.40158
586.4380, 73.24786
586.9201, 71.18205
587.4022, 68.01086
587.8843, 64.06935
588.3665, 59.41624
588.8486, 53.73328
589.3307, 48.36908
589.8128, 43.44893
590.2949, 38.91156
590.7770, 34.77626
591.2592, 31.07872
591.7413, 27.60828
592.2234, 24.29013
592.7055, 21.23003
593.1876, 18.63498
593.6697, 16.50818
594.1519, 14.91307
594.6340, 14.16008
595.1161, 13.83974
595.5982, 12.82732
596.0803, 11.20169
596.5624, 9.729309
597.0446, 9.119217
597.5267, 8.890533
598.0088, 8.454269
598.4909, 7.723450
598.9730, 6.957565
599.4551, 6.110916
599.9373, 5.393204
600.4194, 5.022919
600.9015, 5.440811
601.3836, 5.643417
601.8657, 5.318146
602.3478, 4.727875
602.8300, 4.284821
603.3121, 4.121933
603.7942, 3.857391
604.2763, 3.359741
604.7584, 2.721436
605.2405, 2.266510
605.7227, 1.987427
606.2048, 1.892807
606.6869, 2.123550
607.1690, 2.546341
607.6511, 2.684402
608.1332, 2.530869
608.6154, 2.285416
609.0975, 1.872116
609.5796, 1.558441
610.0617, 1.823380
610.5438, 2.943283
611.0259, 3.883530
611.5081, 3.935699
611.9902, 3.532684
612.4723, 3.193817
612.9544, 3.092346
613.4365, 3.001709
613.9186, 2.794983
614.4008, 2.581207
614.8829, 2.648743
615.3650, 3.166916
615.8471, 3.613831
616.3292, 3.787338
616.8113, 3.748444
617.2935, 3.941086
617.7756, 4.372406
618.2577, 4.973099
618.7398, 5.753922
619.2219, 6.663132
619.7040, 7.623535
620.1862, 8.633987
620.6683, 9.536209
621.1504, 10.05162
621.6325, 10.43156
622.1146, 10.99734
622.5967, 11.82150
623.0789, 12.84668
623.5610, 14.11263
624.0431, 15.54854
624.5252, 17.05249
625.0073, 18.78149
625.4894, 20.37897
625.9716, 21.77548
626.4537, 23.00656
626.9358, 24.16142
627.4179, 25.08289
627.9000, 26.35352
628.3821, 28.29378
628.8643, 30.80038
629.3464, 33.14566
629.8285, 35.31248
630.3106, 37.47273
630.7927, 39.62598
631.2748, 41.88974
631.7570, 44.56934
632.2391, 47.70877
632.7212, 50.87366
633.2033, 53.76553
633.6854, 56.48355
634.1675, 59.08142
634.6497, 61.56972
635.1318, 63.98428
635.6139, 66.49112
636.0960, 68.90486
636.5781, 70.92596
637.0602, 72.89224
637.5424, 73.98660
638.0245, 74.20221
638.5066, 73.44754
638.9887, 71.20314
639.4708, 67.25887
639.9529, 62.94051
640.4351, 58.99341
640.9172, 55.09346
641.3993, 50.05916
641.8814, 43.98938
642.3635, 38.01768
642.8456, 32.79503
643.3278, 28.30309
643.8099, 24.65445
644.2920, 21.92801
644.7741, 19.37852
645.2562, 16.43134
645.7383, 13.68826
646.2205, 11.71590
646.7026, 11.08058
647.1847, 10.36980
647.6668, 9.500168
648.1489, 8.535599
648.6310, 7.503815
649.1132, 6.365646
649.5953, 5.383026
650.0774, 4.637711
650.5595, 4.009079
651.0416, 3.101074
651.5237, 1.962906
652.0059, 1.154633
652.4880, 1.059341
652.9701, 1.332169
653.4522, 1.615509
653.9343, 1.853394
654.4164, 1.770081
654.8986, 0.7333530
655.3807, 0.3104400
655.8628, 0.6086430
656.3449, 5.3284001E-02
656.8270, 0.3799900
657.3091, 0.5101620
657.7913, 0.4284820
658.2734, 0.1250760
658.7555, 0.6130980
659.2376, 0.8848570
659.7197, 0.5627590
660.2018, 2.8530001E-03
660.6840, 0.4654850
661.1661, 0.8248440
661.6482, 1.140671
662.1303, 1.398041
662.6124, 1.675247
663.0945, 2.239197
663.5767, 2.912903
664.0588, 3.230515
664.5409, 2.662766
665.0230, 2.105621
665.5051, 2.253296
665.9872, 2.885605
666.4694, 3.459549
666.9515, 3.835541
667.4336, 4.107147
667.9157, 4.185776
668.3978, 4.134644
668.8799, 4.439575
669.3621, 5.254379
669.8442, 6.136826
670.3263, 6.934998
670.8084, 7.645767
671.2905, 8.097000
671.7726, 8.252594
672.2548, 8.499405
672.7369, 9.351746
673.2190, 10.48831
673.7011, 11.17561
674.1832, 11.29160
674.6653, 11.37099
675.1475, 11.84293
675.6296, 12.46875
676.1117, 12.98598
676.5938, 13.27696
677.0759, 13.54930
677.5580, 14.06947
678.0402, 14.49016
678.5223, 14.34708
679.0044, 13.35226
679.4865, 12.39153
679.9686, 11.57051
680.4507, 10.85814
680.9329, 10.18497
681.4150, 9.558456
681.8971, 8.828918
682.3792, 7.853210
682.8613, 6.829132
683.3434, 6.101700
683.8256, 5.633575
684.3077, 5.204498
684.7898, 4.739548
685.2719, 4.248703
685.7540, 3.759491
686.2361, 3.269043
686.7183, 2.711029
687.2004, 2.019608
687.6825, 1.300339
688.1646, 0.5579830
688.6467, 0.2455750
689.1288, 0.7691960
689.6110, 0.9543760
690.0931, 0.9864040
690.5752, 0.9953610
691.0573, 0.9732210
691.5394, 0.8730320
692.0215, 0.6972960
692.5037, 0.4144900
692.9858, 0.1445310
693.4679, 0.7990110
693.9500, 1.258240
694.4321, 1.490845
694.9142, 1.425873
695.3964, 0.7153020
695.8785, 0.2061920
696.3606, 0.7764130
696.8427, 0.5578000
697.3248, 0.3914340
697.8069, 0.3955990
698.2891, 0.4828490
698.7712, 0.4511110
699.2533, 0.2289730
699.7354, 0.1916050
700.2175, 0.5117030
700.6996, 0.9942780
701.1818, 1.123932
701.6639, 0.9461060
702.1460, 0.7853700
702.6281, 0.9182590
703.1102, 1.080795
703.5923, 0.9364170
704.0745, 0.5453490
704.5566, 0.2085720
705.0387, 6.0593002E-02
705.5208, 5.1270002E-03
706.0029, 3.6240000E-02
706.4850, 0.1673580
706.9672, 0.2047580
707.4493, 0.1615300
707.9314, 1.1841000E-02
708.4135, 0.3095090
708.8956, 0.8206020
709.3777, 1.090073
709.8599, 1.076889
710.3420, 1.081970
710.8241, 1.452454
711.3062, 2.041153
711.7883, 2.531479
712.2704, 2.896744
712.7525, 3.097427
713.2346, 2.824570
713.7167, 2.505142
714.1989, 2.627060
714.6810, 3.574188
715.1631, 4.425232
715.6452, 4.938889
716.1273, 5.324020
716.6094, 5.844025
717.0916, 6.689407
717.5737, 7.041275
718.0558, 6.563675
718.5379, 5.902939
719.0200, 6.354141
719.5021, 7.760910
719.9843, 9.046799
720.4664, 9.882019
720.9485, 10.41043
721.4306, 10.55539
721.9127, 10.52084
722.3948, 10.78012
722.8770, 11.65877
723.3591, 12.73834
723.8412, 14.00008
724.3233, 15.35518
724.8054, 16.39635
725.2875, 16.90292
725.7697, 17.44350
726.2518, 18.28114
726.7339, 19.27797
727.2160, 19.71431
727.6981, 19.55824
728.1802, 19.21584
728.6624, 18.98474
729.1445, 18.70161
729.6266, 17.96265
730.1087, 16.80968
730.5908, 15.54703
731.0729, 14.23625
731.5551, 12.96910
732.0372, 11.82730
732.5193, 10.82727
733.0014, 9.828476
733.4835, 8.731888
733.9656, 7.687347
734.4478, 6.756149
734.9299, 5.918747
735.4120, 5.288193
735.8941, 4.868500
736.3762, 4.646133
736.8583, 4.737640
737.3405, 5.030701
737.8226, 5.061005
738.3047, 4.767639
738.7868, 4.426468
739.2689, 4.167328
739.7510, 4.031982
740.2332, 4.102982
740.7153, 4.500549
741.1974, 4.819458
741.6795, 5.057541
742.1616, 5.085175
742.6437, 4.732483
743.1259, 3.680420
743.6080, 3.109665
744.0901, 3.191910
744.5722, 3.562469
745.0543, 3.835159
745.5364, 3.989212
746.0186, 3.717987
746.5007, 2.762100
746.9828, 1.899429
747.4649, 2.389618
747.9470, 3.550751
748.4291, 4.169418
748.9113, 3.193115
749.3934, 2.360168
749.8755, 2.378845
750.3576, 2.929993
750.8397, 3.398666
751.3218, 3.733490
751.8040, 4.007782
752.2861, 4.225113
752.7682, 4.396027
753.2503, 4.474777
753.7324, 4.461624
754.2145, 4.707504
754.6967, 5.610641
755.1788, 6.568771
755.6609, 6.464172
756.1430, 5.668518
756.6251, 5.224136
757.1072, 5.826630
757.5894, 6.657715
758.0715, 7.511383
758.5536, 8.315231
759.0357, 8.791306
759.5178, 8.464920
759.9999, 8.628845
760.4821, 9.881485
760.9642, 11.87770
761.4463, 12.83868
761.9284, 12.73544
762.4105, 12.85910
762.8926, 14.13417
763.3748, 15.93680
763.8569, 17.23326
764.3390, 18.08319
764.8211, 18.80312
765.3032, 19.37750
765.7853, 20.06219
766.2675, 21.02849
766.7496, 22.27420
767.2317, 23.59203
767.7138, 25.08669
768.1959, 26.48927
768.6780, 27.57422
769.1602, 28.40805
769.6423, 29.75082
770.1244, 31.61745
770.6065, 33.68338
771.0886, 35.71422
771.5707, 37.77962
772.0529, 40.10164
772.5350, 42.67213
773.0171, 45.10651
773.4992, 47.16673
773.9813, 49.01630
774.4634, 50.80000
774.9456, 52.55515
775.4277, 53.94424
775.9098, 55.27985
776.3919, 55.79468
776.8740, 54.94351
777.3561, 52.72472
777.8383, 50.45724
778.3204, 48.14279
778.8025, 45.68907
779.2846, 42.97125
779.7667, 40.07213
780.2488, 37.10260
780.7310, 34.06865
781.2131, 31.27052
781.6952, 28.79837
782.1773, 26.60553
782.6594, 24.68457
783.1415, 22.98077
783.6237, 21.79457
784.1058, 21.34355
784.5879, 20.99652
785.0700, 20.28072
785.5521, 19.19357
786.0342, 18.41475
786.5164, 17.96355
786.9985, 17.70082
787.4806, 17.57506
787.9627, 17.51114
788.4448, 17.45242
788.9269, 17.41043
789.4091, 17.03920
789.8912, 15.80605
790.3733, 14.45653
790.8554, 13.59868
791.3375, 13.37451
791.8196, 13.35867
792.3018, 13.63788
792.7839, 13.92953
793.2660, 13.97968
793.7481, 13.79533
794.2302, 13.51407
794.7123, 13.13942
795.1945, 12.75354
795.6766, 12.36510
796.1587, 12.03748
796.6408, 11.86855
797.1229, 11.90662
797.6050, 11.98331
798.0872, 12.04097
798.5693, 12.12231
799.0514, 12.31398
799.5335, 12.82109
800.0156, 12.70250
800.4977, 11.72867
800.9799, 10.69789
801.4620, 10.49820
801.9441, 10.94698
802.4262, 11.18413
802.9083, 11.12039
803.3904, 10.91925
803.8726, 10.72345
804.3547, 10.45108
804.8368, 9.946869
805.3189, 9.058334
805.8010, 8.480576
806.2831, 8.551483
806.7653, 8.835892
807.2474, 9.087952
807.7295, 9.349243
808.2116, 9.451309
808.6937, 9.396271
809.1758, 9.166458
809.6580, 8.674118
810.1401, 8.003891
810.6222, 7.351288
811.1043, 6.733780
811.5864, 6.187912
812.0685, 5.731186
812.5507, 5.367462
813.0328, 5.067322
813.5149, 4.742615
813.9970, 4.779587
814.4791, 5.461731
814.9612, 6.164261
815.4434, 6.413345
815.9255, 6.187576
816.4076, 5.983994
816.8897, 5.815674
817.3718, 5.644623
817.8539, 5.436584
818.3361, 5.203186
818.8182, 4.957764
819.3003, 4.701935
819.7824, 4.451843
820.2645, 4.087585
820.7466, 3.828995
821.2288, 3.880722
821.7109, 4.328339
822.1930, 4.620285
822.6751, 4.695709
823.1572, 4.781967
823.6393, 5.155655
824.1215, 5.711258
824.6036, 5.862152
825.0857, 5.585403
825.5678, 5.065903
826.0499, 4.220215
826.5320, 3.350418
827.0142, 2.707550
827.4963, 2.320557
827.9784, 2.168030
828.4605, 2.597565
828.9426, 2.921371
829.4247, 2.792313
829.9069, 2.199997
830.3890, 1.673248
830.8711, 1.213730
831.3532, 0.8202210
831.8353, 0.4640960
832.3174, 0.1865230
832.7996, 0.1608120
833.2817, 0.3523250
833.7638, 0.4015960
834.2459, 4.3442000E-02
834.7280, 0.5568540
835.2101, 0.9165650
835.6923, 1.099045
836.1744, 1.161133
836.6565, 0.9340820
837.1386, 0.9314120
837.6207, 1.530777
838.1028, 2.523392
838.5850, 2.802643
839.0671, 2.431839
839.5492, 2.212250
840.0313, 2.941925
840.5134, 3.817581
840.9955, 3.962631
841.4777, 3.525208
841.9598, 3.282883
842.4419, 3.644409
842.9240, 4.045731
843.4061, 4.326965
843.8882, 4.515686
844.3704, 4.781509
844.8525, 5.163177
845.3346, 5.309814
845.8167, 5.057846
846.2988, 4.519501
846.7809, 3.644653
847.2631, 2.627090
847.7452, 2.045532
848.2273, 2.450226
848.7094, 3.051941
849.1915, 3.701904
849.6736, 4.264145
850.1558, 4.402527
850.6379, 3.961182
851.1200, 3.431702
851.6021, 2.886383
852.0842, 2.323532
852.5663, 1.763336
853.0485, 1.203323
853.5306, 0.6116640
854.0127, 9.3080001E-03
854.4948, 0.6838990
854.9769, 1.537796
855.4590, 2.513794
855.9412, 3.555038
856.4233, 4.808151
856.9054, 5.855652
857.3875, 6.504852
857.8696, 7.095825
858.3517, 8.168701
858.8339, 9.763031
859.3160, 10.87692
859.7981, 11.26634
860.2802, 11.59416
860.7623, 12.71271
861.2444, 14.25150
861.7266, 15.77405
862.2087, 17.36847
862.6908, 18.27380
863.1729, 17.62770
863.6550, 16.53970
864.1371, 15.96408
864.6193, 16.10342
865.1014, 16.07228
865.5835, 15.89558
866.0656, 15.46291
866.5477, 14.57657
867.0298, 13.36528
867.5120, 12.15033
867.9941, 10.96150
868.4762, 9.706467
868.9583, 8.216934
869.4404, 6.715424
869.9225, 5.262939
870.4047, 3.837692
870.8868, 2.961578
871.3689, 2.877457
871.8510, 2.883514
872.3331, 2.587662
872.8152, 2.077179
873.2974, 1.676849
873.7795, 1.414368
874.2616, 1.695007
874.7437, 3.106934
875.2258, 4.900833
875.7079, 6.465378
876.1901, 7.852722
876.6722, 9.496796
877.1543, 11.50327
877.6364, 13.79108
878.1185, 16.37593
878.6006, 19.22574
879.0828, 22.07217
879.5649, 24.90207
880.0470, 28.17790
880.5291, 32.26413
881.0112, 36.58743
881.4933, 40.21509
881.9755, 43.56210
882.4576, 47.49347
882.9397, 52.55820
883.4218, 57.87128
883.9039, 63.16092
884.3860, 68.60858
884.8682, 74.54276
885.3503, 81.06360
885.8324, 87.70438
886.3145, 94.52103
886.7966, 101.2828
887.2787, 107.2363
887.7609, 112.9323
888.2430, 119.6129
888.7251, 128.0730
889.2072, 135.6937
889.6893, 141.6189
890.1714, 146.0696
890.6536, 149.3192
891.1357, 151.5842
891.6178, 152.0954
892.0999, 150.7688
892.5820, 147.8767
893.0641, 143.6188
893.5463, 138.0281
894.0284, 130.7776
894.5105, 122.0559
894.9926, 113.1799
895.4747, 104.3811
895.9568, 96.11389
896.4390, 88.58157
896.9211, 81.91888
897.4032, 76.18051
897.8853, 71.46027
898.3674, 67.18451
898.8495, 63.05392
899.3317, 59.26355
899.8138, 56.09698
900.2959, 53.55728
900.7780, 51.72275
901.2601, 50.68622
901.7422, 50.37170
902.2244, 51.12476
902.7065, 52.53595
903.1886, 53.51221
903.6707, 53.26114
904.1528, 53.98819
904.6349, 56.14493
905.1171, 59.26917
905.5992, 62.53448
906.0813, 65.94263
906.5634, 69.99838
907.0455, 74.84259
907.5276, 80.42493
908.0098, 86.98044
908.4919, 94.19815
908.9740, 101.6286
909.4561, 108.9658
909.9382, 116.8146
910.4203, 124.9570
910.9025, 133.9087
911.3846, 144.1426
911.8667, 155.5721
912.3488, 167.0808
912.8309, 178.6751
913.3130, 191.3333
913.7952, 206.4980
914.2773, 222.9201
914.7594, 239.6507
915.2415, 256.6099
915.7236, 273.9087
916.2057, 292.7730
916.6879, 310.3874
917.1700, 325.9106
917.6521, 339.2515
918.1342, 349.9246
918.6163, 357.8733
919.0984, 362.5555
919.5806, 363.9965
920.0627, 361.7273
920.5448, 354.7827
921.0269, 343.8643
921.5090, 330.2931
921.9911, 313.2192
922.4733, 295.0518
922.9554, 275.2445
923.4375, 255.3490
923.9196, 237.6713
924.4017, 222.0362
924.8839, 207.5430
925.3660, 193.7861
925.8481, 181.5666
926.3302, 171.5542
926.8123, 163.5821
927.2944, 157.4212
927.7766, 153.1800
928.2587, 150.2401
928.7408, 148.5945
929.2229, 147.9442
929.7050, 148.0612
930.1871, 148.9678
930.6693, 151.2034
931.1514, 154.7771
931.6335, 159.3857
932.1156, 164.9333
932.5977, 171.3175
933.0798, 178.7358
933.5620, 186.9873
934.0441, 195.4154
934.5262, 202.9183
935.0083, 211.9576
935.4904, 223.3869
935.9725, 236.4748
936.4547, 250.4723
936.9368, 265.2002
937.4189, 279.4107
937.9010, 292.8557
938.3831, 305.6964
938.8652, 318.8187
939.3474, 331.3791
939.8295, 342.1900
940.3116, 351.9367
940.7937, 358.4184
941.2758, 361.5410
941.7579, 361.6080
942.2401, 358.8477
942.7222, 353.2820
943.2043, 344.3303
943.6864, 332.0652
944.1685, 318.2091
944.6506, 303.0318
945.1328, 287.6030
945.6149, 273.0682
946.0970, 259.4704
946.5791, 245.4144
947.0612, 229.6235
947.5433, 215.5708
948.0255, 204.6234
948.5076, 196.0805
948.9897, 188.1617
949.4718, 180.8209
949.9539, 173.8229
950.4360, 167.0242
950.9182, 160.6036
951.4003, 154.9054
951.8824, 149.5256
952.3645, 143.8412
952.8466, 137.9113
953.3287, 131.3943
953.8109, 124.0708
954.2930, 116.5815
954.7751, 109.9236
955.2572, 103.7495
955.7393, 96.88931
956.2214, 89.20847
956.7036, 81.66599
957.1857, 74.36230
957.6677, 67.85986
958.1498, 62.68677
958.6320, 58.91501
959.1141, 55.32303
959.5962, 51.79959
960.0783, 48.83109
960.5604, 46.63062
961.0425, 45.11816
961.5247, 44.29703
962.0068, 44.02856
962.4889, 43.76428
962.9710, 42.64462
963.4531, 42.07849
963.9352, 42.80090
964.4174, 44.45737
964.8995, 46.41861
965.3816, 48.58325
965.8637, 51.28815
966.3458, 54.57541
966.8279, 58.42419
967.3101, 62.70883
967.7922, 67.56003
968.2743, 73.12891
968.7564, 79.46347
969.2385, 86.15854
969.7206, 93.27249
970.2028, 100.6790
970.6849, 108.2640
971.1670, 115.9152
971.6491, 123.7543
972.1312, 131.7433
972.6133, 140.2454
973.0955, 149.4038
973.5776, 159.0642
974.0597, 169.1906
974.5418, 179.6175
975.0239, 190.1873
975.5060, 200.0953
975.9882, 211.1100
976.4703, 223.5602
976.9524, 236.8907
977.4345, 250.2887
977.9166, 263.9151
978.3987, 277.7489
978.8809, 291.7539
979.3630, 305.9401
979.8451, 320.8669
980.3272, 335.4552
980.8093, 348.8307
981.2914, 360.8928
981.7736, 371.4693
982.2557, 381.5304
982.7378, 387.8606
983.2199, 389.0363
983.7020, 385.6433
984.1841, 378.9558
984.6663, 369.0810
985.1484, 356.2153
985.6305, 339.1829
986.1126, 320.6191
986.5947, 301.3187
987.0768, 281.3821
987.5590, 260.6972
988.0411, 238.3350
988.5232, 218.4829
989.0053, 201.3914
989.4874, 186.1925
989.9695, 171.8752
990.4517, 158.9672
990.9338, 148.2559
991.4159, 139.7753
991.8980, 132.4525
992.3801, 126.3546
992.8622, 120.9823
993.3444, 116.0128
993.8265, 111.5893
994.3086, 108.5241
994.7907, 106.7900
995.2728, 105.7756
995.7549, 105.4667
996.2371, 105.4214
996.7192, 105.3512
997.2013, 105.1895
997.6834, 104.8397
998.1655, 104.2896
998.6476, 103.5801
999.1298, 103.0210
999.6119, 101.7609
1000.094, 99.17206
1000.576, 95.25470
1001.058, 89.84082
1001.540, 83.01813
1002.022, 76.12830
1002.505, 69.99878
1002.987, 64.14957
1003.469, 58.61707
1003.951, 53.20502
1004.433, 47.41290
1004.915, 40.95013
1005.397, 35.03870
1005.879, 29.83881
1006.362, 25.47339
1006.844, 22.32840
1007.326, 20.02869
1007.808, 17.76082
1008.290, 15.37155
1008.772, 12.99239
1009.254, 10.46616
1009.736, 8.201309
1010.218, 6.519119
1010.701, 5.412033
1011.183, 3.869293
1011.665, 1.885391
1012.147, 0.3046420
1012.629, 0.1489410
1013.111, 0.1417690
1013.593, 4.5775998E-02
1014.075, 3.1342000E-02
1014.557, 0.1937870
1015.040, 0.9706880
1015.522, 1.659515
1016.004, 2.177200
1016.486, 2.606354
1016.968, 3.045273
1017.450, 3.492188
1017.932, 3.897141
1018.414, 4.238693
1018.897, 4.656952
1019.379, 5.562653
1019.861, 6.241333
1020.343, 6.054581
1020.825, 5.140854
1021.307, 5.074768
1021.789, 5.972687
1022.271, 6.594513
1022.753, 6.326172
1023.236, 5.698532
1023.718, 5.301712
1024.200, 5.070190
1024.682, 4.892883
1025.164, 4.920227
1025.646, 4.643723
1026.128, 3.715607
1026.610, 2.926804
1027.093, 3.337006
1027.575, 4.649277
1028.057, 4.704071
1028.539, 3.481461
1029.021, 2.125214
1029.503, 1.347916
1029.985, 0.7429960
1030.467, 0.1369630
1030.949, 0.5186770
1031.432, 1.351273
1031.914, 2.470016
1032.396, 3.286774
1032.878, 3.582230
1033.360, 3.707870
1033.842, 4.164978
1034.324, 4.802307
1034.806, 5.343643
1035.289, 5.690994
1035.771, 6.204178
1036.253, 7.145477
1036.735, 8.071045
1037.217, 8.705490
1037.699, 9.136444
1038.181, 10.05838
1038.663, 11.38333
1039.146, 12.35027
1039.628, 12.26045
1040.110, 12.07303
1040.592, 12.47995
1041.074, 13.16556
1041.556, 13.61584
1042.038, 13.74098
1042.520, 13.84918
1043.002, 13.95143
1043.484, 14.10730
1043.967, 14.41219
1044.449, 14.75192
1044.931, 14.97710
1045.413, 15.08691
1045.895, 15.07988
1046.377, 14.58899
1046.859, 14.45601
1047.341, 15.14568
1047.824, 16.15659
1048.306, 16.02786
1048.788, 14.97510
1049.270, 14.60165
1049.752, 15.49202
1050.234, 16.35759
1050.716, 16.09175
1051.198, 15.41801
1051.681, 15.02158
1052.163, 14.99017
1052.645, 14.80670
1053.127, 14.47424
1053.609, 13.97499
1054.091, 13.14632
1054.573, 12.26334
1055.055, 11.75505
1055.537, 11.55858
1056.020, 11.51372
1056.502, 11.93190
1056.984, 11.94501
1057.466, 11.21674
1057.948, 10.41158
1058.430, 10.30832
1058.912, 10.77202
1059.394, 10.96208
1059.876, 10.84509
1060.359, 10.73521
1060.841, 10.86304
1061.323, 11.02701
1061.805, 11.02309
1062.287, 10.96115
1062.769, 11.33647
1063.251, 12.29816
1063.733, 12.66994
1064.216, 12.05450
1064.698, 11.21002
1065.180, 10.94115
1065.662, 11.05664
1066.144, 11.43245
1066.626, 12.16733
1067.108, 12.28616
1067.590, 11.29382
1068.073, 10.52203
1068.555, 10.72624
1069.037, 11.50038
1069.519, 11.65205
1070.001, 11.33548
1070.483, 11.08235
1070.965, 11.13567
1071.447, 11.24902
1071.929, 11.35930
1072.411, 11.45854
1072.894, 11.56679
1073.376, 11.70479
1073.858, 11.44487
1074.340, 10.78584
1074.822, 10.20232
1075.304, 10.32735
1075.786, 10.43723
1076.268, 9.772324
1076.751, 8.563400
1077.233, 7.650681
1077.715, 7.182098
1078.197, 6.813751
1078.679, 6.544037
1079.161, 6.306885
1079.643, 5.994675
1080.125, 5.676819
1080.608, 5.579559
1081.090, 5.744476
1081.572, 5.660660
1082.054, 5.006668
1082.536, 4.229355
1083.018, 3.402847
1083.500, 2.592148
1083.982, 1.861954
1084.464, 1.265320
1084.947, 1.094208
1085.429, 1.594162
1085.911, 1.965347
1086.393, 1.531815
1086.875, 1.000885
1087.357, 1.070267
1087.839, 1.806641
1088.321, 1.558838
1088.803, 0.2588350
1089.286, 0.8175510
1089.768, 0.9209590
1090.250, 0.5662080
1090.732, 8.0154002E-02
1091.214, 0.4462130
1091.696, 0.8393100
1092.178, 1.061157
1092.660, 1.165375
1093.142, 1.134399
1093.625, 1.040909
1094.107, 0.8921360
1094.589, 0.7514040
1095.071, 0.7685850
1095.553, 0.9260860
1096.035, 1.087112
1096.517, 1.349487
1096.999, 1.375092
1097.482, 0.9334110
1097.964, 0.4051670
1098.446, 0.4581300
1098.928, 1.001236
1099.410, 1.681381
1099.892, 2.465652
1100.374, 2.897644
1100.856, 2.192322
1101.339, 1.508102
1101.821, 1.742722
1102.303, 2.636765
1102.785, 2.874847
1103.267, 2.435806
1103.749, 2.057800
1104.231, 1.976227
1104.713, 2.020340
1105.195, 1.992706
1105.677, 2.011108
1106.160, 2.273499
1106.642, 2.923431
1107.124, 3.107956
1107.606, 2.671066
1108.088, 2.379272
1108.570, 2.738068
1109.052, 3.371658
1109.534, 3.778992
1110.017, 3.944138
1110.499, 3.833282
1110.981, 3.051865
1111.463, 2.617584
1111.945, 2.652145
1112.427, 2.934097
1112.909, 3.396408
1113.391, 3.948730
1113.874, 4.303482
1114.356, 4.453140
1114.838, 4.399399
1115.320, 3.925156
1115.802, 3.517502
1116.284, 3.368683
1116.766, 3.344635
1117.248, 3.227921
1117.730, 3.036713
1118.213, 3.084488
1118.695, 3.400726
1119.177, 3.755402
1119.659, 4.309113
1120.141, 4.535477
1120.623, 3.593246
1121.105, 2.023026
1121.587, 1.919800
1122.069, 3.482651
1122.552, 4.484039
1123.034, 4.392456
1123.516, 3.958099
1123.998, 3.707642
1124.480, 3.694443
1124.962, 4.099869
1125.444, 4.996735
1125.926, 5.456223
1126.409, 5.382095
1126.891, 5.183105
1127.373, 4.969986
1127.855, 4.774582
1128.337, 4.650970
1128.819, 4.579025
1129.301, 4.525085
1129.783, 4.484238
1130.266, 4.449799
1130.748, 4.349701
1131.230, 4.400528
1131.712, 4.868149
1132.194, 5.497040
1132.676, 5.412003
1133.158, 4.853043
1133.640, 4.520493
1134.122, 4.873276
1134.604, 5.181259
1135.087, 5.275467
1135.569, 5.278625
1136.051, 5.289215
1136.533, 5.294342
1137.015, 5.118561
1137.497, 4.808609
1137.979, 4.699127
1138.461, 5.176270
1138.944, 5.674179
1139.426, 5.992432
1139.908, 6.131454
1140.390, 6.012451
1140.872, 5.622208
1141.354, 5.554276
1141.836, 5.861664
1142.318, 6.033127
1142.801, 5.339096
1143.283, 4.762146
1143.765, 5.239304
1144.247, 6.310654
1144.729, 6.590790
1145.211, 5.983658
1145.693, 5.573532
1146.175, 5.502991
1146.657, 5.522873
1147.140, 5.286346
1147.622, 5.181137
1148.104, 5.735016
1148.586, 6.895630
1149.068, 7.517487
1149.550, 7.430176
1150.032, 7.429428
1150.514, 7.753647
1150.996, 8.067673
1151.479, 7.958008
1151.961, 7.607681
1152.443, 7.169128
1152.925, 6.613525
1153.407, 6.525024
1153.889, 7.145264
1154.371, 7.714569
1154.853, 7.975388
1155.336, 7.961853
1155.818, 7.520935
1156.300, 6.943253
1156.782, 6.831390
1157.264, 7.618164
1157.746, 7.848709
1158.228, 6.973907
1158.710, 6.266068
1159.193, 6.538086
1159.675, 7.386520
1160.157, 7.709137
1160.639, 7.682495
1161.121, 7.830566
1161.603, 8.620773
1162.085, 9.044434
1162.567, 8.737549
1163.049, 8.280289
1163.531, 7.990662
1164.014, 7.860565
1164.496, 8.015839
1164.978, 8.393936
1165.460, 8.745087
1165.942, 8.997101
1166.424, 9.162994
1166.906, 9.309998
1167.388, 9.320221
1167.871, 8.991760
1168.353, 8.378830
1168.835, 8.055771
1169.317, 7.995651
1169.799, 7.803879
1170.281, 6.959152
1170.763, 6.281036
1171.245, 6.345367
1171.728, 6.632782
1172.210, 6.450790
1172.692, 5.830353
1173.174, 5.452530
1173.656, 5.366196
1174.138, 5.350784
1174.620, 5.431427
1175.102, 5.365250
1175.584, 4.881302
1176.067, 4.208145
1176.549, 3.726242
1177.031, 3.439850
1177.513, 3.280334
1177.995, 3.241364
1178.477, 3.239288
1178.959, 3.341110
1179.441, 3.344986
1179.923, 2.964432
1180.406, 2.387390
1180.888, 2.291458
1181.370, 2.710052
1181.852, 2.731964
1182.334, 2.137939
1182.816, 1.544006
1183.298, 1.509888
1183.780, 1.683868
1184.263, 1.804138
1184.745, 1.865967
1185.227, 1.976730
1185.709, 2.149612
1186.191, 2.188934
1186.673, 2.037582
1187.155, 1.782852
1187.637, 1.295609
1188.120, 0.8999020
1188.602, 1.078934
1189.084, 1.792755
1189.566, 1.929749
1190.048, 1.428833
1190.530, 0.9235530
1191.012, 0.5613250
1191.494, 0.4154510
1191.976, 0.8191530
1192.458, 1.322998
1192.941, 1.330933
1193.423, 0.7498320
1193.905, 0.6696780
1194.387, 1.177338
1194.869, 1.512878
1195.351, 1.305130
1195.833, 0.9255830
1196.315, 0.8338930
1196.798, 0.7961270
1197.280, 0.3993990
1197.762, 0.5367580
1198.244, 0.5809480
1198.726, 0.4375000
1199.208, 1.179718
1199.690, 0.8554230
1200.172, 0.1840520
1200.655, 0.2005770
1201.137, 0.3198240
1201.619, 0.1251070
1202.101, 0.5222930
1202.583, 0.8196410
1203.065, 0.7312620
1203.547, 0.5419620
1204.029, 0.4217830
1204.511, 0.2658390
1204.994, 0.2184910
1205.476, 0.7602840
1205.958, 0.8471830
1206.440, 0.1895450
1206.922, 2.5908999E-02
1207.404, 0.4484100
1207.886, 0.7085270
1208.368, 8.7590003E-03
1208.850, 0.8247680
1209.333, 0.4521180
1209.815, 0.4602970
1210.297, 0.6455840
1210.779, 0.3889010
1211.261, 0.9060670
1211.743, 0.8697660
1212.225, 0.5731810
1212.707, 2.3972001E-02
1213.190, 0.5613710
1213.672, 0.5663760
1214.154, 0.2458800
1214.636, 5.2825999E-02
1215.118, 0.1279910
1215.600, 6.6559002E-02
1216.082, 0.5727230
1216.564, 1.111450
1217.047, 1.530426
1217.529, 1.815414
1218.011, 2.074646
1218.493, 2.161911
1218.975, 1.683762
1219.457, 0.3839110
1219.939, 0.4911500
1220.421, 0.8855590
1220.903, 0.7885440
1221.385, 0.4003750
1221.868, 1.541306
1222.350, 1.344910
1222.832, 0.3417660
1223.314, 8.8211000E-02
1223.796, 0.2125240
1224.278, 0.5046540
1224.760, 0.7379300
1225.242, 1.024384
1225.725, 1.760269
1226.207, 2.310852
1226.689, 1.912918
1227.171, 0.9566040
1227.653, 0.5029600
1228.135, 0.6575470
1228.617, 0.5964050
1229.099, 0.2431790
1229.582, 3.6599999E-04
1230.064, 4.9072001E-02
1230.546, 0.3563230
1231.028, 1.927719
1231.510, 3.961243
1231.992, 4.837204
1232.474, 4.467621
1232.956, 3.802429
1233.438, 2.915970
1233.921, 2.327438
1234.403, 2.654633
1234.885, 3.322586
1235.367, 4.334641
1235.849, 5.244431
1236.331, 5.128204
1236.813, 3.982208
1237.295, 2.810349
1237.777, 1.707306
1238.260, 0.8928070
1238.742, 0.6966090
1239.224, 0.6644290
1239.706, 0.5591890
1240.188, 0.4506680
1240.670, 0.4407810
1241.152, 0.5352630
1241.634, 0.8868710
1242.117, 1.501312
1242.599, 1.902130
1243.081, 1.487305
1243.563, 1.136368
1244.045, 1.276016
1244.527, 1.659775
1245.009, 1.923935
1245.491, 2.072220
1245.974, 2.153137
1246.456, 2.177689
1246.938, 2.148392
1247.420, 1.948273
1247.902, 1.877640
1248.384, 2.113480
1248.866, 2.425934
1249.348, 2.366119
1249.830, 2.084763
1250.313, 2.320694
1250.795, 3.063293
1251.277, 3.314255
1251.759, 1.736359
1252.241, 0.9158330
1252.723, 1.729568
1253.205, 3.010468
1253.687, 3.049957
1254.169, 2.329819
1254.652, 1.754730
1255.134, 1.418869
1255.616, 1.339355
1256.098, 1.918701
1256.580, 2.151810
1257.062, 1.723999
1257.544, 1.189270
1258.026, 1.250015
1258.509, 1.615005
1258.991, 1.643509
1259.473, 1.318329
1259.955, 1.145706
1260.437, 1.257050
1260.919, 1.431091
1261.401, 1.669754
1261.883, 1.798401
1262.365, 1.455170
1262.848, 1.000839
1263.330, 0.9232480
1263.812, 1.274704
1264.294, 1.445038
1264.776, 1.362335
1265.258, 1.326797
1265.740, 1.389114
1266.222, 1.388901
1266.704, 1.007675
1267.187, 0.6382750
1267.669, 0.7315980
1268.151, 1.133804
1268.633, 1.185364
1269.115, 0.8320770
1269.597, 0.7552950
1270.079, 1.042053
1270.561, 1.470032
1271.044, 2.180099
1271.526, 2.657745
1272.008, 2.400055
1272.490, 1.723053
1272.972, 1.013107
1273.454, 0.3112180
1273.936, 0.2528380
1274.418, 0.8789060
1274.901, 1.409058
1275.383, 1.214783
1275.865, 1.020325
1276.347, 1.156891
1276.829, 1.411850
1277.311, 1.532074
1277.793, 1.504028
1278.275, 1.159454
1278.757, 0.5408630
1279.240, 0.1153410
1279.722, 0.1515350
1280.204, 0.3665160
1280.686, 0.7914730
1281.168, 1.186295
1281.650, 1.142120
1282.132, 0.8996430
1282.614, 1.092209
1283.096, 1.625458
1283.579, 1.807281
1284.061, 1.141586
1284.543, 0.7306370
1285.025, 0.7087250
1285.507, 0.8489530
1285.989, 1.030762
1286.471, 1.170120
1286.953, 1.087387
1287.436, 0.8707280
1287.918, 0.8562620
1288.400, 1.191910
1288.882, 1.231400
1289.364, 0.9134370
1289.846, 0.4873500
1290.328, 0.2003480
1290.810, 0.5573430
1291.292, 0.3132020
1291.775, 1.711273
1292.257, 2.207062
1292.739, 1.714981
1293.221, 1.521240
1293.703, 1.658325
1294.185, 1.713135
1294.667, 1.334152
1295.149, 0.9130250
1295.631, 0.4128110
1296.114, 0.1610870
1296.596, 0.7725070
1297.078, 2.034210
1297.560, 2.213791
1298.042, 1.379410
1298.524, 0.4640200
1299.006, 0.5573580
1299.488, 0.6831360
1299.971, 0.7044680
1300.453, 0.6692810
1300.935, 0.5274350
1301.417, 0.4898220
1301.899, 0.8185580
1302.381, 1.317444
1302.863, 1.424500
1303.345, 0.3352970
1303.828, 5.6300000E-03
1304.310, 0.6807250
1304.792, 0.5706180
1305.274, 0.0000000E+00
##END=



