##NAMES=Albite
##RRUFFID=R100169
##IDEAL CHEMISTRY=NaAlSi_3_O_8_
##LOCALITY=Rutherford#2 Mine, Amelia, Amelia county, Virginia, USA
##OWNER=RRUFF
##SOURCE=Mineralogical Museum, Harvard University
##DESCRIPTION=White to colorless tabular crystals
##STATUS=The identification of this mineral has been confirmed by single-crystal X-ray diffraction.
##URL=rruff.info/R100169
137.8005, 0.0000000E+00
138.2826, 7.489166
138.7648, 10.34327
139.2469, 3.087227
139.7290, 2.940048
140.2111, 3.698441
140.6932, 0.6107940
141.1753, 9.135406
141.6575, 21.20950
142.1396, 37.60147
142.6217, 55.18787
143.1038, 73.05330
143.5859, 91.27203
144.0681, 110.9254
144.5502, 133.4667
145.0323, 156.1790
145.5144, 176.5580
145.9965, 194.2373
146.4786, 209.6128
146.9608, 221.4493
147.4429, 228.4471
147.9250, 238.3327
148.4071, 250.7369
148.8892, 266.1649
149.3713, 284.9449
149.8535, 306.7064
150.3356, 332.4937
150.8177, 363.0400
151.2998, 400.3173
151.7819, 437.9477
152.2640, 475.1365
152.7462, 512.8781
153.2283, 552.1830
153.7104, 592.9185
154.1925, 635.3911
154.6746, 679.6065
155.1567, 725.2374
155.6389, 772.0636
156.1210, 819.9247
156.6031, 869.1263
157.0852, 920.9185
157.5673, 975.9570
158.0495, 1033.099
158.5316, 1092.917
159.0137, 1160.082
159.4958, 1222.780
159.9779, 1280.240
160.4600, 1331.696
160.9422, 1374.651
161.4243, 1412.054
161.9064, 1438.369
162.3885, 1450.011
162.8706, 1448.189
163.3527, 1429.243
163.8349, 1386.415
164.3170, 1322.949
164.7991, 1254.373
165.2812, 1181.783
165.7633, 1110.038
166.2454, 1043.431
166.7276, 980.6232
167.2097, 925.7355
167.6918, 880.8734
168.1739, 846.1280
168.6560, 818.7239
169.1381, 799.1425
169.6203, 785.0904
170.1024, 766.7728
170.5845, 750.0538
171.0666, 735.7042
171.5487, 721.8887
172.0309, 708.6007
172.5130, 694.6458
172.9951, 677.3773
173.4772, 659.1875
173.9593, 643.7722
174.4414, 633.7325
174.9236, 626.5068
175.4057, 618.6793
175.8878, 610.0767
176.3699, 604.4907
176.8520, 606.6907
177.3341, 614.1764
177.8163, 621.6024
178.2984, 625.7137
178.7805, 628.6616
179.2626, 633.6636
179.7447, 640.8547
180.2268, 650.0740
180.7090, 660.6100
181.1911, 672.3352
181.6732, 684.9087
182.1553, 699.2354
182.6374, 713.8607
183.1195, 725.7956
183.6017, 735.6113
184.0838, 743.3005
184.5659, 749.1782
185.0480, 752.6239
185.5301, 753.0272
186.0123, 750.7705
186.4944, 744.7863
186.9765, 731.4926
187.4586, 710.2774
187.9407, 684.5972
188.4228, 658.5314
188.9050, 632.1381
189.3871, 604.6355
189.8692, 575.0612
190.3513, 544.0980
190.8334, 514.1064
191.3155, 485.1042
191.7977, 457.7871
192.2798, 433.4221
192.7619, 411.9925
193.2440, 392.4320
193.7261, 373.7464
194.2082, 356.1317
194.6904, 341.0561
195.1725, 328.7800
195.6546, 317.7093
196.1367, 308.2156
196.6188, 300.3074
197.1009, 293.4129
197.5831, 287.0564
198.0652, 281.2977
198.5473, 277.0911
199.0294, 274.3900
199.5115, 273.1662
199.9937, 273.2965
200.4758, 274.6723
200.9579, 277.7623
201.4400, 283.1749
201.9221, 291.0504
202.4042, 298.8853
202.8864, 306.0729
203.3685, 313.5805
203.8506, 323.9167
204.3327, 337.3188
204.8148, 352.0715
205.2969, 367.6512
205.7791, 384.3003
206.2612, 400.1511
206.7433, 415.4624
207.2254, 429.6515
207.7075, 441.6441
208.1896, 452.0432
208.6718, 458.6143
209.1539, 461.0039
209.6360, 460.0074
210.1181, 450.7603
210.6002, 432.0959
211.0823, 405.6239
211.5645, 374.9433
212.0466, 338.5017
212.5287, 301.2397
213.0108, 265.5013
213.4929, 230.8841
213.9750, 198.3530
214.4572, 167.2710
214.9393, 138.6228
215.4214, 114.7059
215.9035, 96.34055
216.3856, 80.83569
216.8678, 67.19519
217.3499, 55.30267
217.8320, 45.05359
218.3141, 36.81906
218.7962, 30.15515
219.2783, 23.83298
219.7605, 17.86691
220.2426, 12.28558
220.7247, 7.165375
221.2068, 2.561798
221.6889, 1.718597
222.1710, 5.630432
222.6532, 9.223785
223.1353, 12.54547
223.6174, 15.70932
224.0995, 18.46176
224.5816, 20.64969
225.0637, 22.16891
225.5459, 23.44012
226.0280, 24.51773
226.5101, 25.34949
226.9922, 25.63684
227.4743, 24.87012
227.9564, 24.36221
228.4386, 24.94000
228.9207, 27.52866
229.4028, 28.97211
229.8849, 29.22818
230.3670, 28.32843
230.8492, 26.15192
231.3313, 21.82581
231.8134, 17.57986
232.2955, 14.52060
232.7776, 13.64117
233.2597, 11.68298
233.7419, 8.141296
234.2240, 3.624115
234.7061, 0.1034850
235.1882, 2.409363
235.6703, 4.892181
236.1524, 8.277679
236.6346, 12.85474
237.1167, 17.75272
237.5988, 23.46143
238.0809, 29.32785
238.5630, 33.76788
239.0451, 35.72791
239.5273, 37.77014
240.0094, 40.73199
240.4915, 44.20959
240.9736, 49.84439
241.4557, 58.74622
241.9378, 69.32391
242.4200, 78.14798
242.9021, 84.20013
243.3842, 90.22437
243.8663, 97.12561
244.3484, 104.7731
244.8306, 113.7128
245.3127, 123.8097
245.7948, 135.1768
246.2769, 148.1399
246.7590, 163.1931
247.2411, 178.7437
247.7233, 194.1085
248.2054, 208.9042
248.6875, 225.1669
249.1696, 243.6481
249.6517, 262.9370
250.1338, 280.8932
250.6160, 298.3271
251.0981, 313.1477
251.5802, 325.5337
252.0623, 336.8465
252.5444, 339.0143
253.0265, 330.2142
253.5087, 313.7662
253.9908, 294.0600
254.4729, 269.7501
254.9550, 244.5597
255.4371, 218.2653
255.9192, 190.2205
256.4014, 168.2557
256.8835, 153.4308
257.3656, 143.6414
257.8477, 135.9444
258.3298, 129.9510
258.8120, 126.9324
259.2941, 127.4553
259.7762, 131.6649
260.2583, 137.3627
260.7404, 145.2486
261.2225, 153.8013
261.7047, 161.1500
262.1868, 165.9081
262.6689, 173.1979
263.1510, 184.7361
263.6331, 200.2944
264.1152, 215.5671
264.5974, 230.3091
265.0795, 244.9940
265.5616, 259.2290
266.0437, 272.3959
266.5258, 288.0756
267.0079, 307.9089
267.4901, 331.3236
267.9722, 351.7947
268.4543, 369.7260
268.9364, 384.3851
269.4185, 395.0117
269.9006, 401.2138
270.3828, 405.1276
270.8649, 406.9929
271.3470, 406.8387
271.8291, 404.5458
272.3112, 399.5042
272.7933, 393.7831
273.2755, 388.7344
273.7576, 384.3210
274.2397, 380.4256
274.7218, 376.5488
275.2039, 373.4733
275.6860, 373.6446
276.1682, 377.2664
276.6503, 383.3615
277.1324, 391.4020
277.6145, 401.3085
278.0966, 413.3891
278.5787, 427.8030
279.0609, 444.2045
279.5430, 461.6101
280.0251, 479.6023
280.5072, 500.3986
280.9893, 526.0325
281.4715, 556.2679
281.9536, 586.5946
282.4357, 616.2661
282.9178, 647.1875
283.3999, 682.2357
283.8820, 721.4191
284.3642, 764.6020
284.8463, 811.9293
285.3284, 863.5970
285.8105, 918.7620
286.2926, 977.9550
286.7747, 1039.360
287.2569, 1102.183
287.7390, 1166.302
288.2211, 1227.693
288.7032, 1287.767
289.1853, 1344.318
289.6674, 1389.973
290.1496, 1425.616
290.6317, 1446.273
291.1138, 1447.743
291.5959, 1429.947
292.0780, 1392.134
292.5602, 1330.710
293.0423, 1250.180
293.5244, 1157.560
294.0065, 1052.756
294.4886, 947.3170
294.9707, 848.4827
295.4529, 756.0461
295.9350, 671.3169
296.4171, 593.6070
296.8992, 523.3888
297.3813, 463.0584
297.8634, 412.6569
298.3456, 368.9400
298.8277, 331.2849
299.3098, 298.8694
299.7919, 270.3957
300.2740, 246.1638
300.7561, 225.1593
301.2383, 207.1431
301.7204, 191.7751
302.2025, 178.7997
302.6846, 168.3353
303.1667, 160.0243
303.6488, 153.2203
304.1310, 147.8596
304.6131, 143.6601
305.0952, 141.0370
305.5773, 139.5834
306.0594, 138.2325
306.5415, 136.3962
307.0237, 134.2849
307.5058, 131.6404
307.9879, 128.2890
308.4700, 126.0833
308.9521, 127.5882
309.4343, 131.0100
309.9164, 133.1634
310.3985, 132.4063
310.8806, 130.1693
311.3627, 127.2859
311.8448, 123.7379
312.3270, 120.1765
312.8091, 116.9732
313.2912, 113.8543
313.7733, 110.4026
314.2554, 106.8014
314.7375, 102.9564
315.2197, 98.51218
315.7018, 93.54083
316.1839, 89.24960
316.6660, 86.20001
317.1481, 83.95038
317.6302, 82.17578
318.1124, 80.57022
318.5945, 79.83475
319.0766, 80.16357
319.5587, 81.55594
320.0408, 83.96591
320.5229, 88.05838
321.0051, 92.62344
321.4872, 96.96643
321.9693, 100.6460
322.4514, 104.7466
322.9335, 108.5047
323.4156, 112.8781
323.8978, 119.7377
324.3799, 132.1395
324.8620, 144.7331
325.3441, 155.3532
325.8262, 162.6560
326.3083, 171.4257
326.7905, 184.0625
327.2726, 197.7472
327.7547, 208.8486
328.2368, 218.5157
328.7189, 224.3939
329.2010, 226.3414
329.6832, 224.4787
330.1653, 217.3783
330.6474, 202.9340
331.1295, 184.7821
331.6116, 165.4203
332.0938, 142.8694
332.5759, 122.1537
333.0580, 104.0366
333.5401, 88.28448
334.0222, 74.45462
334.5043, 62.60394
334.9865, 52.41846
335.4686, 43.59842
335.9507, 36.05295
336.4328, 30.20999
336.9149, 26.64362
337.3970, 24.44803
337.8792, 21.09952
338.3613, 15.83380
338.8434, 11.42932
339.3255, 9.542450
339.8076, 10.65903
340.2898, 10.35315
340.7719, 8.160034
341.2540, 5.350372
341.7361, 3.784027
342.2182, 3.593506
342.7003, 3.705383
343.1825, 3.899231
343.6646, 4.121521
344.1467, 3.905701
344.6288, 3.154236
345.1109, 2.433350
345.5930, 2.468658
346.0752, 3.167450
346.5573, 3.533020
347.0394, 3.126831
347.5215, 2.402130
348.0036, 2.355103
348.4857, 2.978241
348.9679, 3.919525
349.4500, 5.458160
349.9321, 7.147186
350.4142, 7.563599
350.8963, 6.237610
351.3784, 4.248962
351.8606, 2.702850
352.3427, 1.627808
352.8248, 1.099609
353.3069, 1.997101
353.7890, 3.160583
354.2711, 2.668427
354.7533, 0.1922910
355.2354, 2.218231
355.7175, 2.530884
356.1996, 1.584778
356.6817, 0.8435670
357.1638, 1.186279
357.6460, 1.774780
358.1281, 1.960876
358.6102, 1.765137
359.0923, 1.573212
359.5744, 1.226654
360.0565, 1.155609
360.5387, 1.870117
361.0208, 4.830872
361.5029, 6.955444
361.9850, 6.032257
362.4671, 3.020966
362.9492, 0.8785100
363.4314, 1.452118
363.9135, 2.571411
364.3956, 2.940308
364.8777, 1.817291
365.3598, 1.298676
365.8419, 2.546387
366.3241, 4.501923
366.8062, 5.569214
367.2883, 4.466614
367.7704, 3.478760
368.2526, 3.325684
368.7347, 4.222412
369.2168, 4.819794
369.6989, 5.492371
370.1810, 5.624298
370.6631, 4.604462
371.1453, 0.7206120
371.6274, 1.732880
372.1095, 1.718811
372.5916, 0.3138120
373.0737, 1.438507
373.5558, 1.519684
374.0380, 0.9096070
374.5201, 0.3830260
375.0022, 2.751831
375.4843, 4.407898
375.9664, 5.231110
376.4485, 5.477905
376.9307, 5.297150
377.4128, 4.378937
377.8949, 3.896332
378.3770, 4.660126
378.8591, 6.624512
379.3412, 7.797333
379.8234, 7.934662
380.3055, 7.893768
380.7876, 8.813721
381.2697, 10.63077
381.7518, 12.09488
382.2339, 12.79343
382.7161, 13.04108
383.1982, 13.46719
383.6803, 14.07901
384.1624, 14.96579
384.6445, 16.10229
385.1266, 17.56143
385.6088, 19.63727
386.0909, 22.51233
386.5730, 25.55560
387.0551, 27.81332
387.5372, 29.56421
388.0193, 31.65717
388.5015, 34.57776
388.9836, 38.01822
389.4657, 41.69171
389.9478, 45.58252
390.4299, 49.65875
390.9120, 53.71606
391.3942, 58.01205
391.8763, 62.80994
392.3584, 68.57028
392.8405, 74.50647
393.3226, 80.12057
393.8047, 85.52917
394.2869, 91.26401
394.7690, 97.34619
395.2511, 103.9471
395.7332, 111.3136
396.2154, 120.1257
396.6975, 128.3282
397.1796, 135.0575
397.6617, 141.0584
398.1438, 147.5535
398.6259, 155.5625
399.1081, 163.3069
399.5902, 170.0211
400.0723, 175.4330
400.5544, 181.7206
401.0365, 188.6569
401.5186, 196.6639
402.0008, 206.0039
402.4829, 216.9813
402.9650, 228.7383
403.4471, 240.9677
403.9292, 253.9770
404.4113, 268.8379
404.8935, 286.1491
405.3756, 304.0761
405.8577, 322.2925
406.3398, 341.0137
406.8219, 357.6934
407.3040, 372.9357
407.7862, 385.0163
408.2683, 393.1098
408.7504, 397.3817
409.2325, 392.2937
409.7146, 373.5752
410.1967, 344.7290
410.6789, 314.2098
411.1610, 281.8748
411.6431, 252.3206
412.1252, 229.6693
412.6073, 213.0139
413.0894, 200.3232
413.5716, 191.8359
414.0537, 186.8696
414.5358, 185.6387
415.0179, 187.4272
415.5000, 190.0952
415.9821, 194.8868
416.4643, 198.6917
416.9464, 198.7057
417.4285, 194.7325
417.9106, 186.1376
418.3927, 170.0719
418.8748, 149.7326
419.3570, 129.4265
419.8391, 109.0475
420.3212, 90.77063
420.8033, 75.21857
421.2854, 62.17249
421.7675, 50.97958
422.2497, 42.03531
422.7318, 34.62836
423.2139, 28.42093
423.6960, 23.39133
424.1781, 19.15594
424.6602, 16.31552
425.1424, 14.32010
425.6245, 12.17749
426.1066, 9.515350
426.5887, 6.995270
427.0709, 4.704193
427.5530, 2.635406
428.0351, 1.240356
428.5172, 0.9472960
428.9993, 1.078430
429.4814, 0.8901980
429.9636, 0.1174620
430.4457, 0.7362980
430.9278, 1.601593
431.4099, 2.407837
431.8920, 3.005829
432.3741, 3.299500
432.8563, 3.754791
433.3384, 5.063171
433.8205, 6.968994
434.3026, 7.242645
434.7847, 5.718567
435.2668, 4.004974
435.7490, 3.954163
436.2311, 5.068756
436.7132, 5.705963
437.1953, 5.404358
437.6774, 4.562531
438.1595, 3.460083
438.6417, 2.163940
439.1238, 1.019409
439.6059, 0.4894710
440.0880, 0.1179200
440.5701, 0.6556090
441.0522, 1.966156
441.5344, 3.224792
442.0165, 3.695007
442.4986, 4.014374
442.9807, 4.961700
443.4628, 7.560883
443.9449, 10.07614
444.4271, 11.62250
444.9092, 12.39758
445.3913, 13.58575
445.8734, 15.79321
446.3555, 18.20175
446.8376, 20.40195
447.3198, 22.26776
447.8019, 24.10471
448.2840, 25.54367
448.7661, 27.09317
449.2482, 29.49030
449.7303, 33.08060
450.2125, 36.89172
450.6946, 40.71600
451.1767, 44.59677
451.6588, 48.79263
452.1409, 53.23511
452.6230, 58.23492
453.1052, 64.24677
453.5873, 71.45709
454.0694, 77.76083
454.5515, 82.68665
455.0337, 87.26047
455.5158, 93.01395
455.9979, 99.95407
456.4800, 107.4219
456.9621, 115.6033
457.4442, 124.0546
457.9264, 131.3497
458.4085, 137.5253
458.8906, 144.5345
459.3727, 153.5820
459.8548, 164.5536
460.3369, 177.0247
460.8191, 190.9478
461.3012, 206.6172
461.7833, 223.6797
462.2654, 242.7142
462.7475, 264.8217
463.2296, 292.8610
463.7118, 322.4488
464.1939, 350.7223
464.6760, 377.7171
465.1581, 406.6627
465.6402, 438.8488
466.1223, 472.9390
466.6045, 507.5861
467.0866, 541.8696
467.5687, 577.4295
468.0508, 613.0498
468.5329, 650.3046
469.0150, 693.5215
469.4972, 744.4144
469.9793, 797.6613
470.4614, 850.0385
470.9435, 901.0640
471.4256, 961.2047
471.9077, 1031.613
472.3899, 1108.844
472.8720, 1189.421
473.3541, 1274.220
473.8362, 1364.933
474.3183, 1462.941
474.8004, 1566.374
475.2826, 1673.556
475.7647, 1784.102
476.2468, 1892.596
476.7289, 2000.140
477.2110, 2103.307
477.6931, 2198.229
478.1753, 2285.229
478.6574, 2347.417
479.1395, 2376.483
479.6216, 2370.325
480.1037, 2324.445
480.5858, 2231.800
481.0680, 2109.497
481.5501, 1957.061
482.0322, 1784.053
482.5143, 1611.564
482.9964, 1436.902
483.4786, 1274.100
483.9607, 1128.659
484.4428, 1002.365
484.9249, 891.6746
485.4070, 799.1850
485.8892, 721.2421
486.3713, 655.8999
486.8534, 607.0953
487.3355, 565.0640
487.8176, 528.8835
488.2997, 499.6418
488.7819, 479.2691
489.2640, 468.9697
489.7461, 464.8421
490.2282, 465.9761
490.7103, 472.3143
491.1924, 482.7977
491.6746, 497.5260
492.1567, 516.0613
492.6388, 538.1215
493.1209, 563.9238
493.6030, 592.2960
494.0851, 623.5226
494.5673, 656.8287
495.0494, 690.2544
495.5315, 724.6252
496.0136, 761.5297
496.4957, 800.8135
496.9778, 843.8074
497.4600, 893.1962
497.9421, 948.6844
498.4242, 1009.048
498.9063, 1074.018
499.3884, 1143.671
499.8705, 1218.883
500.3527, 1298.525
500.8348, 1385.477
501.3169, 1478.694
501.7990, 1581.387
502.2811, 1687.491
502.7632, 1807.811
503.2454, 1931.955
503.7275, 2062.362
504.2096, 2197.564
504.6917, 2328.938
505.1738, 2459.700
505.6559, 2580.264
506.1381, 2687.685
506.6202, 2787.824
507.1023, 2852.903
507.5844, 2884.795
508.0665, 2878.304
508.5486, 2823.637
509.0308, 2719.953
509.5129, 2581.545
509.9950, 2404.073
510.4771, 2201.679
510.9592, 1993.261
511.4413, 1781.315
511.9235, 1581.484
512.4056, 1401.216
512.8877, 1240.701
513.3698, 1097.958
513.8519, 973.0673
514.3340, 863.4595
514.8162, 769.9964
515.2983, 689.7657
515.7804, 619.4289
516.2625, 560.0737
516.7446, 507.6003
517.2267, 462.4507
517.7089, 423.3200
518.1910, 387.5269
518.6731, 354.2292
519.1552, 324.3219
519.6373, 299.0969
520.1194, 278.6524
520.6016, 259.0215
521.0837, 239.8463
521.5658, 222.1176
522.0479, 206.7889
522.5300, 194.6286
523.0121, 182.4622
523.4943, 169.7955
523.9764, 157.4092
524.4585, 146.6856
524.9406, 137.8187
525.4227, 129.7720
525.9048, 122.3073
526.3870, 115.3995
526.8691, 108.8331
527.3513, 102.5808
527.8334, 96.65149
528.3155, 91.05521
528.7976, 85.70651
529.2797, 80.38776
529.7618, 74.98428
530.2440, 69.95288
530.7261, 65.85471
531.2082, 62.27112
531.6903, 58.74551
532.1724, 54.97986
532.6545, 51.35812
533.1367, 47.92932
533.6188, 44.75504
534.1009, 41.84088
534.5830, 38.97003
535.0651, 36.57440
535.5472, 35.06970
536.0294, 34.70850
536.5115, 33.24466
536.9936, 30.06494
537.4757, 26.67398
537.9578, 24.40076
538.4399, 23.46512
538.9221, 22.00970
539.4042, 19.66940
539.8863, 17.20291
540.3684, 16.07578
540.8505, 16.13318
541.3326, 15.93509
541.8148, 14.70612
542.2969, 13.04330
542.7790, 12.04370
543.2611, 11.62683
543.7432, 11.15570
544.2253, 9.984222
544.7075, 8.654205
545.1896, 7.781067
545.6717, 7.565521
546.1538, 7.286987
546.6359, 6.477112
547.1180, 5.512787
547.6002, 4.807129
548.0823, 5.038696
548.5644, 4.805969
549.0465, 3.532898
549.5286, 1.567749
550.0107, 0.1098020
550.4929, 1.774384
550.9750, 2.721832
551.4571, 2.540344
551.9392, 1.225739
552.4213, 0.2276000
552.9034, 0.4887390
553.3856, 0.7545170
553.8677, 0.1017460
554.3498, 1.308655
554.8319, 1.739838
555.3140, 0.8255620
555.7961, 0.3742370
556.2783, 0.3202820
556.7604, 0.5832210
557.2425, 1.153412
557.7246, 0.3320310
558.2067, 0.4031070
558.6888, 1.117035
559.1710, 4.103241
559.6531, 5.873688
560.1352, 3.653259
560.6173, 0.9072570
561.0994, 2.4444999E-02
561.5815, 1.343842
562.0637, 1.844238
562.5458, 0.7373960
563.0279, 3.355042
563.5100, 3.690552
563.9921, 0.8244020
564.4742, 3.057648
564.9564, 2.217316
565.4385, 0.4546510
565.9206, 3.055664
566.4027, 5.603729
566.8848, 7.904327
567.3669, 10.02853
567.8491, 11.77829
568.3312, 12.00943
568.8133, 10.79285
569.2954, 10.03616
569.7775, 11.51300
570.2596, 14.13983
570.7418, 15.82419
571.2239, 16.43149
571.7060, 16.99289
572.1881, 18.31378
572.6702, 20.00690
573.1523, 21.66861
573.6345, 23.19473
574.1166, 24.66211
574.5987, 25.81058
575.0808, 26.96100
575.5629, 28.67114
576.0450, 31.83688
576.5272, 34.62027
577.0093, 36.49716
577.4914, 37.62271
577.9735, 39.26093
578.4556, 42.14062
578.9377, 44.00696
579.4199, 43.42004
579.9020, 40.34161
580.3841, 37.82166
580.8662, 35.98691
581.3483, 34.10797
581.8304, 31.19153
582.3126, 27.60925
582.7947, 24.76614
583.2768, 23.12344
583.7589, 21.65906
584.2410, 19.22913
584.7231, 16.17734
585.2053, 13.18604
585.6874, 9.891083
586.1696, 7.325317
586.6517, 6.473389
587.1338, 6.955383
587.6159, 7.097534
588.0980, 6.288239
588.5801, 5.192200
589.0623, 4.021790
589.5444, 2.753937
590.0265, 1.594910
590.5086, 0.4931640
590.9907, 0.4286500
591.4728, 1.059784
591.9550, 1.362946
592.4371, 1.469696
592.9192, 1.289368
593.4013, 1.116852
593.8834, 1.672638
594.3655, 2.759430
594.8477, 3.049194
595.3298, 1.539978
595.8119, 0.2588810
596.2940, 0.1331790
596.7761, 2.076050
597.2582, 3.439484
597.7404, 2.456787
598.2225, 0.9938960
598.7046, 0.3881230
599.1867, 0.7174380
599.6688, 0.9940490
600.1509, 0.8795170
600.6331, 0.6658020
601.1152, 0.5677800
601.5973, 0.8224180
602.0794, 0.6195680
602.5615, 0.4211430
603.0436, 1.554199
603.5258, 1.875183
604.0079, 1.243256
604.4900, 0.5382390
604.9721, 0.1859740
605.4542, 0.7628780
605.9363, 0.7176820
606.4185, 0.1141660
606.9006, 0.4316410
607.3827, 0.5456240
607.8648, 0.5238650
608.3469, 0.7280880
608.8290, 1.088989
609.3112, 1.535034
609.7933, 1.891693
610.2754, 2.468353
610.7575, 3.748718
611.2396, 5.928650
611.7217, 7.447052
612.2039, 7.524994
612.6860, 6.926422
613.1681, 6.211823
613.6502, 4.839539
614.1323, 4.390381
614.6144, 5.430634
615.0966, 6.862274
615.5787, 6.835388
616.0608, 4.950317
616.5429, 4.200714
617.0250, 5.505096
617.5071, 7.957733
617.9893, 9.831573
618.4714, 11.14023
618.9535, 11.89468
619.4356, 11.58456
619.9177, 11.03668
620.3998, 11.41739
620.8820, 12.59790
621.3641, 13.89026
621.8462, 14.87094
622.3283, 15.78580
622.8104, 17.01575
623.2925, 18.74423
623.7747, 20.21799
624.2568, 21.04129
624.7389, 21.72766
625.2210, 22.63440
625.7031, 23.55182
626.1852, 25.25125
626.6674, 28.15677
627.1495, 31.49023
627.6316, 33.70190
628.1137, 34.58795
628.5958, 35.30792
629.0779, 36.05185
629.5601, 36.95697
630.0422, 38.59180
630.5243, 40.73581
631.0064, 42.40933
631.4885, 42.44141
631.9706, 42.18454
632.4528, 43.16431
632.9349, 45.28091
633.4170, 46.97333
633.8991, 47.75189
634.3812, 47.79373
634.8633, 47.00809
635.3455, 44.84198
635.8276, 43.44400
636.3097, 43.01907
636.7918, 43.12775
637.2739, 43.41440
637.7560, 43.82141
638.2382, 44.88345
638.7203, 47.01657
639.2024, 49.41779
639.6845, 50.58206
640.1666, 50.53278
640.6487, 50.76358
641.1309, 52.03238
641.6130, 53.51666
642.0951, 53.47479
642.5772, 52.60236
643.0594, 52.87558
643.5415, 56.89804
644.0236, 60.92502
644.5057, 62.56189
644.9879, 62.00943
645.4700, 61.43509
645.9521, 61.90518
646.4342, 61.91614
646.9163, 60.71353
647.3984, 58.08304
647.8806, 55.71967
648.3627, 53.74155
648.8448, 51.67883
649.3269, 49.10257
649.8090, 46.03766
650.2911, 42.97900
650.7733, 39.90799
651.2554, 37.02933
651.7375, 34.64291
652.2196, 32.52219
652.7017, 30.14554
653.1838, 27.16995
653.6660, 24.59863
654.1481, 23.33875
654.6302, 22.72842
655.1123, 21.79669
655.5944, 20.27316
656.0765, 18.63828
656.5587, 16.80338
657.0408, 14.80920
657.5229, 13.02072
658.0050, 11.16211
658.4871, 10.13855
658.9692, 10.67197
659.4514, 12.49100
659.9335, 12.61047
660.4156, 10.89145
660.8977, 9.091370
661.3798, 8.659698
661.8619, 9.033691
662.3441, 8.735809
662.8262, 7.663971
663.3083, 6.421875
663.7904, 5.619568
664.2725, 4.937958
664.7546, 3.852448
665.2368, 1.839844
665.7189, 0.4848630
666.2010, 0.7785340
666.6831, 1.825226
667.1652, 2.615082
667.6473, 3.191833
668.1295, 3.334290
668.6116, 2.836029
669.0937, 2.074280
669.5758, 1.809113
670.0579, 2.097137
670.5400, 2.244812
671.0222, 1.895050
671.5043, 1.416321
671.9864, 1.773407
672.4685, 2.828217
672.9506, 3.769501
673.4327, 4.130219
673.9149, 4.117523
674.3970, 3.808411
674.8791, 3.299866
675.3612, 2.940308
675.8433, 3.175354
676.3254, 3.304474
676.8076, 2.802948
677.2897, 1.462708
677.7718, 0.8368840
678.2539, 1.387573
678.7360, 2.045349
679.2181, 1.986023
679.7003, 1.097900
680.1824, 0.7673950
680.6645, 1.090729
681.1466, 1.752258
681.6287, 2.721771
682.1108, 3.754944
682.5930, 4.108185
683.0751, 3.557587
683.5572, 2.568146
684.0393, 0.7897950
684.5214, 0.9723820
685.0035, 1.578369
685.4857, 0.8532710
685.9678, 2.716919
686.4499, 2.699036
686.9320, 1.532593
687.4141, 0.8479310
687.8962, 0.7070620
688.3784, 0.9953310
688.8605, 1.920959
689.3426, 3.168549
689.8247, 3.672852
690.3068, 3.432343
690.7889, 2.684937
691.2711, 1.203217
691.7532, 0.5469360
692.2353, 1.681824
692.7174, 2.214813
693.1995, 2.289612
693.6816, 1.574310
694.1638, 0.7415470
694.6459, 0.1597600
695.1280, 0.1508180
695.6101, 0.1804200
696.0922, 2.458679
696.5743, 4.365143
697.0565, 4.522003
697.5386, 2.354279
698.0207, 0.8582460
698.5028, 0.2243960
698.9849, 0.1564940
699.4670, 1.031281
699.9492, 2.292786
700.4313, 2.728668
700.9135, 2.117584
701.3956, 1.101166
701.8777, 0.1404420
702.3598, 1.199799
702.8419, 1.254791
703.3240, 0.4793700
703.8062, 2.088867
704.2883, 2.319580
704.7704, 1.873169
705.2525, 1.768982
705.7346, 2.800446
706.2167, 3.344482
706.6989, 2.879120
707.1810, 2.006042
707.6631, 2.292114
708.1452, 4.029663
708.6273, 5.147736
709.1094, 4.851166
709.5916, 3.729492
710.0737, 2.853485
710.5558, 2.287628
711.0379, 2.317719
711.5200, 3.710358
712.0021, 5.303741
712.4843, 5.997589
712.9664, 5.933228
713.4485, 5.949646
713.9306, 5.947815
714.4127, 6.459045
714.8948, 8.003998
715.3770, 10.60446
715.8591, 12.59970
716.3412, 13.84805
716.8233, 14.76801
717.3054, 15.68198
717.7875, 16.57120
718.2697, 16.42017
718.7518, 15.14047
719.2339, 14.05869
719.7160, 14.72015
720.1981, 16.18320
720.6802, 16.97989
721.1624, 16.90457
721.6445, 16.40726
722.1266, 15.61682
722.6087, 14.59357
723.0908, 13.34518
723.5729, 11.69690
724.0551, 10.23145
724.5372, 9.007599
725.0193, 7.962891
725.5014, 7.002167
725.9835, 6.055664
726.4656, 5.673676
726.9478, 6.044983
727.4299, 6.623138
727.9120, 6.790253
728.3941, 6.533112
728.8762, 5.661896
729.3583, 3.722046
729.8405, 2.039337
730.3226, 2.118530
730.8047, 3.103485
731.2868, 3.583191
731.7689, 2.270111
732.2510, 1.413910
732.7332, 2.180023
733.2153, 3.590118
733.6974, 3.465759
734.1795, 0.8812260
734.6616, 0.6434330
735.1437, 7.8429999E-03
735.6259, 2.041382
736.1080, 3.512543
736.5901, 4.473969
737.0722, 5.439056
737.5543, 6.975891
738.0364, 8.384033
738.5186, 8.567657
739.0007, 7.858948
739.4828, 7.459106
739.9649, 7.955261
740.4470, 8.799652
740.9291, 10.04791
741.4113, 11.59589
741.8934, 12.27817
742.3755, 11.33670
742.8576, 10.77255
743.3397, 11.81607
743.8218, 14.07733
744.3040, 14.97937
744.7861, 14.47116
745.2682, 14.27765
745.7503, 15.74701
746.2324, 18.23477
746.7145, 20.59308
747.1967, 22.82678
747.6788, 25.54984
748.1609, 29.64520
748.6430, 33.92139
749.1251, 37.43365
749.6072, 39.73605
750.0894, 43.10870
750.5715, 48.33884
751.0536, 53.80560
751.5357, 58.31580
752.0178, 61.77338
752.4999, 66.10739
752.9821, 71.38425
753.4642, 77.05963
753.9463, 82.37289
754.4284, 87.59851
754.9105, 93.18494
755.3926, 99.31445
755.8748, 106.4900
756.3569, 115.5627
756.8390, 125.4713
757.3211, 135.3140
757.8032, 144.1834
758.2853, 154.6528
758.7675, 167.6763
759.2496, 181.3864
759.7318, 194.2006
760.2139, 205.8177
760.6960, 218.1297
761.1781, 231.6550
761.6602, 244.4526
762.1423, 254.4913
762.6245, 261.9817
763.1066, 267.7591
763.5887, 272.5700
764.0708, 273.7505
764.5529, 268.7979
765.0350, 259.3717
765.5172, 247.4329
765.9993, 231.7575
766.4814, 215.6462
766.9635, 198.4627
767.4456, 181.5965
767.9277, 166.8448
768.4099, 154.1487
768.8920, 143.1039
769.3741, 133.6002
769.8562, 125.7595
770.3383, 120.2630
770.8204, 116.4594
771.3026, 112.4365
771.7847, 106.8371
772.2668, 102.3221
772.7489, 101.7603
773.2310, 103.1949
773.7131, 103.5558
774.1953, 101.3239
774.6774, 99.11172
775.1595, 97.47324
775.6416, 95.86862
776.1237, 93.30603
776.6058, 89.73538
777.0880, 85.54697
777.5701, 80.81241
778.0522, 75.61761
778.5343, 70.02246
779.0164, 64.09509
779.4985, 57.97968
779.9807, 51.09860
780.4628, 44.91241
780.9449, 40.40833
781.4270, 37.26358
781.9091, 34.69730
782.3912, 33.59390
782.8734, 31.74933
783.3555, 28.39883
783.8376, 24.33597
784.3197, 21.54749
784.8018, 20.06580
785.2839, 19.40991
785.7661, 19.95972
786.2482, 20.49643
786.7303, 18.27628
787.2124, 14.25836
787.6945, 11.09204
788.1766, 10.78540
788.6588, 10.86438
789.1409, 10.01691
789.6230, 8.558929
790.1051, 7.376831
790.5872, 6.407288
791.0693, 6.031708
791.5515, 6.737152
792.0336, 7.878113
792.5157, 7.155579
792.9978, 4.571198
793.4799, 2.830353
793.9620, 3.334106
794.4442, 4.817657
794.9263, 5.650208
795.4084, 6.083221
795.8905, 6.647827
796.3726, 7.617340
796.8547, 8.719818
797.3369, 10.22006
797.8190, 11.78052
798.3011, 12.27878
798.7832, 10.98810
799.2653, 10.10861
799.7474, 10.22241
800.2296, 11.03024
800.7117, 11.48834
801.1938, 11.73260
801.6759, 12.81021
802.1580, 15.89154
802.6401, 19.13834
803.1223, 19.96600
803.6044, 19.25845
804.0865, 19.33481
804.5686, 21.35208
805.0507, 23.84097
805.5328, 26.99051
806.0150, 30.31339
806.4971, 32.25125
806.9792, 32.10199
807.4613, 32.87225
807.9434, 35.58035
808.4255, 39.50290
808.9077, 43.30844
809.3898, 46.97736
809.8719, 50.41150
810.3540, 53.43805
810.8361, 56.33862
811.3182, 59.19501
811.8004, 62.10165
812.2825, 65.41650
812.7646, 69.99158
813.2467, 73.87918
813.7288, 76.86728
814.2109, 79.03043
814.6931, 80.41479
815.1752, 81.09573
815.6573, 80.92728
816.1394, 79.88547
816.6215, 77.85748
817.1037, 74.66724
817.5858, 70.44714
818.0679, 65.36209
818.5500, 58.18835
819.0322, 51.54800
819.5143, 47.52731
819.9964, 44.92752
820.4785, 41.13834
820.9606, 34.87613
821.4427, 29.73401
821.9249, 26.41055
822.4070, 24.28336
822.8891, 22.40738
823.3712, 20.75012
823.8533, 18.92487
824.3354, 16.79007
824.8176, 14.48868
825.2997, 11.73978
825.7818, 9.050751
826.2639, 7.344116
826.7460, 7.739624
827.2281, 8.146637
827.7103, 8.052368
828.1924, 7.746918
828.6745, 7.577515
829.1566, 7.544434
829.6387, 7.640717
830.1208, 7.913330
830.6030, 8.202606
831.0851, 7.934052
831.5672, 7.445404
832.0493, 7.968689
832.5314, 10.46866
833.0135, 12.36112
833.4957, 11.24368
833.9778, 8.752289
834.4599, 6.792877
834.9420, 5.703857
835.4241, 5.389679
835.9063, 6.228973
836.3884, 7.397705
836.8705, 7.934082
837.3526, 7.854736
837.8347, 7.659637
838.3168, 7.416473
838.7990, 6.992432
839.2811, 5.862549
839.7632, 4.628723
840.2453, 4.224731
840.7274, 5.074890
841.2095, 5.832397
841.6917, 6.612152
842.1738, 6.668365
842.6559, 5.213165
843.1380, 1.256683
843.6201, 0.6492000
844.1022, 0.1325070
844.5844, 1.173676
845.0665, 2.027924
845.5486, 2.441193
846.0307, 2.328796
846.5128, 1.679443
846.9949, 0.9950870
847.4771, 0.4504090
847.9592, 0.1260990
848.4413, 0.1531370
848.9234, 0.6409000
849.4055, 0.9935300
849.8876, 1.358063
850.3698, 1.299011
850.8519, 5.7526000E-02
851.3340, 2.146332
851.8161, 1.754272
852.2982, 1.208160
852.7803, 3.757660
853.2625, 2.978851
853.7446, 1.129456
854.2267, 0.8378300
854.7088, 2.047150
855.1909, 2.615265
855.6730, 0.9163820
856.1552, 0.5625610
856.6373, 0.6475520
857.1194, 0.4130550
857.6015, 0.4674680
858.0836, 0.6611940
858.5657, 1.833923
859.0479, 2.661163
859.5300, 3.060638
860.0121, 2.570923
860.4942, 1.449280
860.9763, 0.6051940
861.4584, 1.039703
861.9406, 1.309723
862.4227, 0.4729610
862.9048, 1.091003
863.3869, 2.007568
863.8690, 2.169525
864.3511, 1.883759
864.8333, 0.9905090
865.3154, 2.5238000E-02
865.7975, 6.5369003E-02
866.2796, 0.9673160
866.7617, 1.444122
867.2438, 0.7516480
867.7260, 4.4799998E-02
868.2081, 0.5948790
868.6902, 1.581055
869.1723, 1.731873
869.6544, 0.7815550
870.1365, 1.846161
870.6187, 0.5265810
871.1008, 1.516266
871.5829, 1.857117
872.0650, 0.5924070
872.5471, 0.3915100
873.0292, 0.8391420
873.5114, 0.8048400
873.9935, 8.4686004E-02
874.4756, 0.9669800
874.9577, 1.991394
875.4399, 3.154877
875.9220, 3.570984
876.4041, 2.114166
876.8862, 0.5358580
877.3683, 5.8075000E-02
877.8505, 0.9342960
878.3326, 1.223541
878.8147, 0.7879330
879.2968, 0.4729000
879.7789, 1.272491
880.2610, 2.576508
880.7432, 3.399506
881.2253, 3.707367
881.7074, 3.930664
882.1895, 4.340759
882.6716, 4.594788
883.1537, 4.490784
883.6359, 4.040649
884.1180, 3.337341
884.6001, 2.285339
885.0822, 1.443939
885.5643, 1.164764
886.0464, 1.334137
886.5286, 1.658661
887.0107, 2.007782
887.4928, 2.204773
887.9749, 1.958008
888.4570, 1.912903
888.9391, 2.780518
889.4213, 4.137939
889.9034, 4.530212
890.3855, 3.224121
890.8676, 2.430115
891.3497, 2.638550
891.8318, 3.550110
892.3140, 5.018188
892.7961, 6.803986
893.2782, 7.716095
893.7603, 7.138611
894.2424, 6.174500
894.7245, 5.296234
895.2067, 4.661957
895.6888, 4.473846
896.1709, 5.385834
896.6530, 5.693054
897.1351, 5.018341
897.6172, 4.326324
898.0994, 5.019592
898.5815, 6.789368
899.0636, 6.951416
899.5457, 5.162201
900.0278, 3.608002
900.5099, 4.655029
900.9921, 6.384430
901.4742, 6.861969
901.9563, 5.663239
902.4384, 5.100983
902.9205, 5.898926
903.4026, 6.676056
903.8848, 6.678833
904.3669, 6.042908
904.8490, 5.940613
905.3311, 6.360016
905.8132, 6.975098
906.2953, 7.943146
906.7775, 8.741272
907.2596, 8.800262
907.7417, 8.245117
908.2238, 7.534454
908.7059, 6.321991
909.1880, 5.500031
909.6702, 5.530487
910.1523, 6.126251
910.6344, 6.507599
911.1165, 6.676239
911.5986, 6.539795
912.0807, 5.887604
912.5629, 5.395477
913.0450, 6.516449
913.5271, 8.075317
914.0092, 8.182983
914.4913, 4.845886
914.9734, 2.818909
915.4556, 3.522766
915.9377, 5.028961
916.4198, 5.600372
916.9019, 5.192169
917.3840, 5.016968
917.8661, 5.217102
918.3483, 5.503235
918.8304, 5.578644
919.3125, 5.465118
919.7946, 5.210175
920.2767, 4.887634
920.7589, 4.833893
921.2410, 5.815582
921.7231, 6.314117
922.2052, 5.458374
922.6873, 3.494476
923.1694, 2.736847
923.6516, 3.232330
924.1337, 3.718353
924.6158, 3.497528
925.0979, 2.965240
925.5800, 2.499969
926.0621, 2.152344
926.5443, 2.004730
927.0264, 2.350830
927.5085, 2.502625
927.9906, 2.290588
928.4727, 2.003204
928.9548, 1.813477
929.4370, 1.670715
929.9191, 1.579620
930.4012, 1.458221
930.8833, 1.531097
931.3654, 2.530304
931.8475, 3.737061
932.3297, 3.962128
932.8118, 2.548492
933.2939, 1.568085
933.7761, 1.965271
934.2582, 2.454224
934.7403, 2.134186
935.2224, 0.9490660
935.7045, 0.7491150
936.1866, 1.534943
936.6688, 2.395233
937.1509, 2.930542
937.6330, 3.059387
938.1151, 2.397858
938.5972, 1.122772
939.0793, 0.1376950
939.5615, 0.1733090
940.0436, 0.2635800
940.5257, 0.1579590
941.0078, 4.7974002E-02
941.4899, 0.2146910
941.9720, 0.3254390
942.4542, 0.3022770
942.9363, 2.325470
943.4184, 4.069275
943.9005, 3.144073
944.3826, 1.008392
944.8647, 0.3300780
945.3469, 8.9386001E-02
945.8290, 0.5378420
946.3111, 1.846985
946.7932, 2.952637
947.2753, 2.970062
947.7574, 1.966553
948.2396, 1.292175
948.7217, 0.9946290
949.2038, 0.5588380
949.6859, 0.8473510
950.1680, 2.262970
950.6501, 2.725861
951.1323, 2.237152
951.6144, 1.740875
952.0965, 1.007446
952.5786, 0.9317630
953.0607, 2.104004
953.5428, 3.905243
954.0250, 4.429840
954.5071, 3.827484
954.9892, 2.934296
955.4713, 1.604675
955.9534, 0.8862000
956.4355, 2.196106
956.9177, 4.362091
957.3998, 5.693420
957.8819, 5.596588
958.3640, 5.325653
958.8461, 4.742767
959.3282, 4.291992
959.8104, 4.365417
960.2925, 4.964539
960.7746, 6.482483
961.2567, 8.941193
961.7388, 10.66544
962.2209, 10.04434
962.7031, 8.789246
963.1852, 7.689056
963.6673, 6.865723
964.1494, 7.509979
964.6315, 10.21045
965.1136, 12.21381
965.5958, 12.00586
966.0779, 10.98813
966.5600, 12.51501
967.0421, 15.66382
967.5242, 17.84064
968.0063, 16.86099
968.4885, 16.38397
968.9706, 18.17743
969.4527, 21.02954
969.9348, 23.56702
970.4169, 25.79520
970.8990, 27.51544
971.3812, 28.62164
971.8633, 29.73038
972.3454, 31.63507
972.8275, 33.78464
973.3096, 35.24548
973.7917, 35.94696
974.2739, 37.33167
974.7560, 40.78616
975.2381, 44.08252
975.7202, 46.52832
976.2023, 48.12842
976.6844, 48.77866
977.1666, 48.49829
977.6487, 48.23239
978.1308, 48.60245
978.6129, 48.78946
979.0950, 47.97458
979.5771, 46.37302
980.0593, 44.33597
980.5414, 41.66910
981.0235, 38.98965
981.5056, 36.49695
981.9877, 33.75388
982.4698, 29.86557
982.9520, 25.14993
983.4341, 21.78171
983.9162, 19.88702
984.3983, 18.40933
984.8804, 17.04214
985.3625, 15.43561
985.8447, 12.93509
986.3268, 9.662720
986.8089, 7.929688
987.2910, 8.388794
987.7731, 8.563599
988.2552, 7.542847
988.7374, 5.942596
989.2195, 4.741364
989.7016, 4.002350
990.1837, 4.047668
990.6658, 5.611053
991.1479, 6.707886
991.6301, 5.619049
992.1122, 4.324005
992.5944, 4.953125
993.0765, 8.067780
993.5586, 9.571869
994.0407, 9.270447
994.5228, 8.871887
995.0049, 9.916687
995.4871, 11.59430
995.9692, 12.88104
996.4513, 13.76581
996.9334, 14.64774
997.4155, 15.74350
997.8976, 16.85278
998.3798, 17.59082
998.8619, 18.43433
999.3440, 20.74487
999.8261, 24.36331
1000.308, 27.72253
1000.790, 30.41162
1001.272, 32.56418
1001.755, 33.89056
1002.237, 35.15466
1002.719, 37.00323
1003.201, 39.38370
1003.683, 42.97513
1004.165, 48.55698
1004.647, 53.61319
1005.129, 56.22998
1005.612, 57.24609
1006.094, 58.90286
1006.576, 61.10825
1007.058, 63.56122
1007.540, 67.02179
1008.022, 69.71268
1008.504, 70.36768
1008.986, 69.93936
1009.468, 70.10355
1009.951, 70.97287
1010.433, 71.42535
1010.915, 71.20648
1011.397, 70.98050
1011.879, 71.49832
1012.361, 72.44611
1012.843, 73.51971
1013.325, 74.69534
1013.807, 75.74146
1014.290, 77.32620
1014.772, 77.75143
1015.254, 75.99017
1015.736, 72.55655
1016.218, 69.43372
1016.700, 66.54910
1017.182, 63.46533
1017.664, 59.52814
1018.147, 55.88913
1018.629, 53.69019
1019.111, 52.09961
1019.593, 49.61325
1020.075, 45.22098
1020.557, 43.07886
1021.039, 43.74069
1021.521, 45.13751
1022.003, 45.24615
1022.486, 44.75851
1022.968, 44.65125
1023.450, 45.04437
1023.932, 46.38361
1024.414, 50.02429
1024.896, 53.23486
1025.378, 54.75961
1025.860, 55.42691
1026.343, 57.79672
1026.825, 61.70563
1027.307, 65.40186
1027.789, 68.27008
1028.271, 71.22592
1028.753, 75.54987
1029.235, 80.17029
1029.717, 83.70758
1030.199, 85.49356
1030.682, 88.34998
1031.164, 93.04663
1031.646, 96.71674
1032.128, 96.93341
1032.610, 95.09003
1033.092, 95.16849
1033.574, 96.46579
1034.056, 96.38956
1034.539, 93.52802
1035.021, 89.38150
1035.503, 83.85471
1035.985, 77.66071
1036.467, 71.38907
1036.949, 65.06512
1037.431, 59.60812
1037.913, 55.20276
1038.396, 51.12793
1038.878, 46.74176
1039.360, 42.33612
1039.842, 37.80087
1040.324, 33.20703
1040.806, 30.20395
1041.288, 29.34900
1041.770, 28.80182
1042.252, 27.97134
1042.734, 27.07687
1043.217, 26.44647
1043.699, 26.11954
1044.181, 26.29199
1044.663, 27.46802
1045.145, 28.08813
1045.627, 27.48889
1046.109, 26.11060
1046.591, 24.09912
1047.074, 21.40799
1047.556, 19.29950
1048.038, 17.75885
1048.520, 16.57410
1049.002, 16.14166
1049.484, 15.54550
1049.966, 13.71335
1050.448, 11.07166
1050.931, 8.775299
1051.413, 6.488251
1051.895, 5.778198
1052.377, 7.456116
1052.859, 9.179779
1053.341, 7.648346
1053.823, 4.110229
1054.305, 0.9966130
1054.787, 1.408966
1055.270, 2.567657
1055.752, 0.8825990
1056.234, 0.6615910
1056.716, 0.8770450
1057.198, 5.1116999E-02
1057.680, 1.967224
1058.162, 4.729767
1058.644, 5.964417
1059.126, 4.486298
1059.609, 2.321472
1060.091, 0.5269780
1060.573, 0.5254210
1061.055, 4.5959000E-02
1061.537, 2.829834
1062.019, 3.771057
1062.501, 2.389618
1062.983, 0.4710690
1063.466, 1.348633
1063.948, 2.628418
1064.430, 2.020813
1064.912, 0.1444090
1065.394, 1.159088
1065.876, 1.184448
1066.358, 0.4378360
1066.840, 1.561096
1067.323, 3.561249
1067.805, 3.579041
1068.287, 2.017517
1068.769, 1.839996
1069.251, 3.276520
1069.733, 5.206177
1070.215, 6.972260
1070.697, 8.833893
1071.179, 11.27023
1071.661, 13.95920
1072.144, 15.17239
1072.626, 14.53876
1073.108, 15.01877
1073.590, 17.64478
1074.072, 20.81393
1074.554, 22.37680
1075.036, 23.29358
1075.518, 24.83206
1076.001, 27.32483
1076.483, 30.02243
1076.965, 33.03430
1077.447, 35.84021
1077.929, 38.01987
1078.411, 39.86459
1078.893, 42.03586
1079.375, 44.58258
1079.858, 47.66812
1080.340, 51.71921
1080.822, 55.83783
1081.304, 59.23517
1081.786, 62.93002
1082.268, 67.77753
1082.750, 73.73712
1083.232, 80.76260
1083.714, 88.89536
1084.197, 97.33942
1084.679, 105.9285
1085.161, 114.2719
1085.643, 121.4856
1086.125, 128.1846
1086.607, 136.5971
1087.089, 146.8866
1087.571, 158.2769
1088.054, 170.6458
1088.536, 184.1482
1089.018, 199.2975
1089.500, 215.5909
1089.982, 232.1931
1090.464, 249.0779
1090.946, 266.1124
1091.428, 282.9796
1091.911, 300.3192
1092.393, 317.7466
1092.875, 336.3908
1093.357, 360.2812
1093.839, 387.6337
1094.321, 413.4638
1094.803, 436.0083
1095.285, 458.1491
1095.767, 481.8990
1096.250, 504.7711
1096.732, 525.3067
1097.214, 543.3801
1097.696, 560.2990
1098.178, 575.9435
1098.660, 586.7212
1099.142, 589.9610
1099.624, 588.8359
1100.106, 585.4520
1100.589, 579.2809
1101.071, 569.4562
1101.553, 555.4624
1102.035, 539.6089
1102.517, 521.6906
1102.999, 502.9027
1103.481, 484.1872
1103.963, 465.3872
1104.446, 446.0130
1104.928, 426.5726
1105.410, 408.7375
1105.892, 393.1889
1106.374, 379.0466
1106.856, 366.1496
1107.338, 354.6963
1107.820, 344.6587
1108.302, 336.2098
1108.785, 329.6401
1109.267, 325.0152
1109.749, 320.6009
1110.231, 315.1860
1110.713, 310.4477
1111.195, 307.1886
1111.677, 304.8262
1112.159, 301.3390
1112.641, 297.0294
1113.124, 294.3571
1113.606, 294.4984
1114.088, 294.1867
1114.570, 291.4112
1115.052, 287.1440
1115.534, 281.9108
1116.016, 275.7921
1116.498, 269.4485
1116.981, 262.9919
1117.463, 255.5419
1117.945, 246.6489
1118.427, 236.5240
1118.909, 224.5260
1119.391, 211.7355
1119.873, 199.9175
1120.355, 189.7573
1120.838, 179.3380
1121.320, 168.5399
1121.802, 157.7202
1122.284, 146.8192
1122.766, 136.2730
1123.248, 126.3432
1123.730, 117.0808
1124.212, 108.4598
1124.694, 100.3813
1125.177, 93.21808
1125.659, 87.25763
1126.141, 81.71634
1126.623, 75.61984
1127.105, 69.42392
1127.587, 64.34103
1128.069, 60.30154
1128.551, 56.73804
1129.033, 53.60782
1129.516, 50.69479
1129.998, 47.98376
1130.480, 45.37833
1130.962, 42.90277
1131.444, 40.44321
1131.926, 36.52554
1132.408, 30.84012
1132.890, 26.56348
1133.373, 27.11261
1133.855, 28.21326
1134.337, 27.64929
1134.819, 25.76053
1135.301, 22.87628
1135.783, 19.08893
1136.265, 16.27600
1136.747, 15.02359
1137.229, 14.56961
1137.712, 15.11963
1138.194, 15.51294
1138.676, 14.23178
1139.158, 11.27209
1139.640, 10.14282
1140.122, 11.05109
1140.604, 11.78961
1141.086, 11.32794
1141.569, 10.53885
1142.051, 10.17017
1142.533, 10.21719
1143.015, 10.71216
1143.497, 11.86792
1143.979, 12.86301
1144.461, 13.69046
1144.943, 14.10019
1145.426, 13.72473
1145.908, 13.18829
1146.390, 13.69458
1146.872, 14.64313
1147.354, 14.89059
1147.836, 13.21637
1148.318, 12.66373
1148.800, 13.63089
1149.282, 14.95978
1149.765, 15.87561
1150.247, 16.36002
1150.729, 16.20956
1151.211, 15.58447
1151.693, 15.10641
1152.175, 15.29285
1152.657, 15.27213
1153.139, 14.87234
1153.621, 14.28668
1154.104, 13.66937
1154.586, 13.10339
1155.068, 13.21057
1155.550, 13.86075
1156.032, 13.38779
1156.514, 9.307220
1156.996, 6.057556
1157.478, 5.295013
1157.961, 5.832428
1158.443, 5.652924
1158.925, 4.836639
1159.407, 3.854034
1159.889, 2.760559
1160.371, 2.016846
1160.853, 2.042236
1161.335, 2.380951
1161.818, 3.055603
1162.300, 3.757019
1162.782, 3.235748
1163.264, 1.655304
1163.746, 1.324036
1164.228, 3.003296
1164.710, 4.361511
1165.192, 3.139069
1165.674, 1.428497
1166.156, 0.8929440
1166.639, 1.310608
1167.121, 1.137268
1167.603, 0.3805850
1168.085, 0.4326780
1168.567, 1.168793
1169.049, 1.815094
1169.531, 2.529968
1170.013, 3.030487
1170.496, 3.012604
1170.978, 2.517731
1171.460, 1.459564
1171.942, 0.2300420
1172.424, 1.293884
1172.906, 0.8186040
1173.388, 8.8134997E-02
1173.870, 0.4825740
1174.353, 1.352081
1174.835, 1.859924
1175.317, 1.948547
1175.799, 1.660004
1176.281, 0.9127500
1176.763, 0.4637450
1177.245, 1.089386
1177.727, 1.843140
1178.209, 1.533966
1178.692, 0.6999510
1179.174, 0.2674560
1179.656, 0.5134280
1180.138, 0.6875000
1180.620, 0.7152400
1181.102, 1.008453
1181.584, 2.420746
1182.066, 3.856934
1182.548, 3.952240
1183.031, 2.975830
1183.513, 1.455750
1183.995, 1.420135
1184.477, 2.569000
1184.959, 1.574432
1185.441, 3.8759999E-03
1185.923, 0.7897640
1186.405, 1.301239
1186.888, 2.643005
1187.370, 4.349670
1187.852, 4.582245
1188.334, 1.778870
1188.816, 0.2748410
1189.298, 0.7818300
1189.780, 1.555634
1190.262, 0.1062010
1190.745, 1.835022
1191.227, 1.210327
1191.709, 1.587372
1192.191, 3.657684
1192.673, 4.491058
1193.155, 4.253998
1193.637, 2.627655
1194.119, 0.8482970
1194.601, 0.4582210
1195.084, 0.8598630
1195.566, 1.088257
1196.048, 1.109406
1196.530, 1.469147
1197.012, 2.620697
1197.494, 3.439667
1197.976, 3.748169
1198.458, 3.559937
1198.941, 2.517334
1199.423, 1.146210
1199.905, 0.4838260
1200.387, 0.6116330
1200.869, 0.5040890
1201.351, 0.4129940
1201.833, 0.7192080
1202.315, 0.2246400
1202.797, 1.334839
1203.280, 0.2236940
1203.762, 1.692383
1204.244, 1.678680
1204.726, 0.7771610
1205.208, 2.685272
1205.690, 3.565002
1206.172, 3.771790
1206.654, 3.159912
1207.136, 2.388855
1207.619, 2.778259
1208.101, 3.768555
1208.583, 4.481140
1209.065, 4.799408
1209.547, 4.361755
1210.029, 2.473999
1210.511, 1.298981
1210.993, 1.763000
1211.476, 3.088318
1211.958, 4.377014
1212.440, 5.306976
1212.922, 5.036346
1213.404, 3.021637
1213.886, 1.949738
1214.368, 2.457550
1214.850, 2.986328
1215.333, 2.711975
1215.815, 2.362000
1216.297, 3.782776
1216.779, 5.938873
1217.261, 6.917816
1217.743, 6.055847
1218.225, 4.913330
1218.707, 3.435211
1219.189, 2.276886
1219.672, 1.716614
1220.154, 1.677399
1220.636, 1.965759
1221.118, 2.678284
1221.600, 4.199677
1222.082, 7.341034
1222.564, 8.604797
1223.046, 7.126526
1223.528, 5.963287
1224.011, 7.026245
1224.493, 8.949066
1224.975, 9.663330
1225.457, 9.463745
1225.939, 8.820190
1226.421, 7.750153
1226.903, 6.222321
1227.385, 3.886963
1227.868, 2.381622
1228.350, 3.147308
1228.832, 4.752563
1229.314, 5.000092
1229.796, 4.551239
1230.278, 4.412354
1230.760, 5.089935
1231.242, 5.067352
1231.724, 4.035706
1232.207, 3.610565
1232.689, 5.646698
1233.171, 7.819061
1233.653, 6.314056
1234.135, 3.141052
1234.617, 1.814209
1235.099, 3.557800
1235.581, 4.542999
1236.063, 4.761475
1236.546, 4.254944
1237.028, 2.404327
1237.510, 0.5334470
1237.992, 0.2579040
1238.474, 3.5767000E-02
1238.956, 1.326935
1239.438, 4.249847
1239.920, 6.278290
1240.403, 7.370239
1240.885, 7.707947
1241.367, 6.862396
1241.849, 5.711060
1242.331, 5.258118
1242.813, 5.217377
1243.295, 4.936676
1243.777, 4.157715
1244.260, 4.172485
1244.742, 4.979095
1245.224, 5.444824
1245.706, 4.239471
1246.188, 3.160278
1246.670, 4.028198
1247.152, 5.326996
1247.634, 5.854858
1248.116, 5.228088
1248.599, 4.936768
1249.081, 4.936768
1249.563, 4.686646
1250.045, 3.272858
1250.527, 2.153107
1251.009, 2.228027
1251.491, 2.816315
1251.973, 3.475372
1252.455, 4.058777
1252.938, 4.395203
1253.420, 4.204498
1253.902, 4.210022
1254.384, 5.864532
1254.866, 6.519470
1255.348, 4.245514
1255.830, 1.689667
1256.313, 1.298035
1256.795, 2.660950
1257.277, 3.870392
1257.759, 4.882507
1258.241, 5.475769
1258.723, 5.469238
1259.205, 5.114441
1259.687, 4.203156
1260.169, 3.352509
1260.651, 2.898438
1261.134, 2.896698
1261.616, 4.054016
1262.098, 6.026184
1262.580, 7.398285
1263.062, 7.424316
1263.544, 6.806305
1264.026, 5.300262
1264.508, 3.936890
1264.991, 3.802429
1265.473, 4.278870
1265.955, 4.311798
1266.437, 4.005707
1266.919, 3.687073
1267.401, 3.488159
1267.883, 3.103729
1268.365, 2.372711
1268.848, 2.047058
1269.330, 3.390747
1269.812, 5.058533
1270.294, 5.146759
1270.776, 4.105469
1271.258, 3.507690
1271.740, 3.423492
1272.222, 3.088959
1272.704, 2.456177
1273.187, 1.935913
1273.669, 1.852936
1274.151, 1.949829
1274.633, 2.164490
1275.115, 2.332458
1275.597, 2.115448
1276.079, 1.370422
1276.561, 1.327393
1277.043, 1.954010
1277.526, 2.723633
1278.008, 3.757294
1278.490, 4.272095
1278.972, 2.743195
1279.454, 1.251953
1279.936, 2.426697
1280.418, 6.115570
1280.900, 7.231506
1281.383, 6.095032
1281.865, 4.829559
1282.347, 4.592346
1282.829, 4.200226
1283.311, 2.778839
1283.793, 1.622681
1284.275, 2.117859
1284.757, 3.650604
1285.240, 3.317657
1285.722, 1.744049
1286.204, 1.021088
1286.686, 3.264618
1287.168, 3.865051
1287.650, 1.659576
1288.132, 0.5874020
1288.614, 0.9361270
1289.096, 4.2998999E-02
1289.578, 1.249115
1290.061, 2.619171
1290.543, 3.373840
1291.025, 2.965393
1291.507, 2.831268
1291.989, 3.070465
1292.471, 3.050171
1292.953, 1.939056
1293.435, 0.9767460
1293.918, 2.143921
1294.400, 4.182129
1294.882, 5.146088
1295.364, 4.799194
1295.846, 4.488770
1296.328, 5.414185
1296.810, 5.817902
1297.292, 4.784058
1297.775, 3.535217
1298.257, 2.678741
1298.739, 2.462036
1299.221, 3.357330
1299.703, 5.208618
1300.185, 5.216278
1300.667, 3.661224
1301.149, 2.038300
1301.631, 0.5126040
1302.114, 1.9805999E-02
1302.596, 0.0000000E+00
##END=



