##NAMES=Albite
##RRUFFID=R040129
##IDEAL CHEMISTRY=NaAlSi_3_O_8_
##LOCALITY=LaChance Quarry, Brunswick, Cumberland County, Maine, USA
##OWNER=RRUFF
##SOURCE=Bob Downs
##DESCRIPTION=Colorless fragment of a tabular single crystal
##STATUS=The identification of this mineral has been confirmed by X-ray diffraction and chemical analysis
##URL=rruff.info/R040129
##MEASURED CHEMISTRY=(Na_0.99_K_0.01_)Al_1.00_Si_3.00_O_8_
125.369, 0.000
126.758, 257.310
128.146, 0.319
129.534, 69.879
130.922, 37.192
132.309, 146.636
133.696, 692.469
135.083, 916.908
136.470, 1412.769
137.857, 2456.014
139.243, 3334.660
140.630, 4111.876
142.016, 4612.318
143.401, 5008.118
144.787, 5035.999
146.172, 4890.050
147.557, 4270.607
148.942, 4028.171
150.327, 4098.368
151.711, 4953.725
153.096, 6422.410
154.480, 7976.972
155.863, 9994.497
157.247, 11601.639
158.630, 12668.755
160.013, 13521.066
161.396, 13256.667
162.779, 12638.632
164.161, 11474.041
165.544, 10427.966
166.926, 9512.457
168.308, 9224.546
169.689, 9342.268
171.070, 9702.658
172.452, 9913.767
173.833, 10937.625
175.213, 11917.270
176.594, 13395.942
177.974, 15225.875
179.354, 16707.697
180.734, 18843.779
182.114, 19967.527
183.493, 19852.873
184.872, 19442.535
186.251, 18280.209
187.630, 15929.734
189.008, 13661.454
190.387, 10996.288
191.765, 9285.918
193.143, 7884.846
194.520, 6803.740
195.898, 6178.578
197.275, 5691.361
198.652, 5946.107
200.029, 6500.881
201.405, 7580.762
202.782, 8902.697
204.158, 10325.771
205.534, 11249.836
206.909, 11809.857
208.285, 11794.815
209.660, 10131.670
211.035, 8525.489
212.410, 6371.331
213.784, 4277.238
215.159, 3034.228
216.533, 1883.311
217.907, 1291.496
219.281, 902.785
220.654, 602.178
222.027, 349.673
223.400, 103.265
224.773, 81.945
226.146, 83.289
227.518, 156.443
228.891, 241.525
230.263, 249.537
231.634, 346.482
233.006, 219.367
234.377, 289.200
235.748, 303.006
237.119, 145.805
238.490, 310.600
239.860, 178.392
241.231, 205.821
242.601, 265.651
243.970, 836.830
245.340, 1452.648
246.709, 2099.351
248.079, 2525.047
249.448, 2924.802
250.816, 2970.458
252.185, 3093.777
253.553, 2589.770
254.921, 1950.435
256.289, 1305.479
257.657, 1036.857
259.024, 768.301
260.391, 655.251
261.758, 775.879
263.125, 893.210
264.492, 993.312
265.858, 1278.265
267.224, 1416.269
268.590, 1643.320
269.956, 1835.414
271.321, 1922.832
272.687, 2272.008
274.052, 2643.744
275.416, 3157.375
276.781, 3763.187
278.146, 5350.596
279.510, 7174.720
280.874, 9755.027
282.237, 13953.675
283.601, 19151.002
284.964, 25734.494
286.327, 30626.646
287.690, 34751.820
289.053, 37683.000
290.416, 36121.434
291.778, 31946.893
293.140, 25790.238
294.502, 19014.641
295.863, 13789.307
297.225, 9655.032
298.586, 7037.236
299.947, 5270.837
301.308, 3858.766
302.668, 3127.967
304.029, 2411.396
305.389, 2089.005
306.749, 1894.759
308.108, 1676.629
309.468, 1314.595
310.827, 1314.642
312.186, 1082.753
313.545, 1065.922
314.903, 1079.138
316.262, 1087.370
317.620, 1190.571
318.978, 1507.714
320.336, 2266.801
321.693, 3285.838
323.051, 4836.830
324.408, 6341.779
325.765, 7691.688
327.121, 8211.558
328.478, 8675.394
329.834, 7364.193
331.190, 5676.960
332.546, 4029.695
333.902, 2815.400
335.257, 1842.074
336.612, 1449.720
337.967, 1000.338
339.322, 852.930
340.677, 754.292
342.031, 774.245
343.385, 794.746
344.739, 786.797
346.093, 789.408
347.446, 834.128
348.799, 709.753
350.153, 647.388
351.505, 474.031
352.858, 395.675
354.210, 259.316
355.563, 276.950
356.915, 199.580
358.267, 128.217
359.618, 33.841
360.969, 10.292
362.321, 2.987
363.672, 35.450
365.022, 28.044
366.373, 17.527
367.723, 116.980
369.073, 73.580
370.423, 79.804
371.773, 39.812
373.122, 21.444
374.471, 154.086
375.821, 82.803
377.169, 19.442
378.518, 128.343
379.866, 86.802
381.215, 182.075
382.563, 52.007
383.910, 206.014
385.258, 34.933
386.605, 32.108
387.952, 63.884
389.299, 211.640
390.646, 12.156
391.992, 342.611
393.339, 507.536
394.685, 557.354
396.031, 794.161
397.376, 970.551
398.722, 1134.078
400.067, 969.188
401.412, 888.168
402.757, 844.320
404.101, 781.285
405.446, 699.458
406.790, 711.162
408.134, 507.970
409.478, 338.710
410.821, 207.371
412.165, 204.964
413.508, 194.415
414.851, 5.767
416.193, 134.059
417.536, 210.194
418.878, 29.728
420.220, 5.252
421.562, 43.812
422.904, 83.095
424.245, 65.070
425.586, 93.877
426.927, 152.754
428.268, 15.374
429.609, 101.479
430.949, 37.676
432.289, 42.856
433.629, 17.930
434.969, 4.393
436.309, 13.331
437.648, 129.457
438.987, 141.137
440.326, 233.795
441.665, 80.762
443.003, 173.488
444.342, 184.055
445.680, 333.140
447.018, 428.686
448.355, 511.223
449.693, 763.750
451.030, 751.269
452.367, 1014.878
453.704, 1155.391
455.041, 1510.902
456.377, 1264.399
457.713, 1455.884
459.049, 1453.349
460.385, 1363.792
461.721, 1510.211
463.056, 1698.604
464.391, 1975.969
465.726, 2429.304
467.061, 2890.611
468.395, 3888.886
469.730, 4952.130
471.064, 6931.342
472.398, 10037.522
473.731, 13890.664
475.065, 17425.775
476.398, 19737.855
477.731, 21861.896
479.064, 21377.904
480.397, 18559.879
481.729, 14278.822
483.062, 10858.729
484.394, 8290.601
485.725, 6365.438
487.057, 5326.242
488.389, 4686.012
489.720, 4443.748
491.051, 4392.450
492.382, 4594.120
493.712, 5197.756
495.043, 6118.356
496.373, 7626.924
497.703, 9867.460
499.032, 13401.960
500.362, 18720.420
501.691, 25825.861
503.020, 33793.262
504.349, 42015.633
505.678, 46658.191
507.007, 48658.523
508.335, 44174.816
509.663, 35880.270
510.991, 26531.682
512.319, 19361.898
513.646, 14617.640
514.973, 10692.061
516.300, 8351.022
517.627, 6577.035
518.954, 5527.879
520.280, 4587.443
521.607, 3581.244
522.933, 3394.523
524.259, 2765.762
525.584, 2584.461
526.910, 2151.930
528.235, 1887.554
529.560, 1889.825
530.885, 1634.174
532.209, 1557.170
533.534, 1349.904
534.858, 1254.327
536.182, 1136.865
537.506, 1049.843
538.829, 939.974
540.152, 874.040
541.476, 781.784
542.799, 655.980
544.121, 681.020
545.444, 401.935
546.766, 604.271
548.088, 569.037
549.410, 456.553
550.732, 679.626
552.053, 694.264
553.375, 522.243
554.696, 484.654
556.017, 363.381
557.337, 335.924
558.658, 573.750
559.978, 463.968
561.298, 447.870
562.618, 250.363
563.938, 582.294
565.257, 406.150
566.576, 548.342
567.895, 598.183
569.214, 557.014
570.533, 722.816
571.851, 853.549
573.170, 874.254
574.488, 1045.350
575.805, 1651.981
577.123, 1690.610
578.440, 1788.516
579.758, 1633.980
581.075, 1315.707
582.391, 1232.982
583.708, 668.108
585.024, 804.373
586.341, 683.841
587.657, 378.187
588.972, 503.396
590.288, 447.271
591.603, 302.790
592.918, 341.092
594.233, 129.076
595.548, 160.341
596.863, 307.493
598.177, 268.665
599.491, 102.893
600.805, 151.742
602.119, 253.919
603.432, 64.073
604.746, 206.199
606.059, 243.303
607.372, 471.384
608.685, 199.441
609.997, 160.476
611.309, 383.486
612.621, 225.475
613.933, 350.439
615.245, 275.380
616.557, 395.299
617.868, 372.194
619.179, 588.066
620.490, 616.917
621.801, 630.743
623.111, 510.547
624.421, 1012.329
625.731, 1012.087
627.041, 1386.823
628.351, 1178.538
629.660, 1721.229
630.970, 1699.899
632.279, 1861.547
633.588, 2186.173
634.896, 1890.777
636.205, 1649.360
637.513, 1442.921
638.821, 1674.461
640.129, 1417.979
641.437, 1722.477
642.744, 1777.952
644.051, 2214.407
645.358, 2165.842
646.665, 2085.255
647.972, 1980.646
649.278, 1731.020
650.584, 1399.371
651.890, 940.704
653.196, 755.017
654.502, 758.309
655.807, 537.580
657.113, 564.833
658.418, 247.067
659.722, 303.280
661.027, 541.476
662.331, 120.651
663.636, 164.807
664.940, 172.941
666.244, 125.060
667.547, 126.246
668.851, 195.233
670.154, 40.291
671.457, 104.326
672.760, 24.340
674.062, 30.672
675.365, 116.263
676.667, 47.180
677.969, 175.089
679.271, 75.002
680.572, 62.918
681.874, 34.152
683.175, 52.738
684.476, 42.629
685.777, 151.501
687.077, 50.601
688.378, 76.757
689.678, 86.954
690.978, 53.797
692.278, 51.408
693.577, 97.372
694.877, 39.252
696.176, 125.973
697.475, 94.217
698.774, 13.581
700.072, 154.608
701.371, 110.913
702.669, 80.051
703.967, 59.312
705.265, 147.700
706.562, 125.197
707.860, 132.226
709.157, 6.634
710.454, 126.989
711.751, 269.946
713.047, 109.793
714.344, 270.375
715.640, 52.527
716.936, 139.658
718.232, 123.937
719.527, 83.922
720.823, 283.014
722.118, 50.933
723.413, 126.833
724.708, 121.717
726.002, 11.732
727.297, 134.572
728.591, 314.397
729.885, 141.793
731.179, 197.916
732.472, 247.610
733.766, 72.289
735.059, 104.969
736.352, 184.969
737.645, 169.834
738.937, 139.690
740.230, 145.339
741.522, 186.977
742.814, 135.600
744.106, 124.223
745.397, 199.832
746.689, 254.445
747.980, 206.066
749.271, 218.680
750.562, 173.055
751.853, 337.566
753.143, 464.160
754.433, 405.742
755.723, 637.979
757.013, 881.406
758.303, 1141.955
759.592, 1558.967
760.881, 1775.494
762.170, 2240.012
763.459, 2294.518
764.748, 2114.014
766.036, 1920.406
767.325, 1202.881
768.613, 1399.348
769.901, 849.811
771.188, 1131.266
772.476, 1082.711
773.763, 1192.145
775.050, 1146.574
776.337, 916.992
777.624, 950.400
778.910, 609.801
780.196, 583.193
781.482, 511.578
782.768, 488.953
784.054, 362.324
785.339, 250.684
786.625, 321.039
787.910, 304.385
789.195, 477.725
790.479, 473.770
791.764, 570.383
793.048, 434.703
794.332, 525.016
795.616, 259.322
796.900, 426.621
798.183, 464.914
799.467, 631.203
800.750, 353.486
802.033, 542.762
803.316, 638.035
804.598, 729.301
805.880, 1109.562
807.163, 1015.816
808.445, 1736.070
809.726, 2219.316
811.008, 2661.559
812.289, 3487.799
813.570, 4201.033
814.851, 4279.266
816.132, 4525.492
817.413, 3720.514
818.693, 2775.719
819.973, 2108.936
821.253, 1675.973
822.533, 1125.016
823.813, 966.223
825.092, 931.879
826.371, 755.828
827.650, 620.209
828.929, 621.508
830.208, 582.508
831.486, 695.225
832.764, 668.418
834.042, 344.252
835.320, 426.035
836.598, 264.145
837.875, 314.895
839.152, 407.602
840.429, 307.771
841.706, 262.873
842.983, 442.340
844.259, 413.174
845.536, 18.969
846.812, 424.076
848.088, 61.062
849.363, 211.811
850.639, 225.926
851.914, 142.383
853.189, 332.545
854.464, 278.436
855.739, 14.342
857.013, 212.598
858.288, 397.277
859.562, 119.424
860.836, 55.998
862.110, 105.189
863.383, 212.078
864.656, 114.396
865.930, 223.832
867.203, 53.301
868.475, 23.541
869.748, 287.408
871.020, 19.346
872.292, 41.332
873.564, 96.557
874.836, 81.838
876.108, 40.797
877.379, 92.096
878.650, 87.609
879.922, 165.686
881.192, 11.037
882.463, 156.432
883.733, 85.271
885.004, 99.705
886.274, 120.154
887.544, 62.375
888.813, 66.246
890.083, 16.896
891.352, 17.301
892.621, 37.186
893.890, 60.686
895.159, 159.199
896.427, 121.721
897.695, 162.004
898.964, 110.824
900.232, 152.406
901.499, 226.000
902.767, 173.607
904.034, 164.230
905.301, 196.859
906.568, 178.504
907.835, 137.158
909.102, 242.855
910.368, 258.564
911.634, 43.287
912.900, 215.023
914.166, 246.779
915.432, 203.549
916.697, 402.332
917.962, 142.125
919.227, 35.932
920.492, 281.756
921.757, 141.377
923.021, 152.244
924.285, 147.127
925.550, 256.043
926.813, 296.975
928.077, 202.922
929.341, 61.910
930.604, 127.908
931.867, 90.918
933.130, 345.941
934.393, 94.979
935.655, 103.027
936.918, 320.086
938.180, 118.156
939.442, 366.242
940.703, 172.334
941.965, 241.441
943.226, 270.564
944.488, 258.695
945.749, 76.844
947.009, 136.002
948.270, 111.662
949.530, 244.357
950.791, 137.555
952.051, 156.766
953.311, 103.988
954.570, 209.219
955.830, 56.471
957.089, 174.734
958.348, 297.010
959.607, 196.309
960.866, 200.617
962.124, 154.939
963.383, 125.273
964.641, 150.633
965.899, 313.006
967.156, 302.395
968.414, 354.809
969.671, 513.240
970.928, 479.684
972.185, 654.141
973.442, 642.615
974.699, 1145.102
975.955, 1043.609
977.211, 1596.131
978.468, 1351.691
979.723, 1071.268
980.979, 1126.873
982.234, 907.492
983.490, 639.127
984.745, 989.775
986.000, 44.461
987.254, 534.604
988.509, 556.713
989.763, 208.455
991.017, 407.734
992.271, 289.521
993.525, 364.355
994.779, 257.668
996.032, 212.396
997.285, 364.600
998.538, 303.160
999.791, 421.135
1001.044, 183.568
1002.296, 684.613
1003.548, 247.701
1004.800, 467.844
1006.052, 389.084
1007.304, 424.055
1008.555, 427.572
1009.807, 397.939
1011.058, 493.703
1012.309, 575.445
1013.559, 599.924
1014.810, 714.418
1016.060, 408.307
1017.310, 498.854
1018.560, 641.547
1019.810, 803.424
1021.060, 601.359
1022.309, 901.227
1023.558, 1295.592
1024.807, 1117.852
1026.056, 1749.367
1027.305, 1824.818
1028.553, 2500.514
1029.801, 3014.508
1031.049, 3604.184
1032.297, 3790.428
1033.545, 3737.570
1034.793, 3441.631
1036.040, 3138.469
1037.287, 2266.486
1038.534, 1854.826
1039.781, 1576.104
1041.027, 1342.152
1042.274, 1133.008
1043.520, 808.676
1044.766, 841.389
1046.012, 837.549
1047.257, 671.406
1048.503, 523.156
1049.748, 514.699
1050.993, 656.355
1052.238, 301.920
1053.483, 638.400
1054.727, 525.221
1055.971, 306.777
1057.216, 375.584
1058.459, 614.619
1059.703, 360.969
1060.947, 238.500
1062.190, 422.531
1063.433, 261.211
1064.676, 331.652
1065.919, 340.602
1067.162, 322.672
1068.404, 15.234
1069.646, 443.975
1070.888, 74.191
1072.130, 80.730
1073.372, 553.732
1074.613, 378.363
1075.855, 248.107
1077.096, 551.613
1078.337, 496.752
1079.578, 328.941
1080.818, 809.551
1082.059, 515.191
1083.299, 672.598
1084.539, 668.453
1085.779, 1089.439
1087.018, 941.125
1088.258, 1394.699
1089.497, 1053.393
1090.736, 1356.465
1091.975, 1849.297
1093.213, 2011.945
1094.452, 2496.189
1095.690, 3117.562
1096.928, 3860.018
1098.166, 3985.840
1099.404, 4636.055
1100.642, 4684.371
1101.879, 4734.959
1103.116, 3917.289
1104.353, 3760.242
1105.590, 3243.488
1106.827, 2865.029
1108.063, 2575.059
1109.299, 2944.141
1110.536, 2271.244
1111.771, 2618.469
1113.007, 2276.105
1114.243, 2220.467
1115.478, 2513.771
1116.713, 2479.141
1117.948, 2088.402
1119.183, 2047.719
1120.418, 1866.742
1121.652, 1454.746
1122.886, 1316.363
1124.120, 1152.719
1125.354, 1013.455
1126.588, 780.191
1127.821, 563.773
1129.055, 545.268
1130.288, 284.285
1131.521, 511.516
1132.753, 158.576
1133.986, 335.994
1135.218, 12.768
1136.450, 30.664
1137.682, 538.309
1138.914, 9.182
1140.146, 330.105
1141.377, 265.730
1142.609, 37.316
1143.840, 93.773
1145.071, 79.635
1146.301, 7.355
1147.532, 240.461
1148.762, 48.197
1149.992, 254.496
1151.222, 242.660
1152.452, 238.812
1153.682, 260.959
1154.911, 332.271
1156.140, 155.842
1157.369, 366.959
1158.598, 124.434
1159.827, 144.176
1161.055, 288.660
1162.284, 265.607
1163.512, 239.262
1164.740, 225.357
1165.967, 200.205
1167.195, 159.318
1168.422, 149.855
1169.650, 101.020
1170.877, 71.189
1172.103, 106.799
1173.330, 107.398
1174.557, 8.760
1175.783, 34.613
1177.009, 169.539
1178.235, 47.195
1179.461, 94.223
1180.686, 179.893
1181.912, 41.365
1183.137, 29.582
1184.362, 228.029
1185.587, 153.811
1186.811, 92.396
1188.036, 182.324
1189.260, 236.021
1190.484, 76.508
1191.708, 74.305
1192.932, 208.547
1194.155, 282.658
1195.378, 60.900
1196.602, 121.111
1197.825, 95.398
1199.047, 118.631
1200.270, 138.809
1201.492, 326.932
1202.715, 122.006
1203.937, 409.023
1205.159, 77.004
1206.380, 172.854
1207.602, 129.812
1208.823, 248.561
1210.044, 11.258
1211.265, 150.883
1212.486, 49.457
1213.707, 239.359
1214.927, 121.818
1216.147, 78.225
1217.367, 294.576
1218.587, 55.908
1219.807, 247.291
1221.027, 50.562
1222.246, 74.480
1223.465, 123.465
1224.684, 73.607
1225.903, 197.205
1227.121, 438.965
1228.340, 86.672
1229.558, 140.320
1230.776, 269.912
1231.994, 236.459
1233.212, 307.006
1234.429, 93.396
1235.646, 300.777
1236.864, 208.096
1238.081, 61.365
1239.297, 304.580
1240.514, 160.754
1241.730, 126.869
1242.947, 342.936
1244.163, 59.947
1245.378, 156.906
1246.594, 129.801
1247.810, 300.641
1249.025, 375.412
1250.240, 15.117
1251.455, 134.422
1252.670, 299.324
1253.885, 13.832
1255.099, 163.244
1256.313, 154.602
1257.527, 121.893
1258.741, 23.098
1259.955, 30.730
1261.168, 106.275
1262.382, 8.762
1263.595, 108.121
1264.808, 99.939
1266.021, 140.688
1267.233, 42.320
1268.446, 227.781
1269.658, 7.131
1270.870, 188.400
1272.082, 47.395
1273.294, 214.721
1274.505, 229.760
1275.716, 115.734
1276.928, 87.619
1278.139, 105.432
1279.349, 43.887
1280.560, 133.705
1281.770, 115.785
1282.981, 147.865
1284.191, 20.744
1285.401, 102.057
1286.610, 1.705
1287.820, 46.455
1289.029, 286.111
1290.239, 480.328
1291.448, 33.023
1292.656, 200.334
1293.865, 90.180
1295.073, 114.484
1296.282, 162.193
1297.490, 113.188
1298.698, 97.680
1299.906, 11.730
1301.113, 41.879
1302.320, 135.137
1303.528, 88.328
1304.735, 201.119
1305.942, 251.922
1307.148, 136.932
1308.355, 192.881
1309.561, 319.766
1310.767, 18.594
1311.973, 248.264
1313.179, 196.688
1314.384, 250.002
1315.590, 11.961
1316.795, 371.850
1318.000, 35.742
1319.205, 320.320
1320.410, 119.092
1321.614, 224.195
1322.819, 278.977
1324.023, 91.178
1325.227, 362.756
1326.431, 201.379
1327.634, 472.076
1328.838, 234.945
1330.041, 143.582
1331.244, 177.848
1332.447, 322.797
1333.650, 397.064
1334.852, 165.500
1336.055, 317.211
1337.257, 196.855
1338.459, 216.006
1339.661, 371.408
1340.862, 198.871
1342.064, 380.488
1343.265, 478.947
1344.466, 386.451
1345.667, 422.990
1346.868, 421.145
1348.068, 406.725
1349.269, 388.697
1350.469, 520.391
1351.669, 310.836
1352.869, 575.057
1354.069, 575.732
1355.268, 539.727
1356.468, 528.916
1357.667, 251.557
1358.866, 492.135
1360.065, 773.770
1361.263, 549.633
1362.462, 614.174
1363.660, 526.668
1364.858, 497.059
1366.056, 601.785
1367.254, 429.377
1368.451, 443.312
1369.649, 606.473
1370.846, 597.652
1372.043, 584.365
1373.240, 632.531
1374.436, 543.135
1375.633, 503.031
1376.829, 616.930
1378.025, 565.453
1379.221, 560.129
1380.417, 461.594
1381.613, 539.592
1382.808, 521.445
1384.003, 592.201
1385.199, 498.551
1386.393, 685.887
1387.588, 417.604
1388.783, 476.693
1389.977, 687.115
1391.171, 434.229
1392.365, 640.227
1393.559, 517.213
1394.753, 523.346
1395.946, 553.750
1397.140, 597.832
1398.333, 536.633
1399.526, 575.459
1400.719, 651.686
1401.911, 491.488
1403.104, 727.799
1404.296, 643.213
1405.488, 577.420
1406.680, 433.006
1407.872, 556.691
1409.063, 504.426
1410.255, 650.684
1411.446, 820.074
1412.637, 492.377
1413.828, 718.645
1415.018, 342.357
1416.209, 695.232
1417.399, 846.252
1418.589, 759.521
1419.779, 591.473
1420.969, 664.266
1422.159, 639.000
1423.348, 693.123
1424.537, 559.646
1425.726, 721.170
1426.915, 814.467
1428.104, 652.414
1429.293, 696.457
1430.481, 801.297
1431.669, 573.463
1432.857, 590.525
1434.045, 640.561
1435.233, 809.523
1436.420, 570.408
1437.608, 886.045
1438.795, 737.871
1439.982, 756.639
1441.169, 679.658
1442.355, 812.254
1443.542, 711.789
1444.728, 714.324
1445.914, 745.826
1447.100, 721.354
1448.286, 820.795
1449.472, 747.135
1450.657, 866.350
1451.842, 487.508
1453.027, 949.547
1454.212, 577.430
1455.397, 641.176
1456.581, 815.799
1457.766, 504.336
1458.950, 633.861
1460.134, 738.320
1461.318, 586.816
1462.501, 1040.289
1463.685, 502.801
1464.868, 571.387
1466.051, 790.926
1467.234, 443.949
1468.417, 1001.469
1469.600, 538.000
1470.782, 550.600
1471.965, 916.361
1473.147, 556.521
1474.329, 456.738
1475.510, 611.021
1476.692, 584.365
1477.873, 358.773
1479.055, 494.209
1480.236, 608.676
1481.416, 339.170
1482.597, 742.729
1483.778, 260.340
1484.958, 610.016
1486.138, 415.760
1487.318, 314.600
1488.498, 379.559
1489.678, 270.197
1490.857, 443.963
1492.037, 356.465
1493.216, 204.199
1494.395, 497.191
1495.574, 371.430
1496.752, 327.895
1497.931, 318.592
1499.109, 259.514
1500.287, 138.902
1501.465, 22.125
1502.643, 11.117
1503.820, 0.006
1504.998, 223.512
1506.175, 176.545
1507.352, 415.967
1508.529, 258.002
1509.706, 163.637
1510.882, 199.951
1512.059, 176.293
1513.235, 323.324
1514.411, 227.408
1515.587, 367.352
1516.762, 5.873
1517.938, 466.102
1519.113, 167.121
1520.288, 85.691
1521.463, 0.000
##END=



