##NAMES=Albite
##RRUFFID=R050253
##IDEAL CHEMISTRY=NaAlSi_3_O_8_
##LOCALITY=Madawaska/Faraday mine, Bancroft, Ontario, Canada
##OWNER=RRUFF
##SOURCE=Marcus Origlieri
##DESCRIPTION=Colorless to brown prismatic single crystals
##STATUS=The identification of this mineral has been confirmed by X-ray diffraction and chemical analysis
##URL=rruff.info/R050253
##MEASURED CHEMISTRY=(Na_0.99_Ca_0.01_)Al_1.00_(Si_0.99_Al_0.01_)_3_O_8_
156.7627, 0.0000000E+00
157.2449, 1.622314
157.7270, 0.3685300
158.2091, 15.65198
158.6912, 44.69202
159.1733, 82.13831
159.6554, 124.4037
160.1376, 177.0474
160.6197, 227.1188
161.1018, 272.0320
161.5839, 311.9790
162.0660, 340.2224
162.5481, 355.2448
163.0303, 356.8848
163.5124, 344.9846
163.9945, 310.1594
164.4766, 268.8154
164.9587, 226.7246
165.4408, 183.1819
165.9230, 147.1692
166.4051, 120.4144
166.8872, 103.7378
167.3693, 98.47266
167.8514, 108.5396
168.3335, 127.8065
168.8157, 153.5073
169.2978, 186.5491
169.7799, 220.2384
170.2620, 254.4501
170.7441, 286.2156
171.2262, 309.3229
171.7084, 317.0311
172.1905, 316.5789
172.6726, 313.8722
173.1547, 308.8842
173.6368, 305.9611
174.1189, 306.6040
174.6011, 311.4373
175.0832, 322.8193
175.5653, 343.6453
176.0474, 370.8506
176.5295, 400.3774
177.0116, 431.0045
177.4938, 465.3918
177.9759, 507.6511
178.4580, 556.8069
178.9401, 607.6873
179.4222, 657.0566
179.9043, 706.4287
180.3865, 758.5771
180.8686, 815.4753
181.3507, 873.1309
181.8328, 926.4915
182.3149, 975.6516
182.7970, 1020.938
183.2792, 1064.954
183.7613, 1105.827
184.2434, 1138.474
184.7255, 1163.249
185.2076, 1178.090
185.6897, 1179.492
186.1718, 1167.698
186.6540, 1146.117
187.1361, 1115.761
187.6182, 1077.123
188.1003, 1032.547
188.5824, 981.9370
189.0645, 928.4174
189.5467, 876.1232
190.0288, 823.1544
190.5109, 772.8171
190.9930, 726.8872
191.4751, 684.5323
191.9572, 645.5604
192.4394, 609.9398
192.9215, 578.0488
193.4036, 552.5255
193.8857, 533.0695
194.3678, 515.6807
194.8499, 498.9828
195.3321, 483.9851
195.8142, 470.9258
196.2963, 459.6868
196.7784, 450.7777
197.2605, 445.3053
197.7426, 443.4716
198.2248, 444.8601
198.7069, 449.8810
199.1890, 458.6186
199.6711, 468.7946
200.1532, 479.4337
200.6353, 491.0656
201.1175, 506.3850
201.5996, 525.1105
202.0817, 548.2238
202.5638, 576.7487
203.0459, 610.5048
203.5280, 648.8979
204.0102, 691.7308
204.4923, 739.0429
204.9744, 792.0375
205.4565, 851.9830
205.9386, 914.2501
206.4207, 976.1226
206.9029, 1037.967
207.3850, 1095.553
207.8671, 1152.238
208.3492, 1205.505
208.8313, 1232.971
209.3134, 1234.018
209.7956, 1210.872
210.2777, 1162.766
210.7598, 1086.376
211.2419, 998.6604
211.7240, 899.0453
212.2061, 788.8295
212.6883, 683.4986
213.1704, 581.7036
213.6525, 486.6414
214.1346, 402.4889
214.6167, 331.2501
215.0988, 269.3132
215.5810, 216.7528
216.0631, 173.6301
216.5452, 135.6678
217.0273, 103.0898
217.5094, 75.10797
217.9915, 51.66174
218.4737, 33.17780
218.9558, 17.36694
219.4379, 4.551880
219.9200, 5.550781
220.4021, 14.68744
220.8842, 22.83240
221.3664, 29.90588
221.8485, 35.60626
222.3306, 39.88702
222.8127, 43.19006
223.2948, 45.40259
223.7769, 46.63806
224.2591, 46.96844
224.7412, 46.39227
225.2233, 44.98187
225.7054, 42.64819
226.1875, 38.58832
226.6696, 35.37292
227.1518, 33.71631
227.6339, 33.53375
228.1160, 32.32385
228.5981, 29.70325
229.0802, 26.52087
229.5623, 23.56567
230.0445, 21.55908
230.5266, 18.25409
231.0087, 12.98352
231.4908, 5.893311
231.9729, 0.8479610
232.4550, 7.185608
232.9372, 13.22595
233.4193, 18.85846
233.9014, 23.31439
234.3835, 28.97260
234.8656, 36.53882
235.3477, 45.76257
235.8299, 54.49994
236.3120, 62.87787
236.7941, 70.68280
237.2762, 77.59619
237.7583, 82.72107
238.2404, 88.81262
238.7226, 96.43103
239.2047, 105.4136
239.6868, 114.0916
240.1689, 122.0285
240.6510, 130.2615
241.1331, 139.5672
241.6153, 150.4982
242.0974, 161.2504
242.5795, 171.1241
243.0616, 180.5305
243.5437, 191.7974
244.0258, 205.2723
244.5080, 220.1981
244.9901, 236.0054
245.4722, 252.0771
245.9543, 270.3864
246.4364, 291.5012
246.9185, 314.9846
247.4007, 338.9034
247.8828, 362.4473
248.3649, 387.3321
248.8470, 414.4125
249.3291, 444.8614
249.8112, 475.6207
250.2934, 509.1005
250.7755, 542.5775
251.2576, 566.7581
251.7397, 580.9229
252.2218, 586.6357
252.7039, 584.2665
253.1861, 572.6672
253.6682, 555.5017
254.1503, 530.8580
254.6324, 501.1199
255.1145, 472.9454
255.5966, 445.3913
256.0788, 421.1024
256.5609, 401.5840
257.0430, 387.0746
257.5251, 376.3536
258.0072, 369.8490
258.4893, 366.9388
258.9715, 366.0883
259.4536, 367.1746
259.9357, 370.5835
260.4178, 376.6136
260.8999, 385.4932
261.3820, 395.9061
261.8642, 407.9486
262.3463, 421.4333
262.8284, 436.0118
263.3105, 450.8412
263.7926, 468.6159
264.2747, 490.8576
264.7569, 518.6165
265.2390, 545.1879
265.7211, 570.1389
266.2032, 594.6389
266.6853, 621.2867
267.1674, 650.8768
267.6496, 679.9075
268.1317, 707.2845
268.6138, 733.5046
269.0959, 755.8480
269.5780, 774.3517
270.0602, 788.9587
270.5423, 798.8655
271.0244, 803.3528
271.5065, 805.8339
271.9886, 806.5156
272.4707, 805.5453
272.9529, 805.9578
273.4350, 807.6832
273.9171, 810.6518
274.3992, 814.7134
274.8813, 819.6086
275.3634, 827.0142
275.8456, 837.4888
276.3277, 850.8147
276.8098, 865.6024
277.2919, 881.5172
277.7740, 899.2071
278.2561, 919.4340
278.7382, 942.1573
279.2203, 967.3422
279.7025, 994.6302
280.1846, 1024.432
280.6667, 1059.299
281.1488, 1099.548
281.6309, 1143.767
282.1130, 1189.950
282.5952, 1238.105
283.0773, 1293.399
283.5594, 1356.530
284.0415, 1427.749
284.5236, 1505.894
285.0057, 1591.149
285.4879, 1683.491
285.9700, 1784.384
286.4521, 1893.436
286.9342, 2006.551
287.4163, 2125.367
287.8984, 2244.684
288.3806, 2357.583
288.8627, 2464.629
289.3448, 2554.363
289.8269, 2625.807
290.3090, 2676.399
290.7911, 2692.076
291.2733, 2672.881
291.7554, 2617.139
292.2375, 2516.494
292.7196, 2372.910
293.2017, 2210.745
293.6838, 2029.713
294.1660, 1837.508
294.6481, 1655.386
295.1302, 1484.925
295.6123, 1326.751
296.0944, 1181.028
296.5765, 1048.816
297.0587, 932.2347
297.5408, 833.4119
298.0229, 749.0284
298.5050, 675.1448
298.9871, 611.4213
299.4692, 554.7670
299.9514, 504.4222
300.4335, 459.5616
300.9156, 420.3146
301.3977, 387.3027
301.8798, 358.8391
302.3619, 333.3381
302.8441, 310.5905
303.3262, 290.5826
303.8083, 273.3928
304.2904, 258.8386
304.7725, 245.8195
305.2546, 234.0408
305.7368, 224.0280
306.2189, 217.2179
306.7010, 213.0475
307.1831, 209.1936
307.6652, 203.7018
308.1473, 197.9474
308.6295, 193.4380
309.1116, 190.4956
309.5937, 188.9543
310.0758, 189.4014
310.5579, 191.2205
311.0400, 192.9473
311.5222, 193.4383
312.0043, 193.6586
312.4864, 194.2642
312.9685, 195.3334
313.4506, 196.8541
313.9327, 199.9409
314.4149, 203.3476
314.8970, 205.1926
315.3791, 202.1612
315.8612, 199.3107
316.3433, 199.7379
316.8254, 203.6478
317.3076, 208.3299
317.7897, 212.8009
318.2718, 217.4207
318.7539, 222.6095
319.2360, 227.7186
319.7181, 234.2784
320.2003, 242.8869
320.6824, 253.4784
321.1645, 265.3653
321.6466, 277.2285
322.1287, 290.7870
322.6108, 307.1978
323.0930, 326.8217
323.5751, 349.4436
324.0572, 375.4780
324.5393, 404.4777
325.0214, 435.6793
325.5035, 471.5310
325.9857, 507.5852
326.4678, 542.1273
326.9499, 576.7531
327.4320, 606.9014
327.9141, 636.0023
328.3962, 660.0529
328.8784, 671.5708
329.3605, 671.4684
329.8426, 657.9352
330.3247, 628.6376
330.8068, 579.3698
331.2889, 528.4008
331.7711, 472.2611
332.2532, 416.2141
332.7353, 366.3914
333.2174, 323.5991
333.6995, 285.0300
334.1816, 250.3416
334.6638, 219.3463
335.1459, 193.5222
335.6280, 174.5732
336.1101, 158.9703
336.5922, 143.9576
337.0743, 128.7311
337.5565, 116.0638
338.0386, 106.6257
338.5207, 99.95337
339.0028, 93.72339
339.4849, 87.83514
339.9670, 82.57935
340.4492, 77.74670
340.9313, 73.18848
341.4134, 71.14349
341.8955, 72.71143
342.3776, 75.63501
342.8597, 74.92072
343.3419, 70.14441
343.8240, 65.36188
344.3061, 62.31854
344.7882, 60.99341
345.2703, 61.12402
345.7524, 63.04327
346.2346, 65.23193
346.7167, 65.55322
347.1988, 64.17688
347.6809, 62.80365
348.1630, 62.21906
348.6451, 61.99963
349.1273, 61.31915
349.6094, 60.18951
350.0915, 57.91174
350.5736, 52.89496
351.0557, 46.17200
351.5378, 40.58496
352.0200, 37.23218
352.5021, 34.80914
352.9842, 31.53540
353.4663, 27.53656
353.9484, 23.61438
354.4305, 20.23395
354.9127, 17.27869
355.3948, 14.57703
355.8769, 12.14209
356.3590, 9.910217
356.8411, 7.610413
357.3232, 5.465637
357.8054, 3.930725
358.2875, 4.048462
358.7696, 4.323486
359.2517, 3.335876
359.7338, 0.9223630
360.2159, 1.236572
360.6981, 1.875671
361.1802, 1.855652
361.6623, 2.137207
362.1444, 3.068481
362.6265, 4.358093
363.1086, 6.418396
363.5908, 9.019470
364.0729, 10.58813
364.5550, 10.35107
365.0371, 9.068604
365.5192, 7.082031
366.0013, 2.817200
366.4835, 0.2199710
366.9656, 0.6445920
367.4477, 3.056152
367.9298, 5.264587
368.4119, 7.869629
368.8940, 9.744751
369.3762, 10.30701
369.8583, 8.983276
370.3404, 7.755737
370.8225, 6.289246
371.3046, 4.907410
371.7867, 4.254517
372.2689, 5.186279
372.7510, 6.087952
373.2331, 6.778992
373.7152, 7.194214
374.1973, 6.628052
374.6794, 4.563232
375.1616, 2.255432
375.6437, 0.5457760
376.1258, 0.6411130
376.6079, 0.9459230
377.0900, 6.7688003E-02
377.5721, 1.903931
378.0543, 3.168335
378.5364, 3.889343
379.0185, 3.608765
379.5006, 1.674316
379.9827, 1.961609
380.4648, 4.570374
380.9470, 5.947998
381.4291, 6.772034
381.9112, 7.922668
382.3933, 9.366333
382.8754, 10.81927
383.3575, 12.17255
383.8397, 13.45312
384.3218, 14.55310
384.8039, 15.46808
385.2860, 16.63708
385.7681, 18.28790
386.2502, 20.48865
386.7324, 23.56049
387.2145, 28.00964
387.6966, 32.62988
388.1787, 35.66766
388.6608, 37.55292
389.1429, 39.84100
389.6251, 43.19617
390.1072, 47.53894
390.5893, 52.89349
391.0714, 59.33429
391.5535, 66.18359
392.0356, 72.85138
392.5178, 79.58984
392.9999, 86.87677
393.4820, 94.32593
393.9641, 102.8776
394.4462, 113.4490
394.9283, 125.8884
395.4105, 138.1531
395.8926, 148.9097
396.3747, 159.5873
396.8568, 171.2517
397.3389, 185.4832
397.8210, 198.8438
398.3032, 211.6154
398.7853, 223.1091
399.2674, 231.5778
399.7495, 235.8937
400.2316, 237.9221
400.7137, 237.8776
401.1959, 235.0641
401.6780, 232.5909
402.1601, 229.9211
402.6422, 227.9407
403.1243, 227.5499
403.6064, 228.5953
404.0885, 231.5867
404.5706, 236.6251
405.0528, 243.7007
405.5349, 253.0176
406.0170, 265.4283
406.4991, 277.9218
406.9812, 289.1130
407.4633, 299.2742
407.9455, 306.0875
408.4276, 309.6539
408.9097, 309.3917
409.3918, 303.2375
409.8739, 291.1100
410.3560, 278.0338
410.8382, 264.3262
411.3203, 251.3149
411.8024, 244.0642
412.2845, 242.7514
412.7666, 245.1259
413.2487, 249.5731
413.7309, 256.0241
414.2130, 264.3586
414.6951, 275.3696
415.1772, 287.2423
415.6593, 300.2469
416.1414, 313.0592
416.6236, 319.5691
417.1057, 317.7068
417.5878, 306.9299
418.0699, 284.8612
418.5520, 249.3506
419.0341, 211.6854
419.5163, 175.4338
419.9984, 141.4975
420.4805, 112.0977
420.9626, 87.53015
421.4447, 67.15112
421.9268, 51.87097
422.4090, 41.29260
422.8911, 31.66119
423.3732, 21.19000
423.8553, 11.87921
424.3374, 4.685181
424.8195, 0.2003170
425.3017, 2.823181
425.7838, 3.546387
426.2659, 3.039673
426.7480, 3.337463
427.2301, 4.452942
427.7122, 6.198181
428.1944, 9.047607
428.6765, 13.32996
429.1586, 15.30688
429.6407, 14.13226
430.1228, 11.99847
430.6049, 10.76086
431.0871, 10.57562
431.5692, 10.61664
432.0513, 10.73749
432.5334, 10.84436
433.0155, 11.09784
433.4977, 11.61670
433.9798, 11.50580
434.4619, 9.945251
434.9440, 7.278870
435.4261, 5.426025
435.9082, 4.559875
436.3904, 3.487671
436.8725, 0.5844730
437.3546, 3.857605
437.8367, 8.559998
438.3188, 12.65924
438.8009, 16.89911
439.2831, 22.27039
439.7652, 28.74646
440.2473, 35.93713
440.7294, 44.71509
441.2115, 53.60645
441.6936, 60.69849
442.1758, 64.98657
442.6579, 69.86200
443.1400, 77.29633
443.6221, 86.53876
444.1042, 96.62988
444.5863, 108.0007
445.0685, 119.2758
445.5506, 129.4680
446.0327, 138.6403
446.5148, 149.0053
446.9969, 161.0898
447.4790, 174.2974
447.9612, 188.2841
448.4433, 201.9122
448.9254, 217.7830
449.4075, 235.6783
449.8896, 255.7666
450.3717, 278.4622
450.8539, 304.2108
451.3360, 331.3574
451.8181, 359.7522
452.3002, 389.6830
452.7823, 418.8330
453.2644, 447.5712
453.7466, 475.7225
454.2287, 504.2991
454.7108, 533.5950
455.1929, 559.3992
455.6750, 582.0466
456.1571, 599.9434
456.6393, 610.7165
457.1214, 614.4201
457.6035, 610.5690
458.0856, 596.0384
458.5677, 574.3834
459.0498, 551.4230
459.5320, 527.2819
460.0141, 505.4825
460.4962, 487.6696
460.9783, 474.4414
461.4604, 467.0521
461.9425, 465.8562
462.4247, 470.5173
462.9068, 482.0570
463.3889, 499.4565
463.8710, 519.8129
464.3531, 542.6133
464.8352, 567.1474
465.3174, 592.3696
465.7995, 617.7204
466.2816, 646.2767
466.7637, 678.6778
467.2458, 714.4521
467.7279, 753.1834
468.2101, 793.7120
468.6922, 838.5923
469.1743, 887.3376
469.6564, 940.2106
470.1385, 999.2652
470.6206, 1063.342
471.1028, 1134.820
471.5849, 1214.514
472.0670, 1302.798
472.5491, 1398.687
473.0312, 1503.365
473.5133, 1616.476
473.9955, 1740.265
474.4776, 1875.172
474.9597, 2010.592
475.4418, 2145.358
475.9239, 2278.737
476.4060, 2410.511
476.8882, 2540.325
477.3703, 2656.733
477.8524, 2762.022
478.3345, 2846.999
478.8166, 2897.534
479.2987, 2913.440
479.7809, 2885.314
480.2630, 2796.886
480.7451, 2661.589
481.2272, 2497.616
481.7093, 2294.105
482.1914, 2083.069
482.6736, 1877.643
483.1557, 1680.156
483.6378, 1499.494
484.1199, 1338.526
484.6020, 1197.900
485.0841, 1079.075
485.5663, 984.8505
486.0484, 904.8959
486.5305, 840.0534
487.0126, 788.1397
487.4947, 746.5026
487.9768, 715.9221
488.4590, 695.8070
488.9411, 686.8592
489.4232, 688.2177
489.9053, 697.3216
490.3874, 714.8107
490.8695, 738.6172
491.3517, 768.3786
491.8338, 804.4497
492.3159, 845.1052
492.7980, 891.1012
493.2801, 940.4941
493.7622, 990.4866
494.2444, 1041.862
494.7265, 1095.795
495.2086, 1152.273
495.6907, 1212.772
496.1728, 1279.193
496.6549, 1351.597
497.1371, 1431.780
497.6192, 1517.864
498.1013, 1613.077
498.5834, 1718.498
499.0655, 1835.139
499.5476, 1964.519
500.0298, 2107.132
500.5119, 2263.385
500.9940, 2433.091
501.4761, 2619.554
501.9582, 2817.161
502.4403, 3025.942
502.9225, 3245.541
503.4046, 3471.934
503.8867, 3712.649
504.3688, 3948.873
504.8509, 4180.528
505.3330, 4407.465
505.8152, 4604.066
506.2973, 4780.417
506.7794, 4910.264
507.2615, 4980.233
507.7436, 4995.250
508.2257, 4925.848
508.7079, 4763.636
509.1900, 4528.534
509.6721, 4237.776
510.1542, 3893.843
510.6363, 3539.956
511.1184, 3182.841
511.6006, 2833.195
512.0826, 2520.641
512.5648, 2243.134
513.0469, 1995.181
513.5290, 1775.780
514.0111, 1582.395
514.4932, 1413.095
514.9753, 1268.208
515.4575, 1141.457
515.9396, 1030.411
516.4217, 932.7291
516.9038, 845.3463
517.3859, 770.2597
517.8680, 702.1973
518.3502, 639.8691
518.8323, 583.1890
519.3144, 531.6788
519.7965, 485.6949
520.2786, 445.1532
520.7607, 410.9094
521.2429, 383.9677
521.7250, 357.9672
522.2071, 332.5686
522.6892, 308.4572
523.1713, 286.0319
523.6534, 265.5964
524.1356, 247.3152
524.6177, 231.5387
525.0998, 217.5104
525.5819, 204.1111
526.0640, 191.2747
526.5461, 178.3282
527.0283, 163.5516
527.5104, 148.6578
527.9925, 139.0468
528.4746, 134.5010
528.9567, 129.9259
529.4388, 120.1475
529.9210, 108.1674
530.4031, 98.39435
530.8852, 92.03546
531.3673, 86.63062
531.8494, 80.57520
532.3315, 74.34137
532.8137, 68.74438
533.2958, 64.43817
533.7779, 60.34052
534.2600, 56.04517
534.7421, 51.66028
535.2242, 47.57373
535.7064, 43.57397
536.1885, 40.03320
536.6706, 37.33533
537.1527, 35.83826
537.6348, 33.94104
538.1169, 31.49475
538.5991, 28.71869
539.0812, 25.85181
539.5633, 22.96277
540.0454, 20.06793
540.5275, 17.21552
541.0096, 14.52472
541.4918, 11.96997
541.9739, 9.586426
542.4560, 7.836548
542.9381, 7.215027
543.4202, 7.242493
543.9023, 7.247314
544.3845, 7.219116
544.8666, 7.035461
545.3487, 6.683472
545.8308, 6.118408
546.3129, 5.283325
546.7950, 4.120117
547.2772, 2.770874
547.7593, 0.8430180
548.2414, 1.157959
548.7235, 2.550293
549.2056, 2.908325
549.6877, 2.839294
550.1699, 1.813354
550.6520, 0.1964720
551.1341, 0.2188720
551.6162, 3.251465
552.0983, 5.778503
552.5804, 5.841187
553.0626, 3.063538
553.5447, 2.223572
554.0268, 3.798401
554.5089, 5.772888
554.9910, 5.921021
555.4731, 4.487671
555.9553, 3.255127
556.4374, 2.465271
556.9195, 2.125549
557.4016, 2.834229
557.8837, 4.121521
558.3658, 4.596619
558.8480, 2.996155
559.3301, 0.7493290
559.8122, 1.036438
560.2943, 2.398438
560.7764, 3.638489
561.2585, 4.962646
561.7407, 6.175232
562.2228, 6.936096
562.7049, 6.685913
563.1870, 7.674438
563.6691, 11.44379
564.1512, 15.85785
564.6334, 18.98846
565.1155, 19.88434
565.5976, 21.38702
566.0797, 23.81793
566.5618, 27.02185
567.0439, 30.55029
567.5261, 34.41620
568.0082, 38.63202
568.4903, 43.31427
568.9724, 48.31396
569.4545, 52.79138
569.9366, 56.80121
570.4188, 61.02618
570.9009, 66.10358
571.3830, 71.81952
571.8651, 77.81165
572.3472, 84.12946
572.8293, 90.54993
573.3115, 96.77332
573.7936, 103.1052
574.2757, 109.8373
574.7578, 118.0057
575.2399, 125.5271
575.7220, 131.9996
576.2042, 137.4338
576.6863, 141.9106
577.1684, 145.0884
577.6505, 147.7801
578.1326, 150.5331
578.6147, 153.2859
579.0969, 154.0831
579.5790, 153.1622
580.0611, 149.7119
580.5432, 142.3060
581.0253, 131.0435
581.5074, 121.0369
581.9896, 112.9088
582.4717, 104.8604
582.9538, 94.23181
583.4359, 81.98059
583.9180, 70.81506
584.4001, 61.83594
584.8823, 53.92297
585.3644, 45.90094
585.8465, 38.02875
586.3286, 31.09180
586.8107, 25.05231
587.2928, 20.27057
587.7750, 17.49695
588.2571, 16.64929
588.7392, 15.47089
589.2213, 13.34338
589.7034, 10.89648
590.1855, 8.376465
590.6677, 5.674683
591.1498, 3.225403
591.6319, 0.7581790
592.1140, 1.125977
592.5961, 1.383667
593.0782, 0.2337650
593.5604, 0.8542480
594.0425, 0.2901610
594.5246, 2.150208
595.0067, 2.952209
595.4888, 2.830261
595.9709, 2.481995
596.4531, 1.704102
596.9352, 1.197021
597.4173, 2.193909
597.8994, 4.396545
598.3815, 6.355408
598.8636, 7.424622
599.3458, 7.836121
599.8279, 7.637573
600.3100, 6.733704
600.7921, 5.744568
601.2742, 4.587158
601.7563, 3.524780
602.2385, 2.766235
602.7206, 2.443115
603.2027, 2.187988
603.6848, 2.033203
604.1669, 1.916870
604.6490, 1.868774
605.1312, 1.996521
605.6133, 1.369446
606.0954, 0.6730960
606.5775, 3.215576
607.0596, 3.732117
607.5417, 2.461365
608.0239, 1.263184
608.5060, 1.127502
608.9881, 1.742737
609.4702, 2.917297
609.9523, 4.588745
610.4344, 6.131897
610.9166, 7.252991
611.3987, 8.096069
611.8808, 8.659851
612.3629, 8.609619
612.8450, 9.171143
613.3271, 11.42810
613.8093, 14.03650
614.2914, 15.55640
614.7735, 15.42780
615.2556, 15.18976
615.7377, 14.75970
616.2198, 14.46362
616.7020, 15.08783
617.1841, 16.64160
617.6662, 18.97003
618.1483, 22.38843
618.6304, 26.31543
619.1125, 29.06494
619.5947, 30.77344
620.0768, 32.44537
620.5589, 35.21698
621.0410, 38.09753
621.5231, 39.42096
622.0052, 39.00629
622.4874, 39.62878
622.9695, 43.65222
623.4516, 48.79700
623.9337, 53.24109
624.4158, 56.45459
624.8979, 59.33234
625.3801, 61.24335
625.8622, 63.22992
626.3443, 66.67719
626.8264, 72.40320
627.3085, 77.40894
627.7906, 80.85986
628.2728, 83.55835
628.7549, 87.86292
629.2370, 93.76379
629.7191, 99.32050
630.2012, 103.5247
630.6833, 106.9331
631.1655, 110.9436
631.6476, 115.3906
632.1297, 118.9781
632.6118, 120.6157
633.0939, 121.1539
633.5760, 121.3768
634.0582, 121.4102
634.5403, 120.8903
635.0224, 119.4178
635.5045, 117.5636
635.9866, 115.7442
636.4688, 113.7283
636.9509, 112.2773
637.4330, 111.4778
637.9151, 111.0032
638.3972, 110.2742
638.8793, 109.0103
639.3615, 109.0530
639.8436, 111.0570
640.3257, 114.3333
640.8078, 117.8300
641.2899, 121.2897
641.7720, 124.0373
642.2542, 124.9426
642.7363, 125.7062
643.2184, 128.5861
643.7005, 133.1417
644.1826, 137.4964
644.6647, 140.9519
645.1469, 143.8221
645.6290, 146.9562
646.1111, 150.7870
646.5932, 151.3479
647.0753, 145.5814
647.5574, 138.3638
648.0396, 132.5694
648.5217, 128.8406
649.0038, 124.5157
649.4859, 119.3088
649.9680, 113.5023
650.4501, 107.5002
650.9323, 101.4277
651.4144, 96.05042
651.8965, 91.68311
652.3786, 87.29144
652.8607, 81.04675
653.3428, 73.91266
653.8250, 68.05957
654.3071, 65.49683
654.7892, 63.69531
655.2713, 60.90112
655.7534, 57.35803
656.2355, 54.13043
656.7177, 52.13373
657.1998, 50.11346
657.6819, 47.58594
658.1640, 44.60345
658.6461, 41.76355
659.1282, 38.97247
659.6104, 36.49146
660.0925, 34.52533
660.5746, 33.05029
661.0567, 31.34003
661.5388, 29.29199
662.0209, 27.58441
662.5031, 27.31952
662.9852, 27.82928
663.4673, 27.58691
663.9494, 26.29498
664.4315, 24.83502
664.9136, 23.58044
665.3958, 22.45929
665.8779, 21.47498
666.3600, 20.91443
666.8421, 20.33588
667.3242, 19.62915
667.8063, 18.89093
668.2885, 18.29761
668.7706, 18.01324
669.2527, 17.45667
669.7348, 16.27057
670.2169, 14.78955
670.6990, 14.51202
671.1812, 15.56494
671.6633, 16.41174
672.1454, 15.95892
672.6275, 14.81427
673.1096, 14.39343
673.5917, 14.63043
674.0739, 14.97363
674.5560, 15.27155
675.0381, 15.35059
675.5202, 14.98120
676.0023, 14.09924
676.4844, 13.20056
676.9666, 12.00714
677.4487, 11.14728
677.9308, 11.13580
678.4129, 12.41425
678.8950, 13.55377
679.3771, 14.81555
679.8593, 15.59351
680.3414, 14.84564
680.8235, 12.51288
681.3056, 10.91913
681.7877, 10.54346
682.2698, 10.64746
682.7520, 9.886841
683.2341, 8.708069
683.7162, 8.461304
684.1983, 10.57990
684.6804, 12.57306
685.1625, 12.33252
685.6447, 10.57068
686.1268, 9.001465
686.6089, 8.078308
687.0910, 7.467590
687.5731, 7.333069
688.0552, 7.502930
688.5374, 6.983704
689.0195, 5.365784
689.5016, 3.934570
689.9837, 3.339661
690.4658, 3.455200
690.9479, 3.207703
691.4301, 2.591248
691.9122, 1.825989
692.3943, 1.064697
692.8764, 0.2651370
693.3585, 0.8184200
693.8406, 2.201538
694.3228, 3.157776
694.8049, 2.917725
695.2870, 2.205811
695.7691, 1.557312
696.2512, 0.8759770
696.7333, 0.7539670
697.2155, 2.028198
697.6976, 3.379089
698.1797, 3.460876
698.6618, 1.520813
699.1439, 0.9322510
699.6260, 2.396240
700.1082, 4.519104
700.5903, 5.059387
701.0724, 4.251831
701.5545, 3.677246
702.0366, 3.895142
702.5187, 4.275879
703.0009, 4.007874
703.4830, 3.339050
703.9651, 2.796082
704.4472, 2.525818
704.9293, 2.492310
705.4114, 3.042053
705.8936, 3.887024
706.3757, 3.898987
706.8578, 2.516663
707.3399, 1.011597
707.8220, 0.4141240
708.3041, 1.704041
708.7863, 2.390564
709.2684, 2.375732
709.7505, 2.374634
710.2325, 2.935913
710.7147, 3.799683
711.1968, 4.184265
711.6789, 4.116577
712.1610, 3.966614
712.6431, 3.844116
713.1252, 3.856018
713.6074, 4.027893
714.0895, 4.345825
714.5716, 5.152100
715.0537, 7.189270
715.5358, 9.279419
716.0179, 10.57709
716.5001, 10.66827
716.9822, 11.35956
717.4643, 12.84930
717.9464, 14.56274
718.4285, 16.02710
718.9106, 17.22388
719.3928, 17.83478
719.8749, 17.71521
720.3570, 17.54700
720.8391, 18.55487
721.3212, 19.93640
721.8033, 20.26587
722.2855, 18.62360
722.7676, 16.80896
723.2497, 15.51697
723.7318, 14.60474
724.2139, 13.84149
724.6960, 13.40820
725.1782, 12.82495
725.6603, 11.98315
726.1424, 10.98016
726.6245, 9.988525
727.1066, 8.966919
727.5887, 8.138000
728.0709, 7.506897
728.5530, 7.156677
729.0351, 7.226074
729.5172, 7.722534
729.9993, 8.668518
730.4814, 10.95740
730.9636, 12.95190
731.4457, 13.10809
731.9278, 11.84991
732.4099, 10.93927
732.8920, 10.82642
733.3741, 11.21039
733.8563, 12.27911
734.3384, 13.90649
734.8205, 14.43365
735.3026, 13.37213
735.7847, 12.82782
736.2668, 14.35266
736.7490, 17.35083
737.2311, 18.82672
737.7132, 18.83948
738.1953, 19.02490
738.6774, 20.70789
739.1595, 23.07007
739.6417, 25.21771
740.1238, 27.06427
740.6059, 29.19360
741.0880, 31.79828
741.5701, 34.79419
742.0522, 38.27734
742.5344, 42.44733
743.0165, 46.13983
743.4986, 48.97107
743.9807, 52.09711
744.4628, 56.62079
744.9449, 62.47058
745.4271, 68.20032
745.9092, 73.50665
746.3913, 79.47607
746.8734, 87.37280
747.3555, 96.55603
747.8376, 105.9434
748.3198, 115.3506
748.8019, 125.0930
749.2840, 134.9606
749.7661, 145.2817
750.2482, 156.4765
750.7303, 168.5251
751.2125, 181.5815
751.6946, 196.1141
752.1767, 211.2960
752.6588, 225.5374
753.1409, 238.9879
753.6230, 253.8730
754.1052, 270.8534
754.5873, 289.2815
755.0694, 307.4554
755.5515, 326.6110
756.0336, 350.1066
756.5157, 380.4243
756.9979, 413.1603
757.4800, 446.9536
757.9621, 481.3639
758.4442, 515.0289
758.9263, 546.9687
759.4084, 580.0020
759.8906, 615.4837
760.3727, 651.8724
760.8548, 686.8760
761.3369, 720.7181
761.8190, 750.9575
762.3011, 778.1961
762.7833, 799.4455
763.2654, 810.7324
763.7475, 811.4544
764.2296, 799.8266
764.7117, 772.3272
765.1938, 735.0520
765.6760, 687.8452
766.1581, 632.9754
766.6402, 578.7312
767.1223, 524.5160
767.6044, 473.5596
768.0865, 425.5431
768.5687, 381.3235
769.0508, 341.8224
769.5329, 307.0571
770.0150, 276.8655
770.4971, 251.8895
770.9792, 230.9357
771.4614, 211.8182
771.9435, 194.6263
772.4256, 179.7559
772.9077, 167.8163
773.3898, 157.9250
773.8719, 150.2000
774.3541, 144.3494
774.8362, 138.3300
775.3183, 132.0118
775.8004, 125.2619
776.2825, 118.0079
776.7646, 110.2678
777.2468, 102.5632
777.7289, 94.82245
778.2110, 87.56396
778.6931, 81.25031
779.1752, 75.57660
779.6573, 69.86200
780.1395, 64.18451
780.6216, 58.79218
781.1037, 53.18781
781.5858, 48.51642
782.0679, 45.89990
782.5500, 45.39911
783.0322, 44.55304
783.5143, 42.98523
783.9964, 41.25531
784.4785, 39.49591
784.9606, 37.73334
785.4427, 36.36835
785.9249, 35.44318
786.4070, 34.45441
786.8891, 32.57861
787.3712, 30.59381
787.8533, 30.24030
788.3354, 31.43219
788.8176, 32.52045
789.2997, 32.63000
789.7818, 32.28479
790.2639, 31.29681
790.7460, 29.36670
791.2281, 29.94189
791.7103, 34.68353
792.1924, 39.32025
792.6745, 41.14441
793.1566, 40.30048
793.6387, 40.77008
794.1208, 42.56927
794.6030, 45.32581
795.0851, 49.20868
795.5672, 53.62366
796.0493, 57.34735
796.5314, 60.37463
797.0135, 64.41168
797.4957, 70.93732
797.9778, 78.22711
798.4599, 84.95593
798.9420, 90.80219
799.4241, 98.29803
799.9063, 107.7664
800.3884, 118.1880
800.8705, 129.0025
801.3526, 140.2407
801.8347, 152.3873
802.3168, 165.4464
802.7990, 179.4672
803.2811, 194.5150
803.7632, 210.5353
804.2453, 227.5383
804.7274, 245.5021
805.2095, 264.0420
805.6917, 282.2141
806.1738, 301.9742
806.6559, 324.2207
807.1380, 348.5868
807.6201, 376.8057
808.1022, 409.6344
808.5844, 443.7153
809.0665, 475.9083
809.5486, 507.3987
810.0307, 542.8504
810.5128, 582.0218
810.9949, 622.0574
811.4771, 663.0389
811.9592, 702.5963
812.4413, 738.8698
812.9234, 771.5292
813.4055, 802.0278
813.8876, 836.0002
814.3698, 862.2686
814.8519, 875.7783
815.3340, 876.4426
815.8161, 865.2825
816.2982, 842.2251
816.7803, 808.7306
817.2625, 762.8464
817.7446, 707.7147
818.2267, 647.8500
818.7088, 584.3193
819.1909, 522.8760
819.6730, 464.7834
820.1552, 410.9504
820.6373, 362.5406
821.1194, 319.7683
821.6015, 281.6454
822.0836, 249.0527
822.5657, 220.8692
823.0479, 197.0125
823.5300, 177.3974
824.0121, 160.6031
824.4942, 146.5546
824.9763, 133.9108
825.4584, 121.3448
825.9406, 109.7160
826.4227, 99.80066
826.9048, 91.56848
827.3869, 84.45416
827.8690, 78.95129
828.3511, 73.77649
828.8333, 68.11157
829.3154, 62.07471
829.7975, 57.40063
830.2796, 54.17175
830.7617, 51.65112
831.2438, 49.61298
831.7260, 48.00714
832.2081, 46.69635
832.6902, 45.63812
833.1723, 44.56757
833.6544, 43.49457
834.1365, 42.11194
834.6187, 40.13062
835.1008, 37.67694
835.5829, 35.62195
836.0650, 34.08014
836.5471, 32.40411
837.0292, 30.41827
837.5114, 28.45135
837.9935, 27.14319
838.4756, 26.27289
838.9577, 24.79419
839.4398, 22.08856
839.9219, 19.10852
840.4041, 16.74670
840.8862, 15.02661
841.3683, 14.11151
841.8504, 14.74530
842.3325, 15.09961
842.8146, 14.19470
843.2968, 12.72003
843.7789, 12.71075
844.2610, 14.72107
844.7431, 15.80853
845.2252, 14.93713
845.7073, 12.90802
846.1895, 10.65259
846.6716, 8.486938
847.1537, 7.479370
847.6358, 8.969238
848.1179, 10.62067
848.6000, 11.20074
849.0822, 10.94305
849.5643, 10.27606
850.0464, 9.154419
850.5285, 7.748779
851.0106, 5.832397
851.4927, 3.956116
851.9749, 3.376221
852.4570, 3.897949
852.9391, 3.670227
853.4212, 1.972778
853.9033, 0.3919680
854.3854, 1.061523
854.8676, 2.782837
855.3497, 3.759583
855.8318, 2.870544
856.3139, 2.221130
856.7960, 2.662292
857.2781, 3.187134
857.7603, 2.560669
858.2424, 0.4401250
858.7245, 0.6137700
859.2066, 0.2017820
859.6887, 0.5844730
860.1708, 0.5585940
860.6530, 0.1055300
861.1351, 1.200256
861.6172, 2.862793
862.0993, 3.895264
862.5814, 2.907104
863.0635, 1.515442
863.5457, 1.118896
864.0278, 2.368652
864.5099, 2.672607
864.9920, 1.852661
865.4741, 0.9425660
865.9562, 0.6632690
866.4384, 0.7992550
866.9205, 0.9568480
867.4026, 1.150330
867.8847, 1.105774
868.3668, 3.7964001E-02
868.8489, 0.8760380
869.3311, 0.3870240
869.8132, 1.747070
870.2953, 2.985535
870.7774, 2.406311
871.2595, 1.918640
871.7416, 2.695129
872.2238, 4.444031
872.7059, 4.130371
873.1880, 1.796570
873.6701, 0.2316280
874.1522, 2.621521
874.6343, 5.646301
875.1165, 4.769592
875.5986, 0.9689330
876.0807, 1.426147
876.5628, 1.163696
877.0449, 3.016785
877.5270, 2.075073
878.0092, 0.7016600
878.4913, 2.187744
878.9734, 2.248413
879.4555, 1.888245
879.9376, 1.222290
880.4197, 0.6243290
880.9019, 0.9785160
881.3840, 1.860718
881.8661, 2.283081
882.3482, 0.9376830
882.8303, 0.1477660
883.3124, 1.312378
883.7946, 3.302490
884.2767, 4.406372
884.7588, 4.573730
885.2409, 3.933411
885.7230, 2.273010
886.2051, 0.4279170
886.6873, 0.5436400
887.1694, 0.7616580
887.6515, 0.4325560
888.1336, 0.5598750
888.6157, 1.390503
889.0978, 1.428223
889.5800, 1.115356
890.0621, 0.8089600
890.5442, 0.3859860
891.0263, 0.5500490
891.5084, 1.726135
891.9905, 2.557434
892.4727, 1.289551
892.9548, 1.387268
893.4369, 1.976379
893.9190, 0.3426510
894.4011, 0.9437870
894.8832, 1.131531
895.3654, 3.349609
895.8475, 2.659668
896.3296, 1.279236
896.8117, 3.707397
897.2938, 3.980469
897.7759, 3.303833
898.2581, 1.702271
898.7402, 0.3933720
899.2223, 0.6505130
899.7044, 0.7791140
900.1865, 2.372314
900.6686, 3.562378
901.1508, 4.341919
901.6329, 4.420410
902.1150, 4.081055
902.5971, 4.101196
903.0792, 5.127319
903.5613, 5.951904
904.0435, 6.427246
904.5256, 6.582642
905.0077, 6.373413
905.4898, 5.820129
905.9719, 5.444702
906.4540, 5.411011
906.9362, 5.486206
907.4183, 5.734619
907.9004, 5.814758
908.3825, 5.149475
908.8646, 2.628540
909.3467, 1.278748
909.8289, 2.219543
910.3110, 3.681396
910.7931, 3.969177
911.2752, 2.967285
911.7573, 3.265564
912.2394, 5.117065
912.7216, 6.768127
913.2037, 6.180847
913.6858, 4.710876
914.1679, 4.085876
914.6500, 4.491150
915.1321, 4.649597
915.6143, 4.020630
916.0964, 3.183899
916.5785, 2.201843
917.0606, 1.176880
917.5427, 0.9452510
918.0248, 1.525513
918.5070, 2.568726
918.9891, 4.856018
919.4712, 6.670227
919.9533, 5.008423
920.4354, 1.043274
920.9175, 2.134521
921.3997, 3.766724
921.8818, 4.190491
922.3639, 2.770264
922.8460, 0.4980470
923.3281, 0.4452510
923.8102, 0.1439210
924.2924, 1.8005000E-02
924.7745, 1.526245
925.2566, 3.107544
925.7387, 2.720337
926.2208, 1.388611
926.7029, 0.6427000
927.1851, 1.116333
927.6672, 1.285767
928.1493, 0.4438480
928.6314, 0.4105830
929.1135, 0.6529540
929.5956, 0.2788700
930.0778, 1.5747000E-02
930.5599, 0.3767090
931.0420, 0.7875980
931.5241, 1.168274
932.0062, 1.171204
932.4883, 0.2332760
932.9705, 1.267761
933.4526, 1.575439
933.9347, 1.305786
934.4168, 3.393005
934.8989, 2.928284
935.3810, 0.7448120
935.8632, 0.3500980
936.3453, 1.685791
936.8274, 2.734558
937.3095, 2.426270
937.7916, 1.895203
938.2737, 2.813782
938.7559, 4.643005
939.2380, 6.234680
939.7201, 6.775391
940.2022, 7.496765
940.6843, 8.721863
941.1664, 10.16309
941.6486, 11.31189
942.1307, 12.10742
942.6128, 13.13519
943.0949, 14.43445
943.5770, 16.17078
944.0591, 19.58331
944.5413, 22.89142
945.0234, 23.41974
945.5055, 20.38635
945.9876, 19.10022
946.4697, 22.78864
946.9518, 26.21735
947.4340, 26.70911
947.9161, 24.77118
948.3982, 25.65790
948.8803, 29.31195
949.3624, 32.24402
949.8445, 31.34888
950.3267, 29.55603
950.8088, 30.05884
951.2909, 32.09692
951.7730, 33.52167
952.2551, 32.11652
952.7372, 32.10883
953.2194, 34.81738
953.7015, 38.56757
954.1836, 40.03583
954.6657, 39.36237
955.1478, 39.69037
955.6299, 41.75769
956.1121, 44.12805
956.5942, 45.58832
957.0763, 46.63641
957.5583, 47.80493
958.0405, 49.20209
958.5226, 50.49805
959.0047, 52.05682
959.4868, 52.84064
959.9689, 51.48621
960.4510, 48.64154
960.9332, 48.33142
961.4153, 50.36639
961.8974, 53.05096
962.3795, 55.55750
962.8616, 58.18951
963.3438, 61.11127
963.8259, 64.36304
964.3080, 67.94678
964.7901, 71.76855
965.2722, 76.12787
965.7543, 80.99164
966.2365, 86.51294
966.7186, 93.39301
967.2007, 101.1388
967.6828, 108.7232
968.1649, 115.8472
968.6470, 122.5576
969.1292, 127.4382
969.6113, 132.8454
970.0934, 141.1434
970.5755, 153.2779
971.0576, 163.9235
971.5397, 172.8404
972.0219, 181.6913
972.5040, 191.9424
972.9861, 203.0112
973.4682, 213.7119
973.9503, 224.1544
974.4324, 235.0978
974.9146, 247.3837
975.3967, 259.8326
975.8788, 273.6881
976.3609, 287.0900
976.8430, 294.6959
977.3251, 296.0796
977.8073, 296.8339
978.2894, 298.6880
978.7715, 298.9558
979.2536, 295.1327
979.7357, 287.6782
980.2178, 277.0782
980.7000, 262.9587
981.1821, 247.2511
981.6642, 229.1578
982.1463, 210.6644
982.6284, 192.9941
983.1105, 176.0863
983.5927, 159.1237
984.0748, 142.0839
984.5569, 126.4391
985.0390, 113.3414
985.5211, 101.7136
986.0032, 89.99219
986.4854, 78.82141
986.9675, 71.95776
987.4496, 72.47394
987.9317, 71.45636
988.4138, 66.52875
988.8959, 60.08398
989.3781, 56.85693
989.8602, 55.94037
990.3423, 54.04614
990.8244, 49.92114
991.3065, 46.35107
991.7886, 45.41901
992.2708, 45.58307
992.7529, 45.64874
993.2350, 45.68945
993.7171, 44.69861
994.1992, 42.38269
994.6813, 40.52661
995.1635, 40.29517
995.6456, 41.36499
996.1277, 43.92871
996.6098, 47.43146
997.0919, 49.74744
997.5740, 48.35352
998.0562, 47.79688
998.5383, 49.61938
999.0204, 49.96851
999.5025, 54.20953
999.9846, 54.52295
1000.467, 56.67804
1000.949, 61.39771
1001.431, 66.74280
1001.913, 70.54498
1002.395, 74.04620
1002.877, 79.18402
1003.359, 87.09064
1003.842, 91.75116
1004.324, 91.22687
1004.806, 90.71954
1005.288, 93.05920
1005.770, 97.52240
1006.252, 101.9648
1006.734, 106.1093
1007.216, 108.3399
1007.698, 106.3478
1008.181, 103.8677
1008.663, 102.8555
1009.145, 102.7266
1009.627, 101.9972
1010.109, 100.2206
1010.591, 99.52399
1011.073, 100.3319
1011.555, 101.4466
1012.038, 101.0116
1012.520, 100.1687
1013.002, 101.2305
1013.484, 104.5790
1013.966, 106.9208
1014.448, 107.0535
1014.930, 105.8618
1015.412, 103.5005
1015.894, 100.1432
1016.377, 96.28351
1016.859, 92.02332
1017.341, 88.68811
1017.823, 87.52704
1018.305, 86.47760
1018.787, 83.44104
1019.269, 79.36304
1019.751, 75.65674
1020.234, 72.61591
1020.716, 69.62250
1021.198, 66.24658
1021.680, 63.87555
1022.162, 64.09717
1022.644, 66.27618
1023.126, 69.06274
1023.608, 72.29291
1024.090, 75.23883
1024.573, 76.28900
1025.055, 78.24933
1025.537, 83.18671
1026.019, 89.88568
1026.501, 94.90845
1026.983, 98.11957
1027.465, 101.5463
1027.947, 105.6536
1028.430, 110.3757
1028.912, 116.3658
1029.394, 122.6488
1029.876, 127.9098
1030.358, 131.4197
1030.840, 135.5993
1031.322, 141.2639
1031.804, 146.5933
1032.286, 150.9372
1032.769, 153.9827
1033.251, 154.6955
1033.733, 152.9985
1034.215, 148.5939
1034.697, 138.7316
1035.179, 128.8414
1035.661, 122.2175
1036.143, 117.2545
1036.625, 111.0291
1037.108, 103.3450
1037.590, 95.45142
1038.072, 87.45575
1038.554, 79.78253
1039.036, 73.05396
1039.518, 66.95148
1040.000, 60.92419
1040.482, 54.90216
1040.965, 50.37628
1041.447, 48.20758
1041.929, 46.74689
1042.411, 45.72864
1042.893, 44.83002
1043.375, 42.47064
1043.857, 39.13397
1044.339, 37.45807
1044.822, 39.23981
1045.304, 40.93231
1045.786, 40.33606
1046.268, 38.52979
1046.750, 36.61475
1047.232, 34.50519
1047.714, 32.96527
1048.196, 32.12604
1048.678, 30.94672
1049.161, 28.31189
1049.643, 25.11566
1050.125, 22.53510
1050.607, 20.46344
1051.089, 18.27966
1051.571, 15.85309
1052.053, 13.18475
1052.535, 10.04333
1053.017, 6.969910
1053.500, 5.171509
1053.982, 4.291748
1054.464, 2.466187
1054.946, 0.7655640
1055.428, 3.124573
1055.910, 1.906128
1056.392, 0.4345090
1056.874, 1.433105
1057.357, 4.590576
1057.839, 5.985229
1058.321, 5.456177
1058.803, 4.721741
1059.285, 4.581299
1059.767, 4.392395
1060.249, 2.624939
1060.731, 0.4603880
1061.214, 0.1303100
1061.696, 2.767578
1062.178, 4.677917
1062.660, 5.318054
1063.142, 5.194153
1063.624, 4.483032
1064.106, 3.364441
1064.588, 2.599487
1065.070, 2.125610
1065.552, 1.429749
1066.035, 0.4212040
1066.517, 1.793457
1066.999, 1.504700
1067.481, 0.5059810
1067.963, 0.6270140
1068.445, 1.946716
1068.927, 2.377075
1069.409, 1.482849
1069.892, 0.5179440
1070.374, 0.2785030
1070.856, 0.8612670
1071.338, 2.909729
1071.820, 6.607422
1072.302, 8.235657
1072.784, 6.731750
1073.266, 5.911865
1073.749, 7.433411
1074.231, 10.08209
1074.713, 11.37042
1075.195, 12.01166
1075.677, 13.74121
1076.159, 17.82831
1076.641, 21.37073
1077.123, 23.11279
1077.605, 24.51343
1078.088, 26.47430
1078.570, 28.95679
1079.052, 31.49878
1079.534, 34.11182
1080.016, 37.05273
1080.498, 40.38562
1080.980, 44.24530
1081.462, 48.83447
1081.944, 53.98901
1082.427, 59.09723
1082.909, 63.94714
1083.391, 69.78894
1083.873, 76.93170
1084.355, 84.35406
1084.837, 90.46399
1085.319, 96.59943
1085.801, 104.9761
1086.283, 115.6677
1086.766, 125.1215
1087.248, 131.9888
1087.730, 139.0126
1088.212, 146.6661
1088.694, 155.2612
1089.176, 166.2786
1089.658, 178.5827
1090.140, 188.7657
1090.623, 195.3764
1091.105, 202.3983
1091.587, 210.8083
1092.069, 220.9834
1092.551, 233.0937
1093.033, 247.0904
1093.515, 262.2852
1093.997, 278.6058
1094.479, 295.1724
1094.962, 312.0437
1095.444, 328.3738
1095.926, 344.2468
1096.408, 358.7976
1096.890, 371.0094
1097.372, 380.4259
1097.854, 389.1282
1098.336, 397.3566
1098.818, 403.7098
1099.301, 407.9734
1099.783, 409.0460
1100.265, 405.2862
1100.747, 397.0900
1101.229, 386.1326
1101.711, 371.5536
1102.193, 356.4224
1102.675, 340.9187
1103.158, 325.4598
1103.640, 310.2024
1104.122, 295.2876
1104.604, 280.9723
1105.086, 267.1646
1105.568, 253.9007
1106.050, 241.1552
1106.532, 228.7243
1107.015, 216.0671
1107.497, 203.8984
1107.979, 195.2414
1108.461, 189.5988
1108.943, 183.6387
1109.425, 175.9461
1109.907, 168.8951
1110.389, 163.6777
1110.871, 160.1917
1111.354, 158.9447
1111.836, 160.1587
1112.318, 158.1868
1112.800, 152.7057
1113.282, 147.7048
1113.764, 146.1177
1114.246, 145.4610
1114.728, 142.6963
1115.210, 138.7133
1115.693, 135.5065
1116.175, 135.0552
1116.657, 131.7899
1117.139, 124.7167
1117.621, 117.4724
1118.103, 114.1295
1118.585, 112.4062
1119.067, 107.6495
1119.550, 100.2100
1120.032, 92.83722
1120.514, 86.40088
1120.996, 80.46515
1121.478, 74.96802
1121.960, 70.02618
1122.442, 66.36908
1122.924, 63.37189
1123.406, 58.51398
1123.889, 51.67371
1124.371, 45.37231
1124.853, 40.85791
1125.335, 37.60449
1125.817, 34.94604
1126.299, 33.09839
1126.781, 33.75482
1127.263, 36.46857
1127.745, 35.97626
1128.228, 30.37335
1128.710, 24.31006
1129.192, 20.62677
1129.674, 18.57239
1130.156, 17.85809
1130.638, 18.34186
1131.120, 17.30261
1131.602, 14.61865
1132.085, 12.52380
1132.567, 12.58789
1133.049, 12.70251
1133.531, 9.689880
1134.013, 5.725830
1134.495, 3.930603
1134.977, 5.379272
1135.459, 7.137573
1135.942, 9.512207
1136.424, 10.88953
1136.906, 9.606750
1137.388, 7.137390
1137.870, 5.581055
1138.352, 4.823425
1138.834, 4.522400
1139.316, 4.941284
1139.798, 5.311218
1140.281, 5.646179
1140.763, 6.070313
1141.245, 6.906067
1141.727, 7.851074
1142.209, 7.978577
1142.691, 7.471130
1143.173, 7.320007
1143.655, 8.112122
1144.137, 9.250854
1144.620, 10.65240
1145.102, 12.24091
1145.584, 14.23206
1146.066, 16.30591
1146.548, 16.75311
1147.030, 15.37750
1147.512, 15.23651
1147.994, 19.31543
1148.477, 23.53271
1148.959, 26.27570
1149.441, 27.81946
1149.923, 29.35950
1150.405, 30.84729
1150.887, 31.90356
1151.369, 32.32410
1151.851, 32.97809
1152.333, 35.76044
1152.816, 37.87256
1153.298, 36.49475
1153.780, 32.23157
1154.262, 30.92029
1154.744, 32.56165
1155.226, 32.74908
1155.708, 29.23016
1156.190, 25.10327
1156.672, 23.12024
1157.155, 22.07928
1157.637, 20.63513
1158.119, 18.67151
1158.601, 16.86993
1159.083, 15.30707
1159.565, 13.38293
1160.047, 10.00104
1160.529, 7.041321
1161.012, 7.533020
1161.494, 9.594116
1161.976, 9.944458
1162.458, 7.171814
1162.940, 5.215759
1163.422, 4.185852
1163.904, 3.394287
1164.386, 1.868652
1164.869, 0.5463870
1165.351, 1.388733
1165.833, 3.538940
1166.315, 4.472900
1166.797, 2.664978
1167.279, 1.524597
1167.761, 1.393738
1168.243, 1.514221
1168.725, 0.7434690
1169.208, 0.1237790
1169.690, 0.8652950
1170.172, 3.293213
1170.654, 4.592712
1171.136, 2.752075
1171.618, 1.677185
1172.100, 2.093689
1172.582, 3.164185
1173.064, 3.865845
1173.547, 4.269531
1174.029, 4.943909
1174.511, 5.895874
1174.993, 5.733093
1175.475, 1.952087
1175.957, 0.2487180
1176.439, 0.9242550
1176.921, 3.559509
1177.404, 4.223267
1177.886, 3.442688
1178.368, 2.550110
1178.850, 1.738647
1179.332, 0.9625850
1179.814, 0.5042110
1180.296, 0.9143070
1180.778, 1.121826
1181.260, 4.051392
1181.743, 2.839050
1182.225, 1.201599
1182.707, 3.080627
1183.189, 0.9970090
1183.671, 0.9598390
1184.153, 0.5860600
1184.635, 4.9743999E-02
1185.117, 0.1621090
1185.599, 0.1029660
1186.082, 0.2040410
1186.564, 0.1952510
1187.046, 5.7617001E-02
1187.528, 0.7097170
1188.010, 1.290039
1188.492, 0.3485110
1188.974, 0.2999880
1189.456, 0.8610840
1189.939, 3.508179
1190.421, 4.821777
1190.903, 4.878296
1191.385, 4.157776
1191.867, 2.288635
1192.349, 0.6787720
1192.831, 6.6344999E-02
1193.313, 4.4677999E-02
1193.796, 0.5963130
1194.278, 1.706482
1194.760, 0.5413210
1195.242, 2.582397
1195.724, 4.697388
1196.206, 3.528259
1196.688, 1.617371
1197.170, 0.2020260
1197.652, 1.797791
1198.135, 3.220032
1198.617, 4.485474
1199.099, 3.844482
1199.581, 1.386658
1200.063, 0.5092160
1200.545, 0.2625120
1201.027, 1.323120
1201.509, 1.479004
1201.991, 1.057190
1202.474, 0.4151610
1202.956, 0.4424440
1203.438, 0.7243040
1203.920, 0.3862920
1204.402, 9.4788000E-02
1204.884, 0.7091060
1205.366, 1.100403
1205.848, 6.7139000E-02
1206.331, 0.5642090
1206.813, 1.424683
1207.295, 0.1074220
1207.777, 0.6279910
1208.259, 0.1196900
1208.741, 1.352051
1209.223, 3.357666
1209.705, 4.771362
1210.188, 4.078308
1210.670, 2.267944
1211.152, 1.402527
1211.634, 1.467102
1212.116, 1.565491
1212.598, 1.561646
1213.080, 1.792175
1213.562, 2.801208
1214.044, 3.864258
1214.526, 4.465820
1215.009, 4.756165
1215.491, 5.141541
1215.973, 5.614624
1216.455, 5.900757
1216.937, 5.922791
1217.419, 5.936707
1217.901, 5.976868
1218.383, 6.758423
1218.866, 5.778748
1219.348, 5.938049
1219.830, 5.634155
1220.312, 4.793030
1220.794, 5.015686
1221.276, 3.809082
1221.758, 2.976440
1222.240, 4.201904
1222.723, 5.884583
1223.205, 7.125854
1223.687, 7.884399
1224.169, 7.945923
1224.651, 7.338135
1225.133, 6.186829
1225.615, 4.293396
1226.097, 2.896118
1226.579, 2.628967
1227.062, 3.408020
1227.544, 5.688965
1228.026, 8.832825
1228.508, 9.146362
1228.990, 7.005371
1229.472, 4.672241
1229.954, 2.433472
1230.436, 1.505127
1230.918, 4.000000
1231.401, 6.679321
1231.883, 7.331604
1232.365, 6.371826
1232.847, 5.956299
1233.329, 6.037476
1233.811, 6.395569
1234.293, 7.502075
1234.775, 7.959534
1235.258, 5.929626
1235.740, 4.265625
1236.222, 5.151672
1236.704, 7.782776
1237.186, 7.691895
1237.668, 5.453186
1238.150, 3.460938
1238.632, 2.499573
1239.115, 2.458801
1239.597, 4.040039
1240.079, 5.734863
1240.561, 7.013916
1241.043, 7.934448
1241.525, 6.966736
1242.007, 4.755554
1242.489, 3.945618
1242.971, 6.455688
1243.453, 8.564575
1243.936, 9.429382
1244.418, 9.723206
1244.900, 9.674194
1245.382, 9.413818
1245.864, 9.372559
1246.346, 9.314087
1246.828, 8.526672
1247.310, 5.515381
1247.793, 4.528870
1248.275, 6.965088
1248.757, 9.575256
1249.239, 10.04181
1249.721, 9.174500
1250.203, 8.499634
1250.685, 7.498352
1251.167, 7.034729
1251.650, 7.929993
1252.132, 8.490356
1252.614, 8.512817
1253.096, 8.177612
1253.578, 7.930908
1254.060, 7.593201
1254.542, 6.836853
1255.024, 6.040100
1255.506, 5.456665
1255.989, 5.507141
1256.471, 5.712708
1256.953, 5.930908
1257.435, 6.208435
1257.917, 6.081665
1258.399, 5.817383
1258.881, 6.246277
1259.363, 6.911438
1259.845, 6.818970
1260.328, 5.579041
1260.810, 4.410217
1261.292, 3.317261
1261.774, 2.448242
1262.256, 1.621643
1262.738, 1.345825
1263.220, 2.520508
1263.702, 4.419128
1264.185, 5.977844
1264.667, 7.356018
1265.149, 7.011169
1265.631, 4.852539
1266.113, 2.629150
1266.595, 1.494202
1267.077, 0.9959720
1267.559, 0.8417360
1268.042, 0.9698490
1268.524, 1.714111
1269.006, 3.041992
1269.488, 3.669250
1269.970, 3.668152
1270.452, 3.915100
1270.934, 5.608643
1271.416, 6.929688
1271.898, 6.524658
1272.380, 5.369507
1272.863, 4.369019
1273.345, 3.532104
1273.827, 3.201355
1274.309, 3.301331
1274.791, 3.356140
1275.273, 2.692017
1275.755, 2.414490
1276.237, 2.959290
1276.720, 3.680542
1277.202, 4.020142
1277.684, 4.132507
1278.166, 4.973694
1278.648, 6.261230
1279.130, 6.792847
1279.612, 5.009644
1280.094, 4.243835
1280.577, 5.224121
1281.059, 6.345703
1281.541, 6.188110
1282.023, 5.205078
1282.505, 3.641235
1282.987, 2.033203
1283.469, 1.861267
1283.951, 4.670532
1284.433, 6.419067
1284.916, 6.988770
1285.398, 6.824097
1285.880, 5.966675
1286.362, 4.761169
1286.844, 3.434753
1287.326, 2.418396
1287.808, 2.537292
1288.290, 4.433472
1288.772, 4.642273
1289.255, 3.011902
1289.737, 1.163269
1290.219, 0.4006350
1290.701, 1.007385
1291.183, 0.8745120
1291.665, 3.603394
1292.147, 4.555969
1292.629, 3.560120
1293.112, 4.124146
1293.594, 6.092102
1294.076, 7.008301
1294.558, 3.751282
1295.040, 1.128113
1295.522, 2.233276
1296.004, 4.048950
1296.486, 3.630371
1296.969, 1.490295
1297.451, 1.180420
1297.933, 1.964600
1298.415, 2.560059
1298.897, 4.085938
1299.379, 4.848206
1299.861, 4.545166
1300.343, 3.883606
1300.825, 3.539124
1301.307, 3.136780
1301.790, 1.816101
1302.272, 0.3972170
1302.754, 8.0321997E-02
1303.236, 1.684631
1303.718, 2.898743
1304.200, 2.769043
1304.682, 1.939270
1305.164, 0.0000000E+00
##END=



