##NAMES=Albite
##RRUFFID=R060054
##IDEAL CHEMISTRY=NaAlSi_3_O_8_
##LOCALITY=Mt. Erebus, Antarctica
##OWNER=RRUFF
##SOURCE=Marcus Origlieri
##DESCRIPTION=Dark gray bladed crystal
##STATUS=The identification of this mineral has been confirmed by X-ray diffraction and chemical analysis
##URL=rruff.info/R060054
##MEASURED CHEMISTRY=(Na_0.67_K_0.18_Ca_0.15_)_Σ=1_Al_1.00_(Si_2.85_Al_0.15_)_Σ=3_O_8_
123.0269, 0.0000000E+00
123.5090, 1.079895
123.9911, 2.027283
124.4732, 3.021301
124.9554, 2.901978
125.4375, 1.097473
125.9196, 0.2162480
126.4017, 0.9331670
126.8838, 0.8596190
127.3659, 0.2439580
127.8481, 1.441345
128.3302, 2.821533
128.8123, 4.217224
129.2944, 5.410034
129.7765, 6.298523
130.2586, 7.143799
130.7408, 8.599060
131.2229, 10.79614
131.7050, 12.26355
132.1871, 11.49384
132.6692, 9.258118
133.1513, 8.504272
133.6335, 10.50690
134.1156, 14.03027
134.5977, 17.73669
135.0798, 21.61816
135.5619, 25.46100
136.0440, 28.89325
136.5262, 31.80188
137.0083, 35.18207
137.4904, 39.26331
137.9725, 43.93243
138.4546, 49.48065
138.9367, 55.99188
139.4189, 62.63739
139.9010, 67.63361
140.3831, 69.35199
140.8652, 72.26355
141.3473, 77.19037
141.8294, 83.32703
142.3116, 89.90137
142.7937, 96.57532
143.2758, 103.3534
143.7579, 110.5092
144.2400, 118.5638
144.7221, 126.4091
145.2043, 133.6761
145.6864, 140.6592
146.1685, 147.7221
146.6506, 155.1141
147.1327, 162.8631
147.6148, 171.3956
148.0970, 181.7902
148.5791, 191.7829
149.0612, 199.7869
149.5433, 206.1980
150.0254, 213.3527
150.5075, 223.2421
150.9896, 235.7219
151.4718, 247.2102
151.9539, 256.5391
152.4360, 265.4908
152.9181, 276.0142
153.4002, 288.3361
153.8823, 300.9457
154.3645, 312.2827
154.8466, 322.9456
155.3287, 333.8890
155.8108, 345.7321
156.2929, 358.0796
156.7750, 370.0020
157.2572, 381.2050
157.7393, 392.5233
158.2214, 404.8031
158.7035, 417.5749
159.1856, 429.7685
159.6677, 440.6668
160.1499, 450.2902
160.6320, 459.3893
161.1141, 467.8760
161.5962, 475.7947
162.0783, 483.4426
162.5604, 490.6512
163.0426, 496.8612
163.5247, 501.5054
164.0068, 504.3886
164.4889, 506.5891
164.9710, 507.9199
165.4531, 508.8364
165.9353, 509.6974
166.4174, 510.4381
166.8995, 510.6654
167.3816, 509.9366
167.8637, 508.3137
168.3458, 505.2448
168.8280, 499.8298
169.3101, 493.8252
169.7922, 488.8619
170.2743, 484.8656
170.7564, 481.0701
171.2385, 476.1515
171.7207, 469.5441
172.2028, 462.2255
172.6849, 452.2886
173.1670, 441.0078
173.6491, 430.5226
174.1312, 421.7445
174.6133, 413.9669
175.0955, 405.4836
175.5776, 395.5939
176.0597, 386.6857
176.5418, 379.8304
177.0239, 374.1401
177.5060, 367.6458
177.9882, 359.5946
178.4703, 351.3735
178.9524, 344.2920
179.4345, 338.0178
179.9166, 331.7374
180.3987, 325.7957
180.8809, 320.3564
181.3630, 314.5538
181.8451, 308.0128
182.3272, 301.1962
182.8093, 294.3447
183.2914, 287.4944
183.7736, 281.0534
184.2557, 275.6625
184.7378, 271.5055
185.2199, 267.0325
185.7020, 261.4504
186.1841, 255.6647
186.6663, 250.0389
187.1484, 244.6693
187.6305, 239.7289
188.1126, 235.5341
188.5947, 232.4366
189.0768, 229.2249
189.5590, 225.9658
190.0411, 222.4353
190.5232, 218.3456
191.0053, 213.6368
191.4874, 208.6008
191.9695, 203.7033
192.4517, 198.7882
192.9338, 194.3884
193.4159, 190.9716
193.8980, 187.7686
194.3801, 184.0275
194.8622, 179.4698
195.3443, 174.4687
195.8265, 169.8795
196.3086, 166.4462
196.7907, 162.5389
197.2728, 157.5624
197.7549, 152.2995
198.2370, 147.7843
198.7192, 144.4805
199.2013, 141.7923
199.6834, 138.1115
200.1655, 132.7272
200.6476, 127.4355
201.1297, 122.7542
201.6119, 118.3123
202.0940, 113.4518
202.5761, 107.8189
203.0582, 101.8263
203.5403, 96.63245
204.0224, 92.43695
204.5046, 88.39105
204.9867, 84.22565
205.4688, 79.99933
205.9509, 75.77216
206.4330, 71.46460
206.9151, 67.36548
207.3973, 64.06946
207.8794, 61.90723
208.3615, 59.62683
208.8436, 56.34076
209.3257, 52.23126
209.8078, 48.26703
210.2900, 44.71948
210.7721, 41.62762
211.2542, 39.08954
211.7363, 37.28638
212.2184, 35.34119
212.7005, 32.11005
213.1827, 27.57819
213.6648, 24.11169
214.1469, 23.68970
214.6290, 23.78711
215.1111, 21.86115
215.5932, 17.39575
216.0754, 12.92206
216.5575, 11.81671
217.0396, 14.85498
217.5217, 16.09491
218.0038, 12.09070
218.4859, 6.975403
218.9680, 3.133301
219.4502, 1.060913
219.9323, 0.2062380
220.4144, 2.097229
220.8965, 5.183533
221.3786, 6.919861
221.8607, 5.783569
222.3429, 4.072998
222.8250, 2.997864
223.3071, 2.880615
223.7892, 3.580139
224.2713, 5.012390
224.7534, 7.606750
225.2356, 9.925720
225.7177, 12.21265
226.1998, 14.04926
226.6819, 14.97473
227.1640, 14.95459
227.6461, 14.48334
228.1283, 14.36017
228.6104, 14.99707
229.0925, 15.17206
229.5746, 14.67438
230.0567, 13.95044
230.5388, 13.20416
231.0210, 12.52643
231.5031, 12.00818
231.9852, 11.75464
232.4673, 11.81262
232.9494, 12.15344
233.4315, 13.29553
233.9137, 14.38171
234.3958, 14.79700
234.8779, 14.39050
235.3600, 13.31580
235.8421, 11.70410
236.3242, 9.032837
236.8064, 7.103882
237.2885, 6.442871
237.7706, 6.167847
238.2527, 5.549072
238.7348, 4.432373
239.2169, 3.074463
239.6991, 1.762817
240.1812, 0.3905030
240.6633, 0.5500490
241.1454, 6.3842997E-02
241.6275, 0.4995120
242.1096, 1.345337
242.5918, 5.791748
243.0739, 10.76172
243.5560, 13.77612
244.0381, 14.63330
244.5202, 15.62305
245.0023, 16.80640
245.4845, 18.30151
245.9666, 20.31934
246.4487, 22.90613
246.9308, 25.66772
247.4129, 28.26416
247.8950, 30.71985
248.3772, 33.05945
248.8593, 34.76123
249.3414, 36.60718
249.8235, 39.82251
250.3056, 44.67432
250.7877, 49.39539
251.2699, 52.06604
251.7520, 53.30322
252.2341, 55.08118
252.7162, 58.21484
253.1983, 61.89709
253.6804, 64.84668
254.1626, 66.85693
254.6447, 69.27551
255.1268, 73.48621
255.6089, 78.73315
256.0910, 83.78638
256.5731, 88.26331
257.0552, 92.47656
257.5374, 96.95447
258.0195, 101.8132
258.5016, 106.3656
258.9837, 109.9342
259.4658, 113.0675
259.9479, 116.3422
260.4301, 119.7969
260.9122, 123.6088
261.3943, 128.2321
261.8764, 133.9320
262.3585, 139.3113
262.8406, 142.9111
263.3228, 146.2198
263.8049, 150.7734
264.2870, 157.2257
264.7691, 164.1938
265.2512, 169.6112
265.7333, 173.1097
266.2155, 176.9674
266.6976, 182.6975
267.1797, 188.6698
267.6618, 193.5997
268.1439, 197.1353
268.6260, 200.2013
269.1082, 203.8160
269.5903, 208.0087
270.0724, 212.6721
270.5545, 218.2836
271.0366, 224.0350
271.5187, 229.4615
272.0009, 234.4883
272.4830, 239.3202
272.9651, 244.3218
273.4472, 249.5984
273.9293, 254.2362
274.4114, 257.4489
274.8936, 260.6532
275.3757, 264.4924
275.8578, 268.9004
276.3399, 273.4473
276.8220, 277.7966
277.3041, 281.9702
277.7863, 286.0144
278.2684, 290.6935
278.7505, 294.4250
279.2326, 296.3307
279.7147, 296.8917
280.1968, 297.2576
280.6790, 298.4299
281.1611, 300.4115
281.6432, 301.4359
282.1253, 300.3708
282.6074, 299.2279
283.0895, 299.1346
283.5717, 299.4878
284.0538, 299.0145
284.5359, 296.8574
285.0180, 293.1426
285.5001, 288.6553
285.9822, 282.8643
286.4644, 276.7162
286.9465, 270.0514
287.4286, 263.3339
287.9107, 257.2380
288.3928, 252.1674
288.8749, 247.8906
289.3571, 243.4153
289.8392, 238.7571
290.3213, 233.7494
290.8034, 227.7590
291.2855, 221.5720
291.7676, 216.1670
292.2498, 212.0466
292.7319, 208.8599
293.2140, 205.7465
293.6961, 203.6219
294.1782, 200.1121
294.6603, 193.1757
295.1425, 185.7950
295.6246, 180.9590
296.1067, 179.5286
296.5888, 179.7271
297.0709, 178.3848
297.5530, 174.1520
298.0351, 170.7820
298.5172, 168.0295
298.9994, 166.1539
299.4815, 165.6508
299.9636, 166.4584
300.4457, 167.7343
300.9278, 168.4933
301.4099, 168.6666
301.8921, 168.5074
302.3742, 167.3522
302.8563, 166.4971
303.3384, 166.8038
303.8205, 168.1317
304.3026, 169.6144
304.7848, 170.3323
305.2669, 170.1051
305.7490, 171.2224
306.2311, 175.4132
306.7132, 179.1315
307.1953, 180.8500
307.6775, 181.1283
308.1596, 181.1975
308.6417, 181.8162
309.1238, 183.0475
309.6059, 185.5883
310.0880, 190.7043
310.5702, 195.8208
311.0523, 200.8627
311.5344, 205.5260
312.0165, 209.5066
312.4986, 212.6495
312.9807, 215.0009
313.4629, 216.7336
313.9450, 216.4036
314.4271, 217.3524
314.9092, 220.5334
315.3913, 224.6810
315.8734, 228.6052
316.3556, 231.8938
316.8377, 234.8519
317.3198, 238.0471
317.8019, 241.6735
318.2840, 245.1641
318.7661, 249.0098
319.2483, 252.4033
319.7304, 254.3564
320.2125, 254.9614
320.6946, 255.5032
321.1767, 257.5383
321.6588, 261.5255
322.1410, 265.2794
322.6231, 269.2551
323.1052, 272.6573
323.5873, 274.9741
324.0694, 276.3578
324.5515, 277.3042
325.0337, 278.2417
325.5158, 279.1688
325.9979, 279.6797
326.4800, 278.9958
326.9621, 278.7397
327.4442, 279.3699
327.9264, 280.7059
328.4085, 282.5433
328.8906, 284.8219
329.3727, 287.2814
329.8548, 288.8331
330.3369, 288.8898
330.8191, 288.6816
331.3012, 287.8398
331.7833, 287.0248
332.2654, 287.0562
332.7475, 288.2002
333.2296, 289.8054
333.7118, 290.7421
334.1939, 291.2799
334.6760, 290.4607
335.1581, 286.4346
335.6402, 282.5822
336.1223, 281.9127
336.6045, 284.4070
337.0866, 287.1327
337.5687, 286.5621
338.0508, 281.7858
338.5329, 278.0284
339.0150, 273.8942
339.4972, 272.0348
339.9793, 276.5856
340.4614, 284.6787
340.9435, 289.0920
341.4256, 283.5116
341.9077, 269.0294
342.3898, 259.1960
342.8719, 257.8191
343.3541, 257.0525
343.8362, 255.5142
344.3183, 253.5200
344.8004, 251.8595
345.2825, 250.9856
345.7646, 250.1656
346.2468, 247.2836
346.7289, 240.6963
347.2110, 235.0913
347.6931, 231.2479
348.1752, 228.3453
348.6573, 226.1017
349.1395, 224.3070
349.6216, 222.2504
350.1037, 218.5868
350.5858, 212.5474
351.0679, 207.9923
351.5500, 206.7754
352.0322, 205.7197
352.5143, 203.3617
352.9964, 199.7753
353.4785, 195.8080
353.9606, 192.0836
354.4427, 188.6071
354.9249, 185.2775
355.4070, 182.5779
355.8891, 179.3927
356.3712, 174.6169
356.8533, 169.2777
357.3354, 165.1766
357.8176, 163.5612
358.2997, 163.1177
358.7818, 160.4086
359.2639, 154.2611
359.7460, 148.7399
360.2281, 145.4912
360.7103, 143.1149
361.1924, 140.2327
361.6745, 136.4825
362.1566, 132.9907
362.6387, 131.5795
363.1208, 132.4926
363.6030, 132.2874
364.0851, 129.8245
364.5672, 126.3060
365.0493, 122.2759
365.5314, 117.8943
366.0135, 113.5684
366.4957, 109.5999
366.9778, 106.0400
367.4599, 102.7847
367.9420, 99.33057
368.4241, 97.07751
368.9063, 97.61804
369.3884, 99.63989
369.8705, 100.9152
370.3526, 100.4039
370.8347, 98.98291
371.3168, 97.89990
371.7990, 97.22888
372.2811, 96.39734
372.7632, 95.12659
373.2453, 93.60828
373.7274, 91.99609
374.2095, 90.19592
374.6917, 88.43933
375.1738, 87.20850
375.6559, 86.29932
376.1380, 84.52563
376.6201, 81.00488
377.1022, 77.45813
377.5844, 76.18970
378.0665, 76.89575
378.5486, 76.72278
379.0307, 73.96936
379.5128, 70.01990
379.9949, 66.83972
380.4771, 64.56653
380.9592, 62.86047
381.4413, 61.47620
381.9234, 60.52063
382.4055, 60.25598
382.8876, 61.78003
383.3698, 63.00256
383.8519, 62.51062
384.3340, 60.52625
384.8161, 57.69507
385.2982, 53.96143
385.7803, 50.04187
386.2624, 47.79846
386.7445, 47.65051
387.2267, 47.42053
387.7088, 46.42358
388.1909, 45.04956
388.6730, 43.71069
389.1551, 42.48376
389.6372, 41.61047
390.1194, 41.48706
390.6015, 42.31152
391.0836, 42.38550
391.5657, 41.00024
392.0478, 39.49146
392.5299, 38.69824
393.0121, 38.51343
393.4942, 38.31409
393.9763, 37.63599
394.4584, 36.69421
394.9405, 36.65039
395.4226, 37.30591
395.9048, 39.01843
396.3869, 43.27686
396.8690, 48.05420
397.3511, 50.68848
397.8332, 50.39954
398.3153, 48.81616
398.7975, 48.41052
399.2796, 49.61438
399.7617, 50.96472
400.2438, 52.52051
400.7259, 54.15552
401.2080, 56.29089
401.6902, 58.54358
402.1723, 59.73022
402.6544, 58.72888
403.1365, 55.79041
403.6186, 54.03882
404.1007, 54.60413
404.5829, 55.08899
405.0650, 55.10864
405.5471, 54.80591
406.0292, 54.42053
406.5113, 54.04285
406.9934, 53.47632
407.4756, 52.38733
407.9577, 50.78540
408.4398, 48.59167
408.9219, 45.45605
409.4040, 41.98340
409.8861, 38.54968
410.3683, 35.09998
410.8504, 31.23303
411.3325, 26.03296
411.8146, 19.88757
412.2967, 16.20593
412.7788, 16.50476
413.2610, 16.68628
413.7431, 14.76147
414.2252, 11.69788
414.7073, 8.779785
415.1894, 6.408081
415.6715, 4.376709
416.1537, 2.460571
416.6358, 0.6657710
417.1179, 1.120117
417.6000, 2.952515
418.0821, 4.782715
418.5642, 6.597900
419.0464, 8.396484
419.5285, 10.14636
420.0106, 12.29565
420.4927, 14.31616
420.9748, 14.82312
421.4569, 13.45801
421.9391, 11.67517
422.4212, 10.10205
422.9033, 8.974121
423.3854, 9.055786
423.8675, 11.35645
424.3496, 14.00537
424.8318, 15.92676
425.3139, 17.16272
425.7960, 17.76416
426.2781, 17.65039
426.7602, 17.09644
427.2423, 16.60730
427.7245, 16.22876
428.2066, 15.76477
428.6887, 14.88330
429.1708, 14.07495
429.6529, 14.08459
430.1350, 14.89209
430.6172, 15.52002
431.0992, 15.03479
431.5814, 13.41541
432.0635, 12.42590
432.5456, 12.77747
433.0277, 12.83044
433.5098, 12.00269
433.9919, 10.55054
434.4741, 8.838257
434.9562, 7.018555
435.4383, 5.209106
435.9204, 3.649292
436.4025, 2.371338
436.8846, 1.294678
437.3668, 0.8488770
437.8489, 0.2238770
438.3310, 1.148804
438.8131, 3.203491
439.2952, 5.439087
439.7773, 7.375488
440.2595, 9.108154
440.7416, 11.75427
441.2237, 16.76746
441.7058, 20.50232
442.1879, 20.49719
442.6700, 19.52808
443.1522, 21.07568
443.6343, 26.34229
444.1164, 32.62378
444.5985, 36.13000
445.0806, 36.54419
445.5627, 38.18945
446.0449, 42.26831
446.5270, 47.14307
447.0091, 51.93066
447.4912, 56.58923
447.9733, 61.09656
448.4554, 65.00574
448.9376, 68.94775
449.4197, 74.23059
449.9018, 81.01123
450.3839, 87.92773
450.8660, 93.95105
451.3481, 99.94812
451.8303, 107.5580
452.3124, 117.5457
452.7945, 127.1061
453.2766, 134.5303
453.7587, 140.5223
454.2408, 146.1873
454.7230, 151.6058
455.2051, 157.9403
455.6872, 166.7776
456.1693, 178.3494
456.6514, 188.6591
457.1335, 196.3146
457.6157, 204.0110
458.0978, 212.9761
458.5799, 223.2129
459.0620, 234.6764
459.5441, 247.4218
460.0262, 260.8379
460.5084, 273.1879
460.9905, 284.1627
461.4726, 294.4012
461.9547, 302.8125
462.4368, 311.3058
462.9189, 321.1936
463.4011, 332.5703
463.8832, 344.9089
464.3653, 357.9271
464.8474, 371.5372
465.3295, 384.2601
465.8116, 395.1591
466.2938, 406.3728
466.7759, 418.4282
467.2580, 430.8856
467.7401, 443.5726
468.2222, 456.3168
468.7043, 468.5476
469.1865, 479.4235
469.6686, 488.8768
470.1507, 497.5405
470.6328, 504.8291
471.1149, 512.0393
471.5970, 521.0385
472.0792, 530.6169
472.5613, 537.6311
473.0434, 540.0277
473.5255, 539.7800
474.0076, 539.8074
474.4897, 540.1340
474.9719, 539.5159
475.4540, 537.6477
475.9361, 534.2587
476.4182, 529.2725
476.9003, 522.6941
477.3824, 514.6624
477.8645, 504.3103
478.3466, 492.8757
478.8288, 482.6721
479.3109, 473.9324
479.7930, 464.3541
480.2751, 451.7190
480.7572, 436.6296
481.2393, 423.3938
481.7215, 413.0580
482.2036, 402.8969
482.6857, 391.8246
483.1678, 380.6805
483.6499, 370.3799
484.1320, 361.2784
484.6142, 353.3302
485.0963, 346.4396
485.5784, 340.5845
486.0605, 335.9216
486.5426, 332.3354
487.0247, 329.9453
487.5069, 328.6094
487.9890, 328.4402
488.4711, 329.9042
488.9532, 333.3433
489.4353, 338.0769
489.9174, 342.1693
490.3996, 344.6848
490.8817, 349.3982
491.3638, 359.2657
491.8459, 369.8044
492.3280, 377.7117
492.8102, 383.7078
493.2923, 391.7124
493.7744, 405.0475
494.2565, 421.6776
494.7386, 437.1832
495.2207, 451.2677
495.7029, 465.6460
496.1850, 481.0911
496.6671, 497.4647
497.1492, 514.4637
497.6313, 531.9806
498.1134, 550.2500
498.5956, 569.1965
499.0777, 588.9976
499.5598, 610.0464
500.0419, 632.3990
500.5240, 655.6211
501.0061, 679.0801
501.4883, 702.9110
501.9704, 728.8376
502.4525, 758.5259
502.9346, 787.8646
503.4167, 815.1056
503.8988, 841.3245
504.3810, 867.7778
504.8631, 894.9283
505.3452, 922.6982
505.8273, 951.2274
506.3094, 980.8521
506.7915, 1009.177
507.2737, 1038.695
507.7558, 1064.364
508.2379, 1084.419
508.7200, 1099.502
509.2021, 1110.838
509.6842, 1119.034
510.1664, 1123.590
510.6485, 1123.765
511.1306, 1119.576
511.6127, 1111.062
512.0948, 1098.888
512.5769, 1081.121
513.0590, 1055.933
513.5411, 1024.443
514.0233, 990.6138
514.5054, 956.8372
514.9875, 921.3191
515.4696, 881.3170
515.9517, 837.1287
516.4338, 792.5219
516.9160, 748.7018
517.3981, 706.0598
517.8802, 664.6443
518.3623, 624.5369
518.8444, 585.6368
519.3265, 547.7728
519.8087, 511.2750
520.2908, 475.5637
520.7729, 441.1354
521.2550, 410.0082
521.7371, 383.7656
522.2192, 361.3373
522.7014, 338.4611
523.1835, 313.0289
523.6656, 290.0532
524.1477, 270.3097
524.6298, 252.6294
525.1119, 236.2401
525.5941, 220.8405
526.0762, 206.5206
526.5583, 193.3291
527.0404, 181.1736
527.5225, 169.0892
528.0046, 156.2789
528.4868, 145.0848
528.9689, 137.2831
529.4510, 130.7303
529.9331, 123.2930
530.4152, 114.5842
530.8973, 106.5378
531.3795, 101.2265
531.8616, 97.76642
532.3437, 93.61047
532.8258, 88.53528
533.3079, 82.86499
533.7900, 76.25708
534.2722, 69.29761
534.7543, 63.71912
535.2364, 60.00916
535.7185, 56.90033
536.2006, 53.85437
536.6827, 50.87927
537.1649, 48.38251
537.6470, 46.42889
538.1291, 44.69409
538.6112, 42.86853
539.0933, 40.91486
539.5754, 38.99188
540.0576, 36.59448
540.5397, 34.95544
541.0218, 35.09839
541.5039, 35.54395
541.9860, 34.60870
542.4681, 31.98645
542.9503, 28.91528
543.4324, 26.82220
543.9145, 25.71167
544.3966, 24.40192
544.8787, 22.38348
545.3608, 20.99316
545.8430, 21.35223
546.3251, 22.55353
546.8072, 23.18298
547.2893, 22.64960
547.7714, 21.63123
548.2535, 20.61920
548.7357, 19.94043
549.2178, 20.13763
549.6999, 21.34253
550.1820, 22.62677
550.6641, 23.20026
551.1462, 23.13910
551.6284, 23.30200
552.1105, 24.10693
552.5926, 24.89966
553.0747, 24.96826
553.5568, 24.76758
554.0389, 25.44495
554.5211, 27.39069
555.0032, 29.57727
555.4853, 30.59375
555.9674, 30.16187
556.4495, 30.12280
556.9316, 31.24774
557.4138, 32.29242
557.8959, 32.80280
558.3780, 33.02002
558.8601, 33.26691
559.3422, 33.61981
559.8243, 33.99353
560.3065, 34.26636
560.7886, 34.50378
561.2707, 35.08936
561.7528, 36.05133
562.2349, 37.18018
562.7170, 38.70020
563.1992, 40.27039
563.6813, 41.19250
564.1634, 40.96405
564.6455, 41.00995
565.1276, 42.79553
565.6097, 45.26550
566.0919, 46.32275
566.5740, 45.58514
567.0561, 44.22168
567.5382, 43.08710
568.0203, 42.19836
568.5024, 41.93042
568.9846, 43.35785
569.4667, 43.95697
569.9488, 42.69971
570.4309, 40.60980
570.9130, 38.54285
571.3951, 36.77618
571.8773, 35.58978
572.3594, 35.52203
572.8415, 36.44751
573.3236, 36.05945
573.8057, 33.92102
574.2878, 31.18445
574.7700, 27.43811
575.2521, 23.70679
575.7342, 21.19830
576.2163, 20.13153
576.6984, 19.36230
577.1805, 18.22290
577.6627, 16.79297
578.1448, 14.97760
578.6269, 12.76666
579.1090, 11.36255
579.5911, 11.87677
580.0732, 13.38446
580.5554, 12.94501
581.0375, 9.649597
581.5196, 6.689392
582.0017, 4.359009
582.4838, 2.818298
582.9659, 2.690491
583.4481, 3.644043
583.9302, 4.438599
584.4123, 4.204590
584.8944, 3.184143
585.3765, 2.226685
585.8586, 1.379089
586.3408, 0.5409550
586.8229, 1.059387
587.3050, 2.029541
587.7871, 0.8711550
588.2692, 1.864197
588.7513, 3.901794
589.2334, 3.789856
589.7155, 2.428345
590.1976, 1.138184
590.6797, 8.1421003E-02
591.1619, 1.138733
591.6440, 1.988037
592.1261, 2.671875
592.6082, 3.424194
593.0903, 4.292480
593.5724, 4.218811
594.0546, 1.723145
594.5367, 0.4779660
595.0188, 0.3721920
595.5009, 1.289368
595.9830, 2.802429
596.4651, 3.519409
596.9473, 3.868164
597.4294, 4.595459
597.9115, 5.974731
598.3936, 6.382507
598.8757, 4.687988
599.3578, 3.159973
599.8400, 2.598877
600.3221, 2.556335
600.8042, 2.385193
601.2863, 1.834412
601.7684, 1.223267
602.2505, 0.6771850
602.7327, 0.3125610
603.2148, 0.9437260
603.6969, 3.016602
604.1790, 4.516357
604.6611, 3.584961
605.1432, 1.167236
605.6254, 0.5029300
606.1075, 2.793457
606.5896, 4.583374
607.0717, 4.568298
607.5538, 3.641663
608.0359, 2.381287
608.5181, 1.081421
609.0002, 0.4609380
609.4823, 1.168640
609.9644, 2.772278
610.4465, 3.305054
610.9286, 1.708252
611.4108, 1.146606
611.8929, 3.491394
612.3750, 5.608521
612.8571, 4.929077
613.3392, 2.075562
613.8214, 0.1483760
614.3035, 7.8185998E-02
614.7856, 1.414001
615.2677, 1.922485
615.7498, 1.642456
616.2319, 0.9738160
616.7141, 0.1565550
617.1962, 1.216980
617.6783, 1.435303
618.1604, 0.7683110
618.6425, 0.6226810
619.1246, 1.678467
619.6068, 2.619080
620.0889, 2.799805
620.5710, 2.493042
621.0531, 1.928894
621.5352, 1.264709
622.0173, 0.9842530
622.4995, 1.864258
622.9816, 3.912781
623.4637, 5.264160
623.9458, 5.589111
624.4279, 5.715698
624.9100, 5.810425
625.3922, 5.914246
625.8743, 6.115723
626.3564, 6.406677
626.8385, 6.522766
627.3206, 5.974854
627.8027, 5.291809
628.2849, 5.637207
628.7670, 6.939880
629.2491, 7.581909
629.7312, 6.659424
630.2133, 4.917358
630.6954, 3.703247
631.1776, 2.888916
631.6597, 3.130249
632.1418, 5.810364
632.6239, 8.202454
633.1060, 8.313965
633.5881, 7.167725
634.0703, 7.031982
634.5524, 8.857117
635.0345, 10.93494
635.5166, 10.21313
635.9987, 6.540161
636.4808, 5.246094
636.9630, 7.867310
637.4451, 10.48279
637.9272, 10.61328
638.4093, 9.475281
638.8914, 8.706299
639.3735, 8.473877
639.8557, 8.687622
640.3378, 9.575073
640.8199, 10.73053
641.3020, 11.87946
641.7841, 12.85974
642.2662, 12.96204
642.7484, 11.63831
643.2305, 9.429749
643.7126, 7.872437
644.1947, 7.028748
644.6768, 6.746399
645.1589, 7.269531
645.6411, 8.080322
646.1232, 9.225281
646.6053, 10.36157
647.0874, 10.86804
647.5695, 10.41779
648.0516, 9.485779
648.5338, 8.413147
649.0159, 7.273010
649.4980, 6.627258
649.9801, 6.583435
650.4622, 6.883179
650.9443, 7.505188
651.4265, 8.362244
651.9086, 8.950562
652.3907, 9.239075
652.8728, 9.073608
653.3549, 7.825500
653.8370, 6.418701
654.3192, 5.934631
654.8013, 6.273804
655.2834, 6.568237
655.7655, 6.237427
656.2476, 5.472107
656.7297, 4.554199
657.2119, 3.195190
657.6940, 2.945435
658.1761, 4.965393
658.6582, 7.007935
659.1403, 7.374939
659.6224, 6.675476
660.1046, 6.476074
660.5867, 7.571411
661.0688, 8.474609
661.5509, 7.765869
662.0330, 6.257874
662.5151, 5.637085
662.9973, 6.189758
663.4794, 6.804077
663.9615, 6.489990
664.4436, 5.446960
664.9257, 4.623352
665.4078, 4.158020
665.8900, 3.879028
666.3721, 3.867432
666.8542, 3.909424
667.3363, 3.582092
667.8184, 3.072998
668.3005, 3.191772
668.7827, 4.672668
669.2648, 6.464966
669.7469, 7.300476
670.2290, 7.210999
670.7111, 6.164673
671.1932, 4.039307
671.6754, 2.225647
672.1575, 1.864014
672.6396, 2.644348
673.1217, 2.835876
673.6038, 2.268005
674.0859, 1.553101
674.5681, 0.3216550
675.0502, 0.6525880
675.5323, 0.6063840
676.0144, 0.2705690
676.4965, 1.362122
676.9786, 2.438660
677.4608, 3.175232
677.9428, 2.526306
678.4249, 0.3122560
678.9070, 0.6915280
679.3892, 0.5354000
679.8713, 2.016296
680.3534, 1.942383
680.8355, 0.9978030
681.3176, 1.058716
681.7997, 3.334167
682.2819, 4.886658
682.7640, 3.715637
683.2461, 1.735535
683.7282, 1.289001
684.2103, 2.391846
684.6924, 3.553406
685.1746, 3.764099
685.6567, 3.417236
686.1388, 3.647888
686.6209, 4.636841
687.1030, 5.611389
687.5851, 6.799866
688.0673, 7.538757
688.5494, 7.397278
689.0315, 6.593811
689.5136, 5.491760
689.9957, 3.917297
690.4778, 2.906799
690.9600, 3.693420
691.4421, 5.189087
691.9242, 5.611877
692.4063, 4.906555
692.8884, 4.158264
693.3705, 3.987732
693.8527, 4.303040
694.3348, 5.024841
694.8169, 6.611389
695.2990, 7.767395
695.7811, 8.091125
696.2632, 8.330444
696.7454, 8.876587
697.2275, 9.545837
697.7096, 9.885681
698.1917, 9.673706
698.6738, 9.740173
699.1559, 11.49493
699.6381, 13.80322
700.1202, 13.92731
700.6023, 11.75677
701.0844, 9.557251
701.5665, 8.464111
702.0486, 8.370361
702.5308, 9.126587
703.0129, 11.33276
703.4950, 12.91949
703.9771, 13.79938
704.4592, 14.23419
704.9413, 14.04272
705.4235, 13.56946
705.9056, 13.30182
706.3877, 13.37207
706.8698, 13.52893
707.3519, 13.43524
707.8340, 13.29730
708.3162, 13.71857
708.7983, 14.72620
709.2804, 15.68256
709.7625, 16.30798
710.2446, 16.72339
710.7267, 17.14508
711.2089, 17.63342
711.6910, 17.77319
712.1731, 17.50562
712.6552, 17.01740
713.1373, 16.21478
713.6194, 15.29315
714.1016, 14.29559
714.5837, 13.32080
715.0658, 12.84991
715.5479, 13.44543
716.0300, 14.87701
716.5121, 16.72803
716.9943, 18.99896
717.4764, 20.16022
717.9585, 19.42566
718.4406, 18.12799
718.9227, 17.78314
719.4048, 18.43573
719.8870, 18.95587
720.3691, 19.51208
720.8512, 19.75427
721.3333, 19.19653
721.8154, 18.52020
722.2975, 18.60315
722.7797, 19.35461
723.2618, 19.79346
723.7439, 19.07379
724.2260, 17.91681
724.7081, 17.90332
725.1902, 18.99750
725.6724, 20.02643
726.1545, 20.98260
726.6366, 21.17761
727.1187, 19.58746
727.6008, 16.65924
728.0829, 15.01965
728.5651, 15.38293
729.0472, 15.86139
729.5293, 16.09967
730.0114, 16.37616
730.4935, 17.12720
730.9756, 18.10291
731.4578, 18.57404
731.9399, 18.14264
732.4220, 17.37164
732.9041, 16.96198
733.3862, 16.93524
733.8683, 17.40094
734.3505, 18.47968
734.8326, 19.53094
735.3147, 20.35736
735.7968, 20.80920
736.2789, 20.46753
736.7610, 19.16669
737.2432, 17.74457
737.7253, 15.56116
738.2074, 13.96063
738.6895, 13.99261
739.1716, 15.00586
739.6537, 15.94452
740.1359, 16.47931
740.6180, 16.96088
741.1001, 18.04254
741.5822, 19.36053
742.0643, 19.18018
742.5464, 17.34589
743.0286, 16.43201
743.5107, 17.73254
743.9928, 19.54895
744.4749, 19.59467
744.9570, 17.65948
745.4391, 16.84589
745.9213, 17.58081
746.4034, 18.83795
746.8855, 21.12103
747.3676, 23.25415
747.8497, 23.71783
748.3318, 22.73315
748.8140, 22.01385
749.2961, 22.73492
749.7782, 24.14838
750.2603, 25.01257
750.7424, 25.40063
751.2245, 26.07330
751.7067, 27.28729
752.1888, 28.11005
752.6709, 27.70282
753.1530, 26.40479
753.6351, 25.60925
754.1172, 25.60333
754.5994, 25.71521
755.0815, 25.89673
755.5636, 26.10236
756.0457, 26.38586
756.5278, 26.69006
757.0099, 26.87207
757.4921, 26.87518
757.9742, 27.06519
758.4563, 27.70490
758.9384, 28.71240
759.4205, 30.51923
759.9026, 33.02020
760.3848, 33.88257
760.8669, 31.81616
761.3490, 28.79803
761.8311, 27.84045
762.3132, 29.26349
762.7953, 30.13074
763.2775, 29.90167
763.7596, 29.86169
764.2417, 30.82916
764.7238, 31.78369
765.2059, 31.22870
765.6880, 29.33923
766.1702, 28.22894
766.6523, 29.59546
767.1344, 31.55029
767.6165, 32.14716
768.0986, 31.63843
768.5807, 30.35266
769.0628, 28.47351
769.5449, 27.33368
770.0270, 28.05267
770.5092, 29.94055
770.9913, 30.55212
771.4734, 29.40735
771.9555, 28.27240
772.4376, 26.79834
772.9197, 25.97363
773.4019, 26.17236
773.8840, 27.13013
774.3661, 28.99402
774.8482, 32.20312
775.3303, 33.94592
775.8124, 31.04926
776.2946, 27.23993
776.7767, 26.85059
777.2588, 28.98218
777.7409, 30.60797
778.2230, 30.64185
778.7051, 29.69946
779.1873, 28.33527
779.6694, 26.62744
780.1515, 25.43671
780.6336, 24.95667
781.1157, 24.43268
781.5978, 23.54102
782.0800, 22.63446
782.5621, 21.94427
783.0442, 21.49670
783.5263, 21.38855
784.0084, 22.24048
784.4905, 22.65814
784.9727, 21.89209
785.4548, 20.64545
785.9369, 19.21405
786.4190, 17.95428
786.9011, 17.82684
787.3832, 19.46918
787.8654, 21.31512
788.3475, 20.60675
788.8296, 17.73254
789.3117, 16.07910
789.7938, 16.01526
790.2759, 16.09521
790.7581, 15.52911
791.2402, 14.84442
791.7223, 15.13843
792.2044, 16.93713
792.6865, 17.32587
793.1686, 14.82471
793.6508, 12.76538
794.1329, 12.71942
794.6150, 13.31586
795.0971, 13.00739
795.5792, 11.74384
796.0613, 10.56891
796.5435, 9.954529
797.0256, 9.923828
797.5077, 11.05621
797.9898, 12.76611
798.4719, 13.23590
798.9540, 12.17706
799.4362, 10.47351
799.9183, 8.622986
800.4004, 6.851135
800.8825, 5.836426
801.3646, 5.776917
801.8467, 5.897888
802.3289, 6.140076
802.8110, 6.629272
803.2931, 7.999695
803.7752, 9.338440
804.2573, 9.151062
804.7394, 7.162476
805.2216, 5.757568
805.7037, 6.765686
806.1858, 7.774536
806.6679, 6.260376
807.1500, 3.681213
807.6321, 2.925598
808.1143, 4.408264
808.5964, 6.043091
809.0785, 6.053650
809.5606, 5.023071
810.0427, 4.738586
810.5248, 5.276978
811.0070, 4.652039
811.4891, 1.968201
811.9712, 0.2340700
812.4533, 0.2043460
812.9354, 2.284607
813.4175, 2.818298
813.8997, 1.028564
814.3818, 0.4097290
814.8639, 1.678467
815.3460, 2.224731
815.8281, 1.124817
816.3102, 0.5625610
816.7924, 1.337524
817.2745, 0.8960570
817.7566, 8.1726000E-02
818.2387, 0.8912960
818.7208, 1.637085
819.2029, 1.402527
819.6851, 0.4492190
820.1672, 0.4575200
820.6493, 1.119690
821.1314, 1.240295
821.6135, 0.4388430
822.0956, 0.8960570
822.5778, 1.106201
823.0599, 0.3983760
823.5420, 1.135986
824.0241, 0.4559940
824.5062, 0.4271850
824.9883, 0.8119510
825.4705, 1.000000
825.9526, 1.592224
826.4347, 2.801025
826.9168, 3.406067
827.3989, 2.686157
827.8810, 1.632568
828.3632, 0.4287720
828.8453, 0.4878540
829.3274, 0.1278690
829.8095, 1.425720
830.2916, 2.465515
830.7737, 1.383545
831.2559, 0.6262820
831.7380, 0.9762570
832.2201, 0.1043090
832.7022, 0.6290890
833.1843, 0.2233280
833.6664, 0.3018190
834.1486, 0.3094480
834.6307, 0.1492310
835.1128, 0.8801270
835.5949, 3.218811
836.0770, 4.548828
836.5591, 4.468262
837.0413, 3.817932
837.5234, 2.028442
838.0055, 0.2868040
838.4876, 0.2985840
838.9697, 2.085938
839.4518, 3.252808
839.9340, 2.076172
840.4161, 0.7364500
840.8982, 0.8182370
841.3803, 1.695496
841.8624, 2.598694
842.3445, 3.312927
842.8267, 3.560852
843.3088, 3.070496
843.7909, 2.570374
844.2730, 3.838684
844.7551, 6.677002
845.2372, 7.901306
845.7194, 7.057617
846.2015, 5.826416
846.6836, 4.812683
847.1657, 4.184387
847.6478, 4.264771
848.1299, 5.187012
848.6121, 5.813232
849.0942, 5.938110
849.5763, 6.014771
850.0584, 6.352844
850.5405, 6.485901
851.0226, 5.730530
851.5048, 4.434875
851.9869, 3.802795
852.4690, 4.404602
852.9511, 5.165039
853.4332, 5.343323
853.9153, 5.287537
854.3975, 5.331787
854.8796, 5.545593
855.3617, 6.183228
855.8438, 7.305054
856.3259, 8.098938
856.8080, 7.251404
857.2901, 5.265076
857.7722, 5.091309
858.2543, 6.944946
858.7365, 7.974487
859.2186, 7.248657
859.7007, 6.086731
860.1828, 5.547302
860.6649, 5.556091
861.1470, 5.737793
861.6292, 6.155396
862.1113, 6.639648
862.5934, 7.381592
863.0755, 7.984558
863.5576, 8.209167
864.0397, 8.198425
864.5219, 8.119812
865.0040, 8.007263
865.4861, 7.958130
865.9682, 8.082825
866.4503, 8.245544
866.9324, 7.999634
867.4146, 7.848206
867.8967, 9.181030
868.3788, 11.76837
868.8609, 13.29169
869.3430, 12.10632
869.8251, 9.527283
870.3073, 7.918091
870.7894, 7.230591
871.2715, 7.043152
871.7536, 7.327148
872.2357, 7.689575
872.7178, 8.096619
873.2000, 8.200134
873.6821, 7.375000
874.1642, 5.512817
874.6463, 4.587891
875.1284, 5.329285
875.6105, 5.859802
876.0927, 5.645386
876.5748, 5.363525
877.0569, 5.692871
877.5390, 6.366089
878.0211, 6.411316
878.5032, 5.345398
878.9854, 4.389587
879.4675, 4.273926
879.9496, 4.217590
880.4317, 3.297913
880.9138, 2.223633
881.3959, 2.451721
881.8781, 4.145935
882.3602, 5.534119
882.8423, 4.972412
883.3244, 3.491821
883.8065, 2.947510
884.2886, 3.167297
884.7708, 3.418762
885.2529, 3.651062
885.7350, 3.935364
886.2171, 4.347290
886.6992, 4.714661
887.1813, 4.601868
887.6635, 3.825378
888.1456, 3.253357
888.6277, 3.142456
889.1098, 3.144531
889.5919, 3.209045
890.0740, 3.044189
890.5562, 2.130615
891.0383, 0.6906130
891.5204, 3.3569001E-02
892.0025, 0.8133540
892.4846, 1.542664
892.9667, 2.060547
893.4489, 2.356384
893.9310, 2.181702
894.4131, 1.844910
894.8952, 1.995239
895.3773, 2.799133
895.8594, 3.471436
896.3416, 3.344177
896.8237, 2.973755
897.3058, 2.948792
897.7879, 3.149963
898.2700, 3.406372
898.7521, 3.632446
899.2343, 3.452087
899.7164, 2.515869
900.1985, 1.391357
900.6806, 1.599548
901.1627, 3.022827
901.6448, 2.761902
902.1270, 0.3621830
902.6091, 1.471924
903.0912, 1.497192
903.5733, 0.6185910
904.0554, 9.9120997E-02
904.5375, 0.6551510
905.0197, 0.7851560
905.5018, 4.6386998E-02
905.9839, 0.4017330
906.4660, 0.2237550
906.9481, 1.051758
907.4302, 2.050232
907.9124, 2.830811
908.3945, 2.419952
908.8766, 0.3275760
909.3587, 0.9502260
909.8408, 2.1942001E-02
910.3229, 1.197876
910.8051, 1.625092
911.2872, 1.604950
911.7693, 1.576385
912.2514, 1.640137
912.7335, 1.771790
913.2156, 1.948792
913.6978, 2.199371
914.1799, 2.827667
914.6620, 3.433380
915.1441, 2.858795
915.6262, 1.385193
916.1083, 0.7487180
916.5905, 1.622620
917.0726, 2.908417
917.5547, 3.276703
918.0368, 3.020447
918.5189, 3.794250
919.0010, 5.740692
919.4832, 6.481537
919.9653, 5.380554
920.4474, 3.781647
920.9295, 2.402405
921.4116, 1.360229
921.8937, 0.9760740
922.3759, 1.486755
922.8580, 1.757904
923.3401, 1.227966
923.8222, 1.244110
924.3043, 2.620850
924.7864, 4.282349
925.2686, 5.562744
925.7507, 6.360077
926.2328, 6.410492
926.7149, 5.550446
927.1970, 4.172241
927.6791, 1.526672
928.1613, 0.7382810
928.6434, 1.348785
929.1255, 0.8316960
929.6076, 0.1275940
930.0897, 1.255463
930.5718, 1.925476
931.0540, 1.372284
931.5361, 0.6162410
932.0182, 1.096375
932.5003, 1.984528
932.9824, 1.315948
933.4645, 0.6243590
933.9467, 1.477264
934.4288, 9.5398001E-02
934.9109, 2.096649
935.3930, 3.424194
935.8751, 3.924011
936.3572, 3.591797
936.8394, 2.455780
937.3215, 1.403656
937.8036, 0.6140140
938.2857, 0.3663940
938.7678, 1.054565
939.2499, 2.124268
939.7321, 1.732727
940.2142, 0.8867490
940.6963, 1.760895
941.1784, 5.3893998E-02
941.6605, 1.635193
942.1426, 2.557648
942.6248, 2.872803
943.1069, 2.593414
943.5890, 1.755280
944.0711, 1.020172
944.5532, 0.1768190
945.0353, 0.2438960
945.5175, 0.2326350
945.9996, 0.7117000
946.4817, 0.4837340
946.9637, 3.6743000E-02
947.4459, 0.1835940
947.9280, 1.032043
948.4101, 1.877838
948.8922, 2.189911
949.3743, 2.721436
949.8564, 4.802643
950.3386, 6.691223
950.8207, 5.877502
951.3028, 3.163300
951.7849, 1.195557
952.2670, 1.013397
952.7491, 1.485779
953.2313, 1.839844
953.7134, 2.071838
954.1955, 2.164886
954.6776, 2.131866
955.1597, 1.818726
955.6418, 1.316498
956.1240, 1.446259
956.6061, 2.824371
957.0882, 4.562286
957.5703, 5.061707
958.0524, 4.478912
958.5345, 3.850800
959.0167, 3.212128
959.4988, 2.643768
959.9809, 2.173981
960.4630, 1.646912
960.9451, 0.9155270
961.4272, 0.1710210
961.9094, 0.1079100
962.3915, 0.8265080
962.8736, 1.847992
963.3557, 3.561066
963.8378, 4.538239
964.3199, 3.620972
964.8021, 2.334625
965.2842, 2.958374
965.7663, 5.459259
966.2484, 6.312592
966.7305, 3.806396
967.2126, 2.106842
967.6948, 1.857635
968.1769, 2.130737
968.6590, 2.893066
969.1411, 3.671661
969.6232, 3.710693
970.1053, 2.911621
970.5875, 2.152557
971.0696, 1.280029
971.5517, 0.9527890
972.0338, 1.829346
972.5159, 3.055786
972.9980, 3.920715
973.4802, 4.475739
973.9623, 5.096161
974.4444, 5.918396
974.9265, 6.385620
975.4086, 5.783020
975.8907, 5.033722
976.3729, 4.808441
976.8550, 5.090179
977.3371, 6.047791
977.8192, 7.467224
978.3013, 8.643524
978.7834, 9.235077
979.2656, 9.343933
979.7477, 8.707581
980.2298, 7.861359
980.7119, 8.118408
981.1940, 9.100342
981.6761, 9.316254
982.1583, 8.499481
982.6404, 7.566193
983.1225, 7.126251
983.6046, 7.107300
984.0867, 7.465332
984.5688, 8.139801
985.0510, 8.650269
985.5331, 8.984222
986.0152, 9.760315
986.4973, 11.26788
986.9794, 12.46133
987.4615, 12.26315
987.9437, 11.10687
988.4258, 10.54034
988.9079, 10.62402
989.3900, 10.87067
989.8721, 11.36270
990.3542, 11.69220
990.8364, 11.67804
991.3185, 11.42978
991.8006, 10.95032
992.2827, 10.37720
992.7648, 10.53275
993.2469, 11.98575
993.7291, 12.89099
994.2112, 13.12769
994.6933, 12.85001
995.1754, 11.43811
995.6575, 10.01105
996.1396, 10.30743
996.6218, 12.26239
997.1039, 13.43915
997.5860, 13.07538
998.0681, 12.87918
998.5502, 13.55753
999.0323, 13.99524
999.5145, 12.89673
999.9966, 11.44003
1000.479, 11.47043
1000.961, 13.14243
1001.443, 14.81357
1001.925, 16.73489
1002.407, 17.65869
1002.889, 15.92340
1003.371, 14.10541
1003.854, 14.70850
1004.336, 16.62732
1004.818, 17.53284
1005.300, 16.93463
1005.782, 16.26599
1006.264, 16.01141
1006.746, 16.19110
1007.228, 17.53333
1007.710, 18.80743
1008.193, 18.22266
1008.675, 16.39935
1009.157, 15.11505
1009.639, 14.93634
1010.121, 15.19714
1010.603, 15.51440
1011.085, 15.87335
1011.567, 16.34106
1012.049, 16.91638
1012.532, 17.58704
1013.014, 18.14624
1013.496, 18.31952
1013.978, 18.06079
1014.460, 17.76740
1014.942, 17.79126
1015.424, 18.12323
1015.906, 18.82196
1016.389, 19.62091
1016.871, 20.04510
1017.353, 20.14160
1017.835, 20.50940
1018.317, 21.48120
1018.799, 22.69080
1019.281, 23.53625
1019.763, 23.91943
1020.245, 23.94226
1020.728, 23.69739
1021.210, 23.59875
1021.692, 23.71320
1022.174, 23.47736
1022.656, 22.61975
1023.138, 21.95538
1023.620, 22.64111
1024.102, 24.24664
1024.584, 25.04083
1025.067, 25.15778
1025.549, 25.28333
1026.031, 25.51843
1026.513, 25.56976
1026.995, 25.26654
1027.477, 24.95941
1027.959, 25.34326
1028.441, 24.80890
1028.924, 26.18353
1029.406, 24.53821
1029.888, 23.77911
1030.370, 24.50348
1030.852, 25.69159
1031.334, 26.99323
1031.816, 27.96130
1032.298, 27.60736
1032.781, 25.80804
1033.263, 25.04498
1033.745, 25.79559
1034.227, 26.21460
1034.709, 25.98370
1035.191, 25.44135
1035.673, 24.54529
1036.155, 23.66180
1036.637, 23.52911
1037.120, 24.23309
1037.602, 24.84485
1038.084, 25.47809
1038.566, 25.93085
1039.048, 26.23376
1039.530, 26.15643
1040.012, 25.42023
1040.494, 24.29999
1040.976, 23.15228
1041.459, 21.87775
1041.941, 21.50171
1042.423, 23.03101
1042.905, 23.87659
1043.387, 23.41559
1043.869, 22.56152
1044.351, 21.42914
1044.833, 20.37256
1045.316, 19.98602
1045.798, 20.30786
1046.280, 20.95996
1046.762, 22.64246
1047.244, 23.63239
1047.726, 23.67761
1048.208, 22.96014
1048.690, 21.05756
1049.172, 18.69757
1049.655, 16.81445
1050.137, 15.47138
1050.619, 14.92145
1051.101, 16.06842
1051.583, 16.74579
1052.065, 16.14465
1052.547, 15.33826
1053.029, 15.08630
1053.511, 14.95496
1053.994, 14.07959
1054.476, 12.46130
1054.958, 11.40155
1055.440, 11.56128
1055.922, 11.74493
1056.404, 11.50610
1056.886, 11.36157
1057.368, 12.02838
1057.851, 12.77301
1058.333, 12.42053
1058.815, 10.99396
1059.297, 9.771545
1059.779, 8.748413
1060.261, 8.566040
1060.743, 10.56708
1061.225, 12.20087
1061.708, 11.51575
1062.190, 9.734802
1062.672, 8.280579
1063.154, 7.383057
1063.636, 7.083862
1064.118, 7.641479
1064.600, 8.237610
1065.082, 9.122009
1065.564, 9.353821
1066.047, 7.582153
1066.529, 5.289246
1067.011, 4.209473
1067.493, 4.433044
1067.975, 5.487732
1068.457, 8.031189
1068.939, 8.883362
1069.421, 4.489197
1069.903, 0.5325930
1070.386, 1.327637
1070.868, 4.042297
1071.350, 5.860413
1071.832, 6.346680
1072.314, 5.352539
1072.796, 2.333618
1073.278, 0.2734990
1073.760, 1.368164
1074.243, 2.802795
1074.725, 3.120483
1075.207, 2.653870
1075.689, 0.9721070
1076.171, 0.9712520
1076.653, 0.5898440
1077.135, 3.069336
1077.617, 6.118652
1078.099, 6.988220
1078.582, 6.516846
1079.064, 4.654175
1079.546, 2.137634
1080.028, 1.134644
1080.510, 4.226929
1080.992, 4.992981
1081.474, 2.960876
1081.956, 1.422791
1082.438, 2.177063
1082.921, 3.383240
1083.403, 4.279236
1083.885, 3.579285
1084.367, 3.089050
1084.849, 2.661438
1085.331, 1.948364
1085.813, 0.9420780
1086.295, 4.2296998E-02
1086.777, 0.9185180
1087.260, 1.583862
1087.742, 2.037292
1088.224, 2.281311
1088.706, 1.872925
1089.188, 1.485535
1089.670, 2.195557
1090.152, 3.960876
1090.634, 5.855042
1091.117, 7.986145
1091.599, 9.161804
1092.081, 7.818848
1092.563, 6.633362
1093.045, 7.139343
1093.527, 8.932495
1094.009, 12.63031
1094.491, 17.12604
1094.974, 18.39038
1095.456, 14.18988
1095.938, 11.33667
1096.420, 13.31262
1096.902, 16.11066
1097.384, 18.58026
1097.866, 20.12061
1098.348, 19.54419
1098.830, 17.80011
1099.313, 17.27313
1099.795, 18.60242
1100.277, 19.55518
1100.759, 18.76672
1101.241, 18.57233
1101.723, 20.22174
1102.205, 22.16095
1102.687, 23.42725
1103.169, 24.20673
1103.652, 24.73029
1104.134, 24.89954
1104.616, 25.04791
1105.098, 25.07111
1105.580, 25.14148
1106.062, 26.61884
1106.544, 27.80353
1107.026, 26.61621
1107.509, 24.47229
1107.991, 23.97510
1108.473, 24.75867
1108.955, 25.18896
1109.437, 27.05603
1109.919, 27.58179
1110.401, 24.30151
1110.883, 20.69983
1111.365, 19.92224
1111.848, 20.64954
1112.330, 19.66077
1112.812, 17.92932
1113.294, 17.45715
1113.776, 19.59607
1114.258, 19.98840
1114.740, 15.38647
1115.222, 12.53467
1115.704, 14.99158
1116.187, 18.27014
1116.669, 18.98535
1117.151, 17.97559
1117.633, 17.50366
1118.115, 17.69128
1118.597, 17.70776
1119.079, 18.01477
1119.561, 18.16064
1120.044, 17.80652
1120.526, 17.05127
1121.008, 15.71753
1121.490, 14.34766
1121.972, 13.92139
1122.454, 14.23730
1122.936, 14.58325
1123.418, 14.95837
1123.901, 15.37073
1124.383, 15.90015
1124.865, 16.04602
1125.347, 15.59314
1125.829, 15.06421
1126.311, 15.15576
1126.793, 15.65320
1127.275, 15.13367
1127.757, 13.47388
1128.240, 12.40125
1128.722, 12.60742
1129.204, 11.57336
1129.686, 8.128174
1130.168, 5.698608
1130.650, 6.722534
1131.132, 8.873169
1131.614, 7.940308
1132.096, 4.556152
1132.579, 3.494141
1133.061, 4.856812
1133.543, 6.571777
1134.025, 8.532593
1134.507, 9.346436
1134.989, 8.304199
1135.471, 6.889404
1135.953, 6.835571
1136.436, 5.965454
1136.918, 7.010864
1137.400, 5.156372
1137.882, 4.620728
1138.364, 4.988525
1138.846, 4.136719
1139.328, 1.709351
1139.810, 0.1018070
1140.292, 0.3000490
1140.775, 0.0000000E+00
##END=



