##NAMES=Alleghanyite
##RRUFFID=R060904
##IDEAL CHEMISTRY=Mn^2+^_5_(SiO_4_)_2_(OH)_2_
##LOCALITY=Near Bald Knob, Alleghany County, North Carolina, USA
##OWNER=Michael Scott
##SOURCE=Michael Scott
##DESCRIPTION=Pinkish-brown sub-rounded irregular grains
##STATUS=The identification of this mineral is confirmed by single-crystal X-ray diffraction and chemical analysis.
##URL=rruff.info/R060904
##MEASURED CHEMISTRY=(Mn^2+^_4.91_Mg_0.09_)_Σ=5.00_(Si_1.00_O_4_)_2_((OH)_1.57_F_0.43_)_Σ=2_ ; OH not measured but estimated by difference and stoichiometry
125.8621, 0.0000000E+00
126.3442, 5.670593
126.8263, 14.49976
127.3084, 22.14752
127.7905, 28.84497
128.2727, 34.64093
128.7548, 39.35132
129.2369, 43.28314
129.7190, 45.56647
130.2011, 46.89600
130.6832, 50.06726
131.1654, 55.56470
131.6475, 60.81396
132.1296, 62.27893
132.6117, 60.01404
133.0938, 55.99298
133.5759, 49.01062
134.0581, 39.67334
134.5402, 36.30035
135.0223, 40.16272
135.5044, 49.17633
135.9865, 58.69720
136.4686, 68.52045
136.9508, 79.59302
137.4329, 94.12146
137.9150, 113.0158
138.3971, 127.1645
138.8792, 135.1643
139.3613, 137.4065
139.8434, 136.4429
140.3256, 132.5375
140.8077, 125.2330
141.2898, 112.9557
141.7719, 93.98663
142.2540, 75.92255
142.7361, 60.16870
143.2183, 46.44427
143.7004, 35.49420
144.1825, 27.88916
144.6646, 22.53827
145.1467, 18.18579
145.6288, 14.05371
146.1110, 12.03156
146.5931, 12.45129
147.0752, 15.16833
147.5573, 20.44714
148.0394, 29.20355
148.5215, 40.22296
149.0037, 51.33826
149.4858, 57.34711
149.9679, 68.04254
150.4500, 87.38318
150.9321, 124.7244
151.4142, 156.4915
151.8964, 182.9642
152.3785, 203.9316
152.8606, 218.5683
153.3427, 221.5546
153.8248, 222.5513
154.3069, 225.6057
154.7890, 235.1017
155.2712, 246.2960
155.7533, 254.4224
156.2354, 260.7963
156.7175, 274.7432
157.1996, 300.6808
157.6817, 315.6312
158.1639, 324.6069
158.6460, 324.6407
159.1281, 323.5339
159.6102, 324.3846
160.0923, 329.3185
160.5744, 333.0792
161.0566, 332.9026
161.5387, 330.8212
162.0208, 329.0233
162.5029, 329.6443
162.9850, 329.5161
163.4671, 327.0444
163.9493, 321.9941
164.4314, 315.5340
164.9135, 308.5475
165.3956, 300.5978
165.8777, 292.9616
166.3598, 284.1947
166.8420, 272.5989
167.3241, 256.6730
167.8062, 234.4692
168.2883, 217.8904
168.7704, 221.3511
169.2525, 237.7140
169.7346, 246.5555
170.2168, 232.2267
170.6989, 208.7048
171.1810, 189.2940
171.6631, 177.4133
172.1452, 168.5526
172.6273, 158.7871
173.1095, 148.6448
173.5916, 139.7856
174.0737, 135.7757
174.5558, 133.1259
175.0379, 126.3479
175.5201, 111.7056
176.0022, 95.26349
176.4843, 83.68140
176.9664, 76.75482
177.4485, 72.63849
177.9306, 72.12134
178.4128, 73.40796
178.8949, 72.88190
179.3770, 70.66187
179.8591, 65.17810
180.3412, 51.13232
180.8233, 28.38202
181.3055, 7.258972
181.7876, 1.150452
182.2697, 0.1878050
182.7518, 1.169189
183.2339, 3.248230
183.7160, 10.25543
184.1982, 13.37347
184.6803, 12.52258
185.1624, 8.857788
185.6445, 1.810486
186.1266, 16.88281
186.6087, 21.44775
187.0908, 2.940002
187.5730, 45.44128
188.0551, 60.01917
188.5372, 41.96075
189.0193, 12.25330
189.5014, 2.092529
189.9835, 1.742310
190.4657, 2.459167
190.9478, 8.293823
191.4299, 14.77844
191.9120, 12.96002
192.3941, 0.3077390
192.8762, 16.08191
193.3584, 23.98718
193.8405, 23.17230
194.3226, 19.80945
194.8047, 14.63934
195.2868, 8.021179
195.7689, 10.67462
196.2511, 27.00323
196.7332, 48.64972
197.2153, 54.48651
197.6974, 42.51605
198.1795, 29.29492
198.6616, 27.17902
199.1438, 36.96143
199.6259, 40.37604
200.1080, 33.64789
200.5901, 20.54150
201.0722, 12.83221
201.5543, 11.40918
202.0364, 11.57220
202.5186, 9.830078
203.0007, 5.802856
203.4828, 2.892517
203.9649, 2.103821
204.4470, 2.649475
204.9291, 0.5419920
205.4113, 5.396973
205.8934, 10.88983
206.3755, 12.15033
206.8576, 8.390747
207.3397, 4.317810
207.8218, 0.7028200
208.3040, 2.562012
208.7861, 6.613586
209.2682, 12.10474
209.7503, 17.08362
210.2324, 20.03247
210.7145, 21.15210
211.1967, 19.31439
211.6788, 12.69513
212.1609, 1.781189
212.6430, 2.900269
213.1251, 1.104126
213.6072, 7.723877
214.0894, 10.20270
214.5715, 6.097961
215.0536, 4.798035
215.5357, 9.995544
216.0178, 21.99976
216.4999, 27.64539
216.9820, 23.42480
217.4642, 16.87134
217.9463, 17.72620
218.4284, 30.38483
218.9105, 39.70337
219.3926, 40.40149
219.8747, 31.19403
220.3569, 26.60498
220.8390, 28.33691
221.3211, 33.11090
221.8032, 37.02094
222.2853, 40.16205
222.7674, 42.19202
223.2496, 42.61993
223.7317, 40.99237
224.2138, 40.93762
224.6959, 43.96466
225.1780, 47.42743
225.6601, 46.70447
226.1423, 37.57343
226.6244, 32.25293
227.1065, 35.97772
227.5886, 52.22363
228.0707, 62.66290
228.5528, 66.89056
229.0350, 65.56653
229.5171, 58.90387
229.9992, 41.98816
230.4813, 27.88397
230.9634, 21.31641
231.4455, 24.27319
231.9276, 27.57611
232.4098, 31.02069
232.8919, 34.94537
233.3740, 40.38684
233.8561, 50.31305
234.3382, 56.93744
234.8203, 56.36133
235.3025, 44.36279
235.7846, 38.19891
236.2667, 39.26666
236.7488, 45.56335
237.2309, 53.55090
237.7130, 65.12952
238.1952, 75.33038
238.6773, 82.09674
239.1594, 84.22260
239.6415, 85.94690
240.1236, 86.53955
240.6057, 87.32642
241.0879, 91.24054
241.5700, 99.89972
242.0521, 108.9431
242.5342, 116.5561
243.0163, 121.3672
243.4984, 129.7159
243.9806, 143.7591
244.4627, 159.7296
244.9448, 167.6562
245.4269, 158.1710
245.9090, 150.3990
246.3911, 154.3970
246.8732, 177.2955
247.3554, 195.2864
247.8375, 204.7997
248.3196, 209.1011
248.8017, 216.5044
249.2838, 228.7595
249.7659, 241.6660
250.2481, 254.6898
250.7302, 269.1664
251.2123, 277.5643
251.6944, 275.7573
252.1765, 269.4566
252.6586, 273.4559
253.1408, 295.4604
253.6229, 315.2773
254.1050, 323.4684
254.5871, 313.8918
255.0692, 309.1313
255.5513, 310.7601
256.0334, 316.5852
256.5156, 321.4887
256.9977, 324.9404
257.4798, 328.4095
257.9619, 331.9091
258.4440, 333.8290
258.9261, 341.2234
259.4083, 357.9882
259.8904, 378.3206
260.3725, 386.8085
260.8546, 376.2449
261.3367, 367.8934
261.8188, 373.6722
262.3010, 402.1823
262.7831, 416.0087
263.2652, 409.7370
263.7473, 391.6975
264.2294, 380.7298
264.7115, 379.9935
265.1937, 380.3815
265.6758, 377.1932
266.1579, 368.5695
266.6400, 364.3192
267.1221, 365.7527
267.6042, 370.4045
268.0864, 374.0143
268.5685, 377.5205
269.0506, 377.5878
269.5327, 372.3871
270.0148, 361.0237
270.4969, 346.7795
270.9791, 327.5659
271.4612, 308.8070
271.9433, 303.7811
272.4254, 317.0851
272.9075, 327.1897
273.3896, 322.4012
273.8718, 300.0791
274.3539, 284.9668
274.8360, 278.1287
275.3181, 276.8226
275.8002, 277.8185
276.2823, 282.2245
276.7645, 283.2278
277.2466, 274.6759
277.7287, 255.4813
278.2108, 249.1757
278.6929, 259.5173
279.1750, 275.5878
279.6572, 279.7706
280.1393, 270.9286
280.6214, 259.6825
281.1035, 248.4757
281.5856, 237.4991
282.0677, 233.8808
282.5499, 239.8228
283.0320, 247.5631
283.5141, 244.8498
283.9962, 231.2728
284.4783, 218.2763
284.9604, 210.3960
285.4425, 207.1340
285.9247, 204.0565
286.4068, 201.1313
286.8889, 198.6187
287.3710, 197.1819
287.8531, 196.9960
288.3352, 197.5668
288.8174, 197.2639
289.2995, 197.0129
289.7816, 203.3833
290.2637, 217.5925
290.7458, 231.2220
291.2279, 232.7167
291.7101, 223.9265
292.1922, 217.3041
292.6743, 218.1381
293.1564, 224.3834
293.6385, 230.9225
294.1206, 237.4321
294.6028, 243.7620
295.0849, 252.3126
295.5670, 261.8951
296.0491, 266.0518
296.5312, 258.1554
297.0133, 246.5482
297.4955, 247.4705
297.9776, 260.4819
298.4597, 275.3409
298.9418, 282.4336
299.4239, 284.5656
299.9060, 288.3242
300.3882, 297.7748
300.8703, 308.8092
301.3524, 314.2875
301.8345, 314.9673
302.3166, 316.6259
302.7987, 327.7323
303.2809, 341.3080
303.7630, 344.5935
304.2451, 327.5031
304.7272, 307.3038
305.2093, 304.9277
305.6914, 317.3837
306.1736, 329.1019
306.6557, 329.4789
307.1378, 323.6754
307.6199, 318.7140
308.1020, 318.2915
308.5841, 315.3108
309.0663, 299.6439
309.5484, 275.3860
310.0305, 256.8418
310.5126, 258.4456
310.9947, 265.7242
311.4768, 264.7147
311.9590, 249.5250
312.4411, 233.9584
312.9232, 227.6285
313.4053, 227.3746
313.8874, 225.9728
314.3695, 220.2542
314.8517, 212.2104
315.3337, 203.2277
315.8159, 193.7471
316.2980, 182.5835
316.7801, 166.7699
317.2622, 149.1523
317.7443, 134.4090
318.2264, 125.4825
318.7086, 118.9815
319.1907, 114.2702
319.6728, 112.1209
320.1549, 107.7025
320.6370, 97.26636
321.1191, 84.48096
321.6013, 73.85291
322.0834, 67.80035
322.5655, 62.87592
323.0476, 58.08563
323.5297, 53.30389
324.0118, 49.04840
324.4940, 43.68951
324.9761, 39.61633
325.4582, 39.10199
325.9403, 47.43079
326.4224, 54.06842
326.9045, 56.90344
327.3867, 55.77930
327.8688, 53.84314
328.3509, 49.18823
328.8330, 44.96899
329.3151, 43.47241
329.7972, 50.12408
330.2794, 52.17932
330.7615, 45.03613
331.2436, 30.51501
331.7257, 24.54370
332.2078, 32.98132
332.6899, 43.58240
333.1721, 49.46796
333.6542, 49.73700
334.1363, 46.76562
334.6184, 38.89020
335.1005, 28.17181
335.5826, 21.28448
336.0648, 19.43353
336.5469, 19.17920
337.0290, 19.05756
337.5111, 19.23193
337.9932, 18.77234
338.4753, 17.37396
338.9575, 15.55597
339.4396, 14.74908
339.9217, 15.51898
340.4038, 14.96106
340.8859, 10.29065
341.3680, 1.191162
341.8502, 1.536560
342.3323, 3.968018
342.8144, 11.70990
343.2965, 13.06482
343.7786, 7.914673
344.2607, 1.224854
344.7429, 7.057556
345.2250, 15.66339
345.7071, 17.45203
346.1892, 11.61908
346.6713, 3.894043
347.1534, 0.1453860
347.6355, 0.9182740
348.1176, 1.028503
348.5998, 1.734863
349.0819, 1.914429
349.5640, 2.166565
350.0461, 10.42603
350.5282, 17.19092
351.0103, 18.18768
351.4925, 14.41931
351.9746, 6.906982
352.4567, 7.507080
352.9388, 20.34216
353.4209, 18.64429
353.9030, 5.228516
354.3852, 7.432190
354.8673, 10.78040
355.3494, 9.254028
355.8315, 8.399963
356.3136, 9.906372
356.7957, 9.973328
357.2779, 2.238708
357.7600, 9.366272
358.2421, 15.81287
358.7242, 7.668396
359.2063, 3.573303
359.6884, 9.936096
360.1706, 10.14618
360.6527, 8.177612
361.1348, 5.696777
361.6169, 2.200623
362.0990, 2.928223
362.5811, 15.18988
363.0633, 24.34412
363.5454, 24.19250
364.0275, 14.15277
364.5096, 6.902893
364.9917, 6.167175
365.4738, 9.248413
365.9560, 13.96417
366.4381, 21.18811
366.9202, 28.64886
367.4023, 36.39679
367.8844, 44.32825
368.3665, 51.44672
368.8487, 57.63556
369.3308, 63.09802
369.8129, 67.89349
370.2950, 72.11383
370.7771, 75.44263
371.2592, 76.70172
371.7414, 77.19250
372.2235, 80.42487
372.7056, 86.97479
373.1877, 95.47186
373.6698, 106.7268
374.1519, 123.2784
374.6341, 130.1742
375.1162, 121.2593
375.5983, 109.2108
376.0804, 115.4434
376.5625, 144.9202
377.0446, 173.0883
377.5267, 190.9604
378.0089, 199.5729
378.4910, 212.9387
378.9731, 232.3986
379.4552, 251.7455
379.9373, 262.2015
380.4194, 264.2566
380.9016, 271.5117
381.3837, 289.2637
381.8658, 312.7987
382.3479, 329.4738
382.8300, 339.3428
383.3121, 349.5247
383.7943, 367.4196
384.2764, 389.8035
384.7585, 407.3422
385.2406, 417.1630
385.7227, 424.6497
386.2048, 438.7382
386.6870, 456.7656
387.1691, 469.6660
387.6512, 467.8271
388.1333, 459.8082
388.6154, 456.4741
389.0975, 459.4109
389.5797, 461.8356
390.0618, 457.5948
390.5439, 449.6262
391.0260, 442.5372
391.5081, 442.9801
391.9902, 441.0568
392.4724, 426.5383
392.9545, 400.3906
393.4366, 381.8796
393.9187, 390.9086
394.4008, 405.1942
394.8829, 406.6097
395.3651, 377.3638
395.8472, 349.6958
396.3293, 331.9403
396.8114, 322.1077
397.2935, 312.9138
397.7756, 301.7336
398.2578, 291.9993
398.7399, 285.5324
399.2220, 285.7525
399.7041, 282.6920
400.1862, 275.6793
400.6683, 265.6374
401.1505, 253.4651
401.6326, 233.0606
402.1147, 219.7527
402.5968, 221.0488
403.0789, 239.1564
403.5610, 239.8710
404.0432, 215.1475
404.5253, 185.4572
405.0074, 171.3025
405.4895, 176.4459
405.9716, 180.8542
406.4537, 181.1005
406.9359, 178.0233
407.4180, 174.5157
407.9001, 170.2607
408.3822, 164.8594
408.8643, 158.6215
409.3464, 151.7429
409.8285, 141.9600
410.3106, 127.0164
410.7928, 113.7829
411.2749, 116.0513
411.7570, 131.5808
412.2391, 145.3271
412.7212, 150.3858
413.2033, 149.4420
413.6855, 145.3693
414.1676, 137.8938
414.6497, 131.5504
415.1318, 131.9448
415.6139, 136.2335
416.0960, 140.0887
416.5782, 141.0729
417.0603, 140.8605
417.5424, 140.8489
418.0245, 141.5322
418.5066, 141.5579
418.9887, 140.0337
419.4709, 138.3298
419.9530, 135.9319
420.4351, 130.6542
420.9172, 127.6941
421.3993, 131.2958
421.8814, 138.4642
422.3636, 143.1207
422.8457, 139.4855
423.3278, 136.6874
423.8099, 137.3847
424.2920, 143.6965
424.7741, 149.2250
425.2563, 155.6490
425.7384, 160.1304
426.2205, 159.6808
426.7026, 148.3989
427.1847, 141.9124
427.6668, 145.8478
428.1490, 157.2549
428.6311, 159.5436
429.1132, 146.9203
429.5953, 134.4663
430.0774, 132.3207
430.5595, 142.4136
431.0417, 149.6523
431.5238, 153.3377
432.0059, 153.9268
432.4880, 151.3148
432.9701, 145.3896
433.4522, 139.5991
433.9344, 133.8820
434.4165, 129.4012
434.8986, 132.0299
435.3807, 142.3268
435.8628, 152.4353
436.3449, 153.1906
436.8271, 147.8812
437.3092, 145.1964
437.7913, 148.5310
438.2734, 153.9190
438.7555, 157.8465
439.2376, 160.2165
439.7197, 160.6718
440.2018, 158.2626
440.6840, 154.2319
441.1661, 149.3417
441.6482, 143.4117
442.1303, 138.0563
442.6124, 135.8802
443.0945, 134.3165
443.5767, 129.8913
444.0588, 117.3275
444.5409, 105.7688
445.0230, 98.01508
445.5051, 94.14630
445.9872, 93.19025
446.4694, 100.2526
446.9515, 106.6271
447.4336, 106.9214
447.9157, 96.37421
448.3978, 86.38501
448.8799, 76.32758
449.3621, 67.11169
449.8442, 61.30292
450.3263, 59.82733
450.8084, 59.98346
451.2905, 61.24829
451.7726, 63.73383
452.2548, 65.47150
452.7369, 66.70386
453.2190, 66.61041
453.7011, 63.00012
454.1832, 55.73096
454.6653, 51.76324
455.1475, 53.75226
455.6296, 58.93134
456.1117, 60.78577
456.5938, 59.43909
457.0759, 57.49274
457.5580, 57.82050
458.0402, 58.65039
458.5223, 55.37164
459.0044, 46.68683
459.4865, 38.18073
459.9686, 36.25330
460.4507, 38.20819
460.9329, 38.79956
461.4150, 32.96582
461.8971, 27.19989
462.3792, 26.40326
462.8613, 30.21564
463.3434, 34.24670
463.8256, 39.33978
464.3077, 42.15967
464.7898, 39.72015
465.2719, 25.17273
465.7540, 15.23920
466.2361, 15.98657
466.7183, 23.23346
467.2004, 28.26636
467.6825, 27.97205
468.1646, 28.06708
468.6467, 31.32068
469.1288, 38.87128
469.6110, 38.80450
470.0930, 26.27368
470.5752, 12.18402
471.0573, 7.193176
471.5394, 14.80249
472.0215, 17.47705
472.5036, 11.19519
472.9857, 0.1382450
473.4679, 6.732483
473.9500, 8.481689
474.4321, 6.213684
474.9142, 4.247253
475.3963, 19.33136
475.8784, 21.01874
476.3606, 7.297791
476.8427, 8.068054
477.3248, 8.021729
477.8069, 1.739929
478.2890, 7.721069
478.7711, 3.499084
479.2533, 4.114441
479.7354, 11.15521
480.2175, 16.65680
480.6996, 16.55414
481.1817, 0.2237550
481.6638, 17.21173
482.1460, 23.14520
482.6281, 12.44611
483.1102, 1.874634
483.5923, 1.491272
484.0744, 2.064148
484.5565, 5.311462
485.0387, 21.37939
485.5208, 30.51727
486.0029, 24.95886
486.4850, 6.382446
486.9671, 6.756836
487.4492, 12.38306
487.9314, 14.85828
488.4135, 16.28210
488.8956, 16.55536
489.3777, 15.86951
489.8598, 13.41168
490.3419, 11.09204
490.8241, 13.22406
491.3062, 20.65948
491.7883, 24.52661
492.2704, 19.09027
492.7525, 8.623413
493.2346, 9.616089
493.7168, 22.13770
494.1989, 36.01562
494.6810, 44.61780
495.1631, 48.46802
495.6452, 47.26819
496.1273, 38.73065
496.6095, 32.37164
497.0916, 41.33850
497.5737, 59.18787
498.0558, 73.24017
498.5379, 75.26459
499.0201, 73.62604
499.5022, 73.11487
499.9843, 73.80658
500.4664, 73.61475
500.9485, 69.43872
501.4306, 65.64423
501.9127, 65.04572
502.3948, 66.50836
502.8770, 73.51257
503.3591, 88.84076
503.8412, 109.1909
504.3233, 129.8622
504.8054, 154.7139
505.2875, 173.0363
505.7697, 179.0253
506.2518, 173.1919
506.7339, 179.0922
507.2160, 199.8301
507.6981, 224.0637
508.1802, 244.5311
508.6624, 261.1923
509.1445, 269.8044
509.6266, 267.3545
510.1087, 262.6153
510.5908, 272.2260
511.0729, 293.2162
511.5551, 310.4958
512.0372, 316.8154
512.5193, 315.3997
513.0014, 309.7727
513.4835, 300.0872
513.9656, 287.8384
514.4478, 271.3009
514.9299, 254.0152
515.4120, 239.1249
515.8941, 226.4321
516.3762, 217.9948
516.8583, 222.0773
517.3405, 229.7205
517.8226, 225.9690
518.3047, 191.7651
518.7868, 161.8036
519.2689, 148.7287
519.7510, 152.6082
520.2332, 149.4290
520.7153, 133.6312
521.1974, 117.5398
521.6795, 108.7939
522.1616, 108.9315
522.6437, 111.8190
523.1259, 119.0480
523.6080, 126.3275
524.0901, 124.0530
524.5722, 111.6099
525.0543, 104.0457
525.5364, 109.1201
526.0186, 121.6916
526.5007, 127.8477
526.9828, 127.0399
527.4649, 124.9131
527.9470, 124.5090
528.4291, 126.6005
528.9113, 132.9125
529.3934, 144.8190
529.8755, 156.3710
530.3576, 164.8371
530.8397, 169.8652
531.3218, 170.7674
531.8040, 159.1729
532.2861, 151.8324
532.7682, 158.9373
533.2503, 177.8256
533.7324, 191.5928
534.2145, 194.0839
534.6967, 193.5468
535.1788, 193.9404
535.6609, 194.7427
536.1430, 200.3806
536.6251, 213.1945
537.1072, 227.7059
537.5894, 236.1950
538.0715, 236.7374
538.5536, 243.2591
539.0357, 262.6113
539.5178, 287.6587
539.9999, 301.5938
540.4821, 304.6534
540.9642, 302.1034
541.4463, 294.3968
541.9284, 283.0129
542.4105, 270.0204
542.8926, 254.6935
543.3748, 240.9559
543.8569, 234.9172
544.3390, 233.3307
544.8211, 230.1538
545.3032, 224.7975
545.7853, 214.8528
546.2675, 195.0051
546.7495, 169.5377
547.2316, 148.8855
547.7137, 134.3903
548.1959, 126.6295
548.6780, 128.7657
549.1601, 142.7559
549.6422, 148.9848
550.1243, 143.8475
550.6064, 134.6800
551.0886, 125.8307
551.5707, 116.2847
552.0528, 110.9640
552.5349, 110.8557
553.0170, 114.2198
553.4991, 119.5253
553.9813, 126.7723
554.4634, 130.6835
554.9455, 127.0941
555.4276, 119.9802
555.9097, 117.1035
556.3918, 118.5822
556.8740, 125.7343
557.3561, 148.5897
557.8382, 173.6344
558.3203, 181.2095
558.8024, 164.5632
559.2845, 150.4540
559.7667, 157.1370
560.2488, 174.4621
560.7309, 189.2733
561.2130, 194.7457
561.6951, 200.0914
562.1772, 209.3056
562.6594, 221.0081
563.1415, 228.7717
563.6236, 232.4203
564.1057, 232.0642
564.5878, 226.8213
565.0699, 216.1375
565.5521, 206.5844
566.0342, 197.9605
566.5163, 190.8961
566.9984, 186.0663
567.4805, 183.4305
567.9626, 182.0128
568.4448, 182.2449
568.9269, 182.2501
569.4090, 180.1279
569.8911, 175.6074
570.3732, 167.5985
570.8553, 152.4590
571.3375, 135.6846
571.8196, 122.5662
572.3017, 112.8309
572.7838, 105.4685
573.2659, 100.9094
573.7480, 97.78510
574.2302, 95.78613
574.7123, 96.54187
575.1944, 93.66174
575.6765, 81.69611
576.1586, 67.79626
576.6407, 59.96930
577.1229, 63.11908
577.6050, 63.02344
578.0871, 56.15198
578.5692, 45.35242
579.0513, 41.19025
579.5334, 45.31281
580.0156, 47.28650
580.4977, 39.46606
580.9798, 24.83392
581.4619, 20.27490
581.9440, 26.15662
582.4261, 30.46619
582.9083, 17.56781
583.3904, 2.911743
583.8725, 14.38000
584.3546, 12.55316
584.8367, 4.643738
585.3188, 11.11853
585.8010, 28.22150
586.2831, 36.52692
586.7652, 24.85199
587.2473, 11.79889
587.7294, 2.318909
588.2115, 3.593445
588.6937, 7.068176
589.1758, 7.609070
589.6579, 6.476868
590.1400, 3.805969
590.6221, 0.7246700
591.1042, 4.910156
591.5864, 9.307190
592.0685, 12.03369
592.5506, 10.02936
593.0327, 3.602295
593.5148, 0.7833250
593.9969, 1.969360
594.4791, 1.046875
594.9612, 1.731140
595.4433, 5.489807
595.9254, 7.483887
596.4075, 6.480774
596.8896, 3.143127
597.3718, 4.184814
597.8539, 14.31396
598.3360, 20.59875
598.8181, 18.44489
599.3002, 12.75336
599.7823, 5.984253
600.2645, 2.187439
600.7466, 9.584656
601.2287, 16.42474
601.7108, 22.09833
602.1929, 25.78253
602.6750, 26.37286
603.1572, 27.91211
603.6393, 31.17462
604.1214, 35.20844
604.6035, 39.19971
605.0856, 43.24518
605.5677, 42.98645
606.0499, 33.37817
606.5320, 19.97217
607.0141, 15.39905
607.4962, 18.97351
607.9783, 25.13257
608.4604, 30.14252
608.9425, 35.74957
609.4246, 45.25879
609.9067, 60.29327
610.3889, 70.68713
610.8710, 69.18665
611.3531, 62.19598
611.8352, 55.72595
612.3173, 47.85266
612.7994, 44.44672
613.2816, 50.02649
613.7637, 58.81171
614.2458, 58.88446
614.7279, 47.08783
615.2100, 35.18066
615.6921, 26.70532
616.1743, 20.69812
616.6564, 11.66229
617.1385, 0.6932980
617.6206, 9.415710
618.1027, 11.07648
618.5848, 5.547119
619.0670, 11.23779
619.5491, 40.27728
620.0312, 64.81244
620.5133, 71.27997
620.9954, 66.30536
621.4775, 57.10364
621.9597, 42.29218
622.4418, 28.99390
622.9239, 18.61737
623.4060, 11.42957
623.8881, 7.858276
624.3702, 9.758423
624.8524, 13.20972
625.3345, 19.20380
625.8166, 26.48401
626.2987, 27.07782
626.7808, 18.30090
627.2629, 12.14343
627.7451, 17.53357
628.2272, 32.24689
628.7093, 37.95966
629.1914, 34.23492
629.6735, 28.39191
630.1556, 27.34113
630.6378, 28.65326
631.1199, 26.64160
631.6020, 17.76880
632.0841, 14.75421
632.5662, 36.21875
633.0483, 65.74359
633.5305, 81.25604
634.0126, 57.79803
634.4947, 39.99786
634.9768, 42.24677
635.4589, 58.35742
635.9410, 67.47675
636.4232, 64.44354
636.9053, 63.48895
637.3874, 69.62683
637.8695, 82.25830
638.3516, 95.72418
638.8337, 110.7295
639.3159, 122.6755
639.7980, 126.9263
640.2801, 125.5387
640.7622, 124.5785
641.2443, 124.2230
641.7264, 125.0047
642.2086, 130.5515
642.6907, 138.0596
643.1728, 143.0259
643.6549, 142.4572
644.1370, 141.6840
644.6191, 140.8365
645.1013, 141.5837
645.5834, 146.9785
646.0655, 165.3247
646.5476, 178.7291
647.0297, 185.1588
647.5118, 184.6812
647.9940, 174.0491
648.4761, 148.0490
648.9582, 127.9399
649.4403, 127.5737
649.9224, 143.3060
650.4045, 150.4714
650.8867, 148.6895
651.3688, 144.2738
651.8509, 143.0104
652.3330, 142.6832
652.8151, 139.9282
653.2972, 136.5492
653.7794, 132.4089
654.2615, 118.1068
654.7436, 101.0110
655.2257, 91.76215
655.7078, 102.7978
656.1899, 112.3605
656.6721, 120.0878
657.1542, 124.1107
657.6363, 119.4174
658.1184, 101.3391
658.6005, 85.19580
659.0826, 73.57166
659.5648, 67.40149
660.0469, 74.92871
660.5290, 96.57855
661.0111, 112.4193
661.4932, 104.1734
661.9753, 83.92645
662.4575, 74.99432
662.9396, 77.77014
663.4217, 82.22681
663.9038, 83.17462
664.3859, 81.71252
664.8680, 77.68213
665.3502, 68.41980
665.8323, 64.85449
666.3144, 74.56952
666.7965, 88.70288
667.2786, 98.10052
667.7607, 101.3604
668.2429, 102.3364
668.7250, 100.6169
669.2071, 97.29944
669.6892, 93.87915
670.1713, 90.23706
670.6534, 89.05725
671.1355, 92.82648
671.6176, 98.06195
672.0997, 97.99377
672.5818, 93.31451
673.0640, 87.03461
673.5461, 77.59363
674.0282, 69.75684
674.5103, 67.36005
674.9924, 70.43750
675.4745, 75.71259
675.9567, 88.76599
676.4388, 99.87927
676.9209, 102.6029
677.4030, 94.34625
677.8851, 84.98987
678.3672, 72.09375
678.8494, 61.81189
679.3315, 60.35120
679.8136, 67.84955
680.2957, 80.92719
680.7778, 101.0974
681.2599, 119.8159
681.7421, 124.5261
682.2242, 118.0780
682.7063, 107.1162
683.1884, 86.86432
683.6705, 72.08826
684.1526, 81.38037
684.6348, 104.3812
685.1169, 117.2452
685.5990, 98.69110
686.0811, 82.88092
686.5632, 82.55481
687.0453, 95.51917
687.5275, 107.5845
688.0096, 120.2310
688.4917, 129.0116
688.9738, 132.7664
689.4559, 131.2913
689.9380, 119.3676
690.4202, 96.12793
690.9023, 74.92249
691.3844, 69.30713
691.8665, 73.26904
692.3486, 76.65320
692.8307, 78.61145
693.3129, 76.93396
693.7950, 64.85657
694.2771, 50.88733
694.7592, 44.32434
695.2413, 56.35474
695.7234, 61.62610
696.2056, 51.09277
696.6877, 34.32458
697.1698, 23.71680
697.6519, 21.31897
698.1340, 18.91479
698.6161, 14.13342
699.0983, 9.542969
699.5804, 13.10083
700.0625, 23.86926
700.5446, 31.76147
701.0267, 30.33911
701.5089, 25.09814
701.9910, 22.80823
702.4731, 23.05835
702.9552, 24.08374
703.4373, 27.06091
703.9194, 28.77075
704.4016, 26.12219
704.8837, 18.52551
705.3658, 14.70972
705.8479, 19.15442
706.3300, 23.16443
706.8121, 21.39417
707.2943, 12.21521
707.7764, 9.050049
708.2585, 13.02026
708.7406, 18.81970
709.2227, 26.30481
709.7048, 31.91284
710.1870, 17.20386
710.6691, 26.71851
711.1512, 63.50647
711.6333, 51.25348
712.1154, 15.22131
712.5975, 9.635132
713.0797, 6.182129
713.5618, 1.490112
714.0439, 2.466064
714.5260, 6.782593
715.0081, 10.57324
715.4902, 13.54065
715.9724, 16.55005
716.4545, 19.35791
716.9366, 21.52124
717.4187, 23.26038
717.9008, 25.43542
718.3829, 27.79419
718.8651, 29.90784
719.3472, 32.91724
719.8293, 40.13806
720.3114, 51.29419
720.7935, 63.62268
721.2756, 79.23425
721.7578, 91.07507
722.2399, 92.79285
722.7220, 84.48523
723.2041, 78.72925
723.6862, 77.45923
724.1683, 79.10278
724.6505, 83.34229
725.1326, 90.41553
725.6147, 98.00085
726.0968, 106.0581
726.5789, 114.5721
727.0610, 123.2784
727.5432, 132.3987
728.0253, 143.5280
728.5074, 157.2263
728.9895, 169.6509
729.4716, 174.0096
729.9537, 176.2834
730.4359, 183.7266
730.9180, 198.1682
731.4001, 217.7952
731.8822, 246.8712
732.3643, 279.1931
732.8464, 305.7235
733.3285, 320.0325
733.8106, 343.5176
734.2927, 382.7644
734.7748, 428.1180
735.2570, 459.2974
735.7391, 477.3567
736.2212, 498.6744
736.7033, 527.8900
737.1854, 564.2905
737.6675, 612.0428
738.1497, 666.5349
738.6318, 715.8536
739.1139, 743.6449
739.5960, 775.3041
740.0781, 829.8075
740.5602, 902.8533
741.0424, 959.5953
741.5245, 991.7654
742.0066, 1016.972
742.4887, 1039.168
742.9708, 1058.764
743.4529, 1084.189
743.9351, 1116.806
744.4172, 1142.108
744.8993, 1150.701
745.3814, 1144.664
745.8635, 1126.930
746.3456, 1097.799
746.8278, 1062.994
747.3099, 1027.397
747.7920, 987.3203
748.2741, 938.9600
748.7562, 879.8093
749.2383, 820.6919
749.7205, 767.9655
750.2026, 711.4033
750.6847, 644.5104
751.1668, 565.2345
751.6489, 478.8519
752.1310, 379.3647
752.6132, 290.8448
753.0953, 246.6284
753.5774, 237.1554
754.0595, 235.1130
754.5416, 237.2822
755.0237, 238.0907
755.5059, 235.1918
755.9880, 227.2974
756.4701, 212.6404
756.9522, 187.2828
757.4343, 159.5427
757.9164, 122.5627
758.3986, 87.68787
758.8807, 74.04089
759.3628, 91.28931
759.8449, 95.00256
760.3270, 72.20032
760.8091, 39.22400
761.2913, 27.66650
761.7734, 34.72424
762.2555, 45.57483
762.7376, 60.45630
763.2197, 69.84973
763.7018, 58.41309
764.1840, 34.53503
764.6661, 18.70605
765.1482, 28.55078
765.6303, 36.62268
766.1124, 33.27588
766.5945, 21.11096
767.0767, 9.655640
767.5588, 3.092651
768.0409, 9.502197
768.5230, 5.979858
769.0051, 2.857178
769.4872, 4.450195
769.9694, 0.7275390
770.4515, 4.963867
770.9336, 15.25452
771.4157, 25.30432
771.8978, 28.96729
772.3799, 26.46765
772.8621, 23.59766
773.3442, 26.08032
773.8263, 25.28345
774.3084, 13.31152
774.7905, 11.12329
775.2726, 18.23083
775.7548, 1.693237
776.2369, 16.03906
776.7190, 18.47266
777.2011, 8.791016
777.6832, 8.357178
778.1653, 17.51257
778.6475, 23.92932
779.1296, 15.38232
779.6117, 0.2011720
780.0938, 14.04236
780.5759, 26.53186
781.0580, 33.91736
781.5402, 31.49402
782.0223, 26.09509
782.5044, 22.22656
782.9865, 20.05847
783.4686, 18.83203
783.9507, 18.51746
784.4329, 19.21082
784.9150, 21.68005
785.3971, 25.45752
785.8792, 28.77991
786.3613, 31.82275
786.8434, 31.90393
787.3256, 20.83435
787.8077, 8.137207
788.2898, 5.583740
788.7719, 20.47571
789.2540, 34.61536
789.7361, 43.47681
790.2183, 49.64429
790.7004, 55.23767
791.1825, 60.45532
791.6646, 64.53992
792.1467, 67.39795
792.6288, 69.09509
793.1110, 67.00476
793.5930, 63.41760
794.0751, 67.44006
794.5573, 82.47534
795.0394, 101.5530
795.5215, 119.2555
796.0036, 136.7228
796.4857, 155.6210
796.9678, 179.9911
797.4500, 200.7891
797.9321, 215.2545
798.4142, 227.0598
798.8963, 240.1315
799.3784, 253.5492
799.8605, 276.0115
800.3427, 312.4792
800.8248, 351.1113
801.3069, 368.7760
801.7890, 373.0955
802.2711, 387.3743
802.7532, 425.6971
803.2354, 466.5635
803.7175, 489.2010
804.1996, 507.0894
804.6817, 543.8259
805.1638, 620.4562
805.6459, 695.7916
806.1281, 766.1624
806.6102, 832.6177
807.0923, 890.6296
807.5744, 939.1672
808.0565, 1009.270
808.5386, 1113.757
809.0208, 1236.647
809.5029, 1350.103
809.9850, 1461.375
810.4671, 1587.048
810.9492, 1733.302
811.4313, 1895.960
811.9135, 2074.738
812.3956, 2268.590
812.8777, 2473.066
813.3598, 2673.606
813.8419, 2910.811
814.3240, 3196.809
814.8062, 3520.711
815.2883, 3868.201
815.7704, 4235.625
816.2525, 4612.431
816.7346, 4975.138
817.2167, 5368.204
817.6989, 5848.700
818.1810, 6400.530
818.6631, 6985.177
819.1452, 7563.707
819.6273, 8208.338
820.1094, 8965.882
820.5916, 9800.864
821.0737, 10628.39
821.5558, 11437.26
822.0379, 12260.02
822.5200, 13116.01
823.0021, 13967.53
823.4843, 14787.80
823.9664, 15547.68
824.4485, 16153.25
824.9306, 16576.86
825.4127, 16809.95
825.8948, 16843.10
826.3770, 16683.07
826.8591, 16345.63
827.3412, 15750.19
827.8233, 15066.75
828.3054, 14312.58
828.7875, 13497.38
829.2697, 12665.25
829.7518, 11804.52
830.2339, 10966.57
830.7160, 10139.28
831.1981, 9354.418
831.6802, 8664.487
832.1624, 8052.743
832.6445, 7488.946
833.1266, 6958.872
833.6087, 6471.109
834.0908, 6025.196
834.5729, 5628.658
835.0551, 5285.684
835.5372, 5010.465
836.0193, 4759.937
836.5014, 4524.956
836.9835, 4307.975
837.4656, 4117.824
837.9478, 3955.024
838.4299, 3817.783
838.9120, 3712.961
839.3941, 3623.421
839.8762, 3533.933
840.3583, 3447.391
840.8405, 3370.223
841.3226, 3305.127
841.8047, 3251.165
842.2868, 3216.646
842.7689, 3189.223
843.2510, 3137.275
843.7332, 3058.348
844.2153, 2975.930
844.6974, 2895.557
845.1795, 2816.833
845.6616, 2747.552
846.1437, 2680.159
846.6259, 2596.455
847.1080, 2473.138
847.5901, 2348.714
848.0722, 2244.099
848.5543, 2149.037
849.0364, 2039.664
849.5186, 1907.858
850.0007, 1777.779
850.4828, 1651.746
850.9649, 1531.707
851.4470, 1420.468
851.9291, 1318.556
852.4113, 1226.771
852.8934, 1146.420
853.3755, 1072.792
853.8576, 1004.753
854.3397, 940.0885
854.8218, 874.0830
855.3040, 793.3938
855.7860, 727.9260
856.2681, 686.4485
856.7502, 657.4663
857.2324, 623.4955
857.7145, 584.3729
858.1966, 547.8986
858.6787, 516.7897
859.1608, 484.7059
859.6429, 435.7477
860.1251, 381.3633
860.6072, 341.4978
861.0893, 328.5674
861.5714, 317.9919
862.0535, 296.2268
862.5356, 274.2747
863.0178, 267.3949
863.4999, 288.7733
863.9820, 283.8180
864.4641, 241.9189
864.9462, 191.0936
865.4283, 167.5161
865.9105, 164.6484
866.3926, 163.9448
866.8747, 163.2151
867.3568, 158.3019
867.8389, 140.7665
868.3210, 120.7897
868.8032, 108.8075
869.2853, 114.1689
869.7674, 111.4841
870.2495, 97.78479
870.7316, 80.14685
871.2137, 62.99658
871.6959, 46.71436
872.1780, 37.69568
872.6601, 36.86646
873.1422, 36.58655
873.6243, 25.99280
874.1064, 14.52124
874.5886, 15.65796
875.0707, 34.50378
875.5528, 44.02173
876.0349, 28.73975
876.5170, 10.70972
876.9991, 1.283691
877.4813, 1.107544
877.9634, 0.9681400
878.4455, 1.010620
878.9276, 0.1444090
879.4097, 6.774780
879.8918, 13.79028
880.3740, 10.38586
880.8561, 2.981445
881.3382, 11.85461
881.8203, 4.481079
882.3024, 4.536011
882.7845, 7.938599
883.2667, 5.870605
883.7488, 8.5450001E-03
884.2309, 12.01331
884.7130, 18.66858
885.1951, 9.663086
885.6772, 6.937378
886.1594, 11.17163
886.6415, 4.241699
887.1236, 7.671265
887.6057, 25.51953
888.0878, 43.39160
888.5699, 58.67078
889.0521, 71.05420
889.5342, 80.00464
890.0163, 84.12183
890.4984, 90.16687
890.9805, 99.13733
891.4626, 109.7672
891.9448, 120.6818
892.4269, 131.9443
892.9090, 143.1254
893.3911, 153.2144
893.8732, 164.1078
894.3553, 174.2290
894.8375, 187.1906
895.3196, 209.0005
895.8017, 248.2703
896.2838, 285.2332
896.7659, 317.8661
897.2480, 348.3395
897.7302, 382.2931
898.2123, 418.4227
898.6944, 446.8673
899.1765, 461.5243
899.6586, 478.8892
900.1407, 521.4596
900.6229, 574.2992
901.1050, 616.8955
901.5871, 638.3054
902.0692, 663.7894
902.5513, 701.8464
903.0334, 739.9802
903.5156, 765.9818
903.9977, 779.5177
904.4798, 794.8474
904.9619, 813.7646
905.4440, 830.4441
905.9261, 837.3928
906.4083, 838.3938
906.8904, 842.3853
907.3725, 852.3044
907.8546, 844.1348
908.3367, 795.0977
908.8188, 740.1526
909.3010, 697.2178
909.7831, 666.3022
910.2652, 631.3528
910.7473, 592.1743
911.2294, 552.0176
911.7115, 511.2034
912.1937, 471.7710
912.6758, 436.1635
913.1579, 404.3673
913.6400, 373.4863
914.1221, 340.9304
914.6042, 310.5480
915.0864, 283.7917
915.5685, 260.2426
916.0506, 237.1713
916.5327, 213.4834
917.0148, 198.3998
917.4969, 197.8004
917.9790, 203.6742
918.4611, 207.4395
918.9432, 207.3281
919.4254, 198.7029
919.9075, 163.7980
920.3896, 138.5665
920.8717, 142.9034
921.3538, 160.6851
921.8359, 167.5348
922.3181, 159.9764
922.8002, 159.0345
923.2823, 168.6584
923.7644, 181.8566
924.2465, 187.1333
924.7286, 189.5073
925.2108, 198.6987
925.6929, 217.6453
926.1750, 240.0919
926.6571, 274.1636
927.1392, 302.5392
927.6213, 307.4056
928.1035, 277.6340
928.5856, 279.3329
929.0677, 317.0157
929.5498, 367.2618
930.0319, 421.3617
930.5140, 471.5081
930.9962, 498.3308
931.4783, 502.7780
931.9604, 509.1903
932.4425, 543.2374
932.9246, 569.8607
933.4067, 565.5448
933.8889, 535.3087
934.3710, 517.4757
934.8531, 517.4186
935.3352, 503.5146
935.8173, 456.0746
936.2994, 393.1244
936.7816, 349.6168
937.2637, 320.3876
937.7458, 291.6990
938.2279, 255.3773
938.7100, 221.2325
939.1921, 194.5378
939.6743, 172.1200
940.1564, 146.3101
940.6385, 114.1821
941.1206, 94.70020
941.6027, 93.71619
942.0848, 96.86389
942.5670, 81.84009
943.0491, 57.63000
943.5312, 41.33984
944.0133, 39.31836
944.4954, 36.92468
944.9775, 25.50000
945.4597, 13.24438
945.9418, 7.533203
946.4239, 10.57043
946.9060, 5.809204
947.3881, 8.424683
947.8702, 20.01489
948.3524, 17.17078
948.8345, 6.414917
949.3166, 3.080200
949.7987, 10.79321
950.2808, 16.03674
950.7629, 19.43921
951.2451, 19.00623
951.7272, 12.46716
952.2093, 1.492676
952.6914, 5.669189
953.1735, 8.657104
953.6556, 11.97900
954.1378, 17.76770
954.6199, 24.17053
955.1020, 30.90698
955.5841, 36.02869
956.0662, 35.52466
956.5483, 23.77551
957.0305, 11.52734
957.5126, 0.1210940
957.9947, 10.31775
958.4768, 21.01672
958.9589, 32.38293
959.4410, 34.39307
959.9232, 24.83362
960.4053, 12.67004
960.8874, 7.302124
961.3695, 4.174194
961.8516, 4.900513
962.3337, 23.73889
962.8159, 29.43359
963.2980, 5.993896
963.7801, 17.48132
964.2622, 26.91882
964.7443, 23.39783
965.2264, 17.50391
965.7086, 9.519043
966.1907, 5.895630
966.6728, 14.99939
967.1549, 26.56445
967.6370, 32.72229
968.1191, 33.48267
968.6013, 29.35669
969.0834, 10.61694
969.5655, 3.098511
970.0476, 15.16736
970.5297, 35.69861
971.0118, 42.52844
971.4940, 38.00671
971.9761, 35.38306
972.4582, 38.83521
972.9403, 42.09302
973.4224, 40.72449
973.9045, 36.85327
974.3867, 31.99219
974.8688, 22.84082
975.3509, 23.69019
975.8330, 38.86121
976.3151, 53.45142
976.7972, 53.50281
977.2794, 43.49426
977.7615, 35.28088
978.2436, 29.63232
978.7257, 29.47803
979.2078, 42.76086
979.6899, 56.03381
980.1720, 60.99561
980.6541, 59.13562
981.1362, 59.59448
981.6183, 63.58545
982.1005, 63.91235
982.5826, 56.34619
983.0647, 47.37817
983.5468, 50.70996
984.0289, 60.99658
984.5110, 66.31116
984.9932, 60.95667
985.4753, 53.38403
985.9574, 40.66138
986.4395, 30.76526
986.9216, 33.24524
987.4037, 50.24744
987.8859, 58.19043
988.3680, 55.03418
988.8501, 51.25464
989.3322, 58.80334
989.8143, 69.23560
990.2964, 70.64709
990.7786, 61.79053
991.2607, 60.06738
991.7428, 78.95288
992.2249, 92.62000
992.7070, 91.79016
993.1891, 80.02112
993.6713, 67.25134
994.1534, 54.47998
994.6355, 50.47449
995.1176, 64.19617
995.5997, 80.24573
996.0818, 86.55042
996.5640, 87.24231
997.0461, 88.68408
997.5282, 92.48877
998.0103, 95.06653
998.4924, 95.72266
998.9745, 96.35913
999.4567, 100.5812
999.9388, 106.2451
1000.421, 106.7310
1000.903, 101.4553
1001.385, 95.14478
1001.867, 85.78271
1002.349, 80.61865
1002.831, 88.57263
1003.314, 106.8741
1003.796, 108.5033
1004.278, 90.19373
1004.760, 76.47864
1005.242, 79.07800
1005.724, 88.19836
1006.206, 92.33533
1006.688, 92.68140
1007.171, 90.84460
1007.653, 83.74890
1008.135, 78.56360
1008.617, 75.11621
1009.099, 74.59497
1009.581, 78.82959
1010.063, 87.30640
1010.545, 99.17273
1011.027, 115.2148
1011.510, 122.2053
1011.992, 95.96863
1012.474, 65.17700
1012.956, 57.81616
1013.438, 76.74353
1013.920, 85.19092
1014.402, 78.95227
1014.884, 71.16296
1015.367, 65.67578
1015.849, 62.34131
1016.331, 59.52783
1016.813, 58.27344
1017.295, 63.33093
1017.777, 88.88782
1018.259, 102.6498
1018.741, 79.68127
1019.223, 45.08032
1019.706, 26.59143
1020.188, 26.33398
1020.670, 28.23950
1021.152, 33.65747
1021.634, 40.19409
1022.116, 47.38403
1022.598, 51.93372
1023.080, 48.54309
1023.563, 37.00586
1024.045, 25.52161
1024.527, 10.24805
1025.009, 4.904053
1025.491, 17.64319
1025.973, 40.20850
1026.455, 46.36938
1026.937, 38.85181
1027.419, 36.23804
1027.901, 52.23669
1028.384, 63.00171
1028.866, 42.52100
1029.348, 12.45056
1029.830, 0.2209470
1030.312, 12.79272
1030.794, 21.72473
1031.276, 26.20703
1031.758, 28.28491
1032.241, 28.99683
1032.723, 28.66443
1033.205, 27.39014
1033.687, 25.67883
1034.169, 25.78027
1034.651, 32.67029
1035.133, 36.44885
1035.615, 32.60254
1036.098, 24.55981
1036.580, 22.04077
1037.062, 24.53418
1037.544, 24.76733
1038.026, 19.94434
1038.508, 15.11621
1038.990, 15.31006
1039.472, 17.47961
1039.954, 17.56689
1040.437, 12.74646
1040.919, 15.81165
1041.401, 29.87598
1041.883, 42.73718
1042.365, 45.67468
1042.847, 41.75122
1043.329, 37.86877
1043.811, 33.75549
1044.293, 27.93298
1044.776, 9.681030
1045.258, 3.174683
1045.740, 27.45496
1046.222, 59.64612
1046.704, 54.66138
1047.186, 12.61572
1047.668, 6.106323
1048.150, 10.43994
1048.633, 34.40930
1049.115, 46.32300
1049.597, 48.68030
1050.079, 40.47876
1050.561, 19.09973
1051.043, 9.890259
1051.525, 16.93579
1052.007, 26.75012
1052.490, 35.19800
1052.972, 40.68274
1053.454, 34.67786
1053.936, 22.43665
1054.418, 18.83350
1054.900, 43.07141
1055.382, 60.61487
1055.864, 56.25635
1056.346, 44.48596
1056.828, 42.11279
1057.311, 49.31531
1057.793, 49.36658
1058.275, 41.09399
1058.757, 32.20825
1059.239, 29.87097
1059.721, 27.47766
1060.203, 16.52185
1060.685, 1.254272
1061.168, 4.992065
1061.650, 12.43030
1062.132, 25.05444
1062.614, 24.94250
1063.096, 18.16089
1063.578, 13.71704
1064.060, 10.76685
1064.542, 7.008301
1065.025, 0.4497070
1065.507, 2.987793
1065.989, 1.294434
1066.471, 4.193726
1066.953, 15.56519
1067.435, 32.04309
1067.917, 34.48401
1068.399, 23.86060
1068.881, 13.71875
1069.364, 11.97571
1069.846, 13.84741
1070.328, 19.42786
1070.810, 25.50879
1071.292, 23.75415
1071.774, 9.765015
1072.256, 3.200195
1072.738, 7.603149
1073.220, 15.21948
1073.703, 17.68982
1074.185, 17.04382
1074.667, 15.87927
1075.149, 14.48608
1075.631, 13.24817
1076.113, 10.60510
1076.595, 10.77307
1077.077, 17.05054
1077.559, 26.09119
1078.042, 24.64502
1078.524, 15.97852
1079.006, 14.61023
1079.488, 29.09033
1079.970, 45.05823
1080.452, 57.27197
1080.934, 65.24597
1081.416, 68.75647
1081.899, 66.99072
1082.381, 65.64526
1082.863, 64.67126
1083.345, 64.47021
1083.827, 65.09937
1084.309, 66.51965
1084.791, 69.48865
1085.273, 73.29529
1085.755, 75.53699
1086.238, 76.79858
1086.720, 74.47571
1087.202, 67.57507
1087.684, 58.23389
1088.166, 48.48010
1088.648, 39.01184
1089.130, 31.39148
1089.612, 25.90979
1090.094, 21.62646
1090.577, 15.94861
1091.059, 14.31750
1091.541, 21.43506
1092.023, 33.96484
1092.505, 35.26721
1092.987, 26.85461
1093.469, 21.92908
1093.951, 28.20789
1094.434, 33.90283
1094.916, 28.09485
1095.398, 18.38489
1095.880, 13.94861
1096.362, 16.36926
1096.844, 17.79590
1097.326, 17.97961
1097.808, 18.94019
1098.291, 24.30640
1098.773, 29.83875
1099.255, 29.62524
1099.737, 24.77148
1100.219, 19.13184
1100.701, 12.49902
1101.183, 6.922119
1101.665, 2.687500
1102.147, 0.5622560
1102.630, 3.508911
1103.112, 5.811279
1103.594, 6.796997
1104.076, 6.444946
1104.558, 3.839722
1105.040, 3.346924
1105.522, 10.51807
1106.004, 17.12463
1106.486, 22.47009
1106.969, 25.14539
1107.451, 25.17566
1107.933, 22.14001
1108.415, 14.16357
1108.897, 7.701538
1109.379, 9.944824
1109.861, 14.56934
1110.343, 15.19678
1110.826, 11.40930
1111.308, 5.823975
1111.790, 1.876709
1112.272, 7.896118
1112.754, 12.38452
1113.236, 12.04199
1113.718, 4.330444
1114.200, 27.72046
1114.682, 35.69983
1115.165, 12.99805
1115.647, 2.576538
1116.129, 8.399536
1116.611, 6.920532
1117.093, 3.602905
1117.575, 17.94141
1118.057, 24.34705
1118.539, 22.74182
1119.021, 22.95837
1119.504, 36.44617
1119.986, 42.43579
1120.468, 32.60034
1120.950, 15.20093
1121.432, 7.043457
1121.914, 6.955811
1122.396, 10.61133
1122.878, 17.84827
1123.361, 24.24268
1123.843, 24.36853
1124.325, 27.14917
1124.807, 37.91638
1125.289, 56.30054
1125.771, 65.50549
1126.253, 65.70801
1126.735, 63.32898
1127.218, 61.82422
1127.700, 58.83289
1128.182, 47.05054
1128.664, 34.26221
1129.146, 33.14526
1129.628, 48.94324
1130.110, 57.43018
1130.592, 57.84961
1131.074, 55.61206
1131.557, 51.42139
1132.039, 49.27356
1132.521, 59.34094
1133.003, 76.15125
1133.485, 81.07922
1133.967, 61.94263
1134.449, 47.63733
1134.931, 40.53174
1135.413, 40.38013
1135.896, 50.40308
1136.378, 65.82617
1136.860, 77.69885
1137.342, 85.21570
1137.824, 92.10413
1138.306, 99.67261
1138.788, 107.8827
1139.270, 118.2207
1139.752, 125.9401
1140.235, 117.4425
1140.717, 97.36328
1141.199, 80.32922
1141.681, 69.03381
1142.163, 65.37305
1142.645, 81.20386
1143.127, 94.18237
1143.609, 88.10840
1144.092, 67.32190
1144.574, 66.18921
1145.056, 82.06299
1145.538, 90.79590
1146.020, 79.14648
1146.502, 63.00134
1146.984, 45.58386
1147.466, 34.33008
1147.948, 39.14941
1148.431, 64.52161
1148.913, 72.49304
1149.395, 62.45898
1149.877, 52.19666
1150.359, 52.20984
1150.841, 58.54236
1151.323, 72.50818
1151.805, 89.34741
1152.287, 97.71216
1152.770, 94.32922
1153.252, 93.33777
1153.734, 96.65564
1154.216, 98.13000
1154.698, 88.76904
1155.180, 76.14709
1155.662, 70.01355
1156.144, 69.97131
1156.627, 66.60864
1157.109, 53.46228
1157.591, 52.02148
1158.073, 70.29785
1158.555, 92.79480
1159.037, 97.90601
1159.519, 92.23596
1160.001, 85.54395
1160.484, 79.01587
1160.966, 74.09546
1161.448, 71.54163
1161.930, 70.09827
1162.412, 70.69153
1162.894, 70.69897
1163.376, 60.57910
1163.858, 45.32288
1164.340, 38.13293
1164.823, 44.88013
1165.305, 52.72095
1165.787, 59.86389
1166.269, 65.17627
1166.751, 67.01245
1167.233, 66.65833
1167.715, 72.51465
1168.197, 81.93250
1168.679, 83.23535
1169.162, 62.59583
1169.644, 45.01794
1170.126, 39.75940
1170.608, 40.35303
1171.090, 43.73193
1171.572, 50.06750
1172.054, 51.53479
1172.536, 48.50159
1173.019, 46.64380
1173.501, 50.95178
1173.983, 54.88940
1174.465, 55.81067
1174.947, 55.19873
1175.429, 54.51465
1175.911, 53.78601
1176.393, 51.96814
1176.875, 49.04187
1177.358, 42.75391
1177.840, 24.02966
1178.322, 8.512573
1178.804, 10.85352
1179.286, 24.38049
1179.768, 31.21631
1180.250, 31.32117
1180.732, 21.26123
1181.214, 2.720947
1181.697, 15.71973
1182.179, 25.14709
1182.661, 70.12256
1183.143, 70.31567
1183.625, 29.73608
1184.107, 0.8259280
1184.589, 16.38562
1185.071, 20.77612
1185.554, 8.828491
1186.036, 6.356079
1186.518, 11.75952
1187.000, 12.30347
1187.482, 12.26428
1187.964, 11.74414
1188.446, 18.21130
1188.928, 33.95923
1189.411, 40.84753
1189.893, 25.58496
1190.375, 5.989868
1190.857, 5.300049
1191.339, 13.55530
1191.821, 15.72974
1192.303, 6.089355
1192.785, 4.313110
1193.267, 11.52380
1193.750, 20.95654
1194.232, 33.41992
1194.714, 41.37366
1195.196, 29.64697
1195.678, 7.235474
1196.160, 6.979858
1196.642, 6.655640
1197.124, 5.387085
1197.606, 3.125122
1198.089, 0.4760740
1198.571, 5.059692
1199.053, 11.19995
1199.535, 21.91467
1200.017, 34.75769
1200.499, 41.60413
1200.981, 39.46179
1201.463, 34.50781
1201.945, 26.12024
1202.428, 19.32764
1202.910, 19.97021
1203.392, 25.23120
1203.874, 34.32483
1204.356, 45.46545
1204.838, 46.69019
1205.320, 28.97510
1205.802, 18.83643
1206.285, 22.39307
1206.767, 29.94604
1207.249, 26.68127
1207.731, 20.37085
1208.213, 26.20056
1208.695, 45.19751
1209.177, 51.49792
1209.659, 34.52051
1210.141, 23.42566
1210.624, 27.38928
1211.106, 36.87146
1211.588, 39.19055
1212.070, 36.44897
1212.552, 30.27612
1213.034, 20.04309
1213.516, 17.43799
1213.998, 27.01990
1214.480, 34.93970
1214.963, 35.72253
1215.445, 33.35461
1215.927, 35.44763
1216.409, 39.17078
1216.891, 38.75818
1217.373, 30.90027
1217.855, 29.80383
1218.337, 41.00500
1218.820, 46.91711
1219.302, 35.33777
1219.784, 18.11963
1220.266, 18.77209
1220.748, 30.13049
1221.230, 40.01111
1221.712, 44.18555
1222.194, 44.42578
1222.677, 40.29919
1223.159, 33.83362
1223.641, 23.80530
1224.123, 14.22607
1224.605, 14.09216
1225.087, 19.63538
1225.569, 22.83752
1226.051, 13.85132
1226.533, 18.69324
1227.016, 43.92773
1227.498, 64.96069
1227.980, 59.36682
1228.462, 40.43506
1228.944, 24.75586
1229.426, 14.22144
1229.908, 14.08826
1230.390, 40.14832
1230.872, 46.95959
1231.355, 27.74866
1231.837, 6.798096
1232.319, 6.551025
1232.801, 16.82483
1233.283, 25.80347
1233.765, 32.61182
1234.247, 35.36414
1234.729, 30.47168
1235.212, 30.64893
1235.694, 38.53394
1236.176, 44.91748
1236.658, 36.80725
1237.140, 24.78113
1237.622, 23.56262
1238.104, 30.75671
1238.586, 33.65442
1239.068, 31.33508
1239.551, 31.22766
1240.033, 31.58752
1240.515, 38.27771
1240.997, 59.70398
1241.479, 79.92981
1241.961, 80.37646
1242.443, 62.60022
1242.925, 42.85083
1243.407, 18.74622
1243.890, 9.790161
1244.372, 21.53174
1244.854, 39.75061
1245.336, 55.16589
1245.818, 63.20239
1246.300, 59.54504
1246.782, 45.90881
1247.264, 36.83936
1247.747, 31.68286
1248.229, 34.09937
1248.711, 46.52673
1249.193, 58.37061
1249.675, 59.30603
1250.157, 55.34253
1250.639, 51.22754
1251.121, 47.31799
1251.604, 43.10901
1252.086, 38.64392
1252.568, 34.88098
1253.050, 32.74829
1253.532, 28.45264
1254.014, 15.00732
1254.496, 1.141235
1254.978, 6.847168
1255.460, 9.000366
1255.943, 1.914307
1256.425, 13.77173
1256.907, 22.10034
1257.389, 15.13757
1257.871, 13.76648
1258.353, 48.36169
1258.835, 79.15088
1259.317, 75.37793
1259.799, 43.79358
1260.281, 21.33630
1260.764, 7.661499
1261.246, 3.136108
1261.728, 10.95935
1262.210, 18.07129
1262.692, 17.48523
1263.174, 13.83008
1263.656, 7.710815
1264.138, 1.702515
1264.621, 9.233154
1265.103, 25.87439
1265.585, 33.23633
1266.067, 20.41943
1266.549, 10.79089
1267.031, 16.36218
1267.513, 22.60107
1267.995, 20.84314
1268.478, 14.62598
1268.960, 14.53723
1269.442, 19.89417
1269.924, 29.77844
1270.406, 49.82202
1270.888, 59.22266
1271.370, 52.76489
1271.852, 40.62695
1272.334, 24.71265
1272.817, 10.31055
1273.299, 13.65161
1273.781, 26.93860
1274.263, 32.75000
1274.745, 18.66980
1275.227, 11.77893
1275.709, 21.30151
1276.191, 33.26306
1276.673, 44.72900
1277.156, 49.74475
1277.638, 29.57837
1278.120, 0.7421880
1278.602, 12.71838
1279.084, 6.841797
1279.566, 18.97571
1280.048, 22.72363
1280.530, 26.24573
1281.013, 36.90845
1281.495, 47.51807
1281.977, 50.49670
1282.459, 48.47375
1282.941, 45.20593
1283.423, 40.58203
1283.905, 35.75623
1284.387, 30.56982
1284.870, 30.42908
1285.352, 48.14319
1285.834, 61.66223
1286.316, 50.26807
1286.798, 24.57812
1287.280, 14.57190
1287.762, 15.63879
1288.244, 18.10291
1288.726, 21.74243
1289.208, 25.05371
1289.691, 23.35217
1290.173, 25.90674
1290.655, 42.50903
1291.137, 60.57812
1291.619, 70.35046
1292.101, 71.30408
1292.583, 54.78198
1293.065, 25.71692
1293.548, 4.493896
1294.030, 0.2130130
1294.512, 0.0000000E+00
##END=



