##NAMES=Allophane
##RRUFFID=R120001
##IDEAL CHEMISTRY=Al_2_O_3_(SiO_2_)_1.3-2.0_&#183;2.5-3.0H_2_O
##LOCALITY=Juanita mine, Kelly, New Mexico, USA
##OWNER=RRUFF
##SOURCE=Robert Jenkins
##DESCRIPTION=Light blue globular
##STATUS=The identification of this mineral is not yet confirmed.
##URL=rruff.info/R120001
140.2973, 0.0000000E+00
140.7794, 1.927368
141.2615, 3.443726
141.7437, 1.689575
142.2258, 0.1608890
142.7079, 0.3571780
143.1900, 2.383667
143.6721, 3.921387
144.1542, 4.485962
144.6364, 4.464355
145.1185, 5.069092
145.6006, 5.732544
146.0827, 6.096802
146.5648, 6.168701
147.0469, 6.163086
147.5291, 6.758911
148.0112, 8.786865
148.4933, 11.47412
148.9754, 12.19470
149.4575, 8.955933
149.9396, 6.891235
150.4218, 8.688721
150.9039, 12.28882
151.3860, 14.89307
151.8681, 14.55896
152.3502, 11.52466
152.8323, 9.815186
153.3145, 10.74744
153.7966, 12.03296
154.2787, 13.60742
154.7608, 15.21313
155.2429, 16.25525
155.7250, 16.03003
156.2072, 14.71960
156.6893, 14.01257
157.1714, 13.79736
157.6535, 13.94312
158.1356, 14.29077
158.6177, 14.69812
159.0999, 15.06848
159.5820, 15.42371
160.0641, 15.31934
160.5462, 15.23267
161.0283, 16.08118
161.5104, 16.81140
161.9926, 16.75562
162.4747, 15.73901
162.9568, 14.52362
163.4389, 14.57202
163.9210, 16.19733
164.4031, 17.50635
164.8853, 18.11774
165.3674, 18.68347
165.8495, 18.21088
166.3316, 16.86340
166.8137, 15.45605
167.2958, 14.76917
167.7780, 14.64899
168.2601, 14.24658
168.7422, 12.73108
169.2243, 10.52618
169.7064, 9.273987
170.1885, 10.04108
170.6707, 10.71680
171.1528, 9.766724
171.6349, 7.473877
172.1170, 5.083557
172.5991, 3.582825
173.0812, 2.996765
173.5634, 2.414551
174.0455, 1.559998
174.5276, 0.9673460
175.0097, 0.9354860
175.4918, 1.425842
175.9739, 2.187683
176.4561, 3.125610
176.9382, 4.561035
177.4203, 4.989258
177.9024, 3.257141
178.3845, 1.523193
178.8666, 1.255493
179.3488, 2.461365
179.8309, 3.872192
180.3130, 3.686218
180.7951, 0.7567140
181.2772, 1.213257
181.7593, 1.842041
182.2415, 1.895752
182.7236, 1.849121
183.2057, 1.835815
183.6878, 1.775696
184.1699, 1.543091
184.6520, 1.036011
185.1342, 0.5092160
185.6163, 0.3047490
186.0984, 1.033752
186.5805, 1.129944
187.0626, 0.3981930
187.5447, 0.5672000
188.0269, 0.6322630
188.5090, 0.4968870
188.9911, 1.175964
189.4732, 0.3246460
189.9553, 1.109436
190.4374, 1.291077
190.9196, 0.5784910
191.4017, 3.229065
191.8838, 4.771362
192.3659, 5.167053
192.8480, 5.534729
193.3301, 6.552856
193.8123, 7.991516
194.2944, 8.973022
194.7765, 9.097900
195.2586, 8.872864
195.7407, 8.903625
196.2228, 9.199829
196.7050, 9.424805
197.1871, 9.060303
197.6692, 8.164917
198.1513, 8.707764
198.6334, 10.71185
199.1155, 13.19147
199.5977, 15.62585
200.0798, 17.94025
200.5619, 20.09729
201.0440, 21.99371
201.5261, 23.59937
202.0082, 25.11481
202.4904, 26.75452
202.9725, 28.17010
203.4546, 29.03442
203.9367, 29.37079
204.4188, 29.59155
204.9009, 30.07520
205.3831, 30.61249
205.8652, 32.15002
206.3473, 36.03149
206.8294, 39.84033
207.3115, 42.03021
207.7936, 42.43268
208.2758, 42.04358
208.7579, 42.23639
209.2400, 43.37543
209.7221, 44.28577
210.2042, 44.54303
210.6863, 44.88055
211.1685, 45.91315
211.6506, 47.70844
212.1327, 49.75592
212.6148, 51.24139
213.0969, 51.30591
213.5790, 52.74805
214.0612, 56.82397
214.5433, 61.38141
215.0254, 64.73138
215.5075, 66.47308
215.9896, 67.38623
216.4718, 68.55835
216.9539, 70.26111
217.4360, 71.52075
217.9181, 71.86780
218.4002, 71.98828
218.8823, 72.39764
219.3645, 73.21924
219.8466, 74.63623
220.3287, 77.15375
220.8108, 81.07477
221.2929, 84.39972
221.7750, 86.73077
222.2572, 88.38477
222.7393, 89.56689
223.2214, 90.23279
223.7035, 90.92950
224.1856, 92.50598
224.6677, 94.88324
225.1499, 97.12482
225.6320, 98.97461
226.1141, 100.5496
226.5962, 102.0051
227.0783, 103.3299
227.5604, 104.6177
228.0426, 105.9335
228.5247, 107.2830
229.0068, 108.7502
229.4889, 110.6815
229.9710, 112.7130
230.4531, 113.9031
230.9353, 113.8089
231.4174, 113.6265
231.8995, 114.3101
232.3816, 115.6304
232.8637, 117.0220
233.3458, 118.2165
233.8280, 119.2811
234.3101, 120.5091
234.7922, 122.2075
235.2743, 123.5177
235.7564, 123.7692
236.2385, 123.3142
236.7207, 122.8927
237.2028, 123.0921
237.6849, 123.6951
238.1670, 123.7692
238.6491, 123.4076
239.1312, 122.0516
239.6134, 118.9876
240.0955, 115.1075
240.5776, 111.8624
241.0597, 110.3577
241.5418, 110.1044
242.0239, 108.7092
242.5061, 105.0446
242.9882, 101.8025
243.4703, 100.0389
243.9524, 99.18750
244.4345, 98.32819
244.9166, 96.86780
245.3988, 94.83978
245.8809, 92.85974
246.3630, 91.24982
246.8451, 89.44604
247.3272, 87.27979
247.8093, 84.71533
248.2915, 81.85474
248.7736, 78.79749
249.2557, 75.58228
249.7378, 72.58533
250.2199, 69.56873
250.7020, 67.13361
251.1842, 66.16138
251.6663, 65.66016
252.1484, 64.29156
252.6305, 61.33887
253.1126, 57.37415
253.5947, 54.15460
254.0769, 52.20996
254.5590, 50.58398
255.0411, 49.42224
255.5232, 48.34082
256.0053, 46.85046
256.4874, 44.78711
256.9695, 42.54608
257.4517, 41.08636
257.9338, 40.78351
258.4159, 40.90857
258.8980, 42.23572
259.3801, 43.67877
259.8622, 43.82800
260.3444, 42.23114
260.8265, 40.02191
261.3086, 39.22760
261.7907, 41.33081
262.2728, 42.63147
262.7549, 42.69244
263.2371, 42.13330
263.7192, 41.49609
264.2013, 40.93109
264.6834, 40.36401
265.1655, 39.63837
265.6476, 38.43774
266.1298, 37.99213
266.6119, 38.73596
267.0940, 40.02203
267.5761, 41.37677
268.0582, 42.68811
268.5403, 43.86096
269.0225, 44.74768
269.5046, 45.26666
269.9867, 45.86322
270.4688, 46.73700
270.9509, 47.58051
271.4330, 48.03088
271.9152, 48.07141
272.3973, 48.14197
272.8794, 48.75757
273.3615, 49.95935
273.8436, 50.64716
274.3257, 50.14557
274.8079, 49.58325
275.2900, 50.14471
275.7721, 51.78973
276.2542, 53.14496
276.7363, 53.10242
277.2184, 51.74243
277.7006, 50.56604
278.1827, 49.63629
278.6648, 48.85193
279.1469, 48.34711
279.6290, 48.04913
280.1111, 47.37592
280.5933, 45.83221
281.0754, 43.67395
281.5575, 41.87817
282.0396, 40.73468
282.5217, 39.60913
283.0038, 38.08142
283.4860, 36.21582
283.9681, 34.30511
284.4502, 32.44061
284.9323, 30.65216
285.4144, 28.98004
285.8965, 27.45605
286.3787, 25.96674
286.8608, 24.31366
287.3429, 22.61664
287.8250, 21.29675
288.3071, 20.56958
288.7892, 20.19275
289.2714, 19.84784
289.7535, 19.55988
290.2356, 19.14679
290.7177, 18.56104
291.1998, 17.78564
291.6819, 16.70959
292.1641, 15.19897
292.6462, 13.58521
293.1283, 12.27765
293.6104, 11.23834
294.0925, 10.10144
294.5746, 8.244385
295.0568, 6.277832
295.5389, 5.692017
296.0210, 7.088989
296.5031, 8.585449
296.9852, 8.330566
297.4673, 6.849915
297.9495, 5.441040
298.4316, 4.619019
298.9137, 4.076416
299.3958, 3.417297
299.8779, 2.650940
300.3600, 1.658386
300.8422, 9.0759002E-02
301.3243, 2.056702
301.8064, 3.189697
302.2885, 2.844299
302.7706, 1.999512
303.2527, 1.841919
303.7349, 2.430115
304.2170, 2.888062
304.6991, 2.753174
305.1812, 2.257446
305.6633, 1.685974
306.1454, 1.020264
306.6276, 0.4037480
307.1097, 0.1601560
307.5918, 0.6525270
308.0739, 0.6331180
308.5560, 0.4563600
309.0381, 1.753540
309.5203, 2.193848
310.0024, 1.675659
310.4845, 1.151611
310.9666, 1.485168
311.4487, 2.445435
311.9308, 2.807373
312.4130, 2.040222
312.8951, 1.034607
313.3772, 0.7398680
313.8593, 1.036011
314.3414, 1.102051
314.8235, 0.4454350
315.3057, 0.7357180
315.7878, 2.132751
316.2699, 4.077209
316.7520, 5.350281
317.2341, 4.152405
317.7162, 1.601868
318.1984, 0.1997070
318.6805, 1.895813
319.1626, 4.778564
319.6447, 5.538391
320.1268, 3.715759
320.6089, 2.094910
321.0911, 2.411987
321.5732, 3.885193
322.0553, 5.626709
322.5374, 7.764771
323.0195, 9.635437
323.5016, 10.25800
323.9838, 9.621277
324.4659, 9.356995
324.9480, 10.30914
325.4301, 11.81177
325.9122, 13.08582
326.3943, 14.10559
326.8765, 14.84961
327.3586, 15.17804
327.8407, 15.16711
328.3228, 15.16364
328.8049, 14.97632
329.2870, 15.23419
329.7692, 16.96246
330.2513, 19.99292
330.7334, 22.32642
331.2155, 22.47583
331.6976, 21.27924
332.1797, 20.59558
332.6619, 20.57690
333.1440, 21.18921
333.6261, 22.91205
334.1082, 25.28638
334.5903, 27.21564
335.0724, 27.99432
335.5546, 28.33124
336.0367, 29.21973
336.5188, 30.72559
337.0009, 32.08868
337.4830, 32.62183
337.9651, 32.80872
338.4473, 33.61877
338.9294, 35.58661
339.4115, 37.51587
339.8936, 38.28076
340.3758, 38.03772
340.8579, 37.94965
341.3400, 38.48065
341.8221, 39.34619
342.3042, 40.12640
342.7863, 40.83850
343.2685, 41.39990
343.7506, 41.84613
344.2327, 42.10406
344.7148, 41.86798
345.1969, 40.88007
345.6790, 39.90771
346.1612, 39.89020
346.6433, 40.68591
347.1254, 41.80457
347.6075, 43.30237
348.0896, 44.96606
348.5717, 46.75366
349.0539, 48.69623
349.5360, 49.95544
350.0181, 49.56628
350.5002, 47.90485
350.9823, 46.85107
351.4644, 46.55450
351.9466, 46.86035
352.4287, 48.18756
352.9108, 50.22461
353.3929, 51.44312
353.8750, 50.89917
354.3571, 49.29816
354.8393, 48.35699
355.3214, 48.09003
355.8035, 48.24127
356.2856, 49.19196
356.7677, 50.42261
357.2498, 50.85925
357.7320, 50.10303
358.2141, 48.97852
358.6962, 48.64960
359.1783, 49.26630
359.6604, 49.47571
360.1425, 48.93799
360.6247, 48.22284
361.1068, 47.79364
361.5889, 47.64362
362.0710, 47.53882
362.5531, 47.33258
363.0352, 47.04395
363.5174, 46.74573
363.9995, 46.36456
364.4816, 46.05847
364.9637, 45.83118
365.4458, 45.72443
365.9279, 45.92267
366.4101, 46.55035
366.8922, 47.29456
367.3743, 47.20953
367.8564, 45.82080
368.3385, 44.47913
368.8206, 43.08466
369.3028, 41.81824
369.7849, 41.17487
370.2670, 41.31274
370.7491, 41.59546
371.2312, 41.07312
371.7133, 39.45941
372.1955, 37.67065
372.6776, 35.21515
373.1597, 33.12079
373.6418, 32.32483
374.1239, 32.52264
374.6060, 32.43878
375.0882, 30.96313
375.5703, 28.15436
376.0524, 25.99347
376.5345, 25.32513
377.0166, 24.46210
377.4987, 22.88800
377.9809, 20.89929
378.4630, 18.81055
378.9451, 16.76862
379.4272, 15.05127
379.9093, 14.40472
380.3914, 16.01465
380.8736, 16.70331
381.3557, 15.95032
381.8378, 14.62024
382.3199, 13.04645
382.8020, 11.44556
383.2841, 10.27539
383.7663, 10.21661
384.2484, 11.53601
384.7305, 12.05987
385.2126, 11.01855
385.6947, 9.876648
386.1768, 8.769531
386.6590, 7.928894
387.1411, 7.806274
387.6232, 8.830688
388.1053, 10.51849
388.5874, 11.12378
389.0695, 10.31641
389.5517, 8.975525
390.0338, 6.503723
390.5159, 4.096436
390.9980, 3.051575
391.4801, 3.711426
391.9622, 4.953857
392.4444, 5.245544
392.9265, 4.416443
393.4086, 4.359253
393.8907, 6.448120
394.3728, 8.273071
394.8549, 8.100708
395.3371, 6.346924
395.8192, 4.779480
396.3013, 4.913574
396.7834, 6.087158
397.2655, 5.864807
397.7477, 3.537781
398.2298, 1.665771
398.7119, 2.082642
399.1940, 3.603760
399.6761, 4.858032
400.1582, 5.604065
400.6404, 5.763306
401.1225, 4.859924
401.6046, 2.977600
402.0867, 1.817505
402.5688, 2.249207
403.0509, 3.223206
403.5331, 3.312622
404.0152, 2.487122
404.4973, 2.076843
404.9794, 3.114319
405.4615, 4.817139
405.9436, 5.858337
406.4258, 6.066895
406.9079, 5.758301
407.3900, 5.031372
407.8721, 3.955566
408.3542, 2.917114
408.8363, 1.762268
409.3185, 0.8228150
409.8006, 0.5142820
410.2827, 0.6540530
410.7648, 0.5346680
411.2469, 0.2660520
411.7290, 1.279968
412.2112, 1.322327
412.6933, 7.8247003E-02
413.1754, 1.107727
413.6575, 1.243164
414.1396, 0.9709470
414.6217, 0.7467040
415.1039, 0.6622920
415.5860, 0.6479490
416.0681, 0.6481320
416.5502, 0.6697390
417.0323, 0.6032710
417.5144, 0.3070680
417.9966, 8.3007999E-02
418.4787, 0.1220090
418.9608, 0.1459960
419.4429, 0.4312740
419.9250, 1.866089
420.4071, 3.698242
420.8893, 4.606995
421.3714, 3.484985
421.8535, 3.114990
422.3356, 4.605408
422.8177, 6.116577
423.2998, 5.957336
423.7820, 4.093872
424.2641, 1.960022
424.7462, 1.057800
425.2283, 1.470764
425.7104, 1.788513
426.1925, 1.955322
426.6747, 2.075928
427.1568, 2.225952
427.6389, 2.338745
428.1210, 2.229309
428.6031, 1.745239
429.0852, 1.251343
429.5674, 1.595459
430.0495, 3.052551
430.5316, 4.351685
431.0137, 5.530396
431.4958, 6.203552
431.9779, 5.792969
432.4601, 4.378052
432.9422, 3.025391
433.4243, 2.602234
433.9064, 2.928955
434.3885, 3.247681
434.8706, 3.572571
435.3528, 3.772888
435.8349, 3.648926
436.3170, 3.361084
436.7991, 3.177124
437.2812, 3.243164
437.7633, 3.318237
438.2455, 2.996033
438.7276, 2.380188
439.2097, 2.326599
439.6918, 3.392578
440.1739, 4.757813
440.6560, 4.992798
441.1382, 3.986145
441.6203, 3.477661
442.1024, 4.402954
442.5845, 5.828491
443.0666, 6.729797
443.5487, 7.013062
444.0309, 7.008850
444.5130, 6.866516
444.9951, 6.643555
445.4772, 6.829407
445.9593, 7.803406
446.4414, 8.685669
446.9236, 9.095642
447.4057, 9.281738
447.8878, 9.730530
448.3699, 10.59589
448.8520, 11.41364
449.3341, 11.41333
449.8163, 10.13849
450.2984, 9.338623
450.7805, 8.951172
451.2626, 9.015442
451.7447, 9.873840
452.2268, 11.21851
452.7090, 12.33051
453.1911, 12.71680
453.6732, 12.52264
454.1553, 12.31305
454.6374, 11.83453
455.1195, 11.80176
455.6017, 12.69415
456.0838, 13.77917
456.5659, 14.34363
457.0480, 14.29846
457.5301, 14.24902
458.0122, 14.87073
458.4944, 16.14905
458.9765, 17.44641
459.4586, 19.17078
459.9407, 20.22284
460.4228, 19.75378
460.9049, 18.35742
461.3871, 17.01123
461.8692, 15.87634
462.3513, 15.23132
462.8334, 15.76270
463.3155, 17.40057
463.7976, 18.57507
464.2798, 18.78864
464.7619, 18.32581
465.2440, 17.30151
465.7261, 15.67981
466.2082, 14.68250
466.6903, 15.24634
467.1725, 16.36115
467.6546, 16.83032
468.1367, 16.61316
468.6188, 16.19043
469.1009, 15.77698
469.5830, 15.35571
470.0652, 15.00458
470.5473, 14.51361
471.0294, 14.40686
471.5115, 14.99152
471.9936, 16.01410
472.4757, 17.34863
472.9579, 18.86938
473.4400, 19.97754
473.9221, 19.86578
474.4042, 18.24878
474.8863, 17.22601
475.3684, 16.98730
475.8506, 16.96814
476.3327, 17.07758
476.8148, 17.24573
477.2969, 17.36938
477.7790, 17.38977
478.2611, 17.37616
478.7433, 17.49274
479.2254, 17.78937
479.7075, 18.08740
480.1896, 18.40265
480.6717, 18.71637
481.1538, 18.80170
481.6360, 18.77893
482.1181, 19.12811
482.6002, 20.42859
483.0823, 22.24951
483.5644, 23.30334
484.0465, 23.41400
484.5287, 23.39832
485.0108, 23.60364
485.4929, 23.87445
485.9750, 23.97845
486.4571, 23.84424
486.9392, 23.81985
487.4214, 24.11520
487.9035, 24.67178
488.3856, 25.41364
488.8677, 26.36270
489.3498, 27.33569
489.8319, 28.25940
490.3141, 29.07291
490.7962, 29.43256
491.2783, 28.66870
491.7604, 28.17010
492.2425, 28.95654
492.7246, 30.38657
493.2068, 31.21100
493.6889, 30.98856
494.1710, 30.22693
494.6531, 29.69122
495.1352, 29.33151
495.6173, 29.45816
496.0995, 30.75290
496.5816, 31.80447
497.0637, 31.78427
497.5458, 30.99179
498.0279, 30.16580
498.5100, 29.72299
498.9922, 29.48260
499.4743, 28.91843
499.9564, 27.83380
500.4385, 26.95407
500.9206, 26.62094
501.4027, 26.35330
501.8849, 25.79208
502.3670, 24.98499
502.8491, 24.33466
503.3312, 24.27164
503.8133, 24.53033
504.2954, 24.44815
504.7776, 24.05170
505.2597, 23.19891
505.7418, 21.46756
506.2239, 19.44205
506.7060, 17.96640
507.1881, 17.19104
507.6703, 16.54666
508.1524, 15.82782
508.6345, 15.03571
509.1166, 14.04153
509.5987, 12.81851
510.0808, 11.90408
510.5630, 11.86026
511.0451, 12.57916
511.5272, 12.73099
512.0093, 12.22559
512.4914, 11.34116
512.9735, 9.681030
513.4556, 7.877350
513.9377, 6.797150
514.4199, 6.657654
514.9020, 6.941132
515.3841, 7.102814
515.8662, 7.217743
516.3483, 6.677277
516.8304, 4.600067
517.3126, 2.809326
517.7947, 1.989777
518.2768, 1.731293
518.7589, 1.397186
519.2410, 0.7408140
519.7231, 2.8778000E-02
520.2053, 0.3500370
520.6874, 0.3784180
521.1695, 0.3616030
521.6516, 0.3423160
522.1337, 0.3188780
522.6158, 0.2813720
523.0980, 0.2431950
523.5801, 0.2131650
524.0622, 1.9286999E-02
524.5443, 6.1278999E-02
525.0264, 0.8343200
525.5085, 2.437347
525.9907, 3.267029
526.4728, 2.690613
526.9549, 1.472015
527.4370, 0.5848080
527.9191, 1.0040000E-02
528.4012, 0.1456600
528.8834, 0.7828060
529.3655, 1.631134
529.8476, 1.362000
530.3297, 0.3391420
530.8118, 0.2801820
531.2939, 0.1467290
531.7761, 1.172974
532.2582, 1.664215
532.7403, 1.409454
533.2224, 0.9338990
533.7045, 8.4840003E-03
534.1866, 0.9476320
534.6688, 1.638824
535.1509, 2.022919
535.6330, 2.247711
536.1151, 2.482025
536.5972, 2.614319
537.0793, 2.142334
537.5615, 0.8448490
538.0436, 7.4459999E-03
538.5257, 0.3103030
539.0078, 0.9429930
539.4899, 1.158539
539.9720, 1.001312
540.4542, 0.9870000
540.9363, 1.336700
541.4184, 1.852905
541.9005, 2.448669
542.3826, 3.152618
542.8647, 3.717682
543.3469, 3.972809
543.8290, 3.925964
544.3111, 3.656097
544.7932, 3.149353
545.2753, 2.599304
545.7574, 1.802948
546.2396, 1.087341
546.7217, 0.8402400
547.2038, 1.035461
547.6859, 1.366852
548.1680, 1.535736
548.6501, 1.519501
549.1323, 1.348724
549.6144, 0.8424680
550.0965, 0.5694890
550.5786, 0.5668950
551.0607, 0.7937620
551.5428, 1.384857
552.0250, 2.232697
552.5071, 2.891052
552.9892, 2.953339
553.4713, 2.610962
553.9534, 2.352142
554.4355, 2.146149
554.9177, 2.285370
555.3998, 3.326721
555.8819, 4.423096
556.3640, 4.229675
556.8461, 2.507324
557.3282, 1.377930
557.8104, 2.208496
558.2925, 3.724243
558.7746, 4.406891
559.2567, 4.233521
559.7388, 4.004303
560.2209, 4.220093
560.7031, 4.669647
561.1852, 4.677063
561.6673, 3.666443
562.1494, 3.013763
562.6315, 3.045166
563.1136, 3.193207
563.5958, 2.970245
564.0779, 2.460999
564.5600, 2.127563
565.0421, 2.294067
565.5242, 2.813965
566.0063, 3.261414
566.4885, 3.664886
566.9706, 3.928894
567.4527, 3.942871
567.9348, 3.879791
568.4169, 3.852875
568.8990, 3.862885
569.3812, 3.833893
569.8633, 3.690338
570.3454, 3.514801
570.8275, 3.458649
571.3096, 3.508362
571.7917, 3.445862
572.2739, 3.095612
572.7560, 2.713806
573.2381, 2.856842
573.7202, 3.782227
574.2023, 4.185028
574.6844, 3.414429
575.1666, 2.546051
575.6487, 2.467834
576.1308, 2.913940
576.6129, 3.035431
577.0950, 2.373383
577.5771, 1.296204
578.0593, 0.6000980
578.5414, 0.3589170
579.0235, 0.3318790
579.5056, 0.5916440
579.9877, 0.9975590
580.4698, 1.626190
580.9520, 2.340851
581.4341, 2.883392
581.9162, 3.184845
582.3983, 3.183777
582.8804, 2.539337
583.3625, 1.304047
583.8447, 0.5602110
584.3268, 0.7346500
584.8089, 1.287628
585.2910, 1.782898
585.7732, 2.181519
586.2553, 2.163330
586.7374, 1.156036
587.2195, 0.2176210
587.7017, 4.1351002E-02
588.1838, 0.2220460
588.6659, 0.7833250
589.1480, 1.510437
589.6301, 2.042664
590.1122, 1.962189
590.5944, 1.241730
591.0765, 0.5016170
591.5586, 0.6774900
592.0407, 1.347565
592.5228, 1.024445
593.0049, 0.2228390
593.4871, 0.5747070
593.9692, 1.227203
594.4513, 1.547302
594.9334, 1.151489
595.4155, 0.2330320
595.8976, 0.2998350
596.3798, 0.2465820
596.8619, 0.3047790
597.3440, 1.091248
597.8261, 2.193665
598.3082, 2.575134
598.7903, 1.887970
599.2725, 1.349182
599.7546, 1.610809
600.2367, 2.045380
600.7188, 1.899628
601.2009, 1.195343
601.6830, 0.5112920
602.1652, 0.2498780
602.6473, 0.2853090
603.1294, 0.1193540
603.6115, 0.6068120
604.0936, 0.8441160
604.5757, 0.1402280
605.0579, 0.9811710
605.5400, 0.5882570
606.0221, 0.7197880
606.5042, 1.744659
606.9863, 1.755981
607.4684, 1.211487
607.9506, 0.7735900
608.4327, 0.4531560
608.9148, 0.3385930
609.3969, 0.4756470
609.8790, 0.8031310
610.3611, 1.401672
610.8433, 2.229065
611.3254, 2.658936
611.8075, 2.230194
612.2896, 1.802246
612.7717, 1.953827
613.2538, 2.376373
613.7360, 2.477448
614.2181, 2.099548
614.7002, 1.636322
615.1823, 1.553406
615.6644, 1.913544
616.1465, 2.094360
616.6287, 1.851929
617.1108, 1.769104
617.5929, 2.145844
618.0750, 2.657318
618.5571, 2.925476
619.0392, 2.890686
619.5214, 2.893799
620.0035, 3.494629
620.4856, 4.245911
620.9677, 3.848877
621.4498, 2.204102
621.9319, 0.9988710
622.4141, 1.114258
622.8962, 2.124542
623.3783, 3.253387
623.8604, 4.735504
624.3425, 5.590363
624.8246, 5.218414
625.3068, 4.615112
625.7889, 4.448547
626.2710, 4.609192
626.7531, 4.625519
627.2352, 4.260437
627.7173, 3.839111
628.1995, 4.036774
628.6816, 5.006561
629.1637, 5.732880
629.6458, 6.016815
630.1279, 6.227325
630.6100, 6.582153
631.0922, 6.991516
631.5743, 7.275940
632.0564, 7.347565
632.5385, 7.404510
633.0206, 7.728577
633.5027, 8.109436
633.9849, 8.019165
634.4670, 7.388641
634.9491, 6.803467
635.4312, 6.726807
635.9133, 6.997375
636.3954, 6.840973
636.8776, 5.450745
637.3597, 4.776581
637.8418, 5.587402
638.3239, 6.572021
638.8060, 6.764893
639.2881, 6.249084
639.7703, 5.611603
640.2524, 5.149872
640.7345, 4.894287
641.2166, 4.970856
641.6987, 5.401245
642.1808, 5.826569
642.6630, 6.154297
643.1451, 6.500153
643.6272, 7.013916
644.1093, 7.633850
644.5914, 8.138062
645.0735, 8.814362
645.5557, 9.009369
646.0378, 7.962189
646.5199, 6.473907
647.0020, 5.731232
647.4841, 5.916626
647.9662, 6.405151
648.4484, 6.675446
648.9305, 6.731079
649.4126, 6.538147
649.8947, 5.802032
650.3768, 5.515594
650.8589, 6.463959
651.3411, 7.438721
651.8232, 7.399323
652.3053, 6.491486
652.7874, 5.770050
653.2695, 5.786591
653.7516, 6.198212
654.2338, 6.778168
654.7159, 7.453125
655.1980, 7.912201
655.6801, 8.081909
656.1622, 7.881958
656.6443, 7.088409
657.1265, 5.619843
657.6086, 4.977112
658.0907, 5.605438
658.5728, 6.387939
659.0549, 7.507721
659.5370, 8.433258
660.0192, 8.527435
660.5013, 7.750183
660.9834, 6.613159
661.4655, 5.271393
661.9476, 4.020477
662.4297, 4.140991
662.9119, 5.856995
663.3940, 6.962616
663.8761, 6.332794
664.3582, 5.335419
664.8403, 5.830719
665.3224, 7.667297
665.8046, 9.018127
666.2867, 9.504059
666.7688, 9.537445
667.2509, 8.939240
667.7330, 8.181458
668.2151, 8.100433
668.6973, 8.867126
669.1794, 9.845978
669.6615, 10.36893
670.1436, 10.47522
670.6257, 10.79965
671.1078, 11.62076
671.5900, 12.08844
672.0721, 11.58609
672.5542, 10.89404
673.0363, 10.66641
673.5184, 10.90137
674.0005, 11.08603
674.4827, 10.89178
674.9648, 10.62704
675.4469, 10.53253
675.9290, 10.62350
676.4111, 10.98584
676.8932, 11.64786
677.3754, 12.39706
677.8575, 12.99585
678.3396, 13.44031
678.8217, 13.81458
679.3038, 13.97339
679.7859, 14.22913
680.2681, 14.88550
680.7502, 15.52835
681.2323, 15.60889
681.7144, 15.18463
682.1965, 14.99893
682.6786, 15.81238
683.1608, 16.96085
683.6429, 17.26208
684.1250, 16.81503
684.6071, 16.41492
685.0892, 16.26193
685.5714, 16.37189
686.0535, 16.81393
686.5356, 17.61340
687.0177, 18.32239
687.4998, 18.96225
687.9819, 19.48505
688.4641, 19.85995
688.9462, 20.12418
689.4283, 20.20175
689.9104, 20.16324
690.3925, 20.34567
690.8746, 21.11603
691.3568, 22.17953
691.8389, 22.74561
692.3210, 22.78650
692.8031, 23.06470
693.2852, 23.92731
693.7673, 24.82880
694.2495, 25.20447
694.7316, 25.06961
695.2137, 24.84503
695.6958, 24.54562
696.1779, 24.17322
696.6600, 23.45334
697.1422, 22.81268
697.6243, 22.79199
698.1064, 23.40094
698.5885, 24.23700
699.0706, 25.03763
699.5527, 25.77283
700.0349, 26.31915
700.5170, 26.63321
700.9991, 27.00873
701.4812, 27.42230
701.9633, 28.03226
702.4454, 29.28830
702.9276, 30.89371
703.4097, 31.79434
703.8918, 31.18213
704.3739, 30.74805
704.8560, 31.49301
705.3381, 32.63446
705.8203, 33.18045
706.3024, 33.09894
706.7845, 32.96182
707.2666, 33.12167
707.7487, 33.64236
708.2308, 34.87363
708.7130, 37.10736
709.1951, 38.65909
709.6772, 38.93091
710.1593, 38.99127
710.6414, 39.69177
711.1235, 40.66736
711.6057, 41.07260
712.0878, 40.50946
712.5699, 40.02206
713.0520, 40.09964
713.5341, 40.55350
714.0162, 41.30792
714.4984, 42.25098
714.9805, 42.96127
715.4626, 43.17053
715.9447, 43.24164
716.4268, 44.04321
716.9089, 45.86319
717.3911, 47.15030
717.8732, 47.41873
718.3553, 47.64633
718.8374, 48.46210
719.3195, 49.53583
719.8016, 50.37213
720.2838, 50.86563
720.7659, 50.98511
721.2480, 50.33820
721.7301, 49.64374
722.2122, 49.73560
722.6943, 50.46176
723.1765, 51.31223
723.6586, 52.11530
724.1407, 52.58078
724.6228, 52.09595
725.1049, 50.48334
725.5870, 49.11069
726.0692, 47.98111
726.5513, 47.20325
727.0334, 46.98389
727.5155, 47.04388
727.9976, 47.05176
728.4797, 46.93961
728.9619, 47.01898
729.4440, 47.71347
729.9261, 48.50012
730.4082, 48.95975
730.8903, 49.00467
731.3724, 48.60513
731.8546, 47.86734
732.3367, 46.87039
732.8188, 45.65692
733.3009, 44.15921
733.7830, 42.87964
734.2651, 41.74042
734.7473, 41.02695
735.2294, 41.14755
735.7115, 41.44589
736.1936, 41.79404
736.6757, 41.98621
737.1578, 41.19745
737.6400, 38.07391
738.1221, 35.34421
738.6042, 35.60709
739.0863, 37.14221
739.5684, 37.00531
740.0505, 34.95264
740.5327, 32.85507
741.0148, 32.08466
741.4969, 32.19363
741.9790, 31.84167
742.4611, 30.85233
742.9432, 30.06094
743.4254, 29.69675
743.9075, 29.35513
744.3896, 28.65442
744.8717, 27.85306
745.3538, 27.56964
745.8359, 28.23969
746.3181, 28.30582
746.8002, 26.27795
747.2823, 23.88293
747.7644, 23.11987
748.2465, 23.64214
748.7286, 23.85986
749.2108, 23.05067
749.6929, 21.82133
750.1750, 21.14188
750.6571, 21.05890
751.1392, 20.46721
751.6213, 19.14662
752.1035, 17.81310
752.5856, 16.75887
753.0677, 15.82468
753.5498, 14.71793
754.0319, 13.41940
754.5140, 12.57814
754.9962, 12.98550
755.4783, 13.22585
755.9604, 12.04765
756.4425, 10.30585
756.9246, 9.522400
757.4067, 9.880005
757.8889, 10.09665
758.3710, 8.919998
758.8531, 6.912781
759.3352, 6.164963
759.8173, 6.885498
760.2994, 7.050018
760.7816, 5.985458
761.2637, 4.722275
761.7458, 4.161530
762.2279, 4.159729
762.7100, 3.965134
763.1921, 3.372833
763.6743, 2.889587
764.1564, 2.785950
764.6385, 2.715393
765.1206, 2.294983
765.6027, 1.662552
766.0848, 1.255295
766.5670, 1.281296
767.0491, 1.489197
767.5312, 1.582489
768.0133, 1.571915
768.4954, 1.558456
768.9775, 1.571091
769.4597, 1.322510
769.9418, 0.5493470
770.4239, 0.3864440
770.9060, 0.8269810
771.3881, 0.6081540
771.8702, 0.5378880
772.3524, 0.6936800
772.8345, 0.9019320
773.3166, 1.106155
773.7987, 1.330170
774.2808, 1.734955
774.7629, 2.258698
775.2451, 2.428482
775.7272, 1.591766
776.2093, 0.5457310
776.6914, 0.7230070
777.1735, 1.778000
777.6556, 2.172394
778.1378, 1.532822
778.6199, 0.8206330
779.1020, 0.8992610
779.5841, 1.568359
780.0662, 1.777328
780.5483, 1.135071
781.0305, 0.7777560
781.5126, 1.130081
781.9947, 1.417114
782.4768, 1.076279
782.9589, 0.4465030
783.4410, 0.1936190
783.9232, 0.5133060
784.4053, 1.037598
784.8874, 1.836639
785.3695, 2.525757
785.8516, 2.451309
786.3337, 1.812485
786.8159, 1.482773
787.2980, 1.802078
787.7801, 2.024719
788.2622, 0.9423220
788.7443, 1.360123
789.2264, 2.103851
789.7086, 0.5072940
790.1907, 0.4423220
790.6728, 0.5892490
791.1549, 2.162537
791.6370, 2.942993
792.1191, 2.995590
792.6013, 2.692856
793.0834, 1.487549
793.5655, 0.6824190
794.0476, 1.070053
794.5297, 1.887390
795.0118, 2.481659
795.4940, 2.745880
795.9761, 2.734467
796.4582, 2.465637
796.9403, 2.011902
797.4224, 1.297806
797.9045, 0.4293210
798.3867, 0.1791690
798.8688, 0.6430820
799.3509, 1.499237
799.8330, 2.790497
800.3151, 4.053696
800.7972, 4.349564
801.2794, 3.339554
801.7615, 2.697510
802.2436, 2.727325
802.7257, 2.715637
803.2078, 2.430008
803.6899, 2.021011
804.1721, 1.423492
804.6542, 0.7802890
805.1363, 0.8034210
805.6184, 2.320175
806.1005, 4.152496
806.5826, 5.027664
807.0648, 5.288071
807.5469, 5.785080
808.0290, 6.619537
808.5111, 7.114700
808.9932, 6.719070
809.4753, 5.900955
809.9575, 5.987152
810.4396, 7.248962
810.9217, 8.186584
811.4038, 8.572067
811.8859, 8.878616
812.3680, 9.167252
812.8502, 9.601517
813.3323, 10.46989
813.8144, 11.83807
814.2965, 13.22797
814.7786, 14.70140
815.2607, 15.99220
815.7429, 16.79320
816.2250, 17.38210
816.7071, 18.05130
817.1892, 18.90990
817.6713, 20.14499
818.1534, 22.13190
818.6356, 24.19174
819.1177, 24.70697
819.5998, 23.92526
820.0819, 23.80341
820.5640, 24.70732
821.0461, 26.04965
821.5283, 27.42892
822.0104, 28.93921
822.4925, 30.90602
822.9746, 33.98280
823.4567, 36.06506
823.9388, 36.28131
824.4210, 36.53226
824.9031, 37.54843
825.3852, 38.95979
825.8673, 40.22693
826.3494, 41.28589
826.8315, 42.57759
827.3137, 44.48741
827.7958, 46.52292
828.2779, 48.39232
828.7600, 50.03738
829.2421, 51.26436
829.7242, 52.09103
830.2064, 52.89432
830.6885, 53.94797
831.1706, 55.25458
831.6527, 57.00375
832.1348, 59.20699
832.6169, 60.61191
833.0991, 60.75775
833.5812, 61.30518
834.0633, 63.46060
834.5454, 66.38416
835.0275, 68.36926
835.5096, 69.12125
835.9918, 69.96707
836.4739, 70.43576
836.9560, 71.52292
837.4381, 74.05200
837.9202, 77.10287
838.4023, 79.70880
838.8845, 81.73987
839.3666, 83.66220
839.8487, 85.82520
840.3308, 87.98267
840.8129, 89.78748
841.2950, 91.38947
841.7772, 92.98407
842.2593, 94.64709
842.7414, 96.70068
843.2235, 99.40289
843.7056, 102.3078
844.1877, 104.3990
844.6699, 105.5829
845.1520, 106.6398
845.6341, 107.5065
846.1162, 108.5457
846.5983, 109.7986
847.0804, 111.3238
847.5626, 113.4926
848.0447, 116.3328
848.5268, 118.8069
849.0089, 120.8240
849.4910, 122.4052
849.9731, 122.8111
850.4553, 123.3690
850.9374, 125.8013
851.4195, 129.4947
851.9016, 132.1420
852.3837, 132.5492
852.8658, 132.3946
853.3480, 133.3017
853.8301, 134.6629
854.3122, 135.2452
854.7943, 135.1699
855.2764, 135.5781
855.7585, 136.9640
856.2407, 138.3886
856.7228, 138.5460
857.2049, 137.5518
857.6870, 137.1367
858.1691, 137.5222
858.6512, 137.6049
859.1334, 137.0678
859.6155, 136.2127
860.0976, 135.2093
860.5797, 134.0936
861.0618, 133.0515
861.5439, 131.8145
862.0261, 131.0984
862.5082, 131.7300
862.9903, 132.1434
863.4724, 131.4431
863.9545, 129.8782
864.4366, 127.6776
864.9188, 124.9322
865.4009, 122.7120
865.8830, 122.1340
866.3651, 122.1099
866.8472, 121.6756
867.3293, 120.7259
867.8115, 118.9305
868.2936, 116.3073
868.7757, 113.3775
869.2578, 110.4724
869.7399, 107.7240
870.2220, 105.6149
870.7042, 104.1909
871.1863, 102.3228
871.6684, 99.81976
872.1505, 97.22131
872.6326, 94.68158
873.1147, 92.40158
873.5969, 90.74445
874.0790, 89.89499
874.5611, 88.61795
875.0432, 86.44925
875.5253, 84.51303
876.0074, 83.36554
876.4896, 82.31357
876.9717, 80.83029
877.4538, 78.89706
877.9359, 76.60681
878.4180, 73.80042
878.9001, 71.11560
879.3823, 68.97482
879.8644, 67.09329
880.3465, 65.23206
880.8286, 63.32574
881.3107, 61.12503
881.7928, 58.60828
882.2750, 56.47415
882.7571, 55.75391
883.2392, 55.89337
883.7213, 55.08701
884.2034, 53.39041
884.6855, 51.69412
885.1677, 50.19821
885.6498, 48.79727
886.1319, 47.44785
886.6140, 46.07016
887.0961, 44.37851
887.5782, 42.25293
888.0604, 40.07886
888.5425, 37.37701
889.0246, 35.29779
889.5067, 34.45416
889.9888, 34.37018
890.4709, 34.76190
890.9531, 35.59570
891.4352, 35.87485
891.9173, 35.36670
892.3994, 34.30020
892.8815, 32.37189
893.3636, 30.22855
893.8458, 28.38510
894.3279, 26.91092
894.8100, 25.83578
895.2921, 25.22830
895.7742, 24.54224
896.2563, 22.99680
896.7385, 21.17108
897.2206, 20.14890
897.7027, 19.80899
898.1848, 19.56018
898.6669, 19.20206
899.1490, 18.68979
899.6312, 17.94177
900.1133, 17.04846
900.5954, 16.39780
901.0775, 16.02313
901.5596, 15.49701
902.0417, 14.70905
902.5239, 13.94269
903.0060, 13.38736
903.4881, 12.93265
903.9702, 12.28705
904.4523, 11.24631
904.9344, 10.84164
905.4166, 11.59171
905.8987, 12.30231
906.3808, 13.20276
906.8629, 13.56863
907.3450, 12.22903
907.8271, 9.711090
908.3093, 8.289948
908.7914, 9.227875
909.2735, 9.893433
909.7556, 8.440887
910.2377, 6.791992
910.7198, 7.002686
911.2020, 8.267456
911.6841, 8.706207
912.1662, 7.809814
912.6483, 6.649994
913.1304, 6.031525
913.6125, 5.769196
914.0947, 5.774658
914.5768, 5.878784
915.0589, 5.379944
915.5410, 4.236786
916.0231, 3.333130
916.5052, 3.246231
916.9874, 3.585022
917.4695, 3.592850
917.9516, 3.255859
918.4337, 2.919922
918.9158, 2.553452
919.3979, 2.363281
919.8801, 2.520294
920.3622, 2.675873
920.8443, 2.418777
921.3264, 1.800308
921.8085, 1.384354
922.2906, 1.238113
922.7728, 1.185486
923.2549, 1.422668
923.7370, 1.527924
924.2191, 1.297653
924.7012, 0.8143310
925.1833, 0.1360020
925.6655, 0.7436830
926.1476, 1.446396
926.6297, 1.918411
927.1118, 2.112366
927.5939, 1.880768
928.0760, 1.448776
928.5582, 0.8498080
929.0403, 0.2827760
929.5224, 0.3613280
930.0045, 1.484650
930.4866, 2.427917
930.9688, 1.790421
931.4509, 0.4396210
931.9330, 0.4092250
932.4151, 0.7506410
932.8972, 0.6630710
933.3793, 0.2343290
933.8615, 3.5100000E-03
934.3436, 0.5455470
934.8257, 6.9199003E-02
935.3078, 1.103043
935.7899, 0.1626430
936.2720, 0.8920290
936.7542, 0.8873290
937.2363, 0.7211610
937.7184, 0.6961060
938.2005, 0.5687260
938.6826, 9.4910003E-02
939.1647, 1.316742
939.6469, 2.090347
940.1290, 2.283005
940.6111, 2.358826
941.0932, 2.503403
941.5753, 2.413513
942.0574, 1.494553
942.5396, 0.2998810
943.0217, 0.2515720
943.5038, 1.746567
943.9859, 2.772049
944.4680, 2.719910
944.9501, 2.713120
945.4323, 3.094925
945.9144, 3.782196
946.3965, 4.792191
946.8786, 6.030228
947.3607, 7.185318
947.8428, 8.361069
948.3250, 9.084213
948.8071, 8.530960
949.2892, 7.818146
949.7713, 8.089645
950.2534, 8.960266
950.7355, 9.587753
951.2177, 9.783249
951.6998, 9.962738
952.1819, 10.24568
952.6640, 10.67104
953.1461, 11.50484
953.6282, 12.55678
954.1104, 13.57950
954.5925, 14.42470
955.0746, 14.29431
955.5567, 12.73920
956.0388, 10.95345
956.5209, 10.73895
957.0031, 11.70995
957.4852, 11.81490
957.9673, 11.04869
958.4494, 10.38531
958.9315, 10.07478
959.4136, 9.799088
959.8958, 9.319290
960.3779, 8.631714
960.8600, 7.398071
961.3421, 5.420349
961.8242, 4.546356
962.3063, 5.252487
962.7885, 5.770050
963.2706, 5.516876
963.7527, 4.941956
964.2348, 4.385757
964.7169, 3.830627
965.1990, 3.323425
965.6812, 2.469513
966.1633, 2.325836
966.6454, 3.552505
967.1275, 4.760971
967.6096, 5.520859
968.0917, 5.839676
968.5739, 5.616440
969.0560, 4.917450
969.5381, 4.440277
970.0202, 4.391464
970.5023, 4.458496
970.9844, 4.293884
971.4666, 4.328629
971.9487, 5.276810
972.4308, 6.618561
972.9129, 7.178986
973.3950, 6.668457
973.8771, 6.185394
974.3593, 6.329132
974.8414, 6.855713
975.3235, 7.676285
975.8056, 8.617905
976.2877, 9.303757
976.7698, 9.862427
977.2520, 11.06839
977.7341, 13.31929
978.2162, 15.14450
978.6983, 14.37735
979.1804, 12.40379
979.6625, 11.72534
980.1447, 12.18683
980.6268, 13.33551
981.1089, 14.94272
981.5910, 16.22232
982.0731, 16.64081
982.5552, 16.36937
983.0374, 15.47736
983.5195, 14.09940
984.0016, 13.44189
984.4837, 13.56964
984.9658, 13.28268
985.4479, 12.20172
985.9301, 11.02254
986.4122, 10.35190
986.8943, 10.06210
987.3764, 9.670563
987.8585, 9.106339
988.3406, 8.830963
988.8228, 9.066284
989.3049, 9.105789
989.7870, 8.509399
990.2691, 7.802521
990.7512, 7.716660
991.2333, 8.158936
991.7155, 7.910904
992.1976, 6.310425
992.6797, 5.448273
993.1618, 6.076477
993.6439, 6.600372
994.1260, 6.127838
994.6082, 5.201035
995.0903, 4.604431
995.5724, 4.352905
996.0545, 3.858521
996.5366, 2.499756
997.0187, 1.771622
997.5009, 2.591019
997.9830, 3.419739
998.4651, 3.389801
998.9472, 2.698395
999.4293, 1.400650
999.9114, 0.5807340
1000.394, 1.233749
1000.876, 1.226715
1001.358, 3.558029
1001.840, 4.467163
1002.322, 4.606964
1002.804, 4.447495
1003.286, 4.058594
1003.768, 3.380051
1004.250, 2.386292
1004.733, 1.366730
1005.215, 0.2932430
1005.697, 0.5523530
1006.179, 1.014221
1006.661, 1.069244
1007.143, 0.3236690
1007.625, 0.8447570
1008.107, 1.177536
1008.590, 7.8156002E-02
1009.072, 0.9672390
1009.554, 0.4697880
1010.036, 0.5642550
1010.518, 1.122940
1011.000, 1.216476
1011.482, 0.7687380
1011.964, 7.7666998E-02
1012.446, 0.7594600
1012.929, 0.9733120
1013.411, 0.9449770
1013.893, 1.020523
1014.375, 1.016235
1014.857, 0.2969360
1015.339, 0.8390660
1015.821, 1.210403
1016.303, 0.6492610
1016.786, 0.1841890
1017.268, 0.5543670
1017.750, 9.4450004E-03
1018.232, 0.7875520
1018.714, 0.2171780
1019.196, 0.4585420
1019.678, 1.0220000E-03
1020.160, 9.5154002E-02
1020.642, 0.4596560
1021.125, 0.9702610
1021.607, 0.8846280
1022.089, 0.3772580
1022.571, 0.2664490
1023.053, 1.024521
1023.535, 1.346008
1024.017, 1.190598
1024.499, 1.205521
1024.981, 1.645844
1025.464, 1.904388
1025.946, 1.385971
1026.428, 0.3453980
1026.910, 0.5453030
1027.392, 1.360550
1027.874, 1.195282
1028.356, 0.1798710
1028.838, 1.604919
1029.321, 2.749283
1029.803, 3.629715
1030.285, 4.330032
1030.767, 4.744308
1031.249, 4.290848
1031.731, 2.574646
1032.213, 1.533340
1032.695, 1.461929
1033.177, 1.414459
1033.660, 0.9487760
1034.142, 0.5364380
1034.624, 0.6926270
1035.106, 1.336060
1035.588, 1.987625
1036.070, 2.787582
1036.552, 3.233185
1037.034, 3.007919
1037.516, 2.972626
1037.999, 3.651855
1038.481, 4.457748
1038.963, 4.844208
1039.445, 4.812485
1039.927, 4.336502
1040.409, 2.367783
1040.891, 1.830261
1041.373, 4.573914
1041.856, 6.400558
1042.338, 4.672577
1042.820, 2.094360
1043.302, 1.408463
1043.784, 2.428131
1044.266, 3.616730
1044.748, 5.734711
1045.230, 6.662766
1045.713, 5.124710
1046.195, 3.781418
1046.677, 3.926804
1047.159, 4.617859
1047.641, 4.904526
1048.123, 4.777008
1048.605, 4.493271
1049.087, 3.844742
1049.569, 3.466156
1050.052, 3.484863
1050.534, 3.748047
1051.016, 4.472565
1051.498, 5.204514
1051.980, 5.268051
1052.462, 4.808014
1052.944, 4.865967
1053.426, 5.994888
1053.908, 6.894150
1054.391, 7.077484
1054.873, 7.185928
1055.355, 7.558777
1055.837, 8.021667
1056.319, 8.476990
1056.801, 8.837250
1057.283, 8.781403
1057.765, 7.978058
1058.248, 7.215118
1058.730, 6.853088
1059.212, 6.609039
1059.694, 6.394821
1060.176, 6.223984
1060.658, 6.132813
1061.140, 6.107040
1061.622, 6.039200
1062.104, 5.746231
1062.587, 5.856796
1063.069, 7.189026
1063.551, 8.252487
1064.033, 7.785355
1064.515, 6.923203
1064.997, 7.184830
1065.479, 8.364944
1065.961, 9.072083
1066.443, 8.774170
1066.926, 8.310028
1067.408, 8.061783
1067.890, 7.923233
1068.372, 7.575668
1068.854, 7.394363
1069.336, 8.077942
1069.818, 9.287872
1070.300, 9.803452
1070.783, 9.099808
1071.265, 8.753555
1071.747, 9.824860
1072.229, 11.01807
1072.711, 11.88924
1073.193, 12.30171
1073.675, 11.75781
1074.157, 10.61227
1074.640, 9.891647
1075.122, 9.962555
1075.604, 10.12894
1076.086, 10.13361
1076.568, 10.15712
1077.050, 10.41335
1077.532, 10.83362
1078.014, 11.26685
1078.496, 11.70154
1078.979, 12.22844
1079.461, 12.90636
1079.943, 13.77524
1080.425, 14.87228
1080.907, 16.12389
1081.389, 17.65735
1081.871, 19.12285
1082.353, 20.18538
1082.836, 20.95146
1083.318, 21.60869
1083.800, 22.18672
1084.282, 22.85127
1084.764, 23.45880
1085.246, 24.43907
1085.728, 26.44820
1086.210, 28.71454
1086.693, 30.46443
1087.175, 31.89973
1087.657, 33.41602
1088.139, 35.06975
1088.621, 36.87869
1089.103, 39.20551
1089.585, 41.28590
1090.067, 42.51532
1090.549, 43.61652
1091.031, 44.98218
1091.514, 46.64580
1091.996, 48.65990
1092.478, 51.01682
1092.960, 53.49358
1093.442, 56.08829
1093.924, 58.63405
1094.406, 61.47919
1094.888, 63.80780
1095.371, 64.69681
1095.853, 65.04834
1096.335, 66.09151
1096.817, 67.74420
1097.299, 69.03848
1097.781, 69.59502
1098.263, 70.09250
1098.745, 70.88039
1099.228, 71.60533
1099.710, 71.99944
1100.192, 72.21986
1100.674, 72.29596
1101.156, 72.31725
1101.638, 72.68361
1102.120, 73.75847
1102.602, 74.16049
1103.084, 73.00961
1103.567, 71.60658
1104.049, 70.48927
1104.531, 69.47668
1105.013, 68.35660
1105.495, 67.19421
1105.977, 66.21547
1106.459, 65.50198
1106.941, 64.53188
1107.423, 63.10136
1107.906, 61.56923
1108.388, 60.00858
1108.870, 58.40898
1109.352, 56.68349
1109.834, 54.96181
1110.316, 53.61057
1110.798, 52.68262
1111.280, 51.18341
1111.763, 48.40169
1112.245, 45.97961
1112.727, 44.45181
1113.209, 42.92725
1113.691, 40.94298
1114.173, 38.74788
1114.655, 36.38019
1115.137, 33.91164
1115.620, 32.40907
1116.102, 32.58099
1116.584, 32.49271
1117.066, 32.28491
1117.548, 31.57263
1118.030, 29.97968
1118.512, 28.05792
1118.994, 26.22057
1119.476, 24.50383
1119.958, 23.05064
1120.441, 21.91124
1120.923, 20.85455
1121.405, 19.74629
1121.887, 19.06874
1122.369, 19.16521
1122.851, 19.31129
1123.333, 18.96667
1123.815, 18.31398
1124.298, 17.76411
1124.780, 17.34239
1125.262, 16.74380
1125.744, 15.92941
1126.226, 15.09941
1126.708, 14.28354
1127.190, 13.44745
1127.672, 12.56543
1128.155, 11.66049
1128.637, 10.73228
1129.119, 9.817932
1129.601, 9.305283
1130.083, 9.251114
1130.565, 8.874222
1131.047, 8.047989
1131.529, 7.382584
1132.011, 7.144592
1132.494, 6.979660
1132.976, 6.501480
1133.458, 6.349823
1133.940, 6.201065
1134.422, 5.909821
1134.904, 5.971191
1135.386, 5.867065
1135.868, 5.643753
1136.350, 5.315079
1136.833, 4.880615
1137.315, 4.318039
1137.797, 3.791061
1138.279, 3.540817
1138.761, 3.548233
1139.243, 3.923782
1139.725, 4.520615
1140.207, 4.696243
1140.690, 4.378235
1141.172, 3.886261
1141.654, 3.372406
1142.136, 2.737198
1142.618, 1.783554
1143.100, 0.7496640
1143.582, 3.8391002E-02
1144.064, 0.4444580
1144.547, 1.015213
1145.029, 1.539413
1145.511, 1.432602
1145.993, 0.6018220
1146.475, 0.2560580
1146.957, 0.6525420
1147.439, 0.9263310
1147.921, 1.535339
1148.403, 2.106216
1148.885, 2.045181
1149.368, 1.673401
1149.850, 1.672699
1150.332, 2.006653
1150.814, 2.010025
1151.296, 1.350266
1151.778, 0.7103880
1152.260, 0.6684570
1152.742, 0.5954130
1153.225, 0.1857450
1153.707, 1.021027
1154.189, 1.191360
1154.671, 0.8349000
1155.153, 0.3206330
1155.635, 0.2827910
1156.117, 0.6046910
1156.599, 0.3659210
1157.082, 6.1554000E-02
1157.564, 0.2598720
1158.046, 0.4866180
1158.528, 0.3936310
1159.010, 0.2625270
1159.492, 0.6653140
1159.974, 1.484421
1160.456, 1.572662
1160.938, 0.2550050
1161.421, 0.6627200
1161.903, 0.9955140
1162.385, 1.079285
1162.867, 0.8363040
1163.349, 0.5652470
1163.831, 0.4879000
1164.313, 0.5552670
1164.795, 0.6356050
1165.277, 0.7046200
1165.760, 1.042236
1166.242, 1.848038
1166.724, 2.264481
1167.206, 2.087372
1167.688, 1.715607
1168.170, 1.287766
1168.652, 0.9340060
1169.134, 0.7814330
1169.617, 0.8827210
1170.099, 1.803253
1170.581, 1.390472
1171.063, 3.496887
1171.545, 1.404678
1172.027, 9.3414001E-02
1172.509, 0.4136660
1172.991, 1.495041
1173.474, 2.772247
1173.956, 3.847137
1174.438, 3.775284
1174.920, 3.006760
1175.402, 3.143768
1175.884, 3.892487
1176.366, 4.042130
1176.848, 3.562088
1177.330, 3.435776
1177.813, 4.056595
1178.295, 4.502579
1178.777, 3.702698
1179.259, 2.675812
1179.741, 2.718735
1180.223, 3.327042
1180.705, 3.979507
1181.187, 4.527374
1181.669, 4.826447
1182.152, 4.842987
1182.634, 4.521637
1183.116, 3.666718
1183.598, 3.121567
1184.080, 3.523987
1184.562, 4.237518
1185.044, 5.164536
1185.526, 5.910919
1186.009, 6.042282
1186.491, 5.691330
1186.973, 5.175446
1187.455, 4.526703
1187.937, 4.064117
1188.419, 3.735840
1188.901, 3.769363
1189.383, 4.507690
1189.865, 5.267044
1190.348, 5.697723
1190.830, 5.976227
1191.312, 6.266815
1191.794, 6.566162
1192.276, 6.949677
1192.758, 7.538818
1193.240, 7.845093
1193.722, 7.912216
1194.204, 7.457672
1194.687, 6.157257
1195.169, 5.169128
1195.651, 5.281677
1196.133, 5.993301
1196.615, 6.561035
1197.097, 7.010818
1197.579, 7.227905
1198.061, 7.099625
1198.544, 7.587677
1199.026, 8.730362
1199.508, 9.137787
1199.990, 8.378937
1200.472, 7.605957
1200.954, 7.742783
1201.436, 8.286560
1201.918, 8.507401
1202.401, 8.529892
1202.883, 8.603836
1203.365, 8.748337
1203.847, 8.920731
1204.329, 9.129044
1204.811, 9.601883
1205.293, 10.40300
1205.775, 10.76834
1206.257, 9.792023
1206.740, 8.705017
1207.222, 8.348068
1207.704, 8.342148
1208.186, 8.502289
1208.668, 8.686707
1209.150, 8.686310
1209.632, 8.537018
1210.114, 8.504623
1210.596, 8.636871
1211.079, 8.899185
1211.561, 9.389694
1212.043, 9.833267
1212.525, 10.36377
1213.007, 10.62695
1213.489, 10.07132
1213.971, 9.327728
1214.453, 9.547256
1214.936, 8.958389
1215.418, 8.647186
1215.900, 8.854935
1216.382, 8.236938
1216.864, 9.185730
1217.346, 9.710709
1217.828, 9.052063
1218.310, 8.557587
1218.792, 9.406952
1219.275, 9.054031
1219.757, 9.173950
1220.239, 9.491455
1220.721, 9.224976
1221.203, 9.598511
1221.685, 9.812195
1222.167, 9.732895
1222.649, 9.173004
1223.131, 8.132156
1223.614, 7.341553
1224.096, 7.385757
1224.578, 7.888855
1225.060, 8.737305
1225.542, 9.574585
1226.024, 9.981323
1226.506, 10.02966
1226.988, 9.680740
1227.471, 9.149185
1227.953, 9.001831
1228.435, 9.395218
1228.917, 9.812119
1229.399, 9.939697
1229.881, 9.811371
1230.363, 9.265564
1230.845, 8.588577
1231.328, 7.766464
1231.810, 7.064758
1232.292, 6.962433
1232.774, 7.246826
1233.256, 7.078827
1233.738, 6.166138
1234.220, 6.249847
1234.702, 7.887741
1235.184, 8.525375
1235.667, 7.406586
1236.149, 6.546219
1236.631, 7.047012
1237.113, 6.501358
1237.595, 7.695496
1238.077, 7.003265
1238.559, 7.326508
1239.041, 8.332870
1239.523, 8.084320
1240.006, 6.837173
1240.488, 6.406479
1240.970, 6.980316
1241.452, 7.190704
1241.934, 6.337753
1242.416, 5.368851
1242.898, 5.225845
1243.380, 4.705048
1243.863, 4.938477
1244.345, 4.545441
1244.827, 4.650040
1245.309, 5.096207
1245.791, 5.610413
1246.273, 6.131317
1246.755, 6.750778
1247.237, 7.837173
1247.719, 7.815536
1248.202, 4.794891
1248.684, 2.784836
1249.166, 3.985916
1249.648, 5.347672
1250.130, 5.086517
1250.612, 4.083618
1251.094, 3.418228
1251.576, 3.086182
1252.058, 3.163651
1252.541, 3.792969
1253.023, 3.821442
1253.505, 3.209381
1253.987, 1.774948
1254.469, 0.5639190
1254.951, 1.754883
1255.433, 0.5651860
1255.915, 1.372177
1256.398, 2.191544
1256.880, 2.252945
1257.362, 2.011963
1257.844, 1.672867
1258.326, 1.751678
1258.808, 1.516342
1259.290, 1.953827
1259.772, 1.472092
1260.255, 1.237946
1260.737, 1.541885
1261.219, 1.831329
1261.701, 1.825043
1262.183, 1.720703
1262.665, 1.285782
1263.147, 1.134216
1263.629, 2.011948
1264.111, 3.253113
1264.594, 3.972824
1265.076, 4.176880
1265.558, 4.082733
1266.040, 3.572021
1266.522, 3.213318
1267.004, 2.976990
1267.486, 3.054214
1267.968, 3.668701
1268.450, 3.870468
1268.933, 3.082794
1269.415, 2.126617
1269.897, 1.894547
1270.379, 1.888550
1270.861, 0.9643100
1271.343, 0.4429630
1271.825, 1.065369
1272.307, 2.344543
1272.790, 2.688232
1273.272, 2.062134
1273.754, 1.643890
1274.236, 1.853546
1274.718, 2.176376
1275.200, 2.566940
1275.682, 2.839233
1276.164, 2.458145
1276.646, 2.203751
1277.129, 3.090286
1277.611, 4.161560
1278.093, 4.178665
1278.575, 3.406876
1279.057, 2.529358
1279.539, 1.739700
1280.021, 1.332657
1280.503, 1.624268
1280.985, 1.354935
1281.468, 0.1569980
1281.950, 4.2374000E-02
1282.432, 2.900238
1282.914, 5.605820
1283.396, 5.647980
1283.878, 3.369034
1284.360, 1.034668
1284.842, 0.2995610
1285.325, 0.6776280
1285.807, 0.0000000E+00
##END=



