##NAMES=Almandine
##RRUFFID=R040168
##IDEAL CHEMISTRY=Fe^2+^_3_Al_2_(SiO_4_)_3_
##LOCALITY=Pocos Dos Cavatos, Ceara, Brazil
##OWNER=RRUFF
##SOURCE=University of Arizona Mineral Museum
##DESCRIPTION=Dark red etched single crystal
##STATUS=The identification of this mineral has been confirmed by X-ray diffraction and chemical analysis
##URL=rruff.info/R040168
##MEASURED CHEMISTRY=(Fe^2+^_1.48_Mn_1.47_Ca_0.05_)_Î£=3_Al_2.00_(Si_1.00_O_4_)_3_; trace amounts of Ti and Y
108.691, 0.000
110.082, 1.812
111.473, 24.159
112.864, 62.018
114.254, 119.665
115.644, 310.099
117.034, 326.470
118.424, 236.167
119.813, 234.335
121.203, 146.757
122.592, 300.894
123.981, 211.417
125.369, 215.133
126.758, 158.003
128.146, 232.265
129.534, 277.953
130.922, 233.816
132.309, 359.288
133.696, 136.211
135.083, 175.638
136.470, 99.621
137.857, 323.203
139.243, 227.424
140.630, 270.342
142.016, 172.080
143.401, 212.808
144.787, 118.385
146.172, 240.347
147.557, 151.136
148.942, 159.993
150.327, 197.692
151.711, 154.719
153.096, 269.504
154.480, 316.090
155.863, 500.617
157.247, 607.069
158.630, 861.388
160.013, 1237.584
161.396, 1422.668
162.779, 1515.647
164.161, 1324.526
165.544, 1109.313
166.926, 902.012
168.308, 719.628
169.689, 657.165
171.070, 535.745
172.452, 461.073
173.833, 386.060
175.213, 341.971
176.594, 258.714
177.974, 193.723
179.354, 88.159
180.734, 137.852
182.114, 153.587
183.493, 31.891
184.872, 28.646
186.251, 90.505
187.630, 80.187
189.008, 90.023
190.387, 30.653
191.765, 40.393
193.143, 39.005
194.520, 75.512
195.898, 135.658
197.275, 57.067
198.652, 80.972
200.029, 58.914
201.405, 135.912
202.782, 203.939
204.158, 194.008
205.534, 306.107
206.909, 424.219
208.285, 504.332
209.660, 545.446
211.035, 646.559
212.410, 741.665
213.784, 725.761
215.159, 850.843
216.533, 819.912
217.907, 766.968
219.281, 695.009
220.654, 621.036
222.027, 527.047
223.400, 489.044
224.773, 471.025
226.146, 310.990
227.518, 310.935
228.891, 238.859
230.263, 234.753
231.634, 188.814
233.006, 143.311
234.377, 132.979
235.748, 82.625
237.119, 112.246
238.490, 43.848
239.860, 70.433
241.231, 70.003
242.601, 18.557
243.970, 56.096
245.340, 25.381
246.709, 79.126
248.079, 65.620
249.448, 36.901
250.816, 10.437
252.185, 33.013
253.553, 34.543
254.921, 41.152
256.289, 50.229
257.657, 65.458
259.024, 49.879
260.391, 80.642
261.758, 47.567
263.125, 25.173
264.492, 29.647
265.858, 22.641
267.224, 24.019
268.590, 20.309
269.956, 0.955
271.321, 34.899
272.687, 14.761
274.052, 75.533
275.416, 42.570
276.781, 88.763
278.146, 101.766
279.510, 23.215
280.874, 44.953
282.237, 134.642
283.601, 104.044
284.964, 205.886
286.327, 180.855
287.690, 176.892
289.053, 283.959
290.416, 224.667
291.778, 279.835
293.140, 385.974
294.502, 359.799
295.863, 375.194
297.225, 408.083
298.586, 571.675
299.947, 446.444
301.308, 555.875
302.668, 526.698
304.029, 498.952
305.389, 624.176
306.749, 656.544
308.108, 770.572
309.468, 854.704
310.827, 1033.797
312.186, 1147.845
313.545, 1419.752
314.903, 1490.556
316.262, 1859.267
317.620, 2251.947
318.978, 2470.595
320.336, 2579.672
321.693, 2629.376
323.051, 2592.405
324.408, 2392.967
325.765, 2336.509
327.121, 2014.033
328.478, 2148.539
329.834, 2066.026
331.190, 2169.497
332.546, 2496.951
333.902, 2912.390
335.257, 3318.813
336.612, 4300.216
337.967, 5395.596
339.322, 6827.951
340.677, 8288.280
342.031, 9804.567
343.385, 10685.674
344.739, 10946.872
346.093, 10435.046
347.446, 8991.722
348.799, 7337.350
350.153, 5950.209
351.505, 4722.094
352.858, 3857.872
354.210, 3216.237
355.563, 2647.342
356.915, 2420.532
358.267, 2072.117
359.618, 2099.937
360.969, 2113.426
362.321, 2190.009
363.672, 2491.488
365.022, 2854.292
366.373, 3247.151
367.723, 3834.035
369.073, 4062.906
370.423, 4228.765
371.773, 4078.613
373.122, 3898.448
374.471, 3180.284
375.821, 2783.106
377.169, 2404.925
378.518, 1783.735
379.866, 1570.562
381.215, 1134.373
382.563, 979.182
383.910, 822.977
385.258, 612.757
386.605, 532.535
387.952, 427.868
389.299, 359.578
390.646, 313.817
391.992, 298.563
393.339, 263.294
394.685, 241.010
396.031, 173.663
397.376, 153.269
398.722, 240.648
400.067, 162.139
401.412, 179.330
402.757, 126.637
404.101, 197.959
405.446, 178.927
406.790, 214.164
408.134, 8.133
409.478, 123.432
410.821, 75.658
412.165, 220.874
413.508, 100.754
414.851, 5.755
416.193, 44.758
417.536, 47.799
418.878, 26.858
420.220, 68.253
421.562, 143.282
422.904, 16.570
424.245, 34.121
425.586, 125.649
426.927, 67.436
428.268, 124.317
429.609, 88.971
430.949, 84.859
432.289, 79.004
433.629, 89.023
434.969, 60.491
436.309, 18.659
437.648, 23.984
438.987, 52.149
440.326, 97.695
441.665, 61.410
443.003, 63.068
444.342, 21.979
445.680, 138.058
447.018, 3.989
448.355, 84.430
449.693, 72.523
451.030, 0.541
452.367, 8.162
453.704, 39.823
455.041, 106.850
456.377, 5.108
457.713, 72.824
459.049, 17.440
460.385, 84.206
461.721, 156.841
463.056, 55.452
464.391, 186.036
465.726, 325.667
467.061, 175.204
468.395, 377.717
469.730, 470.207
471.064, 387.674
472.398, 557.117
473.731, 400.537
475.065, 615.934
476.398, 433.309
477.731, 320.662
479.064, 306.993
480.397, 293.302
481.729, 262.608
483.062, 262.698
484.394, 269.212
485.725, 256.527
487.057, 262.043
488.389, 265.540
489.720, 414.047
491.051, 491.586
492.382, 623.026
493.712, 859.349
495.043, 1039.413
496.373, 1270.252
497.703, 1455.272
499.032, 1325.979
500.362, 1343.100
501.691, 1083.013
503.020, 812.297
504.349, 731.727
505.678, 657.843
507.007, 452.491
508.335, 422.980
509.663, 292.883
510.991, 292.709
512.319, 320.514
513.646, 257.795
514.973, 318.587
516.300, 320.697
517.627, 389.369
518.954, 387.335
520.280, 374.189
521.607, 382.539
522.933, 352.356
524.259, 326.246
525.584, 332.423
526.910, 414.369
528.235, 413.938
529.560, 391.579
530.885, 451.869
532.209, 437.902
533.534, 385.102
534.858, 480.918
536.182, 404.876
537.506, 696.756
538.829, 904.587
540.152, 1020.672
541.476, 800.892
542.799, 1009.900
544.121, 1245.513
545.444, 1360.692
546.766, 1907.242
548.088, 2337.321
549.410, 2820.116
550.732, 3038.644
552.053, 3286.755
553.375, 3210.914
554.696, 3041.972
556.017, 2561.278
557.337, 2209.521
558.658, 2014.971
559.978, 1563.944
561.298, 1249.901
562.618, 985.738
563.938, 1004.976
565.257, 768.229
566.576, 670.384
567.895, 648.420
569.214, 529.081
570.533, 508.803
571.851, 466.574
573.170, 449.930
574.488, 462.852
575.805, 433.008
577.123, 496.255
578.440, 334.115
579.758, 340.568
581.075, 282.118
582.391, 458.595
583.708, 292.919
585.024, 473.204
586.341, 276.199
587.657, 488.577
588.972, 407.881
590.288, 520.903
591.603, 572.024
592.918, 495.038
594.233, 516.250
595.548, 341.791
596.863, 404.548
598.177, 250.482
599.491, 151.509
600.805, 230.265
602.119, 174.103
603.432, 127.689
604.746, 225.682
606.059, 102.412
607.372, 173.334
608.685, 204.181
609.997, 89.334
611.309, 174.571
612.621, 156.976
613.933, 94.633
615.245, 261.649
616.557, 204.106
617.868, 284.880
619.179, 245.135
620.490, 306.865
621.801, 299.143
623.111, 196.934
624.421, 433.697
625.731, 377.432
627.041, 654.144
628.351, 386.831
629.660, 597.492
630.970, 521.127
632.279, 371.737
633.588, 368.322
634.896, 298.881
636.205, 295.415
637.513, 259.071
638.821, 200.408
640.129, 210.866
641.437, 180.299
642.744, 180.320
644.051, 126.089
645.358, 124.444
646.665, 115.771
647.972, 102.069
649.278, 119.341
650.584, 20.585
651.890, 198.794
653.196, 33.978
654.502, 229.130
655.807, 37.258
657.113, 158.355
658.418, 25.429
659.722, 106.468
661.027, 65.481
662.331, 134.467
663.636, 29.427
664.940, 38.356
666.244, 167.257
667.547, 47.866
668.851, 0.056
670.154, 24.287
671.457, 175.428
672.760, 97.119
674.062, 32.216
675.365, 82.392
676.667, 18.026
677.969, 2.506
679.271, 139.000
680.572, 39.529
681.874, 39.883
683.175, 121.733
684.476, 24.549
685.777, 59.804
687.077, 17.034
688.378, 39.234
689.678, 34.592
690.978, 76.529
692.278, 17.374
693.577, 1.320
694.877, 91.302
696.176, 113.634
697.475, 24.451
698.774, 45.418
700.072, 73.263
701.371, 26.913
702.669, 72.865
703.967, 11.380
705.265, 55.660
706.562, 54.999
707.860, 152.638
709.157, 127.258
710.454, 146.207
711.751, 22.559
713.047, 42.984
714.344, 26.507
715.640, 68.992
716.936, 113.447
718.232, 119.133
719.527, 46.200
720.823, 18.515
722.118, 50.807
723.413, 61.079
724.708, 84.339
726.002, 13.582
727.297, 41.194
728.591, 117.986
729.885, 30.849
731.179, 90.285
732.472, 66.404
733.766, 73.509
735.059, 28.608
736.352, 48.308
737.645, 51.733
738.937, 79.769
740.230, 100.802
741.522, 258.820
742.814, 64.827
744.106, 54.181
745.397, 149.769
746.689, 61.705
747.980, 96.628
749.271, 12.460
750.562, 234.431
751.853, 136.681
753.143, 198.126
754.433, 59.939
755.723, 174.419
757.013, 10.791
758.303, 52.796
759.592, 151.182
760.881, 20.050
762.170, 24.207
763.459, 21.751
764.748, 21.355
766.036, 19.405
767.325, 102.122
768.613, 72.569
769.901, 72.749
771.188, 151.434
772.476, 41.062
773.763, 80.264
775.050, 185.366
776.337, 58.987
777.624, 101.601
778.910, 208.133
780.196, 42.726
781.482, 228.310
782.768, 185.884
784.054, 133.449
785.339, 88.006
786.625, 83.897
787.910, 181.093
789.195, 78.623
790.479, 208.146
791.764, 199.659
793.048, 136.164
794.332, 133.643
795.616, 102.133
796.900, 83.247
798.183, 150.900
799.467, 106.053
800.750, 129.192
802.033, 241.295
803.316, 171.337
804.598, 141.447
805.880, 307.650
807.163, 240.081
808.445, 356.723
809.726, 350.396
811.008, 432.878
812.289, 445.450
813.570, 426.622
814.851, 440.733
816.132, 429.672
817.413, 388.905
818.693, 386.712
819.973, 418.414
821.253, 382.798
822.533, 471.235
823.813, 554.694
825.092, 427.652
826.371, 352.076
827.650, 514.173
828.929, 454.703
830.208, 463.748
831.486, 628.230
832.764, 443.042
834.042, 463.363
835.320, 377.589
836.598, 526.506
837.875, 425.666
839.152, 706.545
840.429, 519.604
841.706, 641.355
842.983, 838.376
844.259, 673.252
845.536, 915.530
846.812, 974.626
848.088, 1004.792
849.363, 1291.346
850.639, 1208.869
851.914, 1590.698
853.189, 1663.954
854.464, 1735.354
855.739, 1924.164
857.013, 1935.582
858.288, 1973.465
859.562, 1928.370
860.836, 1519.000
862.110, 1704.783
863.383, 1526.499
864.656, 1344.293
865.930, 1415.732
867.203, 1346.129
868.475, 1338.471
869.748, 1368.131
871.020, 1313.860
872.292, 1386.467
873.564, 1495.940
874.836, 1471.311
876.108, 1734.831
877.379, 1632.409
878.650, 1834.098
879.922, 2059.506
881.192, 2199.827
882.463, 2444.247
883.733, 2643.869
885.004, 2964.675
886.274, 3095.398
887.544, 3681.166
888.813, 3791.761
890.083, 4250.557
891.352, 4423.282
892.621, 4780.143
893.890, 5307.104
895.159, 5556.096
896.427, 6396.939
897.695, 7136.691
898.964, 8313.710
900.232, 10217.593
901.499, 11897.633
902.767, 14581.896
904.034, 17646.945
905.301, 21639.857
906.568, 25350.939
907.835, 30257.920
909.102, 34620.023
910.368, 36479.512
911.634, 36929.516
912.900, 34915.656
914.166, 31670.902
915.432, 27146.852
916.697, 23203.809
917.962, 19012.785
919.227, 15694.171
920.492, 13114.381
921.757, 10989.601
923.021, 9195.837
924.285, 7775.081
925.550, 6712.254
926.813, 5673.720
928.077, 4936.000
929.341, 4222.304
930.604, 3650.619
931.867, 3104.945
933.130, 2866.248
934.393, 2378.596
935.655, 2095.951
936.918, 2090.318
938.180, 1720.695
939.442, 1709.088
940.703, 1503.489
941.965, 1217.900
943.226, 1254.323
944.488, 1177.756
945.749, 949.200
947.009, 838.654
948.270, 994.119
949.530, 765.699
950.791, 809.186
952.051, 848.684
953.311, 780.191
954.570, 725.894
955.830, 727.498
957.089, 689.171
958.348, 644.780
959.607, 639.354
960.866, 508.937
962.124, 521.631
963.383, 620.238
964.641, 529.854
965.899, 613.827
967.156, 573.659
968.414, 584.408
969.671, 519.021
970.928, 540.803
972.185, 556.663
973.442, 491.644
974.699, 612.367
975.955, 644.218
977.211, 564.980
978.468, 633.768
979.723, 412.520
980.979, 492.337
982.234, 390.926
983.490, 362.166
984.745, 630.447
986.000, 285.427
987.254, 485.617
988.509, 556.835
989.763, 412.156
991.017, 594.604
992.271, 433.843
993.525, 487.788
994.779, 495.317
996.032, 598.702
997.285, 595.343
998.538, 557.705
999.791, 627.945
1001.044, 469.556
1002.296, 805.155
1003.548, 614.408
1004.800, 607.461
1006.052, 717.035
1007.304, 618.146
1008.555, 651.142
1009.807, 504.283
1011.058, 584.493
1012.309, 659.002
1013.559, 825.397
1014.810, 683.612
1016.060, 648.136
1017.310, 714.648
1018.560, 757.188
1019.810, 887.444
1021.060, 808.800
1022.309, 978.090
1023.558, 1128.696
1024.807, 1066.035
1026.056, 1308.859
1027.305, 1372.220
1028.553, 1453.815
1029.801, 1760.245
1031.049, 1968.655
1032.297, 1985.410
1033.545, 1945.773
1034.793, 1951.630
1036.040, 1810.514
1037.287, 1575.104
1038.534, 1512.783
1039.781, 1284.849
1041.027, 1157.578
1042.274, 1137.163
1043.520, 854.024
1044.766, 811.627
1046.012, 834.249
1047.257, 605.656
1048.503, 622.793
1049.748, 427.561
1050.993, 573.534
1052.238, 487.946
1053.483, 575.889
1054.727, 450.297
1055.971, 324.588
1057.216, 318.024
1058.459, 572.938
1059.703, 371.365
1060.947, 378.792
1062.190, 175.214
1063.433, 356.769
1064.676, 440.521
1065.919, 309.931
1067.162, 307.807
1068.404, 209.209
1069.646, 221.428
1070.888, 163.566
1072.130, 150.509
1073.372, 210.231
1074.613, 164.443
1075.855, 214.514
1077.096, 279.082
1078.337, 145.224
1079.578, 268.462
1080.818, 157.847
1082.059, 250.467
1083.299, 279.046
1084.539, 198.409
1085.779, 323.943
1087.018, 179.363
1088.258, 211.687
1089.497, 151.057
1090.736, 240.802
1091.975, 166.238
1093.213, 145.656
1094.452, 155.457
1095.690, 107.604
1096.928, 101.041
1098.166, 48.315
1099.404, 141.960
1100.642, 90.226
1101.879, 169.653
1103.116, 37.897
1104.353, 63.719
1105.590, 56.938
1106.827, 75.145
1108.063, 54.660
1109.299, 151.515
1110.536, 19.323
1111.771, 138.157
1113.007, 108.350
1114.243, 183.344
1115.478, 54.655
1116.713, 16.232
1117.948, 47.274
1119.183, 79.644
1120.418, 65.546
1121.652, 40.452
1122.886, 140.740
1124.120, 86.483
1125.354, 203.011
1126.588, 112.832
1127.821, 8.348
1129.055, 117.468
1130.288, 36.771
1131.521, 46.053
1132.753, 22.618
1133.986, 98.269
1135.218, 55.709
1136.450, 121.490
1137.682, 41.030
1138.914, 11.341
1140.146, 68.404
1141.377, 113.152
1142.609, 153.515
1143.840, 150.262
1145.071, 89.938
1146.301, 84.639
1147.532, 94.675
1148.762, 15.777
1149.992, 21.043
1151.222, 109.027
1152.452, 44.083
1153.682, 36.878
1154.911, 169.895
1156.140, 41.235
1157.369, 164.208
1158.598, 148.096
1159.827, 78.815
1161.055, 107.476
1162.284, 153.007
1163.512, 80.805
1164.740, 87.425
1165.967, 83.470
1167.195, 153.005
1168.422, 136.241
1169.650, 160.199
1170.877, 110.081
1172.103, 191.298
1173.330, 73.706
1174.557, 186.527
1175.783, 132.110
1177.009, 172.438
1178.235, 179.093
1179.461, 32.125
1180.686, 198.084
1181.912, 82.137
1183.137, 43.287
1184.362, 225.773
1185.587, 135.510
1186.811, 55.098
1188.036, 129.272
1189.260, 164.359
1190.484, 100.403
1191.708, 162.799
1192.932, 158.955
1194.155, 219.526
1195.378, 56.780
1196.602, 129.595
1197.825, 80.379
1199.047, 262.627
1200.270, 89.351
1201.492, 247.349
1202.715, 51.184
1203.937, 317.985
1205.159, 29.579
1206.380, 328.131
1207.602, 293.118
1208.823, 246.744
1210.044, 16.391
1211.265, 143.824
1212.486, 243.269
1213.707, 114.294
1214.927, 244.612
1216.147, 190.287
1217.367, 131.898
1218.587, 88.169
1219.807, 159.071
1221.027, 63.798
1222.246, 77.925
1223.465, 188.503
1224.684, 9.022
1225.903, 69.426
1227.121, 276.869
1228.340, 182.299
1229.558, 190.647
1230.776, 378.949
1231.994, 199.348
1233.212, 225.567
1234.429, 67.041
1235.646, 239.002
1236.864, 148.154
1238.081, 220.095
1239.297, 223.557
1240.514, 130.377
1241.730, 392.322
1242.947, 325.168
1244.163, 319.711
1245.378, 164.859
1246.594, 304.820
1247.810, 212.646
1249.025, 287.173
1250.240, 113.859
1251.455, 408.446
1252.670, 333.916
1253.885, 404.432
1255.099, 292.699
1256.313, 270.182
1257.527, 177.311
1258.741, 243.745
1259.955, 213.664
1261.168, 368.713
1262.382, 220.635
1263.595, 322.623
1264.808, 319.729
1266.021, 332.649
1267.233, 244.475
1268.446, 364.142
1269.658, 317.268
1270.870, 288.054
1272.082, 315.925
1273.294, 247.751
1274.505, 242.570
1275.716, 252.232
1276.928, 287.102
1278.139, 295.312
1279.349, 315.465
1280.560, 307.895
1281.770, 262.103
1282.981, 284.238
1284.191, 209.288
1285.401, 173.182
1286.610, 268.261
1287.820, 165.614
1289.029, 222.361
1290.239, 170.245
1291.448, 73.850
1292.656, 209.724
1293.865, 170.699
1295.073, 125.312
1296.282, 186.910
1297.490, 226.843
1298.698, 170.951
1299.906, 151.508
1301.113, 181.512
1302.320, 28.435
1303.528, 155.448
1304.735, 190.253
1305.942, 291.728
1307.148, 30.267
1308.355, 153.954
1309.561, 190.299
1310.767, 82.634
1311.973, 283.891
1313.179, 134.399
1314.384, 32.201
1315.590, 103.770
1316.795, 77.750
1318.000, 257.606
1319.205, 91.397
1320.410, 141.623
1321.614, 243.585
1322.819, 110.681
1324.023, 73.765
1325.227, 196.485
1326.431, 27.566
1327.634, 238.134
1328.838, 6.432
1330.041, 30.585
1331.244, 64.068
1332.447, 154.307
1333.650, 167.865
1334.852, 14.537
1336.055, 78.902
1337.257, 128.492
1338.459, 42.032
1339.661, 90.754
1340.862, 232.729
1342.064, 257.043
1343.265, 67.119
1344.466, 184.728
1345.667, 110.778
1346.868, 142.332
1348.068, 141.014
1349.269, 206.521
1350.469, 252.528
1351.669, 70.168
1352.869, 149.612
1354.069, 137.037
1355.268, 174.303
1356.468, 163.352
1357.667, 37.720
1358.866, 193.603
1360.065, 84.993
1361.263, 92.159
1362.462, 165.110
1363.660, 33.563
1364.858, 50.602
1366.056, 184.044
1367.254, 59.636
1368.451, 65.936
1369.649, 63.373
1370.846, 58.861
1372.043, 55.909
1373.240, 65.639
1374.436, 68.300
1375.633, 47.932
1376.829, 71.661
1378.025, 21.050
1379.221, 117.785
1380.417, 65.792
1381.613, 108.453
1382.808, 20.571
1384.003, 123.230
1385.199, 86.036
1386.393, 102.344
1387.588, 206.225
1388.783, 22.957
1389.977, 54.373
1391.171, 77.936
1392.365, 142.588
1393.559, 54.373
1394.753, 94.092
1395.946, 105.785
1397.140, 104.420
1398.333, 60.008
1399.526, 109.615
1400.719, 304.215
1401.911, 106.822
1403.104, 193.941
1404.296, 283.225
1405.488, 216.785
1406.680, 218.998
1407.872, 245.330
1409.063, 178.145
1410.255, 310.637
1411.446, 251.547
1412.637, 111.127
1413.828, 270.762
1415.018, 262.271
1416.209, 293.395
1417.399, 184.295
1418.589, 232.475
1419.779, 216.248
1420.969, 426.295
1422.159, 352.379
1423.348, 378.459
1424.537, 293.746
1425.726, 220.705
1426.915, 294.559
1428.104, 320.365
1429.293, 313.031
1430.481, 417.508
1431.669, 361.812
1432.857, 336.385
1434.045, 386.867
1435.233, 404.934
1436.420, 342.963
1437.608, 556.656
1438.795, 581.402
1439.982, 535.730
1441.169, 574.000
1442.355, 637.613
1443.542, 512.629
1444.728, 591.361
1445.914, 571.250
1447.100, 578.250
1448.286, 681.992
1449.472, 635.672
1450.657, 608.723
1451.842, 531.033
1453.027, 754.018
1454.212, 573.250
1455.397, 474.438
1456.581, 673.121
1457.766, 491.729
1458.950, 641.109
1460.134, 635.006
1461.318, 433.773
1462.501, 536.012
1463.685, 551.156
1464.868, 643.184
1466.051, 666.670
1467.234, 445.570
1468.417, 490.418
1469.600, 456.734
1470.782, 424.973
1471.965, 488.174
1473.147, 475.463
1474.329, 196.732
1475.510, 558.941
1476.692, 485.068
1477.873, 208.096
1479.055, 258.037
1480.236, 182.893
1481.416, 255.701
1482.597, 266.240
1483.778, 220.873
1484.958, 325.119
1486.138, 247.398
1487.318, 245.891
1488.498, 112.445
1489.678, 445.529
1490.857, 75.699
1492.037, 320.947
1493.216, 34.316
1494.395, 225.805
1495.574, 245.402
1496.752, 113.123
1497.931, 230.990
1499.109, 90.055
1500.287, 305.371
1501.465, 71.971
1502.643, 232.883
1503.820, 79.143
1504.998, 22.260
1506.175, 83.721
1507.352, 225.920
1508.529, 99.594
1509.706, 57.828
1510.882, 69.666
1512.059, 132.109
1513.235, 119.609
1514.411, 121.242
1515.587, 180.205
1516.762, 0.482
1517.938, 0.000
##END=



