##NAMES=Almandine
##RRUFFID=R040168
##IDEAL CHEMISTRY=Fe^2+^_3_Al_2_(SiO_4_)_3_
##LOCALITY=Pocos Dos Cavatos, Ceara, Brazil
##OWNER=RRUFF
##SOURCE=University of Arizona Mineral Museum
##DESCRIPTION=Dark red etched single crystal
##STATUS=The identification of this mineral has been confirmed by X-ray diffraction and chemical analysis
##URL=rruff.info/R040168
##MEASURED CHEMISTRY=(Fe^2+^_1.48_Mn_1.47_Ca_0.05_)_Î£=3_Al_2.00_(Si_1.00_O_4_)_3_; trace amounts of Ti and Y
124.5917, 0.0000000E+00
125.0739, 2.475988
125.5560, 4.220049
126.0381, 0.8718340
126.5202, 0.7232490
127.0023, 0.1828780
127.4844, 2.397127
127.9666, 4.487383
128.4487, 6.419907
128.9308, 7.543732
129.4129, 6.426807
129.8950, 3.597603
130.3772, 1.815495
130.8593, 2.269646
131.3414, 4.366894
131.8235, 6.287109
132.3056, 8.085266
132.7877, 9.296204
133.2699, 8.650723
133.7520, 6.021828
134.2341, 4.484299
134.7162, 5.837605
135.1983, 10.09228
135.6804, 13.11104
136.1626, 14.37341
136.6447, 15.04054
137.1268, 17.58122
137.6089, 22.49499
138.0910, 27.42391
138.5731, 31.30229
139.0553, 34.34107
139.5374, 35.56215
140.0195, 34.54588
140.5016, 31.70851
140.9837, 28.39908
141.4658, 23.81078
141.9480, 19.97836
142.4301, 18.58865
142.9122, 21.19139
143.3943, 22.92384
143.8764, 23.02087
144.3585, 21.51187
144.8407, 20.04924
145.3228, 17.84146
145.8049, 16.29283
146.2870, 16.79680
146.7691, 20.62562
147.2512, 24.81924
147.7334, 29.05704
148.2155, 33.61798
148.6976, 37.14286
149.1797, 37.86921
149.6618, 38.07632
150.1439, 40.74471
150.6261, 48.67798
151.1082, 56.51717
151.5903, 62.74564
152.0724, 66.41391
152.5545, 70.48257
153.0366, 74.54798
153.5188, 79.14943
154.0009, 85.31500
154.4830, 95.32513
154.9651, 105.4147
155.4472, 113.9211
155.9293, 119.1341
156.4115, 124.9313
156.8936, 132.1427
157.3757, 140.5703
157.8578, 149.6189
158.3399, 157.1481
158.8221, 166.3697
159.3042, 179.4550
159.7863, 200.0144
160.2684, 221.4772
160.7505, 240.1998
161.2326, 257.0899
161.7148, 277.8732
162.1969, 309.6963
162.6790, 344.9216
163.1611, 375.7638
163.6432, 404.4646
164.1253, 424.7278
164.6075, 434.2707
165.0896, 433.0481
165.5717, 419.1596
166.0538, 381.5930
166.5359, 332.3411
167.0180, 288.5253
167.5002, 258.9350
167.9823, 235.9897
168.4644, 213.8668
168.9465, 191.8189
169.4286, 172.8325
169.9107, 159.9128
170.3929, 151.7778
170.8750, 145.3905
171.3571, 140.1367
171.8392, 135.5252
172.3213, 131.2056
172.8034, 127.3425
173.2856, 123.2129
173.7677, 117.2917
174.2498, 110.2617
174.7319, 104.5555
175.2140, 103.3706
175.6961, 104.0336
176.1783, 102.0522
176.6604, 95.51896
177.1425, 88.12180
177.6246, 84.94331
178.1067, 85.43396
178.5888, 85.83769
179.0710, 83.34837
179.5531, 78.78540
180.0352, 73.77199
180.5173, 68.17051
180.9994, 62.88860
181.4815, 60.32321
181.9637, 60.35492
182.4458, 59.66449
182.9279, 54.81168
183.4100, 46.91994
183.8921, 40.17284
184.3742, 35.96979
184.8564, 33.62931
185.3385, 31.87820
185.8206, 30.78667
186.3027, 29.28982
186.7848, 25.79776
187.2669, 20.60926
187.7491, 15.89872
188.2312, 12.32748
188.7133, 9.825813
189.1954, 8.104401
189.6775, 7.173470
190.1596, 7.028229
190.6418, 8.074753
191.1239, 10.27073
191.6060, 12.17783
192.0881, 13.30891
192.5702, 13.64499
193.0524, 13.37608
193.5345, 12.33810
194.0166, 11.14388
194.4987, 10.80591
194.9808, 11.38362
195.4629, 12.08044
195.9451, 12.52876
196.4272, 12.65533
196.9093, 12.39880
197.3914, 11.46672
197.8735, 10.93752
198.3556, 13.44958
198.8378, 19.50275
199.3199, 25.38512
199.8020, 28.70431
200.2841, 28.93994
200.7662, 30.50276
201.2483, 34.42877
201.7305, 39.68381
202.2126, 43.86356
202.6947, 46.55229
203.1768, 49.26442
203.6589, 53.14604
204.1410, 58.52288
204.6232, 63.38562
205.1053, 67.23454
205.5874, 70.65593
206.0695, 75.67233
206.5516, 82.54613
207.0337, 90.10269
207.5159, 97.39382
207.9980, 103.9107
208.4801, 111.7647
208.9622, 121.4821
209.4443, 132.8785
209.9264, 144.7658
210.4086, 157.1464
210.8907, 169.6098
211.3728, 181.3853
211.8549, 191.9096
212.3370, 204.3863
212.8191, 220.8482
213.3013, 240.1788
213.7834, 253.8768
214.2655, 260.5171
214.7476, 263.8292
215.2297, 267.1837
215.7118, 271.0164
216.1940, 273.1043
216.6761, 272.5197
217.1582, 269.4348
217.6403, 267.9900
218.1224, 270.4128
218.6045, 271.6628
219.0867, 266.0988
219.5688, 250.5272
220.0509, 235.3863
220.5330, 223.4831
221.0151, 214.7653
221.4972, 204.4503
221.9794, 191.6998
222.4615, 178.1949
222.9436, 165.2134
223.4257, 151.7029
223.9078, 140.9335
224.3899, 134.9254
224.8721, 134.2573
225.3542, 129.3602
225.8363, 117.6488
226.3184, 104.1248
226.8005, 94.76923
227.2827, 91.78717
227.7648, 88.92940
228.2469, 84.82216
228.7290, 79.44841
229.2111, 72.80563
229.6932, 63.26851
230.1754, 53.85274
230.6575, 48.82280
231.1396, 50.91974
231.6217, 52.61382
232.1038, 51.63759
232.5859, 47.33804
233.0681, 43.89417
233.5502, 41.62430
234.0323, 39.98914
234.5144, 38.27515
234.9965, 36.78969
235.4786, 34.69218
235.9608, 31.40759
236.4429, 26.42755
236.9250, 22.85030
237.4071, 21.23982
237.8892, 20.71051
238.3713, 19.87872
238.8535, 18.56345
239.3356, 17.24986
239.8177, 16.11412
240.2998, 15.23584
240.7819, 14.19354
241.2640, 12.75571
241.7462, 11.27583
242.2283, 10.39095
242.7104, 10.40154
243.1925, 10.51721
243.6746, 10.54173
244.1567, 10.56526
244.6389, 10.10747
245.1210, 8.742020
245.6031, 7.148743
246.0852, 6.717560
246.5673, 8.480774
247.0494, 9.641495
247.5316, 9.073181
248.0137, 6.178040
248.4958, 3.478149
248.9779, 0.6570890
249.4600, 1.774338
249.9421, 2.675797
250.4243, 1.289520
250.9064, 0.2618260
251.3885, 1.279602
251.8706, 1.765305
252.3527, 1.583389
252.8348, 0.1346890
253.3170, 1.612610
253.7991, 1.595612
254.2812, 1.212433
254.7633, 3.819580
255.2454, 5.206650
255.7275, 5.320938
256.2097, 4.072128
256.6918, 0.2521360
257.1739, 4.091721
257.6560, 4.473709
258.1381, 1.875656
258.6202, 6.438217
259.1024, 4.982056
259.5845, 4.965652
260.0666, 10.33398
260.5487, 9.449936
261.0308, 5.243652
261.5129, 2.981583
261.9951, 3.193008
262.4772, 4.144058
262.9593, 5.393906
263.4414, 7.187332
263.9235, 8.127411
264.4056, 8.073563
264.8878, 7.300720
265.3699, 6.033463
265.8520, 3.811722
266.3341, 2.384720
266.8162, 2.931900
267.2983, 6.061264
267.7805, 7.189041
268.2626, 5.975693
268.7447, 3.115570
269.2268, 0.7842100
269.7089, 6.434464
270.1910, 10.57291
270.6732, 11.84775
271.1553, 10.05608
271.6374, 6.802612
272.1195, 1.315475
272.6016, 4.507828
273.0837, 7.222015
273.5659, 6.368683
274.0480, 4.849014
274.5301, 3.561874
275.0122, 2.509048
275.4943, 2.115128
275.9764, 2.803253
276.4586, 3.354050
276.9407, 1.186127
277.4228, 4.150848
277.9049, 8.049194
278.3870, 7.786804
278.8691, 3.632904
279.3513, 2.172684
279.8334, 4.063568
280.3155, 6.957870
280.7976, 7.319290
281.2798, 5.006027
281.7619, 3.355408
282.2440, 3.727341
282.7261, 5.912537
283.2082, 8.535492
283.6903, 11.74173
284.1725, 14.84964
284.6546, 16.73538
285.1367, 17.44081
285.6188, 18.57495
286.1009, 21.16772
286.5830, 24.69235
287.0652, 26.72403
287.5473, 27.08914
288.0294, 26.88025
288.5115, 27.23572
288.9936, 28.09648
289.4757, 28.83163
289.9579, 28.07872
290.4400, 27.32619
290.9221, 31.88493
291.4042, 42.15399
291.8863, 52.75459
292.3684, 57.48093
292.8506, 57.59793
293.3327, 58.75688
293.8148, 63.61798
294.2969, 70.11891
294.7790, 74.15057
295.2611, 75.72067
295.7433, 76.70131
296.2254, 78.55684
296.7075, 81.13902
297.1896, 83.96167
297.6717, 87.08632
298.1538, 90.27534
298.6360, 92.97231
299.1181, 95.25433
299.6002, 97.72369
300.0823, 101.3564
300.5644, 105.4762
301.0465, 108.6913
301.5287, 109.8807
302.0108, 110.9650
302.4929, 115.0755
302.9750, 121.5751
303.4571, 126.5750
303.9392, 124.7853
304.4214, 120.7503
304.9035, 120.8581
305.3856, 128.0392
305.8677, 137.4675
306.3498, 145.0086
306.8319, 151.1575
307.3141, 157.8393
307.7962, 165.7220
308.2783, 175.0760
308.7604, 186.2727
309.2425, 199.3372
309.7246, 213.7078
310.2068, 229.9445
310.6889, 247.3301
311.1710, 264.2701
311.6531, 280.8421
312.1352, 296.4767
312.6173, 309.5927
313.0995, 318.1865
313.5816, 329.0107
314.0637, 347.2023
314.5458, 369.7313
315.0279, 390.9178
315.5100, 408.0986
315.9922, 424.4807
316.4743, 441.0140
316.9564, 457.6305
317.4385, 474.9659
317.9206, 493.9443
318.4027, 514.0617
318.8849, 534.3150
319.3670, 556.5120
319.8491, 576.5916
320.3312, 592.3623
320.8133, 602.9714
321.2954, 613.7405
321.7776, 631.6990
322.2597, 648.2652
322.7418, 654.2757
323.2239, 642.6516
323.7060, 626.2061
324.1881, 606.9407
324.6703, 584.7019
325.1524, 561.0248
325.6345, 533.4153
326.1166, 506.3473
326.5987, 483.1668
327.0808, 465.8548
327.5630, 449.9876
328.0451, 434.2691
328.5272, 418.8881
329.0093, 407.9396
329.4914, 402.5403
329.9735, 400.7694
330.4557, 401.3036
330.9378, 404.7328
331.4199, 409.8836
331.9020, 416.3184
332.3841, 424.3654
332.8662, 435.8672
333.3484, 451.5063
333.8305, 469.2589
334.3126, 487.6993
334.7947, 505.1623
335.2768, 528.6194
335.7589, 559.7309
336.2411, 596.1736
336.7232, 633.1044
337.2053, 670.0118
337.6874, 708.1517
338.1695, 748.4393
338.6516, 790.5359
339.1338, 833.8777
339.6159, 876.3885
340.0980, 922.8589
340.5801, 984.0370
341.0622, 1062.817
341.5443, 1136.313
342.0265, 1193.386
342.5086, 1235.798
342.9907, 1286.794
343.4728, 1347.974
343.9549, 1409.791
344.4370, 1464.732
344.9192, 1511.582
345.4013, 1540.400
345.8834, 1547.688
346.3655, 1533.976
346.8476, 1497.316
347.3297, 1437.641
347.8119, 1363.842
348.2940, 1279.964
348.7761, 1188.176
349.2582, 1096.651
349.7403, 1003.840
350.2225, 914.0257
350.7046, 832.2044
351.1867, 757.4955
351.6688, 690.0760
352.1509, 628.8246
352.6331, 575.0984
353.1152, 531.4282
353.5973, 499.5581
354.0794, 475.6100
354.5615, 458.7826
355.0436, 447.4085
355.5258, 437.4588
356.0079, 426.0706
356.4900, 415.9167
356.9721, 409.8541
357.4542, 409.3300
357.9363, 409.4842
358.4185, 403.4367
358.9006, 396.6159
359.3827, 398.5603
359.8648, 421.7259
360.3469, 447.6973
360.8290, 466.0973
361.3112, 474.8685
361.7933, 485.2935
362.2754, 499.4246
362.7575, 517.5456
363.2396, 540.1527
363.7217, 570.5316
364.2039, 602.0637
364.6860, 632.0261
365.1681, 660.5043
365.6502, 693.2335
366.1323, 737.2861
366.6144, 782.2354
367.0966, 820.8047
367.5787, 841.7463
368.0608, 868.9128
368.5429, 909.5209
369.0250, 959.7465
369.5071, 998.4623
369.9893, 1022.417
370.4714, 1038.548
370.9535, 1049.998
371.4356, 1056.969
371.9177, 1059.373
372.3998, 1061.207
372.8820, 1056.739
373.3641, 1030.968
373.8462, 977.1384
374.3283, 918.9404
374.8104, 866.1545
375.2925, 818.8922
375.7747, 770.8262
376.2568, 722.3420
376.7389, 671.9642
377.2210, 616.1872
377.7031, 554.3599
378.1852, 496.6138
378.6674, 444.2210
379.1495, 398.0022
379.6316, 361.4272
380.1137, 335.5156
380.5958, 314.9069
381.0779, 296.4297
381.5601, 278.8678
382.0422, 259.5013
382.5243, 236.8348
383.0064, 213.1673
383.4885, 191.1915
383.9706, 170.8292
384.4528, 153.3868
384.9349, 140.4725
385.4170, 130.7450
385.8991, 121.5745
386.3812, 112.3037
386.8633, 104.2226
387.3455, 99.65976
387.8276, 97.30701
388.3097, 93.89330
388.7918, 86.57939
389.2739, 78.09207
389.7560, 70.74504
390.2382, 64.90898
390.7203, 59.51202
391.2024, 53.64146
391.6845, 47.83643
392.1666, 42.81416
392.6487, 38.30286
393.1309, 35.20073
393.6130, 35.15460
394.0951, 37.73283
394.5772, 38.17366
395.0593, 33.24554
395.5414, 27.06483
396.0236, 22.24677
396.5057, 18.44366
396.9878, 16.84479
397.4699, 19.51041
397.9520, 24.74631
398.4341, 27.25067
398.9163, 26.41856
399.3984, 23.43958
399.8805, 17.91257
400.3626, 7.366241
400.8447, 1.916351
401.3268, 4.079697
401.8090, 9.488724
402.2911, 11.97386
402.7732, 10.56384
403.2553, 8.669159
403.7374, 6.920685
404.2195, 5.356323
404.7017, 4.948814
405.1838, 6.157776
405.6659, 7.273773
406.1480, 6.685974
406.6301, 4.376663
407.1122, 1.389229
407.5944, 2.682854
408.0765, 6.722496
408.5586, 7.734581
409.0407, 5.772179
409.5228, 2.898125
410.0049, 0.7498320
410.4871, 4.268250
410.9692, 4.291069
411.4513, 0.3722990
411.9334, 5.099289
412.4155, 3.523598
412.8976, 2.447968
413.3798, 7.239510
413.8619, 7.846390
414.3440, 6.337433
414.8261, 4.195251
415.3082, 1.481117
415.7903, 0.2002720
416.2725, 1.417183
416.7546, 4.170815
417.2367, 5.623329
417.7188, 4.075722
418.2009, 2.071854
418.6830, 0.4104230
419.1652, 0.8547210
419.6473, 1.448692
420.1294, 0.5640340
420.6115, 0.4755780
421.0937, 0.9710310
421.5758, 0.7207410
422.0579, 0.1458280
422.5400, 0.8569340
423.0221, 2.120125
423.5042, 3.421753
423.9864, 6.116455
424.4685, 7.287674
424.9506, 5.632561
425.4327, 0.8219990
425.9148, 2.200226
426.3969, 2.301529
426.8791, 1.907814
427.3612, 3.645775
427.8433, 9.148941
428.3254, 11.47475
428.8075, 8.849701
429.2896, 2.680176
429.7718, 2.669846
430.2539, 7.403687
430.7360, 10.40885
431.2181, 10.40476
431.7002, 7.601143
432.1823, 4.825508
432.6645, 2.022636
433.1466, 0.1149440
433.6287, 0.2441020
434.1108, 1.303513
434.5929, 2.936913
435.0750, 4.659195
435.5572, 5.760071
436.0393, 3.885132
436.5214, 0.7718960
437.0035, 4.088043
437.4856, 0.5529480
437.9677, 5.679085
438.4499, 8.554131
438.9320, 4.961815
439.4141, 0.3429720
439.8962, 1.513344
440.3783, 1.378311
440.8604, 1.290779
441.3426, 2.621399
441.8247, 3.894371
442.3068, 4.210197
442.7889, 3.310097
443.2710, 2.229164
443.7531, 1.139206
444.2353, 5.0528999E-02
444.7174, 1.045990
445.1995, 3.001930
445.6816, 4.014412
446.1637, 3.190666
446.6458, 0.7841570
447.1280, 0.5078740
447.6101, 0.2932740
448.0922, 1.127731
448.5743, 0.8139110
449.0564, 1.137154
449.5385, 3.033981
450.0207, 5.059578
450.5028, 6.802689
450.9849, 7.178444
451.4670, 5.837074
451.9491, 4.888474
452.4312, 5.235489
452.9134, 6.726349
453.3955, 8.364418
453.8776, 10.22068
454.3597, 11.68904
454.8418, 11.67962
455.3239, 10.62842
455.8061, 10.29034
456.2882, 10.97359
456.7703, 12.68259
457.2524, 15.89214
457.7345, 20.27845
458.2166, 24.60820
458.6988, 28.54014
459.1809, 31.79536
459.6630, 33.93425
460.1451, 34.87614
460.6272, 35.14684
461.1093, 34.06734
461.5915, 32.81906
462.0736, 32.89912
462.5557, 34.96262
463.0378, 38.27568
463.5199, 43.44037
464.0020, 50.05064
464.4842, 55.39449
464.9663, 57.87881
465.4484, 59.52686
465.9305, 61.18687
466.4126, 61.65654
466.8947, 65.21042
467.3769, 74.20792
467.8590, 85.29213
468.3411, 92.49737
468.8232, 92.73878
469.3053, 95.23465
469.7874, 102.8904
470.2696, 115.7274
470.7517, 127.4156
471.2338, 137.8313
471.7159, 146.4953
472.1980, 152.2267
472.6801, 155.1211
473.1623, 158.4799
473.6444, 162.8789
474.1265, 167.7682
474.6086, 174.6861
475.0907, 182.4577
475.5728, 183.5526
476.0550, 169.1939
476.5371, 147.1983
477.0192, 130.1988
477.5013, 118.6147
477.9834, 108.8932
478.4655, 98.20180
478.9477, 87.61510
479.4298, 78.76662
479.9119, 72.90119
480.3940, 67.68798
480.8761, 60.79890
481.3582, 53.46362
481.8404, 49.25456
482.3225, 52.78250
482.8046, 57.24718
483.2867, 59.20348
483.7688, 56.66376
484.2509, 56.56551
484.7331, 62.23531
485.2152, 69.21262
485.6973, 73.23586
486.1794, 71.66078
486.6615, 71.53236
487.1436, 73.33916
487.6258, 77.04789
488.1079, 84.13838
488.5900, 95.72974
489.0721, 108.1075
489.5542, 119.1878
490.0363, 129.0020
490.5185, 139.1558
491.0006, 149.0843
491.4827, 160.7764
491.9648, 178.3383
492.4470, 200.5817
492.9291, 220.4911
493.4112, 233.0807
493.8933, 244.1171
494.3754, 262.3214
494.8575, 286.8907
495.3397, 312.7640
495.8218, 339.4924
496.3039, 364.7024
496.7860, 385.3858
497.2681, 400.7776
497.7502, 414.2426
498.2324, 431.5812
498.7145, 447.0371
499.1966, 453.1490
499.6787, 444.6728
500.1608, 429.3477
500.6429, 408.6282
501.1251, 382.6681
501.6072, 352.9154
502.0893, 313.6555
502.5714, 275.3497
503.0535, 242.9792
503.5356, 219.3465
504.0178, 195.3497
504.4999, 170.3803
504.9820, 145.9267
505.4641, 122.8951
505.9462, 100.5169
506.4283, 84.20587
506.9105, 77.47021
507.3926, 77.72267
507.8747, 75.24603
508.3568, 69.93016
508.8389, 63.25233
509.3210, 55.11978
509.8032, 46.39035
510.2853, 39.53320
510.7674, 35.08557
511.2495, 31.51630
511.7316, 26.77240
512.2137, 21.75807
512.6959, 18.37126
513.1780, 18.82755
513.6601, 19.94069
514.1422, 19.64088
514.6243, 18.08786
515.1064, 16.54312
515.5886, 15.13010
516.0707, 14.13431
516.5528, 13.89523
517.0349, 15.31064
517.5170, 15.68440
517.9991, 13.61690
518.4813, 10.81355
518.9634, 9.411377
519.4455, 9.789230
519.9276, 11.04086
520.4097, 13.79686
520.8918, 17.44815
521.3740, 17.74997
521.8561, 13.76181
522.3382, 9.539505
522.8203, 7.388748
523.3024, 7.294083
523.7845, 9.389572
524.2667, 14.34584
524.7488, 19.00638
525.2309, 18.51930
525.7130, 14.33931
526.1951, 11.62071
526.6772, 13.28209
527.1594, 16.16840
527.6415, 16.22256
528.1236, 14.08806
528.6057, 12.59720
529.0878, 14.50702
529.5699, 16.93922
530.0521, 17.22392
530.5342, 14.21243
531.0163, 12.76962
531.4984, 16.72229
531.9805, 22.04979
532.4626, 24.49574
532.9448, 19.26430
533.4269, 16.23553
533.9090, 17.52815
534.3911, 21.93436
534.8732, 24.53828
535.3553, 24.17865
535.8375, 24.25206
536.3196, 26.36093
536.8017, 30.63602
537.2838, 34.44548
537.7659, 37.46237
538.2480, 41.22229
538.7302, 48.26442
539.2123, 58.03551
539.6944, 66.02269
540.1765, 70.57793
540.6586, 74.17207
541.1407, 80.58850
541.6229, 89.19936
542.1050, 97.83026
542.5871, 104.1673
543.0692, 110.8146
543.5513, 119.5484
544.0334, 130.3291
544.5156, 143.8351
544.9977, 163.9280
545.4798, 184.8133
545.9619, 201.5544
546.4440, 209.9172
546.9261, 219.7102
547.4083, 231.7564
547.8904, 245.7407
548.3725, 261.5193
548.8546, 282.3046
549.3367, 299.9525
549.8188, 311.1762
550.3010, 316.7206
550.7831, 326.5027
551.2652, 341.9965
551.7473, 356.7647
552.2294, 366.5512
552.7115, 371.5478
553.1937, 372.7502
553.6758, 370.0300
554.1579, 364.3724
554.6400, 358.4402
555.1221, 350.6581
555.6042, 336.5031
556.0864, 310.7268
556.5685, 281.3565
557.0506, 255.0251
557.5327, 231.4765
558.0148, 210.2229
558.4969, 191.9809
558.9791, 175.1706
559.4612, 158.8329
559.9433, 142.6954
560.4254, 128.2125
560.9075, 115.9859
561.3896, 105.4256
561.8718, 95.86984
562.3539, 88.30034
562.8360, 79.87219
563.3181, 69.33385
563.8002, 58.39572
564.2823, 51.75850
564.7645, 50.62296
565.2466, 48.52324
565.7287, 41.73166
566.2108, 31.81630
566.6929, 27.43909
567.1750, 28.84409
567.6572, 31.08112
568.1393, 29.96690
568.6214, 26.71205
569.1035, 23.67972
569.5856, 21.19536
570.0677, 19.02856
570.5499, 15.90231
571.0320, 13.16191
571.5141, 12.89874
571.9962, 19.93225
572.4783, 25.55368
572.9604, 25.36473
573.4426, 20.37292
573.9247, 15.96111
574.4068, 12.56654
574.8889, 10.35741
575.3710, 9.639908
575.8531, 10.76825
576.3353, 11.54349
576.8174, 11.77805
577.2995, 11.92946
577.7816, 12.29947
578.2637, 12.84311
578.7458, 14.26003
579.2280, 16.93976
579.7101, 20.00752
580.1922, 21.97841
580.6743, 22.94463
581.1564, 23.42934
581.6385, 23.06473
582.1207, 22.68222
582.6028, 23.71765
583.0849, 25.96501
583.5670, 27.86937
584.0491, 28.37389
584.5313, 28.25591
585.0134, 28.07352
585.4955, 27.89384
585.9776, 27.71411
586.4597, 26.31488
586.9418, 25.44586
587.4240, 27.17719
587.9061, 33.19276
588.3882, 39.30537
588.8703, 45.78416
589.3524, 51.88133
589.8345, 54.87811
590.3167, 53.86739
590.7988, 53.27443
591.2809, 55.41045
591.7630, 59.60753
592.2451, 62.83559
592.7272, 65.13582
593.2094, 65.45937
593.6915, 62.32133
594.1736, 56.71095
594.6557, 49.90659
595.1378, 41.69795
595.6199, 34.69969
596.1021, 31.61597
596.5842, 30.82834
597.0663, 30.02502
597.5485, 29.86703
598.0306, 28.07474
598.5127, 22.95599
598.9948, 15.33911
599.4769, 8.695435
599.9590, 2.021278
600.4412, 2.295715
600.9233, 2.809692
601.4054, 0.8021850
601.8875, 3.397545
602.3696, 5.361046
602.8517, 5.395798
603.3339, 0.6258620
603.8160, 8.344185
604.2981, 12.10663
604.7802, 8.617409
605.2623, 2.820511
605.7444, 1.343094
606.2266, 3.207504
606.7087, 5.259132
607.1908, 6.179977
607.6729, 6.257668
608.1550, 5.537903
608.6371, 4.409729
609.1193, 3.247498
609.6014, 1.598549
610.0835, 0.2128600
610.5656, 2.324272
611.0477, 4.949303
611.5298, 6.083763
612.0120, 4.087502
612.4941, 2.180191
612.9762, 2.495499
613.4583, 5.371635
613.9404, 9.401817
614.4225, 15.28608
614.9047, 20.99164
615.3868, 23.05299
615.8689, 21.81666
616.3510, 21.24701
616.8331, 22.53467
617.3152, 24.88255
617.7974, 27.30444
618.2795, 29.80429
618.7616, 32.54237
619.2437, 36.07678
619.7258, 39.59978
620.2079, 41.93550
620.6901, 42.92644
621.1722, 45.54120
621.6543, 53.38995
622.1364, 61.57745
622.6185, 66.47392
623.1006, 64.92557
623.5828, 67.01617
624.0649, 74.83257
624.5470, 84.37131
625.0291, 90.51482
625.5112, 92.35072
625.9933, 96.26199
626.4755, 104.1295
626.9576, 113.5829
627.4397, 120.1945
627.9218, 124.0356
628.4039, 125.6613
628.8860, 123.9561
629.3682, 120.8451
629.8503, 119.3346
630.3324, 119.1467
630.8145, 118.1478
631.2966, 116.3207
631.7787, 112.3980
632.2609, 104.7314
632.7430, 91.78828
633.2251, 80.36276
633.7072, 71.87290
634.1893, 65.50893
634.6714, 60.84936
635.1536, 59.58379
635.6357, 55.98419
636.1178, 48.42592
636.5999, 39.70914
637.0820, 35.79546
637.5641, 36.90172
638.0463, 36.29891
638.5284, 30.43365
639.0105, 22.73379
639.4926, 20.49778
639.9747, 22.91582
640.4568, 25.43463
640.9390, 25.24123
641.4211, 24.02953
641.9032, 23.23808
642.3853, 22.83361
642.8674, 22.20611
643.3495, 21.23866
643.8317, 19.95393
644.3138, 18.36628
644.7959, 16.65166
645.2780, 14.20744
645.7601, 10.18040
646.2422, 6.179459
646.7244, 4.024414
647.2065, 3.869759
647.6886, 4.982262
648.1707, 7.728340
648.6528, 10.97880
649.1349, 12.72689
649.6171, 13.02597
650.0992, 12.15201
650.5813, 8.850426
651.0634, 5.165184
651.5455, 3.729828
652.0276, 4.258438
652.5098, 5.284515
652.9919, 6.902870
653.4740, 8.044716
653.9561, 7.671471
654.4382, 5.267586
654.9203, 3.948837
655.4025, 4.780113
655.8846, 6.230011
656.3667, 7.392860
656.8488, 8.387253
657.3309, 8.745735
657.8130, 8.456017
658.2952, 7.472008
658.7773, 5.365204
659.2594, 2.362961
659.7415, 0.3691250
660.2236, 0.1194990
660.7057, 0.7244870
661.1879, 1.418770
661.6700, 1.677147
662.1521, 0.9786150
662.6342, 2.523560
663.1163, 5.005264
663.5984, 2.994789
664.0806, 2.650314
664.5627, 5.586922
665.0448, 0.1675800
665.5269, 4.405899
666.0090, 3.423576
666.4911, 4.341316
666.9733, 8.396812
667.4554, 7.647148
667.9375, 5.392769
668.4196, 4.151085
668.9017, 3.895851
669.3839, 3.383362
669.8660, 2.372261
670.3481, 1.715408
670.8302, 3.238777
671.3123, 5.794792
671.7944, 6.788765
672.2766, 4.623466
672.7587, 1.971489
673.2408, 0.1772540
673.7229, 0.8118820
674.2050, 1.140907
674.6871, 0.6143950
675.1693, 0.3391490
675.6514, 2.268578
676.1335, 4.726158
676.6156, 5.013550
677.0977, 1.844650
677.5798, 0.5641250
678.0620, 0.1285930
678.5441, 2.868622
679.0262, 6.251389
679.5083, 10.17947
679.9904, 12.28432
680.4725, 8.876144
680.9547, 2.907158
681.4368, 0.3280640
681.9189, 1.9669000E-02
682.4010, 1.416664
682.8831, 2.002136
683.3652, 2.689392
683.8474, 4.546410
684.3295, 10.05388
684.8116, 13.18913
685.2937, 10.66895
685.7758, 6.404877
686.2579, 5.813293
686.7401, 10.92525
687.2222, 14.06448
687.7043, 13.32066
688.1864, 10.35193
688.6685, 8.981804
689.1506, 9.155937
689.6328, 9.588051
690.1149, 9.673164
690.5970, 9.715820
691.0791, 10.47942
691.5612, 11.72394
692.0433, 12.23095
692.5255, 10.81546
693.0076, 8.885727
693.4897, 6.861206
693.9718, 4.647690
694.4539, 4.289307
694.9360, 8.434441
695.4182, 12.28374
695.9003, 12.98325
696.3824, 9.413551
696.8645, 7.667786
697.3466, 8.361618
697.8287, 9.264015
698.3109, 7.005280
698.7930, 2.499512
699.2751, 0.9771420
699.7572, 3.920784
700.2393, 7.988235
700.7214, 10.32841
701.2036, 11.25322
701.6857, 11.25900
702.1678, 9.618057
702.6499, 8.105293
703.1320, 6.759315
703.6141, 6.072784
704.0963, 7.394531
704.5784, 13.06714
705.0605, 17.13769
705.5426, 18.32584
706.0247, 17.02596
706.5068, 13.88470
706.9890, 8.394417
707.4711, 5.216408
707.9532, 8.925110
708.4353, 16.23897
708.9174, 17.63322
709.3995, 13.74075
709.8817, 10.55934
710.3638, 14.04585
710.8459, 18.84708
711.3280, 19.80154
711.8101, 15.91646
712.2922, 12.72826
712.7744, 12.06238
713.2565, 12.42453
713.7386, 12.74255
714.2207, 12.81581
714.7028, 13.54995
715.1849, 15.35831
715.6671, 17.05623
716.1492, 17.04720
716.6313, 15.56280
717.1134, 15.12842
717.5955, 16.35450
718.0776, 17.54144
718.5598, 16.49796
719.0419, 14.45483
719.5240, 13.63126
720.0061, 16.01635
720.4882, 17.82488
720.9703, 17.44497
721.4525, 15.87251
721.9346, 14.66880
722.4167, 13.55070
722.8988, 12.60479
723.3809, 11.74218
723.8630, 11.27750
724.3452, 11.07072
724.8273, 10.66138
725.3094, 11.36169
725.7915, 14.98132
726.2736, 19.74096
726.7557, 19.98996
727.2379, 16.35553
727.7200, 13.85496
728.2021, 17.86977
728.6842, 22.97299
729.1663, 24.35789
729.6484, 21.29857
730.1306, 18.90196
730.6127, 19.54161
731.0948, 20.32246
731.5769, 19.74620
732.0590, 17.56011
732.5411, 16.34139
733.0233, 15.94790
733.5054, 15.59528
733.9875, 14.89577
734.4696, 14.04655
734.9517, 14.93556
735.4338, 17.97222
735.9160, 21.15236
736.3981, 21.80437
736.8802, 21.23088
737.3623, 22.02366
737.8444, 27.14987
738.3266, 29.74350
738.8087, 23.79992
739.2908, 14.39293
739.7729, 9.602226
740.2551, 12.43680
740.7372, 15.31197
741.2193, 17.83839
741.7014, 19.69718
742.1835, 19.21188
742.6656, 15.99302
743.1478, 14.54098
743.6299, 17.68336
744.1120, 22.12635
744.5941, 21.42153
745.0762, 16.90891
745.5583, 13.99298
746.0405, 18.27200
746.5226, 22.59523
747.0047, 22.30592
747.4868, 18.24226
747.9689, 15.69485
748.4510, 16.26740
748.9332, 17.18186
749.4153, 17.49775
749.8974, 17.32735
750.3795, 18.41945
750.8616, 21.02538
751.3438, 22.89288
751.8259, 21.74041
752.3080, 18.98234
752.7901, 18.27670
753.2722, 19.56449
753.7543, 20.63672
754.2365, 19.28662
754.7186, 17.60151
755.2007, 17.72438
755.6828, 20.48014
756.1649, 21.42794
756.6470, 17.91215
757.1292, 13.99417
757.6113, 12.43803
758.0934, 14.03741
758.5755, 13.90587
759.0576, 11.49696
759.5397, 9.129425
760.0219, 10.11475
760.5040, 13.15900
760.9861, 13.64780
761.4682, 10.10079
761.9503, 7.188889
762.4324, 10.07870
762.9146, 15.42095
763.3967, 18.62197
763.8788, 16.92563
764.3609, 14.50416
764.8430, 11.36715
765.3251, 8.642349
765.8073, 7.820015
766.2894, 9.286774
766.7715, 10.17240
767.2536, 9.863617
767.7357, 9.333015
768.2178, 10.65727
768.7000, 13.33355
769.1821, 15.27390
769.6642, 15.76646
770.1463, 15.37138
770.6284, 14.28048
771.1105, 12.70856
771.5927, 11.06266
772.0748, 8.633049
772.5569, 7.156792
773.0390, 8.121628
773.5211, 10.10816
774.0032, 8.874367
774.4854, 2.884186
774.9675, 0.1785200
775.4496, 3.457779
775.9317, 10.20592
776.4138, 9.969498
776.8959, 4.059326
777.3781, 0.3677900
777.8602, 2.214790
778.3423, 6.455162
778.8244, 7.862251
779.3065, 7.002281
779.7886, 6.513161
780.2708, 7.508369
780.7529, 8.700943
781.2350, 10.02209
781.7171, 11.32649
782.1992, 10.93940
782.6813, 8.377472
783.1635, 6.039268
783.6456, 5.197327
784.1277, 5.510468
784.6098, 6.626335
785.0919, 8.312370
785.5740, 8.391144
786.0562, 3.317734
786.5383, 2.395164
787.0204, 4.825554
787.5025, 3.755058
787.9846, 2.109207
788.4667, 1.090515
788.9489, 3.017647
789.4310, 1.627327
789.9131, 3.459427
790.3952, 3.596565
790.8773, 2.460052
791.3594, 7.638954
791.8416, 5.236946
792.3237, 1.961952
792.8058, 6.912239
793.2879, 9.299355
793.7700, 9.949814
794.2521, 7.934074
794.7343, 5.448303
795.2164, 4.649559
795.6985, 6.452034
796.1806, 6.717667
796.6627, 4.046379
797.1448, 0.8733060
797.6270, 1.549957
798.1091, 3.487366
798.5912, 2.889526
799.0733, 0.8207860
799.5554, 4.106140
800.0375, 1.934570
800.5197, 2.676117
801.0018, 3.089081
801.4839, 2.197998
801.9660, 6.164139
802.4481, 3.368515
802.9302, 1.855698
803.4124, 6.081909
803.8945, 9.460907
804.3766, 10.13890
804.8587, 6.240891
805.3408, 2.092087
805.8229, 1.940826
806.3051, 5.781342
806.7872, 10.04013
807.2693, 14.78389
807.7514, 17.68179
808.2335, 14.09894
808.7156, 7.939224
809.1978, 5.593460
809.6799, 9.711121
810.1620, 13.20358
810.6441, 11.54774
811.1262, 8.779297
811.6083, 9.128983
812.0905, 15.53992
812.5726, 18.17686
813.0547, 15.65945
813.5368, 11.60278
814.0189, 10.19234
814.5010, 11.04735
814.9832, 12.14949
815.4653, 13.35744
815.9474, 13.89833
816.4295, 13.23894
816.9116, 11.35846
817.3937, 7.924789
817.8759, 0.9182590
818.3580, 3.557083
818.8401, 1.079041
819.3222, 2.305984
819.8043, 0.1528320
820.2864, 10.90619
820.7686, 14.60295
821.2507, 8.334167
821.7328, 0.4128110
822.2149, 0.9648440
822.6970, 3.686493
823.1791, 5.725235
823.6613, 2.727493
824.1434, 1.072601
824.6255, 3.595291
825.1076, 4.958878
825.5897, 5.259018
826.0718, 2.377304
826.5540, 1.787750
827.0361, 4.639542
827.5182, 8.414307
828.0003, 10.44476
828.4824, 10.71423
828.9645, 8.967743
829.4467, 4.683197
829.9288, 0.3306580
830.4109, 1.514526
830.8930, 1.404892
831.3751, 0.1970830
831.8572, 2.020874
832.3394, 4.664871
832.8215, 9.641663
833.3036, 14.21030
833.7857, 14.73482
834.2678, 8.842682
834.7499, 4.937912
835.2321, 3.492920
835.7142, 4.330261
836.1963, 7.478714
836.6784, 12.31178
837.1605, 16.47095
837.6426, 19.03029
838.1248, 22.97664
838.6069, 32.80609
839.0890, 44.20279
839.5711, 52.28114
840.0532, 55.02185
840.5353, 55.91144
841.0175, 52.95496
841.4996, 50.61908
841.9817, 54.26459
842.4638, 64.20314
842.9459, 72.04556
843.4280, 76.45175
843.9102, 81.52365
844.3923, 93.40421
844.8744, 108.3984
845.3565, 120.1874
845.8386, 126.9326
846.3207, 133.0865
846.8029, 137.8639
847.2850, 144.1820
847.7671, 155.0633
848.2492, 174.9331
848.7313, 187.7807
849.2134, 190.6059
849.6956, 192.6812
850.1777, 204.1862
850.6598, 222.5270
851.1419, 239.3296
851.6240, 253.8154
852.1061, 266.3133
852.5883, 276.0537
853.0704, 284.5376
853.5525, 293.4827
854.0346, 304.0602
854.5167, 312.6050
854.9988, 320.4338
855.4810, 324.3613
855.9631, 320.2988
856.4452, 308.0316
856.9273, 301.4437
857.4094, 301.3018
857.8915, 300.3531
858.3737, 291.8189
858.8558, 278.5508
859.3379, 262.9947
859.8200, 245.2436
860.3021, 229.8920
860.7842, 222.5323
861.2664, 214.6345
861.7485, 200.1643
862.2306, 177.4629
862.7127, 165.1178
863.1948, 164.8068
863.6769, 167.0487
864.1591, 166.0849
864.6412, 162.4102
865.1233, 156.6972
865.6054, 149.0699
866.0875, 141.2123
866.5696, 132.2952
867.0518, 124.9036
867.5339, 121.1803
868.0160, 121.4357
868.4981, 121.3312
868.9802, 120.7373
869.4623, 119.9901
869.9445, 119.0229
870.4266, 118.0465
870.9087, 117.7935
871.3908, 118.3262
871.8729, 120.2121
872.3550, 123.5213
872.8372, 128.5579
873.3193, 137.1434
873.8014, 148.3260
874.2835, 156.5114
874.7656, 157.2670
875.2477, 158.4632
875.7299, 160.9201
876.2120, 165.4313
876.6941, 177.6141
877.1762, 197.3438
877.6583, 214.9213
878.1404, 225.0750
878.6226, 231.1582
879.1047, 234.5983
879.5869, 237.7265
880.0690, 246.5122
880.5511, 269.3766
881.0332, 291.1064
881.5153, 307.6905
881.9974, 320.2895
882.4796, 330.2966
882.9617, 336.5423
883.4438, 347.1251
883.9259, 364.5136
884.4080, 385.6620
884.8901, 406.4366
885.3723, 427.0715
885.8544, 448.4299
886.3365, 472.6565
886.8186, 494.2871
887.3007, 509.8779
887.7828, 521.5505
888.2650, 531.9882
888.7471, 539.6945
889.2292, 550.3741
889.7113, 565.0306
890.1934, 581.5787
890.6755, 598.7887
891.1577, 615.7934
891.6398, 628.8973
892.1219, 635.7099
892.6040, 646.9061
893.0861, 673.4935
893.5682, 705.6796
894.0504, 733.6494
894.5325, 751.2351
895.0146, 777.0853
895.4967, 812.4929
895.9788, 853.6343
896.4609, 896.5516
896.9431, 941.8978
897.4252, 991.3449
897.9073, 1044.989
898.3894, 1108.441
898.8715, 1192.412
899.3536, 1284.678
899.8358, 1374.866
900.3179, 1460.454
900.8000, 1556.269
901.2821, 1665.003
901.7642, 1780.112
902.2463, 1899.751
902.7285, 2022.713
903.2106, 2155.945
903.6927, 2298.928
904.1748, 2449.173
904.6569, 2616.624
905.1390, 2783.896
905.6212, 2929.958
906.1033, 3058.532
906.5854, 3195.422
907.0675, 3372.564
907.5496, 3525.975
908.0317, 3635.762
908.5139, 3713.179
908.9960, 3801.818
909.4781, 3901.460
909.9602, 3962.638
910.4423, 3964.730
910.9244, 3924.358
911.4066, 3849.243
911.8887, 3748.510
912.3708, 3637.604
912.8529, 3536.331
913.3350, 3405.613
913.8171, 3226.041
914.2993, 3025.219
914.7814, 2840.312
915.2635, 2672.857
915.7456, 2498.965
916.2277, 2313.005
916.7098, 2129.179
917.1920, 1962.426
917.6741, 1811.067
918.1562, 1673.595
918.6383, 1551.385
919.1204, 1441.462
919.6025, 1351.944
920.0847, 1267.814
920.5668, 1178.246
921.0489, 1080.796
921.5310, 992.3214
922.0131, 913.0202
922.4952, 843.4396
922.9774, 789.2020
923.4595, 743.2007
923.9416, 693.7265
924.4237, 640.7188
924.9058, 592.5540
925.3879, 553.4133
925.8701, 518.6153
926.3522, 485.4983
926.8343, 454.3004
927.3164, 428.7823
927.7985, 409.6428
928.2806, 388.6858
928.7628, 360.5167
929.2449, 330.1709
929.7270, 305.6568
930.2091, 285.3921
930.6912, 264.3574
931.1733, 237.1318
931.6555, 213.3391
932.1376, 196.7551
932.6197, 185.1268
933.1018, 175.8709
933.5839, 169.4928
934.0660, 160.8143
934.5482, 147.9959
935.0303, 135.1015
935.5124, 128.5272
935.9945, 125.1991
936.4766, 119.6412
936.9587, 109.8418
937.4409, 99.50754
937.9230, 88.20258
938.4051, 77.97499
938.8872, 71.02043
939.3693, 68.30769
939.8514, 61.91730
940.3336, 51.20392
940.8157, 41.95528
941.2978, 40.55864
941.7799, 42.82854
942.2620, 42.71478
942.7441, 39.94641
943.2263, 37.09396
943.7084, 35.44357
944.1905, 33.65979
944.6726, 31.11261
945.1547, 27.96437
945.6368, 25.38072
946.1190, 23.39342
946.6011, 20.92615
947.0832, 16.67444
947.5653, 12.57967
948.0474, 11.56895
948.5295, 12.68892
949.0117, 13.72194
949.4938, 15.15039
949.9759, 14.66786
950.4580, 10.58939
950.9401, 5.424164
951.4222, 3.349716
951.9044, 4.419159
952.3865, 4.500168
952.8686, 2.783310
953.3507, 0.6943660
953.8328, 0.3700410
954.3149, 0.8434450
954.7971, 1.366730
955.2792, 2.262405
955.7613, 2.259583
956.2434, 4.3945000E-02
956.7255, 1.795197
957.2076, 0.4919740
957.6898, 3.694077
958.1719, 3.634689
958.6540, 0.5979460
959.1361, 4.317810
959.6182, 3.965652
960.1003, 1.912338
960.5825, 0.1537780
961.0646, 2.076523
961.5467, 3.548691
962.0288, 6.062622
962.5109, 5.370377
962.9930, 1.265381
963.4752, 10.24022
963.9573, 11.25263
964.4394, 5.658463
964.9215, 2.126389
965.4036, 4.864990
965.8857, 7.802216
966.3679, 4.145676
966.8500, 1.452881
967.3321, 2.723740
967.8142, 5.451172
968.2963, 10.06552
968.7784, 10.14417
969.2606, 8.456436
969.7427, 6.899536
970.2248, 5.883148
970.7069, 8.136093
971.1890, 13.78497
971.6711, 16.95410
972.1533, 10.24858
972.6354, 2.678635
973.1175, 1.283569
973.5996, 6.083298
974.0817, 7.429031
974.5638, 4.327347
975.0460, 1.225571
975.5281, 0.3613430
976.0102, 0.5044400
976.4923, 1.568817
976.9744, 4.999847
977.4565, 7.263992
977.9387, 6.486786
978.4208, 5.260284
978.9029, 5.128342
979.3850, 4.728439
979.8671, 1.881561
980.3492, 3.937073
980.8314, 9.519211
981.3135, 14.95816
981.7956, 18.17987
982.2777, 15.47980
982.7598, 9.826538
983.2419, 5.133453
983.7241, 1.922882
984.2062, 0.1936040
984.6883, 1.050293
985.1704, 2.347427
985.6525, 3.357895
986.1346, 4.041489
986.6168, 3.769119
987.0989, 2.570099
987.5810, 1.369354
988.0631, 0.2088010
988.5452, 0.2985080
989.0273, 1.310745
989.5095, 4.007294
989.9916, 5.100967
990.4737, 2.839035
990.9558, 0.9120940
991.4379, 9.5210001E-03
991.9200, 0.7579350
992.4022, 2.939392
992.8843, 6.133606
993.3664, 8.727020
993.8485, 10.48460
994.3306, 11.09457
994.8127, 8.187363
995.2949, 5.497238
995.7770, 7.141663
996.2591, 14.23781
996.7412, 17.76830
997.2233, 16.71881
997.7054, 15.72705
998.1876, 19.23505
998.6697, 24.10892
999.1518, 21.50545
999.6339, 13.58018
1000.116, 8.909561
1000.598, 14.57973
1001.080, 20.37152
1001.562, 22.15991
1002.044, 22.13335
1002.527, 24.71141
1003.009, 30.18567
1003.491, 33.52155
1003.973, 33.37901
1004.455, 32.51956
1004.937, 33.75212
1005.419, 36.18610
1005.901, 38.58990
1006.384, 40.45175
1006.866, 43.68860
1007.348, 49.65030
1007.830, 55.16595
1008.312, 57.86571
1008.794, 58.49046
1009.276, 62.99651
1009.758, 70.57010
1010.240, 74.66446
1010.723, 65.97058
1011.205, 57.96533
1011.687, 60.71130
1012.169, 70.62114
1012.651, 77.30313
1013.133, 79.17888
1013.615, 82.06694
1014.097, 87.35733
1014.580, 92.65411
1015.062, 93.79350
1015.544, 92.63432
1016.026, 92.65457
1016.508, 94.37404
1016.990, 98.51968
1017.472, 107.1561
1017.954, 116.8084
1018.436, 125.7276
1018.919, 133.8113
1019.401, 140.9855
1019.883, 147.1879
1020.365, 153.0368
1020.847, 158.3969
1021.329, 163.9786
1021.811, 170.1287
1022.293, 177.2214
1022.776, 186.3426
1023.258, 198.5239
1023.740, 211.5025
1024.222, 225.3773
1024.704, 239.4828
1025.186, 252.6092
1025.668, 265.3300
1026.150, 278.8035
1026.632, 293.4258
1027.115, 307.2541
1027.597, 316.9024
1028.079, 327.2391
1028.561, 343.2147
1029.043, 364.3745
1029.525, 379.2227
1030.007, 387.0518
1030.489, 392.5867
1030.972, 398.3581
1031.454, 402.5352
1031.936, 402.4974
1032.418, 398.9469
1032.900, 393.4201
1033.382, 383.5172
1033.864, 375.9083
1034.346, 373.6035
1034.828, 370.7474
1035.311, 360.5392
1035.793, 343.7593
1036.275, 325.2088
1036.757, 305.1147
1037.239, 286.5087
1037.721, 271.9403
1038.203, 258.8855
1038.685, 246.8760
1039.167, 235.5221
1039.650, 221.7867
1040.132, 205.6979
1040.614, 189.1092
1041.096, 171.8503
1041.578, 155.9910
1042.060, 146.4621
1042.542, 140.6010
1043.024, 133.3852
1043.507, 121.6872
1043.989, 112.2849
1044.471, 108.2505
1044.953, 104.8034
1045.435, 97.53579
1045.917, 86.86369
1046.399, 78.07702
1046.881, 71.14581
1047.364, 64.78430
1047.846, 58.44173
1048.328, 52.47447
1048.810, 46.43443
1049.292, 40.81790
1049.774, 37.44159
1050.256, 36.62650
1050.738, 37.63509
1051.220, 41.05292
1051.703, 44.03256
1052.185, 40.75896
1052.667, 34.74979
1053.149, 32.73008
1053.631, 37.59907
1054.113, 39.44403
1054.595, 33.28798
1055.077, 26.10944
1055.559, 21.35881
1056.042, 18.97684
1056.524, 18.12904
1057.006, 18.64043
1057.488, 19.09232
1057.970, 18.48291
1058.452, 17.80050
1058.934, 17.85732
1059.416, 18.18143
1059.899, 17.85942
1060.381, 16.65736
1060.863, 15.67451
1061.345, 15.11043
1061.827, 14.46242
1062.309, 12.87663
1062.791, 11.14908
1063.273, 10.63350
1063.755, 11.36996
1064.238, 11.75632
1064.720, 10.67978
1065.202, 10.22993
1065.684, 11.55744
1066.166, 13.62126
1066.648, 12.23808
1067.130, 8.266022
1067.612, 6.822792
1068.094, 10.78182
1068.577, 14.67712
1069.059, 14.86083
1069.541, 13.61839
1070.023, 13.48119
1070.505, 15.06316
1070.987, 13.91446
1071.469, 9.720932
1071.951, 5.801010
1072.434, 4.280968
1072.916, 4.328026
1073.398, 5.385063
1073.880, 7.242088
1074.362, 9.199852
1074.844, 11.59915
1075.326, 13.34190
1075.808, 14.42827
1076.291, 14.62108
1076.773, 12.80107
1077.255, 9.894775
1077.737, 8.973206
1078.219, 10.59193
1078.701, 11.64133
1079.183, 9.653915
1079.665, 7.611061
1080.147, 7.220825
1080.630, 8.085876
1081.112, 7.676903
1081.594, 6.045670
1082.076, 4.655159
1082.558, 4.263992
1083.040, 3.912140
1083.522, 1.873413
1084.004, 0.2460560
1084.486, 6.9168001E-02
1084.969, 3.832939
1085.451, 6.357841
1085.933, 7.165466
1086.415, 7.841835
1086.897, 10.39727
1087.379, 13.14587
1087.861, 12.29510
1088.343, 8.800270
1088.826, 6.919312
1089.308, 11.07433
1089.790, 12.94511
1090.272, 10.22957
1090.754, 5.624252
1091.236, 2.963333
1091.718, 2.082359
1092.200, 2.645599
1092.682, 4.738495
1093.165, 6.301315
1093.647, 5.800789
1094.129, 4.550987
1094.611, 3.273453
1095.093, 1.992882
1095.575, 0.6111220
1096.057, 0.8922730
1096.539, 1.980316
1097.022, 2.474777
1097.504, 2.384827
1097.986, 1.325279
1098.468, 0.1557920
1098.950, 1.285233
1099.432, 1.817841
1099.914, 2.474396
1100.396, 3.475853
1100.879, 3.860893
1101.361, 2.278175
1101.843, 0.1027600
1102.325, 1.014114
1102.807, 0.7039340
1103.289, 0.1707150
1103.771, 0.3640900
1104.253, 0.8420100
1104.735, 0.9442370
1105.218, 1.379913
1105.700, 3.987686
1106.182, 7.959656
1106.664, 8.748810
1107.146, 5.814354
1107.628, 3.254341
1108.110, 4.520256
1108.592, 5.893066
1109.074, 4.684525
1109.557, 1.868385
1110.039, 2.240463
1110.521, 5.872414
1111.003, 6.537880
1111.485, 1.156227
1111.967, 3.884155
1112.449, 0.9528960
1112.931, 4.767937
1113.414, 7.511436
1113.896, 6.019081
1114.378, 4.894951
1114.860, 4.106293
1115.342, 3.841988
1115.824, 4.435699
1116.306, 5.425941
1116.788, 6.794693
1117.271, 7.898308
1117.753, 7.305145
1118.235, 1.950584
1118.717, 1.106316
1119.199, 0.7897420
1119.681, 0.6151890
1120.163, 0.6549450
1120.645, 7.6219998E-03
1121.127, 1.160286
1121.609, 3.958725
1122.092, 5.474510
1122.574, 2.964600
1123.056, 0.3839950
1123.538, 1.577812
1124.020, 2.365364
1124.502, 0.1702420
1124.984, 5.425873
1125.466, 7.798325
1125.949, 5.938683
1126.431, 4.093620
1126.913, 5.973976
1127.395, 8.335625
1127.877, 8.880112
1128.359, 7.743340
1128.841, 5.519836
1129.323, 2.055016
1129.806, 0.3976360
1130.288, 2.402504
1130.770, 5.072739
1131.252, 5.066994
1131.734, 4.036453
1132.216, 4.260658
1132.698, 6.611778
1133.180, 7.931007
1133.662, 8.143944
1134.145, 7.589104
1134.627, 5.727989
1135.109, 3.727867
1135.591, 3.492180
1136.073, 4.622925
1136.555, 6.117348
1137.037, 9.029388
1137.519, 10.08455
1138.001, 8.570152
1138.484, 6.301041
1138.966, 4.952713
1139.448, 4.349831
1139.930, 4.432953
1140.412, 5.069534
1140.894, 5.175690
1141.376, 2.695496
1141.858, 1.804329
1142.341, 4.862213
1142.823, 8.977982
1143.305, 7.151451
1143.787, 1.192383
1144.269, 0.2231750
1144.751, 6.310852
1145.233, 11.19511
1145.715, 8.005653
1146.198, 4.538361
1146.680, 5.551361
1147.162, 9.822319
1147.644, 11.15417
1148.126, 9.798935
1148.608, 9.194160
1149.090, 10.77831
1149.572, 12.44783
1150.054, 12.13012
1150.536, 11.53566
1151.019, 12.68539
1151.501, 15.87699
1151.983, 16.31926
1152.465, 13.90830
1152.947, 11.39196
1153.429, 10.09298
1153.911, 9.462669
1154.393, 8.411629
1154.876, 7.966530
1155.358, 10.52943
1155.840, 18.86470
1156.322, 21.42778
1156.804, 17.07787
1157.286, 12.20148
1157.768, 12.64187
1158.250, 14.69434
1158.733, 12.33010
1159.215, 7.463997
1159.697, 7.926506
1160.179, 19.41496
1160.661, 25.76343
1161.143, 24.01310
1161.625, 19.89041
1162.107, 20.12981
1162.589, 22.46288
1163.072, 22.92529
1163.554, 21.36182
1164.036, 20.49625
1164.518, 22.22025
1165.000, 22.43071
1165.482, 19.55038
1165.964, 15.64924
1166.446, 13.76846
1166.928, 13.89673
1167.411, 16.56401
1167.893, 22.36117
1168.375, 27.34941
1168.857, 31.94321
1169.339, 32.88887
1169.821, 26.80388
1170.303, 17.74435
1170.785, 16.97166
1171.268, 22.16749
1171.750, 26.04840
1172.232, 26.18095
1172.714, 25.07815
1173.196, 22.64726
1173.678, 20.32133
1174.160, 19.08752
1174.642, 18.45903
1175.125, 19.30148
1175.607, 21.07806
1176.089, 20.49126
1176.571, 12.39323
1177.053, 6.460747
1177.535, 9.565727
1178.017, 14.43957
1178.499, 13.99538
1178.981, 8.367996
1179.464, 7.863358
1179.946, 12.28393
1180.428, 16.67848
1180.910, 18.92363
1181.392, 19.14874
1181.874, 16.56686
1182.356, 12.69612
1182.838, 8.727348
1183.320, 4.479797
1183.803, 4.824471
1184.285, 10.29459
1184.767, 14.89642
1185.249, 13.07511
1185.731, 9.850075
1186.213, 8.423317
1186.695, 8.378754
1187.177, 8.152176
1187.660, 7.677704
1188.142, 8.352348
1188.624, 10.53539
1189.106, 12.64589
1189.588, 13.26766
1190.070, 13.26096
1190.552, 13.58075
1191.034, 14.00986
1191.516, 12.28973
1191.999, 7.927818
1192.481, 6.623322
1192.963, 10.62663
1193.445, 14.92062
1193.927, 13.50551
1194.409, 10.51856
1194.891, 10.77245
1195.373, 14.66404
1195.855, 14.82272
1196.338, 10.63380
1196.820, 8.355072
1197.302, 11.75623
1197.784, 15.32122
1198.266, 11.90633
1198.748, 5.647827
1199.230, 1.593994
1199.712, 0.4187550
1200.195, 0.9598770
1200.677, 3.433723
1201.159, 6.029160
1201.641, 7.756798
1202.123, 9.085052
1202.605, 11.06382
1203.087, 12.80833
1203.569, 12.82797
1204.052, 10.43887
1204.534, 7.906357
1205.016, 5.063324
1205.498, 2.935669
1205.980, 2.439476
1206.462, 2.841637
1206.944, 2.756149
1207.426, 2.990471
1207.908, 5.947777
1208.391, 14.50168
1208.873, 17.39452
1209.355, 13.37172
1209.837, 8.051125
1210.319, 5.919388
1210.801, 5.340729
1211.283, 4.514198
1211.765, 3.672142
1212.247, 4.170258
1212.730, 7.385422
1213.212, 7.360413
1213.694, 2.878258
1214.176, 2.004951
1214.658, 3.865120
1215.140, 3.674179
1215.622, 1.939110
1216.104, 0.9791110
1216.587, 3.387321
1217.069, 5.334686
1217.551, 6.171883
1218.033, 5.624298
1218.515, 4.681183
1218.997, 4.481575
1219.479, 4.468872
1219.961, 3.606522
1220.443, 2.029816
1220.926, 2.445724
1221.408, 5.765938
1221.890, 7.615891
1222.372, 6.764763
1222.854, 4.872101
1223.336, 3.390282
1223.818, 2.320145
1224.300, 1.745369
1224.782, 1.703079
1225.265, 1.592690
1225.747, 1.296646
1226.229, 1.521133
1226.711, 2.597046
1227.193, 3.963058
1227.675, 5.289406
1228.157, 6.314377
1228.639, 6.659714
1229.122, 6.238770
1229.604, 5.749512
1230.086, 5.326385
1230.568, 3.635956
1231.050, 0.9700390
1231.532, 4.665161
1232.014, 1.112480
1232.496, 4.850723
1232.979, 7.059143
1233.461, 4.675880
1233.943, 1.649803
1234.425, 2.360596
1234.907, 3.048370
1235.389, 3.203735
1235.871, 10.63975
1236.353, 14.50419
1236.835, 15.80114
1237.318, 15.63568
1237.800, 14.16620
1238.282, 10.89287
1238.764, 5.649467
1239.246, 2.607155
1239.728, 6.072159
1240.210, 10.23582
1240.692, 9.396828
1241.175, 6.715889
1241.657, 6.591988
1242.139, 9.581093
1242.621, 12.57330
1243.103, 15.61034
1243.585, 16.58640
1244.067, 11.78775
1244.549, 7.157326
1245.031, 7.228813
1245.514, 9.688705
1245.996, 11.31165
1246.478, 12.11038
1246.960, 11.76300
1247.442, 10.33575
1247.924, 9.158012
1248.406, 9.130051
1248.888, 9.585312
1249.370, 10.91307
1249.853, 12.02955
1250.335, 10.96659
1250.817, 7.871475
1251.299, 7.895416
1251.781, 10.97264
1252.263, 12.81608
1252.745, 8.479637
1253.227, 5.062294
1253.710, 6.628792
1254.192, 10.08536
1254.674, 11.32092
1255.156, 10.83952
1255.638, 13.17404
1256.120, 18.18588
1256.602, 21.07996
1257.084, 16.40326
1257.567, 12.82584
1258.049, 13.82068
1258.531, 16.33722
1259.013, 15.92578
1259.495, 13.44328
1259.977, 11.61371
1260.459, 10.99520
1260.941, 10.98019
1261.423, 11.20193
1261.906, 10.95802
1262.388, 9.570595
1262.870, 8.525406
1263.352, 11.24944
1263.834, 15.58502
1264.316, 15.72707
1264.798, 11.59048
1265.280, 8.970192
1265.762, 10.59479
1266.245, 12.35839
1266.727, 13.64722
1267.209, 14.58931
1267.691, 15.25211
1268.173, 15.68742
1268.655, 15.88215
1269.137, 16.68644
1269.619, 16.53522
1270.102, 14.22850
1270.584, 13.44211
1271.066, 14.66785
1271.548, 15.99165
1272.030, 14.29840
1272.512, 11.79089
1272.994, 11.37348
1273.476, 13.10805
1273.958, 13.73622
1274.441, 12.98486
1274.923, 11.81266
1275.405, 10.16190
1275.887, 9.403175
1276.369, 11.73459
1276.851, 15.04622
1277.333, 17.86937
1277.815, 19.86420
1278.297, 19.68884
1278.780, 17.26697
1279.262, 13.97246
1279.744, 9.823112
1280.226, 6.877953
1280.708, 7.264404
1281.190, 9.109619
1281.672, 11.71889
1282.154, 14.50180
1282.637, 15.31981
1283.119, 14.31053
1283.601, 12.51720
1284.083, 10.01324
1284.565, 7.771111
1285.047, 6.284943
1285.529, 5.380638
1286.011, 5.117233
1286.494, 5.179337
1286.976, 4.372459
1287.458, 3.145836
1287.940, 3.039001
1288.422, 4.390816
1288.904, 6.562218
1289.386, 11.13356
1289.868, 13.96177
1290.350, 13.52843
1290.833, 10.75986
1291.315, 6.055054
1291.797, 0.8527370
1292.279, 1.811737
1292.761, 1.131096
1293.243, 7.8812003E-02
1293.725, 1.230324
1294.207, 1.933525
1294.689, 1.376770
1295.172, 0.9748310
1295.654, 3.642944
1296.136, 7.265816
1296.618, 8.887329
1297.100, 7.868851
1297.582, 7.203865
1298.064, 6.802933
1298.546, 7.712013
1299.029, 9.557411
1299.511, 11.61326
1299.993, 6.278046
1300.475, 0.1133500
1300.957, 1.013901
1301.439, 7.657623
1301.921, 10.81452
1302.403, 10.81931
1302.885, 9.647110
1303.368, 7.767365
1303.850, 5.639282
1304.332, 1.588211
1304.814, 0.0000000E+00
##END=



