##NAMES=Alstonite
##RRUFFID=R090049
##IDEAL CHEMISTRY=BaCa(CO_3_)_2_
##LOCALITY=Admiralty flats, Haggs mine, Nentsberry, Cumbria, England
##OWNER=RRUFF
##SOURCE=Bob Jenkins
##DESCRIPTION=Clusters of colorless pyramidal crystals. We have posted cell parameters that match those in the literature, but do not represent the correct cell. The crystals are twinned.
##STATUS=The identification of this mineral is confirmed by single-crystal X-ray diffraction and chemical analysis.
##URL=rruff.info/R090049
##MEASURED CHEMISTRY=Ba_0.99_(Ca_0.99_Sr_0.05_)_Î£=1.04_(CO_3_)_2_
122.5655, 0.0000000E+00
123.0476, 12.75464
123.5298, 6.871094
124.0119, 2.589355
124.4940, 17.95862
124.9761, 48.41919
125.4582, 86.07629
125.9404, 126.9398
126.4225, 164.9735
126.9046, 193.8994
127.3867, 218.0310
127.8688, 243.1602
128.3509, 268.4022
128.8331, 297.2836
129.3152, 331.6576
129.7973, 372.2189
130.2794, 421.8103
130.7615, 479.9948
131.2436, 547.7440
131.7258, 628.6573
132.2079, 723.5623
132.6900, 828.9679
133.1721, 940.7222
133.6542, 1058.231
134.1364, 1181.280
134.6185, 1311.590
135.1006, 1449.593
135.5827, 1589.818
136.0648, 1732.806
136.5469, 1878.125
137.0291, 2026.799
137.5112, 2179.276
137.9933, 2328.720
138.4754, 2474.506
138.9575, 2616.636
139.4396, 2747.400
139.9218, 2866.509
140.4039, 2972.888
140.8860, 3058.550
141.3681, 3121.824
141.8502, 3165.988
142.3323, 3190.904
142.8145, 3193.178
143.2966, 3185.703
143.7787, 3168.079
144.2608, 3140.333
144.7429, 3114.145
145.2250, 3089.317
145.7072, 3065.896
146.1893, 3044.046
146.6714, 3025.635
147.1535, 3006.629
147.6356, 2988.412
148.1178, 2972.776
148.5999, 2946.848
149.0820, 2917.816
149.5641, 2875.078
150.0462, 2806.344
150.5283, 2695.026
151.0105, 2575.208
151.4926, 2413.280
151.9747, 2244.550
152.4568, 2085.198
152.9389, 1934.164
153.4210, 1793.947
153.9032, 1665.556
154.3853, 1548.151
154.8674, 1445.237
155.3495, 1358.593
155.8316, 1288.750
156.3137, 1230.221
156.7959, 1182.999
157.2780, 1145.886
157.7601, 1117.002
158.2422, 1097.064
158.7243, 1083.621
159.2065, 1075.128
159.6886, 1071.039
160.1707, 1072.014
160.6528, 1078.889
161.1349, 1090.884
161.6170, 1106.104
162.0992, 1125.612
162.5813, 1146.990
163.0634, 1168.655
163.5455, 1190.041
164.0276, 1211.915
164.5097, 1235.885
164.9919, 1261.065
165.4740, 1283.981
165.9561, 1301.558
166.4382, 1316.751
166.9203, 1332.402
167.4024, 1349.883
167.8846, 1367.472
168.3667, 1384.207
168.8488, 1400.193
169.3309, 1416.051
169.8130, 1438.927
170.2952, 1462.685
170.7773, 1477.462
171.2594, 1480.630
171.7415, 1472.934
172.2236, 1453.820
172.7057, 1422.881
173.1879, 1381.465
173.6700, 1324.053
174.1521, 1255.594
174.6342, 1184.745
175.1163, 1110.243
175.5984, 1035.010
176.0806, 962.0333
176.5627, 891.7949
177.0448, 829.1764
177.5269, 779.0615
178.0090, 739.3828
178.4911, 703.7720
178.9733, 669.7959
179.4554, 638.6660
179.9375, 612.0063
180.4196, 585.3733
180.9017, 562.5415
181.3838, 544.3289
181.8660, 529.8556
182.3481, 514.6936
182.8302, 496.5791
183.3123, 476.4962
183.7944, 456.5098
184.2766, 436.3608
184.7587, 416.9319
185.2408, 399.1805
185.7229, 383.0520
186.2050, 367.0854
186.6871, 348.8707
187.1693, 329.8373
187.6514, 316.9719
188.1335, 310.8444
188.6156, 308.7772
189.0977, 307.2646
189.5798, 306.3075
190.0620, 306.1331
190.5441, 306.7310
191.0262, 308.0981
191.5083, 310.4987
191.9904, 314.0493
192.4725, 318.2452
192.9547, 322.9832
193.4368, 328.3474
193.9189, 331.9232
194.4010, 332.3795
194.8831, 329.8060
195.3652, 325.7511
195.8474, 321.0234
196.3295, 313.7947
196.8116, 299.7731
197.2937, 278.6633
197.7758, 254.5869
198.2579, 229.5946
198.7401, 203.6613
199.2222, 177.0878
199.7043, 149.6906
200.1864, 122.7097
200.6685, 98.39978
201.1507, 76.93823
201.6328, 57.92395
202.1149, 40.65955
202.5970, 24.88098
203.0791, 13.54663
203.5612, 7.466187
204.0434, 5.505615
204.5255, 5.177246
205.0076, 6.562500
205.4897, 9.394775
205.9718, 13.41626
206.4539, 18.49060
206.9361, 24.99255
207.4182, 33.45203
207.9003, 43.37756
208.3824, 53.12036
208.8645, 62.80530
209.3466, 71.55774
209.8288, 79.34131
210.3109, 86.69434
210.7930, 91.20679
211.2751, 92.31934
211.7572, 90.39233
212.2393, 86.61023
212.7215, 80.90601
213.2036, 73.88843
213.6857, 65.82446
214.1678, 56.49512
214.6499, 46.64709
215.1320, 36.35669
215.6142, 25.45581
216.0963, 13.25574
216.5784, 1.102783
217.0605, 14.90503
217.5426, 26.38684
218.0247, 34.90613
218.5069, 42.52795
218.9890, 49.33740
219.4711, 55.36584
219.9532, 61.07166
220.4353, 66.98938
220.9175, 71.84888
221.3996, 74.74524
221.8817, 74.73560
222.3638, 75.15723
222.8459, 76.86609
223.3280, 79.32605
223.8102, 79.29553
224.2923, 76.07788
224.7744, 71.59473
225.2565, 67.15698
225.7386, 63.45459
226.2207, 58.14709
226.7029, 50.77368
227.1850, 41.59668
227.6671, 32.13025
228.1492, 22.54688
228.6313, 12.46802
229.1134, 1.592651
229.5956, 10.66174
230.0777, 22.45581
230.5598, 33.14966
231.0419, 43.24463
231.5240, 55.42358
232.0062, 70.45386
232.4883, 86.56372
232.9704, 102.8939
233.4525, 119.9421
233.9346, 136.0742
234.4167, 150.7018
234.8989, 164.2206
235.3810, 178.3420
235.8631, 192.8850
236.3452, 208.4359
236.8273, 225.6000
237.3094, 245.1749
237.7916, 264.5276
238.2737, 283.7448
238.7558, 302.7013
239.2379, 321.0721
239.7200, 338.0981
240.2021, 355.5402
240.6843, 374.7357
241.1664, 397.2738
241.6485, 418.0854
242.1306, 436.7471
242.6127, 453.6058
243.0948, 469.3561
243.5770, 483.8926
244.0591, 497.5806
244.5412, 510.9620
245.0233, 526.2667
245.5054, 536.5515
245.9876, 541.0814
246.4697, 540.5548
246.9518, 537.1959
247.4339, 531.6104
247.9160, 522.2441
248.3981, 508.3130
248.8803, 488.7311
249.3624, 466.8048
249.8445, 441.9353
250.3266, 414.8899
250.8087, 387.6710
251.2908, 360.7874
251.7730, 333.2533
252.2551, 304.6206
252.7372, 273.2397
253.2193, 244.3865
253.7014, 218.8478
254.1835, 195.7260
254.6657, 173.1060
255.1478, 149.9885
255.6299, 129.0812
256.1120, 111.4541
256.5941, 98.06299
257.0763, 85.31262
257.5584, 72.60681
258.0405, 60.75830
258.5226, 51.77649
259.0047, 46.42261
259.4868, 42.15649
259.9690, 37.98145
260.4511, 33.58667
260.9332, 30.80640
261.4153, 30.03296
261.8974, 30.45483
262.3795, 30.62463
262.8617, 30.02417
263.3438, 30.39062
263.8259, 32.72107
264.3080, 37.50012
264.7901, 40.49597
265.2722, 40.80957
265.7544, 40.39575
266.2365, 42.38000
266.7186, 47.66797
267.2007, 52.53088
267.6828, 55.40247
268.1649, 56.08801
268.6471, 58.72443
269.1292, 63.92645
269.6113, 70.13403
270.0934, 75.31366
270.5755, 79.13428
271.0576, 83.34277
271.5398, 88.48047
272.0219, 94.54932
272.5040, 100.7263
272.9861, 107.1481
273.4682, 113.2800
273.9503, 118.2188
274.4325, 121.4061
274.9146, 125.1853
275.3967, 130.5681
275.8788, 137.3091
276.3610, 142.4209
276.8431, 145.7657
277.3252, 147.9404
277.8073, 149.3578
278.2894, 150.0100
278.7715, 149.9021
279.2537, 148.8704
279.7358, 147.4798
280.2179, 147.8597
280.7000, 150.4507
281.1821, 152.2288
281.6642, 150.4875
282.1464, 145.4244
282.6285, 140.9382
283.1106, 137.6511
283.5927, 135.3489
284.0748, 133.6656
284.5569, 132.6957
285.0391, 132.5686
285.5212, 133.7333
286.0033, 136.0444
286.4854, 137.9327
286.9675, 139.3464
287.4496, 140.1586
287.9318, 139.1835
288.4139, 136.0518
288.8960, 133.4702
289.3781, 133.6525
289.8602, 135.9791
290.3423, 137.1885
290.8245, 136.8732
291.3066, 135.7671
291.7887, 135.4423
292.2708, 135.7283
292.7529, 134.8156
293.2350, 130.2404
293.7172, 123.5515
294.1993, 120.0568
294.6814, 120.3342
295.1635, 122.0693
295.6456, 122.7319
296.1277, 122.4594
296.6099, 121.8257
297.0920, 120.6592
297.5741, 119.4153
298.0562, 119.2248
298.5383, 120.1803
299.0204, 121.3054
299.5026, 122.0920
299.9847, 122.3456
300.4668, 121.4570
300.9489, 117.6956
301.4311, 113.4678
301.9132, 112.7081
302.3953, 115.2960
302.8774, 118.4520
303.3595, 120.3820
303.8416, 121.2905
304.3238, 121.4534
304.8059, 120.3013
305.2880, 119.1049
305.7701, 119.1810
306.2522, 120.4388
306.7343, 122.3325
307.2165, 124.6776
307.6986, 127.4288
308.1807, 130.4660
308.6628, 133.9996
309.1449, 137.4302
309.6270, 140.5172
310.1092, 143.2128
310.5913, 145.2748
311.0734, 145.7927
311.5555, 146.0121
312.0376, 147.2734
312.5197, 150.4411
313.0019, 152.9655
313.4840, 153.0303
313.9661, 151.4437
314.4482, 149.8679
314.9303, 148.9585
315.4124, 148.0538
315.8946, 146.9287
316.3767, 145.6796
316.8588, 143.7375
317.3409, 140.7384
317.8230, 136.9528
318.3051, 132.7340
318.7873, 128.0999
319.2694, 123.3160
319.7515, 118.5589
320.2336, 113.8231
320.7157, 108.7470
321.1978, 103.0448
321.6800, 97.26050
322.1621, 91.91510
322.6442, 87.40387
323.1263, 82.72864
323.6084, 77.26184
324.0905, 71.21008
324.5727, 66.33337
325.0548, 63.69073
325.5369, 61.68799
326.0190, 59.34839
326.5012, 56.87994
326.9833, 54.00250
327.4654, 50.29608
327.9475, 46.04156
328.4296, 42.52924
328.9117, 40.02295
329.3939, 38.01135
329.8760, 36.36865
330.3581, 35.52472
330.8402, 34.17761
331.3223, 31.92072
331.8044, 29.17511
332.2866, 26.88055
332.7687, 25.38403
333.2508, 23.84125
333.7329, 21.72955
334.2150, 18.63855
334.6971, 17.02448
335.1793, 18.00092
335.6614, 19.36487
336.1435, 17.89990
336.6256, 12.19653
337.1077, 7.369080
337.5898, 4.430176
338.0720, 3.386841
338.5541, 5.876770
339.0362, 13.70044
339.5183, 21.15594
340.0004, 22.26947
340.4825, 16.08276
340.9647, 10.44611
341.4468, 6.460205
341.9289, 4.054138
342.4110, 3.524353
342.8931, 5.201660
343.3752, 6.548950
343.8574, 5.005859
344.3395, 0.8267820
344.8216, 1.235107
345.3037, 0.3763430
345.7858, 2.055725
346.2679, 4.057373
346.7501, 5.628723
347.2322, 6.687561
347.7143, 7.422119
348.1964, 7.624573
348.6785, 6.291687
349.1607, 3.132996
349.6428, 0.1479490
350.1249, 1.672791
350.6070, 1.761108
351.0891, 1.435486
351.5713, 0.9018550
352.0534, 0.2817380
352.5355, 0.3585210
353.0176, 1.005920
353.4997, 1.382751
353.9818, 0.9739380
354.4640, 0.2236940
354.9461, 0.1569210
355.4282, 0.3044430
355.9103, 0.8773190
356.3924, 0.8646850
356.8745, 0.3939820
357.3567, 3.9000999E-02
357.8388, 0.1172490
358.3209, 5.3833000E-02
358.8030, 1.5747000E-02
359.2851, 0.1525270
359.7672, 6.0364000E-02
360.2494, 0.8447880
360.7315, 2.058228
361.2136, 2.640747
361.6957, 2.116943
362.1778, 0.9920650
362.6599, 1.058655
363.1421, 4.364197
363.6242, 5.963318
364.1063, 3.248169
364.5884, 0.9399410
365.0705, 3.675781
365.5526, 3.505249
366.0348, 2.753174
366.5169, 1.726440
366.9990, 0.4669190
367.4811, 0.6430660
367.9632, 1.268982
368.4453, 1.937012
368.9275, 2.966614
369.4096, 5.538879
369.8917, 6.829712
370.3738, 6.123230
370.8559, 4.125977
371.3380, 2.778198
371.8202, 2.076355
372.3023, 2.034790
372.7844, 2.989136
373.2665, 5.601318
373.7487, 6.383972
374.2308, 4.552979
374.7129, 1.699280
375.1950, 3.1189000E-02
375.6771, 0.3974000
376.1592, 0.5798950
376.6414, 0.9761350
377.1235, 1.475159
377.6056, 1.061890
378.0877, 0.4384160
378.5698, 1.967407
379.0519, 2.562195
379.5341, 2.233032
380.0162, 2.162231
380.4983, 2.690491
380.9804, 3.374451
381.4625, 2.750061
381.9446, 0.8442380
382.4268, 0.7231450
382.9089, 0.5856930
383.3910, 0.7034910
383.8731, 1.318848
384.3552, 1.044922
384.8373, 0.4120480
385.3195, 0.2954100
385.8016, 0.9121090
386.2837, 0.9418330
386.7658, 0.3930050
387.2479, 2.159119
387.7300, 3.160339
388.2122, 3.410095
388.6943, 3.437195
389.1764, 3.724365
389.6585, 3.980347
390.1406, 3.767822
390.6227, 2.503967
391.1049, 1.399780
391.5870, 1.286499
392.0691, 1.976807
392.5512, 2.943909
393.0333, 4.500671
393.5154, 5.909912
393.9976, 6.626404
394.4797, 6.363464
394.9618, 5.889771
395.4439, 5.002869
395.9260, 4.226379
396.4081, 4.269409
396.8903, 6.519531
397.3724, 8.458801
397.8545, 9.233398
398.3366, 8.742737
398.8188, 8.197754
399.3009, 7.763428
399.7830, 7.263550
400.2651, 6.571533
400.7472, 5.076904
401.2293, 4.386414
401.7115, 4.858459
402.1936, 6.077271
402.6757, 6.878845
403.1578, 7.116943
403.6399, 7.414978
404.1220, 8.130310
404.6042, 9.453918
405.0863, 9.974304
405.5684, 9.482483
406.0505, 8.489868
406.5326, 7.439880
407.0147, 6.218018
407.4969, 5.764648
407.9790, 6.801453
408.4611, 8.747314
408.9432, 8.688049
409.4253, 6.468872
409.9074, 4.380493
410.3896, 4.391113
410.8717, 6.082397
411.3538, 7.742493
411.8359, 9.100281
412.3180, 10.23700
412.8001, 11.42261
413.2823, 12.49561
413.7644, 12.75580
414.2465, 11.10767
414.7286, 8.751709
415.2107, 7.282837
415.6928, 6.802124
416.1750, 6.641235
416.6571, 6.291321
417.1392, 6.017883
417.6213, 6.097168
418.1034, 7.157715
418.5855, 7.885498
419.0677, 7.354370
419.5498, 5.880798
420.0319, 4.453003
420.5140, 2.735962
420.9961, 1.696838
421.4782, 2.243652
421.9604, 5.507263
422.4425, 7.696838
422.9246, 6.977051
423.4067, 4.921753
423.8889, 3.668579
424.3710, 4.438599
424.8531, 5.086426
425.3352, 4.951416
425.8173, 4.013916
426.2994, 3.707764
426.7816, 4.434937
427.2637, 5.392578
427.7458, 6.110840
428.2279, 6.696045
428.7100, 6.756470
429.1921, 6.016724
429.6743, 4.853760
430.1564, 4.380493
430.6385, 4.941040
431.1206, 4.999878
431.6027, 3.388550
432.0848, 0.2301030
432.5670, 0.5808110
433.0491, 1.476929
433.5312, 3.765015
434.0133, 2.928589
434.4954, 0.5024410
434.9775, 2.883789
435.4597, 3.026978
435.9418, 1.957031
436.4239, 1.597534
436.9060, 1.789063
437.3881, 1.466797
437.8702, 0.8262940
438.3524, 3.767700
438.8345, 5.268799
439.3166, 4.925171
439.7987, 4.290283
440.2808, 4.567261
440.7629, 5.371338
441.2451, 6.077148
441.7272, 6.391846
442.2093, 6.545166
442.6914, 6.900269
443.1735, 7.323486
443.6556, 6.966675
444.1378, 4.435791
444.6199, 1.815063
445.1020, 0.4410400
445.5841, 1.008911
446.0662, 1.862427
446.5483, 3.275513
447.0305, 4.767334
447.5126, 5.502686
447.9947, 4.412842
448.4768, 3.875488
448.9590, 4.965210
449.4411, 7.748535
449.9232, 8.099487
450.4053, 4.360596
450.8874, 0.5622560
451.3695, 2.4536001E-02
451.8517, 3.670898
452.3338, 6.457275
452.8159, 7.972046
453.2980, 8.325195
453.7801, 7.119019
454.2622, 4.208740
454.7444, 2.104004
455.2265, 2.193359
455.7086, 4.046143
456.1907, 6.303589
456.6728, 9.105591
457.1549, 10.93152
457.6371, 9.609131
458.1192, 6.291382
458.6013, 3.747925
459.0834, 2.778076
459.5655, 2.645630
460.0476, 2.734009
460.5298, 3.029175
461.0119, 3.478394
461.4940, 4.591797
461.9761, 5.509644
462.4582, 5.429199
462.9403, 4.227905
463.4225, 2.951416
463.9046, 1.908203
464.3867, 1.192993
464.8688, 0.9067380
465.3509, 1.463745
465.8330, 1.585449
466.3152, 0.8359380
466.7973, 0.4528810
467.2794, 1.393921
467.7615, 2.223389
468.2436, 2.405640
468.7257, 1.488403
469.2079, 0.9594730
469.6900, 2.241455
470.1721, 1.570557
470.6542, 0.5698240
471.1363, 1.231201
471.6184, 4.251709
472.1006, 6.131226
472.5827, 6.103882
473.0648, 4.641602
473.5469, 2.879761
474.0291, 0.7530520
474.5112, 0.8615720
474.9933, 1.306885
475.4754, 0.7818600
475.9575, 1.8798999E-02
476.4396, 1.023438
476.9218, 1.925781
477.4039, 2.893066
477.8860, 3.643677
478.3681, 3.375244
478.8502, 0.9687500
479.3323, 1.514648
479.8145, 2.140381
480.2966, 1.142334
480.7787, 0.6085210
481.2608, 3.644531
481.7429, 6.583008
482.2250, 8.545776
482.7072, 9.429443
483.1893, 9.325439
483.6714, 7.526367
484.1535, 5.081177
484.6356, 3.057007
485.1177, 1.570679
485.5999, 0.5850830
486.0820, 0.1031490
486.5641, 0.1365970
487.0462, 0.8304440
487.5283, 2.914917
488.0104, 4.709595
488.4926, 5.401978
488.9747, 4.698242
489.4568, 4.995361
489.9389, 6.858887
490.4210, 8.674194
490.9031, 8.296387
491.3853, 5.516479
491.8674, 3.533691
492.3495, 3.134521
492.8316, 3.615967
493.3137, 3.654907
493.7958, 3.331787
494.2780, 3.133423
494.7601, 3.113281
495.2422, 3.468628
495.7243, 4.887085
496.2064, 7.409180
496.6885, 9.648193
497.1707, 10.42126
497.6528, 10.29333
498.1349, 10.06641
498.6170, 10.22205
499.0992, 9.959595
499.5813, 8.234619
500.0634, 5.734131
500.5455, 4.135864
501.0276, 4.425903
501.5097, 5.333008
501.9919, 6.724487
502.4740, 8.813965
502.9561, 9.657593
503.4382, 7.702026
503.9203, 5.484253
504.4024, 4.808716
504.8846, 6.698975
505.3667, 8.047363
505.8488, 8.638672
506.3309, 8.610840
506.8130, 8.003052
507.2951, 6.523438
507.7773, 5.863647
508.2594, 7.384888
508.7415, 10.36255
509.2236, 10.12073
509.7057, 6.448853
510.1878, 2.615967
510.6700, 1.403076
511.1521, 2.188721
511.6342, 3.232300
512.1163, 4.351929
512.5984, 5.318481
513.0806, 5.608154
513.5627, 5.568970
514.0448, 5.934937
514.5269, 8.223633
515.0090, 10.03125
515.4911, 9.211670
515.9733, 6.142090
516.4554, 3.496582
516.9375, 2.261841
517.4196, 1.765137
517.9017, 1.666138
518.3839, 2.054565
518.8660, 2.498047
519.3481, 3.338257
519.8302, 4.025269
520.3123, 3.934204
520.7944, 2.777222
521.2766, 1.317017
521.7587, 0.8024900
522.2408, 3.056519
522.7229, 3.272827
523.2050, 1.022583
523.6871, 1.785889
524.1693, 4.836060
524.6514, 7.883911
525.1335, 8.117920
525.6156, 5.128418
526.0977, 2.105713
526.5798, 3.158813
527.0620, 6.935791
527.5441, 9.039551
528.0262, 7.952637
528.5083, 5.813721
528.9904, 4.529663
529.4725, 3.980225
529.9547, 3.920044
530.4368, 4.429443
530.9189, 5.205444
531.4010, 6.547729
531.8831, 8.388184
532.3652, 8.689941
532.8474, 4.720459
533.3295, 0.5727540
533.8116, 1.094360
534.2937, 2.129639
534.7758, 4.244507
535.2579, 4.333374
535.7401, 3.628906
536.2222, 3.967529
536.7043, 5.995972
537.1864, 7.524292
537.6685, 8.283691
538.1506, 8.371948
538.6328, 7.537231
539.1149, 5.556152
539.5970, 3.746948
540.0791, 2.836548
540.5612, 2.774292
541.0433, 3.507935
541.5255, 5.077637
542.0076, 6.945190
542.4897, 9.089966
542.9718, 11.07471
543.4539, 11.97327
543.9360, 11.07166
544.4182, 9.803711
544.9003, 9.171143
545.3824, 9.019775
545.8645, 8.981445
546.3466, 9.539185
546.8287, 9.603882
547.3109, 8.095459
547.7930, 4.981567
548.2751, 3.245728
548.7572, 4.131714
549.2393, 5.899536
549.7214, 7.710571
550.2036, 9.980713
550.6857, 11.32910
551.1678, 11.42114
551.6499, 10.96252
552.1320, 11.01929
552.6141, 11.75574
553.0963, 11.98083
553.5784, 11.24097
554.0605, 9.985352
554.5426, 9.239746
555.0247, 9.011108
555.5068, 9.374390
555.9890, 11.48401
556.4711, 13.92712
556.9532, 13.55249
557.4353, 10.23523
557.9174, 7.134521
558.3995, 6.578613
558.8817, 7.519287
559.3638, 9.176636
559.8459, 12.44702
560.3281, 14.19568
560.8102, 11.54187
561.2923, 6.918213
561.7744, 4.128784
562.2565, 5.952148
562.7386, 7.404541
563.2208, 7.036011
563.7029, 5.236572
564.1850, 4.857056
564.6671, 6.721436
565.1492, 8.561890
565.6313, 9.186523
566.1135, 8.479858
566.5956, 8.034424
567.0777, 7.881104
567.5598, 7.878906
568.0419, 7.966553
568.5240, 8.075439
569.0062, 8.063354
569.4883, 7.918091
569.9704, 7.534302
570.4525, 6.330078
570.9346, 4.716919
571.4167, 3.930786
571.8989, 5.221680
572.3810, 7.068848
572.8631, 8.910645
573.3452, 10.57068
573.8273, 11.17676
574.3094, 9.050781
574.7916, 6.821045
575.2737, 5.945923
575.7558, 6.949951
576.2379, 8.180298
576.7200, 10.39587
577.2021, 12.14124
577.6843, 11.67761
578.1664, 7.447021
578.6485, 5.938721
579.1306, 8.834106
579.6127, 13.50342
580.0948, 14.54199
580.5770, 12.06738
581.0591, 9.563110
581.5412, 8.043945
582.0233, 7.378174
582.5054, 7.826660
582.9875, 9.265991
583.4697, 10.72278
583.9518, 11.74878
584.4339, 12.31787
584.9160, 12.32532
585.3981, 11.73999
585.8802, 10.87378
586.3624, 9.680664
586.8445, 8.398804
587.3266, 7.325806
587.8087, 6.447632
588.2908, 5.790649
588.7729, 5.109375
589.2551, 4.685303
589.7372, 5.153320
590.2193, 7.248047
590.7014, 8.747192
591.1835, 8.875488
591.6656, 7.888916
592.1478, 7.591309
592.6299, 7.776733
593.1120, 8.113403
593.5941, 8.645996
594.0762, 9.296509
594.5583, 9.549561
595.0405, 9.330322
595.5226, 8.817871
596.0047, 8.014893
596.4868, 7.048340
596.9689, 5.986816
597.4510, 4.603516
597.9332, 3.816406
598.4153, 4.580322
598.8974, 6.192505
599.3795, 7.618896
599.8616, 9.180298
600.3438, 9.924927
600.8259, 9.040771
601.3080, 7.036987
601.7901, 5.897461
602.2722, 5.944458
602.7543, 6.350708
603.2365, 7.154175
603.7186, 8.297729
604.2007, 7.333496
604.6828, 3.726563
605.1649, 0.4595950
605.6470, 0.4516600
606.1292, 2.956665
606.6113, 4.941895
607.0934, 6.012207
607.5755, 6.644775
608.0576, 7.646606
608.5398, 8.463745
609.0219, 8.013794
609.5040, 4.679199
609.9861, 1.818726
610.4683, 2.026489
610.9504, 4.048462
611.4325, 5.163696
611.9146, 4.250122
612.3967, 2.819702
612.8788, 0.9055180
613.3610, 1.345703
613.8431, 2.414551
614.3252, 1.762817
614.8073, 0.7999270
615.2894, 0.3057860
615.7715, 0.3449710
616.2537, 0.4475100
616.7358, 2.272217
617.2179, 3.882080
617.7000, 3.416138
618.1821, 1.574463
618.6642, 0.9991460
619.1464, 2.345825
619.6285, 4.170654
620.1106, 5.260864
620.5927, 5.759399
621.0748, 5.923218
621.5569, 5.772095
622.0391, 5.390381
622.5212, 4.484009
623.0033, 3.349609
623.4854, 2.883789
623.9675, 4.050049
624.4496, 5.124634
624.9318, 5.758545
625.4139, 5.962769
625.8960, 5.407227
626.3781, 3.832153
626.8602, 2.147339
627.3423, 0.6317140
627.8245, 0.6835940
628.3066, 0.4521480
628.7887, 1.561157
629.2708, 3.757568
629.7529, 4.259399
630.2350, 3.674561
630.7172, 3.365112
631.1993, 3.536865
631.6814, 4.224976
632.1635, 6.339355
632.6456, 8.771118
633.1277, 9.804321
633.6099, 5.877930
634.0920, 3.658936
634.5741, 7.483398
635.0562, 15.10022
635.5383, 17.81335
636.0204, 12.09778
636.5026, 6.307739
636.9847, 2.895996
637.4668, 1.761230
637.9489, 0.7929690
638.4310, 4.5410000E-02
638.9131, 0.4978030
639.3953, 0.4260250
639.8774, 0.1767580
640.3595, 1.636841
640.8416, 4.058472
641.3237, 6.028198
641.8058, 5.677612
642.2880, 4.192261
642.7701, 3.367310
643.2522, 4.013672
643.7343, 4.162354
644.2164, 1.887695
644.6985, 1.190796
645.1807, 2.895630
645.6628, 2.427490
646.1449, 0.8894040
646.6270, 2.679688
647.1091, 6.966187
647.5912, 8.378174
648.0734, 6.103394
648.5555, 3.190186
649.0376, 0.1175540
649.5197, 2.757324
650.0018, 3.513062
650.4839, 2.174072
650.9661, 0.6188960
651.4482, 0.3886720
651.9303, 0.6042480
652.4124, 0.6141360
652.8945, 3.311157
653.3766, 5.559570
653.8588, 6.052246
654.3409, 5.576538
654.8230, 4.581055
655.3051, 2.662231
655.7872, 1.651733
656.2693, 2.798706
656.7515, 4.558228
657.2336, 5.416992
657.7158, 4.852417
658.1979, 4.448242
658.6800, 4.213379
659.1621, 4.271240
659.6442, 4.984497
660.1263, 6.340088
660.6085, 7.599121
661.0906, 8.596680
661.5727, 9.244995
662.0548, 9.163452
662.5369, 8.548584
663.0190, 8.122559
663.5012, 7.931152
663.9833, 8.465942
664.4654, 11.27283
664.9475, 15.78040
665.4296, 17.68030
665.9117, 12.43469
666.3939, 6.963745
666.8760, 4.788208
667.3581, 6.336182
667.8402, 8.570190
668.3223, 12.00415
668.8044, 15.38074
669.2866, 17.73596
669.7687, 19.05444
670.2508, 19.85461
670.7329, 20.03247
671.2150, 20.05127
671.6971, 19.60425
672.1793, 19.64355
672.6614, 22.44824
673.1435, 28.77087
673.6256, 37.23120
674.1077, 46.75867
674.5898, 57.84082
675.0720, 71.06873
675.5541, 86.81897
676.0362, 104.7260
676.5183, 125.9106
677.0004, 149.0679
677.4825, 170.8247
677.9647, 189.9780
678.4468, 209.6581
678.9289, 230.7388
679.4110, 252.9471
679.8931, 275.8770
680.3752, 299.4254
680.8574, 324.0255
681.3395, 349.5956
681.8216, 376.5558
682.3037, 404.9858
682.7858, 435.1456
683.2679, 467.1339
683.7501, 500.5109
684.2322, 536.3555
684.7143, 576.2958
685.1964, 620.1205
685.6785, 668.1790
686.1606, 718.6371
686.6428, 774.4620
687.1249, 838.2496
687.6070, 912.6149
688.0891, 989.7317
688.5712, 1073.950
689.0533, 1153.952
689.5355, 1219.988
690.0176, 1272.115
690.4997, 1297.634
690.9818, 1292.755
691.4639, 1265.135
691.9460, 1215.373
692.4282, 1151.546
692.9103, 1091.785
693.3924, 1043.872
693.8745, 1000.827
694.3566, 963.3752
694.8387, 928.0538
695.3209, 886.7611
695.8030, 829.3337
696.2851, 775.0376
696.7672, 725.1573
697.2493, 680.7115
697.7314, 650.0961
698.2136, 634.5704
698.6957, 629.6454
699.1778, 635.0830
699.6599, 649.5381
700.1420, 671.2739
700.6241, 699.6338
701.1063, 719.6138
701.5884, 724.8069
702.0705, 713.5360
702.5526, 679.9126
703.0347, 623.6970
703.5168, 561.7578
703.9990, 495.3207
704.4811, 431.6273
704.9632, 376.1897
705.4453, 329.7030
705.9274, 291.0129
706.4095, 260.9374
706.8917, 237.6935
707.3738, 220.3472
707.8560, 209.7330
708.3381, 201.4629
708.8202, 195.6877
709.3023, 190.5513
709.7844, 185.8915
710.2665, 180.1533
710.7487, 167.7738
711.2308, 145.2983
711.7129, 121.4716
712.1950, 101.4838
712.6771, 84.92737
713.1592, 71.12781
713.6414, 61.48303
714.1235, 52.88098
714.6056, 44.17285
715.0877, 36.19543
715.5698, 31.16394
716.0519, 30.19312
716.5341, 29.25793
717.0162, 27.46667
717.4983, 25.01318
717.9804, 22.22644
718.4625, 19.14539
718.9446, 16.65076
719.4268, 15.49829
719.9089, 14.93970
720.3910, 14.03101
720.8731, 12.85010
721.3552, 11.69910
721.8373, 10.62781
722.3195, 9.742432
722.8016, 9.274658
723.2837, 9.243896
723.7658, 8.743652
724.2479, 7.193604
724.7300, 5.964966
725.2122, 5.979370
725.6943, 7.270508
726.1764, 6.978516
726.6585, 4.809204
727.1406, 2.903687
727.6227, 3.356812
728.1049, 5.245972
728.5870, 6.444824
729.0691, 6.779175
729.5512, 6.749878
730.0333, 6.633057
730.5154, 6.359619
730.9976, 5.802979
731.4797, 4.789673
731.9618, 3.976929
732.4439, 3.304077
732.9260, 3.016968
733.4081, 3.474854
733.8903, 5.133423
734.3724, 5.965942
734.8545, 5.751221
735.3366, 4.993286
735.8187, 4.205566
736.3008, 3.399658
736.7830, 2.426392
737.2651, 0.9310300
737.7472, 0.3446040
738.2293, 3.689819
738.7114, 8.415894
739.1935, 10.64783
739.6757, 6.212524
740.1578, 2.884888
740.6399, 3.279907
741.1220, 5.992065
741.6041, 8.702881
742.0862, 12.27539
742.5684, 13.70581
743.0505, 11.83215
743.5326, 8.263184
744.0147, 6.864502
744.4968, 7.444580
744.9789, 7.338501
745.4611, 5.006104
745.9432, 2.190674
746.4253, 1.266968
746.9074, 1.708008
747.3895, 2.150757
747.8716, 1.591553
748.3538, 1.354004
748.8359, 2.760376
749.3180, 5.230591
749.8001, 5.618286
750.2822, 2.117798
750.7643, 0.3138430
751.2465, 0.4682620
751.7286, 3.465088
752.2107, 3.468750
752.6928, 0.4340820
753.1749, 2.773682
753.6570, 5.366577
754.1392, 6.731689
754.6213, 4.975464
755.1034, 0.6540530
755.5855, 2.994751
756.0676, 3.866455
756.5498, 3.849365
757.0319, 4.078857
757.5140, 4.619263
757.9962, 4.344604
758.4783, 2.169678
758.9604, 0.6304930
759.4425, 1.303223
759.9246, 4.063354
760.4067, 5.164917
760.8889, 4.314697
761.3710, 3.678223
761.8531, 5.790771
762.3352, 8.851074
762.8173, 9.054443
763.2994, 6.304443
763.7816, 3.421265
764.2637, 1.757935
764.7458, 1.131592
765.2279, 1.248657
765.7100, 2.232056
766.1921, 2.958984
766.6743, 3.313477
767.1564, 3.484009
767.6385, 3.608276
768.1206, 3.716431
768.6027, 3.444092
769.0848, 2.717529
769.5670, 1.989746
770.0491, 1.707642
770.5312, 1.700195
771.0133, 1.648315
771.4954, 1.503296
771.9775, 1.334839
772.4597, 0.7330320
772.9418, 0.3959960
773.4239, 1.124634
773.9060, 4.044800
774.3881, 5.314941
774.8702, 3.959473
775.3524, 1.928589
775.8345, 0.5955810
776.3166, 7.8002997E-02
776.7987, 1.082275
777.2808, 4.557983
777.7629, 7.759521
778.2451, 7.105591
778.7272, 4.293335
779.2093, 2.809692
779.6914, 3.624756
780.1735, 4.443237
780.6556, 3.506592
781.1378, 2.100464
781.6199, 1.494141
782.1020, 2.626465
782.5841, 3.274170
783.0662, 3.110718
783.5483, 2.799805
784.0305, 3.245605
784.5126, 4.494019
784.9947, 4.885010
785.4768, 4.072754
785.9589, 3.075928
786.4410, 3.097778
786.9232, 3.780151
787.4053, 4.571289
787.8874, 5.557007
788.3695, 6.034302
788.8516, 5.102173
789.3337, 3.762573
789.8159, 3.169678
790.2980, 3.853271
790.7801, 4.496460
791.2622, 5.061279
791.7443, 5.577759
792.2264, 6.214600
792.7086, 7.140625
793.1907, 7.344482
793.6728, 6.607178
794.1549, 5.414551
794.6370, 3.723389
795.1191, 1.966797
795.6013, 0.8718260
796.0834, 0.9263920
796.5655, 1.094604
797.0476, 1.001343
797.5297, 0.8377690
798.0118, 0.7946780
798.4940, 0.6881100
798.9761, 1.229980
799.4582, 2.713623
799.9403, 4.423706
800.4224, 5.448364
800.9045, 5.845337
801.3867, 5.952026
801.8688, 5.746094
802.3509, 5.579834
802.8330, 6.132080
803.3151, 6.818848
803.7972, 6.789063
804.2794, 5.226685
804.7615, 3.950806
805.2436, 3.594604
805.7258, 3.517578
806.2079, 2.832153
806.6900, 1.001343
807.1721, 0.9078370
807.6542, 3.253052
808.1364, 6.261475
808.6185, 7.668335
809.1006, 7.799927
809.5827, 7.543701
810.0648, 7.048218
810.5469, 6.366821
811.0291, 4.935425
811.5112, 3.427856
811.9933, 2.752441
812.4754, 4.351807
812.9575, 5.311035
813.4396, 4.809692
813.9218, 4.009033
814.4039, 4.441895
814.8860, 6.189697
815.3681, 6.051392
815.8502, 3.501465
816.3323, 0.3759770
816.8145, 1.771606
817.2966, 2.800537
817.7787, 2.219360
818.2608, 0.6781010
818.7429, 3.253906
819.2250, 3.912476
819.7072, 3.841187
820.1893, 4.357422
820.6714, 7.021606
821.1535, 6.722412
821.6356, 1.836182
822.1177, 3.145386
822.5999, 2.317993
823.0820, 3.284790
823.5641, 6.468750
824.0462, 6.230103
824.5283, 5.121826
825.0104, 5.106812
825.4926, 5.722900
825.9747, 6.677368
826.4568, 8.366211
826.9389, 8.795166
827.4210, 5.515869
827.9031, 2.377930
828.3853, 2.193848
828.8674, 5.769897
829.3495, 8.527466
829.8316, 10.43689
830.3137, 11.44482
830.7958, 11.10693
831.2780, 9.896362
831.7601, 8.523804
832.2422, 7.044678
832.7243, 6.481812
833.2064, 8.843994
833.6885, 11.44556
834.1707, 12.09412
834.6528, 9.970703
835.1349, 8.292969
835.6170, 7.038696
836.0991, 6.285156
836.5812, 6.310181
837.0634, 7.034790
837.5455, 7.115967
838.0276, 6.531616
838.5097, 6.119629
838.9918, 6.887695
839.4739, 7.915161
839.9561, 7.891968
840.4382, 6.761353
840.9203, 6.426392
841.4024, 8.833740
841.8845, 10.85400
842.3666, 10.94458
842.8488, 9.152466
843.3309, 7.882202
843.8130, 7.213135
844.2951, 6.665161
844.7772, 5.831421
845.2593, 4.971436
845.7415, 4.754028
846.2236, 5.102783
846.7057, 5.590454
847.1878, 6.231934
847.6699, 6.723755
848.1520, 7.355103
848.6342, 7.861572
849.1163, 6.277588
849.5984, 0.5241700
850.0805, 3.062744
850.5626, 1.708496
851.0447, 2.907227
851.5269, 5.344727
852.0090, 5.808838
852.4911, 6.066772
852.9732, 7.398682
853.4553, 8.478027
853.9374, 7.536255
854.4196, 5.367188
854.9017, 4.015381
855.3839, 4.258667
855.8660, 5.245972
856.3481, 7.360229
856.8302, 9.807983
857.3123, 10.85901
857.7944, 10.47595
858.2766, 9.187744
858.7587, 6.716675
859.2408, 4.317383
859.7229, 4.513184
860.2050, 6.074829
860.6871, 6.407227
861.1693, 3.479736
861.6514, 1.080078
862.1335, 0.5394290
862.6156, 1.429443
863.0977, 3.268433
863.5798, 6.942383
864.0620, 8.960083
864.5441, 8.787720
865.0262, 7.521240
865.5083, 5.966553
865.9904, 4.451660
866.4725, 4.219727
866.9547, 5.701660
867.4368, 7.130493
867.9189, 6.661011
868.4010, 5.897583
868.8831, 6.668335
869.3652, 11.01733
869.8474, 11.88354
870.3295, 7.620972
870.8116, 2.456055
871.2937, 0.5541990
871.7758, 1.485107
872.2579, 0.7978520
872.7401, 1.514771
873.2222, 3.498779
873.7043, 3.063843
874.1864, 1.897583
874.6685, 1.765625
875.1506, 2.866333
875.6328, 3.274536
876.1149, 1.490845
876.5970, 4.9561001E-02
877.0791, 0.1929930
877.5612, 1.826538
878.0433, 2.333984
878.5255, 1.530396
879.0076, 1.023193
879.4897, 1.615723
879.9718, 2.862793
880.4539, 5.570435
880.9360, 9.093872
881.4182, 10.76709
881.9003, 7.614990
882.3824, 4.562622
882.8645, 3.517944
883.3466, 3.776978
883.8287, 3.438721
884.3109, 2.258057
884.7930, 1.814087
885.2751, 2.614624
885.7572, 4.143921
886.2393, 5.869873
886.7214, 7.620605
887.2036, 8.923950
887.6857, 9.234863
888.1678, 9.699585
888.6499, 11.18384
889.1320, 12.94885
889.6141, 14.05652
890.0963, 14.47375
890.5784, 14.18665
891.0605, 12.92529
891.5426, 11.74146
892.0247, 11.97083
892.5068, 13.04651
892.9890, 13.11450
893.4711, 11.75134
893.9532, 11.42517
894.4353, 15.27588
894.9174, 19.81848
895.3995, 21.93237
895.8817, 20.44641
896.3638, 20.62183
896.8459, 22.82947
897.3280, 25.98120
897.8101, 29.59412
898.2922, 33.55542
898.7744, 37.32300
899.2565, 40.94263
899.7386, 44.12769
900.2207, 48.10413
900.7028, 50.49963
901.1849, 49.03052
901.6671, 44.01392
902.1492, 37.98767
902.6313, 30.27893
903.1134, 23.52002
903.5955, 18.64343
904.0776, 15.09326
904.5598, 10.64856
905.0419, 5.774414
905.5240, 2.890625
906.0062, 3.734375
906.4883, 5.796387
906.9704, 7.079468
907.4525, 7.826416
907.9346, 8.265259
908.4167, 8.436523
908.8989, 9.002075
909.3810, 10.48486
909.8631, 11.58179
910.3452, 9.570313
910.8273, 4.827148
911.3094, 3.945801
911.7916, 8.192871
912.2737, 12.54504
912.7558, 12.07336
913.2379, 9.546875
913.7200, 7.595215
914.2021, 6.639893
914.6843, 6.794678
915.1664, 9.316650
915.6485, 11.57703
916.1306, 11.95984
916.6127, 10.61487
917.0948, 10.15344
917.5770, 10.57214
918.0591, 10.95959
918.5412, 10.73816
919.0233, 10.17896
919.5054, 9.330200
919.9875, 8.371948
920.4697, 7.796143
920.9518, 7.880615
921.4339, 8.314575
921.9160, 9.305786
922.3981, 10.42029
922.8802, 10.31140
923.3624, 9.023804
923.8445, 8.338501
924.3266, 9.008667
924.8087, 9.878296
925.2908, 9.925171
925.7729, 9.260498
926.2551, 7.974365
926.7372, 5.153564
927.2193, 3.481079
927.7014, 3.840698
928.1835, 4.762939
928.6656, 4.927368
929.1478, 4.261963
929.6299, 3.634888
930.1120, 3.198608
930.5941, 2.936157
931.0762, 2.736206
931.5583, 2.565430
932.0405, 2.331787
932.5226, 2.034546
933.0047, 1.962524
933.4868, 2.812012
933.9689, 2.969849
934.4510, 1.177856
934.9332, 1.738525
935.4153, 1.112793
935.8974, 2.839111
936.3795, 6.405151
936.8616, 7.684692
937.3438, 8.017700
937.8259, 8.710815
938.3080, 9.482666
938.7901, 9.786377
939.2722, 9.031494
939.7543, 8.381226
940.2365, 7.922363
940.7186, 7.670166
941.2007, 7.857300
941.6828, 8.411133
942.1649, 8.291626
942.6470, 7.306152
943.1292, 6.132202
943.6113, 4.797241
944.0934, 3.939941
944.5755, 4.486938
945.0576, 6.969727
945.5397, 8.362183
946.0219, 7.807129
946.5040, 7.274536
946.9861, 8.318848
947.4682, 10.31262
947.9503, 8.686035
948.4324, 3.896118
948.9146, 0.1202390
949.3967, 0.4387210
949.8788, 0.2857670
950.3609, 0.2563480
950.8430, 0.3310550
951.3251, 0.6411130
951.8073, 0.5640870
952.2894, 0.2253420
952.7715, 0.5242920
953.2536, 1.273315
953.7357, 1.234863
954.2179, 0.5899660
954.7000, 4.3457001E-02
955.1821, 0.6287840
955.6642, 0.6693120
956.1464, 1.232178
956.6285, 3.164307
957.1106, 3.046143
957.5927, 5.7007000E-02
958.0748, 1.312134
958.5569, 0.1785890
959.0391, 1.314209
959.5212, 2.018921
960.0033, 2.003418
960.4854, 0.8959960
960.9675, 0.9868160
961.4496, 1.819580
961.9318, 1.156982
962.4139, 3.579590
962.8960, 2.788086
963.3781, 0.2268070
963.8602, 2.788330
964.3423, 4.978271
964.8245, 6.248047
965.3066, 6.452271
965.7887, 5.717529
966.2708, 3.526978
966.7529, 0.6975100
967.2350, 1.163452
967.7172, 1.661377
968.1993, 1.394043
968.6814, 0.7807620
969.1635, 2.474365
969.6456, 1.550293
970.1277, 2.359863
970.6099, 2.986084
971.0920, 2.5390999E-02
971.5741, 2.440186
972.0562, 0.7899170
972.5383, 2.425049
973.0204, 4.261963
973.5026, 4.809204
973.9847, 4.821533
974.4668, 3.838013
974.9489, 3.278687
975.4310, 3.879395
975.9131, 4.732422
976.3953, 3.451416
976.8774, 0.2648930
977.3595, 1.216431
977.8416, 4.2969000E-02
978.3237, 2.215576
978.8058, 4.304565
979.2880, 6.061768
979.7701, 7.195313
980.2522, 7.515137
980.7343, 7.695313
981.2164, 7.982666
981.6985, 7.712402
982.1807, 5.774414
982.6628, 2.925781
983.1449, 3.255615
983.6270, 6.213501
984.1091, 8.422852
984.5912, 6.688232
985.0734, 4.914795
985.5555, 6.136353
986.0376, 8.881592
986.5197, 8.930298
987.0018, 4.969971
987.4839, 2.830566
987.9661, 3.800659
988.4482, 5.756348
988.9303, 6.035645
989.4124, 5.160156
989.8945, 3.881958
990.3766, 2.207642
990.8588, 1.151611
991.3409, 1.543945
991.8230, 2.400146
992.3051, 3.379517
992.7872, 4.301270
993.2693, 3.333008
993.7515, 0.4882810
994.2336, 0.9376220
994.7157, 2.290894
995.1978, 6.675171
995.6799, 8.338135
996.1620, 7.984863
996.6442, 7.269287
997.1263, 5.716187
997.6084, 5.207886
998.0905, 6.447266
998.5726, 8.058350
999.0547, 7.894165
999.5369, 6.372681
1000.019, 6.494141
1000.501, 8.720215
1000.983, 10.47693
1001.465, 9.658691
1001.947, 7.848267
1002.430, 5.820313
1002.912, 3.676270
1003.394, 3.382324
1003.876, 5.883301
1004.358, 7.060303
1004.840, 4.619507
1005.322, 0.7991940
1005.804, 0.3187260
1006.287, 1.979614
1006.769, 2.656860
1007.251, 0.1937260
1007.733, 1.746216
1008.215, 1.109985
1008.697, 4.624390
1009.179, 5.092651
1009.661, 2.093994
1010.143, 1.499634
1010.626, 3.680908
1011.108, 5.784302
1011.590, 4.994141
1012.072, 3.307983
1012.554, 2.619629
1013.036, 2.953003
1013.518, 3.638306
1014.000, 5.201660
1014.483, 6.096802
1014.965, 5.706787
1015.447, 4.736328
1015.929, 5.077148
1016.411, 6.344482
1016.893, 6.214233
1017.375, 3.293945
1017.857, 1.549927
1018.339, 4.742554
1018.822, 9.157837
1019.304, 11.84460
1019.786, 12.88257
1020.268, 12.25757
1020.750, 9.622925
1021.232, 7.416382
1021.714, 7.556396
1022.196, 8.703979
1022.679, 9.282593
1023.161, 9.241333
1023.643, 8.283081
1024.125, 4.943237
1024.607, 2.735840
1025.089, 2.236694
1025.571, 2.774536
1026.053, 3.525757
1026.535, 4.478027
1027.018, 6.378174
1027.500, 9.601318
1027.982, 11.78174
1028.464, 8.557739
1028.946, 5.386597
1029.428, 7.269043
1029.910, 14.62207
1030.392, 19.39343
1030.875, 20.76135
1031.357, 22.56897
1031.839, 26.63269
1032.321, 31.22522
1032.803, 33.07202
1033.285, 33.08459
1033.767, 33.15137
1034.249, 34.03687
1034.731, 34.63074
1035.214, 33.94214
1035.696, 33.58691
1036.178, 34.85962
1036.660, 37.73669
1037.142, 39.99255
1037.624, 41.64478
1038.106, 44.22131
1038.588, 48.90466
1039.071, 54.76062
1039.553, 61.28625
1040.035, 68.47339
1040.517, 76.47400
1040.999, 86.01917
1041.481, 94.98096
1041.963, 103.8894
1042.445, 110.1636
1042.927, 109.9723
1043.410, 104.8644
1043.892, 96.28540
1044.374, 83.73499
1044.856, 75.66968
1045.338, 76.10193
1045.820, 80.94434
1046.302, 87.91150
1046.784, 97.73560
1047.266, 113.4365
1047.749, 135.2911
1048.231, 164.2253
1048.713, 194.8243
1049.195, 242.1078
1049.677, 307.2998
1050.159, 401.5897
1050.641, 540.5371
1051.123, 711.0455
1051.606, 963.2178
1052.088, 1310.964
1052.570, 1691.582
1053.052, 2099.789
1053.534, 2495.655
1054.016, 2798.752
1054.498, 3020.210
1054.980, 3219.714
1055.463, 3388.421
1055.945, 3579.469
1056.427, 3798.126
1056.909, 4046.876
1057.391, 4319.454
1057.873, 4620.611
1058.355, 4981.992
1058.837, 5405.638
1059.319, 5924.926
1059.802, 6574.516
1060.284, 7308.095
1060.766, 8085.779
1061.248, 8908.247
1061.730, 9836.176
1062.212, 10885.15
1062.694, 12038.31
1063.176, 13552.69
1063.658, 14691.41
1064.141, 14374.69
1064.623, 12939.46
1065.105, 10857.17
1065.587, 7719.277
1066.069, 5180.352
1066.551, 3426.203
1067.033, 2202.172
1067.515, 1419.223
1067.998, 1015.083
1068.480, 738.3339
1068.962, 576.6292
1069.444, 468.3705
1069.926, 406.1190
1070.408, 362.0853
1070.890, 329.3398
1071.372, 305.6715
1071.854, 289.3706
1072.337, 280.5159
1072.819, 279.4044
1073.301, 285.9917
1073.783, 301.2759
1074.265, 324.7124
1074.747, 358.3622
1075.229, 403.0483
1075.711, 459.1591
1076.193, 531.0918
1076.676, 613.8578
1077.158, 721.8942
1077.640, 862.5623
1078.122, 1022.316
1078.604, 1186.128
1079.086, 1349.208
1079.568, 1498.868
1080.051, 1629.764
1080.533, 1764.400
1081.015, 1904.735
1081.497, 2057.447
1081.979, 2225.064
1082.461, 2406.492
1082.943, 2598.766
1083.425, 2805.153
1083.907, 3038.707
1084.390, 3304.896
1084.872, 3601.784
1085.354, 3957.677
1085.836, 4325.993
1086.318, 4651.221
1086.800, 4911.441
1087.282, 5227.707
1087.764, 5614.510
1088.246, 5955.818
1088.729, 6291.426
1089.211, 6435.132
1089.693, 6084.971
1090.175, 5340.108
1090.657, 4595.434
1091.139, 3881.053
1091.621, 3248.056
1092.103, 2709.811
1092.586, 2241.925
1093.068, 1806.415
1093.550, 1446.013
1094.032, 1110.364
1094.514, 884.8643
1094.996, 703.3014
1095.478, 565.5029
1095.960, 455.3693
1096.443, 368.8300
1096.925, 303.0286
1097.407, 249.5089
1097.889, 207.4724
1098.371, 172.9272
1098.853, 145.1729
1099.335, 122.1968
1099.817, 104.5289
1100.299, 89.49023
1100.781, 74.27893
1101.264, 58.53955
1101.746, 47.05969
1102.228, 40.00659
1102.710, 35.10986
1103.192, 32.14807
1103.674, 29.40820
1104.156, 23.63269
1104.638, 17.28333
1105.121, 14.52368
1105.603, 19.38281
1106.085, 21.27832
1106.567, 19.61267
1107.049, 16.74524
1107.531, 13.76892
1108.013, 11.24011
1108.495, 10.89539
1108.978, 12.05090
1109.460, 11.95117
1109.942, 7.597290
1110.424, 4.625366
1110.906, 4.250732
1111.388, 5.168701
1111.870, 6.156860
1112.352, 6.973633
1112.834, 6.106812
1113.317, 3.508545
1113.799, 1.789917
1114.281, 3.989868
1114.763, 5.826050
1115.245, 4.727173
1115.727, 1.940063
1116.209, 0.6826170
1116.691, 0.9058840
1117.173, 0.8519290
1117.656, 0.1166990
1118.138, 0.6936040
1118.620, 0.8946530
1119.102, 1.039795
1119.584, 1.801025
1120.066, 3.149414
1120.548, 3.617676
1121.030, 3.060791
1121.513, 2.701294
1121.995, 3.016479
1122.477, 3.717041
1122.959, 5.603149
1123.441, 7.132813
1123.923, 5.815918
1124.405, 0.4504390
1124.887, 4.733154
1125.370, 6.694580
1125.852, 7.360718
1126.334, 7.253174
1126.816, 6.295776
1127.298, 3.358276
1127.780, 0.4073490
1128.262, 2.125488
1128.744, 1.269775
1129.226, 3.892700
1129.709, 5.250732
1130.191, 5.606689
1130.673, 4.913574
1131.155, 3.375854
1131.637, 1.511353
1132.119, 0.5086670
1132.601, 1.829590
1133.083, 2.074707
1133.566, 1.416748
1134.048, 0.7332760
1134.530, 3.150391
1135.012, 4.062866
1135.494, 3.618530
1135.976, 3.441895
1136.458, 3.675415
1136.940, 3.752686
1137.422, 3.222290
1137.905, 2.512695
1138.387, 1.871460
1138.869, 1.249878
1139.351, 0.2398680
1139.833, 1.223755
1140.315, 0.9261470
1140.797, 1.863037
1141.279, 4.077393
1141.761, 1.367188
1142.244, 1.868042
1142.726, 1.211670
1143.208, 3.209351
1143.690, 5.556641
1144.172, 5.352905
1144.654, 5.948486
1145.136, 8.803711
1145.618, 11.44568
1146.101, 10.46460
1146.583, 7.656738
1147.065, 4.806152
1147.547, 1.905640
1148.029, 1.365601
1148.511, 3.961548
1148.993, 6.480713
1149.475, 7.893555
1149.958, 7.924805
1150.440, 4.503662
1150.922, 0.1491700
1151.404, 1.761230
1151.886, 2.846313
1152.368, 5.259033
1152.850, 4.219116
1153.332, 2.519287
1153.814, 1.632080
1154.297, 1.535400
1154.779, 2.827148
1155.261, 4.842407
1155.743, 5.686523
1156.225, 3.101563
1156.707, 1.652344
1157.189, 2.351929
1157.671, 3.507568
1158.153, 3.820679
1158.636, 3.358398
1159.118, 1.979736
1159.600, 6.5919999E-03
1160.082, 1.131226
1160.564, 2.3437999E-02
1161.046, 1.218628
1161.528, 1.472656
1162.010, 1.847290
1162.493, 4.326172
1162.975, 8.286865
1163.457, 8.842407
1163.939, 6.058716
1164.421, 3.926880
1164.903, 5.754883
1165.385, 7.665283
1165.867, 7.979736
1166.349, 7.267944
1166.832, 6.040039
1167.314, 4.395752
1167.796, 4.142212
1168.278, 5.487427
1168.760, 6.672119
1169.242, 5.736694
1169.724, 4.980957
1170.206, 6.603882
1170.688, 5.777710
1171.171, 9.241333
1171.653, 6.539551
1172.135, 5.431519
1172.617, 6.893311
1173.099, 8.505737
1173.581, 8.059814
1174.063, 7.167725
1174.545, 7.287354
1175.028, 8.105469
1175.510, 7.877808
1175.992, 6.533813
1176.474, 5.166260
1176.956, 3.955322
1177.438, 3.117798
1177.920, 3.116333
1178.402, 3.387451
1178.885, 3.255859
1179.367, 2.730469
1179.849, 3.546753
1180.331, 5.938477
1180.813, 6.772827
1181.295, 4.598877
1181.777, 1.810425
1182.259, 0.9689940
1182.741, 0.7321780
1183.224, 0.2784420
1183.706, 2.336304
1184.188, 2.637329
1184.670, 1.086914
1185.152, 0.8059080
1185.634, 2.679199
1186.116, 3.817139
1186.598, 3.087646
1187.081, 1.549561
1187.563, 0.8046880
1188.045, 1.068481
1188.527, 2.123779
1189.009, 3.972168
1189.491, 5.797852
1189.973, 7.415161
1190.455, 8.274170
1190.938, 7.155029
1191.420, 5.196289
1191.902, 4.311279
1192.384, 5.253174
1192.866, 5.333862
1193.348, 4.350342
1193.830, 3.558472
1194.312, 4.098389
1194.794, 5.058960
1195.276, 5.011475
1195.759, 4.480835
1196.241, 4.672974
1196.723, 6.476685
1197.205, 7.160767
1197.687, 6.378784
1198.169, 5.666260
1198.651, 6.623047
1199.133, 7.986206
1199.616, 7.950073
1200.098, 8.415527
1200.580, 8.591553
1201.062, 8.098877
1201.544, 8.425903
1202.026, 7.182861
1202.508, 5.919067
1202.990, 6.289063
1203.473, 7.220337
1203.955, 7.174561
1204.437, 6.456909
1204.919, 6.270142
1205.401, 7.416382
1205.883, 7.313477
1206.365, 5.510132
1206.847, 3.723389
1207.329, 4.018433
1207.812, 5.208618
1208.294, 5.367554
1208.776, 4.590820
1209.258, 3.360962
1209.740, 1.431030
1210.222, 1.002686
1210.704, 2.618408
1211.186, 4.607666
1211.668, 5.030273
1212.151, 5.042236
1212.633, 6.663208
1213.115, 9.422607
1213.597, 10.01819
1214.079, 7.262329
1214.561, 5.185059
1215.043, 4.378174
1215.525, 4.466553
1216.008, 5.690063
1216.490, 7.096191
1216.972, 7.470703
1217.454, 6.779053
1217.936, 5.822510
1218.418, 4.537354
1218.900, 4.069824
1219.382, 4.651367
1219.865, 5.596802
1220.347, 6.058960
1220.829, 6.544800
1221.311, 8.129639
1221.793, 10.53784
1222.275, 11.09839
1222.757, 9.205200
1223.239, 7.841797
1223.721, 7.632813
1224.203, 7.848633
1224.686, 7.964233
1225.168, 7.889160
1225.650, 7.400757
1226.132, 6.580322
1226.614, 6.147949
1227.096, 6.100952
1227.578, 6.478760
1228.061, 7.388672
1228.543, 8.389038
1229.025, 9.319214
1229.507, 9.953735
1229.989, 9.805420
1230.471, 9.012329
1230.953, 9.126587
1231.435, 10.34644
1231.917, 10.30994
1232.400, 8.115723
1232.882, 6.346313
1233.364, 8.605957
1233.846, 11.48438
1234.328, 11.69995
1234.810, 9.585815
1235.292, 7.744507
1235.774, 6.195557
1236.256, 5.605957
1236.739, 6.346313
1237.221, 7.009155
1237.703, 6.175781
1238.185, 5.034302
1238.667, 4.570313
1239.149, 4.641968
1239.631, 4.802124
1240.113, 5.020874
1240.596, 4.076050
1241.078, 1.257935
1241.560, 0.7871090
1242.042, 0.9882810
1242.524, 3.638794
1243.006, 5.165649
1243.488, 5.808105
1243.970, 7.355103
1244.453, 9.440796
1244.935, 8.524170
1245.417, 3.087280
1245.899, 0.8405760
1246.381, 2.000488
1246.863, 5.660767
1247.345, 6.972046
1247.827, 6.455444
1248.309, 5.187988
1248.792, 3.460815
1249.274, 2.295898
1249.756, 1.946411
1250.238, 2.396851
1250.720, 5.503906
1251.202, 7.075928
1251.684, 4.566162
1252.166, 0.1367190
1252.648, 0.3333740
1253.131, 1.948608
1253.613, 3.318237
1254.095, 2.836792
1254.577, 2.524902
1255.059, 3.234619
1255.541, 3.968994
1256.023, 4.441406
1256.505, 4.576782
1256.988, 4.038330
1257.470, 3.108032
1257.952, 2.492432
1258.434, 2.356323
1258.916, 2.210571
1259.398, 1.984863
1259.880, 1.853394
1260.362, 1.849976
1260.844, 2.045044
1261.327, 2.961060
1261.809, 3.984131
1262.291, 3.807739
1262.773, 2.021484
1263.255, 2.670532
1263.737, 7.358887
1264.219, 8.793823
1264.701, 3.269287
1265.183, 2.622070
1265.666, 1.171509
1266.148, 8.248535
1266.630, 10.61719
1267.112, 7.330322
1267.594, 6.757690
1268.076, 9.322876
1268.558, 11.14661
1269.040, 10.92114
1269.523, 10.34009
1270.005, 11.44958
1270.487, 12.68872
1270.969, 12.39319
1271.451, 10.84045
1271.933, 9.221436
1272.415, 7.851685
1272.897, 7.837036
1273.380, 9.823364
1273.862, 10.92065
1274.344, 7.662354
1274.826, 4.118652
1275.308, 2.313232
1275.790, 2.080688
1276.272, 3.431274
1276.754, 6.018921
1277.236, 7.866089
1277.719, 8.598511
1278.201, 8.352051
1278.683, 5.523438
1279.165, 3.565308
1279.647, 4.181274
1280.129, 6.045044
1280.611, 6.347412
1281.093, 5.583130
1281.576, 5.199707
1282.058, 5.486572
1282.540, 5.179810
1283.022, 3.238770
1283.504, 1.912354
1283.986, 1.437866
1284.468, 1.904175
1284.950, 0.7918700
1285.432, 0.6959230
1285.915, 0.3643800
1286.397, 1.976685
1286.879, 4.008057
1287.361, 5.705200
1287.843, 6.337769
1288.325, 5.555298
1288.807, 4.382813
1289.289, 3.741943
1289.771, 3.527588
1290.254, 3.630249
1290.736, 4.068359
1291.218, 5.062134
1291.700, 6.768677
1292.182, 7.253174
1292.664, 6.085571
1293.146, 4.732910
1293.628, 4.279663
1294.111, 3.862549
1294.593, 4.020020
1295.075, 4.279419
1295.557, 4.632446
1296.039, 5.021362
1296.521, 4.542847
1297.003, 3.190918
1297.485, 2.404785
1297.968, 4.007080
1298.450, 4.680176
1298.932, 2.451904
1299.414, 0.2073970
1299.896, 1.255127
1300.378, 5.295410
1300.860, 5.134033
1301.342, 2.631836
1301.824, 0.0000000E+00
##END=



