##NAMES=Alstonite
##RRUFFID=R090049
##IDEAL CHEMISTRY=BaCa(CO_3_)_2_
##LOCALITY=Admiralty flats, Haggs mine, Nentsberry, Cumbria, England
##OWNER=RRUFF
##SOURCE=Bob Jenkins
##DESCRIPTION=Clusters of colorless pyramidal crystals. We have posted cell parameters that match those in the literature, but do not represent the correct cell. The crystals are twinned.
##STATUS=The identification of this mineral is confirmed by single-crystal X-ray diffraction and chemical analysis.
##URL=rruff.info/R090049
##MEASURED CHEMISTRY=Ba_0.99_(Ca_0.99_Sr_0.05_)_Î£=1.04_(CO_3_)_2_
92.02539, 0.0000000E+00
92.50751, 17.80322
92.98962, 3.605591
93.47174, 5.283813
93.95386, 1.776855
94.43597, 12.74927
94.91809, 24.64624
95.40021, 38.42273
95.88232, 53.17578
96.36444, 66.88379
96.84656, 83.64600
97.32867, 104.3915
97.81078, 129.2328
98.29290, 158.0736
98.77502, 189.9041
99.25713, 222.0936
99.73925, 257.0504
100.2214, 299.0807
100.7035, 340.6053
101.1856, 380.2111
101.6677, 416.8038
102.1498, 447.9788
102.6320, 471.3611
103.1141, 487.8737
103.5962, 489.7448
104.0783, 473.7897
104.5604, 444.7345
105.0425, 405.5001
105.5247, 355.3406
106.0068, 300.2941
106.4889, 249.0887
106.9710, 200.0542
107.4531, 157.4923
107.9352, 122.8906
108.4173, 96.04846
108.8995, 75.99402
109.3816, 63.33472
109.8637, 57.50500
110.3458, 57.46570
110.8279, 63.50146
111.3100, 73.87842
111.7922, 86.80518
112.2743, 102.3036
112.7564, 120.2703
113.2385, 138.9520
113.7206, 160.4436
114.2027, 186.4921
114.6849, 217.5867
115.1670, 254.2052
115.6491, 297.5603
116.1312, 352.5443
116.6133, 410.0782
117.0954, 469.9451
117.5776, 531.2236
118.0597, 593.4263
118.5418, 656.8267
119.0239, 721.6310
119.5060, 779.6997
119.9881, 833.8383
120.4703, 880.5483
120.9524, 917.5289
121.4345, 945.1669
121.9166, 965.8442
122.3987, 980.7390
122.8808, 988.6440
123.3630, 996.6239
123.8451, 1003.634
124.3272, 1011.240
124.8093, 1022.028
125.2914, 1037.029
125.7735, 1051.518
126.2557, 1059.761
126.7378, 1062.928
127.2199, 1063.296
127.7020, 1061.865
128.1841, 1058.321
128.6662, 1051.111
129.1483, 1037.024
129.6305, 1022.766
130.1126, 1012.560
130.5947, 1006.412
131.0768, 1003.690
131.5589, 1002.819
132.0410, 1003.143
132.5232, 1010.818
133.0053, 1025.669
133.4874, 1049.146
133.9695, 1083.337
134.4516, 1128.499
134.9337, 1182.380
135.4159, 1241.476
135.8980, 1303.802
136.3801, 1377.443
136.8622, 1464.277
137.3443, 1559.610
137.8264, 1660.335
138.3086, 1765.159
138.7907, 1873.453
139.2728, 1981.209
139.7549, 2095.164
140.2370, 2201.148
140.7191, 2302.969
141.2013, 2395.712
141.6834, 2472.818
142.1655, 2530.780
142.6476, 2569.592
143.1297, 2588.515
143.6118, 2581.382
144.0939, 2566.066
144.5761, 2547.676
145.0582, 2526.425
145.5403, 2502.957
146.0224, 2477.024
146.5045, 2449.169
146.9866, 2421.682
147.4688, 2399.015
147.9509, 2373.228
148.4330, 2338.561
148.9151, 2295.378
149.3972, 2240.065
149.8793, 2169.005
150.3615, 2083.523
150.8436, 1979.117
151.3257, 1850.615
151.8078, 1704.590
152.2899, 1555.368
152.7720, 1395.859
153.2542, 1243.928
153.7363, 1101.356
154.2184, 969.6257
154.7005, 849.7234
155.1826, 743.4702
155.6647, 650.2487
156.1469, 566.1772
156.6290, 492.6450
157.1111, 429.0759
157.5932, 376.4418
158.0753, 333.6327
158.5574, 299.3219
159.0396, 272.7140
159.5217, 254.2854
160.0038, 240.0211
160.4859, 230.5665
160.9680, 223.9421
161.4501, 219.6832
161.9323, 217.9723
162.4144, 218.8269
162.8965, 222.3364
163.3786, 229.0123
163.8607, 236.9501
164.3428, 246.8472
164.8250, 257.3416
165.3071, 267.1233
165.7892, 276.0348
166.2713, 285.2612
166.7534, 296.2034
167.2355, 309.0320
167.7177, 323.0338
168.1998, 337.4768
168.6819, 353.2133
169.1640, 371.8859
169.6461, 394.3167
170.1282, 417.9006
170.6104, 440.4421
171.0925, 462.0255
171.5746, 480.3721
172.0567, 496.9972
172.5388, 509.8005
173.0209, 512.4031
173.5031, 501.9028
173.9852, 482.3435
174.4673, 457.6974
174.9494, 428.2852
175.4315, 396.3096
175.9136, 362.0145
176.3958, 325.3998
176.8779, 291.1665
177.3600, 260.9233
177.8421, 232.8901
178.3242, 205.7736
178.8063, 179.5435
179.2885, 155.8157
179.7706, 136.1425
180.2527, 120.7720
180.7348, 108.6100
181.2169, 101.6899
181.6990, 96.31665
182.1812, 90.93506
182.6633, 85.15894
183.1454, 79.42053
183.6275, 74.27966
184.1096, 69.82147
184.5917, 65.87457
185.0738, 62.94995
185.5560, 60.10632
186.0381, 56.13647
186.5202, 50.94702
187.0023, 46.03748
187.4844, 44.03363
187.9665, 46.78046
188.4487, 49.87402
188.9308, 53.11084
189.4129, 56.76709
189.8950, 60.89490
190.3771, 65.52203
190.8592, 71.04858
191.3414, 78.33075
191.8235, 87.46021
192.3056, 98.19031
192.7877, 112.0919
193.2698, 127.1218
193.7519, 140.7458
194.2341, 152.1188
194.7162, 161.6057
195.1983, 170.0913
195.6804, 178.7505
196.1625, 183.9075
196.6446, 184.2468
197.1268, 180.2777
197.6089, 172.9349
198.0910, 162.1353
198.5731, 148.5387
199.0552, 133.1063
199.5373, 115.4670
200.0195, 97.79028
200.5016, 80.38696
200.9837, 63.52899
201.4658, 48.89783
201.9479, 37.49072
202.4300, 28.09949
202.9122, 18.74329
203.3943, 9.141907
203.8764, 1.658264
204.3585, 1.358826
204.8406, 3.4667999E-02
205.3227, 2.298340
205.8048, 4.480835
206.2870, 7.494812
206.7691, 12.36896
207.2512, 19.18805
207.7333, 26.41046
208.2154, 32.26147
208.6975, 36.45123
209.1797, 40.96814
209.6618, 46.53827
210.1439, 52.26367
210.6260, 58.34613
211.1081, 64.57959
211.5902, 69.47162
212.0724, 70.72601
212.5545, 67.13147
213.0366, 63.51343
213.5187, 60.89813
214.0008, 57.92078
214.4829, 53.55798
214.9651, 47.70428
215.4472, 41.05194
215.9293, 34.54712
216.4114, 28.02386
216.8935, 22.06262
217.3756, 16.92914
217.8578, 12.04022
218.3399, 6.723633
218.8220, 0.9680790
219.3041, 4.586792
219.7862, 8.862671
220.2683, 11.13379
220.7505, 13.38220
221.2326, 15.99390
221.7147, 18.37927
222.1968, 20.07196
222.6789, 20.97144
223.1610, 21.30328
223.6432, 21.34528
224.1253, 20.69971
224.6074, 20.64056
225.0895, 22.20471
225.5716, 23.78809
226.0537, 23.53101
226.5358, 21.07233
227.0180, 18.12262
227.5001, 17.23218
227.9822, 19.39001
228.4643, 20.45581
228.9464, 20.09253
229.4285, 18.56177
229.9107, 15.55780
230.3928, 10.94678
230.8749, 6.362732
231.3570, 4.195068
231.8391, 4.672424
232.3212, 4.790771
232.8034, 4.325256
233.2855, 3.156189
233.7676, 0.7788090
234.2497, 3.090271
234.7318, 7.038025
235.2139, 8.992126
235.6961, 9.244202
236.1782, 10.37622
236.6603, 13.31738
237.1424, 17.44220
237.6245, 21.88397
238.1066, 26.60797
238.5888, 31.49591
239.0709, 36.61871
239.5530, 41.86279
240.0351, 46.89221
240.5172, 51.29901
240.9993, 55.47510
241.4815, 60.09869
241.9636, 65.19586
242.4457, 70.83136
242.9278, 77.47919
243.4099, 84.69202
243.8920, 91.51489
244.3742, 97.01337
244.8563, 101.9105
245.3384, 108.1834
245.8205, 116.7360
246.3026, 124.5886
246.7847, 130.2792
247.2668, 134.2297
247.7490, 136.8949
248.2311, 138.2482
248.7132, 138.5643
249.1953, 138.7300
249.6774, 139.5582
250.1595, 138.4149
250.6417, 133.0388
251.1238, 125.6378
251.6059, 119.1041
252.0880, 114.9966
252.5701, 112.2391
253.0522, 108.0413
253.5344, 101.9709
254.0165, 95.27301
254.4986, 87.90533
254.9807, 80.39111
255.4628, 73.06647
255.9449, 66.02008
256.4271, 59.61035
256.9092, 54.79773
257.3913, 52.62073
257.8734, 50.16498
258.3555, 45.93030
258.8376, 41.60828
259.3198, 38.94519
259.8019, 38.65344
260.2840, 39.68109
260.7661, 39.75684
261.2482, 37.97491
261.7303, 36.98401
262.2125, 37.25708
262.6946, 38.17139
263.1767, 39.32507
263.6588, 40.54938
264.1409, 41.70856
264.6230, 42.51611
265.1052, 42.65448
265.5873, 43.06317
266.0694, 43.84302
266.5515, 44.82263
267.0336, 45.88440
267.5157, 46.99353
267.9979, 48.18597
268.4800, 49.51819
268.9621, 50.98456
269.4442, 52.61108
269.9263, 54.18127
270.4084, 56.02264
270.8906, 58.46790
271.3727, 61.50562
271.8548, 64.79535
272.3369, 67.99921
272.8190, 71.31512
273.3011, 73.78589
273.7833, 75.01056
274.2654, 75.90930
274.7475, 76.80396
275.2296, 77.80084
275.7117, 78.96851
276.1938, 80.34967
276.6760, 81.84747
277.1581, 83.54987
277.6402, 86.48999
278.1223, 88.83240
278.6044, 89.22809
279.0865, 88.06860
279.5686, 86.94653
280.0508, 87.27966
280.5329, 89.16956
281.0150, 89.89081
281.4971, 88.78412
281.9792, 87.52301
282.4613, 87.08508
282.9435, 86.86938
283.4256, 85.50714
283.9077, 82.09204
284.3898, 77.07117
284.8719, 73.37634
285.3540, 71.64850
285.8362, 69.82416
286.3183, 67.43988
286.8004, 64.78473
287.2825, 62.30811
287.7646, 60.28687
288.2467, 58.79669
288.7289, 57.75238
289.2110, 57.51349
289.6931, 56.77063
290.1752, 54.66180
290.6573, 52.19055
291.1394, 50.94995
291.6216, 51.66479
292.1037, 53.51514
292.5858, 54.71326
293.0679, 55.59662
293.5500, 54.74591
294.0321, 50.69885
294.5143, 45.52954
294.9964, 41.34955
295.4785, 38.69031
295.9606, 37.13739
296.4427, 36.22742
296.9248, 36.19476
297.4070, 36.02106
297.8891, 35.62994
298.3712, 35.11530
298.8533, 34.55518
299.3354, 33.96942
299.8175, 33.30530
300.2997, 32.42236
300.7818, 31.22522
301.2639, 30.60754
301.7460, 31.06390
302.2281, 31.69135
302.7102, 31.93518
303.1924, 31.76562
303.6745, 31.33905
304.1566, 30.67987
304.6387, 29.83368
305.1208, 29.40759
305.6029, 29.90472
306.0851, 30.29254
306.5672, 29.67633
307.0493, 28.44543
307.5314, 27.87018
308.0135, 28.77899
308.4956, 30.81903
308.9778, 32.40698
309.4599, 33.71851
309.9420, 34.44910
310.4241, 34.01123
310.9062, 32.96173
311.3883, 32.48193
311.8705, 33.13354
312.3526, 34.34857
312.8347, 34.84900
313.3168, 34.41064
313.7989, 33.84296
314.2810, 32.79095
314.7632, 31.88959
315.2453, 32.35718
315.7274, 34.59631
316.2095, 37.04010
316.6916, 37.41608
317.1737, 35.17072
317.6559, 33.31570
318.1380, 32.45874
318.6201, 31.87979
319.1022, 30.99066
319.5843, 29.71121
320.0664, 28.06119
320.5485, 25.80521
321.0306, 22.89844
321.5128, 21.30734
321.9949, 22.37891
322.4770, 23.58124
322.9591, 23.01382
323.4412, 20.95029
323.9233, 19.14853
324.4055, 18.92584
324.8876, 19.95740
325.3697, 19.86942
325.8518, 17.04068
326.3339, 14.99646
326.8160, 16.03983
327.2982, 18.83017
327.7803, 20.29694
328.2624, 18.86258
328.7445, 15.66632
329.2266, 13.75787
329.7087, 13.85812
330.1909, 13.63300
330.6730, 12.18320
331.1551, 10.35583
331.6372, 9.397186
332.1193, 9.678284
332.6014, 10.34433
333.0836, 10.15594
333.5657, 8.751221
334.0478, 7.496307
334.5299, 6.241882
335.0120, 5.298157
335.4941, 4.975830
335.9763, 5.275482
336.4584, 5.986786
336.9405, 6.921478
337.4226, 8.148438
337.9047, 9.475830
338.3868, 12.21863
338.8690, 13.85895
339.3511, 12.23056
339.8332, 8.245544
340.3153, 4.825989
340.7974, 3.860413
341.2795, 4.822205
341.7617, 4.729553
342.2438, 2.202545
342.7259, 0.4536440
343.2080, 0.8797300
343.6901, 2.365326
344.1722, 3.216888
344.6544, 2.733093
345.1365, 1.476440
345.6186, 0.5578610
346.1007, 4.5074001E-02
346.5828, 0.3523860
347.0649, 0.2811580
347.5471, 7.7271000E-02
348.0292, 0.8509520
348.5113, 1.972321
348.9934, 2.930054
349.4755, 3.050659
349.9576, 2.037476
350.4398, 1.375244
350.9219, 1.287598
351.4040, 1.285248
351.8861, 1.118103
352.3682, 0.8023380
352.8503, 0.4301150
353.3325, 8.5140001E-03
353.8146, 0.4168090
354.2967, 0.1362920
354.7788, 1.651642
355.2609, 3.139496
355.7430, 3.983459
356.2252, 4.312866
356.7073, 4.202362
357.1894, 3.729523
357.6715, 3.012390
358.1536, 2.278290
358.6357, 0.9906010
359.1179, 0.5876460
359.5999, 1.733704
360.0821, 3.329193
360.5642, 4.661865
361.0463, 5.510406
361.5284, 5.855194
362.0105, 5.591400
362.4926, 4.617706
362.9748, 3.438385
363.4569, 1.551086
363.9390, 4.9621999E-02
364.4211, 0.8162540
364.9032, 0.9159850
365.3853, 0.8478390
365.8675, 0.9954220
366.3496, 1.307983
366.8317, 1.357727
367.3138, 1.049500
367.7959, 0.5744930
368.2780, 2.8960999E-02
368.7602, 0.7521060
369.2423, 1.644226
369.7244, 2.736206
370.2065, 3.871033
370.6886, 4.791199
371.1707, 5.586334
371.6529, 5.898804
372.1350, 5.438202
372.6171, 4.707123
373.0992, 3.884705
373.5813, 3.045227
374.0634, 2.388824
374.5456, 2.172668
375.0277, 2.389618
375.5098, 2.682312
375.9919, 3.468567
376.4740, 3.867737
376.9561, 3.079742
377.4383, 1.607910
377.9204, 0.6310420
378.4025, 0.9820860
378.8846, 2.179474
379.3667, 2.881927
379.8488, 2.981537
380.3310, 3.032776
380.8131, 3.446198
381.2952, 3.743256
381.7773, 3.242859
382.2594, 1.649689
382.7415, 6.3385002E-02
383.2237, 0.1256410
383.7058, 1.058868
384.1879, 1.886292
384.6700, 1.899261
385.1521, 1.464142
385.6342, 0.7046510
386.1164, 0.3262330
386.5985, 0.9223630
387.0806, 0.3292240
387.5627, 0.9695740
388.0448, 1.729614
388.5269, 1.702637
389.0091, 1.619629
389.4912, 2.235016
389.9733, 3.206909
390.4554, 3.748383
390.9375, 3.665222
391.4196, 3.116547
391.9018, 1.958374
392.3839, 0.2867430
392.8660, 1.019562
393.3481, 1.731567
393.8302, 1.659271
394.3123, 0.2442630
394.7945, 3.189514
395.2766, 5.706543
395.7587, 5.755005
396.2408, 4.240509
396.7229, 2.412262
397.2050, 0.4380800
397.6872, 1.136230
398.1693, 1.576935
398.6514, 0.7448730
399.1335, 7.7789001E-02
399.6156, 0.2238770
400.0977, 0.4451900
400.5798, 0.9797670
401.0620, 1.700714
401.5441, 1.929504
402.0262, 1.121948
402.5083, 0.4279480
402.9904, 1.167175
403.4725, 0.7016910
403.9547, 5.2094001E-02
404.4368, 0.6589050
404.9189, 1.433533
405.4010, 2.334290
405.8831, 3.361572
406.3652, 4.353821
406.8474, 5.127777
407.3295, 5.894867
407.8116, 5.677734
408.2937, 3.195801
408.7758, 0.9837040
409.2579, 0.9241940
409.7401, 2.509277
410.2222, 3.758148
410.7043, 3.123413
411.1864, 0.8927610
411.6685, 0.3994450
412.1506, 0.2213440
412.6328, 0.6804810
413.1149, 0.1237180
413.5970, 0.4972230
414.0791, 0.2037350
414.5612, 2.634247
415.0433, 5.398987
415.5255, 6.154663
416.0076, 4.158356
416.4897, 2.724457
416.9718, 2.688019
417.4539, 2.732330
417.9360, 2.031403
418.4182, 0.8007200
418.9003, 5.3192001E-02
419.3824, 0.2631840
419.8645, 1.456879
420.3466, 2.216339
420.8287, 2.376038
421.3109, 2.417267
421.7930, 2.654572
422.2751, 2.825470
422.7572, 2.524017
423.2393, 1.509369
423.7214, 0.5853880
424.2036, 0.7939150
424.6857, 2.099518
425.1678, 3.380280
425.6499, 4.701721
426.1320, 5.501038
426.6141, 5.021545
427.0963, 3.443359
427.5784, 2.156586
428.0605, 2.113678
428.5426, 2.566864
429.0247, 2.283844
429.5068, 1.155914
429.9890, 1.2665000E-02
430.4711, 0.8525700
430.9532, 1.291443
431.4353, 1.301849
431.9174, 0.9544070
432.3995, 6.9550000E-02
432.8817, 2.149689
433.3638, 4.902618
433.8459, 6.368896
434.3280, 5.894897
434.8101, 4.515503
435.2922, 3.664459
435.7744, 3.574158
436.2565, 3.028076
436.7386, 1.390961
437.2207, 0.2369380
437.7028, 1.179962
438.1849, 1.408630
438.6671, 1.027191
439.1492, 1.7426001E-02
439.6313, 1.446655
440.1134, 2.331512
440.5955, 1.960144
441.0776, 1.847321
441.5598, 2.575043
442.0418, 3.444061
442.5240, 3.616058
443.0061, 2.936920
443.4882, 2.059631
443.9703, 1.796448
444.4524, 2.235565
444.9345, 2.689209
445.4167, 3.264771
445.8988, 3.732147
446.3809, 4.015533
446.8630, 4.119019
447.3451, 4.012482
447.8272, 3.617981
448.3094, 3.145844
448.7915, 3.201233
449.2736, 3.997681
449.7557, 4.694733
450.2378, 5.317657
450.7199, 5.577209
451.2021, 4.898346
451.6842, 3.377045
452.1663, 2.377228
452.6484, 3.357605
453.1305, 5.775330
453.6126, 7.380615
454.0948, 8.116882
454.5769, 7.984375
455.0590, 5.796417
455.5411, 2.662964
456.0232, 0.8174440
456.5053, 1.426453
456.9875, 2.783661
457.4696, 3.582916
457.9517, 3.899170
458.4338, 4.083527
458.9159, 4.216858
459.3980, 4.334717
459.8802, 4.567444
460.3623, 4.952515
460.8444, 4.937531
461.3265, 4.006226
461.8086, 3.012177
462.2907, 2.708862
462.7729, 3.100372
463.2550, 3.854492
463.7371, 4.835419
464.2192, 5.890350
464.7013, 6.215820
465.1834, 4.763458
465.6656, 3.979401
466.1477, 4.897064
466.6298, 6.301727
467.1119, 6.935974
467.5940, 6.498047
468.0761, 5.375763
468.5583, 3.850006
469.0404, 1.638458
469.5225, 0.6878360
470.0046, 2.839722
470.4867, 4.451324
470.9688, 3.692688
471.4510, 1.772705
471.9331, 0.8786010
472.4152, 2.051300
472.8973, 4.327454
473.3794, 6.018921
473.8615, 7.121124
474.3437, 7.665466
474.8258, 7.469940
475.3079, 6.801880
475.7900, 5.552155
476.2721, 3.878601
476.7542, 2.413849
477.2364, 1.570801
477.7185, 1.247131
478.2006, 1.332825
478.6827, 1.932526
479.1648, 2.295929
479.6469, 1.752319
480.1291, 0.9313050
480.6112, 0.8119810
481.0933, 1.589966
481.5754, 2.523590
482.0575, 3.338135
482.5396, 4.030762
483.0217, 4.616913
483.5038, 5.113068
483.9860, 5.321686
484.4681, 4.929657
484.9502, 3.911652
485.4323, 3.391907
485.9144, 3.973938
486.3965, 4.380005
486.8787, 3.602661
487.3608, 2.352631
487.8429, 2.104767
488.3250, 3.451630
488.8071, 5.409485
489.2892, 6.158447
489.7714, 4.911163
490.2535, 4.511963
490.7356, 6.183105
491.2177, 7.384521
491.6998, 6.202301
492.1819, 3.464478
492.6641, 1.355133
493.1462, 1.303497
493.6283, 2.724884
494.1104, 4.066193
494.5925, 5.581604
495.0746, 6.277985
495.5568, 5.123840
496.0389, 3.640961
496.5210, 2.806946
497.0031, 2.752411
497.4852, 3.107117
497.9673, 4.069427
498.4495, 5.215973
498.9316, 5.202850
499.4137, 3.772095
499.8958, 2.159027
500.3779, 0.8374330
500.8600, 0.1131590
501.3422, 0.5961300
501.8243, 0.6000370
502.3064, 0.1676640
502.7885, 0.9830320
503.2706, 2.483246
503.7527, 3.839722
504.2349, 4.955597
504.7170, 5.414490
505.1991, 4.642761
505.6812, 2.537781
506.1633, 1.194977
506.6454, 1.007782
507.1276, 1.058228
507.6097, 0.7567440
508.0918, 0.5445860
508.5739, 1.470337
509.0560, 3.856659
509.5381, 6.374329
510.0203, 6.780640
510.5024, 4.369568
510.9845, 2.268433
511.4666, 7.5499997E-02
511.9487, 1.403168
512.4308, 1.651184
512.9130, 0.9642640
513.3951, 0.1642150
513.8772, 1.595917
514.3593, 3.010071
514.8414, 3.677490
515.3235, 3.469635
515.8057, 3.553711
516.2878, 4.734161
516.7699, 5.721863
517.2520, 5.177582
517.7341, 3.324371
518.2162, 1.814941
518.6984, 1.743195
519.1805, 2.214111
519.6626, 1.921143
520.1447, 0.9654240
520.6268, 0.2781980
521.1089, 0.3115840
521.5911, 0.8641660
522.0732, 1.584839
522.5553, 2.693542
523.0374, 3.341553
523.5195, 3.179504
524.0016, 2.645355
524.4838, 1.966461
524.9659, 1.254425
525.4480, 0.6853330
525.9301, 0.3658450
526.4122, 0.3303220
526.8943, 0.8002010
527.3765, 2.640808
527.8586, 3.717102
528.3407, 3.203613
528.8228, 2.335693
529.3049, 2.260376
529.7870, 2.991241
530.2692, 3.571625
530.7513, 2.912201
531.2334, 1.337708
531.7155, 0.9538570
532.1976, 2.434143
532.6797, 3.538818
533.1619, 2.594971
533.6440, 1.156830
534.1261, 0.9422610
534.6082, 2.345215
535.0903, 3.790314
535.5724, 4.470245
536.0546, 4.420807
536.5367, 3.362122
537.0188, 1.154205
537.5009, 0.5852660
537.9830, 0.4437260
538.4651, 1.185760
538.9473, 1.989502
539.4294, 1.112854
539.9115, 0.5423580
540.3936, 0.9667050
540.8757, 1.932281
541.3578, 3.036652
541.8400, 4.127563
542.3221, 5.019287
542.8042, 5.554565
543.2863, 5.738220
543.7684, 5.263428
544.2505, 3.418884
544.7326, 1.756439
545.2147, 0.3787230
545.6968, 0.5704040
546.1790, 0.8000180
546.6611, 0.2836610
547.1432, 0.4186100
547.6253, 0.6945800
548.1074, 0.5855100
548.5895, 0.5393370
549.0717, 0.5616150
549.5538, 0.6744380
550.0359, 1.024780
550.5180, 1.438629
551.0001, 1.597076
551.4822, 1.276276
551.9644, 1.121857
552.4465, 1.913269
552.9286, 3.086548
553.4107, 3.238098
553.8928, 2.068787
554.3749, 0.9987790
554.8571, 1.403931
555.3392, 3.232758
555.8213, 4.428040
556.3034, 5.070862
556.7855, 5.090790
557.2676, 3.894257
557.7498, 2.339996
558.2319, 1.358185
558.7140, 1.168610
559.1961, 1.608521
559.6782, 2.781342
560.1603, 4.737518
560.6425, 5.292450
561.1246, 2.853485
561.6067, 1.146637
562.0888, 2.119965
562.5709, 3.950104
563.0530, 4.381561
563.5352, 2.834381
564.0173, 1.136139
564.4994, 1.012085
564.9815, 2.002106
565.4636, 2.556000
565.9457, 2.468231
566.4279, 2.298218
566.9100, 2.463928
567.3921, 2.802460
567.8742, 2.718201
568.3563, 1.660431
568.8384, 1.095703
569.3206, 2.018677
569.8027, 3.353424
570.2848, 3.880066
570.7669, 3.504028
571.2490, 2.940582
571.7311, 2.710541
572.2133, 2.784363
572.6954, 3.114349
573.1775, 4.069489
573.6596, 4.771454
574.1417, 5.531952
574.6238, 5.731659
575.1060, 4.330017
575.5881, 1.514679
576.0702, 0.9122620
576.5523, 1.290955
577.0344, 9.9182002E-02
577.5165, 1.008881
577.9987, 2.098511
578.4808, 2.756683
578.9629, 2.574615
579.4450, 2.048370
579.9271, 1.826935
580.4092, 1.928772
580.8914, 2.233978
581.3735, 2.882355
581.8556, 3.596283
582.3377, 4.098969
582.8198, 4.367615
583.3019, 4.446442
583.7841, 4.353058
584.2662, 4.115234
584.7483, 3.787567
585.2304, 3.065948
585.7125, 2.756104
586.1946, 3.298615
586.6768, 3.841461
587.1589, 3.875977
587.6410, 3.440247
588.1231, 2.802124
588.6052, 2.122833
589.0873, 1.505402
589.5695, 1.218109
590.0516, 1.321716
590.5337, 1.370056
591.0158, 1.002991
591.4979, 0.8957520
591.9800, 1.968506
592.4622, 3.860718
592.9443, 5.013336
593.4264, 4.298553
593.9085, 3.264832
594.3906, 3.258423
594.8727, 3.952057
595.3549, 4.453400
595.8370, 4.581451
596.3191, 4.424164
596.8012, 3.928009
597.2833, 3.005188
597.7654, 2.286255
598.2476, 1.674896
598.7297, 1.379211
599.2118, 1.712311
599.6939, 2.358582
600.1760, 2.670166
600.6581, 2.613983
601.1403, 2.576874
601.6224, 2.977234
602.1045, 3.807220
602.5866, 4.814758
603.0687, 5.891479
603.5508, 7.302826
604.0330, 10.36511
604.5151, 13.43277
604.9972, 13.92847
605.4793, 10.91501
605.9614, 8.186737
606.4435, 8.371887
606.9257, 9.699646
607.4078, 9.543854
607.8899, 7.814301
608.3720, 5.754700
608.8541, 4.169373
609.3362, 3.086304
609.8184, 2.516632
610.3005, 2.547516
610.7826, 3.035706
611.2647, 4.816284
611.7468, 6.312256
612.2289, 6.290009
612.7111, 5.110718
613.1932, 3.907318
613.6753, 3.308899
614.1574, 3.065735
614.6395, 2.621552
615.1216, 1.911652
615.6038, 1.760681
616.0859, 2.833160
616.5680, 3.747955
617.0501, 2.795868
617.5322, 0.6351620
618.0143, 0.4295040
618.4965, 0.9646300
618.9786, 2.561737
619.4607, 2.981659
619.9428, 2.670502
620.4249, 2.305145
620.9070, 2.080475
621.3892, 2.220917
621.8713, 3.088226
622.3534, 4.664764
622.8355, 5.178772
623.3176, 3.480286
623.7997, 2.163879
624.2819, 1.727234
624.7640, 1.756409
625.2461, 1.993134
625.7282, 2.342316
626.2103, 2.645111
626.6924, 2.648285
627.1745, 2.572937
627.6566, 3.179291
628.1387, 4.560913
628.6208, 5.259827
629.1030, 4.481903
629.5851, 3.056366
630.0672, 2.162628
630.5493, 1.803162
631.0314, 1.540924
631.5135, 1.011383
631.9957, 0.8410640
632.4778, 1.571869
632.9599, 2.937988
633.4420, 4.596497
633.9241, 6.309143
634.4063, 7.549255
634.8884, 7.400299
635.3705, 5.530975
635.8526, 4.559662
636.3347, 5.434418
636.8168, 5.873322
637.2990, 4.591736
637.7811, 2.726563
638.2632, 1.632996
638.7453, 1.606750
639.2274, 2.003265
639.7095, 2.718231
640.1917, 3.439545
640.6738, 3.395020
641.1559, 2.588501
641.6380, 2.206604
642.1201, 3.090027
642.6022, 4.445221
643.0844, 4.399841
643.5665, 1.852325
644.0486, 0.1739200
644.5307, 0.6028440
645.0128, 0.5491940
645.4949, 1.027222
645.9771, 3.269623
646.4592, 4.511200
646.9413, 3.990875
647.4234, 2.783752
647.9055, 2.433777
648.3876, 2.920349
648.8698, 3.278168
649.3519, 3.479828
649.8340, 3.429077
650.3161, 2.573364
650.7982, 1.552307
651.2803, 1.873718
651.7625, 4.491913
652.2446, 6.235046
652.7267, 5.065857
653.2088, 2.895386
653.6909, 1.768555
654.1730, 1.763458
654.6552, 2.117004
655.1373, 2.419403
655.6194, 2.516785
656.1015, 1.824188
656.5836, 0.4534300
657.0657, 1.453125
657.5479, 0.5348510
658.0300, 2.345123
658.5121, 2.387726
658.9942, 1.299469
659.4763, 0.4480900
659.9584, 0.3132630
660.4406, 0.4211730
660.9227, 0.5070500
661.4048, 0.4901430
661.8869, 5.8837999E-02
662.3690, 1.218506
662.8511, 1.887848
663.3333, 1.086823
663.8154, 0.6935120
664.2975, 1.385651
664.7796, 0.4784240
665.2617, 1.362579
665.7438, 0.3906860
666.2260, 0.8878780
666.7081, 1.436554
667.1902, 1.388245
667.6723, 1.378387
668.1544, 1.747589
668.6365, 2.256866
669.1187, 2.609680
669.6008, 2.803619
670.0829, 2.584625
670.5650, 1.725586
671.0471, 0.9039610
671.5292, 0.2018430
672.0114, 4.9439999E-03
672.4935, 1.575836
672.9756, 6.474213
673.4577, 10.42435
673.9398, 11.53970
674.4219, 11.54001
674.9041, 11.99020
675.3862, 12.96576
675.8683, 13.73166
676.3504, 13.84744
676.8325, 13.83606
677.3146, 15.21994
677.7968, 18.44821
678.2789, 20.84280
678.7610, 21.27383
679.2431, 21.92538
679.7252, 24.47174
680.2073, 28.11945
680.6895, 31.11319
681.1716, 32.86243
681.6537, 34.46744
682.1358, 36.29340
682.6179, 38.47363
683.1000, 40.98532
683.5822, 43.94809
684.0643, 47.97375
684.5464, 53.44061
685.0285, 60.32632
685.5106, 68.50247
685.9927, 77.46866
686.4749, 88.85571
686.9570, 102.3864
687.4391, 118.6885
687.9212, 139.0792
688.4033, 162.2595
688.8854, 186.4500
689.3676, 211.6401
689.8497, 235.2473
690.3318, 256.2529
690.8139, 273.7329
691.2960, 285.4063
691.7781, 291.1360
692.2603, 291.9700
692.7424, 287.9644
693.2245, 280.5831
693.7066, 273.7411
694.1887, 269.6218
694.6708, 261.4240
695.1530, 248.0520
695.6351, 232.1274
696.1172, 213.3536
696.5993, 193.3030
697.0814, 173.5833
697.5635, 154.6810
698.0457, 139.2232
698.5278, 129.6580
699.0099, 125.6380
699.4920, 126.5745
699.9741, 132.5866
700.4562, 141.2007
700.9384, 152.3013
701.4205, 163.7348
701.9026, 171.2953
702.3847, 175.3901
702.8668, 173.7715
703.3489, 163.5394
703.8311, 150.6432
704.3132, 136.3241
704.7953, 121.8592
705.2774, 108.3299
705.7595, 96.19290
706.2416, 85.85382
706.7238, 78.26340
707.2059, 73.18448
707.6880, 69.75183
708.1701, 68.16995
708.6522, 67.17880
709.1343, 66.45007
709.6164, 65.71213
710.0985, 64.81479
710.5806, 64.02213
711.0627, 61.46848
711.5449, 56.16440
712.0270, 49.98734
712.5091, 43.03931
712.9912, 36.13589
713.4733, 30.40894
713.9554, 26.03842
714.4376, 22.23450
714.9197, 18.04706
715.4018, 15.40918
715.8839, 11.57147
716.3660, 11.00629
716.8481, 10.42654
717.3303, 9.249969
717.8124, 7.870117
718.2945, 6.618439
718.7766, 5.523224
719.2587, 4.835266
719.7408, 4.734406
720.2230, 4.680847
720.7051, 4.629333
721.1872, 4.600952
721.6693, 4.409454
722.1514, 4.055389
722.6335, 3.968903
723.1157, 4.598755
723.5978, 5.635284
724.0799, 5.808899
724.5620, 4.996979
725.0441, 4.335876
725.5262, 4.243011
726.0084, 4.010498
726.4905, 2.944336
726.9726, 1.374207
727.4547, 0.6499630
727.9368, 1.577026
728.4189, 2.194183
728.9011, 1.356476
729.3832, 0.3618470
729.8653, 0.5668030
730.3474, 1.792328
730.8295, 3.155914
731.3116, 4.200592
731.7938, 4.896545
732.2759, 5.159576
732.7580, 4.985352
733.2401, 4.594421
733.7222, 3.988159
734.2043, 3.176239
734.6865, 1.817047
735.1686, 0.4089660
735.6507, 0.1574100
736.1328, 1.597015
736.6149, 2.337463
737.0970, 1.019165
737.5792, 0.3389280
738.0613, 0.2586670
738.5434, 0.8230290
739.0255, 1.952026
739.5076, 2.780518
739.9897, 3.411530
740.4719, 3.940247
740.9540, 4.369080
741.4361, 4.848450
741.9182, 5.475922
742.4003, 5.592987
742.8824, 4.677277
743.3646, 3.459442
743.8467, 3.108093
744.3288, 3.584564
744.8109, 3.367767
745.2930, 1.204742
745.7751, 0.3554690
746.2573, 0.3522640
746.7394, 1.871979
747.2215, 2.234009
747.7036, 1.369141
748.1857, 0.9529420
748.6678, 2.535980
749.1500, 4.915985
749.6321, 5.134888
750.1142, 3.194946
750.5963, 1.636169
751.0784, 0.9700620
751.5605, 0.7529600
752.0427, 0.7793270
752.5248, 0.9651180
753.0069, 0.8233030
753.4890, 0.3837890
753.9711, 0.7508850
754.4532, 0.9022220
754.9354, 2.639679
755.4175, 3.019348
755.8996, 2.346344
756.3817, 1.537018
756.8638, 0.9575500
757.3459, 0.5614010
757.8281, 0.1135560
758.3102, 0.2088010
758.7923, 0.6831360
759.2744, 2.952332
759.7565, 4.225372
760.2386, 3.078583
760.7208, 0.8168950
761.2029, 0.2968140
761.6850, 9.9243000E-02
762.1671, 0.1766360
762.6492, 0.8034360
763.1313, 1.191437
763.6135, 0.4271550
764.0956, 2.369507
764.5777, 2.547607
765.0598, 0.8563540
765.5419, 0.8400570
766.0240, 1.394379
766.5062, 1.219940
766.9883, 0.7574160
767.4704, 5.1514000E-02
767.9525, 0.7523800
768.4346, 1.636475
768.9167, 2.299347
769.3989, 2.447662
769.8810, 2.151398
770.3631, 1.822662
770.8452, 1.272949
771.3273, 1.033783
771.8094, 1.300354
772.2916, 1.715027
772.7737, 2.042084
773.2558, 2.386047
773.7379, 3.169525
774.2200, 4.786560
774.7021, 5.658081
775.1843, 4.013489
775.6664, 1.434845
776.1485, 0.1114200
776.6306, 0.5374450
777.1127, 0.1408390
777.5948, 0.9664920
778.0770, 2.284668
778.5591, 3.071442
779.0412, 3.310364
779.5233, 3.357941
780.0054, 3.005463
780.4875, 2.921539
780.9697, 4.026367
781.4518, 4.945465
781.9339, 3.710205
782.4160, 0.5981750
782.8981, 0.9006350
783.3802, 1.676086
783.8624, 4.192474
784.3445, 4.362030
784.8266, 3.347595
785.3087, 2.581177
785.7908, 2.259247
786.2729, 1.806061
786.7551, 0.7502140
787.2372, 0.3220830
787.7193, 5.7831001E-02
788.2014, 1.868896
788.6835, 2.948059
789.1656, 2.837585
789.6478, 2.785156
790.1299, 3.661285
790.6120, 5.076385
791.0941, 5.838470
791.5762, 5.737000
792.0583, 5.847321
792.5404, 6.716583
793.0225, 7.265167
793.5046, 6.925934
793.9868, 6.020813
794.4689, 4.731354
794.9510, 3.219421
795.4331, 2.122253
795.9152, 2.401489
796.3973, 3.183380
796.8795, 2.627930
797.3616, 1.099060
797.8437, 0.5287170
798.3258, 1.416138
798.8079, 2.759247
799.2900, 3.819000
799.7722, 4.486969
800.2543, 3.976044
800.7364, 0.7879940
801.2185, 0.5199890
801.7006, 2.804749
802.1827, 5.672699
802.6649, 4.877594
803.1470, 2.192993
803.6291, 1.081207
804.1112, 2.634796
804.5933, 4.061432
805.0754, 3.700012
805.5576, 2.768524
806.0397, 2.420380
806.5218, 2.550018
807.0039, 2.553162
807.4860, 2.269562
807.9681, 2.398865
808.4503, 4.069580
808.9324, 6.731506
809.4145, 6.999420
809.8966, 4.341980
810.3787, 2.683899
810.8608, 3.404175
811.3430, 4.599060
811.8251, 4.591248
812.3072, 3.652496
812.7893, 3.103516
813.2714, 3.020142
813.7535, 3.188110
814.2357, 3.922607
814.7178, 4.576202
815.1999, 4.568390
815.6820, 4.154114
816.1641, 3.998230
816.6462, 4.395142
817.1284, 4.602631
817.6105, 3.548767
818.0926, 2.020691
818.5747, 1.419373
819.0568, 1.750610
819.5389, 3.181732
820.0211, 5.810577
820.5032, 8.251038
820.9853, 8.967926
821.4674, 8.178101
821.9495, 7.500610
822.4316, 7.234833
822.9138, 6.365082
823.3959, 3.925201
823.8780, 1.532532
824.3601, 0.1906130
824.8422, 0.2270510
825.3243, 5.3009000E-02
825.8065, 0.8125310
826.2886, 1.766876
826.7707, 2.892548
827.2528, 3.751953
827.7349, 3.735596
828.2170, 3.176971
828.6992, 2.848328
829.1813, 3.017670
829.6634, 3.344025
830.1455, 3.321106
830.6276, 3.188141
831.1097, 4.078247
831.5919, 5.956573
832.0740, 6.896057
832.5561, 6.249268
833.0382, 4.853210
833.5203, 3.252167
834.0024, 1.587769
834.4846, 1.049316
834.9667, 2.756409
835.4488, 3.884308
835.9309, 3.758118
836.4130, 3.576050
836.8951, 4.136963
837.3773, 5.017334
837.8594, 5.436066
838.3415, 5.208923
838.8236, 4.664093
839.3057, 3.416260
839.7878, 2.397827
840.2700, 2.806396
840.7521, 4.032013
841.2342, 4.945892
841.7163, 5.163208
842.1984, 5.193604
842.6805, 5.485535
843.1627, 5.962280
843.6448, 6.610657
844.1269, 7.464081
844.6090, 7.078949
845.0911, 4.778717
845.5732, 2.761841
846.0554, 2.814697
846.5375, 4.020294
847.0196, 3.647034
847.5017, 0.2214050
847.9838, 1.385406
848.4659, 0.4362180
848.9481, 2.142456
849.4302, 2.321442
849.9123, 1.669464
850.3944, 0.7237850
850.8765, 0.2872920
851.3586, 0.4234920
851.8408, 1.667938
852.3229, 3.950104
852.8050, 4.633698
853.2871, 4.345490
853.7692, 4.032593
854.2513, 3.883026
854.7335, 3.832031
855.2156, 3.850739
855.6977, 3.847473
856.1798, 3.495667
856.6619, 2.822998
857.1440, 3.059875
857.6262, 4.543121
858.1083, 5.402771
858.5904, 4.557281
859.0725, 3.103973
859.5546, 2.728058
860.0367, 3.531586
860.5189, 3.835907
861.0010, 2.928497
861.4831, 2.500977
861.9652, 3.207275
862.4473, 4.157898
862.9294, 4.624878
863.4116, 4.769806
863.8937, 5.281738
864.3758, 6.621887
864.8579, 7.518829
865.3400, 6.933411
865.8221, 5.647675
866.3043, 4.202393
866.7864, 2.866364
867.2685, 2.275146
867.7506, 2.580444
868.2327, 3.006805
868.7148, 2.659332
869.1970, 1.857269
869.6791, 1.800476
870.1612, 2.443604
870.6433, 2.738831
871.1254, 2.366913
871.6075, 2.008453
872.0897, 2.215973
872.5718, 2.888458
873.0539, 3.726746
873.5360, 5.086304
874.0181, 5.796539
874.5002, 5.244659
874.9823, 4.745087
875.4644, 4.963593
875.9465, 5.308655
876.4286, 4.951996
876.9108, 3.882721
877.3929, 3.112396
877.8750, 3.326141
878.3571, 3.678741
878.8392, 3.506287
879.3214, 3.259521
879.8035, 3.383484
880.2856, 3.828674
880.7677, 4.303162
881.2498, 4.680511
881.7319, 4.810547
882.2141, 4.392181
882.6962, 3.588257
883.1783, 2.709656
883.6604, 1.841614
884.1425, 1.720917
884.6246, 2.649963
885.1068, 4.478027
885.5889, 7.069031
886.0710, 10.22952
886.5531, 11.65677
887.0352, 10.86884
887.5173, 9.724274
887.9995, 8.246155
888.4816, 6.772766
888.9637, 5.374451
889.4458, 4.178986
889.9279, 3.357513
890.4100, 2.932648
890.8922, 2.802094
891.3743, 2.904846
891.8564, 3.347443
892.3385, 4.680878
892.8206, 6.063751
893.3027, 6.187347
893.7849, 5.293396
894.2670, 5.088776
894.7491, 6.604797
895.2312, 8.784973
895.7133, 11.29077
896.1954, 13.49005
896.6776, 13.78329
897.1597, 12.63217
897.6418, 12.12723
898.1239, 13.18030
898.6060, 15.55325
899.0881, 19.17578
899.5703, 23.83414
900.0524, 28.91934
900.5345, 34.53601
901.0166, 38.43488
901.4987, 40.27087
901.9808, 39.49957
902.4630, 35.21375
902.9451, 28.31436
903.4272, 21.92548
903.9093, 15.96872
904.3914, 10.64743
904.8735, 5.320374
905.3557, 1.447754
905.8378, 0.1135560
906.3199, 0.1897580
906.8020, 0.5954900
907.2841, 2.093719
907.7662, 3.062164
908.2484, 2.705444
908.7305, 2.387878
909.2126, 2.740967
909.6947, 3.318146
910.1768, 3.949829
910.6589, 4.384918
911.1411, 3.940155
911.6232, 2.326599
912.1053, 1.077759
912.5874, 2.129883
913.0695, 3.979034
913.5516, 4.124481
914.0338, 3.042450
914.5159, 2.448761
914.9980, 2.709076
915.4801, 2.923492
915.9622, 2.390656
916.4443, 1.425934
916.9265, 0.6498720
917.4086, 4.8523001E-02
917.8907, 2.9358000E-02
918.3728, 0.4981990
918.8549, 1.411377
919.3370, 2.831543
919.8192, 4.132416
920.3013, 4.422821
920.7834, 3.679657
921.2655, 2.714111
921.7476, 1.015411
922.2297, 6.7440001E-03
922.7119, 0.4021610
923.1940, 0.9916380
923.6761, 0.7918090
924.1582, 0.3101810
924.6403, 0.8456420
925.1224, 2.995605
925.6046, 3.990479
926.0867, 2.107208
926.5688, 7.4248999E-02
927.0509, 0.8129880
927.5330, 0.9509280
928.0151, 0.8479610
928.4973, 0.5499880
928.9794, 0.2293090
929.4615, 1.871521
929.9436, 3.299927
930.4257, 3.506012
930.9078, 2.974182
931.3900, 2.021210
931.8721, 1.006897
932.3542, 1.028046
932.8363, 2.279541
933.3184, 3.594513
933.8005, 3.884888
934.2827, 3.270935
934.7648, 1.406738
935.2469, 1.514893
935.7290, 1.938843
936.2111, 0.8163760
936.6932, 3.398041
937.1754, 3.805634
937.6575, 2.959595
938.1396, 2.532928
938.6217, 2.573395
939.1038, 2.466980
939.5859, 2.016235
940.0681, 1.990326
940.5502, 3.179260
941.0323, 4.010956
941.5144, 2.647339
941.9965, 0.1107790
942.4786, 1.160400
942.9608, 0.4302670
943.4429, 1.399323
943.9250, 1.391724
944.4071, 1.070251
944.8892, 0.2936100
945.3713, 0.4101870
945.8535, 0.3078920
946.3356, 0.5335390
946.8177, 1.161407
947.2998, 1.154938
947.7819, 1.052795
948.2640, 1.009369
948.7462, 1.074585
949.2283, 1.519989
949.7104, 2.058228
950.1925, 1.935547
950.6746, 0.8910220
951.1567, 0.2009580
951.6389, 1.166901
952.1210, 2.706451
952.6031, 3.640503
953.0852, 4.021759
953.5673, 3.626343
954.0494, 2.699982
954.5316, 2.678253
955.0137, 4.389221
955.4958, 6.279785
955.9779, 5.476807
956.4600, 6.617188
956.9421, 7.217987
957.4242, 6.100922
957.9063, 7.365265
958.3884, 5.595703
958.8705, 3.168762
959.3527, 1.911713
959.8348, 1.610840
960.3169, 1.848053
960.7990, 2.874359
961.2811, 2.911621
961.7632, 1.311676
962.2454, 0.5325620
962.7275, 1.998779
963.2096, 4.003662
963.6917, 4.513824
964.1738, 3.641846
964.6559, 2.825287
965.1381, 1.853119
965.6202, 1.286316
966.1023, 1.325256
966.5844, 1.554199
967.0665, 1.993988
967.5486, 2.412903
968.0308, 2.488892
968.5129, 2.205139
968.9950, 1.854614
969.4771, 1.371246
969.9592, 1.032623
970.4413, 0.6510310
970.9235, 0.6116640
971.4056, 1.792389
971.8877, 3.365448
972.3698, 3.483154
972.8519, 1.644958
973.3340, 7.4553996E-02
973.8162, 0.4903870
974.2983, 0.3356630
974.7804, 5.0446000E-02
975.2625, 0.4805910
975.7446, 0.6911930
976.2267, 0.7057190
976.7089, 0.6368100
977.1910, 0.5149540
977.6731, 0.6961980
978.1552, 2.129913
978.6373, 3.777740
979.1194, 3.500641
979.6016, 1.876587
980.0837, 0.6674800
980.5658, 0.3162540
981.0479, 0.7892150
981.5300, 2.131012
982.0121, 3.800140
982.4943, 4.848053
982.9764, 5.355316
983.4585, 5.896942
983.9406, 6.462006
984.4227, 6.164490
984.9048, 4.629181
985.3870, 2.761017
985.8691, 1.252625
986.3512, 0.2422790
986.8333, 0.3922420
987.3154, 1.905396
987.7975, 2.534882
988.2797, 2.000000
988.7618, 1.176819
989.2439, 0.1642150
989.7260, 0.4360960
990.2081, 0.3544920
990.6902, 2.273651
991.1724, 2.644104
991.6545, 0.1895450
992.1366, 0.7636410
992.6187, 1.294220
993.1008, 2.879425
993.5829, 1.994080
994.0651, 0.3968200
994.5472, 0.3855290
995.0293, 1.994537
995.5114, 2.599518
995.9935, 1.003510
996.4756, 9.5856003E-02
996.9578, 0.9181210
997.4399, 1.805298
997.9220, 1.967529
998.4041, 1.523346
998.8862, 0.4429630
999.3683, 1.288116
999.8505, 2.263184
1000.333, 1.756439
1000.815, 0.8556820
1001.297, 0.2146910
1001.779, 1.130096
1002.261, 1.568329
1002.743, 1.659912
1003.225, 1.647980
1003.707, 1.646240
1004.190, 1.720184
1004.672, 1.724854
1005.154, 1.906677
1005.636, 3.075897
1006.118, 4.065735
1006.600, 2.857239
1007.082, 0.2661130
1007.564, 0.9484860
1008.046, 0.2283630
1008.529, 1.626251
1009.011, 1.272552
1009.493, 2.185242
1009.975, 1.133606
1010.457, 2.268158
1010.939, 2.301147
1011.421, 1.256195
1011.903, 0.2011110
1012.385, 0.3506160
1012.868, 0.4459840
1013.350, 0.1855470
1013.832, 1.061249
1014.314, 1.111633
1014.796, 0.6489260
1015.278, 0.5900270
1015.760, 1.097626
1016.242, 2.049713
1016.725, 3.420746
1017.207, 4.584351
1017.689, 4.363800
1018.171, 4.870117
1018.653, 3.092316
1019.135, 3.731171
1019.617, 3.037628
1020.099, 0.6252750
1020.581, 1.213348
1021.064, 0.8781130
1021.546, 0.6770320
1022.028, 1.878693
1022.510, 2.712372
1022.992, 2.967865
1023.474, 2.635712
1023.956, 2.222595
1024.438, 1.820953
1024.921, 1.817474
1025.403, 2.656647
1025.885, 3.652618
1026.367, 2.835541
1026.849, 1.7578000E-02
1027.331, 0.7859800
1027.813, 0.9660030
1028.295, 2.251801
1028.777, 2.120789
1029.260, 1.901672
1029.742, 2.807007
1030.224, 4.208130
1030.706, 4.131958
1031.188, 2.011810
1031.670, 1.442688
1032.152, 3.191956
1032.634, 4.386780
1033.116, 4.069672
1033.599, 3.201660
1034.081, 2.443604
1034.563, 1.838898
1035.045, 1.472107
1035.527, 1.154816
1036.009, 1.860565
1036.491, 4.551575
1036.973, 6.388245
1037.456, 6.174500
1037.938, 5.330902
1038.420, 4.745026
1038.902, 4.535034
1039.384, 5.104004
1039.866, 6.807007
1040.348, 8.261810
1040.830, 8.834473
1041.313, 10.06601
1041.795, 13.34885
1042.277, 16.53891
1042.759, 17.38651
1043.241, 16.76865
1043.723, 17.65494
1044.205, 21.48480
1044.687, 22.89639
1045.169, 19.94907
1045.651, 16.82227
1046.134, 13.79483
1046.616, 11.79862
1047.098, 11.69812
1047.580, 13.19928
1048.062, 15.53116
1048.544, 18.50571
1049.026, 22.54712
1049.508, 27.68979
1049.991, 33.84415
1050.473, 38.98779
1050.955, 47.06638
1051.437, 62.77255
1051.919, 83.96841
1052.401, 105.4824
1052.883, 127.3398
1053.365, 145.8026
1053.848, 158.9537
1054.330, 170.0401
1054.812, 177.9111
1055.294, 186.3532
1055.776, 196.7352
1056.258, 210.6538
1056.740, 230.7773
1057.222, 257.3517
1057.704, 291.0870
1058.187, 331.0086
1058.669, 379.8026
1059.151, 436.1926
1059.633, 503.7973
1060.115, 578.2868
1060.597, 668.7376
1061.079, 786.8643
1061.561, 932.5431
1062.043, 1140.356
1062.526, 1439.220
1063.008, 1781.728
1063.490, 2258.024
1063.972, 2672.123
1064.454, 2895.999
1064.936, 2908.479
1065.418, 2658.690
1065.900, 2133.448
1066.383, 1601.909
1066.865, 1105.942
1067.347, 706.8398
1067.829, 454.6530
1068.311, 291.6064
1068.793, 192.7695
1069.275, 137.5265
1069.757, 102.6948
1070.240, 82.75482
1070.722, 68.77664
1071.204, 59.06735
1071.686, 51.90262
1072.168, 47.11185
1072.650, 43.88242
1073.132, 41.67975
1073.614, 40.46057
1074.096, 40.43390
1074.578, 41.51987
1075.061, 42.77518
1075.543, 42.86456
1076.025, 44.56091
1076.507, 49.70166
1076.989, 56.51730
1077.471, 64.40201
1077.953, 72.57004
1078.435, 79.87216
1078.918, 86.36475
1079.400, 93.10010
1079.882, 100.2449
1080.364, 108.1149
1080.846, 115.5916
1081.328, 125.2223
1081.810, 138.6425
1082.292, 155.5559
1082.774, 175.1953
1083.257, 197.7213
1083.739, 223.8037
1084.221, 252.2548
1084.703, 288.8583
1085.185, 337.6433
1085.667, 393.8153
1086.149, 452.9665
1086.631, 518.4064
1087.114, 591.1614
1087.596, 674.2978
1088.078, 781.5897
1088.560, 926.3846
1089.042, 1049.138
1089.524, 1151.749
1090.006, 1195.304
1090.488, 1136.401
1090.970, 1024.448
1091.453, 891.4979
1091.935, 752.0102
1092.417, 627.8782
1092.899, 523.8884
1093.381, 432.4824
1093.863, 351.3823
1094.345, 281.5342
1094.827, 225.4631
1095.309, 179.7078
1095.792, 143.3235
1096.274, 114.6551
1096.756, 91.62723
1097.238, 73.92407
1097.720, 59.41751
1098.202, 48.16235
1098.684, 38.92996
1099.166, 31.45099
1099.649, 25.72879
1100.131, 22.45377
1100.613, 20.56110
1101.095, 18.69632
1101.577, 16.66986
1102.059, 14.44125
1102.541, 11.35892
1103.023, 9.112579
1103.505, 8.778564
1103.988, 8.589905
1104.470, 7.715393
1104.952, 6.394836
1105.434, 4.661163
1105.916, 2.734955
1106.398, 1.539307
1106.880, 1.299500
1107.362, 1.547150
1107.844, 2.678314
1108.327, 3.700897
1108.809, 4.368011
1109.291, 4.669250
1109.773, 4.325806
1110.255, 3.645142
1110.737, 3.635742
1111.219, 4.754639
1111.701, 5.035095
1112.184, 3.429688
1112.666, 2.247284
1113.148, 2.537140
1113.630, 2.844147
1114.112, 1.778809
1114.594, 0.2620850
1115.076, 0.1836550
1115.558, 1.754395
1116.041, 2.665558
1116.523, 2.810486
1117.005, 2.436890
1117.487, 0.7717900
1117.969, 0.2565310
1118.451, 0.8057250
1118.933, 2.498718
1119.415, 2.979370
1119.897, 2.321625
1120.380, 1.340210
1120.862, 0.6404720
1121.344, 1.166870
1121.826, 0.6021730
1122.308, 2.232178
1122.790, 3.017792
1123.272, 3.075775
1123.754, 2.330078
1124.236, 1.062439
1124.719, 0.1616520
1125.201, 0.4751590
1125.683, 3.8483001E-02
1126.165, 1.916901
1126.647, 3.198883
1127.129, 3.144379
1127.611, 2.771271
1128.093, 2.705750
1128.576, 2.935089
1129.058, 3.609161
1129.540, 4.646179
1130.022, 4.070526
1130.504, 1.672180
1130.986, 0.2320860
1131.468, 0.2315370
1131.950, 0.5369870
1132.432, 0.6384890
1132.915, 0.5854800
1133.397, 0.4643550
1133.879, 0.2003170
1134.361, 0.7500310
1134.843, 2.253601
1135.325, 2.557495
1135.807, 1.575043
1136.289, 4.0619001E-02
1136.771, 2.056274
1137.254, 3.665039
1137.736, 4.214996
1138.218, 3.990845
1138.700, 2.967133
1139.182, 1.678528
1139.664, 2.568573
1140.146, 5.026825
1140.628, 6.230988
1141.111, 5.736450
1141.593, 4.553192
1142.075, 3.190643
1142.557, 2.204376
1143.039, 2.496796
1143.521, 3.344330
1144.003, 3.580811
1144.485, 3.412598
1144.968, 3.204529
1145.450, 3.003815
1145.932, 2.753143
1146.414, 2.445007
1146.896, 2.240936
1147.378, 2.528259
1147.860, 2.393921
1148.342, 3.6681999E-02
1148.824, 2.458099
1149.307, 2.356995
1149.789, 0.6831360
1150.271, 0.8894650
1150.753, 1.859192
1151.235, 1.665253
1151.717, 0.3252560
1152.199, 1.514801
1152.681, 0.4425660
1153.163, 2.680511
1153.646, 3.719696
1154.128, 3.728180
1154.610, 2.149261
1155.092, 1.8982001E-02
1155.574, 0.4922790
1156.056, 1.206238
1156.538, 2.537628
1157.020, 2.604431
1157.503, 2.449463
1157.985, 2.364471
1158.467, 2.147980
1158.949, 1.337524
1159.431, 0.5371400
1159.913, 0.6550900
1160.395, 1.596954
1160.877, 2.318451
1161.359, 2.772522
1161.842, 2.977448
1162.324, 2.964661
1162.806, 2.623566
1163.288, 1.342438
1163.770, 0.5205080
1164.252, 1.636414
1164.734, 3.614777
1165.216, 3.959808
1165.698, 2.505341
1166.181, 1.652863
1166.663, 1.439117
1167.145, 1.774933
1167.627, 2.809784
1168.109, 3.813385
1168.591, 4.427979
1169.073, 4.983063
1169.555, 6.038605
1170.037, 7.118347
1170.520, 6.026489
1171.002, 2.851196
1171.484, 1.072845
1171.966, 0.8229680
1172.448, 0.7905270
1172.930, 0.6446530
1173.412, 1.476105
1173.894, 4.150604
1174.377, 6.882660
1174.859, 6.806702
1175.341, 4.811096
1175.823, 2.898743
1176.305, 1.302612
1176.787, 0.7376710
1177.269, 1.102325
1177.751, 1.731262
1178.234, 2.341034
1178.716, 2.703735
1179.198, 2.497803
1179.680, 2.544250
1180.162, 4.149506
1180.644, 5.896240
1181.126, 5.583710
1181.608, 4.268158
1182.090, 3.908752
1182.573, 4.666351
1183.055, 5.733734
1183.537, 6.984924
1184.019, 7.820984
1184.501, 8.198181
1184.983, 7.707062
1185.465, 4.992523
1185.947, 2.396484
1186.429, 2.099945
1186.912, 3.222931
1187.394, 4.516113
1187.876, 5.772766
1188.358, 6.107361
1188.840, 4.343628
1189.322, 3.307343
1189.804, 3.994019
1190.286, 4.512085
1190.769, 3.784607
1191.251, 3.105164
1191.733, 3.849121
1192.215, 5.265839
1192.697, 5.411255
1193.179, 4.160919
1193.661, 3.586639
1194.143, 4.094208
1194.625, 3.733734
1195.108, 1.937866
1195.590, 0.3885800
1196.072, 0.1423950
1196.554, 0.1663510
1197.036, 1.288940
1197.518, 2.763123
1198.000, 2.740326
1198.482, 3.706299
1198.964, 4.094635
1199.447, 3.858917
1199.929, 4.262970
1200.411, 2.666687
1200.893, 1.623230
1201.375, 2.620605
1201.857, 4.164307
1202.339, 4.659515
1202.821, 4.516357
1203.304, 3.910034
1203.786, 3.363403
1204.268, 4.148254
1204.750, 5.710632
1205.232, 6.458191
1205.714, 6.070007
1206.196, 5.289368
1206.678, 4.190796
1207.161, 3.406219
1207.643, 3.480438
1208.125, 3.860321
1208.607, 4.197083
1209.089, 4.538696
1209.571, 5.334290
1210.053, 6.002869
1210.535, 5.152283
1211.017, 2.326019
1211.500, 0.6255190
1211.982, 1.370850
1212.464, 1.901581
1212.946, 0.9822690
1213.428, 0.9671020
1213.910, 3.874634
1214.392, 6.796173
1214.874, 6.789764
1215.356, 4.786255
1215.839, 3.625244
1216.321, 3.403320
1216.803, 2.984589
1217.285, 2.237305
1217.767, 2.353638
1218.249, 3.671082
1218.731, 4.459900
1219.213, 3.837463
1219.696, 2.977020
1220.178, 3.201843
1220.660, 4.026672
1221.142, 4.468719
1221.624, 4.522461
1222.106, 4.042023
1222.588, 3.172668
1223.070, 2.084930
1223.552, 1.081818
1224.035, 1.315979
1224.517, 3.352875
1224.999, 5.798309
1225.481, 7.643402
1225.963, 9.175720
1226.445, 10.85577
1226.927, 12.14774
1227.409, 12.58817
1227.891, 12.15356
1228.374, 10.53973
1228.856, 8.040588
1229.338, 6.119385
1229.820, 5.436096
1230.302, 4.425598
1230.784, 1.751526
1231.266, 1.8982001E-02
1231.748, 0.5887760
1232.231, 1.751953
1232.713, 2.778168
1233.195, 3.462189
1233.677, 3.468597
1234.159, 2.853790
1234.641, 2.006927
1235.123, 0.6302490
1235.605, 0.5930480
1236.088, 2.206116
1236.570, 3.683807
1237.052, 4.625092
1237.534, 4.894104
1238.016, 4.357483
1238.498, 3.478607
1238.980, 2.902985
1239.462, 2.491577
1239.944, 1.743408
1240.427, 0.8688960
1240.909, 0.5361020
1241.391, 0.6177980
1241.873, 0.8392330
1242.355, 1.023010
1242.837, 0.7284550
1243.319, 0.3878480
1243.801, 1.146698
1244.283, 0.2524720
1244.766, 0.8786620
1245.248, 1.241180
1245.730, 1.246521
1246.212, 1.194458
1246.694, 1.172607
1247.176, 1.323181
1247.658, 1.615601
1248.140, 1.668549
1248.622, 1.306671
1249.105, 0.9438170
1249.587, 0.2063600
1250.069, 0.1966550
1250.551, 1.818939
1251.033, 3.063171
1251.515, 2.492249
1251.997, 1.185669
1252.479, 0.8264470
1252.962, 1.141968
1253.444, 0.2986150
1253.926, 0.2603150
1254.408, 0.4453430
1254.890, 0.1934810
1255.372, 0.9548950
1255.854, 1.104492
1256.336, 1.475098
1256.818, 2.784943
1257.301, 3.700073
1257.783, 2.227966
1258.265, 0.1383360
1258.747, 1.9531000E-02
1259.229, 0.6150210
1259.711, 0.3027650
1260.193, 0.3371890
1260.675, 0.5257260
1261.157, 2.618958
1261.640, 3.397614
1262.122, 1.668060
1262.604, 0.6395260
1263.086, 1.290771
1263.568, 2.832703
1264.050, 6.378845
1264.532, 9.163788
1265.014, 9.180420
1265.497, 7.734344
1265.979, 6.744568
1266.461, 5.839569
1266.943, 4.164459
1267.425, 1.432770
1267.907, 0.1628720
1268.389, 0.4155580
1268.871, 1.695557
1269.354, 3.930542
1269.836, 5.062225
1270.318, 4.132446
1270.800, 2.713104
1271.282, 2.396484
1271.764, 2.570801
1272.246, 2.388824
1272.728, 1.974426
1273.210, 1.404755
1273.693, 0.8541870
1274.175, 1.135498
1274.657, 1.968781
1275.139, 2.554138
1275.621, 2.689728
1276.103, 3.013916
1276.585, 4.218781
1277.067, 4.936523
1277.549, 4.240662
1278.032, 3.558350
1278.514, 3.976166
1278.996, 4.261780
1279.478, 3.076477
1279.960, 1.217865
1280.442, 0.1509090
1280.924, 0.1330870
1281.406, 0.4543460
1281.889, 2.072327
1282.371, 3.589355
1282.853, 4.987701
1283.335, 4.856140
1283.817, 2.520782
1284.299, 0.5498350
1284.781, 1.8920000E-03
1285.263, 0.2452390
1285.745, 0.2379760
1286.228, 0.0000000E+00
##END=



