##NAMES=Althausite
##RRUFFID=R070113
##IDEAL CHEMISTRY=Mg_4_(PO_4_)_2_(OH,O)(F,[box])
##LOCALITY=Tingelstadtjern, Modum, Norway
##OWNER=RRUFF
##SOURCE=Bob Jenkins
##DESCRIPTION=Colorless platy crystals associated with R060710 holtedahlite
##STATUS=The identification of this mineral has been confirmed only by single crystal X-ray diffraction.
##URL=rruff.info/R070113
149.6995, 0.0000000E+00
150.1816, 1.900940
150.6637, 4.024658
151.1458, 5.238525
151.6279, 8.258118
152.1101, 5.621887
152.5922, 2.019470
153.0743, 0.3005980
153.5564, 0.7555540
154.0385, 1.986633
154.5206, 4.983337
155.0028, 8.638428
155.4849, 12.54468
155.9670, 14.72540
156.4491, 12.26031
156.9312, 9.318787
157.4133, 8.692566
157.8955, 14.12122
158.3776, 18.94214
158.8597, 21.32507
159.3418, 21.20715
159.8239, 19.90759
160.3060, 16.56940
160.7882, 12.71606
161.2703, 9.973877
161.7524, 8.606445
162.2345, 8.697693
162.7166, 10.26123
163.1987, 13.18054
163.6808, 17.81451
164.1630, 27.25079
164.6451, 38.32465
165.1272, 45.69647
165.6093, 45.16840
166.0914, 41.16754
166.5735, 35.97369
167.0557, 28.41028
167.5378, 23.54620
168.0199, 25.45972
168.5020, 32.97272
168.9841, 42.74182
169.4662, 54.75098
169.9484, 67.31476
170.4305, 78.63361
170.9126, 87.55316
171.3947, 96.05975
171.8768, 106.6866
172.3589, 119.0430
172.8411, 129.7462
173.3232, 133.5661
173.8053, 134.6359
174.2874, 140.0021
174.7695, 158.8897
175.2516, 180.3708
175.7338, 187.1369
176.2159, 180.3312
176.6980, 169.1422
177.1801, 160.3726
177.6622, 153.2175
178.1443, 145.7914
178.6264, 135.4884
179.1086, 124.6539
179.5907, 117.9225
180.0728, 115.6793
180.5549, 116.2258
181.0370, 117.5797
181.5191, 120.8211
182.0013, 126.8122
182.4834, 136.6888
182.9655, 149.1874
183.4476, 157.1874
183.9297, 158.6753
184.4118, 158.8798
184.8940, 167.8195
185.3761, 184.7661
185.8582, 199.0215
186.3403, 204.3407
186.8224, 201.3583
187.3046, 192.9623
187.7867, 178.4774
188.2688, 159.9799
188.7509, 141.3924
189.2330, 122.7424
189.7151, 103.8655
190.1973, 81.32410
190.6794, 55.91760
191.1615, 39.10089
191.6436, 35.58807
192.1257, 41.25446
192.6078, 42.17438
193.0900, 37.89746
193.5721, 31.63104
194.0542, 25.89490
194.5363, 20.70227
195.0184, 16.48352
195.5005, 13.33392
195.9826, 11.27576
196.4648, 10.94763
196.9469, 12.88037
197.4290, 14.95483
197.9111, 14.56091
198.3932, 11.49683
198.8753, 7.589417
199.3575, 2.554993
199.8396, 3.570068
200.3217, 6.077759
200.8038, 4.125183
201.2859, 6.1650001E-03
201.7680, 3.033875
202.2502, 4.938354
202.7323, 5.964966
203.2144, 5.729248
203.6965, 3.874573
204.1786, 3.766602
204.6607, 6.212524
205.1429, 9.661804
205.6250, 10.53247
206.1071, 8.077515
206.5892, 5.319153
207.0713, 3.519775
207.5534, 2.689819
208.0356, 3.704468
208.5177, 7.876465
208.9998, 13.34271
209.4819, 13.84515
209.9640, 7.132202
210.4461, 0.6040650
210.9282, 0.1494750
211.4104, 7.645081
211.8925, 11.26782
212.3746, 7.885986
212.8567, 0.7329710
213.3388, 5.731873
213.8209, 6.666016
214.3031, 4.872437
214.7852, 0.6959230
215.2673, 7.122131
215.7494, 13.65509
216.2315, 18.35779
216.7136, 21.20514
217.1958, 21.99713
217.6779, 19.78595
218.1600, 16.84442
218.6421, 14.67914
219.1242, 12.21466
219.6063, 13.32184
220.0885, 20.61414
220.5706, 34.21008
221.0527, 41.35126
221.5348, 39.70264
222.0169, 34.23779
222.4990, 30.06104
222.9812, 27.92676
223.4633, 25.52820
223.9454, 21.70038
224.4275, 15.86035
224.9096, 14.03143
225.3917, 18.92664
225.8739, 25.45605
226.3560, 26.75824
226.8381, 19.83746
227.3202, 13.54584
227.8023, 10.49646
228.2844, 11.42731
228.7665, 10.61627
229.2487, 6.138123
229.7308, 1.084961
230.2129, 0.7091670
230.6950, 8.141602
231.1771, 14.60333
231.6592, 16.91925
232.1414, 12.73926
232.6235, 12.42114
233.1056, 18.35254
233.5877, 27.15686
234.0698, 31.60803
234.5519, 29.29968
235.0341, 26.12421
235.5162, 24.16656
235.9983, 23.93750
236.4804, 23.86719
236.9625, 24.20068
237.4446, 24.62976
237.9268, 24.11603
238.4089, 20.59552
238.8910, 19.02148
239.3731, 21.90521
239.8552, 32.11060
240.3373, 40.50299
240.8195, 45.50415
241.3016, 48.90082
241.7837, 56.11487
242.2658, 68.37000
242.7479, 82.73663
243.2300, 98.53961
243.7122, 118.9994
244.1943, 133.7119
244.6764, 139.8795
245.1585, 140.0905
245.6406, 143.9466
246.1227, 152.7660
246.6048, 163.4372
247.0870, 174.3457
247.5691, 185.3856
248.0512, 197.4410
248.5333, 214.2937
249.0154, 232.6589
249.4975, 236.7098
249.9797, 220.9119
250.4618, 198.5898
250.9439, 177.1819
251.4260, 156.2136
251.9081, 137.2432
252.3902, 121.0919
252.8724, 107.0776
253.3545, 90.98926
253.8366, 70.14221
254.3187, 51.14453
254.8008, 39.01556
255.2829, 36.94727
255.7651, 34.15192
256.2472, 28.73450
256.7293, 21.37537
257.2114, 17.26733
257.6935, 17.60339
258.1756, 18.95789
258.6577, 19.19061
259.1399, 18.32532
259.6220, 16.34161
260.1041, 12.34650
260.5862, 6.867310
261.0683, 4.961914
261.5504, 8.358154
262.0326, 12.55133
262.5147, 13.60510
262.9968, 9.759888
263.4789, 8.075012
263.9610, 10.44965
264.4431, 16.25140
264.9253, 19.50714
265.4074, 19.23462
265.8895, 18.19385
266.3716, 19.37085
266.8537, 24.43231
267.3358, 25.38745
267.8180, 18.85962
268.3001, 6.435425
268.7822, 1.218140
269.2643, 5.386536
269.7464, 12.67462
270.2285, 17.62067
270.7107, 19.15204
271.1928, 22.77539
271.6749, 31.62134
272.1570, 44.35547
272.6391, 48.72620
273.1212, 42.10272
273.6034, 32.79681
274.0855, 28.32837
274.5676, 29.39520
275.0497, 30.91071
275.5318, 32.06628
276.0139, 32.88690
276.4961, 33.78479
276.9782, 35.19159
277.4603, 35.34705
277.9424, 31.75427
278.4245, 23.98315
278.9066, 17.73267
279.3888, 14.34412
279.8709, 13.38379
280.3530, 13.28082
280.8351, 14.25897
281.3172, 15.18719
281.7993, 15.09540
282.2815, 13.98657
282.7636, 12.16241
283.2457, 9.722778
283.7278, 6.608398
284.2099, 2.008057
284.6920, 4.417847
285.1741, 10.21667
285.6563, 13.01508
286.1384, 12.95258
286.6205, 11.91827
287.1026, 10.57184
287.5847, 8.486633
288.0668, 2.757690
288.5490, 7.206360
289.0311, 15.45996
289.5132, 15.27325
289.9953, 7.983582
290.4774, 1.777039
290.9595, 1.464661
291.4417, 2.455200
291.9238, 2.498047
292.4059, 1.591675
292.8880, 0.1852420
293.3701, 1.982300
293.8522, 4.489014
294.3344, 5.497070
294.8165, 3.515198
295.2986, 0.9441530
295.7807, 2.853394
296.2628, 8.970154
296.7449, 15.14343
297.2271, 18.48047
297.7092, 19.34796
298.1913, 18.26129
298.6734, 13.98065
299.1555, 9.515381
299.6376, 10.14191
300.1198, 15.19104
300.6019, 19.90961
301.0840, 19.19196
301.5661, 15.99622
302.0482, 15.91486
302.5303, 21.71545
303.0125, 28.71783
303.4946, 32.29175
303.9767, 32.68793
304.4588, 31.30127
304.9409, 26.91663
305.4230, 21.98315
305.9052, 19.70575
306.3873, 21.43939
306.8694, 24.83075
307.3515, 29.49286
307.8336, 34.53546
308.3157, 37.07697
308.7979, 30.59088
309.2800, 22.97980
309.7621, 23.61853
310.2442, 39.28027
310.7263, 52.61237
311.2084, 48.84912
311.6906, 33.51093
312.1727, 21.24725
312.6548, 20.98224
313.1369, 25.49115
313.6190, 29.64233
314.1011, 32.77222
314.5833, 35.02850
315.0654, 36.18506
315.5475, 36.52844
316.0296, 36.60895
316.5117, 35.37775
316.9938, 34.85266
317.4760, 36.50238
317.9580, 41.34991
318.4402, 45.86206
318.9223, 48.33124
319.4044, 49.85297
319.8865, 52.13660
320.3686, 60.05475
320.8507, 65.19830
321.3329, 62.25427
321.8150, 46.91779
322.2971, 36.87671
322.7792, 39.79089
323.2613, 48.75580
323.7434, 54.28387
324.2256, 54.60449
324.7077, 51.65674
325.1898, 43.68597
325.6719, 27.64490
326.1540, 19.96100
326.6361, 30.83435
327.1183, 46.98523
327.6004, 53.39557
328.0825, 38.66364
328.5646, 26.48767
329.0467, 22.17346
329.5288, 26.75208
330.0110, 29.95355
330.4931, 31.10101
330.9752, 31.38409
331.4573, 32.01184
331.9394, 34.06976
332.4215, 34.58881
332.9037, 31.95209
333.3858, 26.30310
333.8679, 24.81458
334.3500, 30.30676
334.8321, 36.34528
335.3142, 37.24921
335.7964, 30.86865
336.2785, 24.91614
336.7606, 18.98694
337.2427, 14.15173
337.7248, 18.68591
338.2069, 36.50446
338.6891, 54.11603
339.1712, 60.39539
339.6533, 53.40509
340.1354, 49.18518
340.6175, 50.42175
341.0996, 55.45721
341.5818, 60.11401
342.0639, 64.73138
342.5460, 68.06128
343.0281, 68.23370
343.5102, 65.87799
343.9923, 67.74371
344.4745, 75.29126
344.9566, 85.66760
345.4387, 94.68573
345.9208, 102.2723
346.4029, 106.7547
346.8850, 104.5284
347.3672, 98.27570
347.8493, 96.76550
348.3314, 100.9450
348.8135, 108.5273
349.2956, 118.9800
349.7777, 131.3862
350.2599, 141.8033
350.7419, 145.8754
351.2241, 147.5293
351.7062, 153.5407
352.1883, 164.3720
352.6704, 176.9712
353.1525, 190.6947
353.6346, 203.8539
354.1168, 213.2561
354.5989, 214.2034
355.0810, 212.7987
355.5631, 214.2944
356.0452, 218.8315
356.5273, 225.3062
357.0095, 233.6843
357.4916, 243.5267
357.9737, 254.1595
358.4558, 268.0626
358.9379, 280.4608
359.4200, 288.3865
359.9022, 292.2323
360.3843, 294.8345
360.8664, 296.0269
361.3485, 297.2378
361.8306, 299.4099
362.3127, 299.5864
362.7949, 304.6552
363.2770, 321.3905
363.7591, 345.8081
364.2412, 363.4312
364.7233, 364.4226
365.2054, 362.5695
365.6876, 364.8276
366.1697, 374.9655
366.6518, 384.3236
367.1339, 393.4252
367.6160, 401.1813
368.0981, 405.0165
368.5803, 406.4016
369.0624, 402.3739
369.5445, 390.1979
370.0266, 364.7193
370.5087, 347.6821
370.9908, 343.6036
371.4730, 345.3715
371.9551, 343.6450
372.4372, 339.1452
372.9193, 329.5447
373.4014, 312.3599
373.8835, 287.1056
374.3657, 267.7078
374.8478, 256.4695
375.3299, 247.6368
375.8120, 234.7178
376.2941, 216.3271
376.7762, 200.8970
377.2584, 191.4463
377.7405, 186.3302
378.2226, 178.0125
378.7047, 165.9960
379.1868, 152.9409
379.6689, 139.9942
380.1511, 127.4117
380.6332, 117.2239
381.1153, 110.3783
381.5974, 105.3314
382.0795, 99.02991
382.5616, 91.56183
383.0438, 85.12708
383.5259, 81.76941
384.0080, 80.41516
384.4901, 77.98779
384.9722, 73.63525
385.4543, 70.01837
385.9364, 72.70050
386.4185, 78.93964
386.9007, 80.79596
387.3828, 71.30756
387.8649, 56.92029
388.3470, 42.91583
388.8291, 29.36713
389.3112, 20.76691
389.7934, 24.01715
390.2755, 33.49628
390.7576, 41.49146
391.2397, 48.09436
391.7218, 50.01129
392.2039, 42.50464
392.6861, 26.52777
393.1682, 13.37244
393.6503, 7.133301
394.1324, 5.774597
394.6145, 7.828674
395.0966, 19.77417
395.5788, 27.29242
396.0609, 25.16907
396.5430, 15.68695
397.0251, 7.251831
397.5072, 0.5278320
397.9893, 5.765808
398.4715, 7.288696
398.9536, 1.784668
399.4357, 1.264343
399.9178, 1.116455
400.3999, 1.258179
400.8820, 4.395081
401.3642, 9.758240
401.8463, 13.66241
402.3284, 15.12433
402.8105, 14.07513
403.2926, 10.77954
403.7747, 3.963013
404.2569, 3.329834
404.7390, 8.003357
405.2211, 10.07593
405.7032, 9.113281
406.1853, 3.695496
406.6674, 4.674500
407.1496, 8.660767
407.6317, 7.800049
408.1138, 5.195862
408.5959, 3.322449
409.0780, 1.979797
409.5602, 0.7637940
410.0423, 5.634338
410.5244, 11.10840
411.0065, 15.57324
411.4886, 18.80334
411.9707, 19.09717
412.4529, 10.96234
412.9350, 0.2449950
413.4171, 1.161682
413.8992, 8.622192
414.3813, 21.37964
414.8634, 32.12262
415.3456, 40.45715
415.8277, 45.48206
416.3098, 43.50385
416.7919, 40.54376
417.2740, 42.28235
417.7561, 48.57361
418.2382, 52.86298
418.7203, 47.39612
419.2025, 40.43109
419.6846, 39.45856
420.1667, 52.54413
420.6488, 65.11908
421.1309, 73.65894
421.6130, 78.38257
422.0952, 80.88806
422.5773, 76.91156
423.0594, 74.30328
423.5415, 77.47601
424.0236, 94.05768
424.5057, 102.4464
424.9879, 97.03644
425.4700, 85.07800
425.9521, 77.54120
426.4342, 75.57550
426.9163, 76.46521
427.3984, 80.24805
427.8806, 87.20776
428.3627, 93.24280
428.8448, 99.61407
429.3269, 102.9940
429.8090, 98.84845
430.2911, 85.80884
430.7733, 73.95068
431.2554, 64.70123
431.7375, 58.15240
432.2196, 55.89685
432.7017, 58.40234
433.1838, 59.72113
433.6660, 53.49933
434.1481, 42.12891
434.6302, 36.37103
435.1123, 38.33411
435.5944, 42.59717
436.0765, 42.33630
436.5587, 38.57330
437.0408, 34.72955
437.5229, 32.46014
438.0050, 31.03162
438.4871, 29.98877
438.9692, 29.31293
439.4514, 27.91669
439.9335, 23.60193
440.4156, 18.64716
440.8977, 15.77679
441.3798, 17.91364
441.8619, 20.11993
442.3441, 18.96912
442.8262, 15.64868
443.3083, 14.84119
443.7904, 23.16174
444.2725, 30.64288
444.7546, 30.89398
445.2368, 16.21582
445.7189, 8.850403
446.2010, 16.16595
446.6831, 30.96136
447.1652, 42.29987
447.6473, 49.03888
448.1295, 53.76672
448.6116, 56.81970
449.0937, 58.18976
449.5758, 58.44073
450.0579, 56.95056
450.5400, 55.28235
451.0221, 55.00580
451.5042, 56.57739
451.9864, 56.95728
452.4685, 54.86993
452.9506, 52.01489
453.4327, 54.03223
453.9148, 61.27771
454.3969, 67.40222
454.8791, 67.01263
455.3612, 61.99829
455.8433, 61.04443
456.3254, 65.54749
456.8075, 70.59521
457.2896, 67.73260
457.7718, 59.86725
458.2539, 55.22803
458.7360, 60.39209
459.2181, 67.88947
459.7002, 69.07758
460.1823, 64.86792
460.6645, 61.55164
461.1466, 64.68677
461.6287, 70.04291
462.1108, 73.28772
462.5929, 72.78253
463.0750, 71.01929
463.5572, 67.91083
464.0393, 64.24341
464.5214, 61.35199
465.0035, 59.96283
465.4856, 59.43005
465.9677, 59.91943
466.4499, 61.79657
466.9320, 62.45428
467.4141, 59.82599
467.8962, 57.25659
468.3783, 58.07190
468.8604, 65.13861
469.3426, 70.09845
469.8247, 71.96906
470.3068, 70.94989
470.7889, 68.50696
471.2710, 63.98096
471.7531, 61.10590
472.2353, 62.83240
472.7174, 69.22125
473.1995, 73.20947
473.6816, 74.23047
474.1637, 74.11591
474.6458, 75.76178
475.1280, 78.81641
475.6101, 81.59100
476.0922, 83.06421
476.5743, 82.75195
477.0564, 79.43268
477.5385, 74.44299
478.0207, 71.28333
478.5028, 74.07800
478.9849, 79.75323
479.4670, 84.44153
479.9491, 87.08136
480.4312, 88.95715
480.9134, 89.75055
481.3955, 90.70380
481.8776, 94.14429
482.3597, 105.9030
482.8418, 115.8640
483.3239, 119.1732
483.8060, 114.3624
484.2881, 111.2682
484.7703, 112.1990
485.2524, 114.4705
485.7345, 116.4113
486.2166, 116.6767
486.6987, 119.5612
487.1808, 127.8203
487.6630, 138.5480
488.1451, 142.1616
488.6272, 136.3793
489.1093, 128.8883
489.5914, 122.5801
490.0735, 116.5482
490.5557, 115.4214
491.0378, 120.5408
491.5199, 127.1600
492.0020, 129.4632
492.4841, 127.7643
492.9662, 124.7713
493.4484, 121.1245
493.9305, 116.6732
494.4126, 109.2274
494.8947, 99.72894
495.3768, 94.24786
495.8589, 102.1141
496.3411, 113.6473
496.8232, 115.7535
497.3053, 104.9402
497.7874, 94.95215
498.2695, 96.34198
498.7516, 103.1983
499.2338, 107.6996
499.7159, 107.1644
500.1980, 103.8953
500.6801, 97.24969
501.1622, 87.76508
501.6443, 79.96857
502.1265, 73.03290
502.6086, 69.25519
503.0907, 70.20496
503.5728, 80.19556
504.0549, 85.94275
504.5370, 85.89087
505.0192, 82.54449
505.5013, 79.46692
505.9834, 76.55920
506.4655, 74.71686
506.9476, 74.77112
507.4297, 76.12933
507.9119, 75.18219
508.3940, 71.70612
508.8761, 67.64697
509.3582, 64.25696
509.8403, 61.47510
510.3224, 59.38000
510.8046, 58.32318
511.2867, 56.77594
511.7688, 51.96344
512.2509, 45.20557
512.7330, 39.66455
513.2151, 37.69458
513.6973, 36.86499
514.1794, 35.39960
514.6615, 33.29858
515.1436, 31.11273
515.6257, 27.80939
516.1078, 25.29358
516.5900, 25.14154
517.0721, 28.91583
517.5542, 32.78369
518.0363, 39.55182
518.5184, 45.41382
519.0005, 43.13226
519.4827, 23.68835
519.9648, 8.295227
520.4469, 2.969238
520.9290, 7.395630
521.4111, 12.22400
521.8932, 18.02948
522.3754, 22.98627
522.8575, 25.36462
523.3396, 25.11713
523.8217, 24.82343
524.3038, 25.04004
524.7859, 24.63892
525.2681, 21.41113
525.7502, 15.71582
526.2323, 9.831848
526.7144, 2.705200
527.1965, 3.125061
527.6786, 2.616028
528.1608, 3.759033
528.6429, 10.52087
529.1250, 15.78430
529.6071, 18.63788
530.0892, 17.43488
530.5714, 9.331116
531.0535, 2.681885
531.5356, 3.956726
532.0176, 8.365051
532.4998, 7.913757
532.9819, 9.331665
533.4640, 20.87524
533.9461, 17.15607
534.4282, 1.442017
534.9103, 10.45471
535.3925, 4.503845
535.8746, 4.018738
536.3567, 7.700989
536.8388, 5.841736
537.3209, 1.931396
537.8030, 4.767578
538.2852, 11.92432
538.7673, 16.91711
539.2494, 19.65283
539.7315, 17.54370
540.2136, 6.437744
540.6957, 8.157593
541.1779, 14.78949
541.6600, 13.87512
542.1421, 9.296021
542.6242, 1.374329
543.1063, 7.600342
543.5884, 15.09436
544.0706, 20.90454
544.5527, 24.44537
545.0348, 26.53851
545.5169, 25.81830
545.9990, 20.46271
546.4811, 0.5711060
546.9633, 14.22229
547.4454, 16.14960
547.9275, 6.550232
548.4096, 1.615601
548.8917, 8.245667
549.3738, 13.06323
549.8560, 15.67407
550.3381, 15.51404
550.8202, 15.51196
551.3023, 15.68933
551.7844, 15.99158
552.2665, 16.05444
552.7487, 15.83490
553.2308, 17.32617
553.7129, 22.28021
554.1950, 27.64911
554.6771, 26.09424
555.1592, 18.44000
555.6414, 10.91016
556.1235, 6.055359
556.6056, 3.988953
557.0877, 5.946960
557.5698, 12.15631
558.0519, 18.07312
558.5341, 22.41626
559.0162, 24.27380
559.4983, 22.46112
559.9804, 13.03186
560.4625, 4.915894
560.9446, 0.3378910
561.4268, 1.320862
561.9089, 1.674927
562.3910, 1.045166
562.8731, 1.200684
563.3552, 6.504089
563.8373, 14.91516
564.3195, 17.48499
564.8016, 11.67517
565.2837, 5.473267
565.7658, 6.019531
566.2479, 13.38953
566.7300, 17.99298
567.2122, 18.65411
567.6943, 16.86444
568.1764, 13.29663
568.6585, 8.719299
569.1406, 6.324768
569.6227, 8.926514
570.1049, 13.17841
570.5870, 15.84772
571.0691, 16.88910
571.5512, 16.26862
572.0333, 11.12073
572.5154, 6.220886
572.9976, 4.701538
573.4797, 6.900757
573.9618, 12.70563
574.4439, 27.72174
574.9260, 43.80066
575.4081, 52.04669
575.8903, 47.42322
576.3724, 42.88354
576.8545, 39.58929
577.3366, 37.26447
577.8187, 34.84003
578.3008, 31.79065
578.7830, 30.61694
579.2651, 34.21991
579.7472, 41.18182
580.2293, 40.28558
580.7114, 30.98206
581.1935, 21.81390
581.6757, 19.72430
582.1578, 23.61560
582.6399, 32.52014
583.1220, 48.31342
583.6041, 62.49329
584.0862, 65.83899
584.5684, 62.74860
585.0505, 60.69434
585.5326, 64.61700
586.0147, 69.15936
586.4968, 71.11761
586.9789, 70.84583
587.4611, 72.54596
587.9432, 81.07648
588.4253, 87.60455
588.9074, 87.40680
589.3895, 77.54309
589.8716, 74.28766
590.3538, 80.29224
590.8359, 87.88446
591.3180, 89.11218
591.8001, 84.70563
592.2822, 82.43903
592.7643, 81.95740
593.2465, 83.98767
593.7286, 91.86011
594.2107, 104.3844
594.6928, 114.4396
595.1749, 116.6466
595.6570, 115.9589
596.1392, 116.7885
596.6213, 119.2353
597.1034, 123.0056
597.5854, 131.2983
598.0676, 138.7316
598.5497, 139.7103
599.0318, 129.4316
599.5139, 123.5848
599.9960, 127.4500
600.4781, 136.1360
600.9603, 143.7654
601.4424, 151.0200
601.9245, 154.9725
602.4066, 153.5346
602.8887, 149.0735
603.3708, 149.2095
603.8530, 154.2009
604.3351, 161.5713
604.8172, 171.4626
605.2993, 182.8905
605.7814, 189.2387
606.2635, 190.3702
606.7457, 189.2811
607.2278, 185.2682
607.7099, 181.9750
608.1920, 185.3980
608.6741, 199.0731
609.1563, 212.8029
609.6384, 219.6496
610.1205, 223.4087
610.6026, 229.3938
611.0847, 243.7380
611.5668, 255.1016
612.0490, 258.5739
612.5311, 256.5753
613.0132, 259.0141
613.4953, 267.0961
613.9774, 277.6420
614.4595, 289.4471
614.9417, 302.6682
615.4238, 317.6912
615.9059, 335.3401
616.3880, 350.5836
616.8701, 356.3981
617.3522, 355.7136
617.8344, 359.1534
618.3165, 368.6492
618.7986, 381.6351
619.2807, 399.2056
619.7628, 417.8243
620.2449, 431.0504
620.7271, 431.9313
621.2092, 430.9434
621.6913, 432.0205
622.1734, 435.2188
622.6555, 440.5393
623.1376, 450.1780
623.6198, 459.8700
624.1019, 468.6691
624.5840, 476.8196
625.0661, 482.0690
625.5482, 484.9503
626.0303, 483.7296
626.5125, 474.8711
626.9946, 458.3560
627.4767, 448.2471
627.9588, 447.6954
628.4409, 447.9897
628.9230, 435.7401
629.4052, 414.2926
629.8873, 395.1992
630.3694, 384.7427
630.8515, 375.7302
631.3336, 363.3989
631.8157, 347.5939
632.2979, 327.7007
632.7800, 296.3290
633.2621, 267.0886
633.7442, 248.1990
634.2263, 240.6515
634.7084, 230.9884
635.1906, 215.2600
635.6727, 201.0616
636.1548, 193.8771
636.6369, 196.6407
637.1190, 193.8138
637.6011, 184.0548
638.0833, 171.3092
638.5654, 159.9558
639.0475, 150.0396
639.5296, 141.4597
640.0117, 133.9493
640.4938, 127.1728
640.9760, 121.8884
641.4581, 117.5864
641.9402, 112.5992
642.4223, 105.4506
642.9044, 97.96594
643.3865, 90.53949
643.8687, 83.17004
644.3508, 78.07458
644.8329, 81.67926
645.3150, 82.68140
645.7971, 73.84235
646.2792, 49.72797
646.7614, 37.08136
647.2435, 38.79028
647.7256, 47.21228
648.2077, 57.14148
648.6898, 68.84009
649.1719, 73.58630
649.6541, 68.91901
650.1362, 60.60724
650.6183, 57.59161
651.1004, 57.96118
651.5825, 55.90881
652.0646, 46.05127
652.5468, 35.65540
653.0289, 29.99176
653.5110, 28.60040
653.9931, 29.86310
654.4752, 38.06671
654.9573, 44.44501
655.4395, 44.84052
655.9216, 38.45496
656.4037, 29.84924
656.8858, 14.43231
657.3679, 2.793091
657.8500, 3.696594
658.3322, 19.53394
658.8143, 29.55237
659.2964, 32.42084
659.7785, 31.77179
660.2606, 30.98492
660.7427, 30.22821
661.2249, 30.20074
661.7070, 31.20795
662.1891, 32.75842
662.6712, 35.34100
663.1533, 38.04437
663.6354, 38.91400
664.1175, 34.01086
664.5996, 30.17249
665.0817, 31.70514
665.5638, 37.67664
666.0460, 40.38495
666.5281, 37.59271
667.0102, 33.96942
667.4923, 30.85254
667.9744, 28.28558
668.4565, 26.80872
668.9387, 27.11176
669.4208, 27.21356
669.9029, 24.13525
670.3850, 18.48126
670.8671, 14.21570
671.3492, 11.69958
671.8314, 11.19013
672.3135, 14.92841
672.7956, 20.41541
673.2777, 23.63080
673.7598, 20.18652
674.2419, 17.34778
674.7241, 19.86847
675.2062, 24.82275
675.6883, 26.32056
676.1704, 21.75177
676.6525, 15.65155
677.1346, 6.976318
677.6168, 2.854553
678.0989, 5.432007
678.5810, 0.7600100
679.0631, 7.790222
679.5452, 12.07281
680.0273, 13.97577
680.5095, 15.38898
680.9916, 16.32263
681.4737, 15.23029
681.9558, 6.540283
682.4379, 2.877075
682.9200, 3.143494
683.4022, 9.076233
683.8843, 20.30743
684.3664, 27.14905
684.8485, 28.80988
685.3306, 24.63599
685.8127, 2.362061
686.2949, 8.748962
686.7770, 1.484802
687.2591, 13.71057
687.7412, 17.45117
688.2233, 7.701111
688.7054, 7.8064002E-02
689.1876, 1.633911
689.6697, 0.5273440
690.1518, 0.3854370
690.6339, 3.415466
691.1160, 4.582703
691.5981, 0.1906740
692.0803, 6.493896
692.5624, 9.307495
693.0445, 9.650635
693.5266, 11.57385
694.0087, 21.92017
694.4908, 31.62219
694.9730, 35.89087
695.4551, 33.95435
695.9372, 27.07642
696.4193, 9.616089
696.9014, 5.291565
697.3835, 5.682922
697.8657, 10.43591
698.3478, 19.62830
698.8299, 20.02478
699.3120, 15.70813
699.7941, 8.738770
700.2762, 0.8031010
700.7584, 3.156616
701.2405, 0.2454830
701.7226, 3.527222
702.2047, 1.779175
702.6868, 2.262451
703.1689, 2.943970
703.6511, 4.565796
704.1332, 12.98621
704.6153, 23.27051
705.0974, 33.59229
705.5795, 34.51831
706.0616, 21.12830
706.5438, 8.788940
707.0259, 2.450684
707.5080, 1.453491
707.9901, 3.981567
708.4722, 10.12463
708.9543, 14.76379
709.4365, 12.39319
709.9186, 7.192749
710.4007, 7.089233
710.8828, 12.38672
711.3649, 15.92444
711.8470, 10.48547
712.3292, 3.525757
712.8113, 1.473389
713.2934, 7.843750
713.7755, 11.04810
714.2576, 8.319458
714.7397, 4.120605
715.2219, 2.475708
715.7040, 4.107422
716.1861, 4.942261
716.6682, 4.353882
717.1503, 3.391724
717.6324, 3.992554
718.1146, 5.743164
718.5967, 6.510498
719.0788, 4.308716
719.5609, 3.066406
720.0430, 9.087769
720.5251, 18.82996
721.0073, 24.86572
721.4894, 22.10620
721.9715, 17.40613
722.4536, 12.18579
722.9357, 6.849121
723.4178, 2.959229
723.9000, 0.4775390
724.3821, 0.2869870
724.8642, 1.880615
725.3463, 6.169067
725.8284, 5.061401
726.3105, 1.653442
726.7927, 6.883911
727.2748, 4.615234
727.7569, 2.211914
728.2390, 10.47986
728.7211, 19.91650
729.2032, 24.40540
729.6853, 13.80688
730.1674, 0.9610600
730.6495, 3.826904
731.1317, 3.622925
731.6138, 11.80273
732.0959, 23.21716
732.5780, 31.94202
733.0601, 31.49841
733.5422, 19.39001
734.0244, 11.49817
734.5065, 9.480347
734.9886, 10.58020
735.4707, 10.50659
735.9528, 10.19678
736.4349, 14.14404
736.9171, 26.77869
737.3992, 37.01257
737.8813, 31.75415
738.3634, 17.89001
738.8455, 7.649170
739.3276, 6.741211
739.8098, 7.771729
740.2919, 9.523560
740.7740, 11.63599
741.2561, 13.78845
741.7382, 16.35168
742.2203, 18.17615
742.7025, 19.71765
743.1846, 19.84131
743.6667, 11.40845
744.1488, 4.818726
744.6309, 15.11877
745.1130, 5.088867
745.5952, 10.65271
746.0773, 13.26453
746.5594, 4.197754
747.0415, 0.3027340
747.5236, 14.58679
748.0057, 29.75671
748.4879, 34.07080
748.9700, 25.67065
749.4521, 15.69397
749.9342, 0.7017820
750.4163, 10.82581
750.8984, 0.8901370
751.3806, 28.55591
751.8627, 38.82764
752.3448, 27.05237
752.8269, 12.35156
753.3090, 15.40002
753.7911, 27.20581
754.2733, 33.45996
754.7554, 31.03931
755.2375, 25.41064
755.7196, 15.54468
756.2017, 5.961182
756.6838, 1.371582
757.1660, 6.404297
757.6481, 10.94543
758.1302, 15.14380
758.6123, 18.42920
759.0944, 21.62939
759.5765, 24.90735
760.0587, 20.71497
760.5408, 4.337769
761.0229, 12.47168
761.5050, 10.04895
761.9871, 4.936157
762.4692, 16.23669
762.9514, 13.49487
763.4335, 10.41870
763.9156, 16.29626
764.3977, 27.32532
764.8798, 34.90027
765.3619, 37.74890
765.8441, 36.58813
766.3262, 29.20728
766.8083, 18.44604
767.2904, 15.03369
767.7725, 19.90515
768.2546, 22.90332
768.7368, 18.54529
769.2189, 10.37610
769.7010, 3.574585
770.1831, 1.239746
770.6652, 1.163574
771.1473, 11.87646
771.6295, 24.98950
772.1116, 28.96021
772.5937, 24.07568
773.0758, 19.25928
773.5579, 10.72913
774.0400, 8.020508
774.5222, 17.99158
775.0043, 40.05701
775.4864, 47.51587
775.9685, 38.01147
776.4506, 25.26379
776.9327, 16.80994
777.4149, 12.35425
777.8970, 11.55750
778.3791, 14.32776
778.8612, 19.04797
779.3433, 28.08374
779.8254, 36.28357
780.3076, 39.13403
780.7897, 34.94617
781.2718, 31.00842
781.7539, 29.20581
782.2360, 26.37195
782.7181, 19.10742
783.2003, 5.775391
783.6824, 0.5675050
784.1645, 4.197266
784.6466, 11.50171
785.1287, 20.84009
785.6108, 30.20276
786.0930, 33.81348
786.5751, 29.81519
787.0572, 25.05408
787.5393, 24.90491
788.0214, 25.53735
788.5035, 22.99915
788.9857, 12.44995
789.4678, 7.683960
789.9499, 12.72693
790.4320, 19.77490
790.9141, 18.78796
791.3962, 9.099976
791.8784, 3.646240
792.3605, 4.686523
792.8426, 8.681641
793.3247, 11.39600
793.8068, 13.70605
794.2889, 18.17017
794.7711, 28.94238
795.2531, 35.26575
795.7352, 28.00122
796.2173, 14.12061
796.6995, 3.675049
797.1816, 1.765747
797.6637, 4.467529
798.1458, 3.991577
798.6279, 1.463745
799.1100, 0.6802980
799.5922, 2.520508
800.0743, 6.858398
800.5564, 15.27563
801.0385, 24.77490
801.5206, 30.68652
802.0027, 34.25549
802.4849, 39.09668
802.9670, 52.69556
803.4491, 63.78552
803.9312, 66.09985
804.4133, 62.52612
804.8954, 60.04016
805.3776, 58.40674
805.8597, 59.94604
806.3418, 66.23730
806.8239, 75.01880
807.3060, 81.65857
807.7881, 85.88635
808.2703, 87.15051
808.7524, 83.71167
809.2345, 81.40454
809.7166, 89.54980
810.1987, 103.7755
810.6808, 112.9626
811.1630, 108.2142
811.6451, 103.4010
812.1272, 104.6368
812.6093, 108.8257
813.0914, 105.4309
813.5735, 92.05444
814.0557, 80.28052
814.5378, 74.73035
815.0199, 72.76038
815.5020, 66.57495
815.9841, 57.37769
816.4662, 50.77319
816.9484, 53.43225
817.4305, 56.50989
817.9126, 52.44104
818.3947, 43.01257
818.8768, 34.52686
819.3589, 30.70068
819.8411, 28.49414
820.3232, 26.50061
820.8053, 24.67896
821.2874, 23.24536
821.7695, 22.27698
822.2516, 20.57507
822.7338, 16.20642
823.2159, 11.69275
823.6980, 12.68628
824.1801, 17.79993
824.6622, 21.56555
825.1443, 19.64771
825.6265, 17.29321
826.1086, 17.37537
826.5907, 19.59900
827.0728, 20.77185
827.5549, 20.71289
828.0370, 19.71509
828.5192, 18.48193
829.0013, 16.76147
829.4834, 10.25537
829.9655, 0.3101810
830.4476, 6.142456
830.9297, 4.291992
831.4119, 17.02063
831.8940, 14.65161
832.3761, 0.9145510
832.8582, 6.806152
833.3403, 2.169434
833.8224, 13.28564
834.3046, 22.78809
834.7867, 30.46704
835.2688, 35.44263
835.7509, 38.02563
836.2330, 36.26599
836.7151, 26.70789
837.1973, 13.83203
837.6794, 6.346924
838.1615, 4.081787
838.6436, 5.988403
839.1257, 19.01562
839.6078, 29.13159
840.0900, 22.66992
840.5721, 3.366089
841.0542, 1.462036
841.5363, 20.96008
842.0184, 38.11047
842.5005, 38.24390
842.9827, 26.00964
843.4648, 19.82812
843.9469, 19.50806
844.4290, 21.31152
844.9111, 21.83911
845.3932, 24.45105
845.8754, 37.52808
846.3575, 56.78638
846.8396, 67.30615
847.3217, 52.34326
847.8038, 40.04468
848.2859, 42.10742
848.7681, 54.22766
849.2502, 60.02002
849.7323, 58.01831
850.2144, 57.14246
850.6965, 61.63770
851.1786, 68.43848
851.6608, 69.65540
852.1429, 67.13562
852.6250, 67.63623
853.1071, 79.72290
853.5892, 90.62305
854.0714, 90.15747
854.5535, 82.09192
855.0356, 82.28503
855.5177, 98.23181
855.9998, 110.1237
856.4819, 113.1372
856.9641, 110.0529
857.4462, 106.9237
857.9283, 104.1602
858.4104, 106.2157
858.8925, 118.6340
859.3746, 131.4867
859.8568, 137.8414
860.3389, 137.5585
860.8210, 129.9000
861.3030, 101.5750
861.7852, 82.29907
862.2673, 81.45642
862.7494, 90.67212
863.2315, 92.86206
863.7136, 87.53259
864.1957, 79.36084
864.6779, 68.15515
865.1600, 58.24048
865.6421, 59.59546
866.1242, 67.14624
866.6063, 69.43420
867.0884, 56.06140
867.5706, 44.77881
868.0527, 46.17114
868.5348, 52.63171
869.0169, 51.39673
869.4990, 37.88379
869.9811, 29.16162
870.4633, 28.65576
870.9454, 32.41357
871.4275, 32.64050
871.9096, 30.34106
872.3917, 31.61255
872.8738, 40.32471
873.3560, 47.33069
873.8381, 43.78882
874.3202, 36.10474
874.8023, 30.86401
875.2844, 27.59497
875.7665, 27.43689
876.2487, 31.96436
876.7308, 37.55725
877.2129, 40.14136
877.6950, 40.12061
878.1771, 43.27734
878.6592, 49.89026
879.1414, 55.34949
879.6235, 54.78564
880.1056, 52.13452
880.5877, 52.76514
881.0698, 59.44385
881.5519, 60.56165
882.0341, 45.29224
882.5162, 30.78162
882.9983, 30.14172
883.4804, 45.80664
883.9625, 56.35632
884.4446, 61.20789
884.9268, 64.09583
885.4089, 70.32178
885.8910, 75.80273
886.3731, 72.13843
886.8552, 58.45300
887.3373, 49.07043
887.8195, 49.27515
888.3016, 56.55273
888.7837, 74.08325
889.2658, 102.8105
889.7479, 109.4747
890.2300, 88.46960
890.7122, 69.51843
891.1943, 78.88306
891.6764, 102.5172
892.1585, 102.8903
892.6406, 83.37610
893.1227, 67.59497
893.6049, 72.37927
894.0870, 81.81470
894.5691, 89.61084
895.0512, 94.95178
895.5333, 94.39856
896.0154, 85.71729
896.4976, 76.60071
896.9797, 68.86731
897.4618, 63.28333
897.9439, 64.88550
898.4260, 71.62744
898.9081, 74.16382
899.3903, 65.29614
899.8724, 53.36743
900.3545, 39.70959
900.8366, 27.05347
901.3187, 23.25647
901.8008, 33.97632
902.2830, 43.63904
902.7651, 50.17957
903.2472, 54.23120
903.7293, 57.71558
904.2114, 60.20593
904.6935, 58.25623
905.1757, 49.58765
905.6578, 39.59473
906.1399, 29.63672
906.6220, 22.61377
907.1041, 22.44397
907.5862, 36.68420
908.0684, 48.56616
908.5505, 58.93127
909.0326, 65.02356
909.5147, 63.48462
909.9968, 54.56604
910.4789, 39.67627
910.9611, 17.61951
911.4432, 1.270996
911.9253, 10.17566
912.4074, 27.00952
912.8895, 31.36426
913.3716, 16.25940
913.8538, 6.926147
914.3359, 12.28027
914.8180, 18.17664
915.3001, 14.96729
915.7822, 2.762451
916.2643, 1.112793
916.7465, 3.504395
917.2286, 9.962524
917.7107, 13.65308
918.1928, 16.49084
918.6749, 22.70300
919.1570, 31.42456
919.6392, 33.52148
920.1213, 17.31763
920.6034, 3.978394
921.0855, 0.8708500
921.5676, 5.962280
922.0497, 10.84607
922.5319, 15.57019
923.0140, 16.92310
923.4961, 10.01062
923.9782, 2.800781
924.4603, 9.163452
924.9424, 22.74072
925.4246, 28.83484
925.9067, 13.87952
926.3888, 1.482910
926.8708, 1.771240
927.3530, 1.076782
927.8351, 6.438354
928.3172, 18.46155
928.7993, 24.39478
929.2814, 20.79895
929.7635, 14.32507
930.2457, 11.80786
930.7278, 12.04578
931.2099, 14.50378
931.6920, 23.47021
932.1741, 23.26868
932.6563, 2.880981
933.1384, 28.35437
933.6205, 31.10828
934.1026, 8.134033
934.5847, 8.703125
935.0668, 18.91479
935.5490, 21.96045
936.0311, 10.15466
936.5132, 5.078125
936.9953, 7.172119
937.4774, 4.721558
937.9595, 14.51917
938.4417, 17.60791
938.9238, 16.57690
939.4059, 11.54272
939.8880, 3.152832
940.3701, 5.351563
940.8522, 14.05957
941.3344, 18.06189
941.8165, 11.04614
942.2986, 1.453857
942.7807, 0.3752440
943.2628, 5.218262
943.7449, 9.184570
944.2271, 8.937012
944.7092, 9.048218
945.1913, 10.40417
945.6734, 12.63904
946.1555, 15.57874
946.6376, 19.18640
947.1198, 21.09009
947.6019, 20.55371
948.0840, 19.17542
948.5661, 18.46838
949.0482, 18.12634
949.5303, 17.42834
950.0125, 14.81274
950.4946, 15.53137
950.9767, 20.92700
951.4588, 28.82007
951.9409, 38.48145
952.4230, 49.88196
952.9052, 58.70410
953.3873, 64.84937
953.8694, 69.95032
954.3515, 74.45679
954.8336, 79.22766
955.3157, 86.43701
955.7979, 95.80896
956.2800, 100.9457
956.7621, 97.13794
957.2442, 94.38904
957.7263, 96.17676
958.2084, 101.2484
958.6906, 105.9377
959.1727, 110.1259
959.6548, 112.6798
960.1369, 110.7506
960.6190, 110.0055
961.1011, 115.7211
961.5833, 125.7319
962.0654, 136.1797
962.5475, 150.8186
963.0296, 157.7224
963.5117, 152.8955
963.9938, 145.1827
964.4760, 146.9282
964.9581, 156.1069
965.4402, 163.5189
965.9223, 167.5773
966.4044, 172.0709
966.8865, 179.7509
967.3687, 188.9572
967.8508, 199.2870
968.3329, 211.9064
968.8150, 217.2982
969.2971, 212.5294
969.7792, 208.3914
970.2614, 211.2948
970.7435, 218.9640
971.2256, 222.8619
971.7077, 224.5601
972.1898, 232.5601
972.6719, 256.4861
973.1541, 282.1672
973.6362, 302.4725
974.1183, 319.2947
974.6004, 339.2550
975.0825, 363.3108
975.5646, 385.6025
976.0468, 403.1215
976.5289, 422.8395
977.0110, 455.9055
977.4931, 498.5938
977.9752, 543.6289
978.4573, 588.1000
978.9395, 637.0348
979.4216, 695.5144
979.9037, 756.6591
980.3858, 813.0396
980.8679, 861.0779
981.3500, 934.5096
981.8322, 1034.916
982.3143, 1140.256
982.7964, 1233.788
983.2785, 1322.179
983.7606, 1409.604
984.2427, 1497.530
984.7249, 1592.300
985.2070, 1696.788
985.6891, 1808.572
986.1712, 1931.331
986.6533, 2058.517
987.1354, 2166.534
987.6176, 2257.135
988.0997, 2355.623
988.5818, 2475.625
989.0639, 2594.993
989.5460, 2694.800
990.0281, 2781.756
990.5103, 2866.813
990.9924, 2975.945
991.4745, 3033.289
991.9566, 3034.913
992.4387, 2993.303
992.9208, 2914.718
993.4029, 2803.169
993.8850, 2671.736
994.3671, 2520.511
994.8492, 2359.963
995.3314, 2191.692
995.8135, 2018.270
996.2956, 1836.473
996.7777, 1647.870
997.2598, 1469.248
997.7419, 1299.067
998.2241, 1141.147
998.7062, 998.8778
999.1883, 871.9983
999.6704, 763.9905
1000.153, 672.9121
1000.635, 591.8740
1001.117, 518.8591
1001.599, 456.7384
1002.081, 410.3452
1002.563, 372.6279
1003.045, 337.9216
1003.527, 305.9681
1004.009, 277.2384
1004.492, 251.6295
1004.974, 227.8738
1005.456, 203.0095
1005.938, 180.4052
1006.420, 162.5321
1006.902, 149.7749
1007.384, 141.9147
1007.866, 140.8832
1008.349, 141.0918
1008.831, 142.0004
1009.313, 141.8921
1009.795, 134.3959
1010.277, 120.9725
1010.759, 108.0354
1011.241, 98.52820
1011.723, 89.58777
1012.205, 77.71667
1012.688, 66.26880
1013.170, 60.21582
1013.652, 62.05798
1014.134, 60.46411
1014.616, 53.90454
1015.098, 48.31323
1015.580, 49.68384
1016.062, 55.85852
1016.544, 63.28857
1017.027, 71.62854
1017.509, 82.25500
1017.991, 98.95349
1018.473, 114.2742
1018.955, 125.2211
1019.437, 132.7330
1019.919, 139.2653
1020.401, 145.0227
1020.884, 154.4963
1021.366, 169.3671
1021.848, 188.2474
1022.330, 210.4719
1022.812, 235.6116
1023.294, 263.2004
1023.776, 295.9838
1024.258, 326.0902
1024.740, 351.9700
1025.223, 377.3848
1025.705, 406.3010
1026.187, 437.2054
1026.669, 465.0342
1027.151, 490.0027
1027.633, 515.9474
1028.115, 550.3492
1028.597, 581.1982
1029.079, 607.3105
1029.562, 625.0759
1030.044, 616.8220
1030.526, 580.5176
1031.008, 546.6091
1031.490, 525.7177
1031.972, 506.3502
1032.454, 470.0983
1032.936, 427.9192
1033.419, 396.3284
1033.901, 388.2079
1034.383, 367.3380
1034.865, 322.0325
1035.347, 279.2039
1035.829, 265.0470
1036.311, 272.0424
1036.793, 254.9783
1037.276, 216.3145
1037.758, 184.9265
1038.240, 188.8806
1038.722, 194.7587
1039.204, 178.6083
1039.686, 149.6118
1040.168, 136.8983
1040.650, 145.6754
1041.132, 144.9060
1041.615, 125.7067
1042.097, 103.3092
1042.579, 99.26978
1043.061, 104.4360
1043.543, 104.2621
1044.025, 94.91150
1044.507, 87.06787
1044.989, 83.65405
1045.471, 81.72827
1045.954, 79.64734
1046.436, 77.79150
1046.918, 78.17944
1047.400, 80.79346
1047.882, 85.47156
1048.364, 94.80750
1048.846, 103.3384
1049.328, 107.0991
1049.811, 108.1317
1050.293, 110.1703
1050.775, 112.9271
1051.257, 116.9021
1051.739, 121.0983
1052.221, 131.2023
1052.703, 162.2991
1053.185, 198.5630
1053.667, 211.0400
1054.150, 196.1078
1054.632, 200.4318
1055.114, 254.8466
1055.596, 306.7201
1056.078, 337.1141
1056.560, 353.5289
1057.042, 380.1310
1057.524, 415.3976
1058.006, 451.4620
1058.489, 485.0510
1058.971, 520.1084
1059.453, 555.1691
1059.935, 595.4441
1060.417, 648.9324
1060.899, 723.7612
1061.381, 779.2589
1061.863, 812.5463
1062.346, 839.7986
1062.828, 876.1812
1063.310, 912.0879
1063.792, 935.2986
1064.274, 946.1763
1064.756, 947.9861
1065.238, 940.8748
1065.720, 924.8176
1066.203, 899.5685
1066.685, 865.1689
1067.167, 819.6113
1067.649, 765.1069
1068.131, 710.4977
1068.613, 658.3186
1069.095, 603.1173
1069.577, 534.6248
1070.059, 467.6014
1070.542, 411.1552
1071.024, 365.5312
1071.506, 326.0730
1071.988, 293.5173
1072.470, 258.4161
1072.952, 209.3636
1073.434, 164.4666
1073.916, 150.1073
1074.398, 153.5452
1074.881, 151.4689
1075.363, 135.2256
1075.845, 119.5176
1076.327, 104.7999
1076.809, 90.52942
1077.291, 73.59595
1077.773, 57.21558
1078.255, 51.78442
1078.738, 56.92908
1079.220, 62.06726
1079.702, 66.72131
1080.184, 64.33997
1080.666, 50.21570
1081.148, 29.85522
1081.630, 18.35266
1082.112, 15.19922
1082.594, 13.36462
1083.077, 11.60217
1083.559, 8.886841
1084.041, 3.809448
1084.523, 2.269775
1085.005, 8.336792
1085.487, 14.50024
1085.969, 19.94043
1086.451, 25.87976
1086.933, 25.62048
1087.416, 11.42969
1087.898, 7.956543
1088.380, 21.24744
1088.862, 28.54126
1089.344, 30.07434
1089.826, 20.02173
1090.308, 12.88000
1090.790, 12.14282
1091.272, 11.83167
1091.755, 2.875244
1092.237, 11.67078
1092.719, 17.99146
1093.201, 16.54407
1093.683, 14.97314
1094.165, 21.94934
1094.647, 25.16455
1095.129, 15.29004
1095.612, 1.742798
1096.094, 11.00781
1096.576, 12.46716
1097.058, 8.151001
1097.540, 3.140503
1098.022, 13.25842
1098.504, 14.59778
1098.986, 10.50562
1099.469, 2.414673
1099.951, 11.12671
1100.433, 14.29321
1100.915, 3.683594
1101.397, 3.828125
1101.879, 2.772583
1102.361, 15.05762
1102.843, 19.28674
1103.325, 17.95361
1103.807, 16.60547
1104.290, 16.97083
1104.772, 17.51880
1105.254, 17.99243
1105.736, 18.76062
1106.218, 20.64453
1106.700, 23.12683
1107.182, 23.15442
1107.664, 21.11963
1108.147, 21.45300
1108.629, 29.40454
1109.111, 37.12305
1109.593, 38.00696
1110.075, 37.77502
1110.557, 51.23730
1111.039, 77.83447
1111.521, 93.24182
1112.004, 92.32178
1112.486, 85.07373
1112.968, 76.09680
1113.450, 67.54248
1113.932, 61.42297
1114.414, 58.00244
1114.896, 54.61853
1115.378, 49.45996
1115.860, 48.38025
1116.343, 55.72314
1116.825, 64.22351
1117.307, 63.15942
1117.789, 56.69080
1118.271, 51.22278
1118.753, 47.89709
1119.235, 46.41772
1119.717, 46.65295
1120.199, 48.70837
1120.682, 54.13745
1121.164, 61.01147
1121.646, 64.08801
1122.128, 63.98083
1122.610, 62.98083
1123.092, 58.79895
1123.574, 58.51929
1124.056, 66.03882
1124.539, 75.14551
1125.021, 77.03992
1125.503, 73.28870
1125.985, 74.93152
1126.467, 82.74646
1126.949, 89.70850
1127.431, 90.05835
1127.913, 89.51721
1128.396, 93.41919
1128.878, 98.55139
1129.360, 93.81482
1129.842, 79.03625
1130.324, 69.11829
1130.806, 68.62109
1131.288, 68.23010
1131.770, 54.83057
1132.252, 40.32471
1132.734, 38.74622
1133.217, 52.15527
1133.699, 53.85803
1134.181, 41.25647
1134.663, 31.49451
1135.145, 34.69910
1135.627, 40.32056
1136.109, 29.54346
1136.591, 13.02844
1137.074, 8.281738
1137.556, 29.20923
1138.038, 38.81970
1138.520, 32.26013
1139.002, 26.19629
1139.484, 38.88965
1139.966, 58.86719
1140.448, 55.42078
1140.931, 35.21118
1141.413, 21.93372
1141.895, 35.06274
1142.377, 40.60303
1142.859, 29.74341
1143.341, 14.99292
1143.823, 12.33081
1144.305, 18.28613
1144.787, 20.32581
1145.270, 18.47144
1145.752, 17.06409
1146.234, 19.96985
1146.716, 22.20459
1147.198, 22.67102
1147.680, 20.75696
1148.162, 13.20593
1148.644, 1.034424
1149.126, 8.050293
1149.609, 13.10229
1150.091, 11.63452
1150.573, 5.162964
1151.055, 24.78210
1151.537, 38.16187
1152.019, 45.64990
1152.501, 51.38831
1152.983, 56.21619
1153.466, 57.54456
1153.948, 52.07422
1154.430, 45.20728
1154.912, 40.51428
1155.394, 37.44751
1155.876, 35.88806
1156.358, 36.68579
1156.840, 35.93091
1157.322, 33.42188
1157.805, 32.63574
1158.287, 35.46008
1158.769, 40.73010
1159.251, 51.12634
1159.733, 62.26904
1160.215, 63.27612
1160.697, 44.91528
1161.179, 34.94617
1161.661, 35.42212
1162.144, 38.62292
1162.626, 38.97046
1163.108, 37.53333
1163.590, 35.58313
1164.072, 33.18921
1164.554, 30.58594
1165.036, 28.41321
1165.518, 23.93787
1166.000, 14.39172
1166.483, 8.377319
1166.965, 23.84387
1167.447, 47.17480
1167.929, 48.42639
1168.411, 26.74316
1168.893, 10.63940
1169.375, 11.55090
1169.857, 16.65466
1170.340, 26.38806
1170.822, 34.34375
1171.304, 22.84094
1171.786, 1.062500
1172.268, 6.156738
1172.750, 6.809814
1173.232, 20.67700
1173.714, 30.88354
1174.197, 36.75781
1174.679, 37.50854
1175.161, 33.93457
1175.643, 25.39209
1176.125, 14.36621
1176.607, 10.29871
1177.089, 17.59753
1177.571, 26.92285
1178.053, 40.38562
1178.536, 47.94495
1179.018, 40.30493
1179.500, 21.15430
1179.982, 17.13208
1180.464, 25.49646
1180.946, 31.19165
1181.428, 25.00342
1181.910, 18.67761
1182.392, 15.25452
1182.875, 16.39001
1183.357, 26.79919
1183.839, 46.45996
1184.321, 48.49951
1184.803, 34.19556
1185.285, 20.12341
1185.767, 16.18408
1186.249, 15.10645
1186.732, 14.27356
1187.214, 13.31433
1187.696, 11.43457
1188.178, 8.526489
1188.660, 7.735352
1189.142, 9.213379
1189.624, 11.43225
1190.106, 13.43774
1190.589, 15.64209
1191.071, 17.71033
1191.553, 20.38916
1192.035, 27.51892
1192.517, 40.07251
1192.999, 38.03613
1193.481, 17.68079
1193.963, 1.823120
1194.445, 4.705444
1194.927, 0.8222660
1195.410, 6.015991
1195.892, 13.41711
1196.374, 13.25220
1196.856, 4.739868
1197.338, 1.254517
1197.820, 2.301392
1198.302, 1.294922
1198.784, 1.057983
1199.267, 2.741943
1199.749, 0.8874510
1200.231, 4.006104
1200.713, 5.535889
1201.195, 3.392212
1201.677, 2.143433
1202.159, 3.845581
1202.641, 4.152588
1203.124, 4.687012
1203.606, 15.14319
1204.088, 18.37756
1204.570, 13.65295
1205.052, 11.10217
1205.534, 10.83972
1206.016, 11.66284
1206.498, 14.01965
1206.980, 14.21338
1207.463, 5.588989
1207.945, 5.011963
1208.427, 7.509888
1208.909, 1.005737
1209.391, 2.578247
1209.873, 3.004272
1210.355, 2.596313
1210.837, 2.409668
1211.319, 2.204468
1211.802, 0.9245610
1212.284, 0.2061770
1212.766, 0.6990970
1213.248, 3.397095
1213.730, 10.31921
1214.212, 22.31421
1214.694, 30.50061
1215.176, 26.22876
1215.659, 17.76257
1216.141, 12.48169
1216.623, 9.091309
1217.105, 4.371948
1217.587, 3.696533
1218.069, 4.739502
1218.551, 2.315552
1219.033, 9.047974
1219.516, 7.524780
1219.998, 3.557129
1220.480, 1.356689
1220.962, 1.228394
1221.444, 3.831665
1221.926, 10.36816
1222.408, 13.06714
1222.890, 10.84399
1223.372, 8.554321
1223.854, 11.23938
1224.337, 14.97778
1224.819, 15.75586
1225.301, 14.63977
1225.783, 16.37085
1226.265, 21.70508
1226.747, 25.43628
1227.229, 26.75586
1227.711, 28.21973
1228.193, 32.20178
1228.676, 37.29492
1229.158, 44.88074
1229.640, 52.40381
1230.122, 48.77209
1230.604, 33.16125
1231.086, 26.42395
1231.568, 33.34412
1232.050, 42.42712
1232.533, 47.30676
1233.015, 46.59009
1233.497, 32.63623
1233.979, 11.11340
1234.461, 11.15356
1234.943, 33.84070
1235.425, 50.39001
1235.907, 54.41565
1236.390, 50.19946
1236.872, 30.08777
1237.354, 12.66467
1237.836, 17.73218
1238.318, 39.55554
1238.800, 50.91064
1239.282, 52.04089
1239.764, 48.47925
1240.246, 40.13342
1240.729, 34.27246
1241.211, 39.91504
1241.693, 47.53052
1242.175, 50.79602
1242.657, 49.70361
1243.139, 40.55884
1243.621, 24.77869
1244.103, 20.87341
1244.585, 39.24646
1245.068, 56.16919
1245.550, 54.69080
1246.032, 47.05017
1246.514, 40.42664
1246.996, 35.54651
1247.478, 39.34399
1247.960, 50.09412
1248.442, 55.67578
1248.925, 48.40430
1249.407, 44.63196
1249.889, 62.59021
1250.371, 76.48035
1250.853, 65.34448
1251.335, 37.16736
1251.817, 29.47400
1252.299, 37.13245
1252.781, 41.17822
1253.264, 32.79565
1253.746, 25.14990
1254.228, 22.39868
1254.710, 23.23975
1255.192, 28.13452
1255.674, 35.81238
1256.156, 39.90674
1256.638, 40.43054
1257.120, 36.68384
1257.603, 20.17505
1258.085, 15.16187
1258.567, 32.55811
1259.049, 51.36865
1259.531, 57.69482
1260.013, 55.08936
1260.495, 51.44458
1260.977, 47.11389
1261.460, 43.16565
1261.942, 39.57703
1262.424, 36.54053
1262.906, 33.22644
1263.388, 33.63843
1263.870, 42.45447
1264.352, 54.84326
1264.834, 62.67041
1265.317, 66.37207
1265.799, 66.97656
1266.281, 64.10803
1266.763, 58.08313
1267.245, 47.23425
1267.727, 39.69617
1268.209, 47.84253
1268.691, 58.11609
1269.173, 46.56409
1269.656, 24.50769
1270.138, 19.59131
1270.620, 41.96899
1271.102, 54.76050
1271.584, 56.61096
1272.066, 54.31604
1272.548, 47.63562
1273.030, 44.01294
1273.512, 57.26953
1273.995, 76.00342
1274.477, 77.17712
1274.959, 56.20959
1275.441, 47.48657
1275.923, 52.18567
1276.405, 55.94885
1276.887, 43.82739
1277.369, 32.98083
1277.852, 38.45544
1278.334, 49.71423
1278.816, 50.66211
1279.298, 41.37280
1279.780, 40.51074
1280.262, 47.91223
1280.744, 51.76208
1281.226, 39.33972
1281.708, 29.08337
1282.191, 32.02502
1282.673, 37.58191
1283.155, 31.83228
1283.637, 17.90503
1284.119, 13.99548
1284.601, 19.63318
1285.083, 26.72693
1285.565, 35.32214
1286.047, 38.68652
1286.530, 32.94800
1287.012, 26.65869
1287.494, 31.81726
1287.976, 42.51831
1288.458, 42.53638
1288.940, 34.01648
1289.422, 28.97607
1289.904, 33.86731
1290.386, 39.21277
1290.869, 45.88843
1291.351, 48.09558
1291.833, 35.25610
1292.315, 17.77148
1292.797, 8.236084
1293.279, 6.935669
1293.761, 15.07434
1294.243, 39.39380
1294.726, 46.00720
1295.208, 29.59656
1295.690, 15.77612
1296.172, 36.76453
1296.654, 60.63281
1297.136, 52.52563
1297.618, 25.88599
1298.100, 16.46240
1298.583, 26.60034
1299.065, 31.78723
1299.547, 30.52319
1300.029, 28.56909
1300.511, 34.03906
1300.993, 35.51294
1301.475, 18.41797
1301.957, 1.412720
1302.439, 2.150269
1302.922, 13.91211
1303.404, 26.45117
1303.886, 34.61035
1304.368, 40.77185
1304.850, 39.39575
1305.332, 37.75964
1305.814, 19.93469
1306.296, 2.258911
1306.778, 0.0000000E+00
##END=



