##NAMES=Alum-(K)
##RRUFFID=R040134
##IDEAL CHEMISTRY=KAl(SO_4_)_2_&#183;12H_2_O
##LOCALITY=Alunite mine, Esmeralda County, Nevada, USA
##OWNER=RRUFF
##SOURCE=University of Arizona Mineral Museum
##DESCRIPTION=Colorless coarsely crystalline massive
##STATUS=The identification of this mineral has been confirmed by X-ray diffraction and chemical analysis
##URL=rruff.info/R040134
##MEASURED CHEMISTRY=(K_0.86_(NH_4_)_0.14_)_Σ=1_Al_1.00_(S_1.00_O_4_)_2_·12H_2_O ; NH_4_ not measured but estimated by stoichiometry
173.7677, 0.0000000E+00
174.2498, 0.4189450
174.7319, 0.6120610
175.2140, 3.306885
175.6961, 10.41650
176.1783, 21.00049
176.6604, 34.28247
177.1425, 50.68921
177.6246, 72.86890
178.1067, 99.58252
178.5888, 125.3362
179.0710, 142.0713
179.5531, 154.4966
180.0352, 173.0994
180.5173, 200.8179
180.9994, 235.1323
181.4815, 276.1525
181.9637, 323.7175
182.4458, 364.8844
182.9279, 383.9644
183.4100, 386.4614
183.8921, 393.5255
184.3742, 411.8031
184.8564, 438.1230
185.3385, 466.2178
185.8206, 496.4434
186.3027, 525.9984
186.7848, 554.5466
187.2669, 581.2729
187.7491, 600.6943
188.2312, 607.2761
188.7133, 604.9341
189.1954, 609.6146
189.6775, 622.8730
190.1596, 636.3208
190.6418, 639.1423
191.1239, 631.4058
191.6060, 625.4634
192.0881, 625.8521
192.5702, 623.4314
193.0524, 616.5754
193.5345, 599.9402
194.0166, 579.3206
194.4987, 564.5447
194.9808, 555.5867
195.4629, 543.0078
195.9451, 519.4009
196.4272, 484.3361
196.9093, 458.4933
197.3914, 445.4885
197.8735, 437.8323
198.3556, 421.1980
198.8378, 395.4961
199.3199, 366.4213
199.8020, 335.3710
200.2841, 302.7400
200.7662, 276.4628
201.2483, 259.2255
201.7305, 246.6926
202.2126, 227.1390
202.6947, 198.6661
203.1768, 169.6149
203.6589, 146.0028
204.1410, 129.7050
204.6232, 110.1628
205.1053, 83.76355
205.5874, 53.90479
206.0695, 32.70093
206.5516, 21.30859
207.0337, 14.53003
207.5159, 10.50684
207.9980, 11.21509
208.4801, 7.568604
208.9622, 4.381592
209.4443, 21.64771
209.9264, 27.80530
210.4086, 18.56470
210.8907, 7.123535
211.3728, 4.126953
211.8549, 12.00842
212.3370, 15.27478
212.8191, 8.970093
213.3013, 6.393188
213.7834, 15.11267
214.2655, 9.191162
214.7476, 1.283813
215.2297, 3.530640
215.7118, 19.05164
216.1940, 32.30505
216.6761, 38.34265
217.1582, 38.23950
217.6403, 44.14551
218.1224, 56.84314
218.6045, 70.97253
219.0867, 80.61670
219.5688, 84.43494
220.0509, 85.23779
220.5330, 80.64624
221.0151, 70.22742
221.4972, 68.21667
221.9794, 77.32446
222.4615, 88.70715
222.9436, 91.31836
223.4257, 78.13550
223.9078, 69.68420
224.3899, 73.12292
224.8721, 89.94189
225.3542, 98.07471
225.8363, 94.08899
226.3184, 85.08594
226.8005, 79.39392
227.2827, 79.00391
227.7648, 78.27856
228.2469, 76.04907
228.7290, 72.39343
229.2111, 67.58899
229.6932, 60.55896
230.1754, 53.10156
230.6575, 47.05139
231.1396, 41.73828
231.6217, 40.91174
232.1038, 44.90662
232.5859, 55.91467
233.0681, 60.03015
233.5502, 54.26086
234.0323, 43.75208
234.5144, 35.24487
234.9965, 27.63623
235.4786, 24.15723
235.9608, 27.24988
236.4429, 39.53223
236.9250, 46.15295
237.4071, 43.86475
237.8892, 37.90771
238.3713, 36.69507
238.8535, 42.45337
239.3356, 49.30981
239.8177, 56.37671
240.2998, 65.20740
240.7819, 67.83826
241.2640, 61.61987
241.7462, 50.69495
242.2283, 41.95776
242.7104, 35.83679
243.1925, 31.22925
243.6746, 28.20227
244.1567, 27.67163
244.6389, 25.32239
245.1210, 20.25562
245.6031, 13.92914
246.0852, 8.790649
246.5673, 4.376526
247.0494, 1.978943
247.5316, 2.788269
248.0137, 8.732910
248.4958, 11.07672
248.9779, 8.063599
249.4600, 2.426819
249.9421, 0.3514400
250.4243, 1.431824
250.9064, 2.981628
251.3885, 2.487488
251.8706, 0.6838990
252.3527, 4.218567
252.8348, 9.548889
253.3170, 14.35382
253.7991, 13.15814
254.2812, 1.762024
254.7633, 7.655518
255.2454, 9.968445
255.7275, 3.021362
256.2097, 3.187378
256.6918, 9.098267
257.1739, 13.85986
257.6560, 15.87085
258.1381, 14.55865
258.6202, 11.64886
259.1024, 7.102661
259.5845, 0.2241820
260.0666, 3.956116
260.5487, 1.977905
261.0308, 1.980835
261.5129, 0.3898930
261.9951, 9.800476
262.4772, 18.26575
262.9593, 19.89594
263.4414, 12.37811
263.9235, 9.510803
264.4056, 13.42627
264.8878, 19.89691
265.3699, 20.52240
265.8520, 12.44348
266.3341, 6.717529
266.8162, 9.341003
267.2983, 22.18097
267.7805, 26.02081
268.2626, 17.92645
268.7447, 5.990479
269.2268, 5.252502
269.7089, 18.84216
270.1910, 30.64484
270.6732, 33.86548
271.1553, 27.29785
271.6374, 23.50372
272.1195, 22.67682
272.6016, 24.24225
273.0837, 27.79547
273.5659, 33.70465
274.0480, 40.00281
274.5301, 45.96484
275.0122, 51.54004
275.4943, 57.87952
275.9764, 65.88739
276.4586, 73.08899
276.9407, 74.58856
277.4228, 69.59467
277.9049, 65.65027
278.3870, 66.09802
278.8691, 70.71240
279.3513, 74.68744
279.8334, 77.77020
280.3155, 81.06720
280.7976, 86.93030
281.2798, 95.45630
281.7619, 102.0014
282.2440, 104.5457
282.7261, 103.5342
283.2082, 100.7555
283.6903, 95.24872
284.1725, 91.25220
284.6546, 96.22144
285.1367, 109.7317
285.6188, 120.5743
286.1009, 122.9295
286.5830, 119.2140
287.0652, 120.4816
287.5473, 127.3676
288.0294, 135.4009
288.5115, 139.3881
288.9936, 139.7968
289.4757, 140.3870
289.9579, 142.3749
290.4400, 145.5026
290.9221, 148.6874
291.4042, 151.8002
291.8863, 156.0049
292.3684, 163.1493
292.8506, 172.6160
293.3327, 182.1439
293.8148, 192.8522
294.2969, 202.3320
294.7790, 203.6059
295.2611, 196.6167
295.7433, 190.5526
296.2254, 194.7339
296.7075, 206.4449
297.1896, 217.6862
297.6717, 226.3674
298.1538, 233.4297
298.6360, 239.8884
299.1181, 245.7853
299.6002, 251.3484
300.0823, 254.5114
300.5644, 257.7490
301.0465, 266.4048
301.5287, 284.9420
302.0108, 305.6638
302.4929, 319.5786
302.9750, 327.5348
303.4571, 333.7765
303.9392, 341.7032
304.4214, 349.5387
304.9035, 354.4210
305.3856, 352.9567
305.8677, 353.1179
306.3498, 365.3413
306.8319, 385.7849
307.3141, 401.2869
307.7962, 397.7883
308.2783, 388.7238
308.7604, 387.6339
309.2425, 400.0154
309.7246, 414.1697
310.2068, 423.7582
310.6889, 429.4715
311.1710, 433.4263
311.6531, 435.3939
312.1352, 437.8927
312.6173, 442.3014
313.0995, 449.0868
313.5816, 455.1855
314.0637, 458.3783
314.5458, 459.9136
315.0279, 462.2413
315.5100, 466.1812
315.9922, 471.7386
316.4743, 480.1337
316.9564, 493.7004
317.4385, 502.7165
317.9206, 499.6195
318.4027, 490.5861
318.8849, 484.3981
319.3670, 484.7988
319.8491, 488.2436
320.3312, 494.9224
320.8133, 505.9767
321.2954, 511.4732
321.7776, 505.6947
322.2597, 495.0417
322.7418, 486.3969
323.2239, 479.6099
323.7060, 475.8552
324.1881, 477.6063
324.6703, 485.7931
325.1524, 491.4868
325.6345, 495.9285
326.1166, 495.6279
326.5987, 487.6514
327.0808, 460.1091
327.5630, 439.6707
328.0451, 431.0888
328.5272, 433.9590
329.0093, 438.2429
329.4914, 447.8917
329.9735, 454.9536
330.4557, 453.3674
330.9378, 434.7097
331.4199, 422.0473
331.9020, 420.4414
332.3841, 427.4119
332.8662, 428.2537
333.3484, 419.2979
333.8305, 407.6163
334.3126, 396.9757
334.7947, 388.5057
335.2768, 380.3513
335.7589, 372.0385
336.2411, 364.0016
336.7232, 358.3325
337.2053, 356.4667
337.6874, 353.7413
338.1695, 347.0226
338.6516, 335.5752
339.1338, 328.4202
339.6159, 328.5051
340.0980, 328.6962
340.5801, 313.1515
341.0622, 279.0838
341.5443, 250.8434
342.0265, 242.3083
342.5086, 251.0065
342.9907, 250.1262
343.4728, 238.2162
343.9549, 222.2996
344.4370, 209.3121
344.9192, 199.3253
345.4013, 194.4763
345.8834, 199.9695
346.3655, 210.3364
346.8476, 209.7687
347.3297, 198.0176
347.8119, 183.1515
348.2940, 171.8480
348.7761, 163.4097
349.2582, 155.8549
349.7403, 147.9816
350.2225, 141.2289
350.7046, 138.9144
351.1867, 140.4185
351.6688, 140.9774
352.1509, 137.2154
352.6331, 130.3192
353.1152, 121.4871
353.5973, 109.3718
354.0794, 98.43457
354.5615, 94.34021
355.0436, 95.06213
355.5258, 94.43213
356.0079, 85.95337
356.4900, 76.36273
356.9721, 72.55682
357.4542, 77.66687
357.9363, 81.53253
358.4185, 77.18164
358.9006, 67.86584
359.3827, 59.21057
359.8648, 53.08624
360.3469, 48.44238
360.8290, 45.24854
361.3112, 43.77893
361.7933, 41.60138
362.2754, 35.59985
362.7575, 29.35950
363.2396, 26.77374
363.7217, 33.59967
364.2039, 39.29962
364.6860, 40.54840
365.1681, 37.24194
365.6502, 34.44360
366.1323, 34.56982
366.6144, 34.27527
367.0966, 31.20972
367.5787, 20.49719
368.0608, 12.96075
368.5429, 10.64764
369.0250, 12.48486
369.5071, 12.91962
369.9893, 10.76434
370.4714, 8.572449
370.9535, 7.804932
371.4356, 9.949097
371.9177, 9.856812
372.3998, 5.970520
372.8820, 0.5787350
373.3641, 0.5843510
373.8462, 4.570374
374.3283, 8.490356
374.8104, 7.267395
375.2925, 0.2113650
375.7747, 3.466492
376.2568, 2.929626
376.7389, 0.7055660
377.2210, 0.4946290
377.7031, 2.503357
378.1852, 3.566589
378.6674, 2.601685
379.1495, 7.5378001E-02
379.6316, 4.654907
380.1137, 11.59814
380.5958, 15.77167
381.0779, 9.394226
381.5601, 5.093750
382.0422, 15.19757
382.5243, 17.50836
383.0064, 15.12140
383.4885, 12.37103
383.9706, 9.258911
384.4528, 6.160461
384.9349, 0.8982540
385.4170, 3.615295
385.8991, 1.475464
386.3812, 10.12671
386.8633, 22.12402
387.3455, 25.99152
387.8276, 23.79633
388.3097, 20.23975
388.7918, 13.66302
389.2739, 9.298157
389.7560, 14.52301
390.2382, 31.14697
390.7203, 42.19910
391.2024, 32.49506
391.6845, 14.25519
392.1666, 1.393005
392.6487, 4.364990
393.1309, 8.176392
393.6130, 6.034668
394.0951, 1.509583
394.5772, 6.706482
395.0593, 6.265747
395.5414, 3.702759
396.0236, 1.185181
396.5057, 0.2519530
396.9878, 2.507874
397.4699, 7.917847
397.9520, 14.55994
398.4341, 16.35028
398.9163, 9.157471
399.3984, 1.362305
399.8805, 4.521973
400.3626, 9.181702
400.8447, 9.287048
401.3268, 0.7678830
401.8090, 9.296631
402.2911, 10.03613
402.7732, 2.423279
403.2553, 14.09363
403.7374, 21.49609
404.2195, 24.76257
404.7017, 25.34723
405.1838, 21.89709
405.6659, 19.48450
406.1480, 24.48132
406.6301, 37.08575
407.1122, 45.60681
407.5944, 47.19366
408.0765, 44.28418
408.5586, 41.61426
409.0407, 39.20300
409.5228, 38.50555
410.0049, 41.14685
410.4871, 46.22803
410.9692, 51.64941
411.4513, 57.47498
411.9334, 62.56946
412.4155, 64.70776
412.8976, 65.09937
413.3798, 66.94751
413.8619, 70.62756
414.3440, 77.13501
414.8261, 88.56238
415.3082, 105.0148
415.7903, 122.3687
416.2725, 143.5966
416.7546, 162.2008
417.2367, 170.9252
417.7188, 156.6176
418.2009, 143.6235
418.6830, 142.3839
419.1652, 151.4662
419.6473, 165.5547
420.1294, 187.0320
420.6115, 210.0044
421.0937, 232.0095
421.5758, 252.9985
422.0579, 271.5405
422.5400, 283.7917
423.0221, 294.2332
423.5042, 310.6215
423.9864, 336.0834
424.4685, 364.0497
424.9506, 394.2137
425.4327, 426.3145
425.9148, 457.1979
426.3969, 485.2626
426.8791, 514.1613
427.3612, 546.5247
427.8433, 582.5437
428.3254, 621.1687
428.8075, 663.4487
429.2896, 707.8279
429.7718, 746.4880
430.2539, 778.0082
430.7360, 810.7346
431.2181, 852.0875
431.7002, 901.4117
432.1823, 941.6060
432.6645, 969.2288
433.1466, 995.4865
433.6287, 1037.089
434.1108, 1091.784
434.5929, 1147.967
435.0750, 1204.581
435.5572, 1257.181
436.0393, 1296.421
436.5214, 1322.844
437.0035, 1345.547
437.4856, 1368.439
437.9677, 1392.566
438.4499, 1419.981
438.9320, 1453.932
439.4141, 1485.990
439.8962, 1512.720
440.3783, 1533.729
440.8604, 1547.938
441.3426, 1549.214
441.8247, 1547.481
442.3068, 1546.336
442.7889, 1544.682
443.2710, 1551.557
443.7531, 1576.893
444.2353, 1608.079
444.7174, 1632.351
445.1995, 1642.949
445.6816, 1652.976
446.1637, 1661.860
446.6458, 1670.505
447.1280, 1689.095
447.6101, 1727.575
448.0922, 1763.165
448.5743, 1782.490
449.0564, 1779.036
449.5385, 1782.671
450.0207, 1794.939
450.5028, 1812.150
450.9849, 1828.743
451.4670, 1844.372
451.9491, 1862.555
452.4312, 1889.021
452.9134, 1920.603
453.3955, 1931.383
453.8776, 1919.632
454.3597, 1899.468
454.8418, 1881.027
455.3239, 1864.807
455.8061, 1855.286
456.2882, 1857.756
456.7703, 1861.540
457.2524, 1850.599
457.7345, 1826.757
458.2166, 1797.783
458.6988, 1763.899
459.1809, 1729.687
459.6630, 1703.291
460.1451, 1687.401
460.6272, 1665.291
461.1093, 1618.923
461.5915, 1562.144
462.0736, 1513.029
462.5557, 1485.466
463.0378, 1458.750
463.5199, 1426.474
464.0020, 1388.960
464.4842, 1348.385
464.9663, 1298.808
465.4484, 1251.363
465.9305, 1212.311
466.4126, 1189.651
466.8947, 1160.650
467.3769, 1120.217
467.8590, 1075.806
468.3411, 1039.745
468.8232, 1017.182
469.3053, 992.9329
469.7874, 961.8044
470.2696, 924.3531
470.7517, 891.1956
471.2338, 863.2910
471.7159, 836.9717
472.1980, 808.8118
472.6801, 778.8162
473.1623, 752.4509
473.6444, 731.4204
474.1265, 712.1230
474.6086, 688.6724
475.0907, 661.3921
475.5728, 632.3744
476.0550, 598.7942
476.5371, 565.4381
477.0192, 541.4724
477.5013, 527.1536
477.9834, 515.8301
478.4655, 505.5033
478.9477, 494.0659
479.4298, 478.8018
479.9119, 456.9962
480.3940, 433.3768
480.8761, 407.8606
481.3582, 382.1948
481.8404, 361.7434
482.3225, 353.3024
482.8046, 346.3308
483.2867, 335.6710
483.7688, 319.4998
484.2509, 304.4739
484.7331, 288.4214
485.2152, 275.2572
485.6973, 269.0414
486.1794, 276.0985
486.6615, 279.1931
487.1436, 274.9374
487.6258, 264.8550
488.1079, 256.2107
488.5900, 249.7023
489.0721, 242.8202
489.5542, 232.5942
490.0363, 218.8956
490.5185, 212.4495
491.0006, 214.8033
491.4827, 220.3198
491.9648, 223.6151
492.4470, 224.5089
492.9291, 220.2939
493.4112, 206.9794
493.8933, 190.4462
494.3754, 178.4080
494.8575, 170.8911
495.3397, 169.1433
495.8218, 182.8300
496.3039, 198.3816
496.7860, 197.9091
497.2681, 173.2413
497.7502, 152.9661
498.2324, 158.8191
498.7145, 177.1139
499.1966, 188.5533
499.6787, 179.0730
500.1608, 167.8506
500.6429, 161.9760
501.1251, 162.1095
501.6072, 162.1714
502.0893, 160.4235
502.5714, 156.9912
503.0535, 152.3672
503.5356, 145.2482
504.0178, 143.4755
504.4999, 149.6674
504.9820, 158.2585
505.4641, 160.4180
505.9462, 154.6390
506.4283, 151.3202
506.9105, 154.1968
507.3926, 161.2789
507.8747, 164.8588
508.3568, 164.3757
508.8389, 162.3490
509.3210, 163.4170
509.8032, 165.4642
510.2853, 160.4177
510.7674, 145.4240
511.2495, 131.2760
511.7316, 130.6090
512.2137, 138.9056
512.6959, 146.9337
513.1780, 153.0618
513.6601, 155.8486
514.1422, 153.0264
514.6243, 145.3074
515.1064, 137.5286
515.5886, 127.1595
516.0707, 120.4016
516.5528, 122.2808
517.0349, 140.5367
517.5170, 152.5406
517.9991, 152.2784
518.4813, 146.0500
518.9634, 141.5146
519.4455, 139.5068
519.9276, 137.6987
520.4097, 135.1486
520.8918, 132.3147
521.3740, 132.9446
521.8561, 138.5701
522.3382, 142.5853
522.8203, 138.0291
523.3024, 125.8232
523.7845, 123.0159
524.2667, 132.4451
524.7488, 144.0125
525.2309, 145.0653
525.7130, 137.8545
526.1951, 129.9550
526.6772, 121.5687
527.1594, 116.0187
527.6415, 119.9028
528.1236, 131.0752
528.6057, 140.2045
529.0878, 141.9379
529.5699, 139.5214
530.0521, 134.1097
530.5342, 124.4861
531.0163, 118.0006
531.4984, 118.9768
531.9805, 123.3698
532.4626, 126.8684
532.9448, 128.4689
533.4269, 129.6912
533.9090, 131.1890
534.3911, 132.4863
534.8732, 131.5493
535.3553, 127.5208
535.8375, 122.7559
536.3196, 117.2950
536.8017, 110.7889
537.2838, 110.1771
537.7659, 116.6005
538.2480, 125.1532
538.7302, 133.2371
539.2123, 139.9641
539.6944, 137.7623
540.1765, 122.4604
540.6586, 102.1968
541.1407, 86.06396
541.6229, 74.00793
542.1050, 65.49695
542.5871, 61.93884
543.0692, 60.67529
543.5513, 59.93542
544.0334, 59.60632
544.5156, 58.67078
544.9977, 54.99768
545.4798, 51.47229
545.9619, 50.62329
546.4440, 56.72473
546.9261, 59.85327
547.4083, 59.47339
547.8904, 55.02466
548.3725, 44.99731
548.8546, 23.32495
549.3367, 5.880615
549.8188, 3.425537
550.3010, 4.965332
550.7831, 0.9360350
551.2652, 11.45740
551.7473, 20.08557
552.2294, 13.19360
552.7115, 7.337646
553.1937, 22.85889
553.6758, 31.89990
554.1579, 35.93018
554.6400, 33.90454
555.1221, 28.03430
555.6042, 25.00403
556.0864, 31.95862
556.5685, 37.92029
557.0506, 27.08069
557.5327, 4.758301
558.0148, 9.039795
558.4969, 6.583252
558.9791, 25.35242
559.4612, 29.06750
559.9433, 11.84546
560.4254, 0.5322270
560.9075, 4.462402
561.3896, 13.93347
561.8718, 20.30701
562.3539, 21.28711
562.8360, 23.23389
563.3181, 27.67908
563.8002, 32.84558
564.2823, 34.93164
564.7645, 34.16858
565.2466, 28.92834
565.7287, 15.90942
566.2108, 2.306030
566.6929, 11.85730
567.1750, 12.39661
567.6572, 10.44189
568.1393, 9.578979
568.6214, 10.42773
569.1035, 14.69446
569.5856, 23.21716
570.0677, 32.94690
570.5499, 42.42053
571.0320, 51.30457
571.5141, 59.14270
571.9962, 66.24072
572.4783, 71.79224
572.9604, 72.61865
573.4426, 70.49634
573.9247, 74.56592
574.4068, 93.52502
574.8889, 112.3540
575.3710, 125.3997
575.8531, 131.7590
576.3353, 135.6138
576.8174, 134.1398
577.2995, 134.3092
577.7816, 144.8176
578.2637, 167.0093
578.7458, 184.7815
579.2280, 195.8480
579.7101, 201.4338
580.1922, 198.8470
580.6743, 190.5795
581.1564, 190.7061
581.6385, 212.5719
582.1207, 242.8708
582.6028, 264.4412
583.0849, 277.8989
583.5670, 289.5710
584.0491, 300.4781
584.5313, 312.7714
585.0134, 329.3765
585.4955, 353.4506
585.9776, 372.7117
586.4597, 376.0266
586.9418, 376.2227
587.4240, 388.4413
587.9061, 428.1519
588.3882, 455.9492
588.8703, 462.4384
589.3524, 455.7349
589.8345, 458.3319
590.3167, 469.8816
590.7988, 492.9740
591.2809, 536.4075
591.7630, 593.2292
592.2451, 620.0458
592.7272, 615.6750
593.2094, 610.1733
593.6915, 631.3301
594.1736, 668.5808
594.6557, 702.0835
595.1378, 727.4348
595.6199, 751.3828
596.1021, 776.4781
596.5842, 803.8484
597.0663, 835.2351
597.5485, 875.4224
598.0306, 914.8306
598.5127, 946.8083
598.9948, 974.4500
599.4769, 1012.050
599.9590, 1073.803
600.4412, 1129.693
600.9233, 1165.294
601.4054, 1178.296
601.8875, 1211.978
602.3696, 1271.508
602.8517, 1338.599
603.3339, 1397.217
603.8160, 1448.340
604.2981, 1498.287
604.7802, 1547.393
605.2623, 1595.213
605.7444, 1634.838
606.2266, 1672.108
606.7087, 1721.061
607.1908, 1798.667
607.6729, 1878.576
608.1550, 1941.244
608.6371, 1989.733
609.1193, 2035.274
609.6014, 2078.211
610.0835, 2122.308
610.5656, 2167.366
611.0477, 2212.635
611.5298, 2263.379
612.0120, 2332.531
612.4941, 2394.853
612.9762, 2432.303
613.4583, 2439.643
613.9404, 2438.259
614.4225, 2426.288
614.9047, 2411.462
615.3868, 2408.131
615.8689, 2413.891
616.3510, 2405.979
616.8331, 2374.804
617.3152, 2330.745
617.7974, 2286.161
618.2795, 2241.406
618.7616, 2196.348
619.2437, 2151.491
619.7258, 2106.263
620.2079, 2058.502
620.6901, 2008.319
621.1722, 1962.138
621.6543, 1928.662
622.1364, 1895.590
622.6185, 1854.768
623.1006, 1799.457
623.5828, 1750.745
624.0649, 1712.203
624.5470, 1676.893
625.0291, 1635.507
625.5112, 1585.360
625.9933, 1544.392
626.4755, 1518.863
626.9576, 1500.778
627.4397, 1475.480
627.9218, 1443.230
628.4039, 1405.837
628.8860, 1359.390
629.3682, 1310.585
629.8503, 1269.403
630.3324, 1235.065
630.8145, 1202.680
631.2966, 1173.520
631.7787, 1142.795
632.2609, 1105.627
632.7430, 1058.474
633.2251, 1016.323
633.7072, 986.5190
634.1893, 961.2197
634.6714, 933.0654
635.1536, 899.2571
635.6357, 865.6460
636.1178, 833.6116
636.5999, 801.4089
637.0820, 764.2699
637.5641, 721.9873
638.0463, 684.1799
638.5284, 653.7479
639.0105, 629.5306
639.4926, 612.4429
639.9747, 600.5629
640.4568, 583.5349
640.9390, 546.7502
641.4211, 506.8090
641.9032, 481.2797
642.3853, 471.4595
