##NAMES=Alum-(K)
##RRUFFID=R060528
##IDEAL CHEMISTRY=KAl(SO_4_)_2_&#183;12H_2_O
##LOCALITY=El Desierto mine fumaroles, Potosí, Bolivia
##OWNER=Michael Scott
##SOURCE=Michael Scott
##DESCRIPTION=Colorless thin tabular crystals associated with yellow sulfur and colorless tamarugite
##STATUS=The identification of this mineral has been confirmed by single-crystal X-ray diffraction.
##URL=rruff.info/R060528
108.024, 0.000
108.506, 16.452
108.988, 16.613
109.470, 12.950
109.952, 1.041
110.434, 9.268
110.916, 11.812
111.399, 10.901
111.881, 3.804
112.363, 11.562
112.845, 28.701
113.327, 57.809
113.809, 102.105
114.291, 161.093
114.773, 229.767
115.256, 307.471
115.738, 393.073
116.220, 483.270
116.702, 595.577
117.184, 698.276
117.666, 773.210
118.148, 814.082
118.630, 845.397
119.113, 880.739
119.595, 915.232
120.077, 937.569
120.559, 936.813
121.041, 923.507
121.523, 907.268
122.005, 891.767
122.487, 871.844
122.969, 839.670
123.451, 796.855
123.934, 755.243
124.416, 720.557
124.898, 693.041
125.380, 673.140
125.862, 656.334
126.344, 648.890
126.826, 663.144
127.308, 699.910
127.791, 746.172
128.273, 787.364
128.755, 825.843
129.237, 871.496
129.719, 932.710
130.201, 1005.442
130.683, 1077.579
131.165, 1149.050
131.648, 1218.433
132.130, 1287.605
132.612, 1356.583
133.094, 1421.114
133.576, 1473.467
134.058, 1514.286
134.540, 1565.447
135.022, 1633.438
135.504, 1714.300
135.986, 1790.031
136.469, 1862.060
136.951, 1927.152
137.433, 1978.836
137.915, 2013.806
138.397, 2052.739
138.879, 2103.129
139.361, 2165.328
139.844, 2222.822
140.326, 2273.301
140.808, 2321.860
141.290, 2375.120
141.772, 2430.907
142.254, 2495.556
142.736, 2571.488
143.218, 2663.226
143.700, 2755.855
144.182, 2844.082
144.665, 2934.180
145.147, 3053.246
145.629, 3225.567
146.111, 3397.304
146.593, 3536.717
147.075, 3627.051
147.557, 3711.576
148.039, 3792.090
148.522, 3868.486
149.004, 3942.046
149.486, 4026.027
149.968, 4099.837
150.450, 4148.378
150.932, 4155.360
151.414, 4153.585
151.896, 4158.399
152.378, 4181.672
152.861, 4152.447
153.343, 4040.204
153.825, 3882.137
154.307, 3724.314
154.789, 3572.571
155.271, 3421.701
155.753, 3269.010
156.235, 3110.476
156.717, 2962.686
157.200, 2821.970
157.682, 2692.949
158.164, 2589.152
158.646, 2530.626
159.128, 2486.808
159.610, 2440.779
160.092, 2383.333
160.574, 2331.083
161.057, 2290.773
161.539, 2260.681
162.021, 2233.386
162.503, 2206.864
162.985, 2181.166
163.467, 2156.228
163.949, 2133.936
164.431, 2111.083
164.913, 2084.981
165.396, 2055.778
165.878, 2019.088
166.360, 1983.756
166.842, 1953.764
167.324, 1933.929
167.806, 1938.406
168.288, 1946.136
168.770, 1937.893
169.253, 1909.572
169.735, 1887.109
170.217, 1863.872
170.699, 1888.173
171.181, 1901.304
171.663, 1903.865
172.145, 1863.353
172.627, 1879.045
173.109, 1872.545
173.592, 1865.348
174.074, 1889.582
174.556, 1877.303
175.038, 1900.053
175.520, 1941.757
176.002, 1992.409
176.484, 2032.874
176.966, 2052.215
177.449, 2070.262
177.931, 2114.773
178.413, 2183.229
178.895, 2255.550
179.377, 2315.909
179.859, 2368.057
180.341, 2422.223
180.823, 2485.026
181.305, 2549.386
181.788, 2599.090
182.270, 2633.177
182.752, 2668.597
183.234, 2727.460
183.716, 2803.839
184.198, 2871.191
184.680, 2919.330
185.162, 2950.830
185.645, 2974.705
186.127, 2990.555
186.609, 2999.470
187.091, 3001.114
187.573, 2995.847
188.055, 2987.746
188.537, 2981.287
189.019, 2974.428
189.501, 2956.895
189.984, 2926.913
190.466, 2888.845
190.948, 2850.114
191.430, 2810.439
191.912, 2765.751
192.394, 2712.638
192.876, 2651.651
193.358, 2588.397
193.840, 2523.783
194.323, 2457.345
194.805, 2388.221
195.287, 2317.473
195.769, 2238.507
196.251, 2141.197
196.733, 2024.016
197.215, 1919.240
197.697, 1834.433
198.180, 1763.739
198.662, 1686.383
199.144, 1601.114
199.626, 1514.793
200.108, 1431.885
200.590, 1351.165
201.072, 1283.476
201.554, 1232.255
202.036, 1196.048
202.519, 1165.647
203.001, 1142.875
203.483, 1120.940
203.965, 1087.732
204.447, 1037.896
204.929, 1003.806
205.411, 998.085
205.893, 1020.254
206.376, 1038.613
206.858, 1046.392
207.340, 1060.797
207.822, 1109.925
208.304, 1203.556
208.786, 1300.857
209.268, 1389.602
209.750, 1470.171
210.232, 1536.301
210.715, 1579.426
211.197, 1617.366
211.679, 1683.841
212.161, 1788.493
212.643, 1900.825
213.125, 2014.703
213.607, 2143.297
214.089, 2219.781
214.572, 2219.300
215.054, 2179.845
215.536, 2188.737
216.018, 2250.703
216.500, 2353.371
216.982, 2518.054
217.464, 2811.160
217.946, 2958.627
218.428, 2933.750
218.911, 2756.549
219.393, 2474.078
219.875, 2028.570
220.357, 1578.759
220.839, 1219.593
221.321, 963.699
221.803, 765.391
222.285, 635.076
222.768, 563.648
223.250, 502.814
223.732, 451.231
224.214, 411.104
224.696, 384.762
225.178, 378.564
225.660, 372.235
226.142, 362.462
226.624, 349.984
227.107, 344.158
227.589, 348.145
228.071, 353.770
228.553, 353.950
229.035, 344.489
229.517, 338.807
229.999, 341.333
230.481, 351.947
230.964, 352.141
231.446, 334.433
231.928, 314.084
232.410, 306.477
232.892, 319.037
233.374, 329.372
233.856, 333.223
234.338, 330.233
234.820, 326.929
235.303, 324.414
235.785, 320.774
236.267, 312.506
236.749, 292.199
237.231, 280.701
237.713, 287.309
238.195, 316.689
238.677, 330.840
239.159, 323.218
239.642, 305.248
240.124, 291.616
240.606, 282.626
241.088, 277.076
241.570, 274.483
242.052, 274.314
242.534, 280.299
243.016, 299.193
243.499, 319.973
243.981, 324.856
244.463, 306.248
244.945, 283.825
245.427, 263.487
245.909, 246.575
246.391, 227.283
246.873, 204.178
247.355, 179.358
247.837, 156.504
248.320, 136.530
248.802, 117.556
249.284, 99.377
249.766, 83.468
250.248, 64.130
250.730, 38.342
251.212, 10.586
251.695, 9.473
252.177, 19.925
252.659, 26.133
253.141, 28.731
253.623, 23.579
254.105, 27.166
254.587, 44.956
255.069, 69.010
255.551, 80.665
256.034, 74.463
256.516, 65.167
256.998, 58.779
257.480, 55.843
257.962, 54.445
258.444, 54.824
258.926, 56.721
259.408, 60.104
259.890, 66.490
260.373, 71.779
260.855, 73.954
261.337, 71.894
261.819, 70.211
262.301, 69.781
262.783, 69.530
263.265, 65.900
263.747, 57.387
264.229, 48.722
264.712, 41.659
265.194, 35.396
265.676, 34.470
266.158, 41.859
266.640, 53.317
267.122, 55.881
267.604, 47.185
268.086, 35.349
268.569, 23.234
269.051, 9.136
269.533, 2.607
270.015, 6.667
270.497, 17.184
270.979, 23.179
271.461, 24.543
271.943, 21.983
272.426, 14.102
272.908, 0.752
273.390, 10.322
273.872, 12.409
274.354, 9.534
274.836, 7.904
275.318, 7.337
275.800, 8.359
276.282, 12.749
276.764, 21.279
277.247, 23.817
277.729, 15.950
278.211, 4.560
278.693, 9.934
279.175, 35.462
279.657, 60.338
280.139, 69.889
280.621, 63.595
281.104, 60.161
281.586, 61.442
282.068, 66.392
282.550, 74.133
283.032, 85.253
283.514, 93.889
283.996, 92.820
284.478, 82.958
284.961, 83.111
285.443, 97.823
285.925, 119.846
286.407, 133.090
286.889, 137.330
287.371, 141.591
287.853, 154.621
288.335, 174.367
288.817, 183.475
289.299, 175.787
289.782, 164.380
290.264, 176.194
290.746, 210.262
291.228, 244.641
291.710, 264.484
292.192, 272.916
292.674, 283.041
293.156, 297.080
293.639, 311.487
294.121, 319.047
294.603, 320.611
295.085, 323.932
295.567, 332.274
296.049, 337.269
296.531, 373.126
297.013, 401.429
297.496, 422.597
297.978, 415.335
298.460, 444.656
298.942, 459.252
299.424, 473.193
299.906, 507.570
300.388, 504.283
300.870, 538.314
301.352, 557.430
301.835, 583.433
302.317, 594.743
302.799, 610.666
303.281, 641.329
303.763, 663.797
304.245, 673.571
304.727, 700.603
305.209, 697.663
305.691, 720.753
306.174, 754.877
306.656, 764.926
307.138, 778.080
307.620, 810.120
308.102, 838.101
308.584, 861.216
309.066, 879.517
309.548, 888.922
310.030, 894.225
310.513, 903.995
310.995, 925.008
311.477, 949.654
311.959, 972.118
312.441, 991.209
312.923, 1008.753
313.405, 1030.355
313.888, 1051.780
314.370, 1065.302
314.852, 1061.426
315.334, 1054.074
315.816, 1050.173
316.298, 1050.246
316.780, 1054.525
317.262, 1067.486
317.744, 1082.289
318.227, 1091.216
318.709, 1083.165
319.191, 1077.459
319.673, 1085.026
320.155, 1107.378
320.637, 1121.028
321.119, 1112.553
321.601, 1096.623
322.083, 1086.460
322.566, 1088.468
323.048, 1092.020
323.530, 1094.868
324.012, 1096.424
324.494, 1096.340
324.976, 1097.094
325.458, 1096.618
325.940, 1093.255
326.422, 1087.173
326.905, 1077.414
327.387, 1058.826
327.869, 1031.692
328.351, 1013.073
328.833, 1012.068
329.315, 1013.482
329.797, 1008.354
330.279, 993.844
330.762, 977.679
331.244, 958.725
331.726, 937.493
332.208, 918.820
332.690, 905.999
333.172, 892.747
333.654, 875.306
334.136, 850.829
334.618, 829.481
335.101, 812.275
335.583, 797.330
336.065, 780.815
336.547, 764.044
337.029, 747.024
337.511, 728.574
337.993, 707.465
338.475, 686.449
338.957, 666.076
339.440, 645.941
339.922, 625.107
340.404, 603.219
340.886, 582.724
341.368, 565.870
341.850, 552.535
342.332, 535.253
342.815, 512.306
343.297, 489.851
343.779, 479.833
344.261, 482.678
344.743, 480.074
345.225, 459.383
345.707, 425.584
346.189, 404.842
346.671, 398.797
347.154, 397.850
347.636, 392.702
348.118, 383.989
348.600, 373.439
349.082, 360.942
349.564, 346.778
350.046, 330.476
350.528, 311.929
351.010, 294.795
351.493, 283.498
351.975, 276.031
352.457, 268.128
352.939, 258.438
353.421, 247.671
353.903, 234.591
354.385, 219.964
354.867, 209.615
355.349, 213.644
355.832, 222.418
356.314, 223.163
356.796, 209.282
357.278, 191.745
357.760, 178.652
358.242, 168.855
358.724, 157.930
359.206, 140.685
359.689, 123.105
360.171, 110.643
360.653, 107.443
361.135, 102.441
361.617, 84.532
362.099, 61.489
362.581, 49.056
363.063, 64.176
363.546, 81.909
364.028, 89.764
364.510, 83.389
364.992, 76.941
365.474, 76.667
365.956, 77.313
366.438, 71.372
366.920, 46.195
367.402, 25.633
367.884, 17.765
368.367, 25.761
368.849, 30.490
369.331, 29.539
369.813, 26.321
370.295, 23.846
370.777, 22.120
371.259, 21.324
371.741, 23.201
372.224, 27.427
372.706, 23.839
373.188, 6.287
373.670, 11.341
374.152, 17.630
374.634, 7.524
375.116, 1.109
375.598, 2.323
376.081, 8.304
376.563, 7.072
377.045, 4.380
377.527, 13.649
378.009, 10.993
378.491, 4.385
378.973, 13.517
379.455, 13.847
379.937, 9.617
380.419, 8.280
380.902, 9.879
381.384, 11.538
381.866, 10.202
382.348, 7.257
382.830, 10.775
383.312, 21.959
383.794, 33.756
384.276, 36.293
384.759, 31.885
385.241, 29.144
385.723, 34.673
386.205, 42.706
386.687, 44.177
387.169, 39.191
387.651, 31.821
388.133, 24.010
388.616, 16.293
389.098, 9.098
389.580, 0.918
390.062, 4.601
390.544, 3.678
391.026, 2.659
391.508, 9.467
391.990, 15.551
392.472, 20.184
392.955, 22.686
393.437, 22.521
393.919, 20.824
394.401, 18.184
394.883, 14.324
395.365, 8.770
395.847, 5.102
396.329, 15.485
396.811, 15.479
397.294, 0.157
397.776, 10.741
398.258, 7.753
398.740, 0.257
399.222, 0.408
399.704, 17.758
400.186, 29.661
400.668, 28.652
401.151, 13.852
401.633, 2.305
402.115, 3.719
402.597, 8.786
403.079, 17.432
403.561, 33.046
404.043, 43.331
404.525, 44.183
405.008, 38.840
405.490, 42.026
405.972, 56.353
406.454, 71.330
406.936, 79.372
407.418, 79.969
407.900, 86.693
408.382, 102.164
408.864, 120.463
409.346, 130.989
409.829, 133.955
410.311, 135.465
410.793, 134.808
411.275, 134.935
411.757, 148.062
412.239, 175.446
412.721, 203.724
413.203, 213.830
413.686, 213.687
414.168, 224.083
414.650, 258.183
415.132, 301.593
415.614, 344.702
416.096, 385.743
416.578, 414.993
417.060, 416.704
417.543, 406.814
418.025, 400.723
418.507, 398.713
418.989, 407.083
419.471, 432.848
419.953, 471.421
420.435, 511.628
420.917, 552.752
421.399, 593.655
421.882, 632.466
422.364, 666.622
422.846, 706.509
423.328, 759.705
423.810, 818.201
424.292, 872.154
424.774, 903.989
425.256, 949.255
425.738, 1021.525
426.221, 1120.541
426.703, 1207.813
427.185, 1274.609
427.667, 1338.679
428.149, 1410.784
428.631, 1489.758
429.113, 1580.217
429.595, 1686.746
430.078, 1802.434
430.560, 1910.331
431.042, 2008.513
431.524, 2101.661
432.006, 2191.322
432.488, 2278.570
432.970, 2365.067
433.452, 2449.842
433.934, 2534.845
434.417, 2625.043
434.899, 2720.185
435.381, 2813.975
435.863, 2910.219
436.345, 2999.514
436.827, 3060.601
437.309, 3094.957
437.791, 3123.358
438.273, 3164.839
438.756, 3210.406
439.238, 3246.609
439.720, 3270.220
440.202, 3283.894
440.684, 3284.013
441.166, 3274.026
441.648, 3265.153
442.130, 3265.577
442.612, 3268.386
443.095, 3265.180
443.577, 3249.527
444.059, 3248.671
444.541, 3283.197
445.023, 3334.254
445.505, 3379.093
445.987, 3405.293
446.470, 3432.844
446.952, 3468.400
447.434, 3512.008
447.916, 3548.944
448.398, 3570.717
448.880, 3593.074
449.362, 3625.575
449.844, 3671.086
450.326, 3721.041
450.809, 3780.567
451.291, 3842.135
451.773, 3884.556
452.255, 3904.017
452.737, 3918.623
453.219, 3933.820
453.701, 3949.926
454.183, 3974.832
454.665, 4012.196
455.148, 4044.593
455.630, 4046.119
456.112, 4021.556
456.594, 4000.610
457.076, 3991.741
457.558, 3990.779
458.040, 3995.876
458.522, 4005.714
459.004, 4008.258
459.487, 3993.247
459.969, 3965.999
460.451, 3932.728
460.933, 3893.359
461.415, 3852.114
461.897, 3810.517
462.379, 3769.777
462.862, 3733.047
463.344, 3700.618
463.826, 3673.221
464.308, 3653.386
464.790, 3641.469
465.272, 3628.276
465.754, 3608.712
466.236, 3588.777
466.718, 3572.700
467.201, 3566.705
467.683, 3557.472
468.165, 3537.147
468.647, 3512.740
469.129, 3508.015
469.611, 3539.367
470.093, 3566.047
470.575, 3575.056
471.057, 3567.431
471.539, 3538.183
472.022, 3493.004
472.504, 3416.039
472.986, 3282.291
473.468, 3088.627
473.950, 2872.884
474.432, 2633.185
474.914, 2383.847
475.397, 2162.154
475.879, 1967.986
476.361, 1793.077
476.843, 1625.951
477.325, 1475.214
477.807, 1359.910
478.289, 1287.982
478.771, 1230.949
479.253, 1161.038
479.736, 1085.925
480.218, 1021.129
480.700, 975.682
481.182, 941.068
481.664, 916.352
482.146, 900.659
482.628, 880.383
483.110, 843.942
483.592, 804.302
484.075, 770.901
484.557, 747.928
485.039, 727.539
485.521, 710.190
486.003, 694.570
486.485, 677.865
486.967, 662.514
487.449, 643.089
487.931, 615.702
488.414, 578.866
488.896, 552.294
489.378, 541.019
489.860, 532.224
490.342, 511.367
490.824, 476.155
491.306, 447.806
491.788, 430.302
492.271, 421.085
492.753, 415.964
493.235, 414.784
493.717, 413.219
494.199, 407.618
494.681, 399.383
495.163, 395.080
495.645, 396.485
496.128, 396.108
496.610, 380.851
497.092, 358.487
497.574, 343.786
498.056, 348.571
498.538, 358.699
499.020, 365.484
499.502, 367.456
499.984, 366.612
500.466, 365.429
500.949, 364.537
501.431, 363.106
501.913, 358.924
502.395, 353.376
502.877, 344.738
503.359, 336.510
503.841, 331.954
504.323, 330.699
504.806, 332.666
505.288, 340.748
505.770, 354.367
506.252, 361.058
506.734, 357.847
507.216, 350.657
507.698, 342.541
508.180, 334.188
508.663, 337.056
509.145, 354.661
509.627, 372.461
510.109, 365.353
510.591, 337.997
511.073, 318.364
511.555, 324.805
512.037, 340.816
512.519, 339.010
513.002, 321.610
513.484, 305.104
513.966, 299.149
514.448, 300.199
514.930, 306.214
515.412, 319.619
515.894, 329.434
516.376, 327.498
516.859, 319.356
517.341, 313.237
517.823, 310.365
518.305, 310.526
518.787, 313.916
519.269, 320.573
519.751, 329.859
520.233, 349.284
520.715, 363.351
521.198, 361.792
521.680, 336.794
522.162, 318.825
522.644, 308.678
523.126, 305.478
523.608, 308.965
524.090, 319.666
524.572, 331.820
525.054, 345.898
525.537, 358.997
526.019, 358.755
526.501, 345.571
526.983, 334.079
527.465, 338.200
527.947, 350.878
528.429, 360.217
528.911, 364.427
529.393, 364.680
529.876, 354.134
530.358, 341.658
530.840, 341.408
531.322, 382.543
531.804, 414.946
532.286, 410.593
532.768, 372.811
533.250, 339.009
533.732, 313.107
534.215, 296.484
534.697, 291.442
535.179, 305.517
535.661, 313.533
536.143, 311.754
536.625, 306.931
537.107, 309.392
537.589, 322.666
538.072, 330.331
538.554, 327.235
539.036, 316.183
539.518, 307.702
540.000, 301.814
540.482, 296.387
540.964, 292.149
541.446, 287.219
541.929, 274.407
542.411, 251.945
542.893, 230.132
543.375, 221.677
543.857, 220.068
544.339, 213.724
544.821, 192.701
545.303, 171.655
545.786, 159.547
546.268, 154.565
546.750, 149.617
547.232, 147.060
547.714, 140.071
548.196, 123.599
548.678, 93.080
549.160, 68.974
549.642, 57.089
550.125, 47.563
550.607, 29.310
551.089, 6.500
551.571, 27.160
552.053, 23.629
552.535, 5.763
553.017, 1.502
553.499, 12.435
553.981, 20.368
554.464, 8.457
554.946, 14.490
555.428, 8.350
555.910, 27.929
556.392, 61.797
556.874, 55.716
557.356, 31.175
557.838, 24.959
558.320, 54.694
558.803, 84.699
559.285, 87.378
559.767, 72.962
560.249, 60.797
560.731, 60.654
561.213, 60.907
561.695, 54.937
562.177, 42.501
562.659, 38.455
563.142, 54.508
563.624, 69.013
564.106, 69.004
564.588, 45.089
565.070, 33.063
565.552, 37.664
566.034, 47.738
566.516, 47.433
566.999, 36.273
567.481, 21.577
567.963, 2.962
568.445, 15.981
568.927, 26.760
569.409, 30.137
569.891, 32.722
570.373, 37.320
570.856, 44.297
571.338, 54.882
571.820, 69.270
572.302, 84.374
572.784, 100.330
573.266, 114.903
573.748, 125.898
574.230, 129.887
574.713, 133.440
575.195, 133.783
575.677, 134.610
576.159, 146.424
576.641, 180.354
577.123, 210.200
577.605, 226.661
578.087, 229.833
578.569, 238.649
579.052, 254.767
579.534, 272.256
580.016, 283.153
580.498, 288.724
580.980, 308.857
581.462, 348.972
581.944, 391.777
582.426, 413.785
582.908, 420.126
583.391, 426.055
583.873, 432.185
584.355, 445.287
584.837, 475.744
585.319, 519.544
585.801, 561.531
586.283, 597.135
586.765, 626.494
587.247, 646.888
587.730, 654.056
588.212, 669.998
588.694, 703.385
589.176, 742.626
589.658, 778.213
590.140, 803.749
590.622, 841.729
591.104, 900.847
591.586, 967.339
592.069, 1010.368
592.551, 1027.672
593.033, 1048.731
593.515, 1084.666
593.997, 1132.478
594.479, 1186.665
594.961, 1247.243
595.443, 1310.110
595.925, 1374.590
596.408, 1439.356
596.890, 1501.932
597.372, 1560.466
597.854, 1622.095
598.336, 1694.308
598.818, 1770.989
599.300, 1843.180
599.782, 1898.714
600.265, 1962.770
600.747, 2041.310
601.229, 2131.510
601.711, 2228.697
602.193, 2339.675
602.675, 2446.512
603.157, 2539.874
603.639, 2621.567
604.122, 2719.344
604.604, 2837.291
605.086, 2955.795
605.568, 3053.275
606.050, 3137.602
606.532, 3244.569
607.014, 3381.082
607.496, 3526.143
607.979, 3665.716
608.461, 3797.726
608.943, 3921.094
609.425, 4028.167
609.907, 4132.308
610.389, 4241.235
610.871, 4351.003
611.353, 4456.321
611.835, 4574.128
612.318, 4670.044
612.800, 4726.298
613.282, 4740.805
613.764, 4742.869
614.246, 4729.767
614.728, 4709.910
615.210, 4691.948
615.692, 4677.133
616.174, 4640.568
616.657, 4579.816
617.139, 4500.362
617.621, 4398.667
618.103, 4280.665
618.585, 4173.736
619.067, 4091.336
619.549, 4018.827
620.031, 3941.027
620.513, 3858.371
620.996, 3775.067
621.478, 3695.221
621.960, 3614.539
622.442, 3530.490
622.924, 3441.253
623.406, 3356.858
623.888, 3284.110
624.370, 3213.829
624.852, 3141.198
625.335, 3067.767
625.817, 2989.535
626.299, 2901.806
626.781, 2812.232
627.263, 2732.613
627.745, 2663.248
628.227, 2597.283
628.709, 2535.882
