##NAMES=Alunite
##RRUFFID=R060430
##IDEAL CHEMISTRY=KAl_3_(SO_4_)_2_(OH)_6_
##LOCALITY=Wendy Pit, El Indio Gold mine, Tambo, Coquimbo District, Chile
##OWNER=RRUFF
##SOURCE=Michael Scott
##DESCRIPTION=Colorless transparent hexagonal plates
##STATUS=The identification of this mineral is confirmed by single-crystal X-ray diffraction and chemical analysis.
##URL=rruff.info/R060430
##MEASURED CHEMISTRY=(K_0.94_Na_0.06_)_Î£=1_Al_3.00_(S_1.00_O_4_)_2_(OH)_6_
181.6732, 0.0000000E+00
182.1553, 0.3252720
182.6374, 5.0781000E-02
183.1195, 0.1226650
183.6017, 9.6878000E-02
184.0838, 0.2252200
184.5659, 8.8881999E-02
185.0480, 0.2562560
185.5301, 0.2746280
186.0123, 0.3241120
186.4944, 1.418365
186.9765, 2.601013
187.4586, 3.833527
187.9407, 5.236526
188.4228, 7.103729
188.9050, 9.374664
189.3871, 11.61420
189.8692, 13.36549
190.3513, 14.78542
190.8334, 16.87308
191.3155, 19.80296
191.7977, 23.02159
192.2798, 25.57875
192.7619, 27.47714
193.2440, 29.42596
193.7261, 31.98157
194.2082, 35.05481
194.6904, 37.58656
195.1725, 39.32611
195.6546, 40.89375
196.1367, 43.48891
196.6188, 47.19113
197.1009, 50.96506
197.5831, 54.37871
198.0652, 57.46234
198.5473, 59.89688
199.0294, 61.47285
199.5115, 62.66185
199.9937, 64.50055
200.4758, 67.05411
200.9579, 69.65529
201.4400, 71.83057
201.9221, 73.52704
202.4042, 75.58189
202.8864, 78.22626
203.3685, 81.06366
203.8506, 83.15070
204.3327, 84.38834
204.8148, 85.25357
205.2969, 86.00162
205.7791, 86.65219
206.2612, 86.89267
206.7433, 86.54080
207.2254, 85.89523
207.7075, 85.98215
208.1896, 87.29907
208.6718, 87.89880
209.1539, 86.40189
209.6360, 82.29416
210.1181, 78.80522
210.6002, 76.14545
211.0823, 74.18512
211.5645, 72.67694
212.0466, 71.83044
212.5287, 70.94420
213.0108, 69.57831
213.4929, 67.54816
213.9750, 65.72903
214.4572, 64.09393
214.9393, 62.73300
215.4214, 61.84137
215.9035, 61.38060
216.3856, 61.45735
216.8678, 62.08859
217.3499, 63.20027
217.8320, 65.14069
218.3141, 68.15137
218.7962, 71.91011
219.2783, 75.45093
219.7605, 78.78873
220.2426, 81.81158
220.7247, 84.48090
221.2068, 86.91351
221.6889, 88.54721
222.1710, 88.88785
222.6532, 88.52142
223.1353, 89.25174
223.6174, 91.26593
224.0995, 94.08249
224.5816, 97.56560
225.0637, 102.1122
225.5459, 106.3342
226.0280, 109.7295
226.5101, 113.0205
226.9922, 117.8989
227.4743, 124.1542
227.9564, 131.9777
228.4386, 141.3047
228.9207, 151.7673
229.4028, 163.7788
229.8849, 177.6519
230.3670, 193.2476
230.8492, 210.8785
231.3313, 231.1453
231.8134, 252.3787
232.2955, 274.2407
232.7776, 297.2717
233.2597, 318.9146
233.7419, 340.8465
234.2240, 361.0768
234.7061, 375.1096
235.1882, 386.2429
235.6703, 386.6549
236.1524, 371.9171
236.6346, 336.1932
237.1167, 298.1134
237.5988, 254.7825
238.0809, 210.0362
238.5630, 172.0692
239.0451, 142.1084
239.5273, 117.5131
240.0094, 97.64102
240.4915, 83.42741
240.9736, 71.37526
241.4557, 61.78606
241.9378, 54.18144
242.4200, 47.65591
242.9021, 42.50519
243.3842, 37.72469
243.8663, 32.81332
244.3484, 27.25322
244.8306, 23.23006
245.3127, 21.25069
245.7948, 20.51561
246.2769, 19.62822
246.7590, 18.47325
247.2411, 17.41953
247.7233, 16.68834
248.2054, 16.51727
248.6875, 15.70782
249.1696, 13.94814
249.6517, 11.76543
250.1338, 9.960327
250.6160, 8.421951
251.0981, 7.482880
251.5802, 7.404968
252.0623, 8.424957
252.5444, 9.057571
253.0265, 9.142441
253.5087, 8.964645
253.9908, 8.916306
254.4729, 9.014542
254.9550, 9.223160
255.4371, 9.589310
255.9192, 10.15691
256.4014, 10.45627
256.8835, 10.30565
257.3656, 10.06354
257.8477, 10.22588
258.3298, 11.08240
258.8120, 11.68276
259.2941, 11.69701
259.7762, 11.07364
260.2583, 10.73782
260.7404, 10.72478
261.2225, 10.94354
261.7047, 11.22505
262.1868, 11.38110
262.6689, 12.18985
263.1510, 14.14781
263.6331, 17.17352
264.1152, 18.90659
264.5974, 19.06020
265.0795, 18.34985
265.5616, 17.36745
266.0437, 15.99873
266.5258, 14.72330
267.0079, 13.78340
267.4901, 13.06908
267.9722, 11.55807
268.4543, 8.923569
268.9364, 6.123276
269.4185, 3.925980
269.9006, 2.427170
270.3828, 1.118469
270.8649, 0.1259610
271.3470, 1.243301
271.8291, 1.903381
272.3112, 1.997269
272.7933, 1.952942
273.2755, 2.156235
273.7576, 2.701859
274.2397, 2.868164
274.7218, 2.506393
275.2039, 1.751968
275.6860, 0.8882750
276.1682, 0.2115630
276.6503, 0.9735410
277.1324, 0.8647610
277.6145, 0.1976620
278.0966, 0.9332730
278.5787, 1.174088
279.0609, 1.106567
279.5430, 1.120499
280.0251, 1.216629
280.5072, 1.354446
280.9893, 1.586426
281.4715, 1.906723
281.9536, 1.955261
282.4357, 1.681534
282.9178, 1.202148
283.3999, 0.5983430
283.8820, 0.1482700
284.3642, 0.6319120
284.8463, 0.4190060
285.3284, 0.3951720
285.8105, 0.6512760
286.2926, 0.3214870
286.7747, 0.4696500
287.2569, 1.980286
287.7390, 4.150970
288.2211, 5.465622
288.7032, 4.704987
289.1853, 2.488663
289.6674, 1.755859
290.1496, 2.668518
290.6317, 3.973801
291.1138, 4.288849
291.5959, 3.724716
292.0780, 3.031586
292.5602, 2.362259
293.0423, 1.767075
293.5244, 1.379349
294.0065, 1.205734
294.4886, 1.176636
294.9707, 1.409286
295.4529, 1.775711
295.9350, 1.768723
296.4171, 1.059479
296.8992, 9.4315000E-02
297.3813, 0.2708740
297.8634, 8.0077998E-02
298.3456, 0.1645810
298.8277, 9.0240002E-02
299.3098, 0.5660550
299.7919, 0.5664980
300.2740, 0.2619780
300.7561, 1.245209
301.2383, 1.375732
301.7204, 0.8187100
302.2025, 0.3107760
302.6846, 0.4398190
303.1667, 0.8748780
303.6488, 1.098892
304.1310, 0.9822390
304.6131, 0.8014680
305.0952, 0.7316590
305.5773, 0.8017120
306.0594, 1.089569
306.5415, 1.935684
307.0237, 2.872360
307.5058, 3.376938
307.9879, 3.356384
308.4700, 3.179855
308.9521, 3.008575
309.4343, 2.885864
309.9164, 2.883270
310.3985, 3.249588
310.8806, 3.598846
311.3627, 3.567719
311.8448, 3.136139
312.3270, 2.726639
312.8091, 2.549072
313.2912, 2.549149
313.7733, 2.662247
314.2554, 2.964767
314.7375, 3.289764
315.2197, 3.450302
315.7018, 3.492752
316.1839, 3.788788
316.6660, 4.838150
317.1481, 6.044037
317.6302, 6.930618
318.1124, 7.693954
318.5945, 7.752975
319.0766, 6.192093
319.5587, 3.597977
320.0408, 1.978851
320.5229, 2.569946
321.0051, 3.882355
321.4872, 5.168640
321.9693, 6.517044
322.4514, 7.421005
322.9335, 7.573654
323.4156, 7.228806
323.8978, 6.875458
324.3799, 6.023315
324.8620, 5.675262
325.3441, 6.334122
325.8262, 8.425690
326.3083, 10.26675
326.7905, 11.70314
327.2726, 12.83646
327.7547, 13.77328
328.2368, 14.34715
328.7189, 14.89543
329.2010, 15.30624
329.6832, 15.54842
330.1653, 16.32140
330.6474, 18.09755
331.1295, 20.06248
331.6116, 21.58617
332.0938, 22.67574
332.5759, 23.38107
333.0580, 23.44908
333.5401, 23.05055
334.0222, 23.43900
334.5043, 24.88023
334.9865, 26.59752
335.4686, 28.10965
335.9507, 29.30653
336.4328, 30.58589
336.9149, 31.94693
337.3970, 33.46013
337.8792, 35.36012
338.3613, 37.90912
338.8434, 40.17627
339.3255, 41.49582
339.8076, 41.63593
340.2898, 43.01875
340.7719, 46.06009
341.2540, 49.70157
341.7361, 52.47139
342.2182, 54.23793
342.7003, 55.62254
343.1825, 56.58582
343.6646, 57.28517
344.1467, 58.71202
344.6288, 61.06241
345.1109, 63.34705
345.5930, 64.65746
346.0752, 64.99771
346.5573, 64.71736
347.0394, 63.80299
347.5215, 62.38654
348.0036, 60.46399
348.4857, 58.06233
348.9679, 56.04036
349.4500, 55.63739
349.9321, 56.14030
350.4142, 55.38783
350.8963, 52.82823
351.3784, 49.50278
351.8606, 46.35143
352.3427, 43.52245
352.8248, 41.46983
353.3069, 40.85397
353.7890, 41.04851
354.2711, 41.28368
354.7533, 41.45891
355.2354, 41.30713
355.7175, 40.92697
356.1996, 40.14726
356.6817, 38.56812
357.1638, 35.32687
357.6460, 31.64024
358.1281, 28.42064
358.6102, 25.68448
359.0923, 23.15251
359.5744, 20.47327
360.0565, 17.93625
360.5387, 15.88539
361.0208, 14.51619
361.5029, 13.56248
361.9850, 12.98026
362.4671, 12.72588
362.9492, 12.68762
363.4314, 13.00705
363.9135, 13.41681
364.3956, 13.77983
364.8777, 14.05258
365.3598, 14.30850
365.8419, 14.32150
366.3241, 14.37450
366.8062, 14.89523
367.2883, 16.38391
367.7704, 17.92982
368.2526, 19.27185
368.7347, 20.33034
369.2168, 21.49696
369.6989, 23.06000
370.1810, 24.57729
370.6631, 25.67783
371.1453, 25.90369
371.6274, 26.39598
372.1095, 27.26521
372.5916, 28.51135
373.0737, 30.12706
373.5558, 32.35027
374.0380, 34.60948
374.5201, 36.57320
375.0022, 38.05142
375.4843, 39.77863
375.9664, 41.78165
376.4485, 44.04010
376.9307, 46.55305
377.4128, 49.26553
377.8949, 52.32718
378.3770, 56.08554
378.8591, 60.45303
379.3412, 63.88771
379.8234, 66.27740
380.3055, 68.00461
380.7876, 69.47758
381.2697, 70.69307
381.7518, 71.37123
382.2339, 71.56851
382.7161, 71.09445
383.1982, 69.41431
383.6803, 66.55725
384.1624, 62.90300
384.6445, 58.60103
385.1266, 53.74432
385.6088, 48.40662
386.0909, 42.43246
386.5730, 36.55461
387.0551, 31.48416
387.5372, 27.25412
388.0193, 23.87997
388.5015, 21.76697
388.9836, 20.34688
389.4657, 19.10219
389.9478, 18.00795
390.4299, 16.95885
390.9120, 15.87965
391.3942, 14.80042
391.8763, 13.76733
392.3584, 12.37373
392.8405, 11.43272
393.3226, 11.61635
393.8047, 12.70726
394.2869, 13.70865
394.7690, 14.80373
395.2511, 15.30136
395.7332, 14.61987
396.2154, 11.89594
396.6975, 9.624344
397.1796, 8.489609
397.6617, 8.094650
398.1438, 7.756775
398.6259, 7.137100
399.1081, 6.797806
399.5902, 7.066162
400.0723, 8.100876
400.5544, 8.612411
401.0365, 8.213364
401.5186, 7.573151
402.0008, 7.241486
402.4829, 7.366241
402.9650, 7.529633
403.4471, 7.817993
403.9292, 8.107941
404.4113, 7.844589
404.8935, 6.884552
405.3756, 5.705887
405.8577, 4.492050
406.3398, 3.227325
406.8219, 2.114914
407.3040, 1.136810
407.7862, 0.3554840
408.2683, 5.7480000E-02
408.7504, 8.5814998E-02
409.2325, 0.1930080
409.7146, 0.5539860
410.1967, 1.101852
410.6789, 1.752563
411.1610, 2.518707
411.6431, 3.021194
412.1252, 2.673721
412.6073, 1.781097
413.0894, 1.280624
413.5716, 1.514587
414.0537, 1.871094
414.5358, 1.412521
415.0179, 0.4066470
415.5000, 0.2944640
415.9821, 0.1721500
416.4643, 0.9786530
416.9464, 1.244934
417.4285, 0.8826450
417.9106, 0.3798070
418.3927, 2.1698000E-02
418.8748, 0.3569030
419.3570, 0.6589360
419.8391, 1.101425
420.3212, 1.360779
420.8033, 1.174759
421.2854, 0.6461180
421.7675, 0.2536160
422.2497, 0.2023160
422.7318, 0.2862400
423.2139, 0.4371800
423.6960, 0.7962650
424.1781, 0.9039760
424.6602, 0.4338990
425.1424, 0.2383730
425.6245, 0.5652160
426.1066, 0.4513400
426.5887, 0.1021120
427.0709, 0.5303340
427.5530, 1.444641
428.0351, 2.160904
428.5172, 2.624985
428.9993, 2.972183
429.4814, 3.365860
429.9636, 3.940948
430.4457, 3.933029
430.9278, 2.986877
431.4099, 1.712418
431.8920, 1.542908
432.3741, 2.598999
432.8563, 3.829620
433.3384, 5.002792
433.8205, 6.025528
434.3026, 6.007690
434.7847, 4.830643
435.2668, 3.573990
435.7490, 3.443924
436.2311, 4.177551
436.7132, 4.818146
437.1953, 5.008072
437.6774, 5.143234
438.1595, 5.783615
438.6417, 6.855667
439.1238, 8.054688
439.6059, 9.388092
440.0880, 10.65923
440.5701, 11.58614
441.0522, 12.09004
441.5344, 12.63585
442.0165, 13.48643
442.4986, 14.55785
442.9807, 15.74370
443.4628, 17.11200
443.9449, 18.48627
444.4271, 19.63429
444.9092, 20.65468
445.3913, 22.12236
445.8734, 24.24876
446.3555, 26.76387
446.8376, 29.53879
447.3198, 32.58652
447.8019, 35.85898
448.2840, 39.20406
448.7661, 42.79901
449.2482, 46.88687
449.7303, 51.47104
450.2125, 56.51465
450.6946, 62.29564
451.1767, 68.73857
451.6588, 74.15860
452.1409, 78.11717
452.6230, 82.17282
453.1052, 87.47308
453.5873, 94.15837
454.0694, 100.6960
454.5515, 106.6867
455.0337, 113.0326
455.5158, 121.3099
455.9979, 131.4843
456.4800, 141.9461
456.9621, 151.7024
457.4442, 161.4594
457.9264, 172.9122
458.4085, 185.9902
458.8906, 200.4523
459.3727, 216.0945
459.8548, 232.8987
460.3369, 250.6392
460.8191, 269.7890
461.3012, 289.1389
461.7833, 308.1104
462.2654, 326.6098
462.7475, 344.3603
463.2296, 363.3062
463.7118, 380.0122
464.1939, 393.3738
464.6760, 403.4586
465.1581, 407.8886
465.6402, 405.3592
466.1223, 397.2137
466.6045, 384.3668
467.0866, 364.6658
467.5687, 343.0959
468.0508, 318.5205
468.5329, 292.2627
469.0150, 266.7199
469.4972, 241.0896
469.9793, 217.9354
470.4614, 198.3966
470.9435, 182.5517
471.4256, 168.7212
471.9077, 156.9636
472.3899, 147.0387
472.8720, 139.1262
473.3541, 133.3075
473.8362, 127.7327
474.3183, 121.7794
474.8004, 116.1481
475.2826, 112.5317
475.7647, 110.9281
476.2468, 110.3639
476.7289, 110.5841
477.2110, 111.4334
477.6931, 112.5125
478.1753, 113.8190
478.6574, 115.6555
479.1395, 118.1535
479.6216, 121.2553
480.1037, 125.0374
480.5858, 129.7736
481.0680, 134.7316
481.5501, 139.5489
482.0322, 144.2283
482.5143, 148.7295
482.9964, 153.1663
483.4786, 157.2988
483.9607, 161.4658
484.4428, 165.7676
484.9249, 168.2167
485.4070, 168.7887
485.8892, 167.1326
486.3713, 162.9054
486.8534, 156.0909
487.3355, 146.8527
487.8176, 134.1441
488.2997, 119.3876
488.7819, 105.0133
489.2640, 90.23149
489.7461, 77.52817
490.2282, 67.90546
490.7103, 61.17534
491.1924, 55.75783
491.6746, 51.82156
492.1567, 48.34674
492.6388, 44.06143
493.1209, 39.17612
493.6030, 36.09973
494.0851, 35.26941
494.5673, 35.85522
495.0494, 37.19878
495.5315, 39.07722
496.0136, 40.63660
496.4957, 41.21286
496.9778, 41.43317
497.4600, 42.09753
497.9421, 43.15073
498.4242, 44.03212
498.9063, 43.87994
499.3884, 43.71509
499.8705, 44.45694
500.3527, 46.47028
500.8348, 48.92537
501.3169, 51.34866
501.7990, 54.04355
502.2811, 57.47026
502.7632, 62.31294
503.2454, 67.20531
503.7275, 71.81845
504.2096, 76.18463
504.6917, 80.97253
505.1738, 86.47391
505.6559, 91.92722
506.1381, 96.71147
506.6202, 100.4147
507.1023, 105.3315
507.5844, 111.9165
508.0665, 118.8909
508.5486, 124.8981
509.0308, 129.9788
509.5129, 132.9774
509.9950, 133.8881
510.4771, 132.3047
510.9592, 126.9865
511.4413, 118.0760
511.9235, 106.9393
512.4056, 92.72638
512.8877, 77.49341
513.3698, 63.91736
513.8519, 52.20807
514.3340, 42.07660
514.8162, 33.29095
515.2983, 25.97176
515.7804, 20.31351
516.2625, 17.23080
516.7446, 14.71779
517.2267, 11.74423
517.7089, 8.756287
518.1910, 6.887894
518.6731, 7.958389
519.1552, 8.708618
519.6373, 7.615280
520.1194, 4.382553
520.6016, 2.430450
521.0837, 2.463669
521.5658, 3.007507
522.0479, 2.978546
522.5300, 2.141388
523.0121, 1.614120
523.4943, 1.582642
523.9764, 1.901779
524.4585, 1.762711
524.9406, 1.028946
525.4227, 0.6139680
525.9048, 1.114029
526.3870, 1.998672
526.8691, 1.800156
527.3513, 0.6504210
527.8334, 0.5107120
528.3155, 1.235641
528.7976, 1.606522
529.2797, 1.569397
529.7618, 0.9781800
530.2440, 0.5823210
530.7261, 1.400223
531.2082, 2.503860
531.6903, 2.817520
532.1724, 1.164780
532.6545, 0.3463590
533.1367, 0.9906920
533.6188, 0.9696040
534.1009, 0.9182590
534.5830, 1.085388
535.0651, 1.110565
535.5472, 0.6167600
536.0294, 0.6234440
536.5115, 0.6198120
536.9936, 1.362595
537.4757, 3.568848
537.9578, 4.443390
538.4399, 3.770386
538.9221, 3.186050
539.4042, 2.845703
539.8863, 2.670425
540.3684, 2.464905
540.8505, 2.250229
541.3326, 2.294815
541.8148, 2.849976
542.2969, 3.643234
542.7790, 4.113754
543.2611, 4.317017
543.7432, 4.707962
544.2253, 5.982239
544.7075, 7.395096
545.1896, 7.977524
545.6717, 7.383774
546.1538, 7.194763
546.6359, 8.596817
547.1180, 10.63634
547.6002, 12.28220
548.0823, 12.64720
548.5644, 13.34904
549.0465, 15.06134
549.5286, 17.34198
550.0107, 18.88466
550.4929, 19.25256
550.9750, 19.52132
551.4571, 19.93810
551.9392, 20.50421
552.4213, 21.54826
552.9034, 23.17955
553.3856, 24.95573
553.8677, 26.76328
554.3498, 28.53561
554.8319, 29.17810
555.3140, 28.27850
555.7961, 27.36351
556.2783, 28.96439
556.7604, 32.22061
557.2425, 34.64978
557.7246, 34.77748
558.2067, 34.27657
558.6888, 34.83119
559.1710, 36.14633
559.6531, 37.21260
560.1352, 37.28908
560.6173, 37.20837
561.0994, 37.69016
561.5815, 38.97424
562.0637, 39.01085
562.5458, 36.42099
563.0279, 33.09827
563.5100, 30.37312
563.9921, 28.20638
564.4742, 26.79195
564.9564, 26.61319
565.4385, 26.80870
565.9206, 25.77933
566.4027, 23.25565
566.8848, 20.87396
567.3669, 19.10104
567.8491, 17.81192
568.3312, 16.79265
568.8133, 16.03387
569.2954, 15.17229
569.7775, 13.78108
570.2596, 12.19073
570.7418, 11.08577
571.2239, 10.50879
571.7060, 10.03897
572.1881, 9.175156
572.6702, 8.324173
573.1523, 8.007782
573.6345, 8.856354
574.1166, 9.349106
574.5987, 8.742920
575.0808, 7.451401
575.5629, 6.144623
576.0450, 4.580231
576.5272, 3.442383
577.0093, 2.961502
577.4914, 3.054382
577.9735, 3.194321
578.4556, 3.413925
578.9377, 3.622253
579.4199, 4.012085
579.9020, 4.602737
580.3841, 3.576279
580.8662, 0.5947570
581.3483, 2.165802
581.8304, 1.983597
582.3126, 0.3277280
582.7947, 1.972092
583.2768, 2.422379
583.7589, 2.109589
584.2410, 0.9038390
584.7231, 0.6832890
585.2053, 1.638626
585.6874, 1.139053
586.1696, 0.3234710
586.6517, 0.5415040
587.1338, 1.341675
587.6159, 1.553391
588.0980, 0.1981350
588.5801, 1.129089
589.0623, 1.695557
589.5444, 1.340271
590.0265, 0.8324280
590.5086, 8.0570001E-03
590.9907, 0.6312260
591.4728, 0.6152500
591.9550, 0.2191620
592.4371, 0.5724790
592.9192, 0.2328640
593.4013, 0.3523860
593.8834, 0.4497070
594.3655, 0.1781010
594.8477, 6.6620000E-02
595.3298, 0.2586360
595.8119, 0.6250000
596.2940, 1.149261
596.7761, 1.730621
597.2582, 2.046005
597.7404, 1.672043
598.2225, 1.158813
598.7046, 0.7669070
599.1867, 0.5206600
599.6688, 0.6834410
600.1509, 1.662460
600.6331, 2.830917
601.1152, 3.840225
601.5973, 4.849274
602.0794, 5.252640
602.5615, 4.608658
603.0436, 3.778793
603.5258, 3.910873
604.0079, 5.300613
604.4900, 5.941055
604.9721, 5.186676
605.4542, 4.001190
605.9363, 4.682098
606.4185, 6.988144
606.9006, 8.799240
607.3827, 8.764542
607.8648, 7.895477
608.3469, 7.580963
608.8290, 7.747162
609.3112, 7.991684
609.7933, 8.400665
610.2754, 8.566330
610.7575, 8.015762
611.2396, 6.583969
611.7217, 5.424744
612.2039, 5.124878
612.6860, 5.056122
613.1681, 4.729416
613.6502, 3.924896
614.1323, 3.203751
614.6144, 2.508102
615.0966, 1.956818
615.5787, 1.850128
616.0608, 2.328064
616.5429, 2.295517
617.0250, 1.300720
617.5071, 0.1205440
617.9893, 0.7862090
618.4714, 0.7380070
618.9535, 0.3134920
619.4356, 0.5246580
619.9177, 1.529877
620.3998, 2.503174
620.8820, 3.412140
621.3641, 4.010147
621.8462, 4.160126
622.3283, 3.951874
622.8104, 3.310303
623.2925, 2.002609
623.7747, 1.162827
624.2568, 1.444962
624.7389, 1.990097
625.2210, 2.038651
625.7031, 0.9804230
626.1852, 0.8177190
626.6674, 1.911545
627.1495, 3.646271
627.6316, 5.156891
628.1137, 6.454483
628.5958, 7.227692
629.0779, 7.233765
629.5601, 6.843765
630.0422, 6.572769
630.5243, 6.489868
631.0064, 6.902588
631.4885, 8.551315
631.9706, 10.39275
632.4528, 11.43866
632.9349, 11.69533
633.4170, 11.72064
633.8991, 11.00378
634.3812, 10.70288
634.8633, 11.62331
635.3455, 14.26062
635.8276, 16.79532
636.3097, 19.05142
636.7918, 21.29692
637.2739, 23.66293
637.7560, 25.95963
638.2382, 29.03041
638.7203, 32.89664
639.2024, 37.41660
639.6845, 42.70934
640.1666, 48.97060
640.6487, 56.50940
641.1309, 65.93164
641.6130, 76.13788
642.0951, 85.38715
642.5772, 93.96786
643.0594, 102.5173
643.5415, 111.2328
644.0236, 120.3849
644.5057, 129.9573
644.9879, 140.0437
645.4700, 151.2884
645.9521, 163.4498
646.4342, 177.3115
646.9163, 193.5551
647.3984, 212.7920
647.8806, 231.7073
648.3627, 250.4371
648.8448, 268.9287
649.3269, 287.6962
649.8090, 306.7196
650.2911, 323.9724
650.7733, 339.2217
651.2554, 354.4414
651.7375, 373.0137
652.2196, 393.5370
652.7017, 413.2162
653.1838, 432.7949
653.6660, 448.2886
654.1481, 461.2301
654.6302, 467.1989
655.1123, 458.4225
655.5944, 425.1033
656.0765, 384.1399
656.5587, 336.1746
657.0408, 283.7897
657.5229, 236.8669
658.0050, 195.9350
658.4871, 161.0158
658.9692, 132.5892
659.4514, 110.4456
659.9335, 92.69742
660.4156, 79.62512
660.8977, 69.06378
661.3798, 60.02864
661.8619, 52.48300
662.3441, 46.10602
662.8262, 40.86237
663.3083, 36.16714
663.7904, 31.36191
664.2725, 26.98140
664.7546, 23.72565
665.2368, 22.08942
665.7189, 20.59769
666.2010, 18.72772
666.6831, 16.74673
667.1652, 14.95169
667.6473, 13.20697
668.1295, 11.90387
668.6116, 11.23109
669.0937, 10.90593
669.5758, 10.31041
670.0579, 9.412064
670.5400, 8.718857
671.0222, 8.457626
671.5043, 8.404617
671.9864, 8.169464
672.4685, 7.756226
672.9506, 7.174225
673.4327, 5.966187
673.9149, 4.901581
674.3970, 4.963730
674.8791, 5.986099
675.3612, 6.571762
675.8433, 5.530289
676.3254, 4.437027
676.8076, 4.346039
677.2897, 5.631729
677.7718, 5.791748
678.2539, 4.069244
678.7360, 2.261429
679.2181, 1.702713
679.7003, 2.556290
680.1824, 2.888931
680.6645, 2.548904
681.1466, 2.068710
681.6287, 2.090012
682.1108, 2.443405
682.5930, 2.637924
683.0751, 2.534988
683.5572, 2.401550
684.0393, 2.504395
684.5214, 2.701263
685.0035, 2.844803
685.4857, 2.672180
685.9678, 2.534058
686.4499, 2.397079
686.9320, 2.429947
687.4141, 2.903198
687.8962, 4.325562
688.3784, 5.169968
688.8605, 4.838028
689.3426, 3.804459
689.8247, 3.969635
690.3068, 5.403381
690.7889, 6.324036
691.2711, 5.413589
691.7532, 3.638474
692.2353, 2.873291
692.7174, 3.015244
693.1995, 3.549225
693.6816, 4.729355
694.1638, 5.793396
694.6459, 5.918777
695.1280, 4.997833
695.6101, 4.602936
696.0922, 5.877289
696.5743, 7.150330
697.0565, 7.430542
697.5386, 6.340530
698.0207, 6.008942
698.5028, 6.865662
698.9849, 7.576401
699.4670, 6.438248
699.9492, 3.712357
700.4313, 2.357407
700.9135, 2.908417
701.3956, 3.951279
701.8777, 3.956589
702.3598, 3.396820
702.8419, 3.127014
703.3240, 3.647598
703.8062, 3.960800
704.2883, 3.056229
704.7704, 1.798187
705.2525, 1.459991
705.7346, 3.643082
706.2167, 4.940933
706.6989, 4.664673
707.1810, 3.478516
707.6631, 2.891846
708.1452, 3.035080
708.6273, 3.084610
709.1094, 2.778931
709.5916, 2.249466
710.0737, 1.698090
710.5558, 1.162613
711.0379, 0.8065340
711.5200, 0.6975400
712.0021, 0.8228150
712.4843, 1.313873
712.9664, 2.078339
713.4485, 2.658569
713.9306, 2.710281
714.4127, 2.684769
714.8948, 2.720383
715.3770, 2.815247
715.8591, 3.256668
716.3412, 4.421982
716.8233, 5.190079
717.3054, 4.766647
717.7875, 3.202301
718.2697, 1.743912
718.7518, 0.3568880
719.2339, 0.5906520
719.7160, 0.7145390
720.1981, 0.2220460
720.6802, 0.7861790
721.1624, 2.369293
721.6445, 3.514755
722.1266, 3.395996
722.6087, 2.697723
723.0908, 1.961227
723.5729, 1.119492
724.0551, 0.5961460
724.5372, 0.6078490
725.0193, 0.7580260
725.5014, 0.5830690
725.9835, 2.6337000E-02
726.4656, 0.2359010
726.9478, 0.1351320
727.4299, 0.6670840
727.9120, 0.8132020
728.3941, 0.6266940
728.8762, 0.2129520
729.3583, 0.5509950
729.8405, 1.200882
730.3226, 1.327591
730.8047, 1.083649
731.2868, 0.7190400
731.7689, 0.1237030
732.2510, 0.3681180
732.7332, 0.7466740
733.2153, 0.9594420
733.6974, 0.8302150
734.1795, 0.1748660
734.6616, 0.3052830
735.1437, 0.3885650
735.6259, 0.2260280
736.1080, 0.2277530
736.5901, 0.3684080
737.0722, 0.4181820
737.5543, 0.2818910
738.0364, 1.1200000E-02
738.5186, 0.6370240
739.0007, 1.431335
739.4828, 1.832581
739.9649, 1.174728
740.4470, 0.4746090
740.9291, 0.2999880
741.4113, 0.6067810
741.8934, 0.4195400
742.3755, 0.8082280
742.8576, 1.518097
743.3397, 0.8480070
743.8218, 0.9739990
744.3040, 2.086838
744.7861, 2.476364
745.2682, 2.428772
745.7503, 1.939331
746.2324, 1.213684
746.7145, 0.5010830
747.1967, 0.1762540
747.6788, 0.5963130
748.1609, 0.4358520
748.6430, 0.1324310
749.1251, 3.5964999E-02
749.6072, 0.2873080
750.0894, 7.9865001E-02
750.5715, 1.078217
751.0536, 2.082367
751.5357, 2.058899
752.0178, 0.8719180
752.4999, 0.4460300
752.9821, 0.8725130
753.4642, 1.464569
753.9463, 1.544510
754.4284, 1.325439
754.9105, 1.294968
755.3926, 1.548752
755.8748, 1.621765
756.3569, 0.7763210
756.8390, 0.1304320
757.3211, 0.2720640
757.8032, 0.9964900
758.2853, 1.894012
758.7675, 2.350021
759.2496, 2.377625
759.7318, 1.788589
760.2139, 0.4158480
760.6960, 0.2241060
761.1781, 4.7516000E-02
761.6602, 0.8836980
762.1423, 2.402328
762.6245, 4.115265
763.1066, 4.700394
763.5887, 3.605896
764.0708, 2.267899
764.5529, 1.569168
765.0350, 1.249252
765.5172, 0.9982300
765.9993, 0.5395970
766.4814, 0.4537510
766.9635, 0.9965060
767.4456, 1.733658
767.9277, 2.015396
768.4099, 1.719147
768.8920, 1.822906
769.3741, 2.572067
769.8562, 3.541534
770.3383, 4.457123
770.8204, 5.099182
771.3026, 4.702072
771.7847, 2.220169
772.2668, 0.1737670
772.7489, 0.8663020
773.2310, 2.966141
773.7131, 4.368713
774.1953, 4.246597
774.6774, 3.871506
775.1595, 3.246445
775.6416, 2.540771
776.1237, 1.958344
776.6058, 1.434525
777.0880, 1.587448
777.5701, 2.878098
778.0522, 4.494751
778.5343, 4.802567
779.0164, 4.192612
779.4985, 3.890518
779.9807, 4.766037
780.4628, 5.655029
780.9449, 5.587296
781.4270, 5.007675
781.9091, 4.805191
782.3912, 5.594406
782.8734, 6.203125
783.3555, 6.298096
783.8376, 6.187012
784.3197, 6.793732
784.8018, 8.246063
785.2839, 9.376251
785.7661, 9.703613
786.2482, 9.685852
786.7303, 10.04979
787.2124, 10.65601
787.6945, 11.23041
788.1766, 11.95645
788.6588, 12.39140
789.1409, 11.83368
789.6230, 10.81662
790.1051, 10.83652
790.5872, 12.75047
791.0693, 14.55905
791.5515, 15.99059
792.0336, 16.98787
792.5157, 16.98755
792.9978, 16.00453
793.4799, 15.85628
793.9620, 17.68735
794.4442, 20.12190
794.9263, 21.17207
795.4084, 21.19092
795.8905, 21.16043
796.3726, 21.20122
796.8547, 21.58221
797.3369, 22.69568
797.8190, 24.27022
798.3011, 25.38651
798.7832, 25.92126
799.2653, 26.20494
799.7474, 26.18558
800.2296, 25.98868
800.7117, 26.25418
801.1938, 27.01248
801.6759, 27.69290
802.1580, 28.09970
802.6401, 28.11391
803.1223, 27.10597
803.6044, 25.57556
804.0865, 24.83363
804.5686, 26.36981
805.0507, 27.63802
805.5328, 27.56796
806.0150, 26.69470
806.4971, 26.30246
806.9792, 26.47780
807.4613, 26.84366
807.9434, 27.52438
808.4255, 28.15382
808.9077, 27.57066
809.3898, 26.06824
809.8719, 24.99709
810.3540, 25.58032
810.8361, 26.15019
811.3182, 24.99289
811.8004, 22.82811
812.2825, 21.34055
812.7646, 21.96417
813.2467, 22.06158
813.7288, 20.99217
814.2109, 19.15140
814.6931, 17.41219
815.1752, 15.72690
815.6573, 14.63306
816.1394, 14.34706
816.6215, 14.52962
817.1037, 15.08888
817.5858, 15.66600
818.0679, 15.31657
818.5500, 12.41644
819.0322, 9.818573
819.5143, 9.214905
819.9964, 9.836151
820.4785, 10.12744
820.9606, 9.758530
821.4427, 9.471863
821.9249, 9.378159
822.4070, 9.418274
822.8891, 9.739883
823.3712, 10.24905
823.8533, 9.757248
824.3354, 7.481766
824.8176, 5.027206
825.2997, 4.359848
825.7818, 4.772171
826.2639, 5.063263
826.7460, 4.736649
827.2281, 4.366013
827.7103, 3.970200
828.1924, 3.652893
828.6745, 3.581390
829.1566, 3.826904
829.6387, 4.031113
830.1208, 4.140060
830.6030, 4.181702
831.0851, 4.154648
831.5672, 4.089630
832.0493, 4.127792
832.5314, 4.432419
833.0135, 4.500519
833.4957, 3.545486
833.9778, 2.351303
834.4599, 1.827820
834.9420, 3.029312
835.4241, 3.700684
835.9063, 3.843719
836.3884, 3.454102
836.8705, 2.110062
837.3526, 0.1289220
837.8347, 0.9995880
838.3168, 0.1008150
838.7990, 1.478470
839.2811, 3.332840
839.7632, 4.851776
840.2453, 4.960098
840.7274, 2.919266
841.2095, 1.316238
841.6917, 1.532578
842.1738, 2.168091
842.6559, 2.018188
843.1380, 0.5756380
843.6201, 0.3327480
844.1022, 1.610718
844.5844, 2.981720
845.0665, 2.961792
845.5486, 1.994400
846.0307, 1.226486
846.5128, 0.7608030
846.9949, 0.5455020
847.4771, 0.8312840
847.9592, 1.151398
848.4413, 1.051086
848.9234, 0.3269040
849.4055, 0.1030580
849.8876, 0.7043760
850.3698, 1.326370
850.8519, 1.478577
851.3340, 1.198166
851.8161, 0.9351960
852.2982, 0.6876370
852.7803, 0.4711760
853.2625, 0.1755070
853.7446, 4.7909999E-03
854.2267, 0.3285370
854.7088, 1.108398
855.1909, 1.469284
855.6730, 0.5274960
856.1552, 0.2516630
856.6373, 0.2445070
857.1194, 0.4450230
857.6015, 0.9638060
858.0836, 1.309860
858.5657, 1.563812
859.0479, 1.843246
859.5300, 2.007004
860.0121, 1.546463
860.4942, 0.6833340
860.9763, 0.1984250
861.4584, 0.9672240
861.9406, 1.717331
862.4227, 1.748123
862.9048, 1.269867
863.3869, 1.109207
863.8690, 1.384964
864.3511, 1.673660
864.8333, 1.853104
865.3154, 1.943756
865.7975, 1.949203
866.2796, 1.933594
866.7617, 2.234985
867.2438, 3.348557
867.7260, 4.184937
868.2081, 3.296616
868.6902, 1.737732
869.1723, 1.168091
869.6544, 3.205994
870.1365, 4.508698
870.6187, 4.665543
871.1008, 4.190292
871.5829, 3.625549
872.0650, 2.975906
872.5471, 2.187668
873.0292, 1.158432
873.5114, 0.4967960
873.9935, 1.075150
874.4756, 2.284027
874.9577, 3.415375
875.4399, 4.443207
875.9220, 5.111252
876.4041, 5.076782
876.8862, 4.784912
877.3683, 4.418259
877.8505, 3.891464
878.3326, 4.110962
878.8147, 5.218674
879.2968, 6.111099
879.7789, 5.204803
880.2610, 3.645355
880.7432, 3.677460
881.2253, 5.402451
881.7074, 6.632065
882.1895, 5.678299
882.6716, 4.441452
883.1537, 3.958755
883.6359, 4.226959
884.1180, 4.709015
884.6001, 5.584061
885.0822, 5.954956
885.5643, 4.977005
886.0464, 3.422211
886.5286, 3.325439
887.0107, 4.368286
887.4928, 5.278992
887.9749, 4.947021
888.4570, 4.725555
888.9391, 5.779724
889.4213, 7.507019
889.9034, 7.878052
890.3855, 6.069153
890.8676, 4.805984
891.3497, 4.786240
891.8318, 5.360214
892.3140, 5.143265
892.7961, 4.433228
893.2782, 4.446396
893.7603, 5.866852
894.2424, 7.277496
894.7245, 7.639008
895.2067, 7.382584
895.6888, 6.930756
896.1709, 6.482040
896.6530, 5.738815
897.1351, 4.506470
897.6172, 3.391144
898.0994, 2.940598
898.5815, 3.237381
899.0636, 4.361282
899.5457, 6.392700
900.0278, 7.951828
900.5099, 7.400116
900.9921, 6.146500
901.4742, 5.505280
901.9563, 5.738266
902.4384, 5.872726
902.9205, 5.851593
903.4026, 5.608704
903.8848, 4.959106
904.3669, 3.995590
904.8490, 3.564392
905.3311, 3.658508
905.8132, 3.843674
906.2953, 3.932617
906.7775, 3.922409
907.2596, 3.660156
907.7417, 3.274826
908.2238, 3.209183
908.7059, 4.114197
909.1880, 4.683044
909.6702, 4.535629
910.1523, 3.965500
910.6344, 3.613007
911.1165, 3.478973
911.5986, 3.624283
912.0807, 4.240509
912.5629, 4.709229
913.0450, 3.986496
913.5271, 2.768280
914.0092, 2.100922
914.4913, 2.643219
914.9734, 3.120880
915.4556, 3.378189
915.9377, 3.456345
916.4198, 3.324326
916.9019, 2.959915
917.3840, 2.815994
917.8661, 2.938629
918.3483, 3.061935
918.8304, 3.071808
919.3125, 2.874084
919.7946, 2.216232
920.2767, 1.074829
920.7589, 0.1763610
921.2410, 0.3450010
921.7231, 0.4535060
922.2052, 9.3689999E-03
922.6873, 0.8980100
923.1694, 1.535599
923.6516, 1.898544
924.1337, 1.910858
924.6158, 1.239624
925.0979, 0.4474330
925.5800, 0.4257660
926.0621, 0.8797450
926.5443, 1.075577
927.0264, 1.9653000E-02
927.5085, 0.3352050
927.9906, 0.8991850
928.4727, 2.672150
928.9548, 3.099167
929.4370, 2.125244
929.9191, 1.452377
930.4012, 1.409790
930.8833, 1.607895
931.3654, 1.850052
931.8475, 1.958969
932.3297, 1.598312
932.8118, 0.4933930
933.2939, 0.2938230
933.7761, 0.3275600
934.2582, 0.1659700
934.7403, 8.8363998E-02
935.2224, 9.5871001E-02
935.7045, 0.2952120
936.1866, 0.7015840
936.6688, 0.9361880
937.1509, 0.4312290
937.6330, 0.1844480
938.1151, 1.8767999E-02
938.5972, 0.7555540
939.0793, 1.174591
939.5615, 0.6360780
940.0436, 5.2703999E-02
940.5257, 0.4365230
941.0078, 0.7751310
941.4899, 0.7198640
941.9720, 0.2859040
942.4542, 0.1705170
942.9363, 0.5978700
943.4184, 0.9010010
943.9005, 0.9949490
944.3826, 0.8987730
944.8647, 0.6226960
945.3469, 2.0447001E-02
945.8290, 0.4569700
946.3111, 0.6891330
946.7932, 0.8919220
947.2753, 1.390823
947.7574, 2.147842
948.2396, 2.163116
948.7217, 1.402679
949.2038, 0.4822080
949.6859, 0.3054810
950.1680, 0.8917690
950.6501, 1.243698
951.1323, 1.350616
951.6144, 1.060379
952.0965, 0.1663210
952.5786, 0.8099980
953.0607, 2.2980001E-02
953.5428, 1.406860
954.0250, 0.5072020
954.5071, 2.193695
954.9892, 3.436279
955.4713, 0.8823240
955.9534, 1.709930
956.4355, 0.9536740
956.9177, 1.323151
957.3998, 2.454712
957.8819, 1.390808
958.3640, 0.5541380
958.8461, 3.9124001E-02
959.3282, 0.3374940
959.8104, 0.8488770
960.2925, 1.377838
960.7746, 1.442932
961.2567, 1.005829
961.7388, 0.4857480
962.2209, 0.1829830
962.7031, 0.1407780
963.1852, 0.7027590
963.6673, 1.484375
964.1494, 2.104279
964.6315, 2.583313
965.1136, 2.774231
965.5958, 2.507477
966.0779, 2.038605
966.5600, 1.854889
967.0421, 1.908203
967.5242, 2.069305
968.0063, 2.202057
968.4885, 2.554993
968.9706, 3.599701
969.4527, 4.711243
969.9348, 5.115723
970.4169, 4.662628
970.8990, 4.211334
971.3812, 3.806885
971.8633, 3.437897
972.3454, 2.910950
972.8275, 2.504272
973.3096, 2.819855
973.7917, 3.889893
974.2739, 4.619720
974.7560, 4.067535
975.2381, 3.715912
975.7202, 4.282501
976.2023, 5.506622
976.6844, 6.017975
977.1666, 5.831238
977.6487, 5.644287
978.1308, 5.638031
978.6129, 5.894379
979.0950, 6.924164
979.5771, 8.208923
980.0593, 8.897003
980.5414, 8.413269
981.0235, 7.739410
981.5056, 6.677765
981.9877, 5.779694
982.4698, 5.684418
982.9520, 6.259888
983.4341, 6.743774
983.9162, 7.098572
984.3983, 7.605896
984.8804, 8.451904
985.3625, 9.499298
985.8447, 10.98709
986.3268, 12.76605
986.8089, 13.47571
987.2910, 12.65335
987.7731, 12.07092
988.2552, 12.35760
988.7374, 13.14355
989.2195, 14.02658
989.7016, 14.77167
990.1837, 14.62387
990.6658, 12.53452
991.1479, 11.05298
991.6301, 11.75723
992.1122, 13.35373
992.5944, 14.65491
993.0765, 15.68140
993.5586, 15.88855
994.0407, 15.11441
994.5228, 14.65985
995.0049, 16.32645
995.4871, 18.57123
995.9692, 18.80905
996.4513, 17.32526
996.9334, 16.99899
997.4155, 20.28262
997.8976, 23.03024
998.3798, 24.07361
998.8619, 24.04590
999.3440, 24.51962
999.8261, 25.43311
1000.308, 26.05194
1000.790, 25.91449
1001.272, 26.36252
1001.755, 29.23602
1002.237, 32.93262
1002.719, 35.62106
1003.201, 36.61377
1003.683, 38.26889
1004.165, 40.83234
1004.647, 43.44052
1005.129, 45.26422
1005.612, 46.78967
1006.094, 49.71909
1006.576, 53.77469
1007.058, 57.76910
1007.540, 61.15543
1008.022, 64.17422
1008.504, 66.24490
1008.986, 68.35892
1009.468, 72.47684
1009.951, 78.87286
1010.433, 85.02225
1010.915, 90.32440
1011.397, 96.59036
1011.879, 105.9264
1012.361, 117.5582
1012.843, 130.4983
1013.325, 144.4170
1013.807, 160.7820
1014.290, 179.3285
1014.772, 201.3185
1015.254, 227.5983
1015.736, 257.4095
1016.218, 288.9184
1016.700, 322.0547
1017.182, 356.2480
1017.664, 391.0234
1018.147, 427.6203
1018.629, 465.9040
1019.111, 507.0284
1019.593, 552.9780
1020.075, 602.7120
1020.557, 659.7466
1021.039, 724.3940
1021.521, 795.6510
1022.003, 875.5349
1022.486, 960.4489
1022.968, 1043.819
1023.450, 1125.430
1023.932, 1204.323
1024.414, 1288.392
1024.896, 1360.095
1025.378, 1420.380
1025.860, 1462.300
1026.343, 1467.423
1026.825, 1435.805
1027.307, 1365.096
1027.789, 1248.353
1028.271, 1112.710
1028.753, 968.1763
1029.235, 825.3499
1029.717, 697.1354
1030.199, 583.8820
1030.682, 487.8321
1031.164, 409.5464
1031.646, 344.8449
1032.128, 292.3106
1032.610, 250.0403
1033.092, 215.3445
1033.574, 187.2404
1034.056, 163.2691
1034.539, 143.3025
1035.021, 126.1726
1035.503, 112.0344
1035.985, 100.2217
1036.467, 89.98260
1036.949, 81.41632
1037.431, 73.59079
1037.913, 66.45319
1038.396, 60.04181
1038.878, 54.31232
1039.360, 49.31537
1039.842, 45.22156
1040.324, 42.06042
1040.806, 38.67584
1041.288, 34.54471
1041.770, 31.23871
1042.252, 29.48209
1042.734, 28.44403
1043.217, 26.08081
1043.699, 23.01419
1044.181, 20.98563
1044.663, 21.15195
1045.145, 20.94901
1045.627, 18.76715
1046.109, 16.17944
1046.591, 14.45654
1047.074, 13.69800
1047.556, 12.67435
1048.038, 11.37659
1048.520, 10.25000
1049.002, 9.522980
1049.484, 9.166290
1049.966, 9.446106
1050.448, 10.06967
1050.931, 10.19656
1051.413, 9.542206
1051.895, 8.897552
1052.377, 8.403900
1052.859, 7.803558
1053.341, 6.318512
1053.823, 4.587708
1054.305, 4.383606
1054.787, 5.928406
1055.270, 6.850677
1055.752, 4.959686
1056.234, 3.394470
1056.716, 3.723206
1057.198, 5.324799
1057.680, 5.787415
1058.162, 5.202789
1058.644, 4.792908
1059.126, 4.986877
1059.609, 5.502411
1060.091, 6.390747
1060.573, 7.117676
1061.055, 6.951752
1061.537, 5.378387
1062.019, 5.136078
1062.501, 6.506531
1062.983, 8.112701
1063.466, 8.891174
1063.948, 9.464600
1064.430, 11.04425
1064.912, 13.28003
1065.394, 15.38174
1065.876, 16.99780
1066.358, 18.55365
1066.840, 19.94440
1067.323, 21.51703
1067.805, 23.71280
1068.287, 26.50067
1068.769, 29.40753
1069.251, 32.44183
1069.733, 36.31738
1070.215, 42.44333
1070.697, 48.39191
1071.179, 51.74814
1071.661, 53.48428
1072.144, 57.67761
1072.626, 64.68228
1073.108, 71.43423
1073.590, 76.94760
1074.072, 82.36176
1074.554, 88.97623
1075.036, 96.30569
1075.518, 103.8568
1076.001, 111.5778
1076.483, 119.5224
1076.965, 128.1709
1077.447, 135.7302
1077.929, 141.4033
1078.411, 145.1471
1078.893, 147.3258
1079.375, 147.5044
1079.858, 144.2356
1080.340, 135.2772
1080.822, 125.0477
1081.304, 114.8527
1081.786, 104.1180
1082.268, 91.80795
1082.750, 77.94284
1083.232, 66.80679
1083.714, 58.40073
1084.197, 51.30896
1084.679, 44.96893
1085.161, 39.10486
1085.643, 33.16733
1086.125, 27.63208
1086.607, 23.70685
1087.089, 21.95947
1087.571, 19.89178
1088.054, 17.04724
1088.536, 14.16049
1089.018, 11.91776
1089.500, 10.26630
1089.982, 9.401855
1090.464, 9.342255
1090.946, 8.726074
1091.428, 6.507294
1091.911, 5.019379
1092.393, 5.279724
1092.875, 6.406952
1093.357, 6.243652
1093.839, 5.153931
1094.321, 4.268951
1094.803, 3.936401
1095.285, 3.731720
1095.767, 3.662567
1096.250, 3.465363
1096.732, 2.854950
1097.214, 1.882904
1097.696, 1.658264
1098.178, 2.131073
1098.660, 2.268982
1099.142, 1.088074
1099.624, 9.1309004E-02
1100.106, 2.7252000E-02
1100.589, 0.6056820
1101.071, 0.7249450
1101.553, 0.1482850
1102.035, 0.5961000
1102.517, 1.605652
1102.999, 2.184967
1103.481, 1.309235
1103.963, 5.6609999E-02
1104.446, 0.5262450
1104.928, 0.2953800
1105.410, 0.3796690
1105.892, 1.491364
1106.374, 2.037842
1106.856, 1.635498
1107.338, 0.9266050
1107.820, 0.8071900
1108.302, 1.054565
1108.785, 1.135132
1109.267, 0.9867550
1109.749, 0.7662350
1110.231, 0.4402160
1110.713, 0.1839900
1111.195, 0.1268010
1111.677, 0.1414790
1112.159, 0.2433780
1112.641, 0.9290160
1113.124, 1.299652
1113.606, 1.174286
1114.088, 0.8299870
1114.570, 0.1758120
1115.052, 0.3980410
1115.534, 0.6052550
1116.016, 0.4537050
1116.498, 0.1893620
1116.981, 1.361053
1117.463, 2.021057
1117.945, 1.441162
1118.427, 0.5978700
1118.909, 0.4754640
1119.391, 0.7076110
1119.873, 0.7536320
1120.355, 0.3997190
1120.838, 0.4464420
1121.320, 1.060303
1121.802, 1.371307
1122.284, 0.4026790
1122.766, 1.003448
1123.248, 1.402435
1123.730, 1.189972
1124.212, 1.451965
1124.694, 3.684784
1125.177, 4.555176
1125.659, 3.521606
1126.141, 1.715851
1126.623, 0.1813660
1127.105, 1.798492
1127.587, 1.884949
1128.069, 0.5811460
1128.551, 0.6496890
1129.033, 1.112549
1129.516, 1.482666
1129.998, 2.109711
1130.480, 2.598145
1130.962, 1.966217
1131.444, 0.5243230
1131.926, 4.8340000E-02
1132.408, 0.8326110
1132.890, 1.450317
1133.373, 0.2859800
1133.855, 0.5468750
1134.337, 0.4972530
1134.819, 2.743439
1135.301, 3.875702
1135.783, 3.914948
1136.265, 3.407379
1136.747, 2.247742
1137.229, 1.591492
1137.712, 3.175598
1138.194, 5.156494
1138.676, 5.660614
1139.158, 4.666016
1139.640, 4.354401
1140.122, 4.779724
1140.604, 5.332977
1141.086, 5.779388
1141.569, 6.224762
1142.051, 6.697754
1142.533, 7.298615
1143.015, 8.247131
1143.497, 9.807678
1143.979, 10.79114
1144.461, 11.05133
1144.943, 11.27557
1145.426, 11.84506
1145.908, 12.64835
1146.390, 13.41299
1146.872, 14.27191
1147.354, 15.53748
1147.836, 17.93558
1148.318, 19.67975
1148.800, 20.51746
1149.282, 21.19470
1149.765, 22.30325
1150.247, 23.72794
1150.729, 25.49756
1151.211, 27.41891
1151.693, 28.78061
1152.175, 28.85077
1152.657, 28.75876
1153.139, 28.83682
1153.621, 28.80344
1154.104, 28.17450
1154.586, 27.16159
1155.068, 26.57355
1155.550, 26.39813
1156.032, 26.01743
1156.514, 25.14212
1156.996, 23.94400
1157.478, 22.27808
1157.961, 20.55118
1158.443, 19.59799
1158.925, 19.26962
1159.407, 18.71252
1159.889, 17.78973
1160.371, 16.84183
1160.853, 16.09613
1161.335, 15.49716
1161.818, 14.99985
1162.300, 14.61069
1162.782, 14.60107
1163.264, 14.90646
1163.746, 14.74271
1164.228, 13.86902
1164.710, 12.93140
1165.192, 12.32001
1165.674, 11.90021
1166.156, 11.73236
1166.639, 11.70837
1167.121, 11.00632
1167.603, 9.637360
1168.085, 8.598999
1168.567, 8.273193
1169.049, 8.166718
1169.531, 7.855377
1170.013, 7.542480
1170.496, 7.540039
1170.978, 7.880249
1171.460, 7.430542
1171.942, 6.145050
1172.424, 5.572052
1172.906, 6.647491
1173.388, 7.981934
1173.870, 8.067657
1174.353, 7.736389
1174.835, 8.180634
1175.317, 9.740631
1175.799, 10.66553
1176.281, 10.90085
1176.763, 11.12460
1177.245, 11.90146
1177.727, 12.67490
1178.209, 12.54263
1178.692, 12.07803
1179.174, 12.33374
1179.656, 13.87759
1180.138, 14.96259
1180.620, 15.50748
1181.102, 15.99261
1181.584, 16.81635
1182.066, 17.61105
1182.548, 17.98969
1183.031, 18.07129
1183.513, 18.11218
1183.995, 18.01825
1184.477, 18.17569
1184.959, 18.56033
1185.441, 19.11835
1185.923, 20.09152
1186.405, 21.03281
1186.888, 21.40341
1187.370, 21.16483
1187.852, 20.13974
1188.334, 17.39984
1188.816, 15.93506
1189.298, 16.30829
1189.780, 16.98083
1190.262, 16.36176
1190.745, 15.09399
1191.227, 14.18658
1191.709, 13.56555
1192.191, 12.76505
1192.673, 11.44598
1193.155, 10.21085
1193.637, 9.085785
1194.119, 8.196960
1194.601, 7.789825
1195.084, 7.655579
1195.566, 7.574524
1196.048, 7.488983
1196.530, 7.020721
1197.012, 5.631073
1197.494, 4.842499
1197.976, 5.072784
1198.458, 5.691742
1198.941, 6.008026
1199.423, 6.010712
1199.905, 5.507019
1200.387, 4.502167
1200.869, 3.909698
1201.351, 4.266571
1201.833, 4.290741
1202.315, 3.596161
1202.797, 2.582367
1203.280, 1.523163
1203.762, 0.7601320
1204.244, 1.181702
1204.726, 2.999084
1205.208, 4.022369
1205.690, 3.669128
1206.172, 2.942841
1206.654, 1.992493
1207.136, 1.080109
1207.619, 0.7920530
1208.101, 0.8166500
1208.583, 0.4477540
1209.065, 0.5854190
1209.547, 0.7215880
1210.029, 0.6512150
1210.511, 2.024445
1210.993, 3.043976
1211.476, 3.564484
1211.958, 2.519043
1212.440, 0.9541630
1212.922, 0.9278260
1213.404, 3.335480
1213.886, 4.513550
1214.368, 3.546906
1214.850, 2.539276
1215.333, 2.380402
1215.815, 2.652893
1216.297, 2.886047
1216.779, 2.893951
1217.261, 2.177917
1217.743, 0.2236020
1218.225, 0.7091060
1218.707, 0.1441650
1219.189, 0.5711060
1219.672, 0.7342530
1220.154, 0.7780460
1220.636, 1.923248
1221.118, 3.397827
1221.600, 3.682251
1222.082, 1.755280
1222.564, 0.8568730
1223.046, 1.476044
1223.528, 2.070404
1224.011, 1.741058
1224.493, 1.033417
1224.975, 0.7923890
1225.457, 0.8769530
1225.939, 1.033295
1226.421, 1.177338
1226.903, 1.601166
1227.385, 2.507233
1227.868, 2.959625
1228.350, 2.205597
1228.832, 0.9529720
1229.314, 0.1296390
1229.796, 0.8004760
1230.278, 0.5477910
1230.760, 1.203156
1231.242, 2.591339
1231.724, 3.663483
1232.207, 4.184814
1232.689, 3.873291
1233.171, 3.087189
1233.653, 1.880981
1234.135, 0.6713870
1234.617, 0.2445370
1235.099, 1.075287
1235.581, 1.303131
1236.063, 0.8452150
1236.546, 0.3744810
1237.028, 0.4381100
1237.510, 0.5690000
1237.992, 1.4313000E-02
1238.474, 0.7105710
1238.956, 0.6822810
1239.438, 0.3206790
1239.920, 1.354553
1240.403, 2.444092
1240.885, 2.981049
1241.367, 1.937714
1241.849, 0.8152770
1242.331, 1.169678
1242.813, 2.169495
1243.295, 2.521362
1243.777, 2.006348
1244.260, 1.928558
1244.742, 2.292053
1245.224, 2.653778
1245.706, 2.925629
1246.188, 2.940155
1246.670, 2.366058
1247.152, 1.608948
1247.634, 1.224457
1248.116, 1.233124
1248.599, 1.234497
1249.081, 1.245758
1249.563, 1.533508
1250.045, 2.823914
1250.527, 3.773010
1251.009, 3.289520
1251.491, 2.365967
1251.973, 1.990234
1252.455, 2.140289
1252.938, 2.431976
1253.420, 2.814911
1253.902, 2.996460
1254.384, 2.560272
1254.866, 2.213623
1255.348, 2.366394
1255.830, 2.550934
1256.313, 2.060638
1256.795, 1.362701
1257.277, 1.457764
1257.759, 2.218414
1258.241, 2.981171
1258.723, 3.648041
1259.205, 3.975739
1259.687, 3.886810
1260.169, 3.551636
1260.651, 2.834137
1261.134, 2.075958
1261.616, 1.889374
1262.098, 2.133636
1262.580, 2.391907
1263.062, 2.645264
1263.544, 2.663300
1264.026, 2.360657
1264.508, 1.960388
1264.991, 1.498932
1265.473, 1.148773
1265.955, 1.447693
1266.437, 1.977783
1266.919, 2.220154
1267.401, 1.931183
1267.883, 1.224701
1268.365, 0.1862790
1268.848, 0.8991390
1269.330, 1.348907
1269.812, 4.052307
1270.294, 3.495056
1270.776, 0.9470520
1271.258, 0.3465880
1271.740, 0.2966610
1272.222, 1.221039
1272.704, 2.455872
1273.187, 3.383667
1273.669, 3.261444
1274.151, 2.926849
1274.633, 3.356110
1275.115, 3.929443
1275.597, 3.531097
1276.079, 1.874695
1276.561, 1.419434
1277.043, 2.137482
1277.526, 2.803131
1278.008, 2.432953
1278.490, 2.068817
1278.972, 2.598724
1279.454, 2.155548
1279.936, 3.066101
1280.418, 2.120728
1280.900, 1.894806
1281.383, 2.295227
1281.865, 2.728577
1282.347, 3.150787
1282.829, 3.174774
1283.311, 2.144318
1283.793, 1.297791
1284.275, 1.979675
1284.757, 1.226501
1285.240, 0.8959960
1285.722, 1.380981
1286.204, 0.1164550
1286.686, 1.068329
1287.168, 1.849335
1287.650, 2.484100
1288.132, 2.752502
1288.614, 2.211395
1289.096, 1.445892
1289.578, 1.930420
1290.061, 3.053833
1290.543, 3.531189
1291.025, 2.617554
1291.507, 2.014893
1291.989, 1.705383
1292.471, 1.802948
1292.953, 2.748199
1293.435, 3.645966
1293.918, 3.245026
1294.400, 2.180969
1294.882, 1.299377
1295.364, 0.6371460
1295.846, 0.6282650
1296.328, 1.286438
1296.810, 2.183655
1297.292, 3.429993
1297.775, 4.237244
1298.257, 3.714172
1298.739, 2.724396
1299.221, 2.108154
1299.703, 1.808014
1300.185, 1.090332
1300.667, 0.1160890
1301.149, 4.2938001E-02
1301.631, 1.444824
1302.114, 1.073303
1302.596, 0.0000000E+00
##END=



