##NAMES=Amblygonite
##RRUFFID=X050012
##IDEAL CHEMISTRY=LiAlPO_4_F
##LOCALITY=Minas Gerais, Brazil
##OWNER=Caltech
##SOURCE=RD Shannon 56163-
##DESCRIPTION=
##STATUS=The identification of this mineral has been determined only by Raman spectroscopy
##URL=rruff.info/X050012
206.000, 0.000
207.000, 1.445
208.000, 1.543
209.000, 1.516
210.000, 0.615
211.000, 5.875
212.000, 6.938
213.000, 4.848
214.000, 1.253
215.000, 0.717
216.000, 1.995
217.000, 4.716
218.000, 7.839
219.000, 11.074
220.000, 15.395
221.000, 20.730
222.000, 25.868
223.000, 29.882
224.000, 33.872
225.000, 38.165
226.000, 42.553
227.000, 46.527
228.000, 49.808
229.000, 53.133
230.000, 53.998
231.000, 54.961
232.000, 54.202
233.000, 51.559
234.000, 48.455
235.000, 44.338
236.000, 40.128
237.000, 35.915
238.000, 31.703
239.000, 27.722
240.000, 23.935
241.000, 20.300
242.000, 17.364
243.000, 14.431
244.000, 11.844
245.000, 9.343
246.000, 7.416
247.000, 6.186
248.000, 4.956
249.000, 3.725
250.000, 2.495
251.000, 1.573
252.000, 0.766
253.000, 0.273
254.000, 0.313
255.000, 0.343
256.000, 0.465
257.000, 1.273
258.000, 0.965
259.000, 0.075
260.000, 0.690
261.000, 1.163
262.000, 1.638
263.000, 2.919
264.000, 4.245
265.000, 6.074
266.000, 8.248
267.000, 11.044
268.000, 15.774
269.000, 20.506
270.000, 30.562
271.000, 41.256
272.000, 61.221
273.000, 88.957
274.000, 121.216
275.000, 171.994
276.000, 222.781
277.000, 254.416
278.000, 282.656
279.000, 278.442
280.000, 242.272
281.000, 205.176
282.000, 163.099
283.000, 121.019
284.000, 101.490
285.000, 87.042
286.000, 81.491
287.000, 85.814
288.000, 92.429
289.000, 113.850
290.000, 135.259
291.000, 185.549
292.000, 243.333
293.000, 328.641
294.000, 446.784
295.000, 564.679
296.000, 680.734
297.000, 796.790
298.000, 791.161
299.000, 751.806
300.000, 670.575
301.000, 537.747
302.000, 410.192
303.000, 323.226
304.000, 236.261
305.000, 191.174
306.000, 157.762
307.000, 137.311
308.000, 132.640
309.000, 129.632
310.000, 138.703
311.000, 147.775
312.000, 150.035
313.000, 150.519
314.000, 142.612
315.000, 124.743
316.000, 106.875
317.000, 89.339
318.000, 71.764
319.000, 62.945
320.000, 56.130
321.000, 52.468
322.000, 52.061
323.000, 51.130
324.000, 48.152
325.000, 45.197
326.000, 39.337
327.000, 32.951
328.000, 27.243
329.000, 22.145
330.000, 17.404
331.000, 14.029
332.000, 10.653
333.000, 8.810
334.000, 7.158
335.000, 5.752
336.000, 4.529
337.000, 3.748
338.000, 4.250
339.000, 4.749
340.000, 3.616
341.000, 2.380
342.000, 1.688
343.000, 1.317
344.000, 0.946
345.000, 0.575
346.000, 0.207
347.000, 0.269
348.000, 0.332
349.000, 0.093
350.000, 0.277
351.000, 0.310
352.000, 0.187
353.000, 0.613
354.000, 0.243
355.000, 0.133
356.000, 0.513
357.000, 0.899
358.000, 1.086
359.000, 1.049
360.000, 0.946
361.000, 0.486
362.000, 0.024
363.000, 0.063
364.000, 0.057
365.000, 0.241
366.000, 0.639
367.000, 0.983
368.000, 1.018
369.000, 1.058
370.000, 0.682
371.000, 0.297
372.000, 0.792
373.000, 1.729
374.000, 2.505
375.000, 3.008
376.000, 3.511
377.000, 4.014
378.000, 4.518
379.000, 6.046
380.000, 7.859
381.000, 9.245
382.000, 10.186
383.000, 11.386
384.000, 13.638
385.000, 15.890
386.000, 17.349
387.000, 18.727
388.000, 20.916
389.000, 23.607
390.000, 26.586
391.000, 30.153
392.000, 33.643
393.000, 35.460
394.000, 37.277
395.000, 38.763
396.000, 40.143
397.000, 40.281
398.000, 39.035
399.000, 37.623
400.000, 35.500
401.000, 33.377
402.000, 30.856
403.000, 28.294
404.000, 26.557
405.000, 25.310
406.000, 23.758
407.000, 21.633
408.000, 19.721
409.000, 20.669
410.000, 21.618
411.000, 23.959
412.000, 26.668
413.000, 30.059
414.000, 34.092
415.000, 37.289
416.000, 37.828
417.000, 38.363
418.000, 37.204
419.000, 36.044
420.000, 36.164
421.000, 36.786
422.000, 41.844
423.000, 52.990
424.000, 66.965
425.000, 96.618
426.000, 126.266
427.000, 148.905
428.000, 170.621
429.000, 165.159
430.000, 142.737
431.000, 117.685
432.000, 87.734
433.000, 59.044
434.000, 44.105
435.000, 29.165
436.000, 22.539
437.000, 17.749
438.000, 14.433
439.000, 12.294
440.000, 10.675
441.000, 10.303
442.000, 9.917
443.000, 9.103
444.000, 8.289
445.000, 7.818
446.000, 7.446
447.000, 7.303
448.000, 7.374
449.000, 7.443
450.000, 7.510
451.000, 7.574
452.000, 7.193
453.000, 6.812
454.000, 7.094
455.000, 7.604
456.000, 7.896
457.000, 7.963
458.000, 8.131
459.000, 8.656
460.000, 9.208
461.000, 9.758
462.000, 10.302
463.000, 11.168
464.000, 12.134
465.000, 13.280
466.000, 14.641
467.000, 16.221
468.000, 18.480
469.000, 20.759
470.000, 24.382
471.000, 28.009
472.000, 33.980
473.000, 40.731
474.000, 49.972
475.000, 61.634
476.000, 74.712
477.000, 91.733
478.000, 108.752
479.000, 125.785
480.000, 142.820
481.000, 152.179
482.000, 159.396
483.000, 161.047
484.000, 157.994
485.000, 153.174
486.000, 144.308
487.000, 135.532
488.000, 128.004
489.000, 120.476
490.000, 114.060
491.000, 107.871
492.000, 103.280
493.000, 99.774
494.000, 95.780
495.000, 90.926
496.000, 85.839
497.000, 79.193
498.000, 72.547
499.000, 65.493
500.000, 58.393
501.000, 51.590
502.000, 44.935
503.000, 38.869
504.000, 33.556
505.000, 28.433
506.000, 24.017
507.000, 19.602
508.000, 16.954
509.000, 14.332
510.000, 12.394
511.000, 10.672
512.000, 8.949
513.000, 7.225
514.000, 5.641
515.000, 4.367
516.000, 3.132
517.000, 2.307
518.000, 1.482
519.000, 1.048
520.000, 0.673
521.000, 0.298
522.000, 0.078
523.000, 0.259
524.000, 0.184
525.000, 0.303
526.000, 1.131
527.000, 1.961
528.000, 1.441
529.000, 0.919
530.000, 0.751
531.000, 0.682
532.000, 0.614
533.000, 0.546
534.000, 0.479
535.000, 0.413
536.000, 0.215
537.000, 0.756
538.000, 1.726
539.000, 2.697
540.000, 3.667
541.000, 5.296
542.000, 7.173
543.000, 9.756
544.000, 12.992
545.000, 16.512
546.000, 20.656
547.000, 24.560
548.000, 26.439
549.000, 28.318
550.000, 26.922
551.000, 25.170
552.000, 21.830
553.000, 17.806
554.000, 14.007
555.000, 10.435
556.000, 7.401
557.000, 5.646
558.000, 3.978
559.000, 3.130
560.000, 2.283
561.000, 1.435
562.000, 0.588
563.000, 0.377
564.000, 0.439
565.000, 0.271
566.000, 0.123
567.000, 0.377
568.000, 0.316
569.000, 0.256
570.000, 0.196
571.000, 0.137
572.000, 0.343
573.000, 0.858
574.000, 1.039
575.000, 1.098
576.000, 1.157
577.000, 1.216
578.000, 1.435
579.000, 1.950
580.000, 2.540
581.000, 3.513
582.000, 4.485
583.000, 5.458
584.000, 6.431
585.000, 7.046
586.000, 7.564
587.000, 8.914
588.000, 10.805
589.000, 13.276
590.000, 16.545
591.000, 20.256
592.000, 25.363
593.000, 30.767
594.000, 40.921
595.000, 51.075
596.000, 66.879
597.000, 83.462
598.000, 100.376
599.000, 117.432
600.000, 125.839
601.000, 126.358
602.000, 122.104
603.000, 108.829
604.000, 95.239
605.000, 80.118
606.000, 64.996
607.000, 55.376
608.000, 45.790
609.000, 40.005
610.000, 35.027
611.000, 32.749
612.000, 31.911
613.000, 31.736
614.000, 32.277
615.000, 33.823
616.000, 37.589
617.000, 41.748
618.000, 48.283
619.000, 54.816
620.000, 69.010
621.000, 83.391
622.000, 106.008
623.000, 130.555
624.000, 156.896
625.000, 184.224
626.000, 201.106
627.000, 206.716
628.000, 204.356
629.000, 184.983
630.000, 164.868
631.000, 140.824
632.000, 116.778
633.000, 102.407
634.000, 88.009
635.000, 82.868
636.000, 79.569
637.000, 83.870
638.000, 91.742
639.000, 108.844
640.000, 134.364
641.000, 167.402
642.000, 213.348
643.000, 258.416
644.000, 300.240
645.000, 339.241
646.000, 333.710
647.000, 328.179
648.000, 288.910
649.000, 246.181
650.000, 202.718
651.000, 159.018
652.000, 125.203
653.000, 97.788
654.000, 75.911
655.000, 60.588
656.000, 47.716
657.000, 40.300
658.000, 33.341
659.000, 28.721
660.000, 24.125
661.000, 20.898
662.000, 17.672
663.000, 15.667
664.000, 13.839
665.000, 12.351
666.000, 10.989
667.000, 9.900
668.000, 9.003
669.000, 8.105
670.000, 7.202
671.000, 6.443
672.000, 6.006
673.000, 5.567
674.000, 5.108
675.000, 4.646
676.000, 4.640
677.000, 4.638
678.000, 4.219
679.000, 3.756
680.000, 3.315
681.000, 2.877
682.000, 2.733
683.000, 2.764
684.000, 2.795
685.000, 2.826
686.000, 2.686
687.000, 2.250
688.000, 1.924
689.000, 1.957
690.000, 1.940
691.000, 1.502
692.000, 1.064
693.000, 1.085
694.000, 1.116
695.000, 1.147
696.000, 1.178
697.000, 0.867
698.000, 0.427
699.000, 0.268
700.000, 0.297
701.000, 0.326
702.000, 0.354
703.000, 0.382
704.000, 0.410
705.000, 0.437
706.000, 0.464
707.000, 0.491
708.000, 0.517
709.000, 0.543
710.000, 0.568
711.000, 0.593
712.000, 0.618
713.000, 0.643
714.000, 0.308
715.000, 0.142
716.000, 0.287
717.000, 0.264
718.000, 0.243
719.000, 0.222
720.000, 0.201
721.000, 0.181
722.000, 0.162
723.000, 0.144
724.000, 0.126
725.000, 0.108
726.000, 0.091
727.000, 0.075
728.000, 0.059
729.000, 0.044
730.000, 0.029
731.000, 0.015
732.000, 0.001
733.000, 0.012
734.000, 0.025
735.000, 0.037
736.000, 0.049
737.000, 0.061
738.000, 0.072
739.000, 0.296
740.000, 0.783
741.000, 0.939
742.000, 0.473
743.000, 0.125
744.000, 0.136
745.000, 0.147
746.000, 0.158
747.000, 0.169
748.000, 0.180
749.000, 0.190
750.000, 0.201
751.000, 0.211
752.000, 0.629
753.000, 1.116
754.000, 1.240
755.000, 1.264
756.000, 1.299
757.000, 1.307
758.000, 1.315
759.000, 1.339
760.000, 1.619
761.000, 2.147
762.000, 2.481
763.000, 2.490
764.000, 2.497
765.000, 2.521
766.000, 2.670
767.000, 3.163
768.000, 3.647
769.000, 4.151
770.000, 4.667
771.000, 4.723
772.000, 4.777
773.000, 5.714
774.000, 6.677
775.000, 7.246
776.000, 7.787
777.000, 8.328
778.000, 8.870
779.000, 10.059
780.000, 11.502
781.000, 12.945
782.000, 14.389
783.000, 16.098
784.000, 18.025
785.000, 20.181
786.000, 22.594
787.000, 25.578
788.000, 29.437
789.000, 33.913
790.000, 39.704
791.000, 45.850
792.000, 53.095
793.000, 60.507
794.000, 68.722
795.000, 76.781
796.000, 83.535
797.000, 90.146
798.000, 91.592
799.000, 93.037
800.000, 88.946
801.000, 84.590
802.000, 77.222
803.000, 69.474
804.000, 61.328
805.000, 53.095
806.000, 46.313
807.000, 40.005
808.000, 35.031
809.000, 30.660
810.000, 26.891
811.000, 23.484
812.000, 20.893
813.000, 18.940
814.000, 16.986
815.000, 15.031
816.000, 13.289
817.000, 11.818
818.000, 10.531
819.000, 9.546
820.000, 8.560
821.000, 7.573
822.000, 6.711
823.000, 6.188
824.000, 5.655
825.000, 5.123
826.000, 4.665
827.000, 4.622
828.000, 4.534
829.000, 4.006
830.000, 3.500
831.000, 3.461
832.000, 3.424
833.000, 3.387
834.000, 3.352
835.000, 2.859
836.000, 2.338
837.000, 2.252
838.000, 2.220
839.000, 2.190
840.000, 2.160
841.000, 1.743
842.000, 1.226
843.000, 1.075
844.000, 1.047
845.000, 1.020
846.000, 0.993
847.000, 0.971
848.000, 0.953
849.000, 0.935
850.000, 0.914
851.000, 0.889
852.000, 0.863
853.000, 0.838
854.000, 0.812
855.000, 0.787
856.000, 0.762
857.000, 0.737
858.000, 0.713
859.000, 0.688
860.000, 0.667
861.000, 0.462
862.000, 0.047
863.000, 0.217
864.000, 0.256
865.000, 0.423
866.000, 0.087
867.000, 0.461
868.000, 0.479
869.000, 0.377
870.000, 0.096
871.000, 0.356
872.000, 0.156
873.000, 0.485
874.000, 0.012
875.000, 0.304
876.000, 0.210
877.000, 0.660
878.000, 0.681
879.000, 0.652
880.000, 0.181
881.000, 0.211
882.000, 0.306
883.000, 0.796
884.000, 0.820
885.000, 0.828
886.000, 0.359
887.000, 0.105
888.000, 0.079
889.000, 0.053
890.000, 0.027
891.000, 0.002
892.000, 0.024
893.000, 0.050
894.000, 0.076
895.000, 0.102
896.000, 0.129
897.000, 0.155
898.000, 0.182
899.000, 0.208
900.000, 0.235
901.000, 0.262
902.000, 0.154
903.000, 0.623
904.000, 0.657
905.000, 0.630
906.000, 0.172
907.000, 0.352
908.000, 0.026
909.000, 0.445
910.000, 0.495
911.000, 0.468
912.000, 0.441
913.000, 0.414
914.000, 0.387
915.000, 0.360
916.000, 0.333
917.000, 0.306
918.000, 0.280
919.000, 0.253
920.000, 0.227
921.000, 0.201
922.000, 0.174
923.000, 0.148
924.000, 0.123
925.000, 0.097
926.000, 0.478
927.000, 0.953
928.000, 1.022
929.000, 0.998
930.000, 0.974
931.000, 0.950
932.000, 0.926
933.000, 0.904
934.000, 1.293
935.000, 1.772
936.000, 1.839
937.000, 1.819
938.000, 1.798
939.000, 1.778
940.000, 1.759
941.000, 1.739
942.000, 2.145
943.000, 2.628
944.000, 2.682
945.000, 2.663
946.000, 2.645
947.000, 2.627
948.000, 3.051
949.000, 3.537
950.000, 3.574
951.000, 3.557
952.000, 4.452
953.000, 5.443
954.000, 5.043
955.000, 4.523
956.000, 4.947
957.000, 5.436
958.000, 5.925
959.000, 6.414
960.000, 6.413
961.000, 6.398
962.000, 6.884
963.000, 7.374
964.000, 7.866
965.000, 8.357
966.000, 8.849
967.000, 9.369
968.000, 10.368
969.000, 11.326
970.000, 11.805
971.000, 12.325
972.000, 13.326
973.000, 14.260
974.000, 14.739
975.000, 15.354
976.000, 16.821
977.000, 18.201
978.000, 19.201
979.000, 20.424
980.000, 22.427
981.000, 24.407
982.000, 26.421
983.000, 28.444
984.000, 30.446
985.000, 32.576
986.000, 35.058
987.000, 37.718
988.000, 40.747
989.000, 44.373
990.000, 48.923
991.000, 53.864
992.000, 59.401
993.000, 65.633
994.000, 72.736
995.000, 81.622
996.000, 92.330
997.000, 104.934
998.000, 119.213
999.000, 137.583
1000.000, 159.025
1001.000, 187.355
1002.000, 220.033
1003.000, 263.112
1004.000, 311.668
1005.000, 375.259
1006.000, 445.324
1007.000, 521.506
1008.000, 599.791
1009.000, 659.096
1010.000, 713.370
1011.000, 715.356
1012.000, 707.157
1013.000, 649.483
1014.000, 585.380
1015.000, 505.438
1016.000, 424.412
1017.000, 358.001
1018.000, 292.495
1019.000, 245.244
1020.000, 199.592
1021.000, 170.302
1022.000, 142.630
1023.000, 124.646
1024.000, 108.079
1025.000, 97.279
1026.000, 87.521
1027.000, 80.834
1028.000, 75.105
1029.000, 71.518
1030.000, 69.085
1031.000, 68.602
1032.000, 69.439
1033.000, 72.047
1034.000, 76.163
1035.000, 81.861
1036.000, 90.676
1037.000, 102.050
1038.000, 119.137
1039.000, 139.879
1040.000, 166.207
1041.000, 195.223
1042.000, 223.092
1043.000, 250.549
1044.000, 263.832
1045.000, 273.673
1046.000, 265.015
1047.000, 253.639
1048.000, 240.796
1049.000, 228.006
1050.000, 231.127
1051.000, 236.172
1052.000, 263.661
1053.000, 293.490
1054.000, 336.576
1055.000, 375.496
1056.000, 399.901
1057.000, 410.936
1058.000, 390.172
1059.000, 358.038
1060.000, 306.624
1061.000, 256.116
1062.000, 206.733
1063.000, 164.682
1064.000, 129.319
1065.000, 103.024
1066.000, 82.750
1067.000, 67.413
1068.000, 54.410
1069.000, 45.753
1070.000, 38.477
1071.000, 33.385
1072.000, 28.710
1073.000, 24.997
1074.000, 21.375
1075.000, 19.307
1076.000, 17.193
1077.000, 14.602
1078.000, 12.195
1079.000, 10.648
1080.000, 9.375
1081.000, 8.874
1082.000, 8.373
1083.000, 7.873
1084.000, 7.143
1085.000, 6.120
1086.000, 5.926
1087.000, 6.474
1088.000, 6.698
1089.000, 6.722
1090.000, 6.748
1091.000, 6.773
1092.000, 7.220
1093.000, 7.771
1094.000, 9.266
1095.000, 10.868
1096.000, 12.994
1097.000, 15.312
1098.000, 19.544
1099.000, 24.367
1100.000, 31.757
1101.000, 40.350
1102.000, 51.959
1103.000, 65.395
1104.000, 81.750
1105.000, 95.546
1106.000, 106.636
1107.000, 109.687
1108.000, 107.083
1109.000, 97.200
1110.000, 84.046
1111.000, 70.048
1112.000, 55.832
1113.000, 44.458
1114.000, 33.430
1115.000, 27.652
1116.000, 22.052
1117.000, 17.855
1118.000, 14.126
1119.000, 12.045
1120.000, 9.963
1121.000, 7.881
1122.000, 6.498
1123.000, 6.003
1124.000, 5.215
1125.000, 4.191
1126.000, 3.519
1127.000, 3.024
1128.000, 2.117
1129.000, 1.096
1130.000, 0.563
1131.000, 0.090
1132.000, 0.142
1133.000, 0.192
1134.000, 0.242
1135.000, 0.160
1136.000, 0.324
1137.000, 0.616
1138.000, 0.570
1139.000, 0.526
1140.000, 0.482
1141.000, 0.439
1142.000, 0.397
1143.000, 0.356
1144.000, 0.316
1145.000, 0.729
1146.000, 1.223
1147.000, 1.198
1148.000, 1.161
1149.000, 1.125
1150.000, 0.968
1151.000, 0.399
1152.000, 0.021
1153.000, 0.013
1154.000, 0.047
1155.000, 0.080
1156.000, 0.142
1157.000, 0.227
1158.000, 0.670
1159.000, 1.241
1160.000, 1.378
1161.000, 1.469
1162.000, 2.089
1163.000, 2.601
1164.000, 2.634
1165.000, 2.832
1166.000, 3.441
1167.000, 3.791
1168.000, 3.824
1169.000, 4.452
1170.000, 5.560
1171.000, 6.668
1172.000, 7.777
1173.000, 8.886
1174.000, 9.995
1175.000, 12.675
1176.000, 15.400
1177.000, 18.126
1178.000, 21.267
1179.000, 25.612
1180.000, 30.821
1181.000, 37.324
1182.000, 43.829
1183.000, 50.335
1184.000, 57.217
1185.000, 64.266
1186.000, 67.694
1187.000, 70.428
1188.000, 67.829
1189.000, 64.642
1190.000, 58.189
1191.000, 51.578
1192.000, 44.577
1193.000, 38.051
1194.000, 32.133
1195.000, 26.850
1196.000, 22.008
1197.000, 18.377
1198.000, 15.160
1199.000, 13.402
1200.000, 11.813
1201.000, 10.223
1202.000, 8.747
1203.000, 7.698
1204.000, 6.648
1205.000, 5.598
1206.000, 4.835
1207.000, 4.327
1208.000, 4.193
1209.000, 4.228
1210.000, 3.801
1211.000, 3.291
1212.000, 2.781
1213.000, 2.365
1214.000, 2.397
1215.000, 2.429
1216.000, 2.462
1217.000, 2.494
1218.000, 2.526
1219.000, 2.558
1220.000, 2.590
1221.000, 2.163
1222.000, 1.648
1223.000, 1.134
1224.000, 0.716
1225.000, 0.747
1226.000, 0.778
1227.000, 0.810
1228.000, 0.841
1229.000, 0.872
1230.000, 0.902
1231.000, 0.933
1232.000, 0.964
1233.000, 0.995
1234.000, 1.025
1235.000, 0.936
1236.000, 0.417
1237.000, 0.116
1238.000, 0.146
1239.000, 0.175
1240.000, 0.204
1241.000, 0.233
1242.000, 0.261
1243.000, 0.289
1244.000, 0.304
1245.000, 0.303
1246.000, 0.303
1247.000, 0.306
1248.000, 0.310
1249.000, 0.316
1250.000, 0.324
1251.000, 0.334
1252.000, 0.346
1253.000, 0.333
1254.000, 0.288
1255.000, 0.244
1256.000, 0.202
1257.000, 0.162
1258.000, 0.132
1259.000, 0.136
1260.000, 0.159
1261.000, 0.183
1262.000, 0.208
1263.000, 0.315
1264.000, 0.642
1265.000, 0.064
1266.000, 0.096
1267.000, 0.435
1268.000, 0.649
1269.000, 0.627
1270.000, 0.178
1271.000, 0.398
1272.000, 0.098
1273.000, 0.449
1274.000, 0.127
1275.000, 0.500
1276.000, 0.521
1277.000, 0.541
1278.000, 0.561
1279.000, 0.582
1280.000, 0.602
1281.000, 0.622
1282.000, 0.642
1283.000, 0.661
1284.000, 0.681
1285.000, 0.700
1286.000, 0.720
1287.000, 0.739
1288.000, 0.758
1289.000, 0.779
1290.000, 0.798
1291.000, 0.817
1292.000, 0.836
1293.000, 0.854
1294.000, 0.874
1295.000, 0.893
1296.000, 0.911
1297.000, 0.929
1298.000, 0.947
1299.000, 0.965
1300.000, 0.982
1301.000, 1.000
1302.000, 1.017
1303.000, 1.036
1304.000, 1.053
1305.000, 1.070
1306.000, 0.570
1307.000, 0.103
1308.000, 0.121
1309.000, 0.137
1310.000, 0.153
1311.000, 0.169
1312.000, 0.185
1313.000, 0.201
1314.000, 0.217
1315.000, 0.232
1316.000, 0.247
1317.000, 0.262
1318.000, 0.277
1319.000, 0.292
1320.000, 0.702
1321.000, 1.280
1322.000, 1.336
1323.000, 1.350
1324.000, 1.365
1325.000, 1.161
1326.000, 0.611
1327.000, 0.756
1328.000, 1.336
1329.000, 1.437
1330.000, 1.407
1331.000, 0.855
1332.000, 0.657
1333.000, 1.237
1334.000, 1.507
1335.000, 1.520
1336.000, 1.533
1337.000, 1.534
1338.000, 0.979
1339.000, 0.571
1340.000, 0.583
1341.000, 0.596
1342.000, 0.608
1343.000, 0.620
1344.000, 0.628
1345.000, 0.622
1346.000, 0.617
1347.000, 0.613
1348.000, 0.611
1349.000, 0.609
1350.000, 1.012
1351.000, 1.583
1352.000, 1.069
1353.000, 0.614
1354.000, 0.618
1355.000, 0.622
1356.000, 0.627
1357.000, 0.633
1358.000, 0.640
1359.000, 0.647
1360.000, 0.655
1361.000, 0.664
1362.000, 0.673
1363.000, 0.683
1364.000, 0.693
1365.000, 0.704
1366.000, 0.715
1367.000, 0.727
1368.000, 0.739
1369.000, 0.752
1370.000, 0.765
1371.000, 0.749
1372.000, 0.711
1373.000, 0.712
1374.000, 0.723
1375.000, 0.698
1376.000, 0.659
1377.000, 0.621
1378.000, 0.614
1379.000, 0.628
1380.000, 0.627
1381.000, 0.609
1382.000, 0.628
1383.000, 0.648
1384.000, 0.667
1385.000, 0.682
1386.000, 0.696
1387.000, 0.709
1388.000, 0.721
1389.000, 0.732
1390.000, 0.741
1391.000, 0.751
1392.000, 0.758
1393.000, 0.761
1394.000, 0.774
1395.000, 0.542
1396.000, 0.024
1397.000, 0.215
1398.000, 0.807
1399.000, 0.837
1400.000, 0.708
1401.000, 0.140
1402.000, 0.173
1403.000, 0.765
1404.000, 0.890
1405.000, 0.892
1406.000, 0.895
1407.000, 0.899
1408.000, 0.903
1409.000, 0.540
1410.000, 0.036
1411.000, 0.454
1412.000, 0.932
1413.000, 0.942
1414.000, 0.672
1415.000, 0.099
1416.000, 0.413
1417.000, 0.978
1418.000, 0.986
1419.000, 0.995
1420.000, 1.002
1421.000, 1.010
1422.000, 1.017
1423.000, 1.025
1424.000, 1.033
1425.000, 1.042
1426.000, 1.051
1427.000, 1.060
1428.000, 1.069
1429.000, 1.078
1430.000, 1.088
1431.000, 0.883
1432.000, 0.306
1433.000, 0.116
1434.000, 0.125
1435.000, 0.134
1436.000, 0.143
1437.000, 0.153
1438.000, 0.163
1439.000, 0.175
1440.000, 0.188
1441.000, 0.287
1442.000, 0.889
1443.000, 0.963
1444.000, 0.387
1445.000, 0.694
1446.000, 1.265
1447.000, 1.278
1448.000, 1.291
1449.000, 1.299
1450.000, 1.312
1451.000, 1.322
1452.000, 1.333
1453.000, 1.346
1454.000, 1.359
1455.000, 1.373
1456.000, 1.382
1457.000, 1.395
1458.000, 1.407
1459.000, 1.421
1460.000, 1.435
1461.000, 1.450
1462.000, 1.465
1463.000, 1.398
1464.000, 0.820
1465.000, 0.780
1466.000, 1.389
1467.000, 1.541
1468.000, 1.552
1469.000, 1.564
1470.000, 1.337
1471.000, 0.757
1472.000, 1.035
1473.000, 1.601
1474.000, 1.023
1475.000, 0.660
1476.000, 0.678
1477.000, 0.696
1478.000, 0.715
1479.000, 0.735
1480.000, 0.755
1481.000, 0.776
1482.000, 0.797
1483.000, 0.818
1484.000, 1.424
1485.000, 1.681
1486.000, 1.107
1487.000, 0.533
1488.000, 0.040
1489.000, 0.036
1490.000, 0.009
1491.000, 0.020
1492.000, 0.422
1493.000, 1.053
1494.000, 1.102
1495.000, 0.998
1496.000, 1.254
1497.000, 0.894
1498.000, 0.017
1499.000, 0.311
1500.000, 0.000
##END=



