##NAMES=Amblygonite
##RRUFFID=X050012
##IDEAL CHEMISTRY=LiAlPO_4_F
##LOCALITY=Minas Gerais, Brazil
##OWNER=Caltech
##SOURCE=RD Shannon 56163-
##DESCRIPTION=
##STATUS=The identification of this mineral has been determined only by Raman spectroscopy
##URL=rruff.info/X050012
206.000, 0.000
207.000, 2.203
208.000, 0.279
209.000, 3.528
210.000, 6.424
211.000, 10.399
212.000, 11.197
213.000, 8.340
214.000, 3.566
215.000, 0.216
216.000, 0.031
217.000, 0.290
218.000, 1.321
219.000, 2.502
220.000, 4.081
221.000, 6.033
222.000, 7.886
223.000, 9.363
224.000, 10.914
225.000, 13.143
226.000, 15.601
227.000, 17.212
228.000, 17.569
229.000, 18.018
230.000, 18.605
231.000, 19.364
232.000, 18.871
233.000, 17.723
234.000, 16.642
235.000, 15.803
236.000, 14.900
237.000, 12.813
238.000, 10.611
239.000, 8.871
240.000, 7.520
241.000, 6.246
242.000, 5.323
243.000, 4.402
244.000, 3.483
245.000, 2.566
246.000, 2.033
247.000, 1.967
248.000, 1.826
249.000, 0.916
250.000, 0.007
251.000, 0.281
252.000, 0.339
253.000, 0.551
254.000, 1.029
255.000, 1.494
256.000, 1.120
257.000, 0.744
258.000, 0.365
259.000, 0.015
260.000, 0.399
261.000, 0.790
262.000, 1.185
263.000, 1.986
264.000, 2.810
265.000, 3.633
266.000, 4.455
267.000, 5.690
268.000, 8.216
269.000, 10.743
270.000, 15.934
271.000, 21.445
272.000, 30.897
273.000, 43.652
274.000, 58.163
275.000, 79.873
276.000, 101.583
277.000, 116.432
278.000, 130.060
279.000, 130.579
280.000, 118.196
281.000, 105.540
282.000, 91.439
283.000, 77.339
284.000, 73.685
285.000, 72.387
286.000, 77.569
287.000, 89.945
288.000, 104.899
289.000, 136.507
290.000, 168.117
291.000, 233.030
292.000, 306.585
293.000, 410.789
294.000, 551.558
295.000, 689.687
296.000, 808.259
297.000, 926.833
298.000, 906.286
299.000, 847.182
300.000, 748.884
301.000, 602.292
302.000, 462.158
303.000, 371.717
304.000, 281.278
305.000, 235.736
306.000, 202.709
307.000, 184.000
308.000, 182.720
309.000, 182.897
310.000, 193.646
311.000, 204.397
312.000, 202.886
313.000, 198.175
314.000, 184.286
315.000, 159.507
316.000, 135.746
317.000, 118.636
318.000, 101.511
319.000, 102.220
320.000, 106.994
321.000, 117.656
322.000, 134.438
323.000, 148.913
324.000, 152.294
325.000, 155.690
326.000, 140.513
327.000, 121.966
328.000, 103.201
329.000, 84.236
330.000, 66.886
331.000, 55.694
332.000, 44.505
333.000, 37.531
334.000, 31.082
335.000, 26.112
336.000, 22.247
337.000, 18.825
338.000, 16.684
339.000, 14.540
340.000, 13.208
341.000, 11.926
342.000, 10.915
343.000, 10.066
344.000, 9.217
345.000, 8.369
346.000, 7.528
347.000, 7.549
348.000, 7.566
349.000, 6.674
350.000, 5.385
351.000, 4.599
352.000, 4.606
353.000, 4.610
354.000, 4.613
355.000, 4.618
356.000, 3.950
357.000, 3.085
358.000, 2.622
359.000, 2.608
360.000, 2.595
361.000, 2.574
362.000, 2.530
363.000, 2.457
364.000, 2.415
365.000, 2.641
366.000, 3.075
367.000, 3.293
368.000, 2.874
369.000, 2.459
370.000, 3.306
371.000, 4.203
372.000, 4.816
373.000, 5.288
374.000, 5.928
375.000, 6.845
376.000, 7.729
377.000, 8.212
378.000, 8.696
379.000, 9.863
380.000, 11.221
381.000, 12.793
382.000, 14.589
383.000, 16.385
384.000, 18.184
385.000, 19.983
386.000, 22.972
387.000, 26.083
388.000, 29.195
389.000, 32.310
390.000, 35.570
391.000, 39.126
392.000, 42.624
393.000, 44.869
394.000, 47.115
395.000, 49.030
396.000, 50.840
397.000, 51.408
398.000, 50.593
399.000, 49.528
400.000, 47.399
401.000, 45.271
402.000, 42.744
403.000, 40.177
404.000, 38.435
405.000, 37.184
406.000, 36.239
407.000, 35.866
408.000, 35.767
409.000, 39.347
410.000, 42.929
411.000, 50.688
412.000, 59.544
413.000, 65.908
414.000, 69.934
415.000, 71.736
416.000, 66.530
417.000, 61.324
418.000, 53.565
419.000, 45.729
420.000, 43.129
421.000, 42.814
422.000, 48.642
423.000, 62.875
424.000, 80.777
425.000, 118.848
426.000, 156.915
427.000, 184.857
428.000, 211.467
429.000, 204.657
430.000, 177.011
431.000, 145.963
432.000, 108.571
433.000, 72.770
434.000, 54.334
435.000, 35.875
436.000, 27.171
437.000, 20.622
438.000, 15.792
439.000, 12.336
440.000, 9.660
441.000, 8.856
442.000, 8.053
443.000, 7.250
444.000, 6.447
445.000, 5.644
446.000, 4.841
447.000, 4.496
448.000, 4.581
449.000, 4.556
450.000, 4.211
451.000, 3.889
452.000, 4.037
453.000, 4.212
454.000, 4.053
455.000, 3.779
456.000, 3.939
457.000, 4.543
458.000, 4.929
459.000, 4.637
460.000, 4.341
461.000, 4.480
462.000, 4.616
463.000, 4.721
464.000, 4.817
465.000, 4.914
466.000, 5.010
467.000, 5.213
468.000, 5.751
469.000, 6.289
470.000, 6.383
471.000, 6.477
472.000, 6.906
473.000, 7.447
474.000, 8.214
475.000, 9.201
476.000, 10.306
477.000, 11.741
478.000, 13.175
479.000, 14.611
480.000, 16.047
481.000, 18.182
482.000, 20.512
483.000, 22.600
484.000, 24.485
485.000, 26.507
486.000, 28.840
487.000, 31.233
488.000, 34.462
489.000, 37.691
490.000, 40.550
491.000, 43.334
492.000, 46.119
493.000, 48.904
494.000, 51.204
495.000, 52.648
496.000, 53.685
497.000, 51.994
498.000, 50.302
499.000, 47.401
500.000, 44.363
501.000, 40.725
502.000, 36.789
503.000, 33.048
504.000, 29.558
505.000, 26.162
506.000, 23.121
507.000, 20.080
508.000, 17.921
509.000, 15.776
510.000, 13.631
511.000, 11.486
512.000, 9.821
513.000, 8.574
514.000, 7.467
515.000, 6.669
516.000, 5.831
517.000, 4.582
518.000, 3.333
519.000, 2.868
520.000, 2.520
521.000, 2.172
522.000, 1.824
523.000, 1.475
524.000, 1.127
525.000, 0.682
526.000, 0.119
527.000, 0.919
528.000, 0.819
529.000, 0.718
530.000, 0.972
531.000, 1.324
532.000, 1.420
533.000, 1.322
534.000, 1.226
535.000, 1.130
536.000, 1.035
537.000, 0.942
538.000, 0.849
539.000, 0.757
540.000, 0.665
541.000, 0.246
542.000, 0.297
543.000, 1.076
544.000, 2.071
545.000, 3.209
546.000, 4.658
547.000, 6.011
548.000, 6.553
549.000, 7.096
550.000, 6.819
551.000, 6.453
552.000, 5.452
553.000, 4.178
554.000, 2.902
555.000, 1.627
556.000, 0.620
557.000, 0.252
558.000, 0.117
559.000, 0.486
560.000, 0.856
561.000, 0.819
562.000, 0.737
563.000, 0.655
564.000, 0.575
565.000, 0.496
566.000, 0.417
567.000, 0.340
568.000, 0.264
569.000, 0.136
570.000, 0.395
571.000, 0.925
572.000, 1.035
573.000, 1.108
574.000, 1.515
575.000, 2.044
576.000, 2.573
577.000, 3.102
578.000, 3.471
579.000, 3.542
580.000, 3.762
581.000, 4.747
582.000, 5.732
583.000, 6.719
584.000, 7.705
585.000, 9.053
586.000, 10.499
587.000, 12.501
588.000, 14.865
589.000, 17.809
590.000, 21.548
591.000, 26.057
592.000, 33.007
593.000, 40.335
594.000, 53.709
595.000, 67.093
596.000, 87.357
597.000, 108.564
598.000, 127.854
599.000, 146.322
600.000, 154.457
601.000, 153.170
602.000, 145.994
603.000, 127.691
604.000, 109.306
605.000, 90.532
606.000, 71.756
607.000, 58.935
608.000, 46.131
609.000, 38.631
610.000, 32.264
611.000, 27.695
612.000, 24.086
613.000, 21.140
614.000, 18.909
615.000, 17.252
616.000, 16.862
617.000, 16.472
618.000, 16.080
619.000, 15.687
620.000, 17.096
621.000, 18.548
622.000, 20.749
623.000, 23.124
624.000, 26.095
625.000, 29.393
626.000, 31.358
627.000, 31.883
628.000, 31.965
629.000, 31.101
630.000, 30.236
631.000, 29.369
632.000, 28.502
633.000, 29.481
634.000, 30.455
635.000, 33.712
636.000, 37.425
637.000, 44.611
638.000, 53.409
639.000, 67.034
640.000, 85.079
641.000, 107.400
642.000, 137.065
643.000, 165.646
644.000, 190.230
645.000, 213.007
646.000, 207.410
647.000, 201.818
648.000, 176.829
649.000, 149.875
650.000, 123.628
651.000, 97.605
652.000, 77.515
653.000, 61.265
654.000, 48.423
655.000, 39.613
656.000, 32.100
657.000, 27.475
658.000, 23.155
659.000, 20.393
660.000, 17.647
661.000, 15.814
662.000, 13.981
663.000, 12.553
664.000, 11.179
665.000, 10.479
666.000, 10.007
667.000, 9.232
668.000, 8.238
669.000, 7.455
670.000, 6.933
671.000, 6.271
672.000, 5.290
673.000, 4.473
674.000, 4.436
675.000, 4.403
676.000, 4.374
677.000, 4.353
678.000, 3.942
679.000, 3.492
680.000, 3.399
681.000, 3.417
682.000, 3.437
683.000, 3.459
684.000, 3.248
685.000, 2.801
686.000, 2.525
687.000, 2.546
688.000, 2.457
689.000, 2.007
690.000, 1.607
691.000, 1.627
692.000, 1.646
693.000, 1.206
694.000, 0.755
695.000, 0.702
696.000, 0.720
697.000, 0.738
698.000, 0.755
699.000, 0.772
700.000, 0.788
701.000, 0.580
702.000, 0.124
703.000, 0.165
704.000, 0.151
705.000, 0.137
706.000, 0.124
707.000, 0.111
708.000, 0.099
709.000, 0.087
710.000, 0.076
711.000, 0.066
712.000, 0.056
713.000, 0.046
714.000, 0.038
715.000, 0.029
716.000, 0.021
717.000, 0.014
718.000, 0.007
719.000, 0.001
720.000, 0.004
721.000, 0.009
722.000, 0.014
723.000, 0.018
724.000, 0.021
725.000, 0.024
726.000, 0.026
727.000, 0.028
728.000, 0.029
729.000, 0.030
730.000, 0.030
731.000, 0.030
732.000, 0.030
733.000, 0.029
734.000, 0.027
735.000, 0.025
736.000, 0.022
737.000, 0.019
738.000, 0.016
739.000, 0.012
740.000, 0.008
741.000, 0.003
742.000, 0.002
743.000, 0.007
744.000, 0.013
745.000, 0.051
746.000, 0.522
747.000, 0.948
748.000, 0.465
749.000, 0.017
750.000, 0.408
751.000, 0.880
752.000, 0.945
753.000, 0.940
754.000, 0.935
755.000, 0.930
756.000, 1.243
757.000, 1.716
758.000, 1.914
759.000, 1.909
760.000, 2.133
761.000, 2.606
762.000, 3.078
763.000, 3.550
764.000, 3.877
765.000, 3.870
766.000, 3.965
767.000, 4.437
768.000, 4.908
769.000, 5.379
770.000, 5.850
771.000, 6.321
772.000, 6.792
773.000, 7.722
774.000, 8.673
775.000, 9.624
776.000, 10.576
777.000, 11.529
778.000, 12.482
779.000, 14.116
780.000, 16.030
781.000, 17.946
782.000, 19.862
783.000, 22.044
784.000, 24.442
785.000, 27.296
786.000, 30.660
787.000, 34.595
788.000, 39.404
789.000, 44.983
790.000, 52.204
791.000, 59.661
792.000, 67.854
793.000, 76.294
794.000, 85.943
795.000, 95.260
796.000, 101.534
797.000, 107.652
798.000, 108.134
799.000, 108.616
800.000, 104.011
801.000, 99.175
802.000, 90.038
803.000, 80.359
804.000, 71.077
805.000, 61.881
806.000, 53.776
807.000, 46.026
808.000, 39.944
809.000, 34.616
810.000, 30.182
811.000, 26.276
812.000, 23.186
813.000, 20.735
814.000, 18.528
815.000, 16.565
816.000, 14.602
817.000, 12.640
818.000, 11.047
819.000, 10.058
820.000, 9.070
821.000, 8.083
822.000, 7.224
823.000, 6.705
824.000, 6.185
825.000, 5.666
826.000, 5.147
827.000, 4.628
828.000, 4.111
829.000, 3.593
830.000, 3.096
831.000, 3.067
832.000, 3.038
833.000, 2.527
834.000, 2.011
835.000, 1.953
836.000, 1.925
837.000, 1.898
838.000, 1.871
839.000, 1.844
840.000, 1.817
841.000, 1.791
842.000, 1.764
843.000, 1.738
844.000, 1.712
845.000, 1.687
846.000, 1.661
847.000, 1.636
848.000, 1.611
849.000, 1.887
850.000, 2.351
851.000, 2.535
852.000, 2.510
853.000, 2.488
854.000, 2.471
855.000, 2.697
856.000, 3.171
857.000, 3.638
858.000, 4.111
859.000, 4.587
860.000, 5.064
861.000, 5.727
862.000, 6.696
863.000, 7.834
864.000, 9.296
865.000, 10.757
866.000, 12.220
867.000, 13.820
868.000, 15.776
869.000, 17.611
870.000, 19.075
871.000, 20.539
872.000, 22.004
873.000, 23.194
874.000, 23.181
875.000, 22.934
876.000, 21.442
877.000, 19.884
878.000, 17.897
879.000, 15.962
880.000, 14.468
881.000, 12.935
882.000, 10.946
883.000, 9.013
884.000, 8.012
885.000, 7.012
886.000, 6.011
887.000, 5.015
888.000, 4.508
889.000, 4.001
890.000, 3.495
891.000, 2.988
892.000, 2.481
893.000, 1.974
894.000, 1.939
895.000, 1.928
896.000, 1.453
897.000, 0.946
898.000, 0.895
899.000, 0.884
900.000, 0.424
901.000, 0.083
902.000, 0.148
903.000, 0.159
904.000, 0.169
905.000, 0.180
906.000, 0.191
907.000, 0.201
908.000, 0.212
909.000, 0.223
910.000, 0.233
911.000, 0.244
912.000, 0.255
913.000, 0.265
914.000, 0.276
915.000, 0.287
916.000, 0.297
917.000, 0.308
918.000, 0.319
919.000, 0.329
920.000, 0.339
921.000, 0.349
922.000, 0.359
923.000, 0.369
924.000, 0.378
925.000, 0.388
926.000, 0.397
927.000, 0.406
928.000, 0.415
929.000, 0.424
930.000, 0.026
931.000, 0.466
932.000, 0.550
933.000, 0.542
934.000, 0.535
935.000, 0.528
936.000, 0.936
937.000, 1.431
938.000, 1.093
939.000, 0.586
940.000, 0.500
941.000, 0.495
942.000, 0.915
943.000, 1.414
944.000, 1.482
945.000, 1.479
946.000, 1.476
947.000, 1.473
948.000, 1.913
949.000, 2.414
950.000, 2.467
951.000, 2.465
952.000, 2.464
953.000, 2.463
954.000, 2.927
955.000, 3.430
956.000, 3.463
957.000, 3.463
958.000, 3.945
959.000, 4.450
960.000, 4.956
961.000, 5.462
962.000, 5.969
963.000, 6.476
964.000, 6.983
965.000, 7.474
966.000, 7.476
967.000, 7.507
968.000, 8.016
969.000, 8.525
970.000, 9.034
971.000, 9.597
972.000, 10.614
973.000, 11.564
974.000, 12.075
975.000, 12.748
976.000, 14.273
977.000, 15.609
978.000, 16.121
979.000, 16.853
980.000, 18.382
981.000, 19.911
982.000, 21.441
983.000, 22.971
984.000, 24.501
985.000, 26.348
986.000, 28.897
987.000, 31.448
988.000, 33.999
989.000, 36.744
990.000, 39.806
991.000, 43.717
992.000, 48.818
993.000, 54.383
994.000, 60.507
995.000, 67.386
996.000, 75.047
997.000, 84.876
998.000, 96.619
999.000, 110.994
1000.000, 127.346
1001.000, 147.456
1002.000, 169.937
1003.000, 199.466
1004.000, 232.706
1005.000, 274.898
1006.000, 320.945
1007.000, 369.673
1008.000, 419.325
1009.000, 456.452
1010.000, 490.249
1011.000, 486.756
1012.000, 475.999
1013.000, 438.002
1014.000, 396.465
1015.000, 346.777
1016.000, 296.522
1017.000, 253.820
1018.000, 211.714
1019.000, 182.438
1020.000, 154.121
1021.000, 135.621
1022.000, 118.149
1023.000, 106.843
1024.000, 96.345
1025.000, 89.142
1026.000, 83.261
1027.000, 81.220
1028.000, 79.815
1029.000, 79.828
1030.000, 80.976
1031.000, 84.076
1032.000, 88.938
1033.000, 96.163
1034.000, 106.155
1035.000, 119.050
1036.000, 137.045
1037.000, 159.232
1038.000, 190.603
1039.000, 227.812
1040.000, 274.833
1041.000, 326.593
1042.000, 373.382
1043.000, 418.415
1044.000, 436.374
1045.000, 447.773
1046.000, 426.232
1047.000, 399.853
1048.000, 371.027
1049.000, 342.268
1050.000, 337.664
1051.000, 335.852
1052.000, 366.504
1053.000, 399.773
1054.000, 448.055
1055.000, 490.665
1056.000, 513.519
1057.000, 520.398
1058.000, 489.287
1059.000, 445.647
1060.000, 380.748
1061.000, 317.660
1062.000, 256.842
1063.000, 206.345
1064.000, 165.263
1065.000, 133.874
1066.000, 108.922
1067.000, 89.964
1068.000, 73.839
1069.000, 62.455
1070.000, 52.577
1071.000, 45.757
1072.000, 39.519
1073.000, 34.727
1074.000, 30.064
1075.000, 26.955
1076.000, 23.893
1077.000, 21.305
1078.000, 18.900
1079.000, 17.355
1080.000, 15.810
1081.000, 14.264
1082.000, 12.902
1083.000, 11.879
1084.000, 10.856
1085.000, 9.833
1086.000, 9.086
1087.000, 8.586
1088.000, 8.735
1089.000, 9.283
1090.000, 9.086
1091.000, 8.586
1092.000, 8.508
1093.000, 8.532
1094.000, 9.028
1095.000, 9.578
1096.000, 10.128
1097.000, 10.773
1098.000, 12.375
1099.000, 14.370
1100.000, 18.075
1101.000, 22.232
1102.000, 27.520
1103.000, 33.418
1104.000, 40.289
1105.000, 45.368
1106.000, 48.554
1107.000, 49.265
1108.000, 48.237
1109.000, 43.569
1110.000, 37.265
1111.000, 30.959
1112.000, 24.652
1113.000, 20.242
1114.000, 16.049
1115.000, 12.906
1116.000, 9.940
1117.000, 8.379
1118.000, 6.819
1119.000, 5.259
1120.000, 4.054
1121.000, 3.556
1122.000, 3.053
1123.000, 2.550
1124.000, 2.047
1125.000, 1.545
1126.000, 1.408
1127.000, 1.447
1128.000, 1.072
1129.000, 0.579
1130.000, 0.558
1131.000, 0.590
1132.000, 0.094
1133.000, 0.335
1134.000, 0.301
1135.000, 0.267
1136.000, 0.234
1137.000, 0.200
1138.000, 0.168
1139.000, 0.138
1140.000, 0.111
1141.000, 0.083
1142.000, 0.056
1143.000, 0.028
1144.000, 0.001
1145.000, 0.027
1146.000, 0.057
1147.000, 0.435
1148.000, 0.888
1149.000, 0.861
1150.000, 0.711
1151.000, 0.149
1152.000, 0.223
1153.000, 0.251
1154.000, 0.278
1155.000, 0.305
1156.000, 0.003
1157.000, 0.505
1158.000, 0.615
1159.000, 0.589
1160.000, 0.094
1161.000, 0.461
1162.000, 0.486
1163.000, 0.433
1164.000, 0.078
1165.000, 0.440
1166.000, 0.417
1167.000, 0.171
1168.000, 0.389
1169.000, 0.651
1170.000, 0.675
1171.000, 0.698
1172.000, 0.720
1173.000, 0.743
1174.000, 0.766
1175.000, 0.789
1176.000, 0.811
1177.000, 0.834
1178.000, 0.994
1179.000, 1.555
1180.000, 2.117
1181.000, 2.678
1182.000, 3.239
1183.000, 3.801
1184.000, 4.362
1185.000, 4.924
1186.000, 5.033
1187.000, 5.054
1188.000, 5.076
1189.000, 5.024
1190.000, 4.505
1191.000, 3.986
1192.000, 3.466
1193.000, 2.947
1194.000, 2.427
1195.000, 1.907
1196.000, 1.387
1197.000, 0.867
1198.000, 0.346
1199.000, 0.801
1200.000, 1.334
1201.000, 1.356
1202.000, 1.377
1203.000, 1.399
1204.000, 1.219
1205.000, 0.697
1206.000, 0.462
1207.000, 0.483
1208.000, 0.504
1209.000, 0.525
1210.000, 0.546
1211.000, 0.567
1212.000, 0.587
1213.000, 0.608
1214.000, 0.629
1215.000, 0.649
1216.000, 0.669
1217.000, 0.690
1218.000, 0.710
1219.000, 1.097
1220.000, 1.663
1221.000, 1.311
1222.000, 0.790
1223.000, 0.810
1224.000, 0.829
1225.000, 0.849
1226.000, 0.678
1227.000, 0.150
1228.000, 0.192
1229.000, 0.759
1230.000, 0.945
1231.000, 0.964
1232.000, 0.507
1233.000, 0.003
1234.000, 0.022
1235.000, 0.041
1236.000, 0.059
1237.000, 0.077
1238.000, 0.095
1239.000, 0.112
1240.000, 0.130
1241.000, 0.126
1242.000, 0.124
1243.000, 0.123
1244.000, 0.125
1245.000, 0.128
1246.000, 0.297
1247.000, 0.854
1248.000, 1.147
1249.000, 1.156
1250.000, 1.167
1251.000, 1.179
1252.000, 0.722
1253.000, 0.229
1254.000, 0.796
1255.000, 1.081
1256.000, 0.480
1257.000, 0.111
1258.000, 0.074
1259.000, 0.076
1260.000, 0.091
1261.000, 0.127
1262.000, 0.169
1263.000, 0.184
1264.000, 0.195
1265.000, 0.170
1266.000, 0.137
1267.000, 0.105
1268.000, 0.108
1269.000, 0.124
1270.000, 0.139
1271.000, 0.154
1272.000, 0.158
1273.000, 0.229
1274.000, 0.764
1275.000, 0.912
1276.000, 0.371
1277.000, 0.143
1278.000, 0.157
1279.000, 0.171
1280.000, 0.185
1281.000, 0.199
1282.000, 0.213
1283.000, 0.226
1284.000, 0.449
1285.000, 1.019
1286.000, 1.263
1287.000, 1.276
1288.000, 1.288
1289.000, 1.300
1290.000, 0.754
1291.000, 0.442
1292.000, 1.013
1293.000, 1.116
1294.000, 0.569
1295.000, 0.375
1296.000, 0.387
1297.000, 0.400
1298.000, 0.412
1299.000, 0.424
1300.000, 0.587
1301.000, 1.159
1302.000, 1.190
1303.000, 0.685
1304.000, 0.540
1305.000, 0.551
1306.000, 0.563
1307.000, 0.576
1308.000, 0.622
1309.000, 0.647
1310.000, 0.658
1311.000, 0.668
1312.000, 0.679
1313.000, 0.690
1314.000, 0.701
1315.000, 0.711
1316.000, 0.721
1317.000, 0.732
1318.000, 0.742
1319.000, 0.752
1320.000, 0.763
1321.000, 0.773
1322.000, 0.783
1323.000, 0.793
1324.000, 0.803
1325.000, 0.813
1326.000, 0.823
1327.000, 0.832
1328.000, 0.842
1329.000, 0.851
1330.000, 0.860
1331.000, 0.870
1332.000, 0.879
1333.000, 0.888
1334.000, 0.897
1335.000, 0.900
1336.000, 0.905
1337.000, 0.914
1338.000, 0.922
1339.000, 0.785
1340.000, 0.225
1341.000, 0.217
1342.000, 0.802
1343.000, 0.956
1344.000, 0.955
1345.000, 0.954
1346.000, 0.955
1347.000, 0.970
1348.000, 0.980
1349.000, 0.981
1350.000, 0.983
1351.000, 0.984
1352.000, 0.986
1353.000, 0.988
1354.000, 0.993
1355.000, 1.000
1356.000, 1.007
1357.000, 1.014
1358.000, 1.021
1359.000, 1.028
1360.000, 1.035
1361.000, 1.039
1362.000, 1.046
1363.000, 1.052
1364.000, 1.060
1365.000, 1.064
1366.000, 1.069
1367.000, 0.839
1368.000, 0.303
1369.000, 0.387
1370.000, 0.765
1371.000, 1.093
1372.000, 1.097
1373.000, 1.101
1374.000, 0.971
1375.000, 0.401
1376.000, 0.115
1377.000, 0.120
1378.000, 0.124
1379.000, 0.129
1380.000, 0.133
1381.000, 0.138
1382.000, 0.143
1383.000, 0.149
1384.000, 0.154
1385.000, 0.158
1386.000, 0.163
1387.000, 0.167
1388.000, 0.171
1389.000, 0.176
1390.000, 0.533
1391.000, 1.116
1392.000, 0.681
1393.000, 0.282
1394.000, 0.872
1395.000, 1.217
1396.000, 1.228
1397.000, 0.837
1398.000, 0.268
1399.000, 0.261
1400.000, 0.272
1401.000, 0.283
1402.000, 0.294
1403.000, 0.304
1404.000, 0.314
1405.000, 0.324
1406.000, 0.333
1407.000, 0.343
1408.000, 0.352
1409.000, 0.006
1410.000, 0.579
1411.000, 0.088
1412.000, 0.389
1413.000, 0.398
1414.000, 0.129
1415.000, 0.445
1416.000, 0.130
1417.000, 0.435
1418.000, 0.444
1419.000, 0.453
1420.000, 0.462
1421.000, 0.468
1422.000, 0.477
1423.000, 0.487
1424.000, 0.496
1425.000, 0.506
1426.000, 0.515
1427.000, 0.525
1428.000, 0.535
1429.000, 0.587
1430.000, 1.183
1431.000, 1.566
1432.000, 1.576
1433.000, 1.199
1434.000, 0.623
1435.000, 1.087
1436.000, 1.388
1437.000, 0.811
1438.000, 0.555
1439.000, 0.560
1440.000, 0.565
1441.000, 0.570
1442.000, 0.575
1443.000, 0.581
1444.000, 0.587
1445.000, 0.593
1446.000, 0.604
1447.000, 0.613
1448.000, 0.413
1449.000, 0.166
1450.000, 0.032
1451.000, 0.630
1452.000, 0.657
1453.000, 0.503
1454.000, 0.081
1455.000, 0.016
1456.000, 0.486
1457.000, 0.555
1458.000, 0.467
1459.000, 0.435
1460.000, 0.437
1461.000, 0.439
1462.000, 0.441
1463.000, 0.443
1464.000, 0.444
1465.000, 0.444
1466.000, 0.444
1467.000, 0.443
1468.000, 0.443
1469.000, 0.443
1470.000, 0.442
1471.000, 0.441
1472.000, 0.440
1473.000, 0.438
1474.000, 0.435
1475.000, 0.345
1476.000, 0.307
1477.000, 0.295
1478.000, 0.168
1479.000, 0.154
1480.000, 0.144
1481.000, 0.133
1482.000, 0.510
1483.000, 1.093
1484.000, 2.259
1485.000, 2.709
1486.000, 1.492
1487.000, 1.406
1488.000, 1.981
1489.000, 1.984
1490.000, 1.973
1491.000, 1.962
1492.000, 1.579
1493.000, 0.971
1494.000, 0.936
1495.000, 0.935
1496.000, 0.939
1497.000, 0.576
1498.000, 0.005
1499.000, 0.002
1500.000, 0.000
##END=



