##NAMES=Ameghinite
##RRUFFID=R060643
##IDEAL CHEMISTRY=NaB_3_O_3_(OH)_4_
##LOCALITY=Tinkalayu mine, Salar del Hombre Muerto, Salta province, Argentina
##OWNER=RRUFF
##SOURCE=Michael Scott
##DESCRIPTION=Colorless glassy
##STATUS=The identification of this mineral has been confirmed by single-crystal X-ray diffraction.
##URL=rruff.info/R060643
111.8088, 0.0000000E+00
112.2909, 0.6748050
112.7731, 0.1920170
113.2552, 7.499878
113.7373, 20.32153
114.2194, 38.40698
114.7015, 65.12329
115.1836, 90.33008
115.6658, 118.2186
116.1479, 142.6876
116.6300, 156.4791
117.1121, 156.6710
117.5942, 148.5811
118.0763, 143.4312
118.5584, 139.4574
119.0406, 140.0895
119.5227, 150.8186
120.0048, 167.5829
120.4869, 179.7520
120.9690, 183.6904
121.4511, 178.0477
121.9333, 163.4761
122.4154, 136.8590
122.8975, 108.3531
123.3796, 84.81665
123.8617, 65.59558
124.3438, 51.49451
124.8260, 45.02600
125.3081, 43.44116
125.7902, 45.15271
126.2723, 49.79749
126.7544, 57.41943
127.2365, 68.53796
127.7187, 85.37634
128.2008, 102.3737
128.6829, 120.8276
129.1650, 137.9028
129.6471, 149.7579
130.1292, 153.7781
130.6114, 150.3253
131.0935, 144.3704
131.5756, 128.6415
132.0577, 118.3412
132.5398, 117.9722
133.0219, 130.7245
133.5041, 154.1300
133.9862, 185.3500
134.4683, 223.1990
134.9504, 262.7325
135.4325, 312.7310
135.9146, 353.6493
136.3968, 378.3051
136.8789, 386.7025
137.3610, 380.9708
137.8431, 360.1484
138.3252, 320.3025
138.8073, 286.8807
139.2895, 258.8301
139.7716, 238.6627
140.2537, 229.7267
140.7358, 233.2047
141.2179, 246.6569
141.7000, 268.6479
142.1821, 298.0121
142.6643, 332.6140
143.1464, 375.9878
143.6285, 424.9465
144.1106, 468.8767
144.5927, 507.5833
145.0748, 536.7078
145.5570, 555.4702
146.0391, 563.7545
146.5212, 561.9426
147.0033, 550.7521
147.4854, 530.3223
147.9675, 498.5294
148.4497, 445.6186
148.9318, 386.0066
149.4139, 323.9043
149.8960, 261.1139
150.3781, 201.1744
150.8602, 149.9641
151.3424, 108.2281
151.8245, 73.87054
152.3066, 46.10748
152.7887, 23.92493
153.2708, 6.893982
153.7529, 5.121704
154.2351, 13.00263
154.7172, 18.82678
155.1993, 21.97357
155.6814, 23.32056
156.1635, 21.86938
156.6456, 18.99414
157.1278, 16.48627
157.6099, 15.31189
158.0920, 14.80133
158.5741, 11.95221
159.0562, 6.095642
159.5383, 0.9035030
160.0205, 9.000000
160.5026, 18.11401
160.9847, 27.75787
161.4668, 37.52313
161.9489, 47.67511
162.4310, 58.98633
162.9131, 71.33917
163.3953, 84.63702
163.8774, 98.67700
164.3595, 113.6829
164.8416, 130.0276
165.3237, 147.7275
165.8058, 166.9578
166.2880, 187.8453
166.7701, 210.3834
167.2522, 234.7373
167.7343, 261.7284
168.2164, 291.9548
168.6985, 321.7909
169.1807, 349.9574
169.6628, 377.0398
170.1449, 401.6127
170.6270, 423.8284
171.1091, 443.1545
171.5912, 458.7852
172.0734, 471.7957
172.5555, 478.2098
173.0376, 475.7548
173.5197, 467.2611
174.0018, 455.9885
174.4839, 442.5859
174.9661, 428.1515
175.4482, 419.6258
175.9303, 418.5919
176.4124, 422.7651
176.8945, 433.5527
177.3766, 448.8077
177.8588, 465.3864
178.3409, 481.4696
178.8230, 497.0959
179.3051, 509.0610
179.7872, 519.4073
180.2693, 524.2136
180.7515, 520.9037
181.2336, 510.6600
181.7157, 496.3824
182.1978, 480.2610
182.6799, 462.1312
183.1620, 443.5582
183.6441, 423.2380
184.1263, 403.6848
184.6084, 386.2241
185.0905, 370.8451
185.5726, 356.8448
186.0547, 343.8883
186.5368, 332.1884
187.0190, 319.7853
187.5011, 305.8358
187.9832, 291.9369
188.4653, 278.9325
188.9474, 267.0264
189.4296, 256.5381
189.9117, 248.1575
190.3938, 241.9085
190.8759, 235.8387
191.3580, 229.0791
191.8401, 222.7520
192.3223, 217.9501
192.8044, 214.7620
193.2865, 213.2888
193.7686, 214.7171
194.2507, 218.2285
194.7328, 221.5724
195.2150, 223.1360
195.6971, 224.2167
196.1792, 227.4926
196.6613, 233.6278
197.1434, 241.0677
197.6255, 249.4681
198.1077, 258.3167
198.5898, 266.0553
199.0719, 272.0961
199.5540, 276.4482
200.0361, 279.2529
200.5182, 281.0795
201.0004, 280.1641
201.4825, 276.2076
201.9646, 269.2990
202.4467, 259.6870
202.9288, 246.9308
203.4109, 231.1757
203.8930, 215.2896
204.3752, 199.0198
204.8573, 183.0005
205.3394, 167.3643
205.8215, 152.2438
206.3036, 137.7048
206.7857, 123.7823
207.2679, 110.4368
207.7500, 98.48279
208.2321, 88.36664
208.7142, 79.33887
209.1963, 71.47107
209.6784, 64.50012
210.1606, 58.05127
210.6427, 51.67505
211.1248, 45.17139
211.6069, 39.17847
212.0890, 34.14832
212.5711, 29.50415
213.0533, 25.25006
213.5354, 21.44275
214.0175, 18.24597
214.4996, 15.85590
214.9817, 14.46869
215.4638, 12.21344
215.9460, 8.159729
216.4281, 4.331421
216.9102, 1.755188
217.3923, 0.5381470
217.8744, 0.2218020
218.3565, 0.4521480
218.8387, 1.230408
219.3208, 1.937927
219.8029, 2.372620
220.2850, 2.793335
220.7671, 3.376343
221.2492, 4.115967
221.7314, 4.834595
222.2135, 5.308167
222.6956, 5.577026
223.1777, 6.104065
223.6598, 7.170044
224.1419, 8.150940
224.6240, 8.549072
225.1062, 8.386963
225.5883, 8.139832
226.0704, 8.147949
226.5525, 8.364990
227.0346, 8.540466
227.5167, 9.037476
227.9989, 9.328308
228.4810, 8.637634
228.9631, 6.878906
229.4452, 5.289551
229.9273, 5.007629
230.4094, 5.619263
230.8916, 5.962097
231.3737, 5.671570
231.8558, 5.146667
232.3379, 4.770630
232.8200, 4.538879
233.3021, 4.545532
233.7843, 5.102600
234.2664, 5.851257
234.7485, 6.246399
235.2306, 5.955811
235.7127, 5.405212
236.1948, 5.154175
236.6770, 5.246521
237.1591, 5.596313
237.6412, 6.344849
238.1233, 7.176636
238.6054, 7.773560
239.0875, 7.977051
239.5697, 8.067322
240.0518, 8.475830
240.5339, 9.250183
241.0160, 10.15289
241.4981, 11.31824
241.9802, 12.45636
242.4624, 13.31116
242.9445, 13.81091
243.4266, 13.95654
243.9087, 13.62433
244.3908, 12.55347
244.8729, 11.72314
245.3550, 11.19867
245.8372, 11.10162
246.3193, 11.72327
246.8014, 13.19800
247.2835, 14.97955
247.7656, 16.16144
248.2477, 16.65332
248.7299, 16.69659
249.2120, 16.02332
249.6941, 15.16827
250.1762, 14.53986
250.6583, 14.26044
251.1404, 14.17242
251.6226, 13.99231
252.1047, 13.63623
252.5868, 13.40369
253.0689, 13.60754
253.5510, 13.74567
254.0331, 13.32495
254.5153, 12.27655
254.9974, 11.06952
255.4795, 10.43054
255.9616, 10.65063
256.4437, 10.85822
256.9258, 10.93384
257.4080, 11.06256
257.8901, 11.47308
258.3722, 12.15308
258.8543, 12.78894
259.3364, 12.89142
259.8185, 12.03131
260.3007, 11.74481
260.7828, 12.51086
261.2649, 13.34631
261.7470, 13.59607
262.2291, 13.22559
262.7112, 12.67657
263.1934, 12.45001
263.6755, 12.64221
264.1576, 12.82507
264.6397, 13.35297
265.1218, 13.58582
265.6039, 12.95563
266.0861, 11.55072
266.5682, 10.02020
267.0503, 8.972046
267.5324, 8.445557
268.0145, 8.314880
268.4966, 8.700806
268.9788, 9.278625
269.4609, 10.10486
269.9430, 11.03613
270.4251, 11.76355
270.9072, 12.10144
271.3893, 12.07123
271.8715, 10.93060
272.3536, 7.492798
272.8357, 4.371094
273.3178, 2.740356
273.7999, 2.325745
274.2820, 2.319275
274.7642, 2.262939
275.2463, 2.148438
275.7284, 1.662231
276.2105, 0.4002080
276.6926, 0.6364140
277.1747, 1.061157
277.6568, 1.035461
278.1389, 0.8421630
278.6211, 0.5725710
279.1032, 0.3294070
279.5853, 0.6207280
280.0674, 2.279785
280.5495, 3.413086
281.0316, 3.161194
281.5138, 2.098816
281.9959, 1.282654
282.4780, 1.195007
282.9601, 1.527954
283.4422, 1.440430
283.9243, 0.4840090
284.4065, 1.2512000E-02
284.8886, 0.5696410
285.3707, 1.678833
285.8528, 2.536926
286.3349, 2.899536
286.8170, 2.949585
287.2992, 2.932495
287.7813, 2.788940
288.2634, 2.723694
288.7455, 2.783997
289.2276, 2.947083
289.7097, 3.261658
290.1919, 3.749146
290.6740, 4.153992
291.1561, 4.127991
291.6382, 3.612610
292.1203, 3.045349
292.6024, 2.167114
293.0846, 1.435303
293.5667, 1.503418
294.0488, 2.432434
294.5309, 3.317139
295.0130, 3.213501
295.4951, 2.102234
295.9773, 1.452820
296.4594, 1.670471
296.9415, 2.119324
297.4236, 2.382202
297.9057, 2.429321
298.3878, 2.298645
298.8700, 1.997498
299.3521, 1.524170
299.8342, 0.9752810
300.3163, 0.3020020
300.7984, 0.3903200
301.2805, 1.220032
301.7627, 2.081970
302.2448, 2.440674
302.7269, 1.790710
303.2090, 0.6210330
303.6911, 0.3924560
304.1732, 1.513367
304.6554, 2.806824
305.1375, 3.773315
305.6196, 4.516357
306.1017, 5.389099
306.5838, 6.649719
307.0659, 7.863159
307.5481, 8.002930
308.0302, 6.787903
308.5123, 5.881165
308.9944, 5.823792
309.4765, 6.420227
309.9586, 7.446716
310.4408, 8.909607
310.9229, 10.50995
311.4050, 11.83984
311.8871, 12.90179
312.3692, 13.90533
312.8513, 14.69366
313.3335, 15.53326
313.8156, 16.82068
314.2977, 18.62122
314.7798, 20.52936
315.2619, 22.13788
315.7440, 23.48474
316.2262, 25.07727
316.7083, 27.29871
317.1904, 29.53479
317.6725, 31.19623
318.1546, 32.30981
318.6367, 33.36523
319.1188, 34.61041
319.6010, 36.08289
320.0831, 37.83752
320.5652, 40.08826
321.0473, 42.40796
321.5294, 44.65747
322.0115, 46.80292
322.4937, 48.71661
322.9758, 50.23676
323.4579, 51.58783
323.9400, 53.31311
324.4221, 55.49408
324.9042, 57.79480
325.3864, 60.00653
325.8685, 62.27716
326.3506, 64.97656
326.8327, 68.28534
327.3148, 71.83508
327.7969, 75.03278
328.2791, 77.80939
328.7612, 80.70325
329.2433, 83.60449
329.7254, 86.75543
330.2075, 90.52710
330.6896, 94.98676
331.1718, 99.69214
331.6539, 104.1823
332.1360, 108.4365
332.6181, 113.1658
333.1002, 118.7060
333.5823, 124.4565
334.0645, 129.8736
334.5466, 134.9619
335.0287, 140.4547
335.5108, 147.0168
335.9929, 154.4200
336.4750, 160.7892
336.9572, 164.8759
337.4393, 169.3959
337.9214, 175.5958
338.4035, 183.0900
338.8856, 190.9593
339.3677, 198.8306
339.8499, 206.6891
340.3320, 214.4305
340.8141, 221.7499
341.2962, 229.4455
341.7783, 238.5066
342.2604, 247.7580
342.7426, 255.7461
343.2247, 262.0190
343.7068, 266.7788
344.1889, 270.2380
344.6710, 272.0987
345.1531, 273.1854
345.6353, 273.6720
346.1174, 273.2657
346.5995, 271.2941
347.0816, 267.9451
347.5637, 264.4715
348.0458, 262.0733
348.5280, 260.8242
349.0101, 259.0212
349.4922, 256.6021
349.9743, 253.8541
350.4564, 250.7717
350.9385, 247.4797
351.4207, 244.0975
351.9028, 240.6402
352.3849, 237.2621
352.8670, 234.6622
353.3491, 232.6748
353.8312, 231.7341
354.3134, 231.7844
354.7955, 232.9069
355.2776, 235.1409
355.7597, 238.5248
356.2418, 243.2164
356.7239, 249.5115
357.2061, 257.6487
357.6882, 267.2268
358.1703, 278.6974
358.6524, 291.1144
359.1345, 304.0602
359.6166, 317.3781
360.0987, 330.7337
360.5808, 343.9548
361.0630, 357.1188
361.5451, 369.3240
362.0272, 381.4319
362.5093, 391.7523
362.9914, 399.8027
363.4735, 405.6489
363.9557, 409.2184
364.4378, 410.4037
364.9199, 409.5521
365.4020, 408.1443
365.8841, 406.5703
366.3662, 403.7637
366.8484, 398.9270
367.3305, 393.2405
367.8126, 388.0794
368.2947, 383.8364
368.7768, 379.4262
369.2589, 373.0771
369.7411, 364.2938
370.2232, 354.9852
370.7053, 345.4968
371.1874, 335.2423
371.6695, 323.6354
372.1516, 310.8195
372.6338, 297.2603
373.1159, 283.4102
373.5980, 269.3060
374.0801, 254.7525
374.5622, 238.8641
375.0443, 223.5664
375.5265, 209.3058
376.0086, 195.9691
376.4907, 183.5205
376.9728, 171.8669
377.4549, 161.0323
377.9370, 150.9856
378.4192, 141.6421
378.9013, 133.3069
379.3834, 126.0126
379.8655, 119.7433
380.3476, 114.8380
380.8297, 111.3646
381.3119, 108.4028
381.7940, 104.7984
382.2761, 100.5647
382.7582, 97.39636
383.2403, 95.89844
383.7224, 95.17203
384.2046, 94.61835
384.6867, 94.24811
385.1688, 94.06281
385.6509, 93.83972
386.1330, 93.83652
386.6151, 94.77121
387.0973, 96.84622
387.5794, 99.28204
388.0615, 101.8059
388.5436, 104.3750
389.0257, 106.8761
389.5078, 109.0936
389.9900, 111.5870
390.4721, 114.9910
390.9542, 119.2112
391.4363, 123.4581
391.9184, 127.5714
392.4005, 131.4734
392.8827, 134.9091
393.3648, 137.8033
393.8469, 141.1440
394.3290, 145.5265
394.8111, 150.5259
395.2932, 155.4478
395.7754, 160.2306
396.2575, 164.9729
396.7396, 169.5838
397.2217, 174.1875
397.7038, 179.7415
398.1859, 186.8682
398.6681, 194.5089
399.1501, 201.9907
399.6323, 209.4032
400.1144, 217.0995
400.5965, 225.2021
401.0786, 233.7763
401.5607, 243.0424
402.0428, 253.8616
402.5250, 263.7776
403.0071, 272.0348
403.4892, 279.3232
403.9713, 286.6497
404.4534, 294.1455
404.9355, 300.7751
405.4177, 305.3169
405.8998, 307.5094
406.3819, 308.3829
406.8640, 308.3288
407.3461, 306.7974
407.8282, 303.3389
408.3104, 298.1672
408.7925, 291.8547
409.2746, 284.6949
409.7567, 276.6240
410.2388, 267.2248
410.7209, 255.8032
411.2031, 243.8399
411.6852, 231.1896
412.1673, 218.2119
412.6494, 205.0241
413.1315, 191.7355
413.6136, 178.7312
414.0958, 166.7823
414.5779, 156.3904
415.0600, 144.7986
415.5421, 129.9851
416.0242, 115.8958
416.5063, 104.1932
416.9885, 94.45117
417.4706, 85.55826
417.9527, 76.67786
418.4348, 68.13812
418.9169, 61.07404
419.3990, 56.18124
419.8812, 51.32687
420.3633, 45.50574
420.8454, 39.63782
421.3275, 34.62335
421.8096, 30.68857
422.2917, 27.36371
422.7739, 24.32486
423.2560, 21.56100
423.7381, 18.71426
424.2202, 15.55350
424.7023, 12.55954
425.1844, 10.12024
425.6666, 8.130127
426.1487, 6.197693
426.6308, 3.907379
427.1129, 1.689819
427.5950, 0.2529300
428.0771, 0.3846740
428.5593, 0.6740110
429.0414, 0.5861510
429.5235, 0.4299010
430.0056, 0.8410640
430.4877, 1.980865
430.9698, 3.319092
431.4520, 4.815979
431.9341, 6.285553
432.4162, 7.339203
432.8983, 7.856445
433.3804, 8.066956
433.8625, 8.174377
434.3447, 8.155487
434.8268, 8.241913
435.3089, 8.703461
435.7910, 9.051819
436.2731, 8.787445
436.7552, 8.089783
437.2374, 7.651642
437.7195, 7.935516
438.2016, 8.661774
438.6837, 8.747864
439.1658, 7.805664
439.6479, 6.700653
440.1301, 5.281555
440.6122, 3.839355
441.0943, 2.695404
441.5764, 1.891876
442.0585, 1.197662
442.5406, 0.4059140
443.0227, 0.4354550
443.5049, 1.754547
443.9870, 4.016144
444.4691, 6.282745
444.9512, 7.809113
445.4333, 9.227203
445.9154, 11.61224
446.3976, 15.52603
446.8797, 20.56830
447.3618, 25.91943
447.8439, 31.62366
448.3260, 37.49530
448.8081, 44.00491
449.2903, 50.33243
449.7724, 55.84286
450.2545, 60.56137
450.7366, 65.13034
451.2187, 69.81305
451.7008, 74.70703
452.1830, 80.18454
452.6651, 86.36823
453.1472, 92.77869
453.6293, 98.81631
454.1114, 104.9800
454.5935, 112.0386
455.0757, 120.0540
455.5578, 129.1310
456.0399, 139.4193
456.5220, 150.8547
457.0041, 163.2725
457.4862, 176.5190
457.9684, 191.0091
458.4505, 207.3551
458.9326, 225.3780
459.4147, 245.3350
459.8968, 266.3534
460.3789, 289.9333
460.8611, 317.1384
461.3432, 348.0771
461.8253, 382.8805
462.3074, 422.1839
462.7895, 465.1486
463.2716, 509.3849
463.7538, 559.8265
464.2359, 605.0583
464.7180, 649.3832
465.2001, 685.2741
465.6822, 707.0761
466.1643, 712.7988
466.6465, 699.5988
467.1286, 662.8965
467.6107, 600.1094
468.0928, 535.4215
468.5749, 462.4223
469.0570, 394.3846
469.5392, 333.9107
470.0213, 281.1391
470.5034, 236.6447
470.9855, 200.7072
471.4676, 171.9145
471.9497, 148.4041
472.4319, 130.8513
472.9140, 115.7404
473.3961, 103.2098
473.8782, 92.77521
474.3603, 84.68210
474.8424, 78.63843
475.3246, 73.39209
475.8067, 68.09393
476.2888, 63.18839
476.7709, 59.68747
477.2530, 57.72681
477.7351, 56.41962
478.2173, 55.46655
478.6994, 54.91678
479.1815, 54.76401
479.6636, 54.97778
480.1457, 55.69754
480.6278, 56.87491
481.1100, 58.63675
481.5920, 61.29572
482.0742, 64.92068
482.5563, 69.06119
483.0384, 73.18149
483.5205, 77.36310
484.0026, 83.06461
484.4847, 90.23291
484.9669, 98.79343
485.4490, 109.5266
485.9311, 121.5066
486.4132, 132.8997
486.8953, 143.0844
487.3774, 153.2694
487.8596, 165.4367
488.3417, 180.6465
488.8238, 195.2255
489.3059, 208.4384
489.7880, 221.7081
490.2701, 234.9799
490.7523, 248.8745
491.2344, 264.5259
491.7165, 282.6431
492.1986, 302.7229
492.6807, 323.0768
493.1628, 342.6290
493.6450, 365.1093
494.1271, 391.3568
494.6092, 420.7090
495.0913, 452.5366
495.5734, 486.8676
496.0555, 525.1192
496.5377, 567.2885
497.0198, 614.0385
497.5019, 666.6350
497.9840, 725.0388
498.4661, 789.9332
498.9482, 863.3025
499.4304, 944.0223
499.9125, 1029.239
500.3946, 1120.514
500.8767, 1212.898
501.3588, 1310.737
501.8409, 1406.861
502.3231, 1493.538
502.8052, 1569.106
503.2873, 1624.104
503.7694, 1650.156
504.2515, 1646.173
504.7336, 1614.305
505.2158, 1547.678
505.6979, 1464.525
506.1800, 1365.667
506.6621, 1256.033
507.1442, 1140.626
507.6263, 1021.649
508.1085, 903.2034
508.5906, 791.5271
509.0727, 685.2733
509.5548, 590.3565
510.0369, 507.4525
510.5190, 435.5703
511.0012, 375.4565
511.4833, 325.8711
511.9654, 285.1724
512.4475, 252.9890
512.9296, 227.6688
513.4117, 206.6737
513.8939, 190.1270
514.3760, 176.4357
514.8581, 165.9297
515.3402, 157.6409
515.8223, 150.6543
516.3044, 144.9756
516.7866, 140.7336
517.2687, 138.0198
517.7508, 136.7301
518.2329, 136.8061
518.7150, 138.2247
519.1971, 140.7337
519.6793, 144.2109
520.1614, 148.7161
520.6435, 154.3109
521.1256, 160.6215
521.6077, 168.7551
522.0898, 179.1043
522.5720, 191.1682
523.0541, 204.1349
523.5362, 218.1693
524.0183, 234.4228
524.5004, 253.6122
524.9825, 275.6182
525.4647, 300.5183
525.9468, 329.2374
526.4289, 359.5362
526.9110, 393.0420
527.3931, 426.8208
527.8752, 460.5758
528.3574, 492.9240
528.8395, 519.4263
529.3216, 537.7035
529.8037, 547.0048
530.2858, 541.9520
530.7679, 520.0574
531.2501, 489.4681
531.7322, 448.5041
532.2143, 403.0239
532.6964, 357.2610
533.1785, 311.3927
533.6606, 268.8028
534.1428, 231.2569
534.6249, 198.5037
535.1070, 169.7173
535.5891, 144.8160
536.0712, 123.7899
536.5533, 107.3492
537.0355, 95.01630
537.5176, 83.39682
537.9997, 72.04123
538.4818, 61.82349
538.9639, 53.04895
539.4460, 45.47208
539.9282, 38.96841
540.4103, 33.42838
540.8924, 28.34830
541.3745, 23.17761
541.8566, 17.88632
542.3387, 13.54163
542.8209, 10.79391
543.3029, 8.311829
543.7850, 5.897980
544.2672, 3.588226
544.7493, 1.405762
545.2314, 0.6359250
545.7135, 2.413879
546.1956, 3.811066
546.6777, 4.826508
547.1599, 5.271576
547.6420, 4.818848
548.1241, 4.466248
548.6062, 4.974792
549.0883, 5.965271
549.5704, 6.910309
550.0526, 7.838043
550.5347, 8.456512
551.0168, 8.467865
551.4989, 8.059814
551.9810, 7.566193
552.4631, 7.051758
552.9453, 6.631714
553.4274, 6.456360
553.9095, 6.527252
554.3916, 6.358917
554.8737, 6.087494
555.3558, 5.459778
555.8380, 4.225586
556.3201, 2.677551
556.8022, 1.189636
557.2843, 0.1532290
557.7664, 1.503510
558.2485, 2.920135
558.7307, 4.362549
559.2128, 6.826569
559.6949, 11.08838
560.1770, 15.25534
560.6591, 18.15057
561.1412, 20.84674
561.6234, 24.66083
562.1055, 29.93768
562.5876, 36.09378
563.0697, 43.01831
563.5518, 50.43845
564.0339, 57.42737
564.5161, 63.88339
564.9982, 70.00876
565.4803, 75.79562
565.9624, 81.37201
566.4445, 87.29193
566.9266, 93.52826
567.4088, 100.1331
567.8909, 107.0019
568.3730, 114.3007
568.8551, 122.0709
569.3372, 130.3816
569.8193, 139.8555
570.3015, 150.9647
570.7836, 163.7271
571.2657, 177.6587
571.7478, 193.1819
572.2299, 209.4803
572.7120, 226.4022
573.1942, 244.0740
573.6763, 262.7237
574.1584, 282.3988
574.6405, 302.6283
575.1226, 323.4035
575.6047, 344.4616
576.0869, 364.7068
576.5690, 384.0406
577.0511, 402.9995
577.5332, 422.9483
578.0153, 441.6926
578.4974, 456.8503
578.9796, 469.1321
579.4617, 474.3976
579.9438, 471.5190
580.4259, 460.5589
580.9080, 439.8738
581.3901, 410.4442
581.8723, 376.6311
582.3544, 340.5185
582.8365, 303.2992
583.3186, 268.7666
583.8007, 235.8078
584.2828, 207.4695
584.7650, 184.0801
585.2471, 164.6429
585.7292, 149.1899
586.2113, 137.1180
586.6934, 127.1103
587.1755, 118.3574
587.6577, 111.1339
588.1398, 106.5117
588.6219, 104.8169
589.1040, 103.4467
589.5861, 101.6721
590.0682, 100.1537
590.5504, 99.58063
591.0325, 99.83337
591.5146, 100.1819
591.9967, 100.6827
592.4788, 100.9572
592.9609, 100.7611
593.4431, 100.0769
593.9252, 98.71201
594.4073, 96.55087
594.8894, 94.18851
595.3715, 92.42957
595.8536, 91.34338
596.3358, 90.57413
596.8179, 89.96457
597.3000, 89.79327
597.7821, 89.91006
598.2642, 90.61508
598.7463, 92.22247
599.2285, 94.85760
599.7106, 98.62863
600.1927, 103.4495
600.6748, 109.3729
601.1569, 117.4683
601.6390, 127.9255
602.1212, 140.1709
602.6033, 153.1134
603.0854, 167.8927
603.5675, 186.4807
604.0496, 209.8664
604.5317, 235.1431
605.0139, 261.4886
605.4960, 288.8008
605.9781, 316.6628
606.4602, 344.9632
606.9423, 374.1613
607.4244, 404.5734
607.9066, 435.9693
608.3887, 467.4890
608.8708, 495.8550
609.3529, 529.1895
609.8350, 568.8672
610.3171, 612.5050
610.7993, 657.4976
611.2814, 704.7457
611.7635, 757.3402
612.2456, 816.7739
612.7277, 883.5222
613.2098, 958.3214
613.6920, 1041.403
614.1741, 1135.651
614.6562, 1240.319
615.1383, 1359.110
615.6204, 1495.265
616.1025, 1648.308
616.5847, 1820.607
617.0668, 2015.878
617.5489, 2226.866
618.0310, 2458.384
618.5131, 2700.492
618.9952, 2943.189
619.4774, 3181.968
619.9595, 3395.548
620.4416, 3563.168
620.9237, 3687.591
621.4058, 3732.723
621.8879, 3681.556
622.3701, 3564.868
622.8522, 3369.283
623.3343, 3124.176
623.8164, 2848.972
624.2985, 2552.182
624.7806, 2254.896
625.2628, 1967.353
625.7448, 1694.654
626.2269, 1451.435
626.7090, 1237.694
627.1912, 1053.854
627.6733, 902.0217
628.1554, 777.2172
628.6375, 671.4567
629.1196, 585.0009
629.6017, 510.5551
630.0839, 449.4539
630.5660, 397.5613
631.0481, 353.0761
631.5302, 315.1013
632.0123, 282.5298
632.4944, 254.9901
632.9766, 231.3215
633.4587, 209.8567
633.9408, 190.5273
634.4229, 173.3735
634.9050, 159.1176
635.3871, 146.3365
635.8693, 134.4220
636.3514, 123.4276
636.8335, 113.5139
637.3156, 104.8741
637.7977, 96.80527
638.2798, 88.56784
638.7620, 80.70459
639.2441, 74.39194
639.7262, 69.74484
640.2083, 65.36246
640.6904, 60.28537
641.1725, 54.86621
641.6547, 50.24271
642.1368, 46.94931
642.6189, 43.73587
643.1010, 40.55167
643.5831, 37.49719
644.0652, 34.53189
644.5474, 31.74438
645.0295, 29.34152
645.5116, 27.48163
645.9937, 25.88025
646.4758, 23.90771
646.9579, 21.57361
647.4401, 20.21759
647.9222, 20.59238
648.4043, 20.80511
648.8864, 19.03412
649.3685, 15.93552
649.8506, 13.59079
650.3328, 12.11661
650.8149, 11.47754
651.2970, 12.32565
651.7791, 13.64868
652.2612, 14.19937
652.7433, 13.88947
653.2255, 13.38049
653.7076, 13.14237
654.1897, 13.12457
654.6718, 13.16980
655.1539, 13.38556
655.6360, 13.39670
656.1182, 13.13608
656.6003, 12.65146
657.0824, 11.88666
657.5645, 10.90073
658.0466, 9.867096
658.5287, 8.819733
659.0109, 7.784790
659.4930, 6.864380
659.9751, 5.975037
660.4572, 4.811554
660.9393, 3.303741
661.4214, 1.763672
661.9036, 0.4248660
662.3857, 0.7080690
662.8678, 1.566772
663.3499, 2.018494
663.8320, 2.356598
664.3141, 2.382813
664.7963, 2.471863
665.2784, 3.125580
665.7605, 4.163483
666.2426, 4.817902
666.7247, 4.502136
667.2068, 3.730408
667.6890, 3.387238
668.1711, 3.465790
668.6532, 3.846191
669.1353, 4.690369
669.6174, 5.363129
670.0995, 5.068878
670.5817, 3.941833
671.0638, 3.398743
671.5459, 3.871460
672.0280, 4.428864
672.5101, 5.005859
672.9922, 5.384857
673.4744, 5.359558
673.9565, 4.892700
674.4386, 3.975403
674.9207, 2.502777
675.4028, 0.7315670
675.8849, 0.4648440
676.3671, 0.9635310
676.8492, 1.431732
677.3313, 2.000275
677.8134, 2.574005
678.2955, 3.095032
678.7776, 3.562622
679.2598, 3.963593
679.7419, 4.201538
680.2240, 4.492615
680.7061, 5.112488
681.1882, 5.811249
681.6703, 6.220642
682.1525, 6.270569
682.6346, 6.031708
683.1167, 5.527130
683.5988, 4.822388
684.0809, 4.233612
684.5630, 3.799438
685.0452, 3.400696
685.5273, 2.897308
686.0094, 2.540161
686.4915, 2.565216
686.9736, 2.864044
687.4557, 3.117310
687.9379, 3.234833
688.4200, 3.211548
688.9021, 2.672211
689.3842, 2.043915
689.8663, 2.556458
690.3484, 4.403412
690.8306, 6.330414
691.3127, 7.381836
691.7948, 7.686462
692.2769, 7.883240
692.7590, 7.567444
693.2411, 7.818817
693.7233, 9.146881
694.2054, 10.59897
694.6875, 11.40820
695.1696, 11.87924
695.6517, 12.95020
696.1339, 15.22083
696.6160, 17.64072
697.0981, 18.83698
697.5802, 19.19360
698.0623, 20.06747
698.5444, 21.66019
699.0266, 23.70837
699.5087, 26.13916
699.9908, 28.81238
700.4729, 31.16800
700.9550, 33.14465
701.4371, 34.85513
701.9193, 36.61517
702.4014, 37.81396
702.8835, 37.79617
703.3656, 36.96494
703.8477, 36.08066
704.3298, 35.43127
704.8120, 35.21451
705.2941, 35.91656
705.7762, 37.32645
706.2583, 38.34857
706.7404, 38.81601
707.2225, 39.34558
707.7046, 40.26913
708.1867, 41.51990
708.6688, 42.97269
709.1509, 44.78168
709.6331, 46.38544
710.1152, 47.68057
710.5973, 48.83014
711.0794, 49.74542
711.5615, 50.62839
712.0436, 51.85278
712.5258, 53.55243
713.0079, 55.36627
713.4900, 56.84146
713.9721, 58.05637
714.4542, 59.63196
714.9363, 61.71759
715.4185, 63.22980
715.9006, 63.41336
716.3827, 63.00455
716.8648, 63.24677
717.3469, 64.22305
717.8290, 65.25424
718.3112, 66.12567
718.7933, 67.19666
719.2754, 68.93484
719.7575, 70.83475
720.2396, 72.05179
720.7217, 72.45544
721.2039, 72.78693
721.6860, 73.87869
722.1681, 75.46521
722.6502, 76.28769
723.1323, 76.19894
723.6144, 76.31891
724.0966, 77.23248
724.5787, 78.28702
725.0608, 78.70734
725.5429, 78.47897
726.0250, 77.91345
726.5071, 76.68381
726.9893, 75.46710
727.4714, 74.70001
727.9535, 74.05197
728.4356, 73.11188
728.9177, 71.81625
729.3998, 70.41620
729.8820, 69.16940
730.3641, 67.90054
730.8462, 65.93423
731.3283, 63.24017
731.8104, 61.70200
732.2925, 62.02106
732.7747, 62.89795
733.2568, 63.40872
733.7389, 63.54169
734.2210, 63.46710
734.7031, 62.62943
735.1852, 62.41373
735.6674, 63.35611
736.1495, 64.81201
736.6316, 65.93533
737.1137, 67.10449
737.5958, 69.50446
738.0779, 73.78778
738.5601, 79.14819
739.0422, 84.23944
739.5243, 89.19916
740.0064, 95.45108
740.4885, 103.0506
740.9706, 112.1376
741.4528, 123.0448
741.9349, 135.2563
742.4170, 147.8033
742.8991, 160.7808
743.3812, 173.7686
743.8633, 186.4901
744.3455, 199.4958
744.8276, 212.4132
745.3097, 226.0496
745.7918, 241.3239
746.2739, 258.5497
746.7560, 278.2904
747.2382, 301.0664
747.7203, 326.7057
748.2024, 354.0190
748.6845, 382.9789
749.1666, 416.0383
749.6487, 453.6438
750.1309, 496.4600
750.6130, 545.4494
751.0951, 600.4492
751.5772, 663.5825
752.0593, 734.8742
752.5414, 813.3591
753.0236, 902.0476
753.5057, 995.8260
753.9878, 1095.917
754.4699, 1197.534
754.9520, 1289.938
755.4341, 1372.300
755.9163, 1431.943
756.3984, 1452.573
756.8805, 1435.315
757.3626, 1380.357
757.8447, 1286.423
758.3268, 1172.747
758.8090, 1048.056
759.2911, 918.3018
759.7732, 802.5640
760.2553, 701.4666
760.7374, 613.4324
761.2195, 539.2000
761.7017, 476.5805
762.1838, 426.6032
762.6659, 386.8842
763.1480, 354.2361
763.6301, 327.9908
764.1122, 306.9969
764.5944, 292.3860
765.0765, 281.4522
765.5586, 269.9199
766.0407, 257.8906
766.5228, 247.4969
767.0049, 239.5435
767.4871, 233.1161
767.9692, 227.2756
768.4513, 222.0302
768.9334, 215.8263
769.4155, 208.1212
769.8976, 200.2640
770.3798, 192.9137
770.8619, 185.2211
771.3440, 176.2262
771.8261, 166.2213
772.3082, 156.8098
772.7903, 149.0726
773.2725, 141.3970
773.7546, 132.1710
774.2367, 122.5435
774.7188, 114.5922
775.2009, 108.3348
775.6830, 101.9688
776.1652, 94.20667
776.6473, 85.87741
777.1294, 78.94769
777.6115, 73.51682
778.0936, 68.80661
778.5757, 65.14883
779.0579, 61.49667
779.5400, 56.93182
780.0221, 52.18814
780.5042, 48.71417
780.9863, 46.87131
781.4684, 44.53735
781.9506, 40.67743
782.4327, 36.69550
782.9148, 33.16507
783.3969, 30.23654
783.8790, 28.25720
784.3611, 27.20822
784.8433, 26.35095
785.3254, 25.02121
785.8075, 23.35355
786.2896, 21.73334
786.7717, 20.16574
787.2538, 18.63943
787.7360, 17.08911
788.2181, 15.79303
788.7002, 15.14124
789.1823, 15.02029
789.6644, 14.48965
790.1465, 13.32120
790.6286, 12.08755
791.1107, 10.57501
791.5928, 9.245697
792.0750, 8.630219
792.5571, 8.382507
793.0392, 7.656250
793.5213, 6.087372
794.0034, 4.575775
794.4855, 4.069580
794.9677, 4.091583
795.4498, 3.734650
795.9319, 3.005066
796.4140, 2.393127
796.8961, 2.112457
797.3782, 1.860657
797.8604, 1.134003
798.3425, 0.1241150
798.8246, 0.5585630
799.3067, 0.3872990
799.7888, 1.140472
800.2709, 1.380280
800.7531, 1.227509
801.2352, 0.5286870
801.7173, 0.5586240
802.1994, 1.307709
802.6815, 1.344513
803.1636, 1.274445
803.6458, 1.357788
804.1279, 1.532288
804.6100, 1.822174
805.0921, 2.138519
805.5742, 2.203827
806.0563, 1.852539
806.5385, 1.341370
807.0206, 1.128387
807.5027, 1.177399
807.9848, 0.9195860
808.4669, 0.2223820
808.9490, 0.1938480
809.4312, 0.1134950
809.9133, 0.6903690
810.3954, 0.7830510
810.8775, 0.2376400
811.3596, 0.2593990
811.8417, 1.569824
812.3239, 2.518951
812.8060, 2.434540
813.2881, 1.948456
813.7702, 1.602936
814.2523, 1.443359
814.7344, 1.282684
815.2166, 1.011414
815.6987, 0.7370610
816.1808, 0.6680910
816.6629, 0.6575010
817.1450, 0.2599790
817.6271, 0.5075990
818.1093, 1.048553
818.5914, 1.004517
819.0735, 0.6333010
819.5556, 0.4273990
820.0377, 0.4111330
820.5198, 0.3837890
821.0020, 0.3151860
821.4841, 0.2780760
821.9662, 0.2040710
822.4483, 0.2442020
822.9304, 0.6396480
823.4125, 1.375763
823.8947, 1.988159
824.3768, 2.333740
824.8589, 2.603821
825.3410, 2.823578
825.8231, 3.055084
826.3052, 3.493988
826.7874, 4.032013
827.2695, 4.221039
827.7516, 3.759430
828.2337, 3.087067
828.7158, 2.735626
829.1979, 2.701111
829.6801, 3.087097
830.1622, 3.903320
830.6443, 4.584167
831.1264, 4.864288
831.6085, 4.787415
832.0906, 4.312744
832.5728, 3.271393
833.0549, 3.089813
833.5370, 4.616180
834.0191, 5.779968
834.5012, 5.753876
834.9833, 5.493896
835.4655, 5.792236
835.9476, 6.591187
836.4297, 7.320068
836.9118, 7.302124
837.3939, 7.988403
837.8760, 11.29767
838.3582, 14.99442
838.8403, 16.21643
839.3224, 15.32452
839.8045, 14.31604
840.2866, 14.13068
840.7687, 14.50479
841.2509, 15.18713
841.7330, 16.13766
842.2151, 17.09570
842.6972, 18.04156
843.1793, 19.20947
843.6614, 20.73831
844.1436, 22.32498
844.6257, 23.53973
845.1078, 24.40112
845.5899, 25.75873
846.0720, 28.05682
846.5541, 30.19104
847.0363, 32.02972
847.5184, 33.71558
848.0005, 35.21216
848.4826, 36.65356
848.9647, 38.27155
849.4468, 40.07162
849.9290, 42.29019
850.4111, 45.39951
850.8932, 48.72748
851.3753, 51.66632
851.8574, 54.26379
852.3395, 56.63174
852.8217, 58.84348
853.3038, 61.25385
853.7859, 64.26459
854.2680, 67.65912
854.7501, 70.67328
855.2322, 73.31409
855.7144, 76.07806
856.1965, 79.05325
856.6786, 82.12668
857.1607, 85.17792
857.6428, 88.30481
858.1249, 91.88562
858.6071, 95.95370
859.0892, 100.3745
859.5713, 105.3311
860.0534, 110.3853
860.5355, 115.7026
861.0176, 120.9015
861.4998, 125.5862
861.9819, 129.7088
862.4640, 133.3148
862.9461, 136.5068
863.4282, 139.1588
863.9103, 141.2527
864.3925, 142.7097
864.8746, 143.1302
865.3567, 142.7174
865.8388, 142.3657
866.3209, 142.6185
866.8030, 143.2215
867.2852, 143.8212
867.7673, 144.4106
868.2494, 144.9574
868.7315, 145.4814
869.2136, 146.4926
869.6957, 148.1765
870.1779, 150.0716
870.6600, 151.4131
871.1421, 152.2021
871.6242, 154.9650
872.1063, 161.0458
872.5884, 166.7708
873.0705, 170.7182
873.5526, 174.9289
874.0347, 180.5588
874.5168, 187.3096
874.9990, 194.5981
875.4811, 202.2894
875.9632, 210.5366
876.4453, 219.3152
876.9274, 228.7037
877.4095, 239.2316
877.8917, 250.2291
878.3738, 260.5676
878.8559, 270.0253
879.3380, 279.4149
879.8201, 289.6268
880.3022, 299.8204
880.7844, 308.3903
881.2665, 315.7687
881.7486, 323.8203
882.2307, 332.7416
882.7128, 340.5455
883.1949, 345.9711
883.6771, 349.3844
884.1592, 351.4761
884.6413, 352.2381
885.1234, 351.8609
885.6055, 350.6893
886.0876, 347.4498
886.5698, 341.2000
887.0519, 333.1974
887.5340, 324.6368
888.0161, 315.5142
888.4982, 305.4579
888.9803, 294.3738
889.4625, 282.4959
889.9446, 269.4150
890.4267, 255.9155
890.9088, 242.2421
891.3909, 228.6689
891.8730, 215.7184
892.3552, 203.4520
892.8373, 191.6068
893.3194, 179.9698
893.8015, 168.6740
894.2836, 158.0958
894.7657, 147.9446
895.2479, 137.4554
895.7300, 126.6975
896.2121, 116.8895
896.6942, 109.0844
897.1763, 102.5025
897.6584, 95.51358
898.1406, 88.25739
898.6227, 82.03619
899.1048, 77.05707
899.5869, 72.11673
900.0690, 66.54593
900.5511, 60.93060
901.0333, 56.11765
901.5154, 52.12628
901.9975, 48.52325
902.4796, 45.50629
902.9617, 42.47610
903.4438, 39.00330
903.9260, 35.80655
904.4081, 33.66043
904.8902, 32.14297
905.3723, 30.22260
905.8544, 27.78760
906.3365, 25.20129
906.8187, 22.05667
907.3008, 19.33667
907.7829, 18.05740
908.2650, 17.31879
908.7471, 15.88235
909.2292, 13.64737
909.7114, 11.46304
910.1935, 9.660767
910.6756, 8.403595
911.1577, 8.249329
911.6398, 8.588196
912.1219, 8.290924
912.6041, 7.323608
913.0862, 6.171051
913.5683, 5.063324
914.0504, 4.034637
914.5325, 3.088348
915.0146, 2.259064
915.4968, 1.767181
915.9789, 1.628113
916.4610, 1.381470
916.9431, 0.8782040
917.4252, 0.3865970
917.9073, 0.1266780
918.3895, 4.7424000E-02
918.8716, 3.9978001E-02
919.3537, 0.1510010
919.8358, 0.2480770
920.3179, 0.4192200
920.8000, 0.4561770
921.2822, 0.1576230
921.7643, 0.2343140
922.2464, 0.5133360
922.7285, 0.6658330
923.2106, 0.5754090
923.6927, 6.0608000E-02
924.1749, 0.4786070
924.6570, 0.7959900
925.1391, 1.215363
925.6212, 2.283356
926.1033, 3.574158
926.5854, 4.173981
927.0676, 3.804352
927.5497, 3.107880
928.0318, 2.337646
928.5139, 1.591217
928.9960, 0.8293460
929.4781, 0.2070920
929.9603, 0.1795040
930.4424, 0.6762390
930.9245, 0.9698180
931.4066, 0.5864260
931.8887, 0.1669010
932.3708, 0.8946840
932.8530, 1.576691
933.3351, 2.095337
933.8172, 2.453796
934.2993, 2.822266
934.7814, 3.252808
935.2635, 3.774292
935.7457, 4.390289
936.2278, 5.139587
936.7099, 6.351929
937.1920, 8.231415
937.6741, 9.628174
938.1563, 10.17459
938.6384, 10.77908
939.1205, 12.09930
939.6026, 13.66074
940.0847, 14.55234
940.5668, 14.59311
941.0490, 15.03326
941.5311, 16.15225
942.0132, 17.27670
942.4953, 18.48154
942.9774, 19.47293
943.4595, 19.86337
943.9417, 19.89417
944.4238, 20.20782
944.9059, 21.01309
945.3880, 21.78073
945.8701, 22.67023
946.3522, 23.10004
946.8344, 22.34830
947.3165, 21.08340
947.7986, 20.30280
948.2807, 20.02478
948.7628, 19.40005
949.2449, 17.80325
949.7271, 16.15253
950.2092, 15.38217
950.6913, 15.08319
951.1734, 14.66519
951.6555, 14.11545
952.1376, 13.68045
952.6198, 13.40759
953.1019, 12.83984
953.5840, 11.40170
954.0661, 9.522034
954.5482, 8.230988
955.0303, 7.464203
955.5124, 6.897858
955.9945, 6.478607
956.4766, 5.736572
956.9587, 4.327209
957.4409, 2.957703
957.9230, 2.895386
958.4051, 4.104462
958.8872, 4.609924
959.3693, 4.321045
959.8514, 3.686310
960.3336, 2.710205
960.8157, 1.585907
961.2978, 0.2543330
961.7799, 0.9803470
962.2620, 1.173798
962.7441, 0.2259830
963.2263, 0.9606020
963.7084, 0.6414790
964.1905, 0.1773680
964.6726, 0.6266170
965.1547, 1.117371
965.6368, 0.4227600
966.1190, 1.142548
966.6011, 2.083588
967.0832, 1.804657
967.5653, 1.740479
968.0474, 2.431519
968.5295, 3.161865
969.0117, 3.271576
969.4938, 3.313019
969.9759, 4.252167
970.4580, 6.037842
970.9401, 7.380798
971.4222, 7.482178
971.9044, 7.372894
972.3865, 7.410614
972.8686, 7.790527
973.3507, 9.081696
973.8328, 10.81387
974.3149, 11.74005
974.7971, 11.57910
975.2792, 11.66373
975.7613, 13.41748
976.2434, 15.60638
976.7255, 16.44620
977.2076, 16.48584
977.6898, 16.81485
978.1719, 17.57825
978.6540, 18.69693
979.1361, 20.15314
979.6182, 21.59985
980.1003, 22.55905
980.5825, 23.15533
981.0646, 23.88657
981.5467, 24.66345
982.0288, 24.81879
982.5109, 24.23856
982.9930, 23.66522
983.4752, 23.55664
983.9573, 23.64081
984.4394, 23.40421
984.9215, 22.90256
985.4036, 23.08948
985.8857, 24.16049
986.3679, 24.70993
986.8500, 24.20389
987.3321, 23.63480
987.8142, 23.82425
988.2963, 24.45773
988.7784, 24.62875
989.2606, 24.15924
989.7427, 24.07260
990.2248, 24.45389
990.7069, 24.99014
991.1890, 25.75739
991.6711, 26.43817
992.1533, 26.68738
992.6354, 26.57416
993.1175, 26.49258
993.5996, 26.20483
994.0817, 26.37808
994.5638, 27.42892
995.0460, 28.45761
995.5281, 29.23984
996.0102, 29.74338
996.4923, 29.78778
996.9744, 29.46631
997.4565, 29.40704
997.9387, 29.53714
998.4208, 30.25479
998.9029, 32.18970
999.3850, 34.18573
999.8671, 35.73080
1000.349, 36.75064
1000.831, 36.97034
1001.313, 36.49454
1001.796, 36.32635
1002.278, 36.84698
1002.760, 37.81839
1003.242, 39.32574
1003.724, 41.03372
1004.206, 42.33890
1004.688, 43.70773
1005.170, 46.33932
1005.653, 50.37601
1006.135, 54.20865
1006.617, 56.63412
1007.099, 58.71762
1007.581, 61.60205
1008.063, 64.67432
1008.545, 66.94913
1009.027, 68.60300
1009.509, 70.43539
1009.992, 72.70447
1010.474, 74.96436
1010.956, 76.57791
1011.438, 78.20773
1011.920, 81.09772
1012.402, 84.71356
1012.884, 87.80304
1013.366, 90.31226
1013.849, 92.73984
1014.331, 95.32684
1014.813, 98.27023
1015.295, 101.9140
1015.777, 105.9863
1016.259, 109.8301
1016.741, 113.4916
1017.223, 117.1068
1017.705, 120.6909
1018.188, 124.4208
1018.670, 128.4164
1019.152, 131.9967
1019.634, 134.0260
1020.116, 134.8743
1020.598, 136.5992
1021.080, 139.0663
1021.562, 140.0164
1022.044, 139.0105
1022.527, 137.2726
1023.009, 135.4378
1023.491, 133.6941
1023.973, 132.4192
1024.455, 131.4880
1024.937, 128.8759
1025.419, 124.3828
1025.901, 120.0073
1026.384, 116.1192
1026.866, 112.3461
1027.348, 108.5556
1027.830, 104.4889
1028.312, 99.58261
1028.794, 93.73920
1029.276, 88.75031
1029.758, 84.95135
1030.240, 80.75314
1030.723, 75.75882
1031.205, 70.49380
1031.687, 65.18329
1032.169, 59.93018
1032.651, 54.84818
1033.133, 49.85330
1033.615, 45.80322
1034.097, 42.91626
1034.579, 40.55914
1035.062, 39.31223
1035.544, 37.46500
1036.026, 33.37729
1036.508, 28.24686
1036.990, 24.60834
1037.472, 22.67661
1037.954, 21.06149
1038.436, 20.21173
1038.919, 18.95773
1039.401, 16.68488
1039.883, 14.41812
1040.365, 12.80923
1040.847, 11.67117
1041.329, 10.65463
1041.811, 9.788177
1042.293, 8.876404
1042.776, 8.028229
1043.258, 6.977356
1043.740, 5.219299
1044.222, 3.694672
1044.704, 3.186859
1045.186, 3.288513
1045.668, 3.171814
1046.150, 2.719238
1046.632, 2.535370
1047.115, 3.052307
1047.597, 3.332520
1048.079, 2.994629
1048.561, 2.531494
1049.043, 2.247498
1049.525, 2.008911
1050.007, 1.478790
1050.489, 0.6125180
1050.971, 9.1797002E-02
1051.454, 0.1020810
1051.936, 0.3336180
1052.418, 1.040466
1052.900, 1.621033
1053.382, 1.288330
1053.864, 0.5777590
1054.346, 0.5971070
1054.828, 1.519409
1055.311, 2.416138
1055.793, 3.090942
1056.275, 3.554260
1056.757, 3.920685
1057.239, 4.121552
1057.721, 3.861023
1058.203, 3.408707
1058.685, 3.317993
1059.167, 3.677948
1059.650, 3.938263
1060.132, 3.713959
1060.614, 3.570892
1061.096, 3.698013
1061.578, 3.991592
1062.060, 4.709595
1062.542, 5.411194
1063.024, 5.182068
1063.506, 3.973572
1063.989, 3.208557
1064.471, 4.003235
1064.953, 4.506912
1065.435, 3.344345
1065.917, 2.236923
1066.399, 2.993713
1066.881, 4.484711
1067.363, 4.581314
1067.846, 3.154938
1068.328, 2.126907
1068.810, 2.429230
1069.292, 2.878754
1069.774, 2.940552
1070.256, 2.962296
1070.738, 3.466324
1071.220, 3.961121
1071.703, 3.387314
1072.185, 1.899887
1072.667, 1.315994
1073.149, 2.855927
1073.631, 4.291199
1074.113, 4.518738
1074.595, 4.332458
1075.077, 4.130188
1075.559, 3.980896
1076.042, 3.866684
1076.524, 3.829483
1077.006, 4.084076
1077.488, 4.886551
1077.970, 5.398621
1078.452, 4.769791
1078.934, 4.221756
1079.416, 4.846588
1079.898, 5.839645
1080.380, 6.027817
1080.863, 5.627579
1081.345, 5.908997
1081.827, 7.486877
1082.309, 8.597397
1082.791, 8.086975
1083.273, 7.297791
1083.755, 6.982559
1084.237, 6.863739
1084.720, 6.464996
1085.202, 5.989578
1085.684, 6.222870
1086.166, 7.491165
1086.648, 8.191971
1087.130, 6.999466
1087.612, 5.884872
1088.094, 5.894806
1088.577, 6.418625
1089.059, 7.389709
1089.541, 8.253891
1090.023, 7.719421
1090.505, 5.516174
1090.987, 4.009811
1091.469, 4.749969
1091.951, 5.456223
1092.433, 4.959473
1092.916, 4.259003
1093.398, 4.329849
1093.880, 4.670532
1094.362, 4.212463
1094.844, 2.892334
1095.326, 1.976654
1095.808, 1.917679
1096.290, 2.240372
1096.772, 3.355453
1097.255, 4.197205
1097.737, 3.703568
1098.219, 2.758377
1098.701, 2.710495
1099.183, 3.504654
1099.665, 3.824066
1100.147, 3.067932
1100.629, 2.441818
1101.112, 2.304871
1101.594, 2.292267
1102.076, 2.319214
1102.558, 2.320694
1103.040, 2.190125
1103.522, 1.973785
1104.004, 1.914627
1104.486, 2.247269
1104.969, 2.090347
1105.451, 0.6124270
1105.933, 0.4935760
1106.415, 0.1774750
1106.897, 0.3125920
1107.379, 0.4614870
1107.861, 1.762314
1108.343, 1.454803
1108.825, 1.119568
1109.307, 2.367188
1109.790, 0.8334350
1110.272, 0.4310610
1110.754, 0.5362700
1111.236, 0.4977420
1111.718, 1.164810
1112.200, 1.975754
1112.682, 1.787079
1113.164, 0.5033720
1113.647, 6.7061998E-02
1114.129, 1.426575
1114.611, 2.031921
1115.093, 0.9747470
1115.575, 0.1557460
1116.057, 0.6274870
1116.539, 1.510101
1117.021, 1.834442
1117.504, 1.651550
1117.986, 1.315994
1118.468, 0.6248320
1118.950, 0.2829900
1119.432, 0.4579320
1119.914, 0.6814120
1120.396, 0.9261780
1120.878, 0.9581910
1121.360, 0.4308320
1121.843, 0.3532710
1122.325, 0.3877720
1122.807, 0.6169130
1123.289, 0.4867860
1123.771, 1.229828
1124.253, 2.557053
1124.735, 3.072952
1125.217, 3.115982
1125.699, 2.832764
1126.182, 2.345642
1126.664, 1.843491
1127.146, 1.332367
1127.628, 0.9436650
1128.110, 0.6970370
1128.592, 0.3166050
1129.074, 0.3120270
1129.556, 0.3819580
1130.039, 0.5503690
1130.521, 1.728012
1131.003, 2.271378
1131.485, 2.386765
1131.967, 2.917725
1132.449, 3.807602
1132.931, 3.928696
1133.413, 3.240952
1133.896, 2.712906
1134.378, 2.641724
1134.860, 2.591446
1135.342, 2.192245
1135.824, 1.781174
1136.306, 2.141678
1136.788, 2.994217
1137.270, 3.225708
1137.752, 2.926544
1138.234, 2.486649
1138.717, 2.049362
1139.199, 2.084885
1139.681, 2.837021
1140.163, 3.520309
1140.645, 3.126755
1141.127, 2.202927
1141.609, 1.647827
1142.091, 1.386414
1142.574, 1.298477
1143.056, 1.345627
1143.538, 1.567902
1144.020, 1.923477
1144.502, 1.978668
1144.984, 1.256149
1145.466, 0.5189060
1145.948, 0.6662750
1146.431, 1.177490
1146.913, 1.502487
1147.395, 1.636551
1147.877, 1.468033
1148.359, 1.165665
1148.841, 1.500565
1149.323, 2.962128
1149.805, 4.067688
1150.287, 3.442444
1150.770, 2.626862
1151.252, 2.909546
1151.734, 3.450089
1152.216, 3.197006
1152.698, 2.443298
1153.180, 2.068573
1153.662, 2.259949
1154.144, 2.487854
1154.626, 2.549026
1155.109, 2.658829
1155.591, 3.114319
1156.073, 3.394531
1156.555, 3.031998
1157.037, 2.401428
1157.519, 1.834274
1158.001, 1.424454
1158.483, 1.602356
1158.966, 2.993423
1159.448, 3.722046
1159.930, 3.167297
1160.412, 2.628677
1160.894, 2.424103
1161.376, 2.379379
1161.858, 2.458221
1162.340, 2.558258
1162.822, 2.428833
1163.305, 2.033203
1163.787, 1.703506
1164.269, 1.499939
1164.751, 1.392776
1165.233, 1.346924
1165.715, 1.241043
1166.197, 1.104080
1166.679, 1.189865
1167.161, 1.658249
1167.644, 2.359482
1168.126, 2.649002
1168.608, 2.540894
1169.090, 2.516037
1169.572, 2.547409
1170.054, 2.792206
1170.536, 3.366272
1171.018, 3.844803
1171.500, 3.817474
1171.983, 3.457260
1172.465, 3.193497
1172.947, 3.153122
1173.429, 3.484680
1173.911, 4.009003
1174.393, 4.279175
1174.875, 4.342056
1175.357, 4.669540
1175.840, 5.401382
1176.322, 5.931000
1176.804, 5.534393
1177.286, 5.053421
1177.768, 5.694397
1178.250, 6.848221
1178.732, 7.709579
1179.214, 8.401840
1179.697, 9.236267
1180.179, 10.20006
1180.661, 11.14482
1181.143, 12.15662
1181.625, 12.81133
1182.107, 12.64758
1182.589, 12.09970
1183.071, 11.31631
1183.553, 10.40137
1184.036, 9.334000
1184.518, 8.252838
1185.000, 7.348633
1185.482, 6.656052
1185.964, 6.212326
1186.446, 6.367172
1186.928, 6.166748
1187.410, 4.927582
1187.892, 4.095200
1188.375, 4.769363
1188.857, 5.577606
1189.339, 5.125229
1189.821, 3.852386
1190.303, 2.966293
1190.785, 2.420837
1191.267, 2.598846
1191.749, 3.961075
1192.232, 4.717560
1192.714, 4.436783
1193.196, 3.901260
1193.678, 3.386108
1194.160, 3.145798
1194.642, 3.530640
1195.124, 4.400330
1195.606, 5.360840
1196.089, 6.382919
1196.571, 6.482773
1197.053, 5.676559
1197.535, 5.300949
1198.017, 5.659943
1198.499, 5.904816
1198.981, 5.506882
1199.463, 4.790878
1199.945, 4.020157
1200.427, 3.368118
1200.910, 3.373856
1201.392, 3.685028
1201.874, 3.432373
1202.356, 2.748169
1202.838, 2.303696
1203.320, 2.254562
1203.802, 2.296402
1204.284, 2.262253
1204.767, 2.207443
1205.249, 2.002533
1205.731, 1.979095
1206.213, 2.667816
1206.695, 3.519058
1207.177, 3.717606
1207.659, 3.508774
1208.141, 3.727753
1208.624, 4.552414
1209.106, 5.530502
1209.588, 6.844910
1210.070, 7.847595
1210.552, 8.322144
1211.034, 8.570404
1211.516, 8.440002
1211.998, 8.407028
1212.480, 9.104050
1212.963, 10.28938
1213.445, 11.01312
1213.927, 11.21092
1214.409, 11.04070
1214.891, 10.39464
1215.373, 9.667252
1215.855, 8.851822
1216.337, 8.462997
1216.819, 8.892822
1217.302, 9.203979
1217.784, 8.090561
1218.266, 6.210449
1218.748, 5.784790
1219.230, 6.463989
1219.712, 6.486496
1220.194, 5.851730
1220.676, 4.990784
1221.159, 4.080261
1221.641, 3.459595
1222.123, 3.311279
1222.605, 3.429352
1223.087, 4.015259
1223.569, 4.340790
1224.051, 3.152573
1224.533, 1.509888
1225.016, 0.6958620
1225.498, 0.5998380
1225.980, 0.8923030
1226.462, 1.406387
1226.944, 1.766479
1227.426, 1.807526
1227.908, 1.785278
1228.390, 1.550751
1228.872, 1.553680
1229.354, 2.351685
1229.837, 3.117935
1230.319, 2.887466
1230.801, 2.332901
1231.283, 2.765137
1231.765, 4.148392
1232.247, 5.093948
1232.729, 5.446640
1233.211, 5.799576
1233.694, 6.079315
1234.176, 6.757172
1234.658, 8.039841
1235.140, 9.495636
1235.622, 10.84494
1236.104, 12.07294
1236.586, 13.11191
1237.068, 14.02673
1237.551, 15.14490
1238.033, 16.40292
1238.515, 17.28423
1238.997, 18.00313
1239.479, 20.09746
1239.961, 23.75053
1240.443, 26.87012
1240.925, 28.05435
1241.407, 28.68422
1241.890, 29.79178
1242.372, 31.30055
1242.854, 33.51202
1243.336, 35.80220
1243.818, 37.42105
1244.300, 38.50888
1244.782, 39.53076
1245.264, 40.55565
1245.746, 41.26868
1246.229, 41.84351
1246.711, 41.62451
1247.193, 39.78775
1247.675, 38.10616
1248.157, 37.35272
1248.639, 36.74921
1249.121, 35.88623
1249.603, 34.68462
1250.085, 32.95682
1250.568, 30.73056
1251.050, 28.35236
1251.532, 25.75916
1252.014, 23.78682
1252.496, 22.51633
1252.978, 21.14299
1253.460, 19.42482
1253.942, 17.50659
1254.425, 15.46861
1254.907, 13.60156
1255.389, 12.40346
1255.871, 11.62222
1256.353, 10.92842
1256.835, 10.16185
1257.317, 8.883163
1257.799, 7.342636
1258.281, 6.159424
1258.764, 5.457977
1259.246, 5.014847
1259.728, 4.813324
1260.210, 4.574493
1260.692, 3.882751
1261.174, 3.501923
1261.656, 4.307724
1262.138, 5.039688
1262.620, 4.690353
1263.103, 3.642899
1263.585, 2.284714
1264.067, 0.7642970
1264.549, 0.4432680
1265.031, 1.944839
1265.513, 2.407120
1265.995, 1.487671
1266.477, 1.084610
1266.960, 1.731186
1267.442, 2.075165
1267.924, 1.313339
1268.406, 0.3887020
1268.888, 0.5114440
1269.370, 1.113815
1269.852, 0.8074950
1270.334, 3.6850002E-02
1270.817, 0.6728210
1271.299, 0.9683990
1271.781, 0.5502320
1272.263, 0.4063570
1272.745, 1.013367
1273.227, 0.9309080
1273.709, 1.035461
1274.191, 2.108231
1274.673, 3.120865
1275.156, 3.542206
1275.638, 3.834991
1276.120, 4.193832
1276.602, 4.605240
1277.084, 4.881729
1277.566, 5.190720
1278.048, 4.981781
1278.530, 4.344437
1279.012, 4.369263
1279.495, 3.942322
1279.977, 3.650665
1280.459, 3.464081
1280.941, 3.111404
1281.423, 2.468979
1281.905, 2.053177
1282.387, 2.190262
1282.869, 2.358887
1283.352, 1.698853
1283.834, 0.6420900
1284.316, 4.2571999E-02
1284.798, 0.0000000E+00
##END=



