##NAMES=Amicite
##RRUFFID=R080066
##IDEAL CHEMISTRY=K_2_Na_2_(Si_4_Al_4_O_16_)&#183;5H_2_O
##LOCALITY=Kirovski Drive, Khibiny, Kola Peninsula, Russia
##OWNER=RRUFF
##SOURCE=Michael Scott
##DESCRIPTION=Colorless pseudo-octahedral crystals
##STATUS=The identification of this mineral has been confirmed by single-crystal X-ray diffraction.
##URL=rruff.info/R080066
124.8252, 0.0000000E+00
125.3074, 6.645508
125.7895, 12.38846
126.2716, 17.07315
126.7537, 19.84332
127.2358, 22.89258
127.7179, 24.65933
128.2001, 26.27942
128.6822, 31.55829
129.1643, 31.06796
129.6464, 23.94586
130.1285, 16.81754
130.6107, 11.21555
131.0928, 6.266602
131.5749, 1.925568
132.0570, 1.564850
132.5391, 3.544952
133.0212, 3.310181
133.5034, 0.5150450
133.9855, 2.430023
134.4676, 4.890503
134.9497, 7.949585
135.4318, 12.41199
135.9139, 18.25897
136.3960, 24.73337
136.8782, 31.06958
137.3603, 37.28641
137.8424, 43.08441
138.3245, 48.40393
138.8066, 53.29544
139.2887, 57.80484
139.7709, 61.94888
140.2530, 65.60565
140.7351, 68.29465
141.2172, 70.10123
141.6993, 72.18289
142.1814, 75.33801
142.6636, 79.22665
143.1457, 82.60159
143.6278, 85.00107
144.1099, 86.95633
144.5920, 88.75885
145.0741, 90.43765
145.5563, 92.51736
146.0384, 95.45416
146.5205, 99.27789
147.0026, 103.6526
147.4847, 108.8361
147.9668, 114.3907
148.4490, 120.1805
148.9311, 126.1400
149.4132, 132.2370
149.8953, 138.3986
150.3774, 144.6323
150.8595, 150.9934
151.3417, 157.2354
151.8238, 163.6791
152.3059, 170.6060
152.7880, 178.0754
153.2701, 186.0044
153.7522, 194.0905
154.2344, 202.1493
154.7165, 210.5921
155.1986, 220.2982
155.6807, 230.1815
156.1628, 238.8774
156.6449, 245.6513
157.1271, 250.8280
157.6092, 255.6106
158.0913, 260.4301
158.5734, 264.5414
159.0555, 268.0248
159.5376, 270.6744
160.0198, 271.9918
160.5019, 271.7729
160.9840, 269.7722
161.4661, 266.0251
161.9482, 260.1194
162.4303, 253.0397
162.9125, 245.1717
163.3946, 236.5427
163.8767, 227.7223
164.3588, 218.9531
164.8409, 210.2853
165.3230, 201.6872
165.8052, 193.0665
166.2873, 184.6363
166.7694, 176.5888
167.2515, 168.6105
167.7336, 162.0508
168.2157, 158.3114
168.6979, 156.0478
169.1800, 153.6986
169.6621, 150.3772
170.1442, 146.7155
170.6263, 144.5606
171.1084, 144.7625
171.5906, 145.2484
172.0727, 145.2780
172.5548, 145.1246
173.0369, 145.1650
173.5190, 145.6165
174.0011, 146.4619
174.4833, 147.5684
174.9654, 149.3877
175.4475, 151.0280
175.9296, 152.0924
176.4117, 152.8398
176.8938, 153.8105
177.3760, 155.4761
177.8581, 157.8739
178.3402, 159.4675
178.8223, 159.1776
179.3044, 159.2662
179.7865, 160.6599
180.2687, 163.1661
180.7508, 166.0444
181.2329, 168.6840
181.7150, 171.0560
182.1971, 173.4834
182.6792, 175.8215
183.1614, 178.5096
183.6435, 182.1564
184.1256, 186.7076
184.6077, 191.4370
185.0898, 195.5792
185.5719, 199.1250
186.0541, 203.5661
186.5362, 209.8932
187.0183, 216.4548
187.5004, 221.4730
187.9825, 224.6998
188.4646, 227.7769
188.9468, 232.7155
189.4289, 238.9391
189.9110, 244.0538
190.3931, 247.5934
190.8752, 249.9167
191.3573, 251.3563
191.8395, 251.5683
192.3216, 251.1573
192.8037, 250.9510
193.2858, 250.6691
193.7679, 249.3462
194.2500, 246.2119
194.7322, 241.6733
195.2143, 237.0545
195.6964, 232.7816
196.1785, 227.7118
196.6606, 221.1064
197.1427, 213.3602
197.6249, 205.3858
198.1070, 197.6088
198.5891, 190.0455
199.0712, 182.9016
199.5533, 176.5529
200.0354, 170.2286
200.5176, 163.4977
200.9997, 156.5810
201.4818, 150.0090
201.9639, 144.2972
202.4460, 139.4638
202.9281, 134.5799
203.4103, 129.4353
203.8924, 124.4744
204.3745, 119.9591
204.8566, 115.7621
205.3387, 111.6329
205.8208, 107.2746
206.3030, 102.5612
206.7851, 98.67444
207.2672, 96.53036
207.7493, 94.25975
208.2314, 91.12463
208.7135, 87.19568
209.1957, 82.90146
209.6778, 78.52399
210.1599, 73.94577
210.6420, 70.48532
211.1241, 68.94136
211.6062, 67.59404
212.0884, 65.55127
212.5705, 62.83168
213.0526, 59.92943
213.5347, 57.20221
214.0168, 54.66428
214.4989, 52.62268
214.9811, 51.35109
215.4632, 50.30525
215.9453, 49.06204
216.4274, 47.62093
216.9095, 46.38603
217.3916, 45.77324
217.8737, 45.80228
218.3559, 45.66045
218.8380, 45.05693
219.3201, 44.45023
219.8022, 44.28232
220.2843, 44.58647
220.7664, 44.98981
221.2486, 45.21730
221.7307, 45.29474
222.2128, 45.36296
222.6949, 45.63257
223.1770, 45.80006
223.6591, 45.29027
224.1413, 43.94418
224.6234, 42.93195
225.1055, 43.77769
225.5876, 45.52660
226.0697, 46.38951
226.5518, 45.35426
227.0340, 43.47481
227.5161, 42.42043
227.9982, 42.48642
228.4803, 42.32533
228.9624, 41.09198
229.4445, 39.18684
229.9267, 36.99098
230.4088, 34.55925
230.8909, 32.00238
231.3730, 29.57484
231.8551, 27.33304
232.3372, 25.10878
232.8194, 22.70036
233.3015, 20.27995
233.7836, 18.06839
234.2657, 16.21011
234.7478, 14.52544
235.2299, 12.56689
235.7121, 10.07495
236.1942, 7.825958
236.6763, 5.964279
237.1584, 4.438858
237.6405, 3.270599
238.1227, 2.507034
238.6048, 1.931030
239.0869, 0.9398350
239.5690, 0.9045720
240.0511, 2.391388
240.5332, 3.178360
241.0154, 3.610779
241.4975, 3.980286
241.9796, 4.408585
242.4617, 4.871689
242.9438, 5.332550
243.4259, 6.050705
243.9081, 6.323570
244.3902, 5.914993
244.8723, 5.179893
245.3544, 4.358353
245.8365, 3.551407
246.3186, 2.845787
246.8008, 2.458809
247.2829, 2.633430
247.7650, 2.805267
248.2471, 3.268982
248.7292, 3.545448
249.2113, 3.130783
249.6935, 1.873947
250.1756, 9.9930003E-02
250.6577, 1.595856
251.1398, 3.583008
251.6219, 4.856049
252.1040, 4.814774
252.5862, 4.386169
253.0683, 4.370621
253.5504, 5.010353
254.0325, 6.052582
254.5146, 7.086365
254.9967, 8.107697
255.4789, 9.127800
255.9610, 10.21564
256.4431, 11.26211
256.9252, 12.13342
257.4073, 12.80924
257.8894, 13.43497
258.3716, 14.19315
258.8537, 15.10003
259.3358, 16.16457
259.8179, 17.45853
260.3000, 18.87228
260.7821, 20.45223
261.2643, 22.17557
261.7464, 23.65960
262.2285, 24.37550
262.7106, 24.05482
263.1927, 24.35398
263.6748, 25.83017
264.1570, 27.59307
264.6391, 28.86818
265.1212, 29.58315
265.6033, 30.19167
266.0854, 31.15429
266.5675, 32.48322
267.0497, 33.48940
267.5318, 33.73520
268.0139, 33.94294
268.4960, 34.79176
268.9781, 36.28797
269.4602, 37.81588
269.9424, 38.98409
270.4245, 39.75833
270.9066, 40.24749
271.3887, 40.37583
271.8708, 40.27765
272.3529, 39.99132
272.8351, 39.53310
273.3172, 39.07181
273.7993, 38.78451
274.2814, 38.53831
274.7635, 37.95354
275.2456, 36.78326
275.7278, 35.54695
276.2099, 34.68342
276.6920, 34.13714
277.1741, 33.41431
277.6562, 32.12225
278.1383, 30.63907
278.6205, 29.78123
279.1026, 29.86978
279.5847, 29.84719
280.0668, 28.76541
280.5489, 26.83080
281.0310, 25.33961
281.5132, 24.96879
281.9953, 25.03193
282.4774, 24.57780
282.9595, 23.57598
283.4416, 22.28436
283.9237, 20.60778
284.4059, 18.70268
284.8880, 17.22574
285.3701, 16.41208
285.8522, 15.98061
286.3343, 15.61155
286.8164, 15.31577
287.2986, 15.17532
287.7807, 15.46060
288.2628, 15.95731
288.7449, 15.92850
289.2270, 15.03525
289.7091, 13.97250
290.1913, 13.25005
290.6734, 12.83107
291.1555, 12.58983
291.6376, 12.64172
292.1197, 12.81220
292.6018, 12.59451
293.0840, 11.72823
293.5661, 10.97955
294.0482, 11.03075
294.5303, 11.57203
295.0124, 12.05716
295.4945, 12.33850
295.9767, 12.39519
296.4588, 12.13258
296.9409, 11.44908
297.4230, 10.66618
297.9051, 9.929825
298.3872, 9.201279
298.8694, 8.399605
299.3515, 7.468208
299.8336, 6.532944
300.3157, 5.712242
300.7978, 4.986679
301.2799, 4.466644
301.7621, 4.472778
302.2442, 4.660889
302.7263, 4.709190
303.2084, 4.545921
303.6905, 4.345886
304.1726, 4.335007
304.6548, 4.507393
305.1369, 4.453148
305.6190, 3.913597
306.1011, 3.223640
306.5832, 2.655060
307.0653, 2.268471
307.5475, 2.018784
308.0296, 1.808380
308.5117, 1.595650
308.9938, 1.632263
309.4759, 2.059814
309.9580, 2.604591
310.4402, 3.146378
310.9223, 3.660767
311.4044, 4.062935
311.8865, 4.240265
312.3686, 4.243240
312.8507, 4.314072
313.3329, 4.513748
313.8150, 4.678490
314.2971, 4.672600
314.7792, 4.577660
315.2613, 4.558167
315.7434, 4.769424
316.2256, 5.049370
316.7077, 4.991341
317.1898, 4.441025
317.6719, 3.983574
318.1540, 3.991714
318.6361, 4.183884
319.1183, 4.239006
319.6004, 4.016960
320.0825, 3.747711
320.5646, 3.724174
321.0467, 3.960449
321.5288, 4.371696
322.0110, 5.183243
322.4931, 6.008583
322.9752, 6.510445
323.4573, 6.629990
323.9394, 6.637024
324.4215, 6.776543
324.9037, 7.044617
325.3858, 7.280380
325.8679, 7.432854
326.3500, 7.567749
326.8321, 7.762032
327.3142, 7.998749
327.7964, 8.168724
328.2785, 8.156891
328.7606, 8.004372
329.2427, 7.953201
329.7248, 8.185371
330.2069, 8.213226
330.6891, 7.636208
331.1712, 6.666374
331.6533, 5.739082
332.1354, 5.059517
332.6175, 4.540230
333.0996, 4.017738
333.5818, 3.494110
334.0639, 2.952301
334.5460, 2.263680
335.0281, 1.594353
335.5102, 1.165298
335.9923, 1.074165
336.4745, 1.137169
336.9566, 1.194153
337.4387, 1.252014
337.9208, 1.170540
338.4029, 0.7593080
338.8850, 0.2898480
339.3671, 5.9578001E-02
339.8492, 0.1070020
340.3314, 0.1579900
340.8135, 1.9362999E-02
341.2956, 0.3877560
341.7777, 0.7275770
342.2598, 1.043854
342.7419, 1.249344
343.2241, 1.155830
343.7062, 0.8422700
344.1883, 0.7384030
344.6704, 1.216469
345.1525, 2.018768
345.6346, 2.608627
346.1168, 2.956802
346.5989, 3.099075
347.0810, 2.855522
347.5631, 2.439484
348.0452, 2.236496
348.5273, 2.484009
349.0095, 2.857094
349.4916, 3.037956
349.9737, 3.026390
350.4558, 2.783127
350.9379, 2.063568
351.4200, 1.238434
351.9022, 0.9181980
352.3843, 1.268677
352.8664, 1.735481
353.3485, 2.045189
353.8306, 2.191406
354.3127, 2.125175
354.7949, 1.781792
355.2770, 1.302071
355.7591, 0.8196260
356.2412, 0.3333360
356.7233, 6.2996000E-02
357.2054, 0.2789230
357.6876, 0.3963550
358.1697, 0.5197980
358.6518, 0.6517560
359.1339, 0.8808590
359.6160, 1.363686
360.0981, 2.050171
360.5803, 2.614380
361.0624, 2.902206
361.5445, 3.127975
362.0266, 3.446373
362.5087, 3.861389
362.9908, 4.358032
363.4730, 4.979424
363.9551, 5.627106
364.4372, 6.031586
364.9193, 6.054626
365.4014, 6.093597
365.8835, 6.148285
366.3657, 6.341446
366.8478, 7.021713
367.3299, 8.373642
367.8120, 10.01247
368.2941, 11.30532
368.7762, 12.12708
369.2584, 13.12508
369.7405, 14.67209
370.2226, 16.26248
370.7047, 17.25946
371.1868, 17.63676
371.6689, 18.06114
372.1511, 19.18108
372.6332, 21.04022
373.1153, 22.60260
373.5974, 24.02041
374.0795, 25.05074
374.5616, 25.45460
375.0438, 25.37053
375.5259, 25.11773
376.0080, 24.84556
376.4901, 24.59097
376.9722, 24.48929
377.4543, 25.17367
377.9365, 25.19543
378.4186, 23.90292
378.9007, 22.10257
379.3828, 20.67961
379.8649, 19.87836
380.3470, 19.34560
380.8292, 18.54470
381.3113, 17.15640
381.7934, 16.50874
382.2755, 17.06222
382.7576, 17.85198
383.2397, 18.30673
383.7219, 18.48142
384.2040, 18.74846
384.6861, 19.40234
385.1682, 20.42432
385.6503, 21.49353
386.1324, 22.77683
386.6146, 23.91347
387.0967, 24.71778
387.5788, 25.37215
388.0609, 26.10875
388.5430, 27.02376
389.0251, 28.04659
389.5073, 29.10294
389.9894, 30.45137
390.4715, 31.25882
390.9536, 31.22203
391.4357, 30.91687
391.9178, 30.66086
392.4000, 30.50402
392.8821, 30.34816
393.3642, 30.07989
393.8463, 29.70234
394.3284, 29.43768
394.8105, 29.37991
395.2927, 29.33063
395.7748, 29.25183
396.2569, 29.11298
396.7390, 28.82924
397.2211, 28.29612
397.7032, 27.78239
398.1854, 27.92609
398.6675, 28.93435
399.1496, 29.91899
399.6317, 30.41846
400.1138, 30.94399
400.5959, 31.98917
401.0781, 33.64000
401.5602, 35.38049
402.0423, 36.59663
402.5244, 37.32341
403.0065, 38.33244
403.4886, 39.75026
403.9708, 41.47533
404.4529, 43.48007
404.9350, 45.72490
405.4171, 48.07864
405.8992, 50.44125
406.3813, 52.83917
406.8635, 55.46336
407.3456, 58.37884
407.8277, 61.06831
408.3098, 63.11209
408.7919, 64.91966
409.2740, 67.22437
409.7562, 70.33436
410.2383, 73.11939
410.7204, 75.11997
411.2025, 76.30256
411.6846, 76.55888
412.1667, 75.83160
412.6489, 74.31392
413.1310, 72.13894
413.6131, 69.34271
414.0952, 65.94572
414.5773, 61.55165
415.0594, 56.80265
415.5416, 52.30019
416.0237, 48.05696
416.5058, 43.80119
416.9879, 39.36447
417.4700, 34.76640
417.9521, 30.10624
418.4343, 24.43602
418.9164, 19.82458
419.3985, 17.45260
419.8806, 16.29292
420.3627, 14.89391
420.8448, 12.78294
421.3270, 10.34671
421.8091, 8.111534
422.2912, 6.014282
422.7733, 4.415947
423.2554, 3.703407
423.7375, 3.115005
424.2197, 2.072510
424.7018, 0.7271730
425.1839, 0.3182300
425.6660, 0.6054990
426.1481, 0.2433400
426.6302, 2.5490001E-02
427.1124, 2.5581000E-02
427.5945, 0.1141280
428.0766, 0.4909820
428.5587, 1.089439
429.0408, 1.919136
429.5229, 2.973465
430.0051, 4.189590
430.4872, 5.470970
430.9693, 6.782295
431.4514, 8.281883
431.9335, 10.14339
432.4156, 12.06468
432.8978, 13.87032
433.3799, 15.63882
433.8620, 17.58263
434.3441, 19.77067
434.8262, 22.25733
435.3083, 25.35708
435.7905, 29.44191
436.2726, 33.07411
436.7547, 34.79677
437.2368, 36.35416
437.7189, 39.46211
438.2010, 44.50882
438.6832, 50.04958
439.1653, 54.80550
439.6474, 58.95309
440.1295, 63.54557
440.6116, 68.83963
441.0938, 74.39491
441.5759, 79.63414
442.0580, 84.75197
442.5401, 90.48507
443.0222, 97.16681
443.5043, 104.4383
443.9865, 112.1011
444.4686, 120.1004
444.9507, 128.2400
445.4328, 136.4098
445.9149, 144.6899
446.3970, 153.2134
446.8792, 161.9283
447.3613, 170.8952
447.8434, 180.0323
448.3255, 189.4816
448.8076, 199.6067
449.2897, 210.4601
449.7719, 221.3366
450.2540, 231.5422
450.7361, 241.0700
451.2182, 250.8101
451.7003, 260.2850
452.1824, 270.4424
452.6646, 282.0051
453.1467, 294.4533
453.6288, 306.8145
454.1109, 318.6948
454.5930, 330.3695
455.0751, 342.5142
455.5573, 355.4010
456.0394, 368.2407
456.5215, 380.3615
457.0036, 392.9907
457.4857, 407.3990
457.9678, 423.1086
458.4500, 438.5797
458.9321, 452.5616
459.4142, 465.3242
459.8963, 478.7071
460.3784, 493.4083
460.8605, 507.4071
461.3427, 520.6171
461.8248, 532.8638
462.3069, 544.0342
462.7890, 554.1006
463.2711, 563.0867
463.7532, 571.4030
464.2354, 578.9658
464.7175, 583.8498
465.1996, 585.8713
465.6817, 584.9614
466.1638, 581.0832
466.6459, 574.5110
467.1281, 565.5916
467.6102, 554.2651
468.0923, 540.8167
468.5744, 525.3028
469.0565, 507.7181
469.5386, 489.2473
470.0208, 470.2030
470.5029, 450.6464
470.9850, 430.5901
471.4671, 409.7079
471.9492, 389.8453
472.4313, 371.3317
472.9135, 354.0037
473.3956, 337.7832
473.8777, 322.6525
474.3598, 308.2287
474.8419, 294.3578
475.3240, 281.0674
475.8062, 268.5441
476.2883, 257.0235
476.7704, 245.6297
477.2525, 234.3742
477.7346, 223.1834
478.2167, 211.9464
478.6989, 200.6053
479.1810, 189.4866
479.6631, 178.8796
480.1452, 168.9577
480.6273, 158.9616
481.1094, 148.4575
481.5916, 138.3461
482.0737, 128.7402
482.5558, 119.8014
483.0379, 111.8139
483.5200, 104.9477
484.0021, 98.73420
484.4843, 92.18142
484.9664, 85.06641
485.4485, 78.49039
485.9306, 72.67236
486.4127, 67.44083
486.8948, 62.70200
487.3770, 58.45494
487.8591, 54.77355
488.3412, 52.15572
488.8233, 50.00920
489.3054, 47.01377
489.7875, 43.06310
490.2697, 39.37062
490.7518, 36.56412
491.2339, 34.45213
491.7160, 32.41841
492.1981, 30.28841
492.6802, 28.75966
493.1624, 28.76078
493.6445, 29.34469
494.1266, 28.90543
494.6087, 27.18385
495.0908, 25.44519
495.5729, 24.86172
496.0551, 25.44508
496.5372, 25.73447
497.0193, 25.61637
497.5014, 25.38211
497.9835, 24.94155
498.4656, 24.48647
498.9478, 24.26580
499.4299, 24.35480
499.9120, 24.62423
500.3941, 24.89498
500.8762, 25.12839
501.3583, 25.58164
501.8405, 26.52621
502.3226, 27.42351
502.8047, 28.01663
503.2868, 28.40361
503.7689, 28.76006
504.2510, 29.17040
504.7331, 29.71810
505.2152, 30.67495
505.6974, 32.17429
506.1795, 33.22050
506.6616, 33.29694
507.1437, 33.13287
507.6258, 33.22379
508.1079, 33.55765
508.5901, 33.98925
509.0722, 34.51688
509.5543, 35.05963
510.0364, 35.60838
510.5185, 36.16415
511.0006, 36.33242
511.4828, 35.79581
511.9649, 34.86887
512.4470, 34.28994
512.9291, 34.25181
513.4113, 33.87263
513.8934, 32.83997
514.3755, 31.41807
514.8576, 29.80804
515.3397, 28.05604
515.8218, 26.28407
516.3040, 24.60949
516.7861, 22.98227
517.2682, 21.02550
517.7503, 18.13351
518.2324, 15.65454
518.7145, 13.84042
519.1967, 12.39068
519.6788, 11.06955
520.1609, 9.808578
520.6430, 8.598633
521.1251, 7.407448
521.6072, 6.230789
522.0894, 5.277206
522.5715, 4.632973
523.0536, 4.095108
523.5357, 3.658516
524.0178, 3.229546
524.4999, 2.689812
524.9821, 2.002800
525.4642, 1.318909
525.9463, 0.7059100
526.4284, 0.1945040
526.9105, 2.7649000E-02
527.3926, 0.1802440
527.8748, 0.3503570
528.3569, 1.9943001E-02
528.8390, 0.7421190
529.3211, 1.160881
529.8032, 1.113960
530.2853, 0.8482670
530.7675, 0.1327820
531.2496, 0.6162340
531.7317, 0.3818050
532.2138, 1.139580
532.6959, 2.770149
533.1780, 2.971596
533.6602, 1.413429
534.1423, 0.6120530
534.6244, 1.007858
535.1065, 1.517838
535.5886, 1.813759
536.0707, 1.963280
536.5529, 2.092369
537.0350, 2.243641
537.5171, 2.337708
537.9992, 2.195164
538.4813, 1.738377
538.9634, 1.470963
539.4456, 1.639389
539.9277, 1.754776
540.4098, 1.431480
540.8919, 0.9065400
541.3740, 0.7123340
541.8561, 1.206627
542.3383, 1.805237
542.8204, 1.711239
543.3025, 1.001125
543.7846, 0.3674960
544.2667, 7.6785997E-02
544.7488, 0.2837370
545.2310, 4.4628002E-02
545.7131, 0.5779040
546.1952, 0.9774930
546.6773, 0.8872990
547.1594, 0.7071760
547.6415, 0.7376560
548.1237, 0.8877640
548.6058, 0.8937950
549.0879, 0.6431580
549.5700, 0.2801170
550.0521, 3.2733999E-02
550.5342, 9.8803997E-02
551.0164, 0.1037790
551.4985, 0.2562600
551.9806, 0.4804080
552.4627, 0.1715700
552.9448, 0.4022980
553.4269, 0.6684300
553.9091, 0.3317720
554.3912, 0.1872330
554.8733, 4.7268000E-02
555.3554, 0.9013100
555.8375, 1.457222
556.3196, 1.174320
556.8018, 0.7975960
557.2839, 0.8919790
557.7660, 1.281868
558.2481, 1.457241
558.7302, 1.097504
559.2123, 0.6159360
559.6945, 0.3516080
560.1766, 0.3108370
560.6587, 0.6264800
561.1408, 1.448719
561.6229, 2.266968
562.1050, 2.381821
562.5872, 1.647923
563.0693, 1.200214
563.5514, 1.205727
564.0335, 1.345749
564.5156, 1.503521
564.9977, 1.671944
565.4799, 1.828136
565.9620, 1.966740
566.4441, 2.187851
566.9262, 2.734314
567.4083, 3.817863
567.8904, 4.362438
568.3726, 3.769417
568.8547, 3.236801
569.3368, 3.300087
569.8189, 3.662956
570.3010, 3.797703
570.7831, 3.482830
571.2653, 3.031754
571.7474, 2.753651
572.2295, 2.649868
572.7116, 2.789383
573.1937, 3.323147
573.6758, 3.747498
574.1580, 3.452003
574.6401, 2.663136
575.1222, 2.274368
575.6043, 2.560944
576.0864, 3.045574
576.5685, 3.718349
577.0507, 4.370155
577.5328, 4.570415
578.0149, 4.234127
578.4970, 3.777718
578.9791, 3.671974
579.4612, 3.941711
579.9434, 3.937599
580.4255, 3.170021
580.9076, 2.706474
581.3897, 2.989819
581.8718, 3.543610
582.3539, 3.846851
582.8361, 3.785084
583.3182, 3.602932
583.8003, 3.555923
584.2824, 3.613171
584.7645, 3.524658
585.2466, 3.235615
585.7288, 2.970146
586.2108, 2.880489
586.6929, 2.833847
587.1750, 2.602306
587.6572, 2.074612
588.1393, 1.903454
588.6214, 2.899555
589.1035, 4.164494
589.5856, 4.297916
590.0677, 3.248943
590.5499, 2.296276
591.0320, 2.431259
591.5141, 3.387203
591.9962, 3.742554
592.4783, 2.489731
592.9604, 1.894440
593.4426, 2.694939
593.9247, 3.589943
594.4068, 3.597633
594.8889, 2.844353
595.3710, 2.051476
595.8531, 1.673309
596.3353, 1.634941
596.8174, 1.784710
597.2995, 2.166382
597.7816, 2.275299
598.2637, 1.810291
598.7458, 1.308628
599.2280, 1.140190
599.7101, 1.246628
600.1922, 1.540112
600.6743, 2.387028
601.1564, 3.191895
601.6385, 3.338566
602.1207, 2.985119
602.6028, 2.605991
603.0849, 2.334606
603.5670, 2.081036
604.0491, 1.762127
604.5313, 1.372437
605.0134, 1.187580
605.4955, 1.235394
605.9776, 1.391083
606.4597, 1.833660
606.9418, 2.299561
607.4240, 2.382828
607.9061, 1.982948
608.3882, 1.452255
608.8703, 1.186913
609.3524, 1.144203
609.8345, 1.005184
610.3167, 0.6425320
610.7988, 0.6332400
611.2809, 1.635303
611.7630, 2.925766
612.2451, 3.471931
612.7272, 3.070904
613.2094, 2.765762
613.6915, 3.034359
614.1736, 3.562935
614.6557, 4.063637
615.1378, 4.504250
615.6199, 4.797310
616.1021, 4.862785
616.5842, 4.743076
617.0663, 4.595924
617.5484, 4.413563
618.0305, 4.244961
618.5126, 4.028542
618.9948, 3.930733
619.4769, 4.046230
619.9590, 4.319817
620.4411, 4.627632
620.9232, 4.915585
621.4053, 5.252319
621.8875, 5.810410
622.3696, 6.582115
622.8517, 7.114151
623.3338, 7.295300
623.8159, 7.284168
624.2980, 7.135876
624.7802, 6.899742
625.2623, 6.713306
625.7444, 6.428143
626.2265, 6.383015
626.7086, 7.060314
627.1907, 7.938999
627.6729, 8.161804
628.1550, 7.630177
628.6371, 7.003490
629.1192, 6.848423
629.6013, 7.124374
630.0834, 7.531506
630.5656, 8.443272
631.0477, 8.863037
631.5298, 8.328297
632.0119, 7.548595
632.4940, 6.999065
632.9761, 6.713165
633.4583, 6.514030
633.9404, 6.278278
634.4225, 6.077301
634.9046, 6.110725
635.3867, 6.343521
635.8688, 6.332275
636.3510, 5.895981
636.8331, 5.260101
637.3152, 4.606915
637.7973, 3.909943
638.2794, 3.610058
638.7615, 4.196461
639.2437, 4.655594
639.7258, 4.462875
640.2079, 3.924290
640.6900, 3.430779
641.1721, 3.105995
641.6542, 2.944000
642.1364, 2.965530
642.6185, 3.153625
643.1006, 3.354057
643.5827, 3.730804
644.0648, 3.752430
644.5469, 2.774258
645.0291, 1.637600
645.5112, 1.090858
645.9933, 1.194851
646.4754, 1.545792
646.9575, 2.270351
647.4396, 2.900448
647.9218, 2.755863
648.4039, 2.013596
648.8860, 1.545097
649.3681, 1.729160
649.8502, 2.085159
650.3323, 1.819828
650.8145, 0.6665730
651.2966, 0.1653710
651.7787, 0.5888560
652.2608, 1.301201
652.7429, 2.572697
653.2250, 3.810421
653.7072, 4.122910
654.1893, 3.341202
654.6714, 2.487602
655.1535, 2.681461
655.6356, 3.568550
656.1177, 3.908081
656.5999, 3.604111
657.0820, 3.257767
657.5641, 3.133003
658.0462, 3.142269
658.5283, 3.129166
659.0104, 3.086735
659.4926, 3.042965
659.9747, 2.994667
660.4568, 2.952736
660.9389, 2.878849
661.4210, 2.824924
661.9031, 2.892181
662.3853, 3.119308
662.8674, 3.455383
663.3495, 3.938438
663.8316, 4.611351
664.3137, 4.676640
664.7958, 3.693153
665.2780, 2.903820
665.7601, 3.057373
666.2422, 3.607384
666.7243, 3.993668
667.2064, 4.161205
667.6885, 4.099464
668.1707, 3.620056
668.6528, 3.030499
669.1349, 2.666973
669.6170, 2.523613
670.0991, 2.471119
670.5812, 2.449734
671.0634, 2.494495
671.5455, 2.696281
672.0276, 3.153294
672.5097, 3.389896
672.9918, 3.125732
673.4739, 2.945801
673.9561, 3.145466
674.4382, 3.476734
674.9203, 3.554737
675.4024, 3.285248
675.8845, 3.088417
676.3666, 3.469452
676.8488, 4.119064
677.3309, 4.335281
677.8130, 4.090168
678.2951, 3.739128
678.7772, 3.405289
679.2593, 3.139397
679.7415, 3.058285
680.2236, 3.290825
680.7057, 3.298786
681.1878, 2.790844
681.6699, 2.374603
682.1520, 2.356815
682.6342, 2.594631
683.1163, 2.880310
683.5984, 3.144180
684.0805, 3.381344
684.5626, 3.603352
685.0447, 3.799332
685.5269, 3.847122
686.0090, 3.676773
686.4911, 3.771946
686.9732, 4.564445
687.4553, 5.534958
687.9374, 5.772202
688.4196, 5.209606
688.9017, 4.733299
689.3838, 4.354916
689.8659, 4.221245
690.3480, 4.538876
690.8301, 5.127373
691.3123, 5.685520
691.7944, 6.116959
692.2765, 6.541351
692.7586, 7.166489
693.2407, 7.953899
693.7228, 8.261219
694.2050, 7.811344
694.6871, 7.644104
695.1692, 8.382393
695.6513, 9.384830
696.1334, 9.898033
696.6155, 9.920300
697.0977, 10.14870
697.5798, 10.79375
698.0619, 11.75602
698.5440, 13.29266
699.0261, 15.03301
699.5082, 16.04164
699.9904, 16.12263
700.4725, 15.96097
700.9546, 16.34644
701.4367, 17.26817
701.9188, 18.20066
702.4009, 19.15921
702.8831, 20.09491
703.3652, 21.07111
703.8473, 21.97422
704.3294, 22.77417
704.8115, 23.42984
705.2936, 23.75024
705.7758, 23.40029
706.2579, 22.94142
706.7400, 22.82713
707.2221, 22.95551
707.7042, 23.12971
708.1863, 23.29947
708.6685, 23.43448
709.1506, 23.53521
709.6327, 23.57836
710.1148, 23.37723
710.5969, 22.84274
711.0790, 22.26028
711.5612, 21.53810
712.0433, 20.85362
712.5254, 20.33204
713.0075, 20.00869
713.4896, 19.73083
713.9717, 19.49303
714.4539, 19.18154
714.9360, 18.44982
715.4181, 17.61393
715.9002, 17.56837
716.3823, 18.43295
716.8644, 19.27959
717.3466, 19.37955
717.8287, 18.87706
718.3108, 18.46772
718.7929, 18.07204
719.2750, 18.07781
719.7571, 19.12343
720.2393, 19.93707
720.7214, 19.63598
721.2035, 18.70762
721.6856, 18.12334
722.1677, 18.18692
722.6498, 18.31188
723.1320, 17.98759
723.6141, 17.53724
724.0962, 17.69335
724.5783, 18.46281
725.0604, 19.07888
725.5425, 19.12022
726.0247, 18.86697
726.5068, 18.90946
726.9889, 19.41808
727.4710, 19.70244
727.9531, 19.63017
728.4352, 19.48975
728.9174, 19.49521
729.3995, 19.46458
729.8816, 19.03036
730.3637, 18.12476
730.8458, 17.28010
731.3279, 16.96761
731.8101, 16.90424
732.2922, 16.72627
732.7743, 16.39747
733.2564, 15.72845
733.7385, 14.62689
734.2206, 13.36145
734.7028, 12.24047
735.1849, 11.24939
735.6670, 10.54862
736.1491, 10.43542
736.6312, 10.24664
737.1133, 9.836906
737.5955, 9.313988
738.0776, 8.745655
738.5597, 8.158054
739.0418, 7.623264
739.5239, 7.216370
740.0060, 6.822754
740.4882, 6.305187
740.9703, 5.688568
741.4524, 4.971092
741.9345, 4.156025
742.4166, 3.609909
742.8987, 3.708126
743.3809, 4.277225
743.8630, 4.445381
744.3451, 4.006660
744.8272, 3.534039
745.3093, 2.972183
745.7914, 2.472450
746.2736, 2.126297
746.7557, 1.902016
747.2378, 1.711926
747.7199, 1.517269
748.2020, 1.409050
748.6841, 1.563965
749.1663, 1.804615
749.6484, 1.793480
750.1305, 1.538445
750.6126, 1.271580
751.0947, 1.103897
751.5768, 1.039894
752.0590, 1.120056
752.5411, 1.425705
753.0232, 1.493874
753.5053, 1.341267
753.9874, 0.9130440
754.4695, 0.2980120
754.9517, 1.481220
755.4338, 1.535442
755.9159, 0.4029730
756.3980, 0.4268680
756.8801, 0.2438320
757.3622, 1.107983
757.8444, 0.7315980
758.3265, 0.4282040
758.8086, 1.313667
759.2907, 1.626686
759.7728, 1.499630
760.2549, 0.9861030
760.7371, 0.1863170
761.2192, 0.2480470
761.7013, 0.2045020
762.1834, 0.1002690
762.6655, 6.5380000E-03
763.1476, 0.1463510
763.6298, 0.4409900
764.1119, 0.7818450
764.5940, 0.8332480
765.0761, 0.3052830
765.5582, 6.4387999E-02
766.0403, 0.3073010
766.5225, 0.8738400
767.0046, 1.092579
767.4867, 0.9175760
767.9688, 0.3309820
768.4509, 0.6987880
768.9330, 1.634529
769.4152, 1.369709
769.8973, 0.1657140
770.3794, 0.9572220
770.8615, 0.6847420
771.3436, 0.4506990
771.8257, 0.9377140
772.3079, 1.571686
772.7900, 1.426586
773.2721, 0.4353220
773.7542, 0.3842740
774.2363, 1.045223
774.7184, 1.311920
775.2006, 0.7162740
775.6827, 0.1720200
776.1648, 0.6087910
776.6469, 0.4817730
777.1290, 0.1469350
777.6111, 0.1444590
778.0933, 0.4249000
778.5754, 0.9218250
779.0575, 1.608589
779.5396, 1.531448
780.0217, 0.2799260
780.5038, 0.9087560
780.9860, 0.9496270
781.4681, 0.1721380
781.9502, 3.5957001E-02
782.4323, 1.266747
782.9144, 1.921604
783.3965, 1.288372
783.8787, 0.6839870
784.3608, 1.176357
784.8429, 2.134357
785.3250, 2.266670
785.8071, 1.161957
786.2892, 4.9346998E-02
786.7714, 0.4484410
787.2535, 0.2847520
787.7356, 0.1218450
788.2177, 0.7008290
788.6998, 1.105446
789.1819, 1.207890
789.6641, 1.099880
790.1462, 0.8598900
790.6283, 0.4891620
791.1104, 0.2655980
791.5925, 0.2344320
792.0746, 0.2786900
792.5568, 0.4883880
793.0389, 0.6696430
793.5210, 0.5710410
794.0031, 0.3177760
794.4852, 0.3618550
794.9673, 1.012074
795.4495, 1.639484
795.9316, 1.788242
796.4137, 1.722065
796.8958, 1.781311
797.3779, 1.970577
797.8600, 2.133728
798.3422, 2.190125
798.8243, 2.177235
799.3064, 2.188538
799.7885, 2.231598
800.2706, 1.987534
800.7527, 1.275757
801.2349, 0.8479310
801.7170, 1.179359
802.1991, 1.783653
802.6812, 1.961716
803.1633, 1.713760
803.6454, 1.584152
804.1276, 1.804752
804.6097, 1.929611
805.0918, 1.546238
805.5739, 1.154789
806.0560, 1.414017
806.5381, 2.220135
807.0203, 2.866230
807.5024, 2.898148
807.9845, 3.371819
808.4666, 2.964077
808.9487, 3.482807
809.4308, 3.562279
809.9130, 3.112991
810.3951, 2.685501
810.8772, 2.604858
811.3593, 2.709385
811.8414, 2.644196
812.3235, 2.271862
812.8057, 2.169613
813.2878, 2.785267
813.7699, 3.287788
814.2520, 3.266785
814.7341, 3.044849
815.2162, 2.944519
815.6984, 3.037018
816.1805, 3.093765
816.6626, 2.782959
817.1447, 2.594547
817.6268, 3.073814
818.1089, 3.833725
818.5911, 4.307240
819.0732, 4.394318
819.5553, 4.196613
820.0374, 3.744301
820.5195, 3.211945
821.0016, 2.910599
821.4838, 2.836742
821.9659, 3.166241
822.4480, 4.051891
822.9301, 4.878571
823.4122, 5.333153
823.8943, 5.551125
824.3765, 5.790482
824.8586, 6.124088
825.3407, 6.085747
825.8228, 5.255287
826.3049, 4.504074
826.7870, 4.138115
827.2692, 4.044022
827.7513, 4.113846
828.2334, 4.231186
828.7155, 4.414597
829.1976, 4.713337
829.6797, 5.009804
830.1619, 5.233078
830.6440, 5.339329
831.1261, 5.138538
831.6082, 4.625481
832.0903, 4.105011
832.5724, 3.758682
833.0546, 3.748291
833.5367, 4.430954
834.0188, 5.954346
834.5009, 6.730000
834.9830, 6.468807
835.4651, 5.991161
835.9473, 5.331612
836.4294, 4.788532
836.9115, 4.756046
837.3936, 5.254753
837.8757, 5.772068
838.3578, 6.116295
838.8400, 6.453049
839.3221, 7.022820
839.8042, 7.484806
840.2863, 7.450508
840.7684, 7.011810
841.2505, 6.535095
841.7327, 6.167770
842.2148, 6.040157
842.6969, 6.616642
843.1790, 7.506546
843.6611, 7.383587
844.1432, 6.244171
844.6254, 5.485668
845.1075, 5.787373
845.5896, 6.409431
846.0717, 6.292637
846.5538, 5.413361
847.0359, 4.817059
847.5181, 4.514465
848.0002, 4.493477
848.4823, 4.999573
848.9644, 5.554733
849.4465, 5.856754
849.9286, 5.959530
850.4108, 6.015541
850.8929, 6.028332
851.3750, 5.987675
851.8571, 5.734203
852.3392, 5.559315
852.8214, 5.923740
853.3035, 6.489979
853.7856, 6.421429
854.2677, 5.521347
854.7498, 4.753189
855.2319, 5.218197
855.7141, 6.368439
856.1962, 7.050743
856.6783, 7.277267
857.1604, 7.057316
857.6425, 6.359360
858.1246, 5.595261
858.6068, 5.070240
859.0889, 4.814030
859.5710, 5.002758
860.0531, 5.954514
860.5352, 6.496513
861.0173, 6.422390
861.4995, 6.156883
861.9816, 5.792423
862.4637, 5.397331
862.9458, 5.033806
863.4279, 4.702267
863.9100, 4.508320
864.3922, 4.591930
864.8743, 4.742603
865.3564, 4.782883
865.8385, 4.819477
866.3206, 5.114151
866.8027, 5.527809
867.2849, 5.513397
867.7670, 4.627495
868.2491, 3.614861
868.7312, 3.564785
869.2133, 4.150761
869.6954, 4.460011
870.1776, 4.422131
870.6597, 4.185040
871.1418, 3.782578
871.6239, 3.483765
872.1060, 3.742687
872.5881, 4.584076
873.0703, 4.950825
873.5524, 4.683582
874.0345, 4.281349
874.5166, 3.708607
874.9987, 3.237762
875.4808, 3.148281
875.9630, 3.314301
876.4451, 3.378952
876.9272, 3.276314
877.4093, 3.152519
877.8914, 2.886559
878.3735, 2.779140
878.8557, 3.263607
879.3378, 3.921074
879.8199, 4.018425
880.3020, 3.441227
880.7841, 2.856476
881.2662, 2.758625
881.7484, 2.864487
882.2305, 2.815651
882.7126, 2.695992
883.1947, 2.721024
883.6768, 2.907223
884.1589, 3.144215
884.6411, 3.376068
885.1232, 3.483654
885.6053, 3.073822
886.0874, 2.120834
886.5695, 1.682907
887.0516, 1.871593
887.5338, 2.267704
888.0159, 2.819698
888.4980, 3.324966
888.9801, 3.519405
889.4622, 3.403690
889.9443, 3.256145
890.4265, 3.215359
890.9086, 2.944122
891.3907, 1.911472
891.8728, 1.124557
892.3549, 1.424118
892.8370, 2.361603
893.3192, 3.046822
893.8013, 3.279762
894.2834, 3.331966
894.7655, 3.440575
895.2476, 3.324413
895.7297, 2.416656
896.2119, 1.250469
896.6940, 0.8367080
897.1761, 1.252930
897.6582, 1.669518
898.1403, 1.476322
898.6224, 1.754139
899.1046, 1.840363
899.5867, 1.737320
900.0688, 1.938583
900.5509, 1.759434
901.0330, 1.599155
901.5151, 1.660793
901.9973, 1.741447
902.4794, 1.501137
902.9615, 0.9391780
903.4436, 0.7261010
903.9257, 1.024399
904.4078, 1.247383
904.8900, 1.276161
905.3721, 1.194988
905.8542, 1.024487
906.3363, 0.7969590
906.8184, 0.5939450
907.3005, 0.3204080
907.7827, 0.3123250
908.2648, 0.9195140
908.7469, 1.455368
909.2290, 1.464447
909.7111, 1.283585
910.1932, 1.433441
910.6754, 1.907055
911.1575, 2.126251
911.6396, 1.576481
912.1217, 1.020889
912.6038, 1.312363
913.0859, 1.845997
913.5681, 1.663696
914.0502, 0.8724860
914.5323, 0.1814160
915.0144, 9.7313002E-02
915.4965, 0.1505390
915.9786, 0.1774180
916.4607, 0.1663970
916.9428, 4.8480999E-02
917.4249, 0.1658940
917.9070, 0.3089790
918.3892, 0.3315580
918.8713, 0.3885960
919.3534, 0.6235890
919.8355, 0.9488490
920.3176, 1.109798
920.7997, 1.128174
921.2819, 0.8744280
921.7640, 0.1577190
922.2461, 0.4709740
922.7282, 0.9142340
923.2103, 1.064888
923.6924, 0.6206550
924.1746, 0.3734170
924.6567, 1.032505
925.1388, 1.219879
925.6209, 1.209583
926.1030, 0.8406680
926.5851, 0.4876170
927.0673, 0.4270100
927.5494, 0.5575030
928.0315, 0.7292180
928.5136, 0.9136470
928.9957, 0.8712310
929.4778, 0.1606030
929.9600, 0.5104480
930.4421, 0.4089320
930.9242, 3.5457999E-02
931.4063, 0.1333540
931.8884, 0.1601720
932.3705, 0.5052300
932.8527, 0.7275430
933.3348, 0.8150440
933.8169, 0.6797260
934.2990, 0.4143370
934.7811, 0.2663310
935.2632, 0.2398800
935.7454, 0.3029670
936.2275, 0.4459190
936.7096, 0.5385090
937.1917, 0.4356920
937.6738, 0.2052760
938.1559, 0.1089400
938.6381, 0.1592060
939.1202, 0.2580800
939.6023, 0.4169500
940.0844, 0.5654140
940.5665, 0.7101520
941.0486, 0.7670250
941.5308, 0.5880090
942.0129, 0.1518630
942.4950, 0.3039550
942.9771, 1.102615
943.4592, 1.428986
943.9413, 0.6681750
944.4235, 9.0672001E-02
944.9056, 0.1295050
945.3877, 0.3230550
945.8698, 0.7639690
946.3519, 1.143764
946.8340, 1.448444
947.3162, 1.597515
947.7983, 1.758915
948.2804, 2.145004
948.7625, 2.506908
949.2446, 2.431591
949.7267, 2.026657
950.2089, 1.915371
950.6910, 2.487755
951.1731, 3.012531
951.6552, 2.679249
952.1373, 2.147202
952.6194, 2.296486
953.1016, 2.940975
953.5837, 3.505882
954.0658, 3.826546
954.5479, 4.096066
955.0300, 4.497208
955.5121, 4.935085
955.9943, 5.293018
956.4764, 5.543316
956.9585, 5.515099
957.4406, 5.212055
957.9227, 4.904057
958.4048, 4.709267
958.8870, 4.629791
959.3691, 4.647591
959.8512, 4.784607
960.3333, 5.334476
960.8154, 6.406712
961.2975, 6.967697
961.7797, 6.695084
962.2618, 6.353081
962.7439, 6.333988
963.2260, 6.703831
963.7081, 7.725128
964.1902, 9.696224
964.6724, 10.69113
965.1545, 9.912235
965.6366, 9.479790
966.1187, 10.12026
966.6008, 11.05858
967.0829, 11.76458
967.5651, 12.29144
968.0472, 12.80540
968.5293, 13.34750
969.0114, 13.79607
969.4935, 14.04675
969.9756, 14.30619
970.4578, 14.66767
970.9399, 15.08862
971.4220, 15.44658
971.9041, 15.79821
972.3862, 16.44924
972.8683, 17.71843
973.3505, 18.84011
973.8326, 19.42451
974.3147, 19.69174
974.7968, 19.81384
975.2789, 19.78318
975.7610, 19.38825
976.2432, 18.68602
976.7253, 18.31519
977.2074, 18.93438
977.6895, 19.63894
978.1716, 19.32935
978.6537, 18.48203
979.1359, 17.84377
979.6180, 17.44258
980.1001, 17.11684
980.5822, 16.80759
981.0643, 16.35960
981.5464, 15.47930
982.0286, 14.57264
982.5107, 14.59552
982.9928, 15.36896
983.4749, 16.09475
983.9570, 16.65529
984.4391, 17.11602
984.9213, 17.48940
985.4034, 18.01391
985.8855, 19.09679
986.3676, 20.65517
986.8497, 21.87854
987.3318, 22.71095
987.8140, 23.72831
988.2961, 25.09795
988.7782, 26.77861
989.2603, 28.87923
989.7424, 30.91763
990.2245, 31.83385
990.7067, 31.40422
991.1888, 31.78372
991.6709, 33.17841
992.1530, 34.95309
992.6351, 36.97447
993.1172, 39.31465
993.5994, 42.25562
994.0815, 45.50794
994.5636, 48.15683
995.0457, 49.95862
995.5278, 51.89209
996.0099, 53.70173
996.4921, 55.96034
996.9742, 59.19449
997.4563, 62.60830
997.9384, 65.47475
998.4205, 67.95584
998.9026, 70.69588
999.3848, 73.99916
999.8669, 77.00994
1000.349, 80.05828
1000.831, 82.14625
1001.313, 82.27403
1001.795, 81.56155
1002.277, 81.35497
1002.760, 81.54307
1003.242, 80.96426
1003.724, 79.02319
1004.206, 76.83831
1004.688, 75.08517
1005.170, 73.11913
1005.652, 70.04310
1006.134, 66.62766
1006.617, 64.05779
1007.099, 62.42242
1007.581, 60.97482
1008.063, 59.33935
1008.545, 57.82294
1009.027, 56.86735
1009.509, 55.94484
1009.991, 54.18037
1010.473, 52.07545
1010.956, 50.84122
1011.438, 50.69588
1011.920, 50.94675
1012.402, 51.21255
1012.884, 51.45756
1013.366, 51.59335
1013.848, 51.68201
1014.330, 51.66339
1014.813, 51.70757
1015.295, 52.54016
1015.777, 54.28971
1016.259, 55.84416
1016.741, 56.11162
1017.223, 57.55690
1017.705, 57.01524
1018.187, 58.92815
1018.669, 59.80916
1019.152, 59.61838
1019.634, 59.44113
1020.116, 59.67172
1020.598, 59.49064
1021.080, 58.00343
1021.562, 55.58746
1022.044, 53.31910
1022.526, 51.15878
1023.008, 48.75555
1023.491, 46.07043
1023.973, 42.91451
1024.455, 39.13794
1024.937, 35.58448
1025.419, 33.33878
1025.901, 32.03786
1026.383, 29.82871
1026.865, 26.60199
1027.348, 24.17457
1027.830, 22.78178
1028.312, 21.84711
1028.794, 21.21386
1029.276, 20.57617
1029.758, 19.52446
1030.240, 18.12549
1030.722, 16.93245
1031.204, 15.94621
1031.687, 15.16519
1032.169, 14.54068
1032.651, 14.31888
1033.133, 14.82343
1033.615, 15.41504
1034.097, 15.17507
1034.579, 14.18372
1035.061, 13.70067
1035.544, 13.88939
1036.026, 14.16861
1036.508, 14.49103
1036.990, 14.91140
1037.472, 15.55008
1037.954, 16.19992
1038.436, 16.58388
1038.918, 16.70864
1039.401, 16.77435
1039.883, 16.69186
1040.365, 16.71289
1040.847, 16.79679
1041.329, 17.06340
1041.811, 17.76495
1042.293, 18.54679
1042.775, 18.92922
1043.257, 18.92146
1043.740, 18.92084
1044.222, 19.00686
1044.704, 18.97793
1045.186, 18.88302
1045.668, 18.60285
1046.150, 17.91651
1046.632, 17.12400
1047.114, 16.68618
1047.596, 16.56464
1048.079, 16.08601
1048.561, 14.96070
1049.043, 13.82943
1049.525, 12.69564
1050.007, 11.65414
1050.489, 10.80476
1050.971, 10.03113
1051.453, 9.157059
1051.936, 8.439911
1052.418, 7.413326
1052.900, 6.988068
1053.382, 6.459713
1053.864, 5.732449
1054.346, 4.880985
1054.828, 3.687347
1055.310, 2.560452
1055.792, 2.120255
1056.275, 2.264553
1056.757, 2.147324
1057.239, 1.357876
1057.721, 0.7633780
1058.203, 0.7899130
1058.685, 0.8549920
1059.167, 0.5915150
1059.649, 0.2297940
1060.131, 2.0103000E-02
1060.614, 3.2210998E-02
1061.096, 2.9170999E-02
1061.578, 0.3354450
1062.060, 0.4360500
1062.542, 1.8690000E-03
1063.024, 0.4789430
1063.506, 0.8235820
1063.988, 0.9961240
1064.471, 0.8501820
1064.953, 0.5061450
1065.435, 0.4483720
1065.917, 0.9776990
1066.399, 1.179653
1066.881, 0.1652180
1067.363, 0.6688730
1067.845, 0.2111820
1068.328, 0.6353190
1068.810, 0.9394720
1069.292, 0.6882740
1069.774, 0.1095580
1070.256, 0.8350330
1070.738, 1.411587
1071.220, 0.8677060
1071.702, 0.3840600
1072.184, 0.7997550
1072.667, 1.511871
1073.149, 1.824692
1073.631, 1.829590
1074.113, 2.003281
1074.595, 2.537312
1075.077, 3.124783
1075.559, 3.776794
1076.041, 4.288612
1076.523, 4.252903
1077.006, 4.221252
1077.488, 4.740261
1077.970, 5.689968
1078.452, 6.840382
1078.934, 8.142525
1079.416, 9.080273
1079.898, 9.134377
1080.380, 9.143745
1080.862, 9.524113
1081.345, 10.09740
1081.827, 10.64666
1082.309, 11.28484
1082.791, 12.31628
1083.273, 13.75392
1083.755, 14.95183
1084.237, 15.54277
1084.719, 15.98521
1085.202, 16.47764
1085.684, 16.92633
1086.166, 17.05980
1086.648, 17.21848
1087.130, 18.05441
1087.612, 19.48925
1088.094, 20.57681
1088.576, 20.80888
1089.058, 21.08091
1089.541, 21.81938
1090.023, 22.75194
1090.505, 24.00734
1090.987, 25.03568
1091.469, 25.06543
1091.951, 24.25797
1092.433, 23.53112
1092.915, 23.18818
1093.397, 22.87345
1093.880, 22.65245
1094.362, 22.19063
1094.844, 21.07327
1095.326, 19.77416
1095.808, 18.90649
1096.290, 18.33949
1096.772, 17.42501
1097.254, 15.87272
1097.737, 14.59239
1098.219, 14.21578
1098.701, 13.79100
1099.183, 12.73646
1099.665, 11.58056
1100.147, 10.86470
1100.629, 10.41151
1101.111, 9.772041
1101.594, 8.861965
1102.076, 7.903049
1102.558, 6.777626
1103.040, 5.777946
1103.522, 5.014805
1104.004, 4.432022
1104.486, 4.015491
1104.968, 3.736916
1105.450, 3.623211
1105.932, 3.667732
1106.415, 3.605663
1106.897, 3.304482
1107.379, 3.007797
1107.861, 2.774368
1108.343, 2.543732
1108.825, 2.153931
1109.307, 1.836765
1109.789, 2.056293
1110.272, 2.682701
1110.754, 2.733070
1111.236, 1.673386
1111.718, 0.9092290
1112.200, 0.6560670
1112.682, 0.5921360
1113.164, 0.7370150
1113.646, 0.9135170
1114.129, 0.9204220
1114.611, 0.8304980
1115.093, 0.9389610
1115.575, 0.8493040
1116.057, 0.5860100
1116.539, 0.7040600
1117.021, 8.8802002E-02
1117.503, 0.1329080
1117.985, 6.9443002E-02
1118.468, 0.4125250
1118.950, 1.018761
1119.432, 1.150482
1119.914, 0.7582240
1120.396, 0.4878270
1120.878, 0.3449400
1121.360, 0.2826270
1121.842, 0.3233530
1122.324, 0.4352760
1122.807, 0.3803630
1123.289, 0.8990020
1123.771, 0.4015080
1124.253, 0.5872340
1124.735, 0.7393800
1125.217, 0.4197670
1125.699, 1.021545
1126.181, 0.9109340
1126.664, 0.4533330
1127.146, 0.4004570
1127.628, 1.010962
1128.110, 0.7068690
1128.592, 0.1400830
1129.074, 0.4116630
1129.556, 4.4256002E-02
1130.038, 0.2920210
1130.521, 0.6513200
1131.003, 0.4612350
1131.485, 0.5269320
1131.967, 1.274405
1132.449, 1.081573
1132.931, 0.3904500
1133.413, 0.1440430
1133.895, 0.5045600
1134.377, 0.5385570
1134.859, 0.2538240
1135.342, 0.1624470
1135.824, 0.6787680
1136.306, 0.8982850
1136.788, 0.6382430
1137.270, 0.3215270
1137.752, 0.4289400
1138.234, 0.2570320
1138.716, 0.1751460
1139.199, 0.2804570
1139.681, 0.1503280
1140.163, 0.2685720
1140.645, 0.5107190
1141.127, 0.8156240
1141.609, 1.015070
1142.091, 0.9884590
1142.573, 0.8249470
1143.056, 0.6324670
1143.538, 0.4012150
1144.020, 6.0853999E-02
1144.502, 0.5313030
1144.984, 0.2370680
1145.466, 0.6767080
1145.948, 1.128628
1146.430, 0.6644330
1146.912, 5.9128001E-02
1147.395, 0.7201420
1147.877, 1.052509
1148.359, 0.4736230
1148.841, 0.4324530
1149.323, 0.8468340
1149.805, 0.8788200
1150.287, 0.9556350
1150.769, 1.160370
1151.251, 1.254131
1151.734, 1.048531
1152.216, 0.8637870
1152.698, 1.070852
1153.180, 1.224150
1153.662, 0.7615200
1154.144, 0.1500550
1154.626, 2.8208001E-02
1155.108, 0.2494200
1155.591, 0.8281350
1156.073, 1.780222
1156.555, 2.289112
1157.037, 1.586613
1157.519, 1.032831
1158.001, 1.544561
1158.483, 2.059307
1158.965, 1.426025
1159.448, 0.3838010
1159.930, 0.4227770
1160.412, 1.635565
1160.894, 2.269176
1161.376, 1.559605
1161.858, 1.168730
1162.340, 1.555408
1162.822, 1.864529
1163.304, 1.566807
1163.786, 1.280270
1164.269, 1.728222
1164.751, 2.622829
1165.233, 2.962360
1165.715, 2.631495
1166.197, 2.218170
1166.679, 1.608070
1167.161, 1.258131
1167.643, 1.338453
1168.126, 1.466917
1168.608, 1.391850
1169.090, 1.306046
1169.572, 1.532518
1170.054, 2.004833
1170.536, 2.253922
1171.018, 2.275043
1171.500, 2.254690
1171.983, 2.208345
1172.465, 2.083363
1172.947, 1.852032
1173.429, 1.783224
1173.911, 2.146469
1174.393, 2.617252
1174.875, 2.431158
1175.357, 2.692019
1175.839, 2.723158
1176.322, 2.547619
1176.804, 2.666622
1177.286, 2.203108
1177.768, 1.909481
1178.250, 2.121000
1178.732, 2.349806
1179.214, 2.050434
1179.696, 2.160183
1180.178, 1.665764
1180.661, 1.890062
1181.143, 1.733116
1181.625, 1.418428
1182.107, 1.671801
1182.589, 2.473684
1183.071, 2.887573
1183.553, 2.365799
1184.035, 1.810188
1184.518, 1.706234
1185.000, 1.828028
1185.482, 2.273802
1185.964, 2.734303
1186.446, 2.828373
1186.928, 2.631227
1187.410, 2.460217
1187.892, 2.365086
1188.375, 2.221024
1188.857, 1.992943
1189.339, 1.844076
1189.821, 1.775200
1190.303, 1.721975
1190.785, 1.519203
1191.267, 1.398300
1191.749, 1.809540
1192.231, 2.544325
1192.714, 2.694311
1193.196, 2.034378
1193.678, 1.671427
1194.160, 1.580330
1194.642, 1.858170
1195.124, 2.715269
1195.606, 3.384094
1196.088, 3.403465
1196.570, 2.980206
1197.053, 2.308716
1197.535, 1.520910
1198.017, 1.459608
1198.499, 2.098385
1198.981, 2.272341
1199.463, 1.926760
1199.945, 1.748623
1200.427, 1.926008
1200.910, 2.038582
1201.392, 1.750757
1201.874, 1.342564
1202.356, 1.216614
1202.838, 1.318750
1203.320, 1.494694
1203.802, 1.692087
1204.284, 1.960857
1204.766, 2.180325
1205.249, 1.884420
1205.731, 1.056101
1206.213, 0.6919860
1206.695, 1.621693
1207.177, 2.599783
1207.659, 2.677122
1208.141, 2.405981
1208.623, 2.206427
1209.105, 1.997849
1209.588, 1.484049
1210.070, 0.8545630
1210.552, 0.8108480
1211.034, 1.604815
1211.516, 1.890440
1211.998, 0.7546770
1212.480, 6.7377001E-02
1212.962, 1.2110000E-03
1213.445, 0.3468800
1213.927, 0.8478220
1214.409, 1.284307
1214.891, 1.359182
1215.373, 1.176769
1215.855, 1.233873
1216.337, 1.589249
1216.819, 1.937298
1217.302, 2.340580
1217.784, 2.374752
1218.266, 1.894381
1218.748, 1.428251
1219.230, 1.228937
1219.712, 1.212717
1220.194, 1.264988
1220.676, 1.361925
1221.158, 1.446365
1221.641, 1.507875
1222.123, 1.444468
1222.605, 1.297680
1223.087, 1.366640
1223.569, 1.673454
1224.051, 1.806248
1224.533, 1.521917
1225.015, 1.277828
1225.497, 1.845154
1225.980, 2.407146
1226.462, 1.573788
1226.944, 0.4639320
1227.426, 0.6909240
1227.908, 1.778721
1228.390, 2.651075
1228.872, 3.064701
1229.354, 3.075829
1229.837, 2.562979
1230.319, 2.008017
1230.801, 1.581614
1231.283, 1.138407
1231.765, 0.3790150
1232.247, 0.1875250
1232.729, 3.9767999E-02
1233.211, 0.5219960
1233.693, 0.9482630
1234.176, 1.245083
1234.658, 1.611433
1235.140, 2.163826
1235.622, 2.394203
1236.104, 2.197355
1236.586, 2.004946
1237.068, 1.920143
1237.550, 1.992655
1238.032, 2.303953
1238.515, 2.578693
1238.997, 2.258070
1239.479, 1.576761
1239.961, 1.544329
1240.443, 1.981308
1240.925, 2.146601
1241.407, 1.978479
1241.889, 1.471077
1242.372, 0.7147900
1242.854, 0.3395880
1243.336, 0.7801910
1243.818, 1.364019
1244.300, 1.512114
1244.782, 1.441526
1245.264, 1.253048
1245.746, 1.065060
1246.229, 1.005054
1246.711, 1.052237
1247.193, 1.178019
1247.675, 1.355703
1248.157, 1.473473
1248.639, 1.448053
1249.121, 1.465809
1249.603, 1.713715
1250.085, 1.712788
1250.568, 0.9928260
1251.050, 0.4139160
1251.532, 0.6413560
1252.014, 1.291739
1252.496, 1.760551
1252.978, 2.047422
1253.460, 2.189890
1253.942, 2.206591
1254.424, 1.758512
1254.907, 0.7960430
1255.389, 0.3944400
1255.871, 0.8404100
1256.353, 1.349079
1256.835, 1.418602
1257.317, 1.171879
1257.799, 0.5072610
1258.281, 0.1382790
1258.764, 0.2326010
1259.246, 1.073120
1259.728, 1.420315
1260.210, 1.463074
1260.692, 1.386349
1261.174, 1.316458
1261.656, 1.612524
1262.138, 2.564232
1262.620, 3.081760
1263.103, 2.203966
1263.585, 1.395718
1264.067, 1.452518
1264.549, 1.651491
1265.031, 1.472494
1265.513, 1.138390
1265.995, 0.9124570
1266.477, 0.7924960
1266.959, 0.7633500
1267.442, 0.7355140
1267.924, 0.9118350
1268.406, 0.9269980
1268.888, 1.039852
1269.370, 1.318789
1269.852, 1.451975
1270.334, 1.259148
1270.816, 1.076214
1271.299, 1.309059
1271.781, 1.662680
1272.263, 1.332054
1272.745, 0.6108320
1273.227, 0.5608440
1273.709, 0.8994900
1274.191, 1.095263
1274.673, 1.049974
1275.156, 0.6550460
1275.638, 6.9367997E-02
1276.120, 0.2603450
1276.602, 1.022110
1277.084, 2.113787
1277.566, 2.080435
1278.048, 1.750570
1278.530, 1.446259
1279.012, 1.238085
1279.495, 1.231169
1279.977, 1.329138
1280.459, 1.341362
1280.941, 1.240568
1281.423, 0.8326950
1281.905, 0.9821340
1282.387, 0.8351550
1282.869, 0.2564580
1283.351, 1.1133000E-02
1283.834, 0.2656000
1284.316, 0.7636950
1284.798, 1.139891
1285.280, 1.057962
1285.762, 0.6906970
1286.244, 0.0000000E+00
##END=



