##NAMES=Aminoffite
##RRUFFID=R100055
##IDEAL CHEMISTRY=Ca_3_(BeOH)_2_Si_3_O_10_
##LOCALITY=Langban, Filipstad, Varmland, Sweden
##OWNER=RRUFF
##SOURCE=William W Pinch
##DESCRIPTION=Colorless transparent tetragonal pyramids with basal terminations, co-type sample from Harvard
##STATUS=The identification of this mineral has been confirmed by single-crystal X-ray diffraction.
##URL=rruff.info/R100055
91.53320, 0.0000000E+00
92.01532, 2.080414
92.49744, 4.756805
92.97955, 11.59978
93.46167, 18.40489
93.94379, 21.29138
94.42590, 21.29623
94.90802, 19.94542
95.39014, 18.56848
95.87225, 17.00240
96.35437, 15.19051
96.83649, 13.27968
97.31860, 10.28680
97.80072, 7.253998
98.28284, 5.245728
98.76495, 4.157669
99.24707, 3.520508
99.72919, 3.276550
100.2113, 2.720566
100.6934, 1.633636
101.1755, 0.3308260
101.6577, 0.6258390
102.1398, 0.7633510
102.6219, 0.2117770
103.1040, 0.8957060
103.5861, 3.960648
104.0682, 7.721497
104.5504, 9.600143
105.0325, 9.491287
105.5146, 8.178558
105.9967, 6.781952
106.4788, 5.385696
106.9609, 4.658798
107.4431, 4.992386
107.9252, 5.959579
108.4073, 7.111557
108.8894, 8.558029
109.3715, 9.928482
109.8536, 10.71034
110.3358, 11.04613
110.8179, 10.68042
111.3000, 9.075699
111.7821, 6.407867
112.2642, 3.999664
112.7463, 2.237732
113.2285, 1.124603
113.7106, 0.8128810
114.1927, 1.549683
114.6748, 2.491898
115.1569, 2.327454
115.6390, 0.4863740
116.1212, 0.9139860
116.6033, 1.180817
117.0854, 0.8661350
117.5675, 0.4861300
118.0496, 0.3085940
118.5317, 0.2774350
119.0139, 3.4317002E-02
119.4960, 0.9658660
119.9781, 1.887878
120.4602, 2.598297
120.9423, 3.234207
121.4244, 4.017868
121.9066, 5.120255
122.3887, 6.555481
122.8708, 8.153397
123.3529, 9.904114
123.8350, 11.78024
124.3171, 14.02393
124.7993, 16.52327
125.2814, 18.71709
125.7635, 20.10770
126.2456, 20.62021
126.7277, 20.33878
127.2098, 18.56377
127.6920, 16.30391
128.1741, 14.65298
128.6562, 13.59682
129.1383, 13.06291
129.6204, 13.49992
130.1025, 14.82178
130.5847, 16.20616
131.0668, 17.15923
131.5489, 17.67830
132.0310, 18.16560
132.5131, 19.03168
132.9952, 20.09092
133.4774, 20.96837
133.9595, 21.49427
134.4416, 21.94735
134.9237, 22.50358
135.4058, 23.19907
135.8879, 23.83413
136.3701, 24.59516
136.8522, 25.15996
137.3343, 25.41000
137.8164, 25.32225
138.2985, 24.78650
138.7806, 23.47823
139.2628, 20.61117
139.7449, 18.41983
140.2270, 17.23006
140.7091, 16.62262
141.1912, 16.27657
141.6733, 16.04821
142.1555, 15.92850
142.6376, 15.89602
143.1197, 15.88421
143.6018, 16.04391
144.0839, 16.20793
144.5660, 16.57478
145.0482, 17.50278
145.5303, 19.24934
146.0124, 21.69642
146.4945, 23.98892
146.9766, 25.85098
147.4587, 27.84931
147.9409, 30.19868
148.4230, 32.88585
148.9051, 35.88728
149.3872, 39.96178
149.8693, 44.32459
150.3514, 47.56738
150.8336, 49.23616
151.3157, 50.03619
151.7978, 50.35445
152.2799, 50.11073
152.7620, 50.02100
153.2441, 50.54814
153.7263, 51.60422
154.2084, 53.22015
154.6905, 55.98782
155.1726, 59.23882
155.6547, 61.69350
156.1368, 63.76401
156.6190, 64.02691
157.1011, 61.82771
157.5832, 57.61253
158.0653, 52.07745
158.5474, 45.21098
159.0295, 37.14496
159.5117, 29.64752
159.9938, 22.42010
160.4759, 16.26096
160.9580, 11.57173
161.4401, 8.190422
161.9222, 5.701935
162.4044, 3.854614
162.8865, 2.744171
163.3686, 1.625763
163.8507, 0.3285900
164.3328, 0.8453140
164.8149, 1.815544
165.2971, 2.536163
165.7792, 2.918205
166.2613, 2.841331
166.7434, 2.111732
167.2255, 1.445236
167.7076, 0.6608660
168.1898, 4.7501002E-02
168.6719, 0.1072690
169.1540, 0.2318270
169.6361, 0.7868420
170.1182, 1.194992
170.6003, 1.460068
171.0825, 1.500534
171.5646, 1.039948
172.0467, 0.4131320
172.5288, 5.4848000E-02
173.0109, 0.1199570
173.4930, 0.4290310
173.9752, 0.7414860
174.4573, 1.052628
174.9394, 1.071068
175.4215, 0.6498410
175.9036, 0.1097110
176.3857, 1.036148
176.8679, 2.198112
177.3500, 3.414299
177.8321, 4.359100
178.3142, 5.000450
178.7963, 5.686615
179.2784, 6.708923
179.7606, 8.022484
180.2427, 9.167297
180.7248, 9.856651
181.2069, 10.46278
181.6890, 11.35484
182.1711, 12.57570
182.6533, 13.80345
183.1354, 14.57740
183.6175, 14.77640
184.0996, 15.42281
184.5817, 17.19299
185.0638, 19.23313
185.5460, 21.22266
186.0281, 23.06852
186.5102, 24.53499
186.9923, 25.20596
187.4744, 24.78266
187.9565, 24.35614
188.4387, 23.99158
188.9208, 23.71155
189.4029, 23.48119
189.8850, 23.30327
190.3671, 23.29947
190.8492, 23.68759
191.3314, 24.46220
191.8135, 25.73045
192.2956, 27.64777
192.7777, 29.90580
193.2598, 32.24187
193.7419, 34.54727
194.2241, 36.89754
194.7062, 39.47055
195.1883, 42.61951
195.6704, 45.61093
196.1525, 48.33376
196.6346, 50.91304
197.1168, 53.44823
197.5989, 55.96574
198.0810, 58.53667
198.5631, 61.37697
199.0452, 64.71865
199.5273, 68.00838
200.0095, 71.18878
200.4916, 74.25359
200.9737, 77.32908
201.4558, 80.59303
201.9379, 83.68124
202.4200, 85.58878
202.9022, 86.57298
203.3843, 86.39561
203.8664, 84.70956
204.3485, 81.74431
204.8306, 78.02787
205.3127, 73.53488
205.7949, 68.67427
206.2770, 64.34058
206.7591, 60.49665
207.2412, 57.11690
207.7233, 54.28104
208.2054, 51.93341
208.6876, 49.76930
209.1697, 47.45900
209.6518, 45.49521
210.1339, 44.50484
210.6160, 44.66887
211.0981, 45.37105
211.5803, 46.26079
212.0624, 47.33694
212.5445, 48.36948
213.0266, 49.41588
213.5087, 50.26553
213.9908, 50.77690
214.4730, 50.94617
214.9551, 50.66321
215.4372, 49.71670
215.9193, 48.02238
216.4014, 46.16854
216.8836, 43.72035
217.3657, 41.51167
217.8478, 40.21286
218.3299, 39.99121
218.8120, 40.30077
219.2941, 40.45059
219.7763, 40.37756
220.2584, 40.36465
220.7405, 40.57394
221.2226, 40.79347
221.7047, 40.89146
222.1868, 40.79665
222.6690, 40.48750
223.1511, 39.86126
223.6332, 38.67473
224.1153, 37.83684
224.5974, 37.83138
225.0795, 37.96160
225.5617, 37.73112
226.0438, 36.99114
226.5259, 35.93091
227.0080, 34.82919
227.4901, 33.34167
227.9722, 32.48808
228.4544, 32.61134
228.9365, 33.11281
229.4186, 33.63958
229.9007, 34.06352
230.3828, 34.36754
230.8649, 34.51463
231.3471, 34.41772
231.8292, 34.24582
232.3113, 34.04802
232.7934, 33.77296
233.2755, 33.44684
233.7576, 33.07379
234.2398, 32.50459
234.7219, 31.54990
235.2040, 30.04259
235.6861, 28.35092
236.1682, 26.30650
236.6503, 24.17024
237.1325, 22.05486
237.6146, 20.02159
238.0967, 18.31786
238.5788, 17.38988
239.0609, 17.78135
239.5430, 17.71700
240.0252, 16.50587
240.5073, 15.12811
240.9894, 14.60598
241.4715, 15.17831
241.9536, 16.30692
242.4357, 17.32982
242.9179, 18.21175
243.4000, 19.13097
243.8821, 20.10972
244.3642, 21.12871
244.8463, 22.27366
245.3284, 23.58496
245.8106, 24.70611
246.2927, 25.15722
246.7748, 24.92602
247.2569, 24.53222
247.7390, 23.87047
248.2211, 23.15967
248.7033, 22.49194
249.1854, 21.81750
249.6675, 21.68599
250.1496, 22.94886
250.6317, 25.41172
251.1138, 27.84349
251.5960, 30.05186
252.0781, 32.07670
252.5602, 34.09094
253.0423, 36.16650
253.5244, 37.85735
254.0065, 38.86879
254.4887, 39.19761
254.9708, 38.55827
255.4529, 36.70203
255.9350, 33.90274
256.4171, 30.30517
256.8992, 25.72752
257.3813, 21.21732
257.8635, 17.42314
258.3456, 14.20907
258.8277, 11.44882
259.3098, 9.208664
259.7919, 7.371910
260.2740, 5.781654
260.7562, 4.425758
261.2383, 3.369911
261.7204, 2.912109
262.2025, 2.715141
262.6846, 2.348114
263.1667, 1.573433
263.6489, 0.7168960
264.1310, 0.2378010
264.6131, 0.1849440
265.0952, 0.2998350
265.5773, 0.4970020
266.0594, 0.7973180
266.5416, 1.242020
267.0237, 1.851501
267.5058, 2.587860
267.9879, 3.508224
268.4700, 4.716286
268.9521, 5.618256
269.4343, 5.581848
269.9164, 5.378456
270.3985, 5.587189
270.8806, 6.355751
271.3627, 7.448242
271.8448, 8.724487
272.3270, 10.30975
272.8091, 11.44497
273.2912, 11.52343
273.7733, 11.34505
274.2554, 11.36761
274.7375, 11.67184
275.2197, 12.08131
275.7018, 12.48083
276.1839, 12.91486
276.6660, 13.03746
277.1481, 12.41502
277.6302, 11.73415
278.1124, 11.38542
278.5945, 11.36629
279.0766, 11.36838
279.5587, 11.18337
280.0408, 10.84457
280.5229, 10.02232
281.0051, 8.004211
281.4872, 6.083130
281.9693, 4.921959
282.4514, 4.389801
282.9335, 3.881248
283.4156, 2.738220
283.8978, 0.9313280
284.3799, 0.1323170
284.8620, 0.2195660
285.3441, 0.6993710
285.8262, 0.8007810
286.3083, 0.6780400
286.7905, 0.7703930
287.2726, 1.516312
287.7547, 2.786461
288.2368, 3.281776
288.7189, 2.179199
289.2010, 1.239502
289.6832, 1.026810
290.1653, 1.267624
290.6474, 1.533440
291.1295, 1.587120
291.6116, 1.465523
292.0938, 1.322456
292.5759, 1.200089
293.0580, 0.9959110
293.5401, 0.5710680
294.0222, 0.1443710
294.5043, 6.0653999E-02
294.9865, 6.3789003E-02
295.4686, 0.3793330
295.9507, 0.4764020
296.4328, 5.6968998E-02
296.9149, 0.1891170
297.3970, 0.4775160
297.8792, 1.424904
298.3613, 2.115585
298.8434, 2.390129
299.3255, 2.603867
299.8076, 3.483490
300.2897, 5.574081
300.7719, 7.304054
301.2540, 8.162651
301.7361, 8.962158
302.2182, 10.12451
302.7003, 11.77946
303.1824, 13.93226
303.6646, 16.69984
304.1467, 20.32610
304.6288, 23.50526
305.1109, 25.70161
305.5930, 28.08128
306.0751, 31.37256
306.5573, 35.36092
307.0394, 39.25685
307.5215, 42.37389
308.0036, 44.71838
308.4857, 47.11660
308.9678, 49.66346
309.4500, 52.15669
309.9321, 54.35541
310.4142, 56.48610
310.8963, 58.96268
311.3784, 62.07472
311.8605, 65.77615
312.3427, 69.68355
312.8248, 74.10384
313.3069, 78.39293
313.7890, 82.26467
314.2711, 86.01721
314.7532, 90.04523
315.2354, 94.51536
315.7175, 99.39229
316.1996, 104.5535
316.6817, 110.2342
317.1638, 115.8875
317.6459, 120.9048
318.1281, 126.1573
318.6102, 132.4677
319.0923, 140.0760
319.5744, 148.5000
320.0565, 157.0685
320.5386, 166.1134
321.0208, 174.4677
321.5029, 182.3546
321.9850, 189.4432
322.4671, 195.8023
322.9492, 201.3028
323.4313, 205.4597
323.9135, 207.9333
324.3956, 208.8643
324.8777, 207.2033
325.3598, 202.8650
325.8419, 196.0021
326.3240, 185.4813
326.8062, 172.2306
327.2883, 158.3007
327.7704, 144.9812
328.2525, 132.3331
328.7346, 120.9543
329.2167, 111.0821
329.6989, 102.3352
330.1810, 95.11597
330.6631, 88.80985
331.1452, 82.61157
331.6273, 76.06973
332.1094, 69.38885
332.5916, 63.21967
333.0737, 57.78325
333.5558, 52.52672
334.0379, 47.22885
334.5200, 42.08096
335.0021, 37.25474
335.4843, 32.79428
335.9664, 28.79478
336.4485, 25.48383
336.9306, 23.00153
337.4127, 20.78316
337.8948, 18.80894
338.3770, 17.03397
338.8591, 15.45388
339.3412, 14.05408
339.8233, 12.81886
340.3055, 11.68192
340.7876, 10.62370
341.2697, 9.919945
341.7518, 10.06585
342.2339, 10.09429
342.7160, 9.522018
343.1982, 8.524910
343.6803, 7.557655
344.1624, 6.908012
344.6445, 6.538841
345.1266, 6.318268
345.6087, 6.543129
346.0909, 6.406158
346.5730, 5.418953
347.0551, 4.056877
347.5372, 2.887199
348.0193, 2.110451
348.5014, 1.685425
348.9836, 1.660995
349.4657, 2.272736
349.9478, 2.490517
350.4299, 1.635620
350.9120, 0.5342030
351.3941, 0.2093580
351.8763, 0.4839710
352.3584, 0.6278760
352.8405, 1.083214
353.3226, 1.872757
353.8047, 2.211075
354.2868, 1.552948
354.7690, 0.8717960
355.2511, 0.9148330
355.7332, 1.526520
356.2153, 1.980751
356.6974, 1.560493
357.1795, 0.5631640
357.6617, 0.2471850
358.1438, 0.9778750
358.6259, 1.658730
359.1080, 1.557076
359.5901, 1.021889
360.0722, 0.6058430
360.5544, 0.5769200
361.0365, 0.6687620
361.5186, 0.3690410
362.0007, 0.4190370
362.4828, 0.7891310
362.9649, 0.1556320
363.4471, 1.411400
363.9292, 1.756401
364.4113, 0.9068910
364.8934, 0.1269530
365.3755, 0.5505830
365.8576, 0.4695130
366.3398, 0.4855270
366.8219, 0.8187790
367.3040, 1.160934
367.7861, 1.129227
368.2682, 0.7639850
368.7503, 0.4738690
369.2325, 0.3593060
369.7146, 0.4407880
370.1967, 0.8461690
370.6788, 1.647339
371.1609, 2.382515
371.6430, 2.488922
372.1252, 2.228790
372.6073, 2.480804
373.0894, 4.056686
373.5715, 5.625755
374.0536, 5.896355
374.5357, 5.085686
375.0179, 4.496284
375.5000, 4.767754
375.9821, 5.654839
376.4642, 6.604721
376.9463, 7.765480
377.4284, 8.649796
377.9106, 8.808144
378.3927, 8.627487
378.8748, 8.910400
379.3569, 9.931725
379.8390, 10.95260
380.3211, 10.88347
380.8033, 9.442429
381.2854, 8.582893
381.7675, 9.064613
382.2496, 9.737503
382.7317, 9.641945
383.2138, 8.770287
383.6960, 7.718681
384.1781, 6.875488
384.6602, 6.264961
385.1423, 6.017700
385.6244, 6.351135
386.1065, 6.727859
386.5887, 6.984039
387.0708, 7.161713
387.5529, 7.361214
388.0350, 7.630051
388.5171, 7.896202
388.9992, 7.980721
389.4814, 7.277222
389.9635, 7.382591
390.4456, 8.889114
390.9277, 10.79826
391.4098, 12.40523
391.8919, 13.56008
392.3741, 14.41496
392.8562, 15.08949
393.3383, 15.54725
393.8204, 16.12965
394.3025, 17.00503
394.7846, 17.82419
395.2668, 18.22525
395.7489, 18.51056
396.2310, 19.32406
396.7131, 21.10100
397.1952, 23.45782
397.6773, 25.02411
398.1595, 25.15428
398.6416, 25.54747
399.1237, 26.58468
399.6058, 27.84453
400.0879, 29.03291
400.5700, 30.05783
401.0522, 30.89998
401.5343, 31.40646
402.0164, 31.43229
402.4985, 31.98786
402.9806, 33.57388
403.4627, 35.28273
403.9449, 36.72575
404.4270, 37.97130
404.9091, 39.24840
405.3912, 40.65800
405.8733, 42.21970
406.3554, 44.01274
406.8376, 46.14285
407.3197, 48.28446
407.8018, 50.59225
408.2839, 52.70853
408.7660, 54.23994
409.2481, 55.07593
409.7303, 55.32370
410.2124, 54.87219
410.6945, 53.75451
411.1766, 52.80746
411.6587, 52.48296
412.1408, 52.14513
412.6230, 51.11801
413.1051, 49.43652
413.5872, 47.60567
414.0693, 45.67094
414.5514, 43.86026
415.0335, 42.54540
415.5157, 41.72582
415.9978, 41.01658
416.4799, 40.16132
416.9620, 39.34063
417.4441, 38.96127
417.9262, 39.47600
418.4084, 39.80755
418.8905, 39.49271
419.3726, 38.55787
419.8547, 36.90251
420.3368, 34.33784
420.8189, 31.31902
421.3011, 28.67709
421.7832, 26.60475
422.2653, 24.44682
422.7474, 22.12538
423.2295, 19.66688
423.7116, 16.87862
424.1938, 13.87292
424.6759, 11.25191
425.1580, 9.521469
425.6401, 8.615517
426.1222, 7.435493
426.6043, 5.388954
427.0865, 3.800232
427.5686, 3.334778
428.0507, 3.438942
428.5328, 3.285133
429.0149, 2.545044
429.4970, 1.569000
429.9792, 0.9787830
430.4613, 0.9656070
430.9434, 0.9453200
431.4255, 0.8802950
431.9076, 0.8314360
432.3897, 0.8571400
432.8719, 0.9356460
433.3540, 0.9922870
433.8361, 0.9688720
434.3182, 0.8730240
434.8003, 0.7548290
435.2824, 0.6044540
435.7646, 0.4469450
436.2467, 0.2088700
436.7288, 5.1420000E-03
437.2109, 1.1574000E-02
437.6930, 0.2862700
438.1751, 0.5834730
438.6573, 0.5538480
439.1394, 0.1681370
439.6215, 0.1510620
440.1036, 0.4282680
440.5857, 0.5235520
441.0678, 0.3260650
441.5500, 0.1205670
442.0321, 0.6461330
442.5142, 1.139984
442.9963, 1.669037
443.4784, 2.386383
443.9605, 3.312416
444.4427, 4.277275
444.9248, 5.271385
445.4069, 6.219398
445.8890, 6.916489
446.3711, 7.180367
446.8532, 7.680695
447.3354, 8.921349
447.8175, 10.63422
448.2996, 12.24843
448.7817, 13.62785
449.2638, 14.96812
449.7459, 16.45135
450.2281, 18.08098
450.7102, 19.75576
451.1923, 21.39948
451.6744, 23.26109
452.1565, 25.59909
452.6386, 28.17817
453.1208, 30.40518
453.6029, 31.99937
454.0850, 33.25598
454.5671, 34.98010
455.0492, 37.82175
455.5313, 40.25561
456.0135, 41.91731
456.4956, 43.40065
456.9777, 45.15034
457.4598, 47.24355
457.9419, 49.58734
458.4240, 52.13716
458.9062, 54.89244
459.3883, 57.57248
459.8704, 59.80530
460.3525, 62.42238
460.8346, 65.85605
461.3167, 69.68036
461.7989, 73.37040
462.2810, 76.74239
462.7631, 79.91721
463.2452, 82.95443
463.7273, 85.73396
464.2094, 89.12256
464.6916, 94.02461
465.1737, 98.80468
465.6558, 102.4679
466.1379, 105.1636
466.6200, 107.6430
467.1021, 110.4371
467.5843, 113.2238
468.0664, 115.5466
468.5485, 117.5152
469.0306, 118.2679
469.5127, 117.2188
469.9948, 114.7385
470.4770, 111.6172
470.9591, 107.9285
471.4412, 103.4151
471.9233, 97.75099
472.4054, 91.21786
472.8875, 84.17957
473.3697, 76.65814
473.8518, 69.24759
474.3339, 62.43205
474.8160, 56.26960
475.2981, 50.55908
475.7802, 45.21953
476.2624, 40.41997
476.7445, 36.26499
477.2266, 32.67141
477.7087, 29.53712
478.1908, 26.79657
478.6729, 24.41957
479.1551, 22.34145
479.6372, 20.44080
480.1193, 19.17799
480.6014, 19.02480
481.0835, 18.99001
481.5656, 18.52705
482.0478, 17.70141
482.5299, 16.79516
483.0120, 15.94396
483.4941, 15.25066
483.9762, 15.19631
484.4583, 16.16401
484.9405, 16.99611
485.4226, 17.33033
485.9047, 17.54827
486.3868, 17.87550
486.8689, 18.36591
487.3510, 19.06039
487.8332, 20.13705
488.3153, 21.48121
488.7974, 22.54833
489.2795, 23.25911
489.7616, 23.83482
490.2437, 24.54688
490.7259, 25.17587
491.2080, 25.37082
491.6901, 25.10081
492.1722, 24.31674
492.6543, 22.73922
493.1364, 20.60649
493.6186, 18.62825
494.1007, 16.98949
494.5828, 15.44076
495.0649, 13.65316
495.5470, 11.58936
496.0291, 9.774239
496.5113, 8.191078
496.9934, 6.882599
497.4755, 6.060204
497.9576, 5.517845
498.4397, 4.759537
498.9218, 3.549286
499.4040, 2.137756
499.8861, 1.078300
500.3682, 0.4660340
500.8503, 7.7918999E-02
501.3324, 0.1010820
501.8145, 0.1596980
502.2967, 1.7487001E-02
502.7788, 0.3036350
503.2609, 0.6596910
503.7430, 0.9677810
504.2251, 1.216660
504.7072, 1.349083
505.1894, 1.322685
505.6715, 1.276985
506.1536, 1.294868
506.6357, 1.277092
507.1178, 1.025360
507.5999, 0.5482250
508.0821, 0.3057330
508.5642, 1.019737
509.0463, 2.222122
509.5284, 2.451622
510.0105, 1.486481
510.4926, 0.1375270
510.9748, 1.367981
511.4569, 2.829857
511.9390, 3.785629
512.4211, 3.967850
512.9032, 4.074249
513.3853, 4.194412
513.8674, 4.531479
514.3495, 5.604401
514.8317, 7.533592
515.3138, 9.551208
515.7959, 10.84071
516.2780, 11.33584
516.7601, 12.14964
517.2422, 13.57005
517.7244, 14.93598
518.2065, 15.90937
518.6886, 16.72887
519.1707, 17.75919
519.6528, 19.12400
520.1349, 20.66376
520.6171, 22.18829
521.0992, 23.78662
521.5813, 25.00577
522.0634, 25.25195
522.5455, 25.70648
523.0276, 26.82405
523.5098, 28.45836
523.9919, 30.32800
524.4740, 32.37458
524.9561, 34.43868
525.4382, 36.21954
525.9203, 37.69718
526.4025, 39.51071
526.8846, 41.97007
527.3667, 44.57880
527.8488, 46.91242
528.3309, 48.99036
528.8130, 50.96278
529.2952, 53.22638
529.7773, 55.13127
530.2594, 55.72873
530.7415, 55.31973
531.2236, 55.49085
531.7057, 57.15302
532.1879, 59.15099
532.6700, 59.23283
533.1521, 56.57856
533.6342, 53.69516
534.1163, 50.51154
534.5984, 47.21828
535.0806, 43.75671
535.5627, 40.28653
536.0448, 37.20252
536.5269, 34.79107
537.0090, 32.81695
537.4911, 30.61182
537.9733, 28.06034
538.4554, 25.48138
538.9375, 22.49086
539.4196, 19.82873
539.9017, 18.05493
540.3839, 17.07386
540.8660, 16.34677
541.3481, 15.73047
541.8302, 15.02194
542.3123, 13.52238
542.7944, 11.07954
543.2766, 9.242424
543.7587, 8.925629
544.2408, 9.298874
544.7229, 9.077469
545.2050, 8.173370
545.6871, 7.490753
546.1693, 7.350441
546.6514, 7.580292
547.1335, 8.141487
547.6156, 8.951187
548.0977, 9.624313
548.5798, 9.901489
549.0620, 9.911606
549.5441, 10.08841
550.0262, 10.27869
550.5083, 10.87217
550.9904, 11.96973
551.4725, 13.39740
551.9547, 15.23281
552.4368, 17.31145
552.9189, 19.18462
553.4010, 20.47057
553.8831, 21.33016
554.3652, 22.40614
554.8474, 23.80835
555.3295, 25.13878
555.8116, 26.02580
556.2937, 27.00192
556.7758, 28.50047
557.2579, 30.51558
557.7401, 32.66456
558.2222, 34.81802
558.7043, 36.92258
559.1864, 38.83015
559.6685, 40.52307
560.1506, 42.40173
560.6328, 44.65588
561.1149, 47.17563
561.5970, 49.79881
562.0791, 52.52404
562.5612, 55.30279
563.0433, 57.87216
563.5255, 60.68834
564.0076, 64.29568
564.4897, 68.54866
564.9718, 72.82256
565.4539, 76.71352
565.9360, 81.74084
566.4182, 85.14729
566.9003, 91.37800
567.3824, 96.87646
567.8645, 101.6343
568.3466, 105.7889
568.8287, 109.5508
569.3109, 112.7178
569.7930, 114.6197
570.2751, 114.8235
570.7572, 113.5904
571.2393, 111.3891
571.7214, 108.1842
572.2036, 103.9600
572.6857, 98.51365
573.1678, 92.26962
573.6499, 85.59205
574.1320, 78.52182
574.6141, 71.36633
575.0963, 63.54808
575.5784, 56.31957
576.0605, 50.96648
576.5426, 47.08127
577.0247, 43.25464
577.5068, 38.85115
577.9890, 34.43882
578.4711, 31.12150
578.9532, 29.48138
579.4353, 27.48213
579.9174, 24.39418
580.3995, 21.70010
580.8817, 20.35461
581.3638, 19.88897
581.8459, 19.23296
582.3280, 17.86168
582.8101, 16.20219
583.2922, 14.91702
583.7744, 14.02777
584.2565, 13.23005
584.7386, 12.54047
585.2207, 11.82616
585.7029, 10.79124
586.1850, 9.673019
586.6671, 9.105629
587.1492, 9.573997
587.6313, 10.26163
588.1135, 10.51448
588.5956, 10.44009
589.0777, 10.33067
589.5598, 10.26020
590.0419, 10.13922
590.5240, 9.841072
591.0062, 9.357780
591.4883, 8.964943
591.9704, 8.583580
592.4525, 8.378517
592.9346, 8.574242
593.4167, 8.896236
593.8989, 9.001648
594.3810, 8.860489
594.8631, 8.630814
595.3452, 8.524933
595.8273, 8.518665
596.3094, 8.067017
596.7916, 6.759945
597.2737, 5.912449
597.7558, 6.569286
598.2379, 7.742683
598.7200, 8.429611
599.2021, 8.498016
599.6843, 8.343826
600.1664, 8.082336
600.6485, 7.762299
601.1306, 7.450527
601.6127, 7.153008
602.0948, 6.820087
602.5770, 6.400917
603.0591, 5.981758
603.5412, 5.795212
604.0233, 5.916817
604.5054, 6.167831
604.9875, 6.893417
605.4697, 7.446953
605.9518, 7.309635
606.4339, 6.647514
606.9160, 5.955704
607.3981, 5.511433
607.8802, 5.185108
608.3624, 4.664093
608.8445, 3.891724
609.3266, 3.410156
609.8087, 3.485798
610.2908, 3.639462
610.7729, 3.544132
611.2551, 3.243580
611.7372, 2.853874
612.2193, 2.352726
612.7014, 1.835438
613.1835, 1.233189
613.6656, 0.6845820
614.1478, 0.5998040
614.6299, 1.075405
615.1120, 1.592655
615.5941, 1.595753
616.0762, 1.080883
616.5583, 0.8239170
617.0405, 1.089584
617.5226, 1.279133
618.0047, 1.310818
618.4868, 1.212711
618.9689, 0.9674490
619.4510, 0.6030730
619.9332, 0.2488480
620.4153, 7.3890002E-03
620.8974, 0.1626550
621.3795, 0.1261100
621.8616, 0.1829260
622.3438, 0.2184070
622.8259, 0.5307350
623.3080, 1.376083
623.7901, 1.253151
624.2722, 9.5112003E-02
624.7543, 0.6795500
625.2365, 0.3801690
625.7186, 0.1838570
626.2007, 0.3355220
626.6828, 0.1902350
627.1649, 0.2285000
627.6470, 0.6613460
628.1292, 1.103466
628.6113, 0.8582610
629.0934, 0.3637850
629.5755, 1.060947
630.0576, 0.6945690
630.5397, 0.3570440
631.0219, 0.5696220
631.5040, 0.9194300
631.9861, 0.6990970
632.4682, 0.3174480
632.9503, 1.275852
633.4324, 1.226254
633.9146, 0.4910930
634.3967, 9.5729999E-02
634.8788, 0.1397860
635.3609, 0.3512500
635.8430, 0.6315350
636.3251, 0.9354780
636.8073, 1.167725
637.2894, 1.532425
637.7715, 1.383873
638.2536, 4.3334998E-02
638.7357, 1.473244
639.2178, 1.837700
639.7000, 1.321396
640.1821, 0.6774940
640.6642, 0.3025170
641.1463, 0.1311800
641.6284, 1.3240000E-03
642.1105, 0.1439320
642.5927, 6.6409998E-02
643.0748, 1.211594
643.5569, 1.995979
644.0390, 1.377445
644.5211, 2.5024001E-02
645.0032, 0.9595150
645.4854, 1.062504
645.9675, 0.8292160
646.4496, 0.4293400
646.9317, 3.1796001E-02
647.4138, 0.3679430
647.8959, 0.5520630
648.3781, 0.6232490
648.8602, 0.6071820
649.3423, 0.5050010
649.8244, 0.3116000
650.3065, 0.3241810
650.7886, 0.5068700
651.2708, 0.3363300
651.7529, 1.153271
652.2350, 1.104839
652.7171, 0.4101600
653.1992, 0.1410830
653.6813, 0.1156690
654.1635, 0.2068860
654.6456, 0.4325560
655.1277, 0.5676190
655.6098, 0.6812590
656.0919, 0.7657550
656.5740, 0.8974270
657.0562, 1.237846
657.5383, 1.709003
658.0204, 1.812218
658.5025, 1.037884
658.9846, 0.5321240
659.4667, 0.9322660
659.9489, 1.577797
660.4310, 1.657398
660.9131, 1.190960
661.3952, 0.8783070
661.8773, 1.270779
662.3594, 2.133404
662.8416, 2.691441
663.3237, 2.885632
663.8058, 3.004166
664.2879, 3.138840
664.7700, 3.161640
665.2521, 2.739250
665.7343, 2.104443
666.2164, 2.076839
666.6985, 3.356705
667.1806, 4.681671
667.6627, 5.095703
668.1448, 4.940327
668.6270, 4.822208
669.1091, 4.873047
669.5912, 5.003185
670.0733, 5.131443
670.5554, 5.270943
671.0375, 5.519318
671.5197, 5.874729
672.0018, 6.348591
672.4839, 7.050232
672.9660, 7.769238
673.4481, 8.414688
673.9302, 8.944923
674.4124, 9.281738
674.8945, 9.290771
675.3766, 9.239094
675.8587, 9.507515
676.3408, 10.02206
676.8229, 10.39000
677.3051, 10.48771
677.7872, 10.71088
678.2693, 11.54374
678.7514, 12.87893
679.2335, 13.44985
679.7156, 12.48494
680.1978, 11.89707
680.6799, 12.05317
681.1620, 12.53249
681.6441, 13.04960
682.1262, 13.67554
682.6083, 14.58611
683.0905, 15.97333
683.5726, 17.50494
684.0547, 18.48261
684.5368, 18.92271
685.0189, 19.87000
685.5010, 21.68794
685.9832, 23.58204
686.4653, 24.87527
686.9474, 25.75173
687.4295, 26.84074
687.9116, 28.41506
688.3937, 29.82116
688.8759, 30.58648
689.3580, 31.29803
689.8401, 32.80249
690.3222, 34.87725
690.8043, 36.34376
691.2864, 36.41936
691.7686, 35.88330
692.2507, 36.57974
692.7328, 38.69156
693.2149, 40.69258
693.6970, 42.49361
694.1791, 43.96388
694.6613, 44.59661
695.1434, 44.87304
695.6255, 46.03201
696.1076, 48.80568
696.5897, 51.51006
697.0718, 53.37448
697.5540, 54.76408
698.0361, 56.05647
698.5182, 57.30460
699.0003, 58.48768
699.4824, 59.60377
699.9645, 60.55162
700.4467, 61.17419
700.9288, 61.61317
701.4109, 61.19992
701.8930, 59.85685
702.3751, 57.61680
702.8572, 54.08414
703.3394, 49.89631
703.8215, 46.08390
704.3036, 42.96963
704.7857, 39.88624
705.2678, 36.15946
705.7499, 32.38653
706.2321, 29.49635
706.7142, 27.43741
707.1963, 25.55503
707.6784, 23.49156
708.1605, 21.35165
708.6426, 19.36420
709.1248, 17.50740
709.6069, 16.09194
710.0890, 15.30776
710.5711, 14.72789
711.0532, 14.07248
711.5353, 13.59738
712.0175, 13.77509
712.4996, 14.71825
712.9817, 15.49236
713.4638, 15.37404
713.9459, 14.83279
714.4280, 14.41741
714.9102, 14.17606
715.3923, 14.13976
715.8744, 14.31258
716.3565, 14.77628
716.8386, 15.72100
717.3207, 17.25692
717.8029, 18.50603
718.2850, 18.83717
718.7671, 19.65649
719.2492, 21.63426
719.7313, 24.03937
720.2134, 25.97000
720.6956, 27.41394
721.1777, 29.43774
721.6598, 32.84749
722.1419, 36.95878
722.6240, 40.80158
723.1061, 44.58832
723.5883, 49.11700
724.0704, 54.64252
724.5525, 60.91226
725.0346, 67.73462
725.5167, 75.03741
725.9988, 82.31294
726.4810, 89.87381
726.9631, 97.10249
727.4452, 103.8840
727.9273, 110.3739
728.4094, 116.4651
728.8915, 122.4246
729.3737, 128.8976
729.8558, 136.3157
730.3379, 144.0992
730.8200, 151.3979
731.3021, 158.6226
731.7842, 167.0444
732.2664, 176.8469
732.7485, 186.9781
733.2306, 196.5087
733.7127, 205.8663
734.1948, 216.7650
734.6769, 230.0851
735.1591, 243.3732
735.6412, 255.9010
736.1233, 269.0829
736.6054, 284.0662
737.0875, 300.0728
737.5696, 315.8686
738.0518, 331.3026
738.5339, 345.1945
739.0160, 357.3448
739.4981, 367.1094
739.9802, 373.9260
740.4623, 377.5199
740.9445, 376.2061
741.4266, 369.0816
741.9087, 356.7986
742.3908, 340.2725
742.8729, 318.7248
743.3550, 295.9546
743.8372, 270.2118
744.3193, 245.3530
744.8014, 222.1758
745.2835, 200.5487
745.7656, 180.0813
746.2477, 160.7580
746.7299, 143.6021
747.2120, 129.5931
747.6941, 117.5890
748.1762, 106.6691
748.6583, 96.74885
749.1404, 87.79028
749.6226, 79.78880
750.1047, 72.71548
750.5868, 66.59760
751.0689, 61.41068
751.5510, 56.59876
752.0331, 51.87302
752.5153, 48.12615
752.9974, 46.40231
753.4795, 44.89218
753.9616, 42.37249
754.4437, 39.10224
754.9258, 36.03560
755.4080, 33.38519
755.8901, 31.11984
756.3722, 29.35422
756.8543, 27.90171
757.3364, 26.57278
757.8185, 25.30500
758.3007, 23.92524
758.7828, 22.32312
759.2649, 20.61345
759.7470, 19.07572
760.2291, 17.77761
760.7112, 16.23997
761.1934, 14.17117
761.6755, 12.29102
762.1576, 11.01880
762.6397, 10.08373
763.1218, 9.144508
763.6039, 8.141823
764.0861, 7.397369
764.5682, 7.263733
765.0503, 7.206291
765.5324, 6.816528
766.0145, 6.186989
766.4966, 5.505211
766.9788, 4.837204
767.4609, 4.197189
767.9430, 3.584831
768.4251, 3.018517
768.9072, 2.636002
769.3893, 2.500778
769.8715, 2.198914
770.3536, 1.475372
770.8357, 0.7728650
771.3178, 0.5294110
771.7999, 0.6781540
772.2820, 0.8810270
772.7642, 1.290009
773.2463, 1.519463
773.7284, 1.432121
774.2105, 1.148300
774.6926, 0.6339340
775.1747, 2.1584000E-02
775.6569, 0.3339460
776.1390, 0.2323760
776.6211, 4.5807000E-02
777.1032, 0.3147810
777.5853, 0.9645610
778.0674, 1.675026
778.5496, 2.477337
779.0317, 2.822350
779.5138, 2.301704
779.9959, 1.380035
780.4780, 0.8492890
780.9601, 0.7659530
781.4423, 0.8775940
781.9244, 1.616348
782.4065, 2.019905
782.8886, 1.393875
783.3707, 0.5163960
783.8528, 0.3206860
784.3350, 0.8384480
784.8171, 1.275909
785.2992, 1.004700
785.7813, 0.5683440
786.2634, 0.8066330
786.7455, 1.480904
787.2277, 1.784767
787.7098, 1.560089
788.1919, 1.175964
788.6740, 0.9153210
789.1561, 0.7314070
789.6382, 0.4495240
790.1204, 2.3948999E-02
790.6025, 0.3846590
791.0846, 0.7529980
791.5667, 1.118919
792.0488, 1.528061
792.5309, 1.935509
793.0131, 2.304192
793.4952, 2.647621
793.9773, 2.802986
794.4594, 2.397888
794.9415, 2.020515
795.4236, 2.202095
795.9058, 2.865463
796.3879, 3.920532
796.8700, 5.277687
797.3521, 6.418381
797.8342, 6.696266
798.3163, 6.345718
798.7985, 6.667564
799.2806, 7.809425
799.7627, 8.732536
800.2448, 9.035408
800.7269, 9.346123
801.2090, 10.32365
801.6912, 11.80888
802.1733, 12.92016
802.6554, 13.35506
803.1375, 13.89393
803.6196, 14.55824
804.1017, 15.47955
804.5839, 16.78725
805.0660, 18.41895
805.5481, 20.29428
806.0302, 22.39461
806.5123, 24.44047
806.9944, 26.06018
807.4766, 27.44350
807.9587, 29.07517
808.4408, 30.94989
808.9229, 32.84578
809.4050, 34.67681
809.8871, 36.48593
810.3693, 38.33471
810.8514, 40.22288
811.3335, 42.08519
811.8156, 44.15938
812.2977, 45.81335
812.7798, 46.10959
813.2620, 46.73661
813.7441, 49.24479
814.2262, 52.98118
814.7083, 55.99424
815.1904, 57.56608
815.6725, 58.85431
816.1547, 60.55724
816.6368, 62.29562
817.1189, 63.71133
817.6010, 64.76350
818.0831, 65.49081
818.5652, 65.90699
819.0474, 65.89315
819.5295, 65.26453
820.0116, 64.04979
820.4937, 62.54744
820.9758, 60.79670
821.4579, 58.47678
821.9401, 55.31773
822.4222, 51.84120
822.9043, 48.50418
823.3864, 45.32572
823.8685, 42.22891
824.3506, 39.04211
824.8328, 36.19484
825.3149, 33.82854
825.7970, 31.75776
826.2791, 30.05435
826.7612, 28.49191
827.2433, 26.53793
827.7255, 23.93144
828.2076, 21.38994
828.6897, 19.42299
829.1718, 17.96168
829.6539, 17.11157
830.1360, 16.70924
830.6182, 16.02184
831.1003, 14.77240
831.5824, 13.37232
832.0645, 12.27066
832.5466, 11.47250
833.0287, 11.21611
833.5109, 11.80382
833.9930, 11.97984
834.4751, 11.12951
834.9572, 10.20228
835.4393, 10.04913
835.9214, 10.42406
836.4036, 10.64895
836.8857, 10.71836
837.3678, 10.67699
837.8499, 10.34325
838.3320, 10.08656
838.8141, 10.18533
839.2963, 10.52966
839.7784, 10.84426
840.2605, 11.08247
840.7426, 11.48560
841.2247, 12.42570
841.7068, 13.52817
842.1890, 13.93938
842.6711, 13.81574
843.1532, 14.09078
843.6353, 15.01459
844.1174, 16.08219
844.5995, 16.86358
845.0817, 17.42399
845.5638, 17.96038
846.0459, 18.48373
846.5280, 18.99905
847.0101, 19.58649
847.4922, 20.00812
847.9744, 19.91486
848.4565, 19.68158
848.9386, 19.88434
849.4207, 20.58542
849.9028, 21.58488
850.3849, 23.39107
850.8671, 24.87564
851.3492, 25.16723
851.8313, 24.83493
852.3134, 24.69774
852.7955, 24.84500
853.2776, 24.79193
853.7598, 24.18607
854.2419, 23.26920
854.7240, 22.27334
855.2061, 21.26791
855.6882, 20.74500
856.1703, 20.74313
856.6525, 20.21404
857.1346, 18.49406
857.6167, 16.21004
858.0988, 14.56005
858.5809, 13.61680
859.0630, 12.85129
859.5452, 12.45345
860.0273, 11.89564
860.5094, 10.90484
860.9915, 9.780769
861.4736, 8.730667
861.9557, 7.772430
862.4379, 6.960808
862.9200, 6.191711
863.4021, 5.738159
863.8842, 5.878075
864.3663, 6.224068
864.8484, 6.540703
865.3306, 6.758263
865.8127, 6.717178
866.2948, 6.360931
866.7769, 6.211266
867.2590, 7.137978
867.7411, 8.493179
868.2233, 8.725342
868.7054, 8.034988
869.1875, 7.682693
869.6696, 8.030540
870.1517, 8.683502
870.6339, 9.305763
871.1160, 9.879807
871.5981, 10.27283
872.0802, 10.33890
872.5623, 10.78609
873.0444, 11.89237
873.5266, 13.03735
874.0087, 13.93171
874.4908, 14.61903
874.9729, 15.14607
875.4550, 15.47865
875.9371, 15.86166
876.4193, 16.01342
876.9014, 16.59315
877.3835, 18.43555
877.8656, 20.46435
878.3477, 21.45138
878.8298, 21.44612
879.3120, 21.38255
879.7941, 21.73716
880.2762, 22.14399
880.7583, 22.15341
881.2404, 22.06139
881.7225, 22.24123
882.2047, 22.71008
882.6868, 23.47926
883.1689, 24.57459
883.6510, 25.65430
884.1331, 26.29567
884.6152, 26.52860
885.0974, 26.19687
885.5795, 25.16197
886.0616, 24.68262
886.5437, 25.21482
887.0258, 25.83504
887.5079, 25.84201
887.9901, 25.33967
888.4722, 24.65143
888.9543, 23.50912
889.4364, 22.63098
889.9185, 22.63194
890.4006, 22.13628
890.8828, 20.09428
891.3649, 17.60812
891.8470, 16.05169
892.3291, 15.54372
892.8112, 15.05328
893.2933, 14.17101
893.7755, 13.23135
894.2576, 12.55933
894.7397, 11.87714
895.2218, 10.70612
895.7039, 9.168762
896.1860, 7.838318
896.6682, 6.980751
897.1503, 6.348137
897.6324, 5.646858
898.1145, 4.919510
898.5966, 4.296135
899.0787, 3.771652
899.5609, 3.247192
900.0430, 2.691841
900.5251, 2.101158
901.0072, 1.435310
901.4893, 0.7622680
901.9714, 0.4916920
902.4536, 0.8256680
902.9357, 0.7821580
903.4178, 8.6209998E-03
903.8999, 0.6720090
904.3820, 0.6916890
904.8641, 0.3306080
905.3463, 3.6052998E-02
905.8284, 0.1713290
906.3105, 0.4751470
906.7926, 1.094849
907.2747, 1.548119
907.7568, 1.323605
908.2390, 1.167446
908.7211, 1.861691
909.2032, 3.208050
909.6853, 4.393681
910.1674, 5.022400
910.6495, 5.892658
911.1317, 7.662186
911.6138, 9.859280
912.0959, 12.25107
912.5780, 14.55521
913.0601, 16.00260
913.5422, 16.52549
914.0244, 17.26562
914.5065, 19.32351
914.9886, 22.04392
915.4707, 24.02274
915.9528, 25.37917
916.4349, 26.84671
916.9171, 28.51160
917.3992, 30.48614
917.8813, 32.88847
918.3634, 35.41099
918.8455, 37.51558
919.3276, 39.16610
919.8098, 41.12709
920.2919, 43.58149
920.7740, 45.88683
921.2561, 47.78947
921.7382, 49.64375
922.2203, 51.77833
922.7025, 54.11464
923.1846, 56.39335
923.6667, 58.91788
924.1488, 60.74570
924.6309, 61.29704
925.1130, 61.69807
925.5952, 62.80611
926.0773, 63.85013
926.5594, 64.06145
927.0415, 63.27267
927.5236, 61.31017
928.0057, 57.49717
928.4879, 53.38594
928.9700, 50.23890
929.4521, 47.17312
929.9342, 42.89593
930.4163, 37.76234
930.8984, 32.97382
931.3806, 28.97033
931.8627, 25.16351
932.3448, 20.68385
932.8269, 16.14053
933.3090, 12.79880
933.7911, 10.52294
934.2733, 8.968304
934.7554, 8.020229
935.2375, 7.090084
935.7196, 5.771114
936.2017, 4.283909
936.6838, 3.143101
937.1660, 2.368740
937.6481, 1.402676
938.1302, 0.1023790
938.6123, 0.6889000
939.0944, 0.4624060
939.5765, 0.1294590
940.0587, 0.7421230
940.5408, 2.096302
941.0229, 2.644733
941.5050, 1.624199
941.9871, 1.197182
942.4692, 1.921658
942.9514, 2.686043
943.4335, 3.347855
943.9156, 3.637321
944.3977, 2.934635
944.8798, 1.245804
945.3619, 0.2295270
945.8441, 0.8640820
946.3262, 1.404331
946.8083, 1.204903
947.2904, 0.6838000
947.7725, 2.8034000E-02
948.2546, 0.7126430
948.7368, 0.8865200
949.2189, 0.3893130
949.7010, 9.6980996E-02
950.1831, 0.6718600
950.6652, 1.646580
951.1473, 2.707672
951.6295, 3.758011
952.1116, 4.623123
952.5937, 5.304970
953.0758, 5.918839
953.5579, 6.524746
954.0400, 7.174942
954.5222, 7.960358
955.0043, 8.843285
955.4864, 9.720936
955.9685, 10.58953
956.4506, 11.54433
956.9327, 12.61181
957.4149, 13.40141
957.8970, 13.41632
958.3791, 15.26354
958.8612, 14.85889
959.3433, 18.47866
959.8254, 21.32010
960.3076, 23.05697
960.7897, 24.64602
961.2718, 26.42127
961.7539, 28.34203
962.2360, 30.33024
962.7181, 32.42020
963.2003, 34.97879
963.6824, 37.99051
964.1645, 41.51755
964.6466, 46.12622
965.1287, 50.55362
965.6108, 54.23090
966.0930, 57.25016
966.5751, 59.69907
967.0572, 61.56282
967.5393, 63.01503
968.0214, 63.81319
968.5035, 64.53934
968.9857, 65.17632
969.4678, 65.95864
969.9499, 67.10447
970.4320, 68.52893
970.9141, 70.03249
971.3962, 71.55412
971.8784, 73.21231
972.3605, 75.08922
972.8426, 77.07314
973.3247, 78.99022
973.8068, 81.02148
974.2889, 83.34843
974.7711, 86.03429
975.2532, 89.19872
975.7353, 92.92706
976.2174, 96.93296
976.6995, 100.9558
977.1816, 105.1006
977.6638, 109.8511
978.1459, 114.7911
978.6280, 118.6078
979.1101, 121.2336
979.5922, 124.2497
980.0743, 128.9884
980.5565, 133.6337
981.0386, 134.9411
981.5207, 135.9635
982.0028, 135.4081
982.4849, 132.3525
982.9670, 129.2482
983.4492, 122.5147
983.9313, 114.4501
984.4134, 107.0958
984.8955, 100.2891
985.3776, 93.53185
985.8597, 86.82954
986.3419, 79.83523
986.8240, 72.34622
987.3061, 65.57304
987.7882, 60.13274
988.2703, 55.26773
988.7524, 49.89451
989.2346, 45.94547
989.7167, 42.40588
990.1988, 38.54961
990.6809, 36.52191
991.1630, 33.53041
991.6451, 30.60840
992.1273, 28.13599
992.6094, 26.14278
993.0915, 24.74035
993.5736, 23.99783
994.0557, 23.31561
994.5378, 22.66281
995.0200, 21.96878
995.5021, 21.16628
995.9842, 20.53026
996.4663, 20.21181
996.9484, 20.15825
997.4305, 20.22890
997.9127, 20.37168
998.3948, 20.35176
998.8769, 20.19382
999.3590, 19.99711
999.8411, 19.70737
1000.323, 19.29463
1000.805, 18.47542
1001.287, 17.64947
1001.770, 17.77081
1002.252, 19.15632
1002.734, 20.41434
1003.216, 20.82325
1003.698, 20.88409
1004.180, 20.76455
1004.662, 20.66912
1005.144, 20.72670
1005.627, 20.96607
1006.109, 21.65502
1006.591, 22.93784
1007.073, 24.00118
1007.555, 23.77891
1008.037, 23.36561
1008.519, 24.05927
1009.001, 25.23837
1009.483, 25.77101
1009.966, 25.72117
1010.448, 25.89736
1010.930, 26.61926
1011.412, 27.75148
1011.894, 29.67025
1012.376, 31.66940
1012.858, 32.49173
1013.340, 32.52384
1013.823, 32.81704
1014.305, 33.50364
1014.787, 34.10908
1015.269, 34.36293
1015.751, 34.32368
1016.233, 33.87918
1016.715, 33.26319
1017.197, 33.40611
1017.679, 34.04098
1018.162, 33.64991
1018.644, 31.99661
1019.126, 30.50219
1019.608, 30.14469
1020.090, 30.27142
1020.572, 29.77727
1021.054, 28.70195
1021.536, 27.16042
1022.018, 25.18766
1022.501, 23.64581
1022.983, 22.75181
1023.465, 22.00335
1023.947, 21.06796
1024.429, 19.96161
1024.911, 18.67471
1025.393, 17.19437
1025.875, 15.98347
1026.358, 15.05396
1026.840, 14.22648
1027.322, 13.49707
1027.804, 12.62645
1028.286, 11.34529
1028.768, 9.946575
1029.250, 9.241024
1029.732, 9.374390
1030.214, 9.012863
1030.697, 7.924629
1031.179, 7.197117
1031.661, 7.312904
1032.143, 7.397511
1032.625, 6.685814
1033.107, 5.465160
1033.589, 4.534283
1034.071, 3.865044
1034.553, 3.700443
1035.036, 4.555187
1035.518, 4.732338
1036.000, 3.261971
1036.482, 1.782761
1036.964, 1.682804
1037.446, 2.521587
1037.928, 3.018253
1038.410, 3.092010
1038.893, 3.136154
1039.375, 3.325314
1039.857, 3.171913
1040.339, 2.069725
1040.821, 1.104870
1041.303, 1.347904
1041.785, 2.328274
1042.267, 2.680370
1042.750, 2.173302
1043.232, 1.818378
1043.714, 1.655975
1044.196, 1.596581
1044.678, 1.692677
1045.160, 1.822800
1045.642, 2.025829
1046.124, 2.168583
1046.606, 1.839573
1047.089, 0.7989040
1047.571, 0.2615430
1048.053, 0.6356280
1048.535, 1.091209
1049.017, 1.746487
1049.499, 2.088570
1049.981, 1.491398
1050.463, 0.3550030
1050.945, 0.5118370
1051.428, 1.056156
1051.910, 1.056847
1052.392, 0.1841660
1052.874, 1.083080
1053.356, 0.8854790
1053.838, 0.3958850
1054.320, 0.1231040
1054.802, 7.0271000E-02
1055.285, 0.1610150
1055.767, 0.3891910
1056.249, 0.7021790
1056.731, 1.365414
1057.213, 1.740128
1057.695, 1.386444
1058.177, 0.8543930
1058.659, 0.3854060
1059.141, 0.1269680
1059.624, 0.3953590
1060.106, 1.242661
1060.588, 1.808216
1061.070, 1.843235
1061.552, 1.512241
1062.034, 0.3503680
1062.516, 0.6431160
1062.998, 0.2812920
1063.480, 0.6262130
1063.963, 0.4307170
1064.445, 1.048122
1064.927, 1.966152
1065.409, 1.221516
1065.891, 0.3670880
1066.373, 0.1546940
1066.855, 0.3598590
1067.337, 4.8030999E-02
1067.820, 0.6099430
1068.302, 0.5638920
1068.784, 0.1338310
1069.266, 0.7597850
1069.748, 1.096054
1070.230, 1.215363
1070.712, 1.018414
1071.194, 0.7490620
1071.677, 0.4754870
1072.159, 0.3128660
1072.641, 0.5525820
1073.123, 1.098141
1073.605, 1.256893
1074.087, 0.5745660
1074.569, 3.6892001E-02
1075.051, 0.1168940
1075.533, 1.4168000E-02
1076.016, 0.1266520
1076.498, 0.2310450
1076.980, 8.4213004E-02
1077.462, 0.1866230
1077.944, 9.4599999E-04
1078.426, 1.010517
1078.908, 1.883461
1079.390, 2.341324
1079.873, 2.332241
1080.355, 1.449310
1080.837, 0.3435710
1081.319, 0.2702180
1081.801, 0.4106900
1082.283, 0.4221880
1082.765, 0.4087370
1083.247, 0.2415120
1083.729, 0.3423390
1084.212, 0.8519400
1084.694, 0.9887850
1085.176, 0.9183350
1085.658, 0.6780620
1086.140, 0.4160160
1086.622, 0.4391590
1087.104, 0.8321460
1087.586, 1.255077
1088.068, 1.835121
1088.551, 2.060097
1089.033, 1.202305
1089.515, 0.3170970
1089.997, 0.4993210
1090.479, 1.285954
1090.961, 1.706413
1091.443, 1.593315
1091.925, 1.405235
1092.408, 1.276897
1092.890, 1.156410
1093.372, 0.9531710
1093.854, 0.8201980
1094.336, 1.015820
1094.818, 1.272015
1095.300, 1.039993
1095.782, 0.3775860
1096.265, 0.1842800
1096.747, 1.046085
1097.229, 1.772758
1097.711, 1.865166
1098.193, 1.817265
1098.675, 1.998959
1099.157, 2.148739
1099.639, 1.777637
1100.121, 1.052204
1100.604, 0.8120650
1101.086, 1.440670
1101.568, 1.905910
1102.050, 1.721931
1102.532, 1.591911
1103.014, 2.172394
1103.496, 2.641602
1103.978, 1.921417
1104.460, 0.5358430
1104.943, 2.0443000E-02
1105.425, 0.6121600
1105.907, 1.145260
1106.389, 0.9710770
1106.871, 1.170921
1107.353, 2.918995
1107.835, 4.285789
1108.317, 3.453178
1108.800, 1.508762
1109.282, 0.4261630
1109.764, 0.4044950
1110.246, 0.5585370
1110.728, 0.7954180
1111.210, 1.027370
1111.692, 1.400444
1112.174, 1.586929
1112.656, 1.094658
1113.139, 0.5443420
1113.621, 0.8302150
1114.103, 1.860989
1114.585, 2.569553
1115.067, 3.040947
1115.549, 3.011600
1116.031, 2.015652
1116.513, 1.175278
1116.995, 0.8248860
1117.478, 0.7861670
1117.960, 0.9425510
1118.442, 1.276058
1118.924, 1.783161
1119.406, 2.614182
1119.888, 2.960281
1120.370, 2.450741
1120.852, 2.202229
1121.335, 2.643223
1121.817, 2.984436
1122.299, 2.550072
1122.781, 1.786369
1123.263, 1.588356
1123.745, 1.986443
1124.227, 2.319862
1124.709, 2.525990
1125.192, 2.797047
1125.674, 3.236092
1126.156, 3.391056
1126.638, 2.930824
1127.120, 2.444668
1127.602, 2.757969
1128.084, 3.624973
1128.566, 3.747478
1129.048, 3.033714
1129.531, 2.779224
1130.013, 3.026157
1130.495, 3.306046
1130.977, 3.506344
1131.459, 3.554722
1131.941, 3.363407
1132.423, 3.048100
1132.905, 2.936874
1133.387, 3.014038
1133.870, 2.735668
1134.352, 2.133209
1134.834, 1.796764
1135.316, 1.813347
1135.798, 2.094933
1136.280, 2.587177
1136.762, 3.039230
1137.244, 3.076019
1137.727, 3.478344
1138.209, 3.151093
1138.691, 3.697098
1139.173, 3.749580
1139.655, 3.341148
1140.137, 3.028786
1140.619, 3.069500
1141.101, 3.436504
1141.583, 4.163204
1142.066, 4.807289
1142.548, 4.622311
1143.030, 3.905098
1143.512, 3.101475
1143.994, 2.327000
1144.476, 1.729599
1144.958, 1.384647
1145.440, 1.483604
1145.922, 2.158058
1146.405, 2.898457
1146.887, 3.225044
1147.369, 3.362476
1147.851, 3.658665
1148.333, 3.881432
1148.815, 3.528599
1149.297, 2.810608
1149.779, 2.270233
1150.262, 2.087379
1150.744, 2.327965
1151.226, 3.395596
1151.708, 4.276196
1152.190, 4.204288
1152.672, 3.791454
1153.154, 3.514240
1153.636, 3.256874
1154.119, 2.543369
1154.601, 1.604607
1155.083, 1.640633
1155.565, 3.412235
1156.047, 4.614330
1156.529, 4.035461
1157.011, 3.319340
1157.493, 3.092793
1157.975, 3.105610
1158.458, 3.195328
1158.940, 3.337711
1159.422, 3.539883
1159.904, 3.810516
1160.386, 3.930923
1160.868, 3.761143
1161.350, 3.640221
1161.832, 3.901672
1162.314, 3.809792
1162.797, 2.611973
1163.279, 1.376900
1163.761, 1.282940
1164.243, 2.086784
1164.725, 2.692726
1165.207, 3.155479
1165.689, 3.237617
1166.171, 2.848557
1166.654, 2.300396
1167.136, 1.583847
1167.618, 0.9984740
1168.100, 0.7676890
1168.582, 0.7104840
1169.064, 0.4772830
1169.546, 0.1199380
1170.028, 0.2331920
1170.510, 0.8270110
1170.993, 1.404945
1171.475, 1.928696
1171.957, 2.200890
1172.439, 2.124748
1172.921, 2.091713
1173.403, 2.526714
1173.885, 3.020107
1174.367, 2.660709
1174.849, 1.696720
1175.332, 0.8583640
1175.814, 0.2163350
1176.296, 7.0110001E-03
1176.778, 0.1659700
1177.260, 0.2835580
1177.742, 0.1668970
1178.224, 6.4500002E-04
1178.706, 4.8119001E-02
1179.189, 4.2422999E-02
1179.671, 0.1618580
1180.153, 0.2115670
1180.635, 0.1643370
1181.117, 0.8045430
1181.599, 1.548790
1182.081, 2.268852
1182.563, 2.423809
1183.046, 1.516788
1183.528, 0.8215870
1184.010, 1.410572
1184.492, 2.096363
1184.974, 2.251316
1185.456, 1.941475
1185.938, 0.8659480
1186.420, 0.4761240
1186.902, 0.9158900
1187.385, 0.2225190
1187.867, 0.4076230
1188.349, 0.7330740
1188.831, 0.9925380
1189.313, 1.377975
1189.795, 1.532356
1190.277, 1.115349
1190.759, 0.5176090
1191.241, 2.4193000E-02
1191.724, 0.3115390
1192.206, 0.2554630
1192.688, 0.3066440
1193.170, 0.8033980
1193.652, 1.338539
1194.134, 1.414005
1194.616, 0.7425650
1195.098, 0.2535020
1195.581, 0.5163650
1196.063, 1.108955
1196.545, 1.543144
1197.027, 1.718483
1197.509, 0.9037590
1197.991, 0.7816350
1198.473, 1.191086
1198.955, 0.2993970
1199.438, 0.3676720
1199.920, 0.4064600
1200.402, 0.5129090
1200.884, 1.172356
1201.366, 1.825603
1201.848, 1.427372
1202.330, 0.7110330
1202.812, 1.461605
1203.294, 1.069370
1203.776, 0.9144670
1204.259, 1.381580
1204.741, 0.7263340
1205.223, 1.102242
1205.705, 1.525177
1206.187, 1.478588
1206.669, 1.213219
1207.151, 0.7076150
1207.633, 0.2647970
1208.116, 5.4648999E-02
1208.598, 9.5840000E-02
1209.080, 0.5850560
1209.562, 1.285145
1210.044, 1.585598
1210.526, 1.349236
1211.008, 1.139698
1211.490, 1.126175
1211.973, 1.053947
1212.455, 0.7874600
1212.937, 0.5598450
1213.419, 0.4795110
1213.901, 0.4740490
1214.383, 0.4784580
1214.865, 0.5006070
1215.347, 0.5784070
1215.829, 0.7324300
1216.312, 0.7652930
1216.794, 0.6064800
1217.276, 0.7568660
1217.758, 1.390301
1218.240, 1.734863
1218.722, 1.382080
1219.204, 0.8112140
1219.686, 0.5317610
1220.168, 0.4918290
1220.651, 0.6236310
1221.133, 0.8673400
1221.615, 1.043224
1222.097, 1.118439
1222.579, 0.8483120
1223.061, 0.3129500
1223.543, 0.2045970
1224.025, 0.8479960
1224.508, 1.559586
1224.990, 1.817982
1225.472, 1.754711
1225.954, 1.052361
1226.436, 0.4912640
1226.918, 1.485985
1227.400, 2.980526
1227.882, 2.984116
1228.365, 1.576893
1228.847, 0.4551960
1229.329, 4.8710001E-03
1229.811, 0.1302570
1230.293, 1.725800
1230.775, 2.674858
1231.257, 1.622566
1231.739, 0.4422570
1232.221, 0.4656370
1232.703, 0.9085690
1233.186, 0.6262020
1233.668, 0.1288490
1234.150, 3.7315000E-02
1234.632, 1.559498
1235.114, 2.126007
1235.596, 1.520306
1236.078, 1.002243
1236.560, 0.7621880
1237.043, 0.5338970
1237.525, 6.9560997E-02
1238.007, 0.5867540
1238.489, 0.3630100
1238.971, 0.3210720
1239.453, 0.9285770
1239.935, 1.500607
1240.417, 2.173557
1240.900, 2.769211
1241.382, 2.561081
1241.864, 1.563156
1242.346, 0.4747920
1242.828, 5.7971999E-02
1243.310, 0.1404230
1243.792, 0.8757740
1244.274, 1.781445
1244.756, 2.815479
1245.239, 3.543331
1245.721, 3.233311
1246.203, 2.531006
1246.685, 2.429195
1247.167, 2.913040
1247.649, 3.368389
1248.131, 3.793285
1248.613, 3.872711
1249.095, 3.350704
1249.578, 2.793995
1250.060, 2.120270
1250.542, 1.750702
1251.024, 2.066212
1251.506, 2.513523
1251.988, 2.400681
1252.470, 1.909264
1252.952, 1.727810
1253.435, 1.873680
1253.917, 2.005131
1254.399, 2.121933
1254.881, 2.588097
1255.363, 3.472790
1255.845, 4.359009
1256.327, 5.030598
1256.809, 5.212086
1257.292, 4.435501
1257.774, 3.391422
1258.256, 3.024857
1258.738, 3.138790
1259.220, 3.644421
1259.702, 4.286240
1260.184, 4.523731
1260.666, 4.540489
1261.148, 4.777596
1261.630, 5.372375
1262.113, 5.616768
1262.595, 5.312298
1263.077, 5.051228
1263.559, 4.682514
1264.041, 4.602596
1264.523, 5.313179
1265.005, 6.103642
1265.487, 6.320824
1265.970, 6.175568
1266.452, 6.217545
1266.934, 6.460007
1267.416, 5.956829
1267.898, 4.509739
1268.380, 3.938927
1268.862, 4.466515
1269.344, 4.978596
1269.827, 5.116646
1270.309, 4.991619
1270.791, 4.647297
1271.273, 4.422588
1271.755, 5.170303
1272.237, 4.588699
1272.719, 5.475227
1273.201, 4.095459
1273.683, 3.209274
1274.166, 2.823128
1274.648, 2.669830
1275.130, 2.649193
1275.612, 2.726940
1276.094, 2.991528
1276.576, 2.900089
1277.058, 1.785137
1277.540, 0.9009400
1278.022, 0.9341280
1278.505, 1.132607
1278.987, 0.8633500
1279.469, 0.6159480
1279.951, 1.114861
1280.433, 2.087635
1280.915, 2.383396
1281.397, 1.920540
1281.879, 1.442654
1282.362, 0.9430620
1282.844, 0.4646340
1283.326, 1.0094000E-02
1283.808, 3.9574001E-02
1284.290, 0.4674840
1284.772, 0.9563260
1285.254, 0.7319530
1285.736, 0.0000000E+00
##END=



