##NAMES=Analcime
##RRUFFID=R050094
##IDEAL CHEMISTRY=NaAlSi_2_O_6_&#183;H_2_O
##LOCALITY=Springfield, Oregon, USA
##OWNER=RRUFF
##SOURCE=Rock Currier
##DESCRIPTION=Clear colorless single crystals associated with gmelinite
##STATUS=The identification of this mineral has been confirmed by X-ray diffraction and chemical analysis
##URL=rruff.info/R050094
##MEASURED CHEMISTRY=(Na_0.99_[box]_0.01_)_Σ=1_(Si_2.01_Al_0.99_)O_6_·H_2_O
126.3948, 0.0000000E+00
126.8769, 39.77466
127.3591, 90.54443
127.8412, 109.1001
128.3233, 103.0945
128.8054, 95.07690
129.2875, 84.67920
129.7696, 74.74878
130.2518, 74.79419
130.7339, 87.56226
131.2160, 102.8398
131.6981, 102.9412
132.1802, 89.66846
132.6623, 77.79590
133.1445, 71.58691
133.6266, 70.51611
134.1087, 72.13892
134.5908, 75.36401
135.0729, 82.84424
135.5550, 100.1519
136.0372, 127.8989
136.5193, 158.8223
137.0014, 192.1687
137.4835, 228.7024
137.9656, 257.8757
138.4477, 280.5269
138.9299, 294.6746
139.4120, 292.5435
139.8941, 266.5171
140.3762, 240.2808
140.8583, 233.6328
141.3404, 254.0366
141.8226, 271.1438
142.3047, 281.1299
142.7868, 284.2263
143.2689, 275.4114
143.7510, 246.2197
144.2331, 212.6836
144.7152, 196.6345
145.1974, 210.0918
145.6795, 221.9463
146.1616, 222.4893
146.6437, 205.6255
147.1258, 192.9904
147.6079, 190.2421
148.0901, 192.5638
148.5722, 186.2659
149.0543, 171.7555
149.5364, 171.3538
150.0185, 178.2988
150.5006, 206.2773
150.9828, 219.6171
151.4649, 217.6689
151.9470, 207.2120
152.4291, 197.9104
152.9112, 200.0286
153.3933, 205.1309
153.8755, 206.0918
154.3576, 201.8257
154.8397, 193.4755
155.3218, 180.1626
155.8039, 161.0244
156.2860, 141.6511
156.7682, 120.2396
157.2503, 100.0366
157.7324, 84.95984
158.2145, 83.40369
158.6966, 81.51624
159.1787, 71.36792
159.6609, 44.07544
160.1430, 26.50952
160.6251, 37.47876
161.1072, 65.08521
161.5893, 81.76074
162.0714, 68.49939
162.5536, 46.00916
163.0357, 28.21362
163.5178, 20.16284
163.9999, 15.47278
164.4820, 11.91968
164.9641, 9.474731
165.4463, 8.221436
165.9284, 9.766846
166.4105, 11.98035
166.8926, 12.56714
167.3747, 10.29272
167.8568, 6.318237
168.3390, 1.309937
168.8211, 13.03577
169.3032, 19.04663
169.7853, 2.481323
170.2674, 23.63354
170.7495, 36.54675
171.2317, 11.66516
171.7138, 24.98389
172.1959, 46.96533
172.6780, 49.34473
173.1601, 44.09082
173.6422, 39.58362
174.1244, 35.21130
174.6065, 28.94824
175.0886, 15.79028
175.5707, 1.393921
176.0528, 5.069458
176.5349, 2.833862
177.0171, 12.68970
177.4992, 6.943115
177.9813, 12.39526
178.4634, 29.55664
178.9455, 29.48865
179.4276, 18.18298
179.9098, 8.994751
180.3919, 2.765259
180.8740, 3.004761
181.3561, 20.77979
181.8382, 56.77710
182.3203, 91.02112
182.8025, 100.3311
183.2846, 88.85620
183.7667, 74.63782
184.2488, 63.04138
184.7309, 54.52905
185.2130, 50.85364
185.6951, 52.54871
186.1773, 56.88879
186.6594, 58.01074
187.1415, 56.70410
187.6236, 61.50916
188.1057, 84.89221
188.5878, 120.8896
189.0700, 139.7185
189.5521, 134.7650
190.0342, 117.6676
190.5163, 107.1772
190.9984, 103.3503
191.4805, 105.5066
191.9627, 117.4993
192.4448, 138.0559
192.9269, 150.5472
193.4090, 149.1768
193.8911, 140.4292
194.3732, 143.7935
194.8554, 160.3105
195.3375, 179.3567
195.8196, 193.6677
196.3017, 204.6217
196.7838, 204.9396
197.2659, 186.9584
197.7481, 155.4861
198.2302, 145.3676
198.7123, 162.1136
199.1944, 186.1426
199.6765, 191.7936
200.1586, 176.1749
200.6408, 162.8604
201.1229, 161.1853
201.6050, 171.4541
202.0871, 177.9788
202.5692, 179.4213
203.0513, 179.5476
203.5335, 186.6807
204.0156, 203.4918
204.4977, 215.4592
204.9798, 213.2966
205.4619, 194.5925
205.9440, 182.4470
206.4262, 180.0486
206.9083, 183.0684
207.3904, 179.3453
207.8725, 166.2743
208.3546, 154.9636
208.8367, 154.7310
209.3189, 170.6791
209.8010, 174.8545
210.2831, 159.9821
210.7652, 132.1414
211.2473, 118.8552
211.7294, 123.8420
212.2116, 136.0619
212.6937, 149.5763
213.1758, 168.2299
213.6579, 175.8126
214.1400, 165.7838
214.6221, 139.8811
215.1043, 125.9176
215.5864, 127.5684
216.0685, 135.5845
216.5506, 141.8263
217.0327, 147.5892
217.5148, 148.2662
217.9970, 139.3820
218.4791, 119.5559
218.9612, 114.7466
219.4433, 132.7784
219.9254, 158.0750
220.4075, 170.5836
220.8897, 166.9683
221.3718, 157.2780
221.8539, 141.6057
222.3360, 116.8198
222.8181, 103.2965
223.3002, 104.9933
223.7824, 115.7845
224.2645, 125.1930
224.7466, 133.9810
225.2287, 140.2615
225.7108, 143.2506
226.1929, 142.2396
226.6750, 138.3140
227.1572, 130.4017
227.6393, 121.9344
228.1214, 116.7279
228.6035, 113.5480
229.0856, 114.8307
229.5677, 121.8141
230.0499, 141.9452
230.5320, 152.3644
231.0141, 149.0504
231.4962, 135.4894
231.9783, 126.5035
232.4604, 126.0260
232.9426, 125.8297
233.4247, 120.2943
233.9068, 105.2109
234.3889, 90.93835
234.8710, 77.35596
235.3531, 65.69739
235.8353, 60.40393
236.3174, 65.48279
236.7995, 71.02173
237.2816, 68.46155
237.7637, 50.03271
238.2458, 38.69116
238.7280, 40.27148
239.2101, 54.67188
239.6922, 63.97852
240.1743, 65.62183
240.6564, 64.55933
241.1385, 65.85022
241.6207, 73.25159
242.1028, 76.06946
242.5849, 70.46838
243.0670, 55.36707
243.5491, 45.60486
244.0313, 43.13818
244.5134, 44.36206
244.9955, 45.42896
245.4776, 47.07727
245.9597, 47.20251
246.4418, 44.31812
246.9240, 37.15613
247.4061, 34.79956
247.8882, 40.08142
248.3703, 48.16785
248.8524, 52.55188
249.3345, 54.15881
249.8167, 50.31970
250.2988, 38.49426
250.7809, 15.06946
251.2630, 2.611084
251.7451, 15.96814
252.2272, 22.66882
252.7094, 16.01855
253.1915, 14.90344
253.6736, 40.55103
254.1557, 49.30408
254.6378, 35.90637
255.1199, 21.67981
255.6021, 4.661743
256.0842, 12.13110
256.5663, 21.57751
257.0484, 21.37292
257.5305, 17.81433
258.0126, 13.16968
258.4948, 6.610474
258.9769, 1.012817
259.4590, 3.966064
259.9411, 7.910156
260.4232, 9.930420
260.9053, 6.760254
261.3875, 4.352051
261.8696, 8.372925
262.3517, 23.38879
262.8338, 29.91467
263.3159, 22.00562
263.7980, 4.098999
264.2802, 0.1665040
264.7623, 15.40112
265.2444, 33.11914
265.7265, 42.51367
266.2086, 41.39026
266.6907, 39.18884
267.1729, 36.57629
267.6550, 33.43958
268.1371, 28.85217
268.6192, 21.53882
269.1013, 15.30017
269.5834, 13.62512
270.0656, 17.98376
270.5477, 19.82483
271.0298, 16.97632
271.5119, 11.01208
271.9940, 8.810913
272.4761, 11.16431
272.9583, 15.36389
273.4404, 20.26733
273.9225, 26.47290
274.4046, 29.72131
274.8867, 28.11865
275.3688, 23.28613
275.8510, 24.35388
276.3331, 34.04761
276.8152, 41.33374
277.2973, 33.15686
277.7794, 6.860107
278.2615, 9.720581
278.7437, 9.566040
279.2258, 4.091431
279.7079, 18.21143
280.1900, 33.54688
280.6721, 46.23083
281.1542, 52.55078
281.6364, 52.41260
282.1185, 48.66101
282.6006, 38.41919
283.0827, 25.66150
283.5648, 28.50549
284.0469, 48.90393
284.5291, 74.80237
285.0112, 95.97351
285.4933, 112.4551
285.9754, 126.2397
286.4575, 135.9978
286.9396, 143.7484
287.4217, 156.0046
287.9038, 172.8066
288.3860, 193.6010
288.8681, 221.4180
289.3502, 254.7247
289.8323, 281.4413
290.3144, 291.9990
290.7965, 295.2969
291.2787, 320.2731
291.7608, 368.8519
292.2429, 418.4371
292.7250, 443.2184
293.2071, 448.5139
293.6892, 461.0583
294.1714, 492.7793
294.6535, 535.7056
295.1356, 574.2628
295.6177, 608.5308
296.0998, 638.4673
296.5819, 669.1755
297.0641, 697.3159
297.5462, 710.4141
298.0283, 698.7466
298.5104, 672.6235
298.9925, 647.8064
299.4746, 624.2229
299.9568, 600.5730
300.4389, 575.1710
300.9210, 548.5616
301.4031, 521.6707
301.8852, 498.4720
302.3673, 473.4353
302.8495, 435.4193
303.3316, 385.0056
303.8137, 336.3051
304.2958, 301.6541
304.7779, 276.8492
305.2600, 255.2383
305.7422, 232.9352
306.2243, 213.7003
306.7064, 204.2651
307.1885, 203.9681
307.6706, 201.1698
308.1527, 184.2010
308.6349, 160.0001
309.1170, 138.5269
309.5991, 126.7047
310.0812, 116.8641
310.5633, 103.6550
311.0454, 88.40552
311.5276, 73.50391
312.0097, 54.79443
312.4918, 39.02795
312.9739, 33.77002
313.4560, 59.29309
313.9381, 80.66443
314.4203, 73.27209
314.9024, 40.15088
315.3845, 13.03198
315.8666, 15.12903
316.3487, 26.85974
316.8308, 29.54602
317.3130, 0.7613530
317.7951, 22.75195
318.2772, 19.48865
318.7593, 7.399292
319.2414, 23.69080
319.7235, 4.427002
320.2057, 22.43408
320.6878, 35.18030
321.1699, 12.63989
321.6520, 7.219116
322.1341, 12.98926
322.6162, 7.025146
323.0984, 4.241821
323.5805, 12.96582
324.0626, 22.22363
324.5447, 24.68250
325.0268, 6.826050
325.5089, 4.085205
325.9911, 0.2846680
326.4732, 17.94702
326.9553, 28.61511
327.4374, 23.18628
327.9195, 15.97449
328.4016, 15.18225
328.8838, 31.43250
329.3659, 40.32776
329.8480, 37.27576
330.3301, 24.50623
330.8122, 15.19592
331.2943, 8.545776
331.7765, 6.001587
332.2586, 8.851563
332.7407, 21.44690
333.2228, 31.39795
333.7049, 37.66492
334.1870, 40.99683
334.6692, 44.19360
335.1513, 47.60742
335.6334, 49.82581
336.1155, 49.18469
336.5976, 45.06543
337.0797, 45.22998
337.5619, 50.89172
338.0440, 59.83337
338.5261, 65.82068
339.0082, 68.16931
339.4903, 69.37915
339.9724, 70.73926
340.4546, 72.33130
340.9367, 73.63550
341.4188, 75.74500
341.9009, 76.50403
342.3830, 66.85486
342.8651, 44.66553
343.3473, 31.69934
343.8294, 49.20129
344.3115, 93.57666
344.7936, 112.1875
345.2757, 97.30884
345.7578, 69.01965
346.2400, 56.76086
346.7221, 60.17310
347.2042, 69.99915
347.6863, 85.77869
348.1684, 104.7179
348.6505, 117.1067
349.1327, 121.7974
349.6148, 123.6678
350.0969, 127.5420
350.5790, 133.3090
351.0611, 140.6938
351.5432, 152.2050
352.0254, 164.2743
352.5075, 170.3130
352.9896, 169.4900
353.4717, 168.0759
353.9538, 174.6655
354.4359, 184.7915
354.9181, 189.4038
355.4002, 174.6102
355.8823, 158.7855
356.3644, 162.8669
356.8465, 187.3616
357.3286, 209.9813
357.8108, 212.5154
358.2929, 205.7468
358.7750, 203.8833
359.2571, 217.4620
359.7392, 232.8811
360.2213, 241.6050
360.7035, 244.1155
361.1856, 248.7125
361.6677, 263.0955
362.1498, 279.3417
362.6319, 290.4789
363.1140, 289.0635
363.5962, 288.1992
364.0783, 290.9514
364.5604, 297.1252
365.0425, 305.7958
365.5246, 320.9153
366.0067, 335.9647
366.4889, 346.9728
366.9710, 346.8596
367.4531, 351.7596
367.9352, 361.1687
368.4173, 375.2604
368.8994, 394.4095
369.3815, 431.3628
369.8636, 462.5533
370.3458, 477.2246
370.8279, 458.3257
371.3100, 451.8455
371.7921, 461.3282
372.2742, 482.5728
372.7563, 510.2324
373.2385, 553.2007
373.7206, 587.3145
374.2027, 598.7612
374.6848, 578.5151
375.1669, 571.4028
375.6490, 578.8354
376.1312, 597.4374
376.6133, 623.8535
377.0954, 659.6692
377.5775, 691.6429
378.0596, 713.6775
378.5417, 725.6812
379.0239, 740.1935
379.5060, 757.2201
379.9881, 773.3645
380.4702, 783.1711
380.9523, 786.9902
381.4344, 792.1399
381.9166, 800.8949
382.3987, 812.7686
382.8808, 829.3018
383.3629, 850.7532
383.8450, 869.0524
384.3271, 870.3208
384.8093, 860.8972
385.2914, 861.2749
385.7735, 884.1055
386.2556, 913.2604
386.7377, 926.0242
387.2198, 923.7234
387.7020, 916.6465
388.1841, 907.0626
388.6662, 898.7485
389.1483, 897.9564
389.6304, 911.9414
390.1125, 924.6157
390.5947, 923.7627
391.0768, 911.8151
391.5589, 896.1667
392.0410, 874.2938
392.5231, 854.1709
393.0052, 843.0122
393.4874, 847.0911
393.9695, 847.7568
394.4516, 838.5453
394.9337, 820.8987
395.4158, 797.4794
395.8979, 761.7935
396.3801, 726.4633
396.8622, 696.6235
397.3443, 673.3585
397.8264, 652.8943
398.3085, 638.5081
398.7906, 625.4962
399.2728, 608.2216
399.7549, 580.8684
400.2370, 555.6577
400.7191, 536.6525
401.2012, 524.7058
401.6833, 505.9514
402.1655, 475.2998
402.6476, 443.2126
403.1297, 419.4741
403.6118, 408.4912
404.0939, 394.9872
404.5760, 375.8055
405.0582, 352.3026
405.5403, 331.9584
406.0224, 315.1318
406.5045, 300.9083
406.9866, 291.7606
407.4688, 288.4446
407.9509, 273.2454
408.4330, 240.3094
408.9151, 199.9121
409.3972, 174.0668
409.8793, 162.9115
410.3615, 155.1281
410.8436, 143.8325
411.3257, 130.5881
411.8078, 121.6798
412.2899, 118.1945
412.7720, 115.7140
413.2542, 108.6036
413.7363, 98.19336
414.2184, 88.23120
414.7005, 79.86011
415.1826, 73.28516
415.6647, 70.15417
416.1469, 70.59021
416.6290, 69.27161
417.1111, 62.13904
417.5932, 50.92969
418.0753, 38.20117
418.5574, 20.13013
419.0396, 4.669800
419.5217, 2.737061
420.0038, 3.141602
420.4859, 3.996460
420.9680, 9.884277
421.4501, 16.17334
421.9323, 19.45618
422.4144, 16.49194
422.8965, 14.14648
423.3786, 11.90698
423.8607, 10.86633
424.3428, 14.17358
424.8250, 34.58374
425.3071, 23.81079
425.7892, 17.22278
426.2713, 14.59314
426.7534, 27.78943
427.2355, 20.54236
427.7177, 21.48364
428.1998, 22.75769
428.6819, 12.62329
429.1640, 23.50122
429.6461, 13.53796
430.1282, 11.88745
430.6104, 6.423462
431.0925, 9.193604
431.5746, 9.411377
432.0567, 1.373901
432.5388, 2.108643
433.0209, 1.572388
433.5031, 4.194458
433.9852, 6.880859
434.4673, 3.155518
434.9494, 6.963379
435.4315, 3.354370
435.9136, 3.056885
436.3958, 0.7099610
436.8779, 9.760620
437.3600, 26.00867
437.8421, 42.70703
438.3242, 50.55664
438.8063, 52.48254
439.2885, 56.64587
439.7706, 73.05579
440.2527, 90.18506
440.7348, 94.54407
441.2169, 83.56641
441.6990, 76.38904
442.1812, 88.31946
442.6633, 108.4856
443.1454, 124.0819
443.6275, 125.4408
444.1096, 126.9850
444.5917, 134.0927
445.0739, 146.5209
445.5560, 159.0184
446.0381, 169.4303
446.5202, 180.3049
447.0023, 193.1161
447.4844, 207.8197
447.9666, 224.8175
448.4487, 246.0198
448.9308, 269.4790
449.4129, 289.3466
449.8950, 300.8883
450.3771, 316.0923
450.8593, 342.0984
451.3413, 382.3586
451.8235, 410.3197
452.3056, 421.0031
452.7877, 427.3645
453.2698, 446.8939
453.7519, 480.1925
454.2340, 519.3938
454.7162, 565.1425
455.1983, 614.4489
455.6804, 658.5345
456.1625, 697.4930
456.6446, 732.0566
457.1267, 753.4154
457.6089, 770.4260
458.0910, 811.7319
458.5731, 890.7546
459.0552, 981.7284
459.5373, 1054.027
460.0194, 1111.590
460.5016, 1168.927
460.9837, 1223.617
461.4658, 1287.319
461.9479, 1376.346
462.4300, 1497.817
462.9121, 1613.049
463.3943, 1685.489
463.8764, 1744.218
464.3585, 1825.758
464.8406, 1958.092
465.3227, 2098.226
465.8048, 2233.143
466.2870, 2362.433
466.7691, 2493.679
467.2512, 2618.262
467.7333, 2753.102
468.2154, 2909.195
468.6975, 3101.325
469.1797, 3290.494
469.6618, 3468.227
470.1439, 3641.591
470.6260, 3826.188
471.1081, 4020.895
471.5902, 4229.404
472.0724, 4455.612
472.5545, 4702.620
473.0366, 4945.883
473.5187, 5180.945
474.0008, 5417.926
474.4829, 5667.594
474.9651, 5929.554
475.4472, 6199.812
475.9293, 6480.635
476.4114, 6766.759
476.8935, 7049.899
477.3756, 7327.696
477.8578, 7601.320
478.3399, 7890.472
478.8220, 8169.688
479.3041, 8396.798
479.7862, 8551.914
480.2683, 8685.024
480.7505, 8852.569
481.2326, 9025.246
481.7147, 9142.615
482.1968, 9163.491
482.6789, 9135.954
483.1610, 9085.130
483.6432, 9013.367
484.1253, 8908.556
484.6074, 8760.522
485.0895, 8582.294
485.5716, 8382.839
486.0537, 8165.658
486.5359, 7923.032
487.0180, 7647.016
487.5001, 7343.015
487.9822, 7027.144
488.4643, 6690.740
488.9464, 6362.039
489.4286, 6051.759
489.9107, 5764.522
490.3928, 5490.040
490.8749, 5230.162
491.3570, 4979.446
491.8391, 4719.953
492.3213, 4454.617
492.8034, 4204.864
493.2855, 3983.867
493.7676, 3782.564
494.2497, 3570.789
494.7318, 3351.975
495.2140, 3147.975
495.6961, 2991.111
496.1782, 2859.154
496.6603, 2717.152
497.1424, 2546.871
497.6245, 2383.692
498.1067, 2253.529
498.5888, 2149.229
499.0709, 2055.048
499.5530, 1974.825
500.0351, 1895.287
500.5172, 1805.531
500.9994, 1703.984
501.4815, 1608.267
501.9636, 1515.992
502.4457, 1433.775
502.9278, 1367.593
503.4099, 1337.350
503.8921, 1296.662
504.3742, 1234.138
504.8563, 1156.448
505.3384, 1096.337
505.8205, 1063.523
506.3026, 1031.801
506.7848, 988.1008
507.2669, 930.3054
507.7490, 874.5580
508.2311, 816.6532
508.7132, 767.3641
509.1953, 751.5728
509.6775, 765.6174
510.1596, 761.6455
510.6417, 713.3174
511.1238, 643.1382
511.6059, 593.9769
512.0880, 565.0696
512.5701, 546.8550
513.0522, 540.5603
513.5344, 537.7736
514.0165, 525.4915
514.4986, 495.4775
514.9807, 468.1095
515.4628, 464.5662
515.9449, 472.5060
516.4271, 470.6727
516.9092, 446.5164
517.3913, 416.5695
517.8734, 383.8013
518.3555, 348.1805
518.8376, 320.4091
519.3198, 305.6195
519.8019, 296.3286
520.2840, 288.1216
520.7661, 281.1541
521.2482, 275.4856
521.7303, 272.1746
522.2125, 269.4430
522.6946, 262.6918
523.1767, 250.5526
523.6588, 239.9362
524.1409, 235.5360
524.6230, 235.9502
525.1052, 227.5796
525.5873, 209.2129
526.0694, 191.4536
526.5515, 185.8154
527.0336, 189.2198
527.5157, 194.1594
527.9979, 201.3920
528.4800, 204.8512
528.9621, 195.8444
529.4442, 177.3420
529.9263, 157.7595
530.4084, 138.7325
530.8906, 122.2942
531.3727, 110.8671
531.8548, 105.0149
532.3369, 99.66479
532.8190, 90.10168
533.3011, 81.61902
533.7833, 79.20886
534.2654, 89.85620
534.7475, 98.87659
535.2296, 104.0576
535.7117, 106.5936
536.1938, 111.2794
536.6760, 121.2823
537.1581, 127.6055
537.6402, 126.4750
538.1223, 117.6364
538.6044, 103.3562
539.0865, 81.68848
539.5687, 59.71204
540.0508, 44.56689
540.5329, 36.02429
541.0150, 35.28552
541.4971, 46.64648
541.9792, 60.78833
542.4614, 60.28210
542.9435, 48.19287
543.4256, 38.77393
543.9077, 46.32214
544.3898, 57.34497
544.8719, 57.79016
545.3541, 44.99683
545.8362, 31.01733
546.3183, 17.69995
546.8004, 7.698120
547.2825, 3.781372
547.7646, 15.75891
548.2468, 23.68042
548.7289, 22.45996
549.2110, 13.75452
549.6931, 4.053101
550.1752, 13.10266
550.6573, 22.37817
551.1395, 14.59192
551.6216, 14.91858
552.1037, 33.60059
552.5858, 40.13416
553.0679, 39.10938
553.5500, 35.09521
554.0322, 28.15442
554.5143, 17.08215
554.9964, 2.174561
555.4785, 20.99646
555.9606, 19.39856
556.4427, 0.9113770
556.9249, 15.36707
557.4070, 16.20227
557.8891, 9.450439
558.3712, 3.254883
558.8533, 1.598511
559.3354, 6.059204
559.8176, 12.03906
560.2997, 17.39050
560.7818, 19.91858
561.2639, 21.29260
561.7460, 17.28125
562.2281, 1.118896
562.7103, 22.28113
563.1924, 34.53784
563.6745, 32.37830
564.1566, 23.06787
564.6387, 6.341309
565.1208, 19.76282
565.6030, 33.64050
566.0851, 32.13550
566.5672, 25.37097
567.0493, 24.31702
567.5314, 28.51062
568.0135, 27.32202
568.4957, 17.17334
568.9778, 3.566528
569.4599, 6.327637
569.9420, 12.31458
570.4241, 13.14075
570.9063, 0.4826660
571.3884, 14.30103
571.8705, 10.98120
572.3526, 10.04309
572.8347, 29.06799
573.3168, 34.60229
573.7990, 34.13025
574.2811, 33.86377
574.7632, 36.39697
575.2453, 37.27795
575.7274, 34.22278
576.2095, 29.30505
576.6917, 26.79858
577.1738, 28.33667
577.6559, 29.54480
578.1380, 28.77905
578.6201, 26.27344
579.1022, 25.96521
579.5844, 27.97180
580.0665, 31.67993
580.5486, 38.92322
581.0307, 48.53345
581.5128, 50.63757
581.9949, 42.62988
582.4771, 32.33667
582.9592, 26.92676
583.4413, 26.69666
583.9234, 32.38391
584.4055, 54.09839
584.8876, 74.05176
585.3698, 75.78113
585.8519, 62.42859
586.3340, 51.14294
586.8161, 50.44031
587.2982, 52.95679
587.7803, 55.08496
588.2625, 57.29456
588.7446, 56.73584
589.2267, 50.54517
589.7088, 43.42847
590.1909, 40.28857
590.6730, 41.59314
591.1552, 45.89832
591.6373, 53.85327
592.1194, 64.11731
592.6015, 73.71826
593.0836, 82.83362
593.5657, 88.43225
594.0479, 88.58936
594.5300, 84.02856
595.0121, 74.39795
595.4942, 59.40845
595.9763, 47.95520
596.4584, 49.46924
596.9406, 58.29456
597.4227, 67.72644
597.9048, 79.14478
598.3869, 85.42517
598.8690, 78.03552
599.3511, 63.83875
599.8333, 56.03796
600.3154, 57.35815
600.7975, 65.78516
601.2796, 85.40588
601.7617, 115.7196
602.2438, 132.0762
602.7260, 130.3185
603.2081, 122.0039
603.6902, 112.1262
604.1723, 99.95972
604.6544, 96.48950
605.1365, 104.3066
605.6187, 114.9419
606.1008, 116.2257
606.5829, 109.9066
607.0650, 103.2927
607.5471, 99.00964
608.0292, 93.97876
608.5114, 82.85327
608.9935, 69.45557
609.4756, 64.31055
609.9577, 78.48584
610.4398, 95.69324
610.9219, 106.2643
611.4041, 108.9167
611.8862, 108.5326
612.3683, 101.5144
612.8504, 94.08582
613.3325, 91.00098
613.8146, 97.28210
614.2968, 103.0959
614.7789, 107.8091
615.2610, 110.2402
615.7431, 108.2629
616.2252, 101.5266
616.7073, 93.16626
617.1895, 81.73425
617.6716, 70.54590
618.1537, 73.43079
618.6358, 89.18372
619.1179, 100.0338
619.6000, 86.11243
620.0822, 64.67261
620.5643, 56.92371
621.0464, 67.00171
621.5285, 77.88684
622.0106, 80.17627
622.4927, 78.09717
622.9749, 75.19604
623.4570, 75.88403
623.9391, 74.11511
624.4212, 67.92664
624.9033, 58.74622
625.3854, 49.91248
625.8676, 39.38904
626.3497, 35.84717
626.8318, 45.85474
627.3139, 66.74084
627.7960, 72.15137
628.2781, 59.80273
628.7603, 49.05847
629.2424, 62.38318
629.7245, 90.20068
630.2066, 105.1031
630.6887, 101.2422
631.1708, 90.22766
631.6530, 76.67725
632.1351, 64.21265
632.6172, 58.31628
633.0993, 67.39587
633.5814, 76.70789
634.0635, 81.48547
634.5457, 82.39392
635.0278, 81.98206
635.5099, 79.66187
635.9920, 77.02148
636.4741, 74.33105
636.9562, 70.76599
637.4384, 70.73962
637.9205, 75.99829
638.4026, 80.13440
638.8847, 76.67212
639.3668, 66.42542
639.8489, 57.06958
640.3311, 49.03442
640.8132, 43.62329
641.2953, 44.59875
641.7774, 49.32800
642.2595, 51.94507
642.7416, 48.53125
643.2238, 43.75891
643.7059, 39.34058
644.1880, 35.78418
644.6701, 34.64575
645.1522, 35.04028
645.6343, 39.29443
646.1165, 52.99292
646.5986, 78.99133
647.0807, 84.31384
647.5628, 56.29797
648.0449, 26.13452
648.5270, 18.83716
649.0092, 36.45154
649.4913, 50.99170
649.9734, 60.75757
650.4555, 66.62268
650.9376, 68.84753
651.4197, 67.73914
651.9019, 65.51599
652.3840, 61.84583
652.8661, 58.84216
653.3482, 58.61023
653.8303, 60.53235
654.3124, 63.52722
654.7946, 69.08984
655.2767, 74.37622
655.7588, 76.87805
656.2409, 75.92749
656.7230, 77.22046
657.2051, 82.58435
657.6872, 88.41736
658.1693, 93.39807
658.6514, 98.61182
659.1335, 96.77271
659.6157, 85.07153
660.0978, 72.49817
660.5799, 71.44653
661.0620, 80.48047
661.5441, 92.45947
662.0262, 108.2854
662.5084, 121.7435
662.9905, 121.8676
663.4726, 113.1495
663.9547, 107.7859
664.4368, 118.2908
664.9189, 127.6780
665.4011, 124.1917
665.8832, 108.1206
666.3653, 97.70105
666.8474, 96.55396
667.3295, 101.1194
667.8116, 111.5640
668.2938, 130.7168
668.7759, 142.0719
669.2580, 143.3428
669.7401, 142.0570
670.2222, 147.4343
670.7043, 158.5874
671.1865, 166.6422
671.6686, 170.6256
672.1507, 170.3483
672.6328, 159.0276
673.1149, 140.1740
673.5970, 126.4781
674.0792, 127.0424
674.5613, 130.5839
675.0434, 131.2719
675.5255, 129.6798
676.0076, 128.9280
676.4897, 131.0768
676.9719, 132.1112
677.4540, 129.9688
677.9361, 124.2666
678.4182, 118.6904
678.9003, 112.9452
679.3824, 107.3486
679.8646, 103.2472
680.3467, 100.2251
680.8288, 91.87109
681.3109, 76.24182
681.7930, 60.83936
682.2751, 54.52917
682.7573, 54.67175
683.2394, 55.86951
683.7215, 56.99475
684.2036, 58.73718
684.6857, 60.84412
685.1678, 62.42456
685.6500, 62.83130
686.1321, 61.41064
686.6142, 59.86890
687.0963, 58.50623
687.5784, 57.37842
688.0605, 57.58984
688.5427, 61.38037
689.0248, 60.69458
689.5069, 44.91455
689.9890, 16.93726
690.4711, 13.33081
690.9532, 36.53320
691.4354, 60.77734
691.9175, 59.75281
692.3996, 43.41077
692.8817, 24.70483
693.3638, 2.456909
693.8459, 10.80701
694.3281, 1.858276
694.8102, 24.50317
695.2923, 35.84460
695.7744, 17.24597
696.2565, 5.696167
696.7386, 7.486572
697.2208, 18.29956
697.7029, 26.20422
698.1850, 31.25061
698.6671, 33.04236
699.1492, 29.95923
699.6313, 23.92725
700.1135, 22.85181
700.5956, 26.37781
701.0777, 28.46362
701.5598, 21.58899
702.0419, 12.64282
702.5240, 11.92224
703.0062, 20.68152
703.4883, 26.49805
703.9704, 19.41260
704.4525, 9.704224
704.9346, 4.711670
705.4167, 9.603638
705.8989, 12.80078
706.3810, 14.78564
706.8631, 14.64648
707.3452, 9.746826
707.8273, 1.382202
708.3094, 6.657471
708.7916, 2.125732
709.2737, 6.110718
709.7558, 6.055542
710.2379, 0.3564450
710.7200, 5.338257
711.2021, 3.624756
711.6843, 0.2628170
712.1664, 2.545776
712.6485, 7.955322
713.1306, 5.555542
713.6127, 19.93542
714.0948, 44.05896
714.5770, 54.84119
715.0591, 51.63184
715.5412, 46.26514
716.0233, 37.85278
716.5054, 28.95520
716.9875, 20.65308
717.4697, 13.02649
717.9518, 7.888550
718.4339, 5.346069
718.9160, 5.655762
719.3981, 12.87708
719.8802, 22.57324
720.3624, 24.91028
720.8445, 13.95715
721.3266, 4.244873
721.8087, 8.234741
722.2908, 18.16675
722.7729, 22.75452
723.2551, 5.772949
723.7372, 1.057617
724.2193, 22.38745
724.7014, 56.94568
725.1835, 66.32434
725.6656, 44.14734
726.1478, 22.78906
726.6299, 13.26514
727.1120, 13.10767
727.5941, 19.28369
728.0762, 30.54602
728.5583, 34.51392
729.0405, 11.23621
729.5226, 15.60522
730.0047, 18.46472
730.4868, 4.508301
730.9689, 20.92432
731.4510, 12.92969
731.9332, 1.670654
732.4153, 12.56714
732.8974, 21.82239
733.3795, 18.90479
733.8616, 3.562744
734.3438, 26.86194
734.8259, 28.25134
735.3080, 8.401611
735.7901, 0.4548340
736.2722, 11.53101
736.7543, 26.66919
737.2365, 25.97632
737.7186, 15.32959
738.2007, 6.513794
738.6828, 2.586548
739.1649, 2.806763
739.6470, 12.77148
740.1292, 26.32080
740.6113, 29.24927
741.0934, 5.589844
741.5755, 12.31616
742.0576, 17.39600
742.5397, 12.02234
743.0219, 5.171265
743.5040, 3.785522
743.9861, 10.35559
744.4682, 9.645630
744.9503, 5.406128
745.4324, 9.272705
745.9146, 20.49048
746.3967, 31.39478
746.8788, 41.00842
747.3609, 45.09753
747.8430, 35.19226
748.3251, 7.079346
748.8073, 7.215698
749.2894, 14.77100
749.7715, 41.30798
750.2536, 52.22559
750.7357, 41.92090
751.2178, 33.94312
751.7000, 28.84509
752.1821, 24.11536
752.6642, 12.57617
753.1463, 3.136108
753.6284, 8.249878
754.1105, 2.089966
754.5927, 16.35168
755.0748, 25.85706
755.5569, 30.95667
756.0390, 32.38989
756.5211, 22.92334
757.0032, 18.26135
757.4854, 27.24683
757.9675, 43.58569
758.4496, 52.74817
758.9317, 52.64331
759.4138, 50.00696
759.8959, 46.68005
760.3781, 41.76843
760.8602, 29.15417
761.3423, 9.746460
761.8244, 3.020874
762.3065, 1.089600
762.7886, 14.19495
763.2708, 29.63196
763.7529, 46.36890
764.2350, 58.44104
764.7171, 59.54504
765.1992, 58.05249
765.6813, 55.53552
766.1635, 50.88391
766.6456, 61.02490
767.1277, 99.31360
767.6098, 130.3330
768.0919, 126.3425
768.5740, 87.76050
769.0562, 62.41785
769.5383, 51.48877
770.0204, 49.32178
770.5025, 55.30969
770.9846, 65.39148
771.4667, 72.66736
771.9489, 75.71985
772.4310, 76.41663
772.9131, 76.93506
773.3952, 74.98083
773.8773, 67.87109
774.3594, 44.34546
774.8416, 33.94348
775.3237, 43.01562
775.8058, 59.20398
776.2879, 66.44055
776.7700, 64.74829
777.2521, 58.22852
777.7343, 45.45203
778.2164, 33.23401
778.6985, 32.16003
779.1806, 39.11426
779.6627, 46.94373
780.1448, 52.96826
780.6270, 58.00818
781.1091, 63.21899
781.5912, 67.75073
782.0733, 68.27380
782.5554, 54.98804
783.0375, 53.93018
783.5197, 77.57947
784.0018, 115.7715
784.4839, 130.0741
784.9660, 119.9553
785.4481, 102.7827
785.9302, 81.25000
786.4124, 60.88184
786.8945, 51.05469
787.3766, 50.05249
787.8587, 55.59509
788.3408, 76.80872
788.8229, 96.14563
789.3051, 104.1226
789.7872, 99.47241
790.2693, 89.19568
790.7514, 67.85767
791.2335, 50.97437
791.7156, 49.41870
792.1978, 61.78809
792.6799, 70.07104
793.1620, 74.25623
793.6441, 73.91907
794.1262, 65.95447
794.6083, 54.42334
795.0905, 43.93286
795.5726, 34.40100
796.0547, 31.22546
796.5368, 44.32336
797.0189, 60.14185
797.5010, 67.39148
797.9832, 61.71912
798.4653, 56.68066
798.9474, 51.17773
799.4295, 46.82104
799.9116, 49.17871
800.3937, 57.94568
800.8759, 57.33875
801.3580, 43.22559
801.8401, 29.13550
802.3222, 31.72681
802.8043, 43.38123
803.2864, 52.98340
803.7686, 58.17517
804.2507, 59.85083
804.7328, 57.81213
805.2149, 52.51331
805.6970, 44.23523
806.1791, 30.08911
806.6613, 20.04126
807.1434, 17.46191
807.6255, 18.32568
808.1076, 13.58643
808.5897, 5.507690
809.0718, 8.291626
809.5540, 30.83057
810.0361, 58.66174
810.5182, 85.62451
811.0003, 106.5096
811.4824, 110.7651
811.9645, 76.70984
812.4467, 48.21191
812.9288, 39.57007
813.4109, 43.22473
813.8930, 40.69128
814.3751, 30.27393
814.8572, 20.09241
815.3394, 10.03162
815.8215, 4.142456
816.3036, 18.67407
816.7857, 48.26074
817.2678, 66.86462
817.7499, 52.03247
818.2321, 30.41895
818.7142, 19.70825
819.1963, 18.01917
819.6784, 15.42932
820.1605, 8.318604
820.6426, 2.487183
821.1248, 2.075439
821.6068, 4.396606
822.0889, 3.985596
822.5710, 23.90295
823.0532, 43.73669
823.5353, 61.39990
824.0174, 73.08020
824.4995, 68.32483
824.9816, 49.58508
825.4637, 31.12744
825.9459, 16.38770
826.4280, 8.014404
826.9101, 10.91492
827.3922, 25.68896
827.8743, 31.85376
828.3564, 23.52625
828.8386, 17.23022
829.3207, 23.62915
829.8028, 39.84900
830.2849, 41.41821
830.7670, 28.56177
831.2491, 17.00610
831.7313, 22.21240
832.2134, 32.94226
832.6955, 35.76355
833.1776, 29.92102
833.6597, 22.58350
834.1418, 13.26782
834.6240, 5.895630
835.1061, 2.966064
835.5882, 4.786377
836.0703, 3.094971
836.5524, 3.503540
837.0345, 6.716797
837.5167, 3.001587
837.9988, 20.66943
838.4809, 31.88940
838.9630, 35.95032
839.4451, 35.66406
839.9272, 28.37915
840.4094, 20.69275
840.8915, 18.70227
841.3736, 25.11792
841.8557, 28.00208
842.3378, 23.67395
842.8199, 19.27332
843.3021, 20.91992
843.7842, 28.98608
844.2663, 28.05151
844.7484, 16.99841
845.2305, 7.880249
845.7126, 17.27698
846.1948, 32.46545
846.6769, 33.21558
847.1590, 14.80664
847.6411, 1.104980
848.1232, 2.886475
848.6053, 12.02673
849.0875, 24.18201
849.5696, 42.35645
850.0517, 49.99915
850.5338, 44.35144
851.0159, 35.97314
851.4980, 35.37756
851.9802, 39.92883
852.4623, 40.35950
852.9444, 35.57129
853.4265, 30.87634
853.9086, 33.28931
854.3907, 35.91418
854.8729, 30.36438
855.3550, 8.501953
855.8371, 1.214355
856.3192, 17.32629
856.8013, 38.92688
857.2834, 52.33655
857.7656, 57.46667
858.2477, 64.69897
858.7298, 75.39026
859.2119, 80.18384
859.6940, 61.73035
860.1761, 35.77954
860.6583, 25.80603
861.1404, 38.86829
861.6225, 49.20728
862.1046, 44.76074
862.5867, 35.72925
863.0688, 29.35046
863.5510, 25.19800
864.0331, 26.59497
864.5152, 35.99683
864.9973, 42.77893
865.4794, 33.42810
865.9615, 13.94006
866.4437, 0.4204100
866.9258, 8.111450
867.4079, 8.519165
867.8900, 5.771118
868.3721, 22.87390
868.8542, 33.23633
869.3364, 33.62195
869.8185, 33.93848
870.3006, 34.75354
870.7827, 34.68787
871.2648, 32.45325
871.7469, 28.28577
872.2291, 22.44678
872.7112, 14.56543
873.1933, 11.78381
873.6754, 27.74646
874.1575, 47.89099
874.6396, 56.53381
875.1218, 49.82654
875.6039, 40.11218
876.0860, 24.87830
876.5681, 12.39563
877.0502, 8.109863
877.5323, 13.12354
878.0145, 17.12634
878.4966, 19.33740
878.9787, 20.35938
879.4608, 22.38940
879.9429, 24.05481
880.4250, 20.77295
880.9072, 11.93140
881.3893, 7.831421
881.8714, 17.38416
882.3535, 29.84875
882.8356, 39.42175
883.3177, 45.99976
883.7999, 48.11682
884.2820, 44.34485
884.7641, 40.24487
885.2462, 40.27332
885.7283, 43.12341
886.2104, 44.76318
886.6926, 45.15344
887.1747, 45.72461
887.6568, 52.96582
888.1389, 56.30505
888.6210, 44.45264
889.1031, 14.80994
889.5853, 0.8576660
890.0674, 4.594482
890.5495, 12.13000
891.0316, 12.28064
891.5137, 6.812012
891.9958, 2.788696
892.4780, 0.4897460
892.9601, 2.586182
893.4422, 24.65271
893.9243, 47.51355
894.4064, 52.46228
894.8885, 39.73450
895.3707, 31.78284
895.8528, 35.46692
896.3349, 42.37878
896.8170, 53.18469
897.2991, 65.55286
897.7813, 60.64343
898.2634, 37.57458
898.7455, 17.97546
899.2276, 14.46155
899.7097, 20.36890
900.1918, 33.20630
900.6740, 49.64294
901.1561, 57.38733
901.6382, 42.40039
902.1203, 29.67786
902.6024, 25.49158
903.0845, 27.59058
903.5667, 31.49438
904.0488, 37.53149
904.5309, 42.49231
905.0130, 43.72937
905.4951, 43.88196
905.9772, 50.30200
906.4594, 60.01282
906.9415, 64.79773
907.4236, 57.92688
907.9057, 50.97131
908.3878, 41.60693
908.8699, 33.23340
909.3521, 37.23926
909.8342, 59.66235
910.3163, 68.72290
910.7984, 53.07800
911.2805, 29.43225
911.7626, 25.27661
912.2448, 35.82666
912.7269, 50.56055
913.2090, 72.45093
913.6911, 88.32605
914.1732, 86.93677
914.6553, 76.27625
915.1375, 68.58386
915.6196, 65.93323
916.1017, 61.99121
916.5838, 55.79907
917.0659, 49.59509
917.5480, 45.96509
918.0302, 44.88477
918.5123, 45.61694
918.9944, 48.08972
919.4765, 52.04126
919.9586, 56.09058
920.4407, 61.98645
920.9229, 73.42297
921.4050, 101.1681
921.8871, 104.8446
922.3692, 74.41895
922.8513, 41.49109
923.3334, 42.43872
923.8156, 66.10339
924.2977, 66.04590
924.7798, 37.83069
925.2619, 13.40527
925.7440, 22.51379
926.2261, 40.17371
926.7083, 46.41199
927.1904, 36.58618
927.6725, 32.94104
928.1546, 38.12720
928.6367, 44.62598
929.1188, 49.61682
929.6010, 52.45850
930.0831, 47.36133
930.5652, 35.21069
931.0473, 24.77563
931.5294, 21.64453
932.0115, 22.82800
932.4937, 27.11304
932.9758, 34.18701
933.4579, 39.59094
933.9400, 45.57434
934.4221, 44.38220
934.9042, 28.83069
935.3864, 7.372314
935.8685, 10.05957
936.3506, 32.85510
936.8327, 51.80225
937.3148, 56.52979
937.7969, 51.68457
938.2791, 33.82849
938.7612, 9.427002
939.2433, 6.134033
939.7254, 7.229858
940.2075, 5.383179
940.6896, 1.940552
941.1718, 3.505859
941.6539, 13.34143
942.1360, 26.45105
942.6181, 37.09973
943.1002, 44.44824
943.5823, 47.18591
944.0645, 38.44043
944.5466, 27.05676
945.0287, 24.22974
945.5108, 41.59692
945.9929, 50.80273
946.4750, 50.27026
946.9572, 44.58972
947.4393, 37.57227
947.9214, 29.94141
948.4035, 20.12598
948.8856, 7.216187
949.3677, 0.8627930
949.8499, 19.33081
950.3320, 39.87195
950.8141, 40.61975
951.2962, 13.26257
951.7783, 0.1318360
952.2604, 7.268066
952.7426, 17.57971
953.2247, 22.31165
953.7068, 22.02734
954.1889, 15.85339
954.6710, 4.904419
955.1531, 0.6451420
955.6353, 12.44800
956.1174, 26.96997
956.5995, 31.10291
957.0816, 25.55176
957.5637, 19.39014
958.0458, 12.89539
958.5280, 5.290283
959.0101, 6.126221
959.4922, 16.28552
959.9743, 7.651489
960.4564, 13.88501
960.9385, 26.71570
961.4207, 14.90613
961.9028, 1.736572
962.3849, 0.2781980
962.8670, 4.831421
963.3491, 10.82532
963.8312, 21.70374
964.3134, 19.93384
964.7955, 1.299683
965.2776, 22.93591
965.7597, 12.03125
966.2418, 17.81714
966.7239, 30.78320
967.2061, 16.74915
967.6882, 1.816895
968.1703, 1.288086
968.6524, 6.095581
969.1345, 9.872314
969.6166, 13.49927
970.0988, 9.206055
970.5809, 5.399292
971.0630, 18.21802
971.5451, 18.10217
972.0272, 10.75403
972.5093, 5.608398
972.9915, 2.812134
973.4736, 1.004028
973.9557, 1.998047
974.4378, 1.108521
974.9199, 6.325439
975.4020, 17.68005
975.8842, 19.12927
976.3663, 9.544434
976.8484, 0.8663330
977.3305, 3.628174
977.8126, 2.993530
978.2947, 8.813354
978.7769, 26.54810
979.2590, 38.06665
979.7411, 33.64563
980.2232, 29.34668
980.7053, 29.77039
981.1874, 30.78857
981.6696, 23.65222
982.1517, 7.795044
982.6338, 6.554810
983.1159, 24.96899
983.5980, 46.00146
984.0801, 53.61780
984.5623, 52.67212
985.0444, 47.49097
985.5265, 36.52783
986.0085, 30.85413
986.4907, 34.17261
986.9728, 39.14880
987.4549, 43.48804
987.9370, 46.46887
988.4191, 35.16492
988.9012, 10.87976
989.3834, 4.927246
989.8655, 9.809937
990.3476, 31.87219
990.8297, 46.97131
991.3118, 54.37415
991.7939, 54.26245
992.2761, 42.57800
992.7582, 33.27087
993.2403, 30.33899
993.7224, 31.07202
994.2045, 27.71277
994.6866, 21.62634
995.1688, 19.06396
995.6509, 24.82605
996.1330, 29.75720
996.6151, 23.30688
997.0972, 15.33496
997.5793, 21.69434
998.0615, 52.79431
998.5436, 60.39905
999.0257, 37.80066
999.5078, 11.41931
999.9899, 11.11572
1000.472, 24.12012
1000.954, 28.94678
1001.436, 23.01892
1001.918, 15.32776
1002.401, 0.8608400
1002.883, 6.701172
1003.365, 11.35388
1003.847, 49.37195
1004.329, 67.13416
1004.811, 64.50415
1005.293, 56.53564
1005.775, 48.66907
1006.257, 41.41150
1006.740, 33.88062
1007.222, 27.21008
1007.704, 24.81201
1008.186, 31.32886
1008.668, 35.17737
1009.150, 34.04651
1009.632, 30.37439
1010.114, 29.17114
1010.596, 30.14111
1011.079, 32.16052
1011.561, 35.33948
1012.043, 37.68823
1012.525, 39.07935
1013.007, 37.40942
1013.489, 29.08508
1013.971, 9.316528
1014.453, 4.792847
1014.936, 19.30823
1015.418, 36.82959
1015.900, 51.25000
1016.382, 59.37744
1016.864, 47.96143
1017.346, 21.26392
1017.828, 2.298096
1018.310, 6.246704
1018.792, 14.62097
1019.275, 23.68555
1019.757, 31.21338
1020.239, 32.47107
1020.721, 27.68555
1021.203, 19.84839
1021.685, 7.840942
1022.167, 2.211670
1022.649, 0.4461670
1023.132, 6.441528
1023.614, 4.683594
1024.096, 17.15186
1024.578, 22.67419
1025.060, 2.6733000E-02
1025.542, 23.81970
1026.024, 25.22510
1026.506, 8.797241
1026.989, 3.679199
1027.471, 9.572510
1027.953, 13.33801
1028.435, 2.114624
1028.917, 15.84375
1029.399, 8.783569
1029.881, 14.87061
1030.363, 25.96521
1030.845, 20.92432
1031.328, 16.03552
1031.810, 16.00439
1032.292, 17.78882
1032.774, 16.65198
1033.256, 13.45312
1033.738, 10.48450
1034.220, 8.659302
1034.702, 6.618164
1035.184, 4.574585
1035.667, 1.889282
1036.149, 3.204468
1036.631, 11.04883
1037.113, 11.76123
1037.595, 4.853149
1038.077, 1.755005
1038.559, 1.468750
1039.041, 4.995972
1039.524, 0.9394530
1040.006, 15.80371
1040.488, 25.95642
1040.970, 29.57605
1041.452, 30.88367
1041.934, 30.16467
1042.416, 29.05505
1042.898, 30.24670
1043.380, 33.84497
1043.863, 40.75171
1044.345, 56.37500
1044.827, 66.22803
1045.309, 59.28052
1045.791, 47.69568
1046.273, 42.85046
1046.755, 45.49878
1047.237, 47.60852
1047.719, 49.59619
1048.202, 49.08203
1048.684, 40.42798
1049.166, 31.08203
1049.648, 30.69397
1050.130, 38.84314
1050.612, 42.47473
1051.094, 39.29504
1051.576, 33.01758
1052.059, 22.26050
1052.541, 11.64075
1053.023, 13.78320
1053.505, 25.33496
1053.987, 35.73755
1054.469, 41.65430
1054.951, 45.57141
1055.433, 46.64160
1055.916, 47.58594
1056.398, 51.33240
1056.880, 58.65295
1057.362, 64.52539
1057.844, 68.99170
1058.326, 71.02795
1058.808, 68.63074
1059.290, 64.15149
1059.772, 57.12329
1060.255, 48.84155
1060.737, 50.95081
1061.219, 74.44189
1061.701, 91.48804
1062.183, 93.34216
1062.665, 87.52527
1063.147, 90.29761
1063.629, 99.07812
1064.111, 104.6879
1064.594, 101.9407
1065.076, 102.5409
1065.558, 120.8193
1066.040, 138.5278
1066.522, 137.3177
1067.004, 112.2241
1067.486, 105.9739
1067.968, 119.5491
1068.450, 138.0632
1068.933, 156.1600
1069.415, 169.5854
1069.897, 166.6893
1070.379, 153.2194
1070.861, 156.3016
1071.343, 190.6289
1071.825, 222.2780
1072.307, 247.8152
1072.790, 263.4789
1073.272, 254.5035
1073.754, 230.5430
1074.236, 218.1207
1074.718, 224.1228
1075.200, 236.9617
1075.682, 258.8096
1076.164, 278.7375
1076.646, 288.2366
1077.129, 287.3992
1077.611, 293.4666
1078.093, 306.4696
1078.575, 320.1710
1079.057, 328.3853
1079.539, 337.5566
1080.021, 358.6277
1080.503, 384.6736
1080.985, 395.5211
1081.468, 379.4065
1081.950, 374.3430
1082.432, 388.0699
1082.914, 406.2925
1083.396, 405.9062
1083.878, 396.9578
1084.360, 401.3815
1084.842, 423.2590
1085.325, 440.9496
1085.807, 441.0884
1086.289, 440.2596
1086.771, 442.9546
1087.253, 450.7689
1087.735, 475.6583
1088.217, 514.3875
1088.699, 541.4463
1089.182, 540.2419
1089.664, 531.6189
1090.146, 523.1213
1090.628, 518.8976
1091.110, 526.0477
1091.592, 550.0195
1092.074, 565.1384
1092.556, 570.0378
1093.038, 568.9324
1093.521, 560.4133
1094.003, 551.3057
1094.485, 551.3838
1094.967, 560.5067
1095.449, 570.3508
1095.931, 581.4978
1096.413, 588.3340
1096.895, 587.0535
1097.377, 583.5685
1097.860, 593.7966
1098.342, 612.5647
1098.824, 622.5081
1099.306, 616.7117
1099.788, 609.2316
1100.270, 605.7327
1100.752, 603.8661
1101.234, 602.5325
1101.717, 601.7917
1102.199, 596.1979
1102.681, 585.8267
1103.163, 577.2666
1103.645, 577.6375
1104.127, 579.0048
1104.609, 572.9600
1105.091, 563.1401
1105.573, 559.9092
1106.056, 567.4160
1106.538, 569.5684
1107.020, 563.0781
1107.502, 555.7395
1107.984, 559.7563
1108.466, 567.8077
1108.948, 567.1545
1109.430, 555.7627
1109.912, 547.7660
1110.395, 549.5052
1110.877, 550.4331
1111.359, 546.7014
1111.841, 539.4885
1112.323, 531.5337
1112.805, 523.3501
1113.287, 516.9635
1113.769, 514.3091
1114.252, 511.5059
1114.734, 507.9281
1115.216, 502.8662
1115.698, 496.0586
1116.180, 487.4106
1116.662, 478.2844
1117.144, 469.0178
1117.626, 459.2755
1118.109, 448.3854
1118.591, 436.8977
1119.073, 422.2377
1119.555, 407.3044
1120.037, 403.1746
1120.519, 416.9226
1121.001, 419.9358
1121.483, 400.1080
1121.965, 376.8496
1122.448, 386.7172
1122.930, 408.5859
1123.412, 410.1421
1123.894, 383.8118
1124.376, 360.8940
1124.858, 343.9912
1125.340, 335.9579
1125.822, 340.5142
1126.304, 349.9545
1126.787, 344.2681
1127.269, 329.1689
1127.751, 316.7682
1128.233, 309.7758
1128.715, 306.5745
1129.197, 307.1964
1129.679, 310.2787
1130.161, 318.5110
1130.644, 331.0151
1131.126, 329.2111
1131.608, 313.3489
1132.090, 298.9053
1132.572, 304.2073
1133.054, 307.0576
1133.536, 286.6586
1134.018, 252.1666
1134.500, 229.8790
1134.983, 220.9408
1135.465, 217.4099
1135.947, 218.9836
1136.429, 218.4596
1136.911, 203.6040
1137.393, 185.9451
1137.875, 178.8600
1138.357, 185.6888
1138.839, 187.8291
1139.322, 183.6328
1139.804, 180.6415
1140.286, 184.1262
1140.768, 188.9711
1141.250, 184.2678
1141.732, 172.8192
1142.214, 160.1455
1142.696, 148.4307
1143.179, 136.1277
1143.661, 118.9835
1144.143, 108.6912
1144.625, 120.7924
1145.107, 146.5416
1145.589, 158.9999
1146.071, 158.3179
1146.553, 149.4354
1147.036, 119.7546
1147.518, 101.4432
1148.000, 109.2491
1148.482, 127.2333
1148.964, 125.5066
1149.446, 108.3950
1149.928, 108.1554
1150.410, 131.3221
1150.892, 143.9183
1151.375, 107.3550
1151.857, 68.34985
1152.339, 59.14685
1152.821, 73.92249
1153.303, 80.19739
1153.785, 78.55396
1154.267, 75.92444
1154.749, 74.97021
1155.231, 72.88965
1155.714, 62.81909
1156.196, 52.54797
1156.678, 52.76440
1157.160, 67.00623
1157.642, 71.41797
1158.124, 64.64514
1158.606, 57.94482
1159.088, 61.13293
1159.571, 66.20032
1160.053, 61.14087
1160.535, 50.81860
1161.017, 47.91150
1161.499, 62.84351
1161.981, 64.32935
1162.463, 47.41748
1162.945, 25.90039
1163.427, 11.57593
1163.910, 3.948608
1164.392, 4.856201
1164.874, 13.43518
1165.356, 20.01062
1165.838, 19.98096
1166.320, 22.01282
1166.802, 29.33521
1167.284, 37.44495
1167.766, 37.88562
1168.249, 33.07581
1168.731, 27.53101
1169.213, 21.30762
1169.695, 19.99634
1170.177, 35.19202
1170.659, 42.88599
1171.141, 28.83728
1171.623, 1.372070
1172.106, 10.51453
1172.588, 9.421265
1173.070, 5.487671
1173.552, 0.2493900
1174.034, 3.413940
1174.516, 3.8330000E-02
1174.998, 2.064209
1175.480, 5.702271
1175.963, 22.69519
1176.445, 34.37512
1176.927, 39.98132
1177.409, 32.92468
1177.891, 14.37488
1178.373, 49.30737
1178.855, 32.94629
1179.337, 6.666138
1179.819, 30.24695
1180.302, 37.46960
1180.784, 36.14197
1181.266, 26.73657
1181.748, 14.35388
1182.230, 4.392822
1182.712, 18.15344
1183.194, 11.26587
1183.676, 8.473877
1184.158, 6.893188
1184.641, 18.44299
1185.123, 35.48987
1185.605, 36.41602
1186.087, 27.55640
1186.569, 7.735840
1187.051, 14.06360
1187.533, 29.30786
1188.015, 37.29150
1188.498, 39.15295
1188.980, 34.54944
1189.462, 25.36169
1189.944, 8.539307
1190.426, 6.188721
1190.908, 3.190796
1191.390, 7.916748
1191.872, 12.43323
1192.354, 5.144775
1192.837, 1.948486
1193.319, 3.297852
1193.801, 6.553833
1194.283, 10.99133
1194.765, 15.57104
1195.247, 18.44995
1195.729, 20.35876
1196.211, 23.57214
1196.693, 33.42688
1197.176, 32.11987
1197.658, 15.42822
1198.140, 2.383179
1198.622, 10.11072
1199.104, 8.118530
1199.586, 7.813721
1200.068, 35.01978
1200.550, 54.52295
1201.033, 62.44751
1201.515, 63.50159
1201.997, 56.83655
1202.479, 47.99805
1202.961, 45.88245
1203.443, 47.62256
1203.925, 48.36877
1204.407, 47.37915
1204.890, 47.67810
1205.372, 51.76575
1205.854, 52.99622
1206.336, 48.23132
1206.818, 40.72742
1207.300, 37.86353
1207.782, 37.05029
1208.264, 32.01196
1208.746, 17.61609
1209.229, 13.16418
1209.711, 28.24963
1210.193, 39.05725
1210.675, 28.21826
1211.157, 7.656494
1211.639, 10.46704
1212.121, 28.27783
1212.603, 38.85730
1213.085, 25.26917
1213.568, 20.38892
1214.050, 31.43896
1214.532, 45.32141
1215.014, 53.54419
1215.496, 56.13220
1215.978, 48.64954
1216.460, 34.54529
1216.942, 27.50562
1217.425, 39.13721
1217.907, 51.00415
1218.389, 62.58472
1218.871, 68.89478
1219.353, 58.74719
1219.835, 39.55615
1220.317, 32.85181
1220.799, 39.00098
1221.281, 47.08374
1221.764, 59.72400
1222.246, 62.93115
1222.728, 49.00696
1223.210, 31.15173
1223.692, 33.66345
1224.174, 49.24146
1224.656, 59.39331
1225.138, 61.43396
1225.620, 57.66663
1226.103, 41.86401
1226.585, 28.96448
1227.067, 22.52332
1227.549, 22.08398
1228.031, 29.67542
1228.513, 43.00623
1228.995, 52.48962
1229.477, 57.43054
1229.960, 56.53625
1230.442, 43.05432
1230.924, 29.55518
1231.406, 19.00305
1231.888, 11.90051
1232.370, 10.83630
1232.852, 24.51929
1233.334, 42.16028
1233.816, 68.38525
1234.299, 80.47595
1234.781, 73.51636
1235.263, 61.13489
1235.745, 48.98108
1236.227, 42.32861
1236.709, 35.05200
1237.191, 26.19116
1237.673, 24.40930
1238.156, 40.89954
1238.638, 51.10181
1239.120, 50.89209
1239.602, 45.92224
1240.084, 42.62683
1240.566, 40.96155
1241.048, 41.20422
1241.530, 42.87695
1242.012, 42.92126
1242.495, 39.68506
1242.977, 39.20154
1243.459, 39.34814
1243.941, 38.81921
1244.423, 34.95544
1244.905, 30.33606
1245.387, 31.55652
1245.869, 38.27161
1246.351, 44.83948
1246.834, 55.82141
1247.316, 54.35559
1247.798, 32.90552
1248.280, 9.099731
1248.762, 5.605225
1249.244, 16.71252
1249.726, 25.69873
1250.208, 31.73730
1250.691, 35.82593
1251.173, 37.05676
1251.655, 39.36646
1252.137, 45.56042
1252.619, 50.09192
1253.101, 41.42224
1253.583, 26.75281
1254.065, 15.76843
1254.547, 9.221069
1255.030, 15.28162
1255.512, 41.06018
1255.994, 58.95007
1256.476, 56.51282
1256.958, 45.49097
1257.440, 44.62329
1257.922, 46.15051
1258.404, 37.16272
1258.886, 9.479004
1259.369, 4.163330
1259.851, 0.5852050
1260.333, 6.848267
1260.815, 14.08984
1261.297, 20.11938
1261.779, 21.34680
1262.261, 21.43616
1262.743, 26.11353
1263.226, 38.61487
1263.708, 44.56506
1264.190, 43.36292
1264.672, 40.35278
1265.154, 38.52393
1265.636, 36.50342
1266.118, 29.51001
1266.600, 22.77991
1267.083, 26.39404
1267.565, 46.39868
1268.047, 50.96313
1268.529, 38.24329
1269.011, 27.43909
1269.493, 36.48254
1269.975, 47.50830
1270.457, 47.01440
1270.939, 39.01599
1271.422, 28.22864
1271.904, 12.90027
1272.386, 12.39709
1272.868, 25.59924
1273.350, 41.62048
1273.832, 53.82788
1274.314, 58.51624
1274.796, 46.83887
1275.278, 29.23962
1275.761, 21.99231
1276.243, 24.78821
1276.725, 30.95764
1277.207, 39.82214
1277.689, 45.80212
1278.171, 46.13098
1278.653, 41.59326
1279.135, 28.06689
1279.618, 13.91980
1280.100, 15.24170
1280.582, 28.33435
1281.064, 33.48572
1281.546, 28.64355
1282.028, 21.47302
1282.510, 13.03308
1282.992, 6.426514
1283.474, 0.6357420
1283.957, 0.6271970
1284.439, 11.99292
1284.921, 12.90063
1285.403, 0.0000000E+00
##END=



