##NAMES=Analcime
##RRUFFID=R040128
##IDEAL CHEMISTRY=NaAlSi_2_O_6_&#183;H_2_O
##LOCALITY=Mont Saint-Hilaire, Rouville County, Quebec, Canada
##OWNER=RRUFF
##SOURCE=Bob Downs
##DESCRIPTION=White trapezohedra associated with black arfvedsonite, R040127
##STATUS=The identification of this mineral has been confirmed by X-ray diffraction and chemical analysis
##URL=rruff.info/R040128
##MEASURED CHEMISTRY=Na_0.93_(Si_2.04_Al_0.99_)O_6_Â·H_2_O
111.473, 0.000
112.864, 4.254
114.254, 182.556
115.644, 335.646
117.034, 482.475
118.424, 496.944
119.813, 446.457
121.203, 498.856
122.592, 480.235
123.981, 493.174
125.369, 487.283
126.758, 530.036
128.146, 551.836
129.534, 631.363
130.922, 612.889
132.309, 914.271
133.696, 892.368
135.083, 982.765
136.470, 1026.093
137.857, 1399.460
139.243, 1269.354
140.630, 1462.479
142.016, 1317.913
143.401, 1318.053
144.787, 1190.057
146.172, 1066.799
147.557, 920.492
148.942, 897.697
150.327, 761.233
151.711, 638.609
153.096, 501.116
154.480, 417.646
155.863, 468.903
157.247, 273.569
158.630, 175.776
160.013, 222.661
161.396, 81.346
162.779, 291.264
164.161, 204.452
165.544, 92.644
166.926, 139.521
168.308, 36.931
169.689, 33.671
171.070, 126.852
172.452, 4.425
173.833, 121.829
175.213, 75.029
176.594, 83.307
177.974, 141.111
179.354, 125.359
180.734, 289.054
182.114, 176.172
183.493, 255.216
184.872, 247.266
186.251, 457.962
187.630, 546.112
189.008, 558.159
190.387, 524.230
191.765, 630.266
193.143, 701.528
194.520, 769.751
195.898, 860.460
197.275, 894.137
198.652, 881.951
200.029, 902.090
201.405, 932.809
202.782, 857.671
204.158, 895.661
205.534, 892.772
206.909, 1042.992
208.285, 1141.311
209.660, 732.717
211.035, 575.198
212.410, 360.747
213.784, 354.322
215.159, 463.788
216.533, 361.016
217.907, 352.014
219.281, 463.652
220.654, 486.298
222.027, 512.330
223.400, 440.016
224.773, 510.696
226.146, 416.367
227.518, 541.027
228.891, 475.672
230.263, 535.294
231.634, 470.150
233.006, 352.434
234.377, 374.940
235.748, 242.401
237.119, 338.810
238.490, 229.163
239.860, 141.464
241.231, 171.714
242.601, 151.914
243.970, 109.066
245.340, 36.158
246.709, 76.188
248.079, 28.160
249.448, 71.917
250.816, 27.960
252.185, 83.207
253.553, 95.418
254.921, 168.672
256.289, 67.966
257.657, 46.699
259.024, 112.694
260.391, 174.130
261.758, 86.645
263.125, 12.752
264.492, 77.019
265.858, 33.020
267.224, 61.203
268.590, 63.599
269.956, 41.191
271.321, 36.003
272.687, 48.170
274.052, 25.873
275.416, 55.008
276.781, 128.245
278.146, 55.729
279.510, 15.146
280.874, 55.905
282.237, 113.051
283.601, 164.009
284.964, 316.945
286.327, 453.615
287.690, 345.699
289.053, 819.492
290.416, 930.220
291.778, 1268.866
293.140, 1898.430
294.502, 1735.906
295.863, 2023.289
297.225, 1776.576
298.586, 1948.762
299.947, 1843.845
301.308, 1599.821
302.668, 1498.695
304.029, 1202.459
305.389, 1044.643
306.749, 1016.543
308.108, 758.912
309.468, 628.173
310.827, 690.326
312.186, 555.357
313.545, 493.263
314.903, 407.044
316.262, 495.697
317.620, 427.222
318.978, 357.616
320.336, 453.886
321.693, 442.037
323.051, 405.076
324.408, 378.010
325.765, 583.688
327.121, 376.402
328.478, 603.008
329.834, 577.285
331.190, 473.636
332.546, 620.116
333.902, 746.788
335.257, 608.744
336.612, 838.935
337.967, 713.641
339.322, 761.035
340.677, 888.323
342.031, 878.707
343.385, 997.836
344.739, 888.192
346.093, 1023.885
347.446, 949.367
348.799, 980.554
350.153, 964.922
351.505, 996.319
352.858, 1063.021
354.210, 1122.958
355.563, 1202.634
356.915, 1329.209
358.267, 1364.588
359.618, 1392.853
360.969, 1547.021
362.321, 1510.160
363.672, 1668.282
365.022, 1829.394
366.373, 1927.494
367.723, 2076.582
369.073, 2120.658
370.423, 2341.723
371.773, 2487.773
373.122, 2472.814
374.471, 2558.842
375.821, 2665.029
377.169, 3039.181
378.518, 2732.779
379.866, 3108.935
381.215, 2849.039
382.563, 2926.620
383.910, 3124.283
385.258, 2978.045
386.605, 2976.951
387.952, 2904.687
389.299, 2880.021
390.646, 2712.215
391.992, 2702.777
393.339, 2613.899
394.685, 2423.422
396.031, 2543.905
397.376, 2422.379
398.722, 2539.988
400.067, 2277.018
401.412, 2219.428
402.757, 2119.184
404.101, 1957.853
405.446, 2055.946
406.790, 1673.410
408.134, 1662.960
409.478, 1542.764
410.821, 1611.015
412.165, 1446.417
413.508, 1504.797
414.851, 1145.385
416.193, 1270.822
417.536, 1106.461
418.878, 1126.115
420.220, 1105.836
421.562, 1020.661
422.904, 1014.524
424.245, 724.433
425.586, 983.963
426.927, 971.652
428.268, 849.101
429.609, 1027.454
430.949, 779.358
432.289, 682.441
433.629, 900.910
434.969, 1091.508
436.309, 1325.744
437.648, 1186.258
438.987, 909.120
440.326, 1020.530
441.665, 1045.238
443.003, 955.596
444.342, 995.123
445.680, 1213.093
447.018, 1215.898
448.355, 1343.253
449.693, 1460.122
451.030, 1454.610
452.367, 1524.069
453.704, 1742.499
455.041, 1857.171
456.377, 1986.350
457.713, 2320.748
459.049, 2575.115
460.385, 2945.453
461.721, 3308.764
463.056, 3892.044
464.391, 4557.309
465.726, 5258.135
467.061, 5882.756
468.395, 7059.940
469.730, 7986.100
471.064, 9245.228
472.398, 11356.335
473.731, 12873.415
475.065, 15514.352
476.398, 17208.898
477.731, 19541.793
479.064, 21098.371
480.397, 22436.639
481.729, 23034.277
483.062, 22706.850
484.394, 21989.236
485.725, 20308.490
487.057, 18494.346
488.389, 16539.559
489.720, 14582.366
491.051, 12739.162
492.382, 10892.719
493.712, 9531.376
495.043, 8186.324
496.373, 7116.021
497.703, 6166.791
499.032, 5224.546
500.362, 4628.285
501.691, 4215.264
503.020, 3638.971
504.349, 3261.668
505.678, 2834.350
507.007, 2580.225
508.335, 2363.884
509.663, 2027.536
510.991, 1877.790
512.319, 1789.423
513.646, 1702.140
514.973, 1480.755
516.300, 1500.360
517.627, 1161.974
518.954, 1371.578
520.280, 1087.176
521.607, 833.768
522.933, 877.352
524.259, 804.930
525.584, 805.659
526.910, 526.227
528.235, 582.787
529.560, 626.577
530.885, 457.904
532.209, 634.462
533.534, 349.628
534.858, 287.152
536.182, 390.262
537.506, 457.153
538.829, 312.240
540.152, 483.440
541.476, 263.842
542.799, 289.836
544.121, 165.963
545.444, 43.600
546.766, 280.116
548.088, 169.109
549.410, 65.666
550.732, 218.869
552.053, 71.564
553.375, 241.480
554.696, 52.223
556.017, 73.713
557.337, 52.098
558.658, 204.568
559.978, 18.053
561.298, 107.895
562.618, 40.115
563.938, 74.027
565.257, 93.559
566.576, 178.330
567.895, 115.828
569.214, 103.566
570.533, 162.330
571.851, 198.320
573.170, 7.934
574.488, 56.764
575.805, 122.301
577.123, 42.143
578.440, 13.037
579.758, 2.293
581.075, 44.078
582.391, 221.293
583.708, 26.912
585.024, 149.635
586.341, 160.289
587.657, 22.807
588.972, 107.102
590.288, 215.072
591.603, 232.871
592.918, 179.637
594.233, 174.898
595.548, 165.006
596.863, 216.457
598.177, 457.748
599.491, 259.350
600.805, 345.895
602.119, 627.250
603.432, 452.672
604.746, 205.926
606.059, 487.072
607.372, 551.348
608.685, 536.590
609.997, 510.643
611.309, 636.863
612.621, 392.547
613.933, 538.330
615.245, 526.000
616.557, 643.871
617.868, 651.947
619.179, 380.611
620.490, 579.314
621.801, 470.904
623.111, 239.576
624.421, 634.316
625.731, 327.260
627.041, 598.908
628.351, 200.520
629.660, 582.520
630.970, 386.098
632.279, 369.715
633.588, 789.264
634.896, 433.895
636.205, 523.412
637.513, 442.945
638.821, 634.438
640.129, 369.912
641.437, 448.826
642.744, 542.273
644.051, 614.707
645.358, 574.912
646.665, 438.629
647.972, 463.016
649.278, 363.848
650.584, 319.469
651.890, 239.820
653.196, 244.760
654.502, 481.078
655.807, 281.379
657.113, 376.861
658.418, 145.557
659.722, 329.807
661.027, 580.422
662.331, 404.879
663.636, 157.074
664.940, 209.791
666.244, 513.314
667.547, 61.453
668.851, 472.193
670.154, 185.963
671.457, 465.041
672.760, 350.102
674.062, 218.613
675.365, 403.637
676.667, 433.283
677.969, 325.270
679.271, 327.285
680.572, 270.439
681.874, 174.990
683.175, 225.553
684.476, 305.451
685.777, 156.332
687.077, 69.189
688.378, 166.051
689.678, 61.859
690.978, 250.619
692.278, 75.100
693.577, 125.842
694.877, 78.879
696.176, 51.400
697.475, 50.904
698.774, 98.699
700.072, 65.279
701.371, 181.309
702.669, 219.900
703.967, 104.412
705.265, 207.488
706.562, 50.439
707.860, 171.166
709.157, 115.354
710.454, 115.258
711.751, 336.992
713.047, 165.074
714.344, 180.344
715.640, 31.742
716.936, 108.799
718.232, 83.365
719.527, 56.271
720.823, 321.215
722.118, 104.281
723.413, 199.352
724.708, 174.023
726.002, 91.951
727.297, 77.768
728.591, 137.805
729.885, 43.877
731.179, 71.363
732.472, 21.172
733.766, 60.113
735.059, 59.840
736.352, 67.596
737.645, 57.607
738.937, 180.979
740.230, 14.947
741.522, 307.312
742.814, 77.402
744.106, 75.461
745.397, 158.600
746.689, 206.467
747.980, 223.080
749.271, 10.590
750.562, 140.699
751.853, 63.730
753.143, 110.770
754.433, 41.781
755.723, 6.760
757.013, 105.699
758.303, 88.607
759.592, 126.691
760.881, 20.008
762.170, 115.791
763.459, 12.586
764.748, 161.314
766.036, 119.158
767.325, 125.008
768.613, 301.553
769.901, 29.910
771.188, 186.566
772.476, 225.211
773.763, 146.637
775.050, 332.035
776.337, 14.590
777.624, 237.730
778.910, 193.027
780.196, 139.299
781.482, 206.543
782.768, 283.418
784.054, 114.938
785.339, 321.104
786.625, 198.299
787.910, 280.416
789.195, 186.504
790.479, 505.572
791.764, 201.613
793.048, 285.629
794.332, 288.621
795.616, 98.590
796.900, 345.529
798.183, 288.443
799.467, 373.334
800.750, 180.201
802.033, 328.043
803.316, 93.859
804.598, 146.928
805.880, 381.689
807.163, 171.572
808.445, 279.035
809.726, 227.617
811.008, 156.176
812.289, 101.279
813.570, 212.533
814.851, 110.016
816.132, 143.471
817.413, 420.900
818.693, 71.102
819.973, 8.479
821.253, 419.820
822.533, 49.551
823.813, 37.842
825.092, 372.010
826.371, 274.246
827.650, 30.539
828.929, 262.623
830.208, 41.760
831.486, 331.869
832.764, 181.396
834.042, 144.172
835.320, 47.070
836.598, 38.926
837.875, 218.912
839.152, 262.875
840.429, 214.578
841.706, 183.891
842.983, 409.590
844.259, 12.828
845.536, 21.670
846.812, 308.898
848.088, 89.322
849.363, 60.520
850.639, 128.576
851.914, 211.402
853.189, 287.613
854.464, 65.658
855.739, 87.834
857.013, 239.736
858.288, 396.801
859.562, 74.277
860.836, 107.072
862.110, 153.354
863.383, 175.377
864.656, 140.447
865.930, 396.912
867.203, 59.547
868.475, 83.674
869.748, 244.062
871.020, 178.873
872.292, 47.625
873.564, 51.195
874.836, 33.475
876.108, 98.246
877.379, 175.402
878.650, 136.330
879.922, 299.158
881.192, 79.803
882.463, 108.686
883.733, 51.166
885.004, 181.762
886.274, 112.912
887.544, 139.451
888.813, 46.898
890.083, 281.840
891.352, 80.396
892.621, 98.389
893.890, 285.621
895.159, 212.764
896.427, 47.051
897.695, 57.568
898.964, 36.578
900.232, 1.646
901.499, 17.512
902.767, 102.070
904.034, 228.787
905.301, 248.172
906.568, 275.580
907.835, 121.049
909.102, 237.391
910.368, 110.648
911.634, 51.385
912.900, 1.008
914.166, 196.713
915.432, 89.289
916.697, 376.877
917.962, 28.369
919.227, 55.188
920.492, 311.258
921.757, 113.201
923.021, 227.238
924.285, 34.047
925.550, 215.971
926.813, 198.604
928.077, 89.514
929.341, 163.520
930.604, 115.424
931.867, 210.232
933.130, 354.812
934.393, 18.326
935.655, 0.541
936.918, 230.994
938.180, 60.846
939.442, 371.639
940.703, 125.477
941.965, 111.211
943.226, 220.035
944.488, 203.824
945.749, 254.506
947.009, 228.621
948.270, 313.787
949.530, 138.578
950.791, 115.365
952.051, 69.145
953.311, 206.809
954.570, 95.574
955.830, 90.092
957.089, 134.418
958.348, 125.172
959.607, 79.324
960.866, 133.076
962.124, 114.824
963.383, 20.631
964.641, 89.697
965.899, 111.447
967.156, 162.807
968.414, 247.330
969.671, 276.090
970.928, 128.307
972.185, 496.693
973.442, 48.438
974.699, 405.559
975.955, 174.633
977.211, 501.371
978.468, 356.143
979.723, 257.441
980.979, 371.205
982.234, 308.330
983.490, 412.100
984.745, 565.816
986.000, 70.619
987.254, 511.514
988.509, 490.609
989.763, 289.363
991.017, 624.117
992.271, 455.350
993.525, 743.592
994.779, 498.336
996.032, 364.125
997.285, 582.162
998.538, 586.945
999.791, 591.318
1001.044, 257.564
1002.296, 794.098
1003.548, 337.885
1004.800, 589.672
1006.052, 601.992
1007.304, 516.305
1008.555, 523.127
1009.807, 547.943
1011.058, 566.701
1012.309, 523.586
1013.559, 645.344
1014.810, 690.195
1016.060, 646.787
1017.310, 763.023
1018.560, 622.252
1019.810, 899.959
1021.060, 555.406
1022.309, 583.365
1023.558, 945.676
1024.807, 629.666
1026.056, 856.406
1027.305, 605.127
1028.553, 881.988
1029.801, 627.820
1031.049, 941.488
1032.297, 620.551
1033.545, 512.018
1034.793, 620.543
1036.040, 960.684
1037.287, 689.844
1038.534, 759.143
1039.781, 758.660
1041.027, 857.121
1042.274, 1118.078
1043.520, 756.508
1044.766, 947.080
1046.012, 1032.416
1047.257, 818.293
1048.503, 850.207
1049.748, 1000.906
1050.993, 1201.109
1052.238, 1175.271
1053.483, 1131.957
1054.727, 1135.160
1055.971, 959.051
1057.216, 795.723
1058.459, 1247.369
1059.703, 1038.525
1060.947, 1097.414
1062.190, 1219.699
1063.433, 1080.111
1064.676, 1132.982
1065.919, 1090.645
1067.162, 1113.994
1068.404, 957.688
1069.646, 1409.434
1070.888, 1131.609
1072.130, 1254.957
1073.372, 1756.689
1074.613, 1372.023
1075.855, 1502.564
1077.096, 1618.342
1078.337, 1573.715
1079.578, 1545.771
1080.818, 1646.768
1082.059, 1790.738
1083.299, 1932.264
1084.539, 2098.729
1085.779, 2204.424
1087.018, 2226.180
1088.258, 2469.125
1089.497, 2341.119
1090.736, 2541.598
1091.975, 2674.205
1093.213, 2645.205
1094.452, 2601.520
1095.690, 2553.027
1096.928, 2771.855
1098.166, 2198.248
1099.404, 2644.545
1100.642, 2461.938
1101.879, 2728.656
1103.116, 2313.119
1104.353, 2623.514
1105.590, 2262.123
1106.827, 2703.438
1108.063, 2103.387
1109.299, 2577.430
1110.536, 1987.453
1111.771, 2254.656
1113.007, 2023.752
1114.243, 1841.615
1115.478, 2020.967
1116.713, 2016.105
1117.948, 1788.994
1119.183, 1801.592
1120.418, 1758.918
1121.652, 1661.549
1122.886, 2045.783
1124.120, 1976.814
1125.354, 1728.586
1126.588, 1508.564
1127.821, 1268.389
1129.055, 1280.117
1130.288, 992.219
1131.521, 1200.621
1132.753, 1093.695
1133.986, 1044.775
1135.218, 1104.193
1136.450, 736.635
1137.682, 1153.928
1138.914, 529.863
1140.146, 900.639
1141.377, 596.305
1142.609, 446.814
1143.840, 582.691
1145.071, 477.975
1146.301, 600.953
1147.532, 701.076
1148.762, 625.268
1149.992, 502.127
1151.222, 391.143
1152.452, 312.424
1153.682, 288.725
1154.911, 619.945
1156.140, 274.906
1157.369, 329.535
1158.598, 281.908
1159.827, 102.150
1161.055, 332.736
1162.284, 310.160
1163.512, 251.416
1164.740, 140.838
1165.967, 162.797
1167.195, 311.895
1168.422, 69.891
1169.650, 433.475
1170.877, 135.027
1172.103, 216.527
1173.330, 41.861
1174.557, 113.189
1175.783, 124.301
1177.009, 127.168
1178.235, 171.018
1179.461, 20.547
1180.686, 192.400
1181.912, 139.719
1183.137, 77.680
1184.362, 289.389
1185.587, 293.791
1186.811, 163.973
1188.036, 266.357
1189.260, 414.346
1190.484, 264.705
1191.708, 30.447
1192.932, 308.232
1194.155, 461.270
1195.378, 496.139
1196.602, 60.873
1197.825, 232.912
1199.047, 161.076
1200.270, 80.299
1201.492, 337.859
1202.715, 28.920
1203.937, 222.443
1205.159, 226.400
1206.380, 343.312
1207.602, 165.684
1208.823, 259.156
1210.044, 90.617
1211.265, 5.666
1212.486, 205.873
1213.707, 59.020
1214.927, 167.088
1216.147, 491.092
1217.367, 328.033
1218.587, 59.914
1219.807, 192.287
1221.027, 237.506
1222.246, 35.178
1223.465, 171.551
1224.684, 53.080
1225.903, 98.537
1227.121, 355.926
1228.340, 104.916
1229.558, 31.172
1230.776, 307.098
1231.994, 341.230
1233.212, 132.305
1234.429, 87.309
1235.646, 319.232
1236.864, 199.418
1238.081, 163.316
1239.297, 303.684
1240.514, 40.545
1241.730, 172.186
1242.947, 329.770
1244.163, 190.256
1245.378, 207.676
1246.594, 179.027
1247.810, 335.295
1249.025, 151.500
1250.240, 111.146
1251.455, 278.869
1252.670, 170.828
1253.885, 7.719
1255.099, 236.492
1256.313, 53.186
1257.527, 36.801
1258.741, 35.668
1259.955, 254.754
1261.168, 131.100
1262.382, 59.629
1263.595, 229.531
1264.808, 84.574
1266.021, 349.861
1267.233, 75.758
1268.446, 116.516
1269.658, 35.199
1270.870, 216.766
1272.082, 106.775
1273.294, 188.570
1274.505, 206.803
1275.716, 1.932
1276.928, 14.922
1278.139, 111.754
1279.349, 6.498
1280.560, 155.141
1281.770, 224.650
1282.981, 35.916
1284.191, 107.361
1285.401, 28.559
1286.610, 133.637
1287.820, 160.627
1289.029, 16.457
1290.239, 195.361
1291.448, 98.906
1292.656, 214.707
1293.865, 469.244
1295.073, 73.709
1296.282, 209.092
1297.490, 33.395
1298.698, 6.383
1299.906, 98.246
1301.113, 185.770
1302.320, 253.705
1303.528, 64.432
1304.735, 107.320
1305.942, 37.697
1307.148, 73.875
1308.355, 283.365
1309.561, 66.684
1310.767, 62.555
1311.973, 293.164
1313.179, 36.688
1314.384, 191.877
1315.590, 94.152
1316.795, 133.004
1318.000, 140.588
1319.205, 32.918
1320.410, 43.623
1321.614, 225.289
1322.819, 70.875
1324.023, 7.555
1325.227, 182.512
1326.431, 116.902
1327.634, 365.309
1328.838, 170.180
1330.041, 90.141
1331.244, 75.414
1332.447, 202.355
1333.650, 281.641
1334.852, 30.777
1336.055, 101.332
1337.257, 122.316
1338.459, 197.461
1339.661, 300.758
1340.862, 294.957
1342.064, 214.902
1343.265, 337.457
1344.466, 97.652
1345.667, 141.438
1346.868, 182.234
1348.068, 296.277
1349.269, 472.469
1350.469, 401.621
1351.669, 174.203
1352.869, 430.992
1354.069, 179.113
1355.268, 366.801
1356.468, 586.445
1357.667, 123.203
1358.866, 406.254
1360.065, 513.766
1361.263, 500.160
1362.462, 447.277
1363.660, 222.180
1364.858, 242.668
1366.056, 569.328
1367.254, 169.949
1368.451, 458.305
1369.649, 585.043
1370.846, 587.383
1372.043, 191.527
1373.240, 406.641
1374.436, 170.250
1375.633, 406.961
1376.829, 496.184
1378.025, 434.984
1379.221, 532.723
1380.417, 441.840
1381.613, 473.086
1382.808, 468.879
1384.003, 308.086
1385.199, 447.582
1386.393, 637.383
1387.588, 513.289
1388.783, 376.316
1389.977, 586.465
1391.171, 333.109
1392.365, 456.613
1393.559, 267.395
1394.753, 356.633
1395.946, 511.527
1397.140, 467.223
1398.333, 552.379
1399.526, 474.828
1400.719, 578.086
1401.911, 561.016
1403.104, 484.055
1404.296, 550.758
1405.488, 412.980
1406.680, 376.164
1407.872, 658.750
1409.063, 207.219
1410.255, 383.742
1411.446, 593.668
1412.637, 394.555
1413.828, 702.793
1415.018, 268.582
1416.209, 400.059
1417.399, 471.812
1418.589, 517.980
1419.779, 556.070
1420.969, 659.551
1422.159, 522.258
1423.348, 525.430
1424.537, 391.055
1425.726, 415.430
1426.915, 483.922
1428.104, 525.594
1429.293, 526.527
1430.481, 558.812
1431.669, 555.305
1432.857, 522.355
1434.045, 443.574
1435.233, 524.465
1436.420, 275.238
1437.608, 613.473
1438.795, 656.672
1439.982, 363.477
1441.169, 488.934
1442.355, 589.277
1443.542, 563.625
1444.728, 513.312
1445.914, 800.316
1447.100, 352.938
1448.286, 413.250
1449.472, 765.801
1450.657, 664.238
1451.842, 157.469
1453.027, 934.152
1454.212, 587.914
1455.397, 634.633
1456.581, 808.207
1457.766, 208.152
1458.950, 675.477
1460.134, 712.719
1461.318, 360.945
1462.501, 803.109
1463.685, 468.191
1464.868, 799.301
1466.051, 632.547
1467.234, 432.777
1468.417, 819.160
1469.600, 417.613
1470.782, 515.363
1471.965, 681.625
1473.147, 642.152
1474.329, 485.004
1475.510, 742.145
1476.692, 502.449
1477.873, 326.816
1479.055, 598.266
1480.236, 339.762
1481.416, 291.320
1482.597, 779.918
1483.778, 84.617
1484.958, 548.426
1486.138, 362.348
1487.318, 428.383
1488.498, 332.590
1489.678, 293.602
1490.857, 256.656
1492.037, 350.590
1493.216, 319.836
1494.395, 590.480
1495.574, 463.512
1496.752, 174.934
1497.931, 471.738
1499.109, 186.910
1500.287, 407.484
1501.465, 152.516
1502.643, 233.074
1503.820, 129.234
1504.998, 239.082
1506.175, 221.723
1507.352, 179.250
1508.529, 89.773
1509.706, 211.418
1510.882, 233.383
1512.059, 52.910
1513.235, 326.336
1514.411, 444.062
1515.587, 444.480
1516.762, 10.141
1517.938, 457.055
1519.113, 238.359
1520.288, 0.000
##END=



