##NAMES=Analcime
##RRUFFID=R060023
##IDEAL CHEMISTRY=NaAlSi_2_O_6_&#183;H_2_O
##LOCALITY=Dallas, Oregon, USA
##OWNER=RRUFF
##SOURCE=Bob Downs
##DESCRIPTION=White trapezohedral crystal associated with levyne-Na, R060021
##STATUS=The identification of this mineral has been confirmed by X-ray diffraction and chemical analysis
##URL=rruff.info/R060023
##MEASURED CHEMISTRY=(Na_0.98_[box]_0.02_)_Σ=1_(Si_2.02_Al_0.98_)O_6_·H_2_O
152.3061, 0.0000000E+00
152.7882, 0.7815630
153.2704, 1.504089
153.7525, 2.193916
154.2346, 2.554825
154.7167, 1.285400
155.1988, 0.1327060
155.6809, 7.1709000E-02
156.1631, 0.6843110
156.6452, 1.750885
157.1273, 2.263359
157.6094, 2.170479
158.0915, 2.083817
158.5736, 1.762352
159.0558, 1.418793
159.5379, 1.142693
160.0200, 1.028175
160.5021, 1.450333
160.9842, 1.939667
161.4663, 2.967262
161.9485, 3.642509
162.4306, 3.344803
162.9127, 2.625710
163.3948, 2.065895
163.8769, 1.838997
164.3590, 1.881432
164.8412, 1.789558
165.3233, 1.585167
165.8054, 1.593185
166.2875, 1.922737
166.7696, 2.613640
167.2517, 2.789810
167.7339, 1.604828
168.2160, 0.1772610
168.6981, 0.2658620
169.1802, 0.4711230
169.6623, 1.431221
170.1444, 1.680527
170.6266, 1.050064
171.1087, 0.4708940
171.5908, 0.3557590
172.0729, 0.3827210
172.5550, 0.2974400
173.0371, 7.0039998E-03
173.5193, 0.2906340
174.0014, 0.2637710
174.4835, 0.2745510
174.9656, 0.6853260
175.4477, 0.8051380
175.9298, 0.8110430
176.4120, 0.8893590
176.8941, 1.135391
177.3762, 1.436188
177.8583, 1.372276
178.3404, 0.3374710
178.8225, 0.2155300
179.3047, 0.2047420
179.7868, 1.038307
180.2689, 1.609863
180.7510, 1.552017
181.2331, 1.036842
181.7152, 0.8248830
182.1974, 1.229195
182.6795, 1.576912
183.1616, 1.753120
183.6437, 1.797714
184.1258, 1.750061
184.6079, 1.601082
185.0900, 1.408180
185.5722, 1.573051
186.0543, 2.604126
186.5364, 3.381393
187.0185, 3.233284
187.5006, 2.429169
187.9827, 1.809807
188.4649, 1.885971
188.9470, 2.587090
189.4291, 3.350975
189.9112, 4.592964
190.3933, 5.547188
190.8754, 5.485550
191.3576, 4.483635
191.8397, 3.571472
192.3218, 3.447403
192.8039, 3.837532
193.2860, 4.066170
193.7681, 3.990242
194.2503, 3.796936
194.7324, 3.616150
195.2145, 3.421867
195.6966, 3.410316
196.1787, 4.056084
196.6608, 4.865807
197.1430, 5.218056
197.6251, 4.750618
198.1072, 3.919594
198.5893, 3.480759
199.0714, 3.550636
199.5535, 3.783646
200.0357, 4.222374
200.5178, 4.665253
200.9999, 4.785149
201.4820, 4.327072
201.9641, 3.579727
202.4462, 3.405289
202.9284, 4.251053
203.4105, 4.914246
203.8926, 4.990776
204.3747, 4.760612
204.8568, 4.520271
205.3389, 4.417015
205.8211, 4.408394
206.3032, 4.349915
206.7853, 4.199921
207.2674, 4.098442
207.7495, 3.991646
208.2316, 3.971664
208.7138, 4.194611
209.1959, 4.812881
209.6780, 5.733154
210.1601, 6.224358
210.6422, 5.590256
211.1243, 5.118942
211.6065, 5.098793
212.0886, 5.388947
212.5707, 5.728912
213.0528, 5.918449
213.5349, 5.969543
214.0170, 6.265770
214.4992, 7.137650
214.9813, 7.873207
215.4634, 8.193687
215.9455, 8.233955
216.4276, 8.314766
216.9097, 8.659218
217.3919, 9.196281
217.8740, 9.330032
218.3561, 8.712975
218.8382, 8.163460
219.3203, 7.997589
219.8024, 8.151611
220.2845, 8.435852
220.7667, 8.758514
221.2488, 9.093063
221.7309, 9.347847
222.2130, 9.521385
222.6951, 9.647011
223.1772, 9.704384
223.6594, 9.698929
224.1415, 9.699379
224.6236, 9.738525
225.1057, 9.824249
225.5878, 9.953918
226.0699, 10.16261
226.5521, 10.34572
227.0342, 10.47787
227.5163, 10.54899
227.9984, 10.64600
228.4805, 10.90991
228.9626, 11.16298
229.4448, 11.06411
229.9269, 10.38127
230.4090, 9.670494
230.8911, 9.500511
231.3732, 9.863472
231.8553, 10.07493
232.3375, 9.725342
232.8196, 9.111893
233.3017, 8.597786
233.7838, 8.224869
234.2659, 7.973991
234.7480, 7.907913
235.2302, 8.060623
235.7123, 8.061455
236.1944, 7.551758
236.6765, 6.927658
237.1586, 6.622627
237.6407, 6.758263
238.1229, 6.923004
238.6050, 6.521217
239.0871, 5.401527
239.5692, 4.523270
240.0513, 4.374756
240.5334, 4.437553
241.0156, 4.407372
241.4977, 4.214127
241.9798, 3.908211
242.4619, 3.503380
242.9440, 2.925091
243.4261, 2.533150
243.9083, 2.687019
244.3904, 2.849182
244.8725, 2.593197
245.3546, 1.859161
245.8367, 1.025917
246.3188, 0.6540300
246.8010, 0.9445420
247.2831, 1.085281
247.7652, 0.8771130
248.2473, 0.6078000
248.7294, 0.4367180
249.2115, 0.3934400
249.6937, 0.4192810
250.1758, 0.4608150
250.6579, 0.5579830
251.1400, 0.5634500
251.6221, 0.4013440
252.1042, 0.2148360
252.5864, 7.1312003E-02
253.0685, 1.6029000E-02
253.5506, 5.4439999E-02
254.0327, 4.0470000E-02
254.5148, 6.2587999E-02
254.9969, 8.8261001E-02
255.4790, 2.7851000E-02
255.9612, 0.1558490
256.4433, 0.2373310
256.9254, 0.2603610
257.4075, 0.2394710
257.8896, 0.1898650
258.3718, 0.1175310
258.8539, 7.2249998E-03
259.3360, 0.3277630
259.8181, 0.5640410
260.3002, 0.4857250
260.7823, 0.1628610
261.2645, 0.1080400
261.7466, 3.7632000E-02
262.2287, 0.4394870
262.7108, 0.7560460
263.1929, 0.8300020
263.6750, 0.8630910
264.1572, 0.9797590
264.6393, 1.135086
265.1214, 1.164436
265.6035, 0.9061160
266.0856, 0.3457980
266.5677, 4.4013999E-02
267.0499, 0.1435590
267.5320, 0.2880860
268.0141, 0.3607440
268.4962, 0.3542210
268.9783, 0.2812080
269.4604, 0.1341320
269.9426, 7.9937004E-02
270.4247, 0.1048660
270.9068, 0.2498090
271.3889, 0.5411340
271.8710, 0.5596310
272.3531, 0.3798980
272.8352, 0.1778720
273.3174, 3.3229999E-02
273.7995, 3.8288001E-02
274.2816, 5.3745002E-02
274.7637, 0.4898070
275.2458, 0.8473210
275.7279, 0.9756620
276.2101, 0.9349140
276.6922, 0.8219640
277.1743, 0.6543460
277.6564, 0.4922410
278.1385, 0.5454710
278.6206, 0.9746930
279.1028, 1.277248
279.5849, 1.111584
280.0670, 0.7534830
280.5491, 0.7393150
281.0312, 1.310638
281.5133, 2.158108
281.9955, 2.655674
282.4776, 2.698956
282.9597, 2.851784
283.4418, 3.306515
283.9239, 3.942047
284.4060, 4.594276
284.8882, 5.234489
285.3703, 5.820004
285.8524, 6.207893
286.3345, 6.354736
286.8166, 6.763660
287.2987, 7.635654
287.7809, 8.786453
288.2630, 10.01273
288.7451, 11.27782
289.2272, 12.56213
289.7093, 13.75877
290.1914, 14.88957
290.6736, 16.30383
291.1557, 18.18594
291.6378, 20.31161
292.1199, 22.50019
292.6020, 24.73418
293.0841, 26.91044
293.5663, 28.83604
294.0484, 30.61123
294.5305, 32.71463
295.0126, 35.70096
295.4947, 38.67862
295.9768, 40.87514
296.4590, 42.28492
296.9411, 43.29865
297.4232, 44.15433
297.9053, 44.73083
298.3874, 44.83450
298.8695, 44.46540
299.3517, 43.60958
299.8338, 42.21364
300.3159, 40.29848
300.7980, 37.97227
301.2801, 35.14054
301.7622, 32.03643
302.2444, 29.14402
302.7265, 26.47742
303.2086, 23.96015
303.6907, 21.49212
304.1728, 19.11757
304.6549, 17.07044
305.1371, 15.50567
305.6192, 14.16653
306.1013, 12.62870
306.5834, 10.84788
307.0655, 9.254158
307.5476, 8.079922
308.0298, 7.221581
308.5119, 6.461071
308.9940, 5.783436
309.4761, 5.116142
309.9582, 4.240459
310.4403, 3.196857
310.9225, 2.540665
311.4046, 2.810810
311.8867, 3.455402
312.3688, 3.567360
312.8509, 2.985470
313.3330, 2.242489
313.8152, 1.752018
314.2973, 1.462849
314.7794, 1.245457
315.2615, 1.099712
315.7436, 1.004333
316.2257, 0.9762120
316.7079, 1.020824
317.1900, 0.9874990
317.6721, 0.7263530
318.1542, 0.3234560
318.6363, 3.7610000E-03
319.1184, 0.1720430
319.6006, 0.3101960
320.0827, 0.5228540
320.5648, 0.7953190
321.0469, 0.9724920
321.5290, 0.9564780
322.0111, 0.8274460
322.4933, 0.7507780
322.9754, 0.7477910
323.4575, 0.7410700
323.9396, 0.6971930
324.4217, 0.6213230
324.9038, 0.4906500
325.3860, 0.2440640
325.8681, 5.1456001E-02
326.3502, 0.2776450
326.8323, 0.9425090
327.3144, 1.296398
327.7965, 0.8234790
328.2787, 6.5425999E-02
328.7608, 0.6892700
329.2429, 0.9149860
329.7250, 0.9304850
330.2071, 0.8474660
330.6892, 0.6826400
331.1714, 0.5436250
331.6535, 0.4316020
332.1356, 0.3801800
332.6177, 0.4586140
333.0998, 0.6610870
333.5819, 0.8253440
334.0641, 0.7246480
334.5462, 0.5166780
335.0283, 0.7639080
335.5104, 2.063545
335.9925, 3.256500
336.4746, 3.343231
336.9568, 2.569515
337.4389, 2.104885
337.9210, 2.579872
338.4031, 3.589157
338.8852, 4.146263
339.3673, 4.080605
339.8495, 4.034607
340.3316, 4.311417
340.8137, 4.777054
341.2958, 5.167679
341.7779, 5.400826
342.2600, 5.552040
342.7421, 5.744095
343.2242, 5.993683
343.7064, 6.153053
344.1885, 5.981140
344.6706, 5.812325
345.1527, 6.114075
345.6348, 6.950050
346.1169, 7.837837
346.5991, 8.330711
347.0812, 8.398865
347.5633, 8.533211
348.0454, 8.681999
348.5275, 8.943047
349.0096, 9.455063
349.4918, 10.16818
349.9739, 10.82639
350.4560, 11.24783
350.9381, 11.50685
351.4202, 11.97964
351.9023, 13.01981
352.3845, 13.82932
352.8666, 13.99497
353.3487, 13.79020
353.8308, 13.70889
354.3129, 13.94871
354.7950, 14.36310
355.2772, 14.66322
355.7593, 14.73827
356.2414, 14.94281
356.7235, 15.37462
357.2056, 15.91458
357.6877, 16.43221
358.1699, 16.90932
358.6520, 17.43968
359.1341, 18.16904
359.6162, 19.18659
360.0983, 19.85430
360.5804, 19.74767
361.0626, 19.71265
361.5447, 20.36241
362.0268, 21.53236
362.5089, 22.56210
362.9910, 22.96088
363.4731, 22.82542
363.9553, 23.03671
364.4374, 23.60317
364.9195, 24.49915
365.4016, 26.00262
365.8837, 27.73129
366.3658, 29.17403
366.8480, 30.12796
367.3301, 30.76020
367.8122, 31.41253
368.2943, 32.08986
368.7764, 32.76793
369.2585, 33.33720
369.7407, 33.98717
370.2228, 34.99456
370.7049, 36.31606
371.1870, 37.52572
371.6691, 38.08180
372.1512, 37.80167
372.6334, 37.96602
373.1155, 39.10257
373.5976, 40.16154
374.0797, 40.55091
374.5618, 40.56069
375.0439, 40.89943
375.5261, 42.08727
376.0082, 43.89664
376.4903, 45.11787
376.9724, 45.16436
377.4545, 45.45055
377.9366, 46.53986
378.4188, 47.79440
378.9009, 48.49615
379.3830, 48.42431
379.8651, 48.05297
380.3472, 48.09789
380.8293, 48.62233
381.3115, 49.34571
381.7936, 50.62559
382.2757, 51.79371
382.7578, 52.39603
383.2399, 52.50250
383.7220, 52.58173
384.2042, 53.06812
384.6863, 53.89664
385.1684, 54.42571
385.6505, 54.54108
386.1326, 54.64763
386.6147, 54.85917
387.0969, 55.12831
387.5790, 55.37811
388.0611, 55.55394
388.5432, 55.73828
389.0253, 56.16264
389.5074, 56.94154
389.9896, 57.46117
390.4717, 57.41476
390.9538, 57.06521
391.4359, 56.52268
391.9180, 55.79180
392.4001, 55.13797
392.8823, 54.89782
393.3644, 54.97876
393.8465, 54.76800
394.3286, 54.03651
394.8107, 53.22045
395.2928, 52.75436
395.7750, 52.53128
396.2571, 52.15218
396.7392, 51.28204
397.2213, 50.25445
397.7034, 49.66018
398.1855, 49.55915
398.6677, 49.22765
399.1498, 48.14840
399.6319, 46.56796
400.1140, 45.10984
400.5961, 43.82296
401.0782, 42.62351
401.5604, 41.40660
402.0425, 40.22743
402.5246, 39.29519
403.0067, 38.75151
403.4888, 38.27269
403.9709, 37.34452
404.4531, 35.93781
404.9352, 34.47345
405.4173, 32.94025
405.8994, 31.43015
406.3815, 30.13667
406.8636, 29.03902
407.3458, 27.76689
407.8279, 25.95604
408.3100, 23.66424
408.7921, 21.89060
409.2742, 20.93676
409.7563, 20.09689
410.2385, 19.17548
410.7206, 18.18928
411.2027, 17.21365
411.6848, 16.28510
412.1669, 15.32797
412.6490, 14.17107
413.1311, 12.49480
413.6133, 11.19270
414.0954, 10.57625
414.5775, 10.09317
415.0596, 9.326439
415.5417, 8.257805
416.0238, 7.141495
416.5060, 6.221130
416.9881, 5.507851
417.4702, 4.694672
417.9523, 3.456512
418.4344, 2.466713
418.9165, 2.016975
419.3987, 1.878716
419.8808, 1.736458
420.3629, 1.450035
420.8450, 1.054237
421.3271, 0.5926900
421.8092, 2.9785000E-02
422.2914, 0.4667210
422.7735, 0.5136340
423.2556, 0.5052030
423.7377, 0.6597370
424.2198, 0.9791790
424.7019, 1.307922
425.1841, 1.498703
425.6662, 1.567642
426.1483, 1.690079
426.6304, 1.919991
427.1125, 2.112961
427.5946, 2.292145
428.0768, 2.377594
428.5589, 2.199707
429.0410, 1.609230
429.5231, 0.9345470
430.0052, 0.6146010
430.4873, 0.6559980
430.9695, 0.7435910
431.4516, 0.8772510
431.9337, 0.9221120
432.4158, 0.7122730
432.8979, 0.2449040
433.3800, 0.2125170
433.8622, 0.5371930
434.3443, 0.7673110
434.8264, 0.9264760
435.3085, 0.9977800
435.7906, 1.170746
436.2727, 1.620636
436.7549, 2.305550
437.2370, 2.965157
437.7191, 3.522270
438.2012, 4.120216
438.6833, 4.934845
439.1654, 5.851273
439.6476, 6.570099
440.1297, 6.963631
440.6118, 7.181343
441.0939, 7.452065
441.5760, 7.727570
442.0581, 8.212471
442.5403, 9.019989
443.0224, 9.966599
443.5045, 10.98466
443.9866, 12.02496
444.4687, 12.93109
444.9508, 13.53503
445.4330, 13.89684
445.9151, 14.72661
446.3972, 16.42825
446.8793, 18.12488
447.3614, 19.77097
447.8435, 21.31045
448.3257, 22.57915
448.8078, 23.56171
449.2899, 24.60090
449.7720, 26.27845
450.2541, 28.86059
450.7362, 31.14214
451.2184, 32.62218
451.7005, 34.26485
452.1826, 36.44373
452.6647, 39.10649
453.1468, 42.10378
453.6289, 45.41489
454.1111, 48.92076
454.5932, 52.20255
455.0753, 55.11686
455.5574, 58.31145
456.0395, 62.04803
456.5216, 66.13538
457.0038, 70.40148
457.4859, 74.85496
457.9680, 79.61562
458.4501, 84.81836
458.9322, 90.42725
459.4143, 96.24895
459.8965, 102.2770
460.3786, 108.4423
460.8607, 114.5873
461.3428, 120.8194
461.8249, 127.4872
462.3070, 134.5242
462.7892, 142.1421
463.2713, 150.6964
463.7534, 160.0102
464.2355, 169.2715
464.7176, 178.1354
465.1997, 186.9912
465.6819, 196.6477
466.1640, 207.2176
466.6461, 217.8803
467.1282, 228.0685
467.6103, 238.6582
468.0924, 250.5697
468.5746, 263.6551
469.0567, 277.0494
469.5388, 289.9922
470.0209, 302.6394
470.5030, 316.5571
470.9851, 332.5311
471.4673, 348.7678
471.9494, 364.8070
472.4315, 381.1410
472.9136, 398.3419
473.3957, 416.4769
473.8778, 435.1278
474.3600, 453.5997
474.8421, 471.6437
475.3242, 491.3557
475.8063, 515.1840
476.2884, 538.2414
476.7705, 558.9525
477.2527, 577.8706
477.7348, 596.1466
478.2169, 614.4171
478.6990, 631.8834
479.1811, 647.5389
479.6632, 661.6183
480.1454, 672.2897
480.6275, 678.6981
481.1096, 681.7318
481.5917, 682.7314
482.0738, 681.5562
482.5559, 676.9964
483.0380, 668.0807
483.5201, 655.5778
484.0023, 640.2689
484.4844, 622.1370
484.9665, 602.8159
485.4486, 583.4097
485.9307, 563.2838
486.4128, 540.6485
486.8950, 514.5956
487.3771, 488.3796
487.8592, 462.4252
488.3413, 437.2334
488.8234, 413.3833
489.3055, 390.8866
489.7877, 369.4458
490.2698, 348.8429
490.7519, 329.0078
491.2340, 310.4637
491.7161, 292.9455
492.1982, 276.5427
492.6804, 261.6084
493.1625, 247.6199
493.6446, 233.6799
494.1267, 219.4517
494.6088, 205.6630
495.0909, 193.6988
495.5731, 184.0647
496.0552, 174.6752
496.5373, 165.3073
497.0194, 156.4138
497.5015, 148.3278
497.9836, 140.9095
498.4658, 133.8356
498.9479, 126.9642
499.4300, 120.2862
499.9121, 113.6583
500.3942, 107.0684
500.8763, 100.9250
501.3585, 95.30478
501.8406, 90.24337
502.3227, 85.74272
502.8048, 81.79598
503.2869, 78.10622
503.7690, 74.71998
504.2512, 71.42091
504.7333, 67.74131
505.2154, 63.62813
505.6975, 59.98035
506.1796, 57.44296
506.6617, 55.67947
507.1439, 53.58397
507.6260, 50.81921
508.1081, 48.34824
508.5902, 46.68067
509.0723, 45.33106
509.5544, 43.70928
510.0366, 41.72457
510.5187, 39.63765
511.0008, 37.69472
511.4829, 35.92175
511.9650, 34.37621
512.4471, 33.18507
512.9293, 32.08423
513.4114, 31.21136
513.8935, 30.30577
514.3756, 28.95554
514.8577, 27.09666
515.3398, 25.24324
515.8220, 24.17098
516.3041, 23.98592
516.7862, 23.42495
517.2683, 22.09602
517.7504, 20.86121
518.2325, 20.18440
518.7147, 19.85662
519.1968, 19.53922
519.6789, 19.13498
520.1610, 18.62958
520.6431, 18.00335
521.1252, 17.26992
521.6074, 16.48799
522.0895, 15.66258
522.5716, 14.82241
523.0537, 13.86769
523.5358, 12.83757
524.0179, 12.22408
524.5001, 12.61433
524.9822, 13.00079
525.4643, 12.59774
525.9464, 11.58192
526.4285, 10.46250
526.9106, 9.419682
527.3928, 8.586121
527.8749, 8.243618
528.3570, 8.755356
528.8391, 8.910519
529.3212, 8.465229
529.8033, 7.915676
530.2855, 7.453461
530.7676, 7.119186
531.2497, 6.973274
531.7318, 7.079998
532.2139, 7.271328
532.6960, 7.048244
533.1782, 6.191711
533.6603, 5.544807
534.1424, 5.401398
534.6245, 5.387402
535.1066, 5.327194
535.5887, 5.209473
536.0709, 5.066147
536.5530, 4.918900
537.0351, 4.758060
537.5172, 4.569756
537.9993, 4.356541
538.4814, 4.084625
538.9636, 3.707989
539.4457, 3.294621
539.9278, 2.933937
540.4099, 2.614941
540.8920, 2.399200
541.3741, 2.348206
541.8563, 2.377121
542.3384, 2.473499
542.8205, 2.593376
543.3026, 2.528278
543.7847, 2.107365
544.2668, 1.482773
544.7490, 1.224453
545.2311, 1.836224
545.7132, 2.122082
546.1953, 1.915119
546.6774, 1.492302
547.1595, 0.8993680
547.6417, 0.2544100
548.1238, 0.1312450
548.6059, 4.5177002E-02
549.0880, 0.6077380
549.5701, 0.8445400
550.0522, 0.6744040
550.5344, 0.3849560
551.0165, 0.1891860
551.4986, 0.6864620
551.9807, 0.7472720
552.4628, 0.3640590
552.9449, 3.9363999E-02
553.4271, 0.2585980
553.9092, 0.3221130
554.3913, 0.2413020
554.8734, 1.6579000E-02
555.3555, 0.2180630
555.8376, 0.4076540
556.3198, 0.5469550
556.8019, 0.6055530
557.2840, 0.5160260
557.7661, 0.5215910
558.2482, 0.8384860
558.7303, 1.151031
559.2125, 1.097332
559.6946, 0.7286260
560.1767, 0.4233930
560.6588, 0.4555470
561.1409, 0.7443010
561.6230, 0.9422150
562.1052, 1.016514
562.5873, 1.055874
563.0694, 1.071857
563.5515, 1.060116
564.0336, 1.011803
564.5157, 0.9306950
564.9979, 0.8256190
565.4800, 0.6576190
565.9621, 0.4952770
566.4442, 0.6028330
566.9263, 1.056122
567.4084, 1.244045
567.8906, 0.7692870
568.3727, 5.7776999E-02
568.8548, 0.3390850
569.3369, 0.4119300
569.8190, 0.3795130
570.3011, 0.1766820
570.7833, 3.0439999E-03
571.2654, 0.1122020
571.7475, 0.4654880
572.2296, 0.7332760
572.7117, 0.7399560
573.1938, 0.5735320
573.6760, 0.4343870
574.1581, 0.2246210
574.6402, 0.2425400
575.1223, 0.7605060
575.6044, 1.245255
576.0865, 1.255335
576.5687, 0.9665030
577.0508, 0.9031770
577.5329, 1.397945
578.0150, 2.152594
578.4971, 2.515182
578.9792, 2.428732
579.4614, 2.251781
579.9435, 1.908024
580.4256, 1.642679
580.9077, 1.677219
581.3898, 1.945892
581.8719, 2.187849
582.3541, 2.280910
582.8362, 2.335680
583.3183, 2.440666
583.8004, 2.594748
584.2825, 2.809065
584.7646, 3.099136
585.2468, 3.392042
585.7289, 3.588486
586.2110, 3.664179
586.6931, 3.779816
587.1752, 4.020468
587.6573, 4.206564
588.1394, 4.165462
588.6215, 4.054798
589.1036, 4.157402
589.5858, 4.559235
590.0679, 5.026085
590.5500, 5.199137
591.0321, 5.034121
591.5142, 5.057808
591.9963, 5.413433
592.4785, 5.747423
592.9606, 5.852425
593.4427, 5.865702
593.9248, 6.013887
594.4069, 6.392502
594.8890, 6.693079
595.3712, 6.571457
595.8533, 6.221735
596.3354, 6.112467
596.8175, 6.311752
597.2996, 6.601425
597.7817, 6.848108
598.2639, 7.050255
598.7460, 7.191227
599.2281, 7.232983
599.7102, 7.275639
600.1923, 7.321066
600.6744, 7.382164
601.1566, 7.510595
601.6387, 7.679356
602.1208, 7.757618
602.6029, 7.616247
603.0850, 7.347778
603.5671, 7.331633
604.0493, 7.648260
604.5314, 8.003738
605.0135, 8.428965
605.4956, 8.797688
605.9777, 8.973219
606.4598, 9.003399
606.9420, 9.050760
607.4241, 9.198380
607.9062, 9.388527
608.3883, 9.507275
608.8704, 9.565670
609.3525, 9.783911
609.8347, 10.32864
610.3168, 10.90245
610.7989, 11.01471
611.2810, 10.49459
611.7631, 10.24737
612.2452, 10.36786
612.7274, 10.63113
613.2095, 11.05071
613.6916, 11.51256
614.1737, 11.83076
614.6558, 11.95483
615.1379, 12.05373
615.6201, 12.34748
616.1022, 12.82222
616.5843, 13.21920
617.0664, 13.62193
617.5485, 13.87104
618.0306, 13.65982
618.5128, 13.32088
618.9949, 13.33625
619.4770, 13.86267
619.9591, 14.29103
620.4412, 14.09747
620.9233, 13.67221
621.4055, 13.67249
621.8876, 14.11780
622.3697, 14.55487
622.8518, 14.74485
623.3339, 14.67953
623.8160, 14.30476
624.2982, 13.14055
624.7803, 12.39459
625.2624, 12.44889
625.7445, 12.63489
626.2266, 12.57177
626.7087, 12.26598
627.1909, 11.86882
627.6730, 11.45610
628.1551, 11.03952
628.6372, 10.63961
629.1193, 10.27139
629.6014, 9.974674
630.0836, 9.738901
630.5657, 9.582085
631.0478, 9.659624
631.5299, 9.831776
632.0120, 9.703356
632.4941, 8.962528
632.9763, 8.315319
633.4584, 8.243454
633.9405, 8.409962
634.4226, 8.288748
634.9047, 7.817202
635.3868, 7.334080
635.8690, 7.125202
636.3511, 7.140232
636.8332, 7.064293
637.3153, 6.816212
637.7974, 6.607107
638.2795, 6.485622
638.7617, 6.393377
639.2438, 6.255678
639.7259, 6.097591
640.2080, 6.047314
640.6901, 6.252209
641.1722, 6.523232
641.6544, 6.541916
642.1365, 6.333813
642.6186, 6.174683
643.1007, 6.176727
643.5828, 6.142576
644.0649, 5.816425
644.5471, 5.177902
645.0292, 4.732622
645.5113, 4.500031
645.9934, 4.428827
646.4755, 4.636871
646.9576, 4.934574
647.4398, 5.059975
647.9219, 4.979156
648.4040, 4.884830
648.8861, 4.970425
649.3682, 5.200344
649.8503, 5.362682
650.3325, 5.455080
650.8146, 5.483503
651.2967, 5.393768
651.7788, 5.278824
652.2609, 5.242773
652.7430, 5.281424
653.2252, 5.264370
653.7073, 5.015354
654.1894, 4.816542
654.6715, 5.005016
655.1536, 5.421700
655.6357, 5.614388
656.1179, 5.416159
656.6000, 5.206575
657.0821, 5.522585
657.5642, 6.461132
658.0463, 6.964886
658.5284, 6.555763
659.0106, 6.307487
659.4927, 6.547705
659.9748, 6.885746
660.4569, 6.945984
660.9390, 6.685394
661.4211, 6.429968
661.9033, 6.485149
662.3854, 6.704542
662.8675, 6.741039
663.3496, 6.593147
663.8317, 6.491447
664.3138, 6.536423
664.7960, 6.647457
665.2781, 6.712608
665.7602, 6.720680
666.2423, 6.753670
666.7244, 6.844967
667.2065, 6.918970
667.6887, 6.906076
668.1708, 6.870209
668.6529, 6.945385
669.1350, 7.138262
669.6171, 7.274033
670.0992, 7.110968
670.5814, 6.702415
671.0635, 6.542444
671.5456, 6.704163
672.0277, 6.899778
672.5098, 7.094427
672.9919, 7.212605
673.4741, 7.145332
673.9562, 6.885855
674.4383, 6.635166
674.9204, 6.461658
675.4025, 6.304857
675.8846, 6.090353
676.3668, 5.867371
676.8489, 5.738556
677.3310, 5.728737
677.8131, 5.783350
678.2952, 5.844233
678.7773, 5.925316
679.2595, 5.889673
679.7416, 5.729324
680.2237, 5.437946
680.7058, 4.846628
681.1879, 4.233414
681.6700, 3.875517
682.1522, 3.799284
682.6343, 3.780897
683.1164, 3.746443
683.5985, 3.693314
684.0806, 3.606752
684.5627, 3.486538
685.0449, 3.338528
685.5270, 3.165859
686.0091, 2.937429
686.4912, 2.588718
686.9733, 2.094034
687.4554, 1.789688
687.9376, 1.841301
688.4197, 1.883907
688.9018, 1.898117
689.3839, 1.853579
689.8660, 1.675177
690.3481, 1.377550
690.8303, 1.116138
691.3124, 1.023905
691.7945, 1.019823
692.2766, 0.9396720
692.7587, 0.7988240
693.2408, 0.7503030
693.7230, 0.8670370
694.2051, 1.008801
694.6872, 1.013353
695.1693, 0.8730430
695.6514, 0.7389220
696.1335, 0.5339450
696.6157, 0.4295290
697.0978, 0.5905510
697.5799, 0.7949910
698.0620, 0.8004550
698.5441, 0.6005440
699.0262, 0.3661840
699.5084, 0.1842820
699.9905, 9.6560001E-02
700.4726, 0.3005280
700.9547, 0.8082180
701.4368, 0.9835720
701.9189, 0.5276660
702.4011, 1.5238000E-02
702.8832, 6.5137997E-02
703.3653, 0.6216950
703.8474, 0.9559210
704.3295, 0.9609200
704.8116, 0.8645630
705.2938, 0.5969620
705.7759, 0.3467200
706.2580, 0.3701020
706.7401, 0.6242410
707.2222, 0.8092230
707.7043, 0.7071500
708.1865, 0.4588240
708.6686, 0.4207990
709.1507, 0.6222590
709.6328, 0.6570930
710.1149, 0.3973810
710.5970, 7.4239999E-02
711.0792, 0.2298680
711.5613, 0.4579350
712.0434, 0.4197640
712.5255, 8.9045003E-02
713.0076, 0.5183410
713.4897, 0.6865020
713.9719, 0.6996270
714.4540, 0.6590610
714.9361, 0.5636580
715.4182, 0.3066710
715.9003, 0.1885450
716.3824, 0.6861590
716.8646, 0.6600930
717.3467, 4.8060998E-02
717.8288, 0.4170040
718.3109, 0.7037090
718.7930, 0.8137820
719.2751, 0.6087680
719.7573, 0.2756940
720.2394, 0.1445670
720.7215, 0.3022990
721.2036, 0.4016990
721.6857, 0.2804320
722.1678, 8.9775003E-02
722.6500, 9.8816000E-02
723.1321, 0.2401960
723.6142, 0.2076240
724.0963, 4.6156000E-02
724.5784, 0.3180580
725.0605, 0.2859270
725.5427, 6.1329000E-02
726.0248, 0.2705190
726.5069, 0.2952350
726.9890, 0.2880540
727.4711, 0.3601780
727.9532, 0.3933580
728.4354, 0.1904390
728.9175, 0.2624910
729.3995, 0.5582310
729.8817, 0.4562320
730.3638, 0.2754760
730.8459, 0.2385880
731.3280, 0.2829480
731.8101, 0.2816940
732.2922, 0.2008270
732.7744, 7.6668002E-02
733.2565, 7.3041998E-02
733.7386, 0.2283440
734.2207, 0.2283820
734.7028, 1.0242000E-02
735.1849, 0.1268540
735.6671, 4.6643998E-02
736.1492, 0.2839970
736.6313, 0.4201240
737.1134, 0.4577520
737.5955, 0.3987410
738.0776, 9.9260002E-02
738.5598, 0.1139530
739.0419, 7.6840997E-02
739.5240, 0.3582040
740.0061, 0.2493110
740.4882, 0.2196010
740.9703, 0.5971970
741.4525, 0.5722410
741.9346, 0.3023640
742.4167, 0.1480330
742.8988, 0.1145230
743.3809, 0.1776370
743.8630, 0.4318050
744.3452, 0.6173380
744.8273, 0.5242710
745.3094, 0.2644650
745.7915, 3.0113000E-02
746.2736, 0.1851710
746.7557, 0.3211360
747.2379, 0.3243270
747.7200, 0.2690320
748.2021, 0.2023180
748.6842, 0.1302930
749.1663, 5.2040000E-02
749.6484, 3.2458998E-02
750.1306, 0.1208690
750.6127, 0.2281300
751.0948, 0.3472120
751.5769, 0.3588520
752.0590, 0.2257480
752.5411, 0.1195680
753.0233, 0.1082610
753.5054, 0.1506270
753.9875, 0.2032550
754.4696, 0.2665670
754.9517, 0.3151950
755.4338, 0.3786430
755.9160, 0.3885520
756.3981, 0.2402500
756.8802, 6.0842998E-02
757.3623, 4.1956000E-02
757.8444, 0.1813720
758.3265, 0.2740140
758.8087, 0.1167300
759.2908, 0.1005500
759.7729, 0.1468960
760.2550, 0.8585450
760.7371, 1.370083
761.2192, 1.564211
761.7014, 1.524820
762.1835, 1.234413
762.6656, 0.7676580
763.1477, 0.4448240
763.6298, 0.2276440
764.1119, 0.2034470
764.5941, 0.5856360
765.0762, 0.9767040
765.5583, 1.122036
766.0404, 1.069841
766.5225, 0.9220030
767.0046, 0.7165360
767.4868, 0.5814190
767.9689, 0.7118150
768.4510, 1.014977
768.9331, 1.194117
769.4152, 1.233299
769.8973, 1.278040
770.3795, 1.418089
770.8616, 1.542953
771.3437, 1.498911
771.8258, 1.240248
772.3079, 1.145918
772.7900, 1.441862
773.2722, 1.605431
773.7543, 1.394135
774.2364, 1.060413
774.7185, 0.8532090
775.2006, 0.8389660
775.6827, 0.9625590
776.1649, 1.271395
776.6470, 1.617912
777.1291, 1.853128
777.6112, 1.993832
778.0933, 2.092077
778.5754, 2.156534
779.0576, 2.136570
779.5397, 1.972240
780.0218, 1.747793
780.5039, 1.720566
780.9860, 1.942596
781.4681, 2.229317
781.9503, 2.801682
782.4324, 3.177277
782.9145, 3.008984
783.3966, 2.594784
783.8787, 2.354786
784.3608, 2.378557
784.8430, 2.457912
785.3251, 2.549372
785.8072, 2.602312
786.2893, 2.541162
786.7714, 2.422331
787.2535, 2.366472
787.7357, 2.410887
788.2178, 2.516975
788.6999, 2.663765
789.1820, 2.831316
789.6641, 2.908596
790.1462, 2.893778
790.6284, 2.780531
791.1105, 2.487526
791.5926, 2.196419
792.0747, 2.047140
792.5568, 2.049915
793.0389, 2.197947
793.5211, 2.580130
794.0032, 2.937408
794.4853, 3.413988
794.9674, 3.679199
795.4495, 3.259237
795.9316, 2.455627
796.4138, 1.951811
796.8959, 2.025776
797.3780, 2.276899
797.8601, 2.297386
798.3422, 2.160563
798.8243, 2.068701
799.3065, 2.028198
799.7886, 2.015627
800.2707, 2.013885
800.7528, 2.070162
801.2349, 2.285124
801.7170, 2.684313
802.1992, 2.829746
802.6813, 2.543768
803.1634, 2.229191
803.6455, 1.770472
804.1276, 1.428186
804.6097, 1.522581
805.0919, 1.934744
805.5740, 2.200621
806.0561, 2.088938
806.5382, 1.914368
807.0203, 1.925911
807.5024, 2.041269
807.9846, 2.187193
808.4667, 2.317871
808.9488, 2.242590
809.4309, 1.848593
809.9130, 1.389200
810.3951, 1.335913
810.8773, 1.730337
811.3594, 1.902836
811.8415, 1.744196
812.3236, 1.632793
812.8057, 1.758913
813.2878, 1.946480
813.7700, 1.997576
814.2521, 1.917290
814.7342, 1.803766
815.2163, 1.580101
815.6984, 1.439207
816.1805, 1.521109
816.6627, 1.671137
817.1448, 1.738239
817.6269, 1.723932
818.1090, 1.669182
818.5911, 1.586775
819.0732, 1.529551
819.5554, 1.644876
820.0375, 1.850300
820.5196, 1.736130
821.0017, 1.267902
821.4838, 1.011429
821.9659, 1.299147
822.4481, 1.786779
822.9302, 1.896097
823.4123, 1.552307
823.8944, 1.338089
824.3765, 1.348629
824.8586, 1.360027
825.3408, 1.364574
825.8229, 1.320969
826.3050, 1.124010
826.7871, 0.8278520
827.2692, 0.6942710
827.7513, 0.8931330
828.2335, 1.145555
828.7156, 1.337580
829.1977, 1.449839
829.6798, 1.398649
830.1619, 1.235271
830.6440, 1.166311
831.1262, 1.299818
831.6083, 1.489452
832.0904, 1.465284
832.5725, 1.256233
833.0546, 1.298012
833.5367, 1.648714
834.0189, 1.931017
834.5010, 2.001743
834.9831, 1.940393
835.4652, 1.835093
835.9473, 1.686184
836.4294, 1.499355
836.9116, 1.143970
837.3937, 0.9322320
837.8758, 0.9599360
838.3579, 1.108627
838.8400, 1.405161
839.3221, 1.735907
839.8043, 1.824865
840.2864, 1.526608
840.7685, 1.198076
841.2506, 1.119886
841.7327, 1.174383
842.2148, 1.219048
842.6970, 1.239559
843.1791, 1.220200
843.6612, 1.157038
844.1433, 1.120247
844.6254, 1.220892
845.1075, 1.423124
845.5897, 1.396450
846.0718, 1.044552
846.5539, 0.9835510
847.0360, 1.519396
847.5181, 2.040096
848.0002, 1.953115
848.4824, 1.423986
848.9645, 1.223402
849.4466, 1.558990
849.9287, 1.818653
850.4108, 1.904696
850.8929, 1.933151
851.3751, 1.983278
851.8572, 2.013887
852.3393, 1.921148
852.8214, 1.692223
853.3035, 1.506310
853.7856, 1.499498
854.2678, 1.593882
854.7499, 1.774769
855.2320, 1.975185
855.7141, 1.960154
856.1962, 1.685097
856.6783, 1.378084
857.1605, 1.203835
857.6426, 1.147781
858.1247, 1.195578
858.6068, 1.374489
859.0889, 1.459152
859.5710, 1.403141
860.0532, 1.303453
860.5353, 1.181250
861.0174, 1.069891
861.4995, 1.036560
861.9816, 1.096357
862.4637, 1.115479
862.9459, 1.088078
863.4280, 1.022148
863.9101, 0.8650110
864.3922, 0.7128810
864.8743, 0.6470510
865.3564, 0.6753250
865.8386, 0.7826250
866.3207, 0.9921840
866.8028, 1.171139
867.2849, 1.137999
867.7670, 1.036522
868.2491, 1.140953
868.7313, 1.405033
869.2134, 1.557138
869.6955, 1.486917
870.1776, 1.268494
870.6597, 0.9105630
871.1418, 0.4843030
871.6239, 0.5997010
872.1060, 1.373142
872.5881, 1.873522
873.0703, 1.837450
873.5524, 1.579132
874.0345, 1.278919
874.5166, 0.9805580
874.9987, 0.8825000
875.4808, 1.203472
875.9630, 1.343988
876.4451, 1.125879
876.9272, 0.9155830
877.4093, 0.9183390
877.8914, 1.006138
878.3735, 0.9794120
878.8557, 0.8177300
879.3378, 0.7168520
879.8199, 0.8687060
880.3020, 1.011784
880.7841, 0.8886640
881.2662, 0.6521260
881.7484, 0.4842950
882.2305, 0.4409790
882.7126, 0.6172410
883.1947, 1.087357
883.6768, 1.582752
884.1589, 1.651358
884.6411, 1.376469
885.1232, 1.188648
885.6053, 1.106478
886.0874, 1.094215
886.5695, 1.160686
887.0516, 1.203625
887.5338, 1.089354
888.0159, 0.8327050
888.4980, 0.6636430
888.9801, 0.6366200
889.4622, 0.5942100
889.9443, 0.5044670
890.4265, 0.4018760
890.9086, 0.2635190
891.3907, 0.1492480
891.8728, 0.1819740
892.3549, 0.4197750
892.8370, 0.6040940
893.3192, 0.6146390
893.8013, 0.5957390
894.2834, 0.7011200
894.7655, 0.8002740
895.2476, 0.6705840
895.7297, 0.3473420
896.2119, 9.5510997E-02
896.6940, 6.1345000E-02
897.1761, 0.1363540
897.6582, 0.2326160
898.1403, 0.3605060
898.6224, 0.5719850
899.1046, 0.8441860
899.5867, 0.9957080
900.0688, 0.9345470
900.5509, 0.7552130
901.0330, 0.6413040
901.5151, 0.5923350
901.9973, 0.4872690
902.4794, 0.3359390
902.9615, 0.1617270
903.4436, 9.1436997E-02
903.9257, 0.2174540
904.4078, 5.4970002E-03
904.8900, 0.4320810
905.3721, 0.6132980
905.8542, 0.4025340
906.3363, 0.3463360
906.8184, 0.5954820
907.3005, 0.8146840
907.7827, 0.8777290
908.2648, 0.8572040
908.7469, 0.8292930
909.2290, 0.8094250
909.7111, 0.8073570
910.1932, 0.7556860
910.6754, 0.7255460
911.1575, 0.9051490
911.6396, 1.058202
912.1217, 0.7587640
912.6038, 0.2014400
913.0859, 2.6569000E-02
913.5681, 0.4799870
914.0502, 1.008543
914.5323, 1.066724
915.0144, 0.8182480
915.4965, 0.5113090
915.9786, 0.2020240
916.4608, 0.1202800
916.9429, 0.3032970
917.4250, 0.5227750
917.9071, 0.5997390
918.3892, 0.5996310
918.8713, 0.7573300
919.3535, 1.100567
919.8356, 1.277637
920.3177, 1.246069
920.7998, 1.153607
921.2819, 1.056911
921.7640, 0.9243170
922.2462, 0.6861030
922.7283, 0.3475260
923.2104, 0.1429640
923.6925, 7.5461999E-02
924.1746, 0.1422190
924.6567, 0.5414550
925.1389, 0.8693620
925.6210, 0.8608620
926.1031, 0.6499450
926.5852, 0.4343370
927.0673, 0.2342480
927.5494, 0.1663860
928.0316, 0.3506440
928.5137, 0.5900150
928.9958, 0.8104460
929.4779, 0.9926880
929.9600, 1.121554
930.4421, 1.192492
930.9243, 1.201937
931.4064, 1.149905
931.8885, 1.027286
932.3706, 0.7128670
932.8527, 0.3809510
933.3348, 0.4164380
933.8170, 0.7219550
934.2991, 0.8901880
934.7812, 0.8060540
935.2633, 0.6374480
935.7454, 0.5240490
936.2275, 0.4594580
936.7097, 0.4267310
937.1918, 0.4258660
937.6739, 0.4748110
938.1560, 0.5892500
938.6381, 0.6403900
939.1202, 0.5478720
939.6024, 0.4059700
940.0845, 0.3408510
940.5666, 0.3517080
941.0487, 0.5050380
941.5308, 0.9439780
942.0129, 1.210859
942.4951, 1.101374
942.9772, 0.9513970
943.4593, 1.046358
943.9414, 1.241000
944.4235, 1.209687
944.9056, 0.8609350
945.3878, 0.6153250
945.8699, 0.6273320
946.3520, 0.6233190
946.8341, 0.3947990
947.3162, 0.1797690
947.7983, 0.3214300
948.2805, 0.7053250
948.7626, 0.8208610
949.2447, 0.3906650
949.7268, 4.0389998E-03
950.2089, 3.0053001E-02
950.6910, 0.2410400
951.1732, 0.5626410
951.6553, 0.8524680
952.1374, 0.8138980
952.6195, 0.4313360
953.1016, 4.8245002E-02
953.5837, 0.1155610
954.0659, 0.1178340
954.5480, 7.9614997E-02
955.0301, 0.3471840
955.5122, 0.3046340
955.9943, 2.3227001E-02
956.4764, 0.3332410
956.9586, 0.4952030
957.4407, 0.4187320
957.9228, 0.1167060
958.4049, 0.9073930
958.8870, 1.001509
959.3691, 0.3843040
959.8513, 5.1949002E-02
960.3334, 0.1494810
960.8155, 0.1584380
961.2976, 0.2416980
961.7797, 0.3046860
962.2618, 0.1052170
962.7440, 0.4101100
963.2261, 0.5709570
963.7082, 0.1788830
964.1903, 0.1051980
964.6724, 8.1146002E-02
965.1545, 3.4687001E-02
965.6367, 0.1460250
966.1188, 0.2102780
966.6009, 5.0988998E-02
967.0830, 0.5270860
967.5651, 0.8045750
968.0472, 0.4952130
968.5294, 0.2072750
969.0115, 0.2157270
969.4936, 0.2735060
969.9757, 8.5150003E-02
970.4578, 0.2725680
970.9399, 0.4168430
971.4221, 0.1786310
971.9042, 2.7433001E-02
972.3863, 7.7149998E-03
972.8684, 3.3992998E-02
973.3505, 8.1423000E-02
973.8326, 0.2570670
974.3148, 0.3597260
974.7969, 0.3453350
975.2790, 0.1720810
975.7611, 0.2925950
976.2432, 0.7019600
976.7253, 0.6864150
977.2075, 0.4886470
977.6896, 0.4080090
978.1717, 0.4471450
978.6538, 0.5253240
979.1359, 0.6066990
979.6180, 0.6584930
980.1002, 0.6456620
980.5823, 0.6018010
981.0644, 0.5597550
981.5465, 0.5428680
982.0286, 0.6123770
982.5107, 0.7862130
982.9929, 1.114935
983.4750, 1.630676
983.9571, 2.028969
984.4392, 1.816917
984.9213, 1.210911
985.4034, 1.335152
985.8856, 2.191504
986.3677, 2.631100
986.8498, 2.427010
987.3319, 2.048248
987.8140, 1.744177
988.2961, 1.523731
988.7783, 1.396284
989.2604, 1.359001
989.7425, 1.542635
990.2246, 2.039156
990.7067, 2.413486
991.1888, 2.562668
991.6710, 2.619745
992.1531, 2.666565
992.6352, 2.678614
993.1173, 2.579645
993.5994, 2.298460
994.0815, 2.202196
994.5637, 2.483591
995.0458, 2.657625
995.5279, 2.483049
996.0100, 2.283958
996.4921, 2.343254
996.9742, 2.559851
997.4564, 2.632231
997.9385, 2.453812
998.4206, 2.408813
998.9027, 2.763029
999.3848, 2.991993
999.8669, 2.699980
1000.349, 2.336447
1000.831, 2.389071
1001.313, 2.767475
1001.795, 3.041363
1002.278, 3.108326
1002.760, 3.070326
1003.242, 2.880665
1003.724, 2.686968
1004.206, 2.577211
1004.688, 2.514441
1005.170, 2.452160
1005.652, 2.400719
1006.134, 2.380047
1006.617, 2.375593
1007.099, 2.428286
1007.581, 2.583900
1008.063, 2.799118
1008.545, 3.170046
1009.027, 3.500904
1009.509, 3.358501
1009.991, 2.760532
1010.474, 2.220076
1010.956, 2.030457
1011.438, 2.001610
1011.920, 1.991404
1012.402, 2.004713
1012.884, 2.034731
1013.366, 2.063805
1013.848, 2.062380
1014.330, 2.025713
1014.813, 1.992460
1015.295, 2.017487
1015.777, 2.040373
1016.259, 1.833546
1016.741, 1.503761
1017.223, 1.437717
1017.705, 1.559383
1018.187, 1.422808
1018.669, 0.9076750
1019.152, 0.3805980
1019.634, 0.1499330
1020.116, 0.1876410
1020.598, 0.5094680
1021.080, 1.022226
1021.562, 1.313637
1022.044, 1.347881
1022.526, 1.134258
1023.008, 0.6671160
1023.491, 0.1722660
1023.973, 0.1474630
1024.455, 0.2955570
1024.937, 0.1956560
1025.419, 0.1735950
1025.901, 0.2238940
1026.383, 0.1317460
1026.865, 0.3274710
1027.348, 9.8030001E-02
1027.830, 0.1576250
1028.312, 3.0056000E-02
1028.794, 0.5325370
1029.276, 0.6885640
1029.758, 0.4322870
1030.240, 0.2791230
1030.722, 0.2917900
1031.204, 0.2957900
1031.687, 0.2386650
1032.169, 9.4958998E-02
1032.651, 0.2152310
1033.133, 0.6339440
1033.615, 0.7737660
1034.097, 0.5327000
1034.579, 0.2340680
1035.061, 0.1894190
1035.544, 0.4959890
1036.026, 0.5978430
1036.508, 0.5320360
1036.990, 0.2947370
1037.472, 8.1331000E-02
1037.954, 0.3671340
1038.436, 0.6226960
1038.918, 0.6457520
1039.401, 0.1661570
1039.883, 0.1277480
1040.365, 0.1238560
1040.847, 0.5771680
1041.329, 0.9162850
1041.811, 1.141016
1042.293, 1.239504
1042.775, 1.040537
1043.257, 1.013050
1043.740, 1.233967
1044.222, 1.530046
1044.704, 2.042429
1045.186, 2.451679
1045.668, 2.323044
1046.150, 1.772003
1046.632, 1.461637
1047.114, 1.465176
1047.596, 1.632805
1048.079, 2.151537
1048.561, 2.589184
1049.043, 2.742815
1049.525, 2.770281
1050.007, 2.798767
1050.489, 2.840984
1050.971, 2.924179
1051.453, 3.133713
1051.936, 3.182207
1052.418, 2.697792
1052.900, 2.441046
1053.382, 2.976105
1053.864, 3.698023
1054.346, 3.959484
1054.828, 3.868830
1055.310, 3.974915
1055.792, 4.472504
1056.275, 4.845949
1056.757, 4.834915
1057.239, 4.837936
1057.721, 5.078648
1058.203, 5.381447
1058.685, 5.578682
1059.167, 5.682524
1059.649, 5.771282
1060.131, 5.855801
1060.614, 5.951132
1061.096, 6.105272
1061.578, 6.218292
1062.060, 6.092377
1062.542, 6.028660
1063.024, 6.456924
1063.506, 7.161819
1063.988, 7.528332
1064.471, 7.370916
1064.953, 7.272985
1065.435, 7.543362
1065.917, 7.804787
1066.399, 7.748234
1066.881, 7.703915
1067.363, 7.986782
1067.845, 8.530703
1068.328, 9.226074
1068.810, 10.06293
1069.292, 10.54783
1069.774, 10.09177
1070.256, 9.743753
1070.738, 10.08238
1071.220, 10.69842
1071.702, 11.38079
1072.184, 11.99995
1072.667, 12.30386
1073.149, 12.26553
1073.631, 12.38923
1074.113, 13.05752
1074.595, 13.71351
1075.077, 13.96946
1075.559, 14.21475
1076.041, 14.80570
1076.523, 15.60671
1077.006, 16.43772
1077.488, 17.22503
1077.970, 17.71919
1078.452, 17.56176
1078.934, 17.53426
1079.416, 18.11169
1079.898, 18.86159
1080.380, 19.56450
1080.863, 20.14962
1081.345, 20.45004
1081.827, 20.53162
1082.309, 20.84049
1082.791, 21.56952
1083.273, 22.48819
1083.755, 23.83622
1084.237, 24.95524
1084.719, 25.19306
1085.202, 25.05682
1085.684, 24.98664
1086.166, 25.15897
1086.648, 25.96307
1087.130, 27.78141
1087.612, 29.22124
1088.094, 29.44078
1088.576, 29.34974
1089.058, 29.18328
1089.541, 29.23801
1090.023, 30.02421
1090.505, 31.25039
1090.987, 32.05319
1091.469, 32.16989
1091.951, 32.27723
1092.433, 32.48188
1092.915, 32.94168
1093.397, 33.95861
1093.880, 35.06611
1094.362, 35.85460
1094.844, 36.41227
1095.326, 37.02046
1095.808, 37.73043
1096.290, 38.23135
1096.772, 38.20267
1097.254, 38.24292
1097.737, 38.76124
1098.219, 39.24855
1098.701, 39.14137
1099.183, 38.84002
1099.665, 39.05682
1100.147, 39.81618
1100.629, 40.41268
1101.111, 40.63469
1101.594, 40.70480
1102.076, 40.47469
1102.558, 40.34543
1103.040, 40.76331
1103.522, 41.25764
1104.004, 41.20110
1104.486, 40.66446
1104.968, 40.23334
1105.450, 40.07204
1105.932, 39.86058
1106.415, 39.48050
1106.897, 39.10673
1107.379, 38.84299
1107.861, 38.58669
1108.343, 38.15263
1108.825, 37.66294
1109.307, 37.55347
1109.789, 38.07015
1110.272, 38.02880
1110.754, 36.74213
1111.236, 35.65036
1111.718, 35.27697
1112.200, 35.03365
1112.682, 34.58375
1113.164, 33.98368
1113.646, 33.32637
1114.129, 32.60855
1114.611, 31.95801
1115.093, 31.54845
1115.575, 30.96509
1116.057, 29.76725
1116.539, 28.87423
1117.021, 29.02222
1117.503, 29.43863
1117.985, 29.17441
1118.468, 28.31903
1118.950, 27.57087
1119.432, 26.88534
1119.914, 26.33967
1120.396, 26.12477
1120.878, 25.77494
1121.360, 25.01822
1121.842, 24.18584
1122.324, 23.56808
1122.807, 23.12592
1123.289, 22.72069
1123.771, 22.38380
1124.253, 22.01895
1124.735, 21.64548
1125.217, 21.14061
1125.699, 20.37220
1126.181, 19.70033
1126.664, 19.35986
1127.146, 19.27374
1127.628, 19.39304
1128.110, 19.67253
1128.592, 19.16796
1129.074, 17.69109
1129.556, 16.52567
1130.038, 15.81350
1130.521, 15.53327
1131.003, 15.79182
1131.485, 15.98201
1131.967, 15.38219
1132.449, 14.24727
1132.931, 13.39585
1133.413, 12.83197
1133.895, 12.73807
1134.377, 13.12101
1134.859, 13.19893
1135.342, 12.74758
1135.824, 12.22240
1136.306, 11.95236
1136.788, 11.82235
1137.270, 11.68907
1137.752, 11.50683
1138.234, 10.97551
1138.716, 10.16923
1139.199, 9.529606
1139.681, 9.136553
1140.163, 9.000303
1140.645, 9.120499
1141.127, 9.235395
1141.609, 9.059523
1142.091, 8.676683
1142.573, 8.121771
1143.056, 7.548027
1143.538, 7.439194
1144.020, 7.668257
1144.502, 7.619806
1144.984, 7.162184
1145.466, 6.714952
1145.948, 6.562227
1146.430, 6.554033
1146.912, 6.602182
1147.395, 6.610628
1147.877, 6.482233
1148.359, 6.221725
1148.841, 5.722383
1149.323, 5.096889
1149.805, 4.730892
1150.287, 4.781570
1150.769, 4.907413
1151.251, 4.948601
1151.734, 4.871817
1152.216, 4.581160
1152.698, 4.235064
1153.180, 3.911148
1153.662, 3.698204
1154.144, 3.855959
1154.626, 4.340733
1155.108, 4.455908
1155.591, 3.699982
1156.073, 3.035744
1156.555, 2.859217
1157.037, 2.864653
1157.519, 3.030193
1158.001, 3.155592
1158.483, 2.977989
1158.965, 2.581419
1159.448, 2.282185
1159.930, 2.135065
1160.412, 2.031710
1160.894, 2.031199
1161.376, 1.967382
1161.858, 1.775873
1162.340, 1.539400
1162.822, 1.182171
1163.304, 0.8889810
1163.786, 1.000557
1164.269, 1.499454
1164.751, 1.777050
1165.233, 1.853680
1165.715, 1.611001
1166.197, 0.7943770
1166.679, 0.2754590
1167.161, 0.4947910
1167.643, 0.7980500
1168.126, 0.5575230
1168.608, 5.5799000E-02
1169.090, 9.9476002E-02
1169.572, 0.7315030
1170.054, 0.9068650
1170.536, 0.5745900
1171.018, 0.2825100
1171.500, 0.1338650
1171.983, 2.0610001E-03
1172.465, 0.1863580
1172.947, 0.3221540
1173.429, 0.2369320
1173.911, 2.8359000E-02
1174.393, 2.8623000E-02
1174.875, 5.3911999E-02
1175.357, 0.3110970
1175.839, 0.6718320
1176.322, 0.6781890
1176.804, 0.2596080
1177.286, 3.9721001E-02
1177.768, 0.1494120
1178.250, 0.4453090
1178.732, 0.3576510
1179.214, 8.6303003E-02
1179.696, 0.1306730
1180.178, 0.2469300
1180.661, 0.1305970
1181.143, 0.1526060
1181.625, 0.4152250
1182.107, 0.5888440
1182.589, 0.6372240
1183.071, 0.4637100
1183.553, 0.2910940
1184.035, 0.3092340
1184.518, 0.3738510
1185.000, 0.3954220
1185.482, 0.3562270
1185.964, 0.1926220
1186.446, 4.4397999E-02
1186.928, 0.1728790
1187.410, 0.1420010
1187.892, 4.9400002E-02
1188.375, 0.1600200
1188.857, 0.3136760
1189.339, 0.3108820
1189.821, 0.2796140
1190.303, 0.3477570
1190.785, 0.4167790
1191.267, 0.3013250
1191.749, 1.8523000E-02
1192.231, 0.1922990
1192.714, 0.3480770
1193.196, 0.3848920
1193.678, 0.2388530
1194.160, 0.1152670
1194.642, 6.7261003E-02
1195.124, 6.8847999E-02
1195.606, 9.3579002E-02
1196.088, 0.1704360
1196.570, 0.3887420
1197.053, 0.7251700
1197.535, 0.7689480
1198.017, 0.5115740
1198.499, 0.3499390
1198.981, 0.3316680
1199.463, 0.4241640
1199.945, 0.6165620
1200.427, 0.7721760
1200.910, 0.7630730
1201.392, 0.6783940
1201.874, 0.7040480
1202.356, 0.7664310
1202.838, 0.6560030
1203.320, 0.4237850
1203.802, 0.1441680
1204.284, 0.1001730
1204.766, 8.2580000E-03
1205.249, 0.5164690
1205.731, 0.9410750
1206.213, 0.8014500
1206.695, 0.4934570
1207.177, 0.2703360
1207.659, 0.1376150
1208.141, 8.9410000E-02
1208.623, 0.1422760
1209.105, 0.4117920
1209.588, 0.8145390
1210.070, 0.9939250
1210.552, 0.8108280
1211.034, 0.6280240
1211.516, 0.4457410
1211.998, 0.4200890
1212.480, 0.8320100
1212.962, 1.171596
1213.445, 0.9982310
1213.927, 0.6189210
1214.409, 0.4925410
1214.891, 0.5884680
1215.373, 0.6356070
1215.855, 0.6036900
1216.337, 0.6089490
1216.819, 0.6850780
1217.302, 0.7876800
1217.784, 0.9160160
1218.266, 1.069232
1218.748, 1.263886
1219.230, 1.413611
1219.712, 1.354980
1220.194, 1.157955
1220.676, 1.172685
1221.158, 1.359898
1221.641, 1.395734
1222.123, 1.286209
1222.605, 1.277244
1223.087, 1.426501
1223.569, 1.553102
1224.051, 1.600110
1224.533, 1.596235
1225.015, 1.419292
1225.497, 1.272820
1225.979, 1.552538
1226.462, 1.840282
1226.944, 1.606767
1227.426, 1.067929
1227.908, 0.9151660
1228.390, 1.243710
1228.872, 1.448134
1229.354, 1.090864
1229.836, 0.8503410
1230.319, 1.188741
1230.801, 1.588206
1231.283, 1.809334
1231.765, 1.839233
1232.247, 1.653056
1232.729, 1.344843
1233.211, 1.197290
1233.693, 1.169762
1234.176, 1.187664
1234.658, 1.247759
1235.140, 1.415869
1235.622, 1.806476
1236.104, 2.046496
1236.586, 1.988464
1237.068, 1.805509
1237.550, 1.586840
1238.032, 1.350380
1238.515, 1.139106
1238.997, 0.9321240
1239.479, 0.8723960
1239.961, 1.056279
1240.443, 1.006333
1240.925, 0.7214310
1241.407, 0.7423730
1241.889, 1.252571
1242.371, 1.753776
1242.854, 1.908966
1243.336, 1.843791
1243.818, 1.530169
1244.300, 1.154531
1244.782, 1.058747
1245.264, 1.084688
1245.746, 1.071379
1246.228, 1.014520
1246.711, 0.9225970
1247.193, 0.7891640
1247.675, 0.7027310
1248.157, 0.6923440
1248.639, 0.7264270
1249.121, 0.8675510
1249.603, 0.9757180
1250.085, 1.030711
1250.568, 1.019801
1251.050, 0.8395500
1251.532, 0.6345740
1252.014, 0.4564290
1252.496, 0.3550900
1252.978, 0.6042820
1253.460, 1.303110
1253.942, 1.580208
1254.424, 1.357574
1254.906, 1.211536
1255.389, 1.297580
1255.871, 1.252100
1256.353, 0.8327740
1256.835, 0.3836870
1257.317, 0.4051600
1257.799, 0.6555030
1258.281, 0.6879510
1258.763, 0.6237270
1259.246, 0.7836340
1259.728, 1.063113
1260.210, 1.133075
1260.692, 0.9781970
1261.174, 0.8603460
1261.656, 0.9015080
1262.138, 0.8837070
1262.620, 0.5784990
1263.103, 0.3425280
1263.585, 0.3651290
1264.067, 0.5001090
1264.549, 0.7428860
1265.031, 0.9540790
1265.513, 0.9078610
1265.995, 0.6761790
1266.477, 0.5985670
1266.959, 0.7517570
1267.442, 0.6453650
1267.924, 0.1286870
1268.406, 4.9315002E-02
1268.888, 0.2938870
1269.370, 0.6529580
1269.852, 0.8226770
1270.334, 0.7811310
1270.816, 0.4689500
1271.298, 5.2241001E-02
1271.781, 2.6293000E-02
1272.263, 0.2171690
1272.745, 0.1674290
1273.227, 2.1629999E-03
1273.709, 0.0000000E+00
##END=



