##NAMES=Anapaite
##RRUFFID=R050510
##IDEAL CHEMISTRY=Ca_2_Fe^2+^(PO_4_)_2_&#183;4H_2_O
##LOCALITY=Prats-Sampsor, Spain
##OWNER=RRUFF
##SOURCE=University of Arizona Mineral Museum
##DESCRIPTION=Pale green tabular crystals lining fractured rock
##STATUS=The identification of this mineral has been confirmed by X-ray diffraction and chemical analysis
##URL=rruff.info/R050510
##MEASURED CHEMISTRY=Ca_2.00_(Fe^2+^_0.93_Mn_0.07_)_Σ=1_(P_1.00_O_4_)_2_·4H_2_O; (lighter phase)
100.5729, 0.0000000E+00
101.0551, 4.157715
101.5372, 7.190674
102.0193, 4.278076
102.5014, 3.2349002E-02
102.9835, 0.1761470
103.4656, 1.462646
103.9478, 3.331055
104.4299, 6.223999
104.9120, 9.086426
105.3941, 11.49988
105.8762, 12.57129
106.3583, 15.58569
106.8405, 21.63123
107.3226, 29.18860
107.8047, 39.06934
108.2868, 50.68445
108.7689, 60.67682
109.2510, 67.12610
109.7332, 72.75830
110.2153, 76.63409
110.6974, 70.99261
111.1795, 61.45966
111.6616, 50.49701
112.1437, 37.82660
112.6259, 26.77045
113.1080, 20.45300
113.5901, 18.20648
114.0722, 16.99506
114.5543, 14.77307
115.0364, 11.82959
115.5185, 10.08600
116.0007, 11.86511
116.4828, 13.64874
116.9649, 13.03406
117.4470, 9.593018
117.9291, 4.835510
118.4112, 0.5083620
118.8934, 4.253967
119.3755, 6.135925
119.8576, 3.341431
120.3397, 1.126282
120.8218, 5.234741
121.3039, 8.134766
121.7861, 9.948547
122.2682, 11.05139
122.7503, 11.34723
123.2324, 10.84583
123.7145, 8.764526
124.1966, 5.991760
124.6788, 3.785583
125.1609, 2.875061
125.6430, 3.135498
126.1251, 3.488281
126.6072, 3.504395
127.0893, 3.977783
127.5715, 5.508972
128.0536, 7.927368
128.5357, 10.31000
129.0178, 11.85492
129.4999, 12.83063
129.9821, 14.62982
130.4642, 18.36920
130.9463, 22.22516
131.4284, 24.20447
131.9105, 23.93097
132.3926, 22.95978
132.8748, 21.79266
133.3569, 20.79083
133.8390, 20.92389
134.3211, 23.31415
134.8032, 27.27014
135.2853, 30.38342
135.7674, 32.06757
136.2496, 33.64355
136.7317, 35.83282
137.2138, 38.48669
137.6959, 41.24274
138.1780, 44.24414
138.6601, 47.67212
139.1423, 49.17706
139.6244, 45.89587
140.1065, 43.01495
140.5886, 42.39520
141.0707, 44.16498
141.5528, 47.48438
142.0350, 51.50281
142.5171, 56.65167
142.9992, 61.42340
143.4813, 64.45404
143.9634, 68.04016
144.4455, 73.55225
144.9277, 81.36304
145.4098, 91.26959
145.8919, 103.1489
146.3740, 118.8048
146.8561, 133.1448
147.3382, 148.8361
147.8204, 162.2693
148.3025, 168.8477
148.7846, 166.7400
149.2667, 157.9050
149.7488, 144.3717
150.2309, 124.2534
150.7131, 106.4777
151.1952, 94.57874
151.6773, 87.67554
152.1594, 83.36780
152.6415, 81.35956
153.1236, 81.21497
153.6058, 82.52802
154.0879, 86.39062
154.5700, 88.37177
155.0521, 84.31854
155.5342, 74.06189
156.0163, 62.36279
156.4985, 48.95148
156.9806, 35.94958
157.4627, 25.00732
157.9448, 16.48212
158.4269, 10.93884
158.9090, 7.663513
159.3912, 7.458801
159.8733, 7.674622
160.3554, 8.184326
160.8375, 8.545837
161.3196, 8.107178
161.8017, 6.511597
162.2839, 4.399414
162.7660, 3.704468
163.2481, 5.577271
163.7302, 7.445251
164.2123, 8.950562
164.6944, 10.25323
165.1766, 11.60956
165.6587, 13.19269
166.1408, 14.88617
166.6229, 15.91272
167.1050, 14.91504
167.5871, 14.71338
168.0693, 16.55444
168.5514, 19.65100
169.0335, 22.56256
169.5156, 24.46399
169.9977, 25.29077
170.4798, 24.29474
170.9620, 20.36060
171.4441, 16.13824
171.9262, 12.47968
172.4083, 9.472778
172.8904, 7.206543
173.3725, 5.880005
173.8547, 5.543945
174.3368, 5.390137
174.8189, 5.324402
175.3010, 5.442993
175.7831, 5.935791
176.2652, 6.761353
176.7474, 7.231567
177.2295, 6.737427
177.7116, 6.068909
178.1937, 6.571045
178.6758, 9.133545
179.1579, 12.49603
179.6401, 14.76947
180.1222, 15.57269
180.6043, 16.32935
181.0864, 17.70905
181.5685, 19.63123
182.0506, 22.12378
182.5328, 25.70227
183.0149, 29.81818
183.4970, 32.87646
183.9791, 35.18622
184.4612, 35.65393
184.9433, 33.62720
185.4255, 29.82483
185.9076, 25.32825
186.3897, 20.48029
186.8718, 15.40784
187.3539, 11.74664
187.8360, 10.15436
188.3182, 9.492676
188.8003, 9.820251
189.2824, 10.80328
189.7645, 11.85944
190.2466, 12.45734
190.7287, 12.54742
191.2109, 13.44885
191.6930, 16.22821
192.1751, 18.81171
192.6572, 20.26996
193.1393, 20.88739
193.6214, 21.53278
194.1036, 22.80719
194.5857, 24.56122
195.0678, 27.85669
195.5499, 32.90900
196.0320, 39.06049
196.5141, 46.56561
196.9963, 54.95294
197.4784, 63.13861
197.9605, 70.25598
198.4426, 76.24792
198.9247, 81.44427
199.4068, 86.60870
199.8890, 90.54877
200.3711, 92.39435
200.8532, 92.07056
201.3353, 90.18945
201.8174, 87.39398
202.2995, 83.47443
202.7817, 77.38922
203.2638, 66.03455
203.7459, 54.29449
204.2280, 47.22321
204.7101, 45.47925
205.1922, 45.18481
205.6744, 42.85815
206.1565, 38.95428
206.6386, 35.67340
207.1207, 33.81006
207.6028, 32.67194
208.0849, 31.00146
208.5671, 28.32251
209.0492, 26.58319
209.5313, 28.37781
210.0134, 32.33783
210.4955, 35.64111
210.9776, 36.56036
211.4598, 36.21100
211.9419, 37.08325
212.4240, 39.45544
212.9061, 42.58972
213.3882, 45.78491
213.8703, 49.32233
214.3525, 53.87048
214.8346, 60.28113
215.3167, 67.95929
215.7988, 74.70154
216.2809, 80.61932
216.7630, 85.20355
217.2451, 88.31940
217.7273, 90.20337
218.2094, 91.27295
218.6915, 91.74786
219.1736, 91.61365
219.6557, 90.75751
220.1378, 88.91150
220.6200, 86.56622
221.1021, 84.39978
221.5842, 81.84930
222.0663, 77.74518
222.5484, 70.93677
223.0305, 61.90814
223.5127, 55.31262
223.9948, 53.03546
224.4769, 51.54340
224.9590, 50.32654
225.4411, 49.35840
225.9232, 48.78583
226.4054, 48.75244
226.8875, 49.18964
227.3696, 49.23828
227.8517, 48.56818
228.3338, 47.84790
228.8159, 46.97943
229.2981, 46.17810
229.7802, 45.94714
230.2623, 46.71240
230.7444, 48.27356
231.2265, 48.24463
231.7086, 46.08289
232.1908, 43.10077
232.6729, 38.87201
233.1550, 34.05920
233.6371, 29.67975
234.1192, 26.26489
234.6013, 23.88446
235.0835, 23.26642
235.5656, 26.04089
236.0477, 28.42163
236.5298, 28.85455
237.0119, 28.02692
237.4940, 27.54810
237.9762, 28.35156
238.4583, 30.15155
238.9404, 31.60211
239.4225, 32.71832
239.9046, 33.54950
240.3867, 33.87909
240.8689, 33.90997
241.3510, 34.28705
241.8331, 35.57239
242.3152, 37.12073
242.7973, 37.02606
243.2794, 34.70569
243.7616, 32.01776
244.2437, 29.58191
244.7258, 27.38477
245.2079, 25.46106
245.6900, 23.99512
246.1721, 22.61090
246.6543, 20.53186
247.1364, 17.61725
247.6185, 14.53455
248.1006, 11.43616
248.5827, 8.407715
249.0648, 5.704163
249.5470, 3.392944
250.0291, 1.482788
250.5112, 0.1691280
250.9933, 1.642151
251.4754, 2.566223
251.9576, 2.169006
252.4397, 0.8751220
252.9218, 0.7389530
253.4039, 3.102783
253.8860, 5.771851
254.3681, 6.180237
254.8503, 4.349121
255.3324, 2.436523
255.8145, 1.756592
256.2966, 2.128174
256.7787, 2.708740
257.2608, 3.662476
257.7430, 4.364319
258.2251, 4.471436
258.7072, 3.981262
259.1893, 2.889954
259.6714, 0.8703000
260.1535, 1.882507
260.6357, 4.329285
261.1178, 6.554077
261.5999, 8.145752
262.0820, 8.596436
262.5641, 8.243164
263.0462, 8.115112
263.5284, 9.201599
264.0105, 11.20966
264.4926, 12.33038
264.9747, 11.91858
265.4568, 11.49774
265.9389, 12.34241
266.4211, 13.72577
266.9032, 14.04333
267.3853, 11.56146
267.8674, 7.301514
268.3495, 6.070862
268.8316, 10.52704
269.3138, 14.00946
269.7959, 13.44379
270.2780, 10.58905
270.7601, 8.054688
271.2422, 7.253784
271.7243, 7.687378
272.2065, 7.552917
272.6886, 5.693909
273.1707, 5.352539
273.6528, 8.074707
274.1349, 12.28137
274.6170, 16.33771
275.0992, 19.60162
275.5813, 21.99786
276.0634, 23.06897
276.5455, 21.46741
277.0276, 21.12500
277.5097, 23.45728
277.9919, 26.77887
278.4740, 29.46997
278.9561, 30.96509
279.4382, 31.97650
279.9203, 33.99176
280.4024, 37.87823
280.8846, 40.88159
281.3667, 42.12335
281.8488, 42.91608
282.3309, 44.22491
282.8130, 46.28351
283.2951, 48.65155
283.7773, 50.69012
284.2594, 52.28705
284.7415, 53.81476
285.2236, 55.88794
285.7057, 57.46149
286.1878, 57.80084
286.6700, 56.88519
287.1521, 55.28851
287.6342, 53.69568
288.1163, 52.32568
288.5984, 50.07770
289.0805, 45.67401
289.5627, 41.60083
290.0448, 39.18304
290.5269, 38.22791
291.0090, 37.65857
291.4911, 36.48206
291.9732, 34.62781
292.4554, 33.08020
292.9375, 31.59106
293.4196, 30.63702
293.9017, 30.94153
294.3838, 31.92737
294.8659, 32.37524
295.3481, 31.35535
295.8302, 28.99719
296.3123, 27.11188
296.7944, 25.94769
297.2765, 25.02637
297.7586, 24.60779
298.2408, 24.31616
298.7229, 23.55066
299.2050, 21.95734
299.6871, 19.81702
300.1692, 18.23077
300.6513, 18.28955
301.1335, 17.58954
301.6156, 15.18487
302.0977, 12.24597
302.5798, 10.10480
303.0619, 9.286438
303.5440, 9.203918
304.0262, 8.585632
304.5083, 6.772583
304.9904, 5.419800
305.4725, 4.593933
305.9546, 4.164551
306.4367, 4.156616
306.9189, 4.519348
307.4010, 4.965210
307.8831, 5.065613
308.3652, 4.572632
308.8473, 4.300903
309.3294, 4.718933
309.8116, 4.997925
310.2937, 4.185913
310.7758, 2.539795
311.2579, 1.568054
311.7400, 3.076965
312.2221, 7.829163
312.7043, 10.70679
313.1864, 10.32520
313.6685, 9.676819
314.1506, 9.879395
314.6327, 10.77118
315.1148, 11.65717
315.5970, 12.09906
316.0791, 12.16663
316.5612, 12.63452
317.0433, 13.71552
317.5254, 14.90173
318.0075, 16.29047
318.4897, 17.70380
318.9718, 18.68976
319.4539, 18.89111
319.9360, 18.61688
320.4181, 19.34741
320.9002, 22.80951
321.3824, 25.23364
321.8645, 25.40015
322.3466, 24.86725
322.8287, 25.41998
323.3108, 27.60980
323.7929, 30.57098
324.2751, 32.72986
324.7572, 33.05817
325.2393, 34.66479
325.7214, 38.43396
326.2035, 42.55109
326.6856, 46.05457
327.1678, 48.75439
327.6499, 51.01746
328.1320, 53.06396
328.6141, 54.74799
329.0962, 56.25659
329.5783, 57.08533
330.0605, 58.26984
330.5426, 61.00696
331.0247, 64.62744
331.5068, 67.33948
331.9889, 67.62024
332.4710, 65.48767
332.9532, 63.27136
333.4353, 60.76117
333.9174, 58.45374
334.3995, 56.26556
334.8816, 54.37463
335.3637, 53.09698
335.8459, 52.61542
336.3280, 52.71814
336.8101, 52.82581
337.2922, 53.25012
337.7743, 53.18262
338.2564, 52.13184
338.7386, 50.86292
339.2206, 50.16797
339.7028, 50.25171
340.1849, 50.49823
340.6670, 49.82147
341.1491, 47.42078
341.6312, 46.13452
342.1133, 46.84241
342.5955, 47.78290
343.0776, 47.83258
343.5597, 47.08899
344.0418, 46.46185
344.5239, 46.79071
345.0060, 48.10931
345.4882, 49.79089
345.9703, 53.23596
346.4524, 55.64343
346.9345, 55.40668
347.4166, 53.65411
347.8987, 52.45844
348.3809, 53.15057
348.8630, 55.23724
349.3451, 56.75970
349.8272, 57.90485
350.3093, 58.07544
350.7914, 56.88885
351.2736, 54.94122
351.7557, 52.71741
352.2378, 50.38538
352.7199, 48.06158
353.2020, 45.94751
353.6841, 44.06067
354.1663, 42.32660
354.6484, 41.29749
355.1305, 39.98468
355.6126, 37.47955
356.0947, 33.90088
356.5768, 30.39972
357.0590, 28.08667
357.5411, 27.01080
358.0232, 26.35291
358.5053, 27.63208
358.9874, 27.54291
359.4695, 23.37738
359.9517, 16.93622
360.4338, 12.00922
360.9159, 11.22766
361.3980, 13.23090
361.8801, 13.78094
362.3622, 12.30566
362.8444, 10.59998
363.3265, 9.179932
363.8086, 7.923950
364.2907, 6.749634
364.7728, 5.645142
365.2549, 4.494385
365.7371, 2.852356
366.2192, 0.5410160
366.7013, 0.6668700
367.1834, 0.5230100
367.6655, 2.291077
368.1476, 3.437073
368.6298, 3.888916
369.1119, 3.907043
369.5940, 3.465271
370.0761, 2.691284
370.5582, 2.280945
371.0403, 2.603821
371.5225, 2.719543
372.0046, 1.759521
372.4867, 0.1259160
372.9688, 1.297363
373.4509, 2.285583
373.9330, 2.806641
374.4152, 2.565369
374.8973, 1.437805
375.3794, 0.6478880
375.8615, 1.330261
376.3436, 2.473999
376.8257, 2.400208
377.3079, 0.4404300
377.7900, 1.428589
378.2721, 1.367859
378.7542, 0.1292110
379.2363, 0.8118900
379.7184, 0.2012330
380.2006, 1.814819
380.6827, 2.773438
381.1648, 3.126160
381.6469, 2.914978
382.1290, 1.487915
382.6111, 0.2304690
383.0933, 0.6572270
383.5754, 0.4525150
384.0575, 1.441528
384.5396, 0.7266240
385.0217, 1.407288
385.5038, 2.550842
385.9860, 1.953552
386.4681, 0.9570920
386.9502, 0.1033940
387.4323, 0.5219730
387.9144, 0.5503540
388.3965, 0.3848880
388.8787, 1.719727
389.3608, 1.829834
389.8429, 2.1300999E-02
390.3250, 1.306152
390.8071, 1.240662
391.2892, 0.6169430
391.7714, 0.4248660
392.2535, 0.8867190
392.7356, 1.665344
393.2177, 2.457397
393.6998, 3.373840
394.1819, 3.549561
394.6641, 2.209229
395.1462, 0.8880620
395.6283, 9.8266996E-02
396.1104, 3.2776002E-02
396.5925, 1.173889
397.0746, 4.012146
397.5568, 8.068481
398.0389, 10.71826
398.5210, 10.52441
399.0031, 10.59723
399.4852, 11.94098
399.9673, 13.41901
400.4495, 13.43756
400.9316, 11.60657
401.4137, 9.341736
401.8958, 8.871094
402.3779, 10.92371
402.8600, 12.84363
403.3422, 15.13342
403.8243, 16.87848
404.3064, 17.03113
404.7885, 16.12360
405.2706, 15.80621
405.7527, 17.53870
406.2349, 20.94336
406.7170, 22.88721
407.1991, 22.14673
407.6812, 21.62201
408.1633, 21.96368
408.6454, 22.87311
409.1276, 24.06879
409.6097, 25.45465
410.0918, 26.94159
410.5739, 28.56049
411.0560, 30.46527
411.5381, 31.63788
412.0203, 30.61267
412.5024, 29.92273
412.9845, 30.94489
413.4666, 33.64856
413.9487, 37.36182
414.4308, 42.16949
414.9130, 47.67432
415.3951, 52.23383
415.8772, 55.43097
416.3593, 58.70056
416.8414, 63.44464
417.3235, 68.57471
417.8057, 72.48767
418.2878, 74.44751
418.7699, 75.80219
419.2520, 77.41632
419.7341, 79.37823
420.2162, 82.62250
420.6984, 87.60852
421.1805, 93.79498
421.6626, 100.6345
422.1447, 108.1759
422.6268, 115.5172
423.1089, 122.8209
423.5911, 129.5220
424.0732, 134.0681
424.5553, 136.1987
425.0374, 139.4553
425.5195, 146.5566
426.0016, 157.1930
426.4838, 167.8260
426.9659, 179.5249
427.4480, 190.1035
427.9301, 198.0477
428.4122, 204.1728
428.8943, 210.2274
429.3765, 216.9457
429.8586, 223.5839
430.3407, 228.9534
430.8228, 233.3527
431.3049, 235.1498
431.7870, 232.6640
432.2692, 228.9249
432.7513, 225.9746
433.2334, 223.9427
433.7155, 221.9726
434.1976, 219.4538
434.6797, 216.4854
435.1619, 213.4388
435.6440, 209.8883
436.1261, 206.5173
436.6082, 203.2686
437.0903, 200.2780
437.5724, 197.7349
438.0546, 195.6471
438.5367, 194.0640
439.0188, 193.1545
439.5009, 193.0909
439.9830, 193.1329
440.4651, 193.8614
440.9473, 194.1386
441.4294, 193.4575
441.9115, 191.8856
442.3936, 189.9058
442.8757, 187.8509
443.3578, 185.3698
443.8400, 181.3638
444.3221, 175.2551
444.8042, 169.3072
445.2863, 164.4509
445.7684, 160.0294
446.2505, 155.8309
446.7327, 151.7430
447.2148, 146.5009
447.6969, 138.1888
448.1790, 127.4064
448.6611, 117.7783
449.1432, 109.9557
449.6254, 103.2171
450.1075, 97.17432
450.5896, 91.72314
451.0717, 86.65460
451.5538, 81.93652
452.0359, 77.53998
452.5181, 73.74054
453.0002, 70.43542
453.4823, 66.67505
453.9644, 61.75275
454.4465, 56.50671
454.9286, 52.80341
455.4108, 50.81433
455.8929, 49.17798
456.3750, 47.96277
456.8571, 46.85382
457.3392, 45.36578
457.8214, 43.29150
458.3035, 40.81122
458.7856, 37.79504
459.2677, 34.21844
459.7498, 32.10876
460.2319, 33.05139
460.7141, 33.39423
461.1962, 31.41339
461.6783, 28.46075
462.1604, 26.54724
462.6425, 26.40851
463.1246, 27.14246
463.6068, 27.31293
464.0889, 26.88318
464.5710, 26.08234
465.0531, 24.86987
465.5352, 23.35815
466.0173, 21.09064
466.4995, 18.53351
466.9816, 16.85193
467.4637, 17.02008
467.9458, 18.35059
468.4279, 18.51672
468.9100, 16.92639
469.3922, 15.71289
469.8743, 15.99298
470.3564, 16.59888
470.8385, 16.55151
471.3206, 15.70935
471.8027, 14.74438
472.2849, 14.08234
472.7670, 13.70544
473.2491, 13.70337
473.7312, 14.30133
474.2133, 14.62372
474.6954, 13.64429
475.1776, 11.92371
475.6597, 10.78351
476.1418, 10.66656
476.6239, 10.89612
477.1060, 11.12292
477.5881, 11.33014
478.0703, 11.47583
478.5524, 11.55365
479.0345, 11.55225
479.5166, 11.53247
479.9987, 11.61688
480.4808, 11.02606
480.9630, 8.621765
481.4451, 6.451721
481.9272, 6.171204
482.4093, 7.429932
482.8914, 8.820862
483.3735, 9.508179
483.8557, 9.696533
484.3378, 10.15381
484.8199, 11.94421
485.3020, 12.40070
485.7841, 10.25165
486.2662, 7.613342
486.7484, 6.034119
487.2305, 5.710449
487.7126, 6.060547
488.1947, 6.776428
488.6768, 7.775513
489.1589, 7.676392
489.6411, 5.368103
490.1232, 3.727844
490.6053, 4.008057
491.0874, 5.175598
491.5695, 6.191345
492.0516, 6.794250
492.5338, 6.927002
493.0159, 6.237244
493.4980, 4.859619
493.9801, 4.072693
494.4622, 4.283936
494.9443, 4.701477
495.4265, 4.780945
495.9086, 4.567871
496.3907, 4.116943
496.8728, 3.400818
497.3549, 2.488342
497.8370, 1.284363
498.3192, 9.8938003E-02
498.8013, 1.309631
499.2834, 2.279724
499.7655, 2.819946
500.2476, 2.528137
500.7297, 1.131958
501.2119, 0.1215820
501.6940, 1.606445
502.1761, 2.553467
502.6582, 1.732422
503.1403, 0.2188720
503.6224, 1.092651
504.1045, 0.6420900
504.5866, 3.986938
505.0688, 5.268066
505.5509, 2.507874
506.0330, 0.7589110
506.5151, 1.121399
506.9972, 1.906189
507.4793, 1.855652
507.9615, 0.9187620
508.4436, 0.1651610
508.9257, 0.7667850
509.4078, 0.9854740
509.8899, 1.439087
510.3720, 2.327881
510.8542, 3.018921
511.3363, 3.548584
511.8184, 3.632935
512.3005, 2.602783
512.7827, 0.1995240
513.2648, 1.730286
513.7469, 1.085632
514.2290, 1.116150
514.7111, 1.635132
515.1932, 0.2559810
515.6754, 2.281006
516.1575, 2.676697
516.6396, 1.717407
517.1217, 0.9312740
517.6038, 0.4560550
518.0859, 5.9875000E-02
518.5681, 0.4552610
519.0502, 0.9346310
519.5323, 1.145813
520.0144, 1.021240
520.4965, 0.5140990
520.9786, 0.5598750
521.4608, 2.462280
521.9429, 3.299988
522.4250, 2.242371
522.9071, 1.209045
523.3892, 0.6135860
523.8713, 0.5635380
524.3535, 1.475647
524.8356, 3.489563
525.3177, 5.487488
525.7998, 5.225098
526.2819, 1.984131
526.7640, 8.3130002E-02
527.2462, 0.5401610
527.7283, 1.661682
528.2104, 2.738831
528.6925, 3.825134
529.1746, 5.178772
529.6567, 7.103882
530.1389, 9.033447
530.6210, 10.22998
531.1031, 10.71179
531.5852, 10.72577
532.0673, 10.19202
532.5494, 9.449646
533.0316, 9.012695
533.5137, 8.862793
533.9958, 8.290588
534.4779, 6.080994
534.9600, 4.283020
535.4421, 4.977295
535.9243, 7.557861
536.4064, 9.869629
536.8885, 10.88727
537.3706, 11.01453
537.8527, 10.99927
538.3348, 10.01599
538.8170, 10.67432
539.2991, 14.12170
539.7812, 18.03937
540.2633, 21.09766
540.7454, 23.47925
541.2275, 26.02820
541.7097, 29.23700
542.1918, 33.00903
542.6739, 37.38251
543.1560, 43.02728
543.6381, 47.19409
544.1202, 48.97998
544.6024, 49.31604
545.0845, 48.41711
545.5666, 46.45502
546.0487, 44.09729
546.5308, 42.03009
547.0129, 39.59491
547.4951, 35.38831
547.9772, 29.45654
548.4593, 23.84100
548.9414, 19.45001
549.4235, 15.78723
549.9056, 11.72272
550.3878, 6.825562
550.8699, 3.759766
551.3520, 4.342102
551.8341, 5.967896
552.3162, 6.789673
552.7983, 6.702820
553.2805, 6.025146
553.7626, 4.878723
554.2447, 3.506470
554.7268, 2.618713
555.2089, 2.451416
555.6910, 2.368103
556.1732, 2.174377
556.6553, 2.078247
557.1374, 2.149841
557.6195, 2.481201
558.1016, 3.303589
558.5837, 4.944275
559.0659, 6.998657
559.5480, 8.585083
560.0301, 9.695740
560.5122, 10.05389
560.9943, 8.882141
561.4764, 7.471619
561.9586, 7.188599
562.4407, 7.914490
562.9228, 9.044006
563.4049, 10.60590
563.8870, 12.29272
564.3691, 13.79993
564.8513, 15.13538
565.3334, 16.40564
565.8155, 17.65674
566.2976, 18.83154
566.7797, 19.83405
567.2618, 20.25092
567.7440, 21.63367
568.2261, 24.69580
568.7082, 28.00690
