##NAMES=Anatase
##RRUFFID=R120013
##IDEAL CHEMISTRY=TiO_2_
##LOCALITY=Governor's Lake pegmatite, Halifax County, Nova Scotia, Canada
##OWNER=RRUFF
##SOURCE=Donald Doell
##DESCRIPTION=Black tabular crystals associated with metatorbernite R120014
##STATUS=The identification of this mineral has been confirmed by single-crystal X-ray diffraction.
##URL=rruff.info/R120013
160.8812, 0.0000000E+00
161.3633, 0.1381840
161.8455, 0.5873570
162.3276, 2.178940
162.8097, 6.895874
163.2918, 13.15498
163.7739, 20.58664
164.2560, 28.80078
164.7382, 37.81282
165.2203, 47.34425
165.7024, 56.71118
166.1845, 65.62961
166.6666, 74.14568
167.1487, 82.21060
167.6309, 90.42670
168.1130, 97.62836
168.5951, 102.8035
169.0772, 106.1243
169.5593, 108.5218
170.0414, 110.5101
170.5236, 111.8792
171.0057, 112.3426
171.4878, 111.3405
171.9699, 109.7688
172.4520, 108.2784
172.9341, 106.8554
173.4163, 105.4452
173.8984, 103.5345
174.3805, 101.6403
174.8626, 100.6637
175.3447, 101.2090
175.8268, 102.6508
176.3090, 104.3501
176.7911, 106.2880
177.2732, 108.5687
177.7553, 110.1605
178.2374, 110.5872
178.7195, 110.4126
179.2017, 108.8528
179.6838, 107.2644
180.1659, 107.8277
180.6480, 110.5993
181.1301, 114.6336
181.6122, 119.6865
182.0944, 125.4424
182.5765, 130.7300
183.0586, 135.0593
183.5407, 138.5907
184.0228, 141.7093
184.5049, 144.3587
184.9871, 146.9185
185.4692, 149.9408
185.9513, 153.3069
186.4334, 156.3239
186.9155, 158.6920
187.3976, 160.4713
187.8798, 161.7439
188.3619, 162.3946
188.8440, 162.9678
189.3261, 163.8996
189.8082, 165.2232
190.2903, 167.5549
190.7725, 171.4234
191.2546, 176.6888
191.7367, 182.0837
192.2188, 187.3266
192.7009, 193.2540
193.1830, 200.8379
193.6652, 210.0101
194.1473, 221.3664
194.6294, 235.1743
195.1115, 251.3830
195.5936, 269.4591
196.0757, 289.1118
196.5579, 310.9875
197.0400, 337.3219
197.5221, 368.5097
198.0042, 399.7346
198.4863, 429.8325
198.9684, 458.7800
199.4506, 483.7250
199.9327, 505.2791
200.4148, 521.8711
200.8969, 529.7582
201.3790, 528.7565
201.8611, 519.7386
202.3433, 501.6161
202.8254, 473.4135
203.3075, 441.9757
203.7896, 407.3315
204.2717, 370.7472
204.7538, 335.5827
205.2360, 301.9921
205.7181, 270.9124
206.2002, 242.8691
206.6823, 217.9634
207.1644, 196.0683
207.6465, 177.4333
208.1287, 161.7081
208.6108, 147.4923
209.0929, 134.8417
209.5750, 123.5515
210.0571, 113.6019
210.5392, 104.9552
211.0214, 97.09357
211.5035, 90.04846
211.9856, 83.84367
212.4677, 78.53949
212.9498, 74.60406
213.4319, 70.69272
213.9140, 65.64934
214.3962, 58.76387
214.8783, 53.25552
215.3604, 49.81374
215.8425, 47.95711
216.3246, 45.75716
216.8067, 42.99684
217.2889, 40.01222
217.7710, 36.86876
218.2531, 33.28751
218.7352, 30.06068
219.2173, 27.74400
219.6994, 26.21733
220.1816, 24.89787
220.6637, 23.98563
221.1458, 22.81825
221.6279, 20.80153
222.1100, 17.19536
222.5921, 14.67429
223.0743, 13.80043
223.5564, 14.19231
224.0385, 13.97102
224.5206, 12.90681
225.0027, 11.62798
225.4848, 10.51732
225.9670, 9.677475
226.4491, 8.785324
226.9312, 7.696838
227.4133, 6.504761
227.8954, 5.657730
228.3775, 5.314301
228.8597, 5.140335
229.3418, 4.964294
229.8239, 4.827225
230.3060, 4.581238
230.7881, 4.167007
231.2702, 3.623795
231.7524, 3.198593
232.2345, 2.999374
232.7166, 2.770340
233.1987, 2.351959
233.6808, 1.620865
234.1629, 0.9709010
234.6451, 0.4383540
235.1272, 5.3399999E-04
235.6093, 0.4741210
236.0914, 1.076035
236.5735, 1.597519
237.0556, 1.883316
237.5378, 1.717865
238.0199, 1.787323
238.5020, 2.217148
238.9841, 2.909103
239.4662, 3.459183
239.9483, 3.915329
240.4305, 4.157913
240.9126, 4.033981
241.3947, 3.070908
241.8768, 2.826202
242.3589, 3.780396
242.8410, 5.471176
243.3232, 6.223236
243.8053, 5.505692
244.2874, 4.572083
244.7695, 4.034836
245.2516, 3.986191
245.7337, 4.168808
246.2159, 4.820465
246.6980, 5.675262
247.1801, 5.782089
247.6622, 4.639297
248.1443, 3.520020
248.6264, 3.092239
249.1086, 3.791763
249.5907, 4.121063
250.0728, 3.914124
250.5549, 3.362183
251.0370, 2.963303
251.5191, 2.732437
252.0013, 2.624573
252.4834, 2.624298
252.9655, 2.732147
253.4476, 2.950104
253.9297, 3.393295
254.4118, 3.891800
254.8940, 4.063293
255.3761, 3.779602
255.8582, 3.397186
256.3403, 3.055969
256.8224, 2.770798
257.3046, 2.507889
257.7867, 2.351532
258.2688, 2.171356
258.7509, 1.663574
259.2330, 0.6524050
259.7151, 0.3176120
260.1973, 1.047684
260.6794, 1.503433
261.1615, 1.821808
261.6436, 1.934967
262.1257, 1.968994
262.6078, 2.164459
263.0900, 2.623474
263.5721, 3.008057
264.0542, 3.189590
264.5363, 3.139725
265.0184, 3.092270
265.5005, 3.042709
265.9827, 3.001282
266.4648, 2.964508
266.9469, 2.907928
267.4290, 2.936600
267.9111, 3.103806
268.3932, 3.420029
268.8754, 3.727982
269.3575, 4.082901
269.8396, 4.339615
270.3217, 4.211349
270.8038, 3.532608
271.2859, 3.109955
271.7681, 3.247818
272.2502, 3.919647
272.7323, 4.421890
273.2144, 4.736465
273.6965, 4.901535
274.1786, 4.914215
274.6608, 4.736679
275.1429, 4.619354
275.6250, 4.665756
276.1071, 4.838135
276.5892, 4.795181
277.0714, 4.465881
277.5535, 4.130493
278.0356, 4.056183
278.5177, 4.259460
278.9998, 4.562500
279.4819, 4.999115
279.9641, 5.494080
280.4462, 5.686386
280.9283, 5.539459
281.4104, 5.244217
281.8925, 4.928360
282.3746, 4.592270
282.8568, 4.228561
283.3389, 3.771225
283.8210, 3.341232
284.3031, 3.351685
284.7852, 3.852737
285.2673, 4.403000
285.7495, 4.685349
286.2316, 4.722107
286.7137, 4.764374
287.1958, 4.840652
287.6779, 4.946457
288.1600, 5.073944
288.6422, 5.222977
289.1243, 5.386459
289.6064, 5.556992
290.0885, 5.733841
290.5706, 5.919464
291.0527, 6.118118
291.5349, 6.304749
292.0170, 6.377258
292.4991, 6.352341
292.9812, 6.449692
293.4633, 6.856171
293.9454, 7.468216
294.4276, 8.030502
294.9097, 8.557587
295.3918, 8.941193
295.8739, 8.899139
296.3560, 8.497284
296.8381, 8.113083
297.3203, 7.855499
297.8024, 7.766983
298.2845, 8.070786
298.7666, 8.840668
299.2487, 9.589249
299.7308, 9.616379
300.2130, 9.072250
300.6951, 8.524994
301.1772, 8.291763
301.6593, 8.324463
302.1414, 8.531006
302.6235, 8.878464
303.1057, 9.126205
303.5878, 8.946243
304.0699, 8.506332
304.5520, 8.171402
305.0341, 8.300674
305.5162, 8.539154
305.9984, 8.401978
306.4805, 7.889740
306.9626, 7.241898
307.4447, 6.374725
307.9268, 5.653824
308.4089, 5.589172
308.8911, 6.554413
309.3732, 7.787445
309.8553, 8.842712
310.3374, 9.686920
310.8195, 10.24657
311.3016, 10.35974
311.7838, 10.19566
312.2659, 9.905014
312.7480, 9.518311
313.2301, 9.097229
313.7122, 8.624786
314.1943, 8.135666
314.6765, 7.706741
315.1586, 7.286087
315.6407, 6.989349
316.1228, 6.980728
316.6049, 7.406021
317.0870, 7.714050
317.5692, 7.423340
318.0513, 6.883652
318.5334, 6.593033
319.0155, 6.975906
319.4976, 7.397842
319.9797, 7.562592
320.4619, 7.436310
320.9440, 7.335770
321.4261, 7.258743
321.9082, 7.272568
322.3903, 7.440506
322.8724, 8.051300
323.3546, 8.538040
323.8367, 8.805298
324.3188, 8.846054
324.8009, 8.586899
325.2830, 7.710434
325.7651, 6.732208
326.2473, 5.989502
326.7294, 5.529877
327.2115, 5.292297
327.6936, 5.432251
328.1757, 5.842102
328.6578, 6.017380
329.1400, 5.878326
329.6221, 5.600601
330.1042, 5.250092
330.5863, 4.650772
331.0684, 4.249817
331.5505, 4.111694
332.0327, 4.150787
332.5148, 4.190750
332.9969, 4.266022
333.4790, 4.291504
333.9611, 4.259567
334.4432, 4.196213
334.9254, 3.874710
335.4075, 3.060257
335.8896, 2.183746
336.3717, 1.907562
336.8538, 2.514236
337.3359, 3.038620
337.8180, 3.163086
338.3001, 2.891586
338.7823, 2.808151
339.2644, 2.873398
339.7465, 3.200638
340.2286, 4.075180
340.7107, 5.655182
341.1928, 6.780060
341.6750, 7.109680
342.1571, 6.860413
342.6392, 6.812103
343.1213, 7.004257
343.6034, 7.190292
344.0855, 6.975266
344.5677, 6.402283
345.0498, 6.642609
345.5319, 8.019882
346.0140, 9.966660
346.4961, 11.44814
346.9782, 12.47169
347.4604, 13.34798
347.9425, 14.18295
348.4246, 14.99918
348.9067, 15.83720
349.3888, 16.69449
349.8709, 17.59732
350.3531, 18.54558
350.8352, 19.55759
351.3173, 20.69748
351.7994, 22.13866
352.2815, 23.68282
352.7636, 24.87778
353.2458, 25.72017
353.7279, 26.77185
354.2100, 28.73134
354.6921, 31.18893
355.1742, 33.42188
355.6563, 35.11862
356.1385, 36.62453
356.6206, 38.20866
357.1027, 39.87938
357.5848, 41.63377
358.0669, 43.42145
358.5490, 45.33517
359.0312, 47.46072
359.5133, 49.86180
359.9954, 52.42818
360.4775, 55.24068
360.9596, 58.19110
361.4417, 60.99921
361.9239, 63.26126
362.4060, 65.60930
362.8881, 68.46579
363.3702, 71.97820
363.8523, 75.43999
364.3344, 78.33781
364.8166, 81.16388
365.2987, 84.50761
365.7808, 88.67000
366.2629, 93.11072
366.7450, 97.68930
367.2271, 102.4014
367.7093, 107.3405
368.1914, 112.5657
368.6735, 117.9875
369.1556, 123.5916
369.6377, 129.1297
370.1198, 134.9992
370.6020, 141.2789
371.0841, 147.9037
371.5662, 154.6771
372.0483, 161.5270
372.5304, 168.5035
373.0125, 175.5947
373.4947, 182.6076
373.9768, 190.1681
374.4589, 198.4954
374.9410, 207.2797
375.4231, 215.8638
375.9052, 224.1322
376.3874, 232.7201
376.8695, 241.8295
377.3516, 251.5650
377.8337, 260.9449
378.3158, 269.9232
378.7979, 279.0398
379.2801, 288.7532
379.7622, 299.1739
380.2443, 309.7186
380.7264, 320.4540
381.2085, 331.2410
381.6906, 341.7741
382.1728, 352.0020
382.6549, 362.2771
383.1370, 372.7190
383.6191, 383.3528
384.1012, 393.9509
384.5833, 404.6533
385.0655, 415.1090
385.5476, 424.5470
386.0297, 433.2915
386.5118, 442.0052
386.9939, 451.7051
387.4760, 461.3792
387.9582, 469.6380
388.4403, 476.5158
388.9224, 482.3360
389.4045, 486.9042
389.8866, 490.6684
390.3687, 494.3256
390.8509, 498.6802
391.3330, 502.3801
391.8151, 504.6399
392.2972, 505.4141
392.7793, 504.8197
393.2614, 502.5675
393.7436, 499.2873
394.2257, 495.3850
394.7078, 491.1124
395.1899, 485.7236
395.6720, 478.4644
396.1541, 469.9570
396.6363, 461.2587
397.1184, 453.5783
397.6005, 444.9207
398.0826, 434.3970
398.5647, 421.7751
399.0468, 408.8614
399.5290, 395.4893
400.0111, 382.0111
400.4932, 368.7637
400.9753, 356.1072
401.4574, 343.2323
401.9395, 330.0998
402.4217, 316.6591
402.9038, 302.9873
403.3859, 288.6245
403.8680, 274.8327
404.3501, 262.2713
404.8322, 251.4154
405.3144, 240.4252
405.7965, 229.2770
406.2786, 218.1077
406.7607, 207.1613
407.2428, 196.3878
407.7249, 186.0830
408.2071, 176.2909
408.6892, 167.0434
409.1713, 158.8915
409.6534, 151.9384
410.1355, 145.3866
410.6176, 138.3781
411.0998, 131.0376
411.5819, 124.3055
412.0640, 118.4157
412.5461, 113.0902
413.0282, 107.8898
413.5103, 102.8081
413.9925, 97.69232
414.4746, 92.08516
414.9567, 86.44510
415.4388, 81.63371
415.9209, 77.72520
416.4030, 74.18961
416.8852, 70.49907
417.3673, 66.85254
417.8494, 63.55927
418.3315, 60.99017
418.8136, 58.57825
419.2957, 55.82774
419.7779, 52.84158
420.2600, 50.11722
420.7421, 48.19685
421.2242, 46.45174
421.7063, 44.43440
422.1884, 41.70477
422.6706, 39.31557
423.1527, 37.74747
423.6348, 36.65045
424.1169, 35.35600
424.5990, 33.56761
425.0811, 31.73744
425.5633, 29.92261
426.0454, 28.07497
426.5275, 26.56520
427.0096, 25.47940
427.4917, 24.64165
427.9738, 23.96655
428.4560, 23.75563
428.9381, 23.02953
429.4202, 21.41580
429.9023, 19.27811
430.3844, 17.85995
430.8665, 17.40625
431.3487, 17.00262
431.8308, 16.10889
432.3129, 14.69023
432.7950, 13.63322
433.2771, 13.02025
433.7592, 12.58772
434.2414, 11.95016
434.7235, 11.13484
435.2056, 10.48720
435.6877, 10.29170
436.1698, 10.21631
436.6519, 9.340714
437.1341, 7.717590
437.6162, 6.282776
438.0983, 5.866669
438.5804, 6.058975
439.0625, 6.217361
439.5446, 6.297195
440.0268, 6.123505
440.5089, 5.267242
440.9910, 4.045837
441.4731, 3.121750
441.9552, 3.175125
442.4373, 3.308441
442.9195, 2.831879
443.4016, 1.743561
443.8837, 0.8300170
444.3658, 0.3627320
444.8479, 0.2253270
445.3300, 0.3444210
445.8122, 1.068604
446.2943, 1.566727
446.7764, 1.693802
447.2585, 1.496704
447.7406, 1.095047
448.2227, 3.0792000E-02
448.7049, 0.7672730
449.1870, 0.8934170
449.6691, 0.1411900
450.1512, 2.3270000E-02
450.6333, 0.6997070
451.1154, 1.680267
451.5976, 2.355942
452.0797, 2.700455
452.5618, 2.760864
453.0439, 2.394348
453.5260, 1.821472
454.0081, 1.760315
454.4903, 2.274323
454.9724, 2.888199
455.4545, 3.502823
455.9366, 4.054306
456.4187, 3.963226
456.9008, 3.108673
457.3830, 2.190460
457.8651, 2.294434
458.3472, 3.068985
458.8293, 3.326965
459.3114, 2.321472
459.7935, 0.9919590
460.2757, 0.5211490
460.7578, 0.7980350
461.2399, 1.234009
461.7220, 1.708862
462.2041, 2.038589
462.6862, 1.960129
463.1684, 1.332718
463.6505, 0.7680360
464.1326, 0.8595120
464.6147, 1.117538
465.0968, 0.9046940
465.5789, 0.4960020
466.0611, 1.854858
466.5432, 2.882935
467.0253, 3.571762
467.5074, 3.988831
467.9895, 3.792969
468.4716, 3.610916
468.9538, 3.756668
469.4359, 4.440628
469.9180, 4.974426
470.4001, 5.271881
470.8822, 5.481522
471.3643, 5.817490
471.8465, 6.277313
472.3286, 6.878586
472.8107, 7.708496
473.2928, 8.682068
473.7749, 9.301727
474.2570, 9.485275
474.7392, 9.721268
475.2213, 10.39207
475.7034, 11.45122
476.1855, 12.63676
476.6676, 13.97354
477.1497, 15.26271
477.6319, 16.11371
478.1140, 16.66177
478.5961, 17.33130
479.0782, 18.42747
479.5603, 19.66850
480.0424, 20.73288
480.5246, 21.64101
481.0067, 22.51558
481.4888, 23.29962
481.9709, 24.15688
482.4530, 25.21710
482.9352, 26.48474
483.4173, 28.00336
483.8994, 29.93971
484.3815, 32.11101
484.8636, 34.21805
485.3457, 36.24425
485.8279, 38.13747
486.3100, 39.75294
486.7921, 41.10269
487.2742, 42.79897
487.7563, 45.09509
488.2384, 47.50887
488.7206, 49.67055
489.2027, 51.15845
489.6848, 53.56943
490.1669, 57.21855
490.6490, 61.48306
491.1311, 65.44264
491.6133, 68.99872
492.0954, 72.67160
492.5775, 76.57172
493.0596, 80.72333
493.5417, 85.44551
494.0238, 90.72589
494.5060, 95.90228
494.9881, 100.1450
495.4702, 103.8864
495.9523, 108.3100
496.4344, 113.5440
496.9165, 119.4427
497.3987, 126.2392
497.8808, 133.5840
498.3629, 140.6827
498.8450, 146.7935
499.3271, 152.9175
499.8092, 159.6563
500.2914, 167.0576
500.7735, 174.5919
501.2556, 181.9352
501.7377, 189.4784
502.2198, 197.5577
502.7019, 206.6621
503.1841, 215.5208
503.6662, 223.5854
504.1483, 231.5210
504.6304, 240.0272
505.1125, 249.5345
505.5946, 258.6337
506.0768, 267.1796
506.5589, 275.1747
507.0410, 282.8635
507.5231, 290.2435
508.0052, 297.5002
508.4873, 304.9073
508.9695, 312.3260
509.4516, 319.0920
509.9337, 325.2782
510.4158, 330.7455
510.8979, 335.2351
511.3800, 338.8106
511.8622, 341.6971
512.3443, 344.1039
512.8264, 345.6062
513.3085, 345.4651
513.7906, 343.9160
514.2728, 341.8177
514.7549, 339.9448
515.2370, 337.6374
515.7191, 334.1192
516.2012, 329.2123
516.6833, 323.8346
517.1655, 318.4021
517.6476, 312.8401
518.1297, 307.0059
518.6118, 301.0109
519.0939, 294.4678
519.5760, 287.0712
520.0582, 279.1442
520.5403, 271.2633
521.0224, 263.7568
521.5045, 256.0137
521.9866, 247.6358
522.4688, 238.5805
522.9509, 230.3885
523.4330, 223.2531
523.9151, 216.6230
524.3972, 210.2155
524.8793, 204.0516
525.3615, 197.3643
525.8436, 189.8900
526.3257, 182.2400
526.8078, 175.5152
527.2899, 169.5364
527.7720, 163.5082
528.2542, 156.9801
528.7363, 150.4149
529.2184, 144.1988
529.7005, 138.4183
530.1826, 133.2400
530.6647, 129.2927
531.1469, 125.6988
531.6290, 121.5667
532.1111, 116.6557
532.5932, 111.9322
533.0753, 108.0410
533.5574, 104.4110
534.0396, 100.5095
534.5217, 95.67194
535.0038, 91.19719
535.4859, 87.32356
535.9680, 83.92621
536.4501, 80.55568
536.9323, 77.10538
537.4144, 73.87482
537.8965, 71.06497
538.3786, 68.69719
538.8607, 66.15955
539.3428, 63.46436
539.8250, 60.60643
540.3071, 57.32939
540.7892, 53.77547
541.2713, 51.11070
541.7534, 49.73700
542.2355, 48.72688
542.7177, 46.71976
543.1998, 43.97121
543.6819, 41.33920
544.1640, 39.43068
544.6461, 37.70148
545.1282, 35.49838
545.6104, 32.93587
546.0925, 30.67284
546.5746, 29.19963
547.0567, 28.04442
547.5388, 26.92188
548.0209, 25.83415
548.5031, 24.64615
548.9852, 23.39528
549.4673, 21.99219
549.9494, 20.31792
550.4315, 17.92656
550.9136, 15.97179
551.3958, 14.71577
551.8779, 13.93019
552.3600, 12.95895
552.8421, 11.75607
553.3242, 10.50711
553.8063, 9.222198
554.2885, 7.935333
554.7706, 6.997360
555.2527, 6.441620
555.7348, 5.889847
556.2169, 5.033936
556.6990, 3.929474
557.1812, 2.599548
557.6633, 0.9345250
558.1454, 0.5007630
558.6275, 0.9008640
559.1096, 0.7244870
559.5917, 0.7828370
560.0739, 1.593430
560.5560, 2.536865
561.0381, 3.451996
561.5202, 4.280228
562.0023, 4.805161
562.4844, 4.656921
562.9666, 4.466385
563.4487, 4.508423
563.9308, 4.814911
564.4129, 5.235077
564.8950, 5.927841
565.3771, 6.564438
565.8593, 6.808502
566.3414, 6.511185
566.8235, 6.520172
567.3056, 7.058685
567.7877, 7.716705
568.2698, 7.657211
568.7520, 6.917953
569.2341, 6.207184
569.7162, 5.771210
570.1983, 5.531586
570.6804, 5.337112
571.1625, 5.191925
571.6447, 5.126007
572.1268, 5.432968
572.6089, 5.666336
573.0910, 5.285583
573.5731, 4.137009
574.0552, 3.067291
574.5374, 2.533936
575.0195, 2.211685
575.5016, 1.793884
575.9837, 1.244843
576.4658, 0.5794530
576.9479, 0.1964720
577.4301, 1.087265
577.9122, 2.131714
578.3943, 3.446442
578.8764, 4.686310
579.3585, 5.700226
579.8406, 6.542984
580.3228, 7.663559
580.8049, 9.104660
581.2870, 10.53445
581.7691, 11.60902
582.2512, 12.47742
582.7333, 13.81108
583.2155, 15.68776
583.6975, 17.73563
584.1796, 19.84889
584.6617, 21.89032
585.1439, 23.58461
585.6260, 24.55710
586.1081, 25.72223
586.5902, 27.71774
587.0723, 30.30563
587.5544, 32.97260
588.0366, 35.68404
588.5187, 38.40068
589.0008, 41.00142
589.4829, 43.51616
589.9650, 46.43109
590.4471, 49.99323
590.9293, 53.63087
591.4114, 56.92674
591.8935, 59.74797
592.3756, 63.36273
592.8577, 67.98819
593.3398, 72.84204
593.8220, 77.09846
594.3041, 80.85002
594.7862, 84.80092
595.2683, 89.07773
595.7504, 93.63736
596.2325, 98.49678
596.7147, 103.6762
597.1968, 109.1216
597.6789, 114.8121
598.1610, 120.8263
598.6431, 127.3653
599.1252, 134.3222
599.6074, 141.2884
600.0895, 147.9443
600.5716, 154.7864
601.0537, 162.0348
601.5358, 169.6208
602.0179, 177.7492
602.5001, 186.5492
602.9822, 195.7914
603.4643, 205.2522
603.9464, 214.9099
604.4285, 225.1785
604.9106, 236.1622
605.3928, 247.7870
605.8749, 260.1317
606.3570, 273.2490
606.8391, 287.0900
607.3212, 301.8240
607.8033, 317.0012
608.2855, 331.7426
608.7676, 346.2961
609.2497, 362.1587
609.7318, 380.4971
610.2139, 400.0426
610.6960, 419.4760
611.1782, 438.7735
611.6603, 459.0811
612.1424, 481.2877
612.6245, 504.5070
613.1066, 528.0158
613.5887, 551.2430
614.0709, 576.5924
614.5530, 604.9348
615.0351, 634.9032
615.5172, 665.2731
615.9993, 695.9821
616.4814, 728.8480
616.9636, 764.6127
617.4457, 801.8749
617.9278, 837.8253
618.4099, 872.8130
618.8920, 910.1033
619.3741, 951.9305
619.8563, 996.6431
620.3384, 1041.308
620.8205, 1086.082
621.3026, 1131.793
621.7847, 1178.084
622.2668, 1226.294
622.7490, 1276.964
623.2311, 1330.639
623.7132, 1383.868
624.1953, 1435.204
624.6774, 1486.182
625.1595, 1537.885
625.6417, 1590.070
626.1238, 1643.841
626.6059, 1699.344
627.0880, 1755.731
627.5701, 1812.191
628.0522, 1869.028
628.5344, 1923.035
629.0165, 1973.145
629.4986, 2020.674
629.9807, 2068.621
630.4628, 2116.685
630.9449, 2161.909
631.4271, 2203.433
631.9092, 2241.512
632.3913, 2276.447
632.8734, 2308.265
633.3555, 2336.331
633.8376, 2361.633
634.3198, 2382.348
634.8019, 2397.570
635.2840, 2407.060
635.7661, 2411.681
636.2482, 2412.029
636.7303, 2407.350
637.2125, 2396.966
637.6946, 2380.298
638.1767, 2359.356
638.6588, 2334.190
639.1409, 2304.990
639.6230, 2272.175
640.1052, 2235.735
640.5873, 2196.747
641.0694, 2155.701
641.5515, 2112.531
642.0336, 2067.640
642.5157, 2021.288
642.9979, 1973.297
643.4800, 1923.904
643.9621, 1873.085
644.4442, 1820.719
644.9263, 1767.016
645.4084, 1714.143
645.8906, 1663.790
646.3727, 1614.068
646.8548, 1564.012
647.3369, 1513.716
647.8190, 1463.743
648.3011, 1414.502
648.7833, 1365.586
649.2654, 1316.979
649.7475, 1267.894
650.2296, 1221.789
650.7117, 1179.024
651.1938, 1138.000
651.6760, 1097.467
652.1581, 1057.408
652.6402, 1019.051
653.1223, 982.7405
653.6044, 948.0298
654.0865, 913.9395
654.5687, 880.5413
655.0508, 847.8365
655.5329, 814.7581
656.0150, 782.9977
656.4971, 753.2404
656.9792, 725.3668
657.4614, 698.5490
657.9435, 672.8147
658.4256, 647.9958
658.9077, 624.0127
659.3898, 600.8730
659.8719, 578.8943
660.3541, 558.2151
660.8362, 538.2035
661.3183, 518.0625
661.8004, 498.1613
662.2825, 478.7305
662.7646, 459.7574
663.2468, 441.7777
663.7289, 425.5756
664.2110, 410.5397
664.6931, 395.9013
665.1752, 381.4465
665.6573, 367.4021
666.1395, 353.6106
666.6216, 340.2399
667.1037, 327.4962
667.5858, 315.7495
668.0679, 304.1824
668.5500, 292.6739
669.0322, 281.4091
669.5143, 271.2202
669.9964, 262.2376
670.4785, 253.3020
670.9606, 243.9532
671.4427, 234.4340
671.9249, 225.6745
672.4070, 217.5768
672.8891, 209.5869
673.3712, 201.3365
673.8533, 193.1277
674.3354, 185.5070
674.8176, 178.4282
675.2997, 171.6426
675.7818, 165.0842
676.2639, 158.7915
676.7460, 152.7566
677.2281, 147.0996
677.7103, 141.8519
678.1924, 137.2679
678.6745, 132.8198
679.1566, 127.9529
679.6387, 122.4151
680.1208, 117.6235
680.6030, 113.7448
681.0851, 110.2043
681.5672, 106.0170
682.0493, 101.4140
682.5314, 97.18135
683.0135, 93.63701
683.4957, 90.34070
683.9778, 86.96854
684.4599, 83.49466
684.9420, 80.04593
685.4241, 76.36574
685.9063, 72.94252
686.3884, 69.93863
686.8705, 67.33778
687.3526, 65.00864
687.8347, 63.18469
688.3168, 61.17064
688.7990, 58.75276
689.2811, 55.99338
689.7632, 53.39520
690.2453, 50.95255
690.7274, 48.77901
691.2095, 47.02611
691.6917, 45.61984
692.1738, 44.42113
692.6559, 43.43304
693.1380, 42.23616
693.6201, 40.28235
694.1022, 38.13089
694.5844, 36.33026
695.0665, 35.01619
695.5486, 33.66005
696.0307, 32.03506
696.5128, 30.32758
696.9949, 28.63628
697.4771, 26.81752
697.9592, 25.39482
698.4413, 24.56824
698.9234, 23.90125
699.4055, 22.80637
699.8876, 21.27525
700.3698, 19.93878
700.8519, 18.94469
701.3340, 18.16220
701.8161, 17.47340
702.2982, 16.84561
702.7803, 16.21407
703.2625, 15.63367
703.7446, 14.97325
704.2267, 14.10794
704.7088, 13.10722
705.1909, 12.13036
705.6730, 11.14078
706.1552, 10.27994
706.6373, 9.602417
707.1194, 9.079468
707.6015, 8.557785
708.0836, 8.004639
708.5657, 7.575821
709.0479, 7.468597
709.5300, 7.515900
710.0121, 6.833633
710.4942, 5.448639
710.9763, 4.198502
711.4584, 3.846329
711.9406, 3.823318
712.4227, 3.306198
712.9048, 2.270706
713.3869, 1.502792
713.8690, 1.782822
714.3511, 2.172379
714.8333, 1.974594
715.3154, 0.8182530
715.7975, 0.1142120
716.2796, 0.1696930
716.7617, 0.3045650
717.2438, 8.8394001E-02
717.7260, 1.066345
718.2081, 1.843918
718.6902, 2.356979
719.1723, 2.690063
719.6544, 2.857086
720.1365, 2.911880
720.6187, 2.992401
721.1008, 3.152054
721.5829, 3.298676
722.0650, 3.418976
722.5471, 3.474548
723.0292, 3.429749
723.5114, 3.098022
723.9935, 2.864868
724.4756, 2.781403
724.9577, 2.836937
725.4398, 3.075920
725.9219, 3.606522
726.4041, 3.982300
726.8862, 4.107864
727.3683, 4.024529
727.8504, 3.704605
728.3325, 3.192986
728.8146, 2.803589
729.2968, 2.802635
729.7789, 2.885498
730.2610, 2.535339
730.7431, 1.944725
731.2252, 1.752663
731.7073, 2.828552
732.1895, 3.786346
732.6716, 3.892929
733.1537, 3.196968
733.6358, 2.800072
734.1179, 2.797729
734.6000, 2.945930
735.0822, 3.218437
735.5643, 3.580391
736.0464, 3.620171
736.5285, 3.326866
737.0106, 2.918732
737.4927, 2.496712
737.9749, 2.082298
738.4570, 1.653442
738.9391, 1.216484
739.4212, 0.9940030
739.9033, 1.289261
740.3854, 1.726166
740.8676, 2.087646
741.3497, 2.406662
741.8318, 2.391174
742.3139, 1.854225
742.7960, 1.195526
743.2781, 0.6491780
743.7603, 0.2052920
744.2424, 1.7499999E-04
744.7245, 9.9808000E-02
745.2066, 0.1791990
745.6887, 0.2378540
746.1708, 0.9298930
746.6530, 1.265694
747.1351, 1.075279
747.6172, 0.8723910
748.0993, 1.024467
748.5814, 1.377838
749.0635, 1.767097
749.5457, 2.174461
750.0278, 2.583839
750.5099, 3.017822
750.9920, 3.435028
751.4741, 3.766029
751.9562, 3.967087
752.4384, 4.267693
752.9205, 4.715210
753.4026, 5.233986
753.8847, 5.780922
754.3668, 6.310493
754.8489, 6.619324
755.3311, 6.523880
755.8132, 6.417274
756.2953, 6.676483
756.7774, 7.164314
757.2595, 7.642494
757.7416, 8.210579
758.2238, 8.556923
758.7059, 8.311348
759.1880, 7.871063
759.6701, 8.168335
760.1522, 9.546936
760.6343, 10.53663
761.1165, 10.67906
761.5986, 10.30233
762.0807, 10.08801
762.5628, 10.04734
763.0449, 10.24890
763.5270, 10.92789
764.0092, 11.68127
764.4913, 12.07545
764.9734, 12.22296
765.4555, 12.47630
765.9376, 13.06096
766.4197, 13.66717
766.9019, 14.19286
767.3840, 14.64954
767.8661, 15.09452
768.3482, 15.52660
768.8303, 15.94679
769.3124, 16.35859
769.7946, 16.75592
770.2767, 17.11247
770.7588, 17.43176
771.2409, 17.75037
771.7230, 17.95402
772.2051, 18.26369
772.6873, 19.08938
773.1694, 20.32897
773.6515, 21.19665
774.1336, 20.95708
774.6157, 20.74322
775.0978, 21.09789
775.5800, 21.98606
776.0621, 22.69824
776.5442, 23.23799
777.0263, 23.60177
777.5084, 23.63064
777.9905, 23.46883
778.4727, 23.91679
778.9548, 24.93364
779.4369, 25.87122
779.9190, 26.22169
780.4011, 26.29737
780.8832, 26.33916
781.3654, 26.38473
781.8475, 26.56989
782.3296, 27.10127
782.8117, 27.61353
783.2938, 27.87757
783.7759, 27.83598
784.2581, 27.99064
784.7402, 28.36477
785.2223, 28.93708
785.7044, 29.98081
786.1865, 31.25752
786.6686, 31.61720
787.1508, 31.01770
787.6329, 30.42052
788.1150, 30.69985
788.5971, 31.28956
789.0792, 31.59972
789.5613, 31.46161
790.0435, 31.25807
790.5256, 31.09406
791.0077, 31.02350
791.4898, 31.03907
791.9719, 31.12555
792.4540, 31.17360
792.9362, 31.16503
793.4183, 31.13116
793.9004, 31.15723
794.3825, 31.21928
794.8646, 31.18343
795.3467, 31.04081
795.8289, 30.88175
796.3110, 30.82250
796.7931, 30.74838
797.2752, 30.51353
797.7573, 30.00157
798.2394, 29.60191
798.7216, 29.42148
799.2037, 29.30750
799.6858, 29.23509
800.1679, 29.27469
800.6500, 29.05325
801.1321, 28.51630
801.6143, 27.99908
802.0964, 27.90253
802.5785, 27.98205
803.0606, 27.75928
803.5427, 27.19216
804.0248, 26.68111
804.5070, 26.44730
804.9891, 26.29631
805.4712, 26.11086
805.9533, 25.90348
806.4354, 25.64433
806.9175, 25.26237
807.3997, 24.93217
807.8818, 24.82247
808.3639, 24.92659
808.8460, 24.92386
809.3281, 24.79847
809.8102, 24.58536
810.2924, 24.31887
810.7745, 23.99662
811.2566, 23.55203
811.7387, 22.95288
812.2208, 22.52380
812.7029, 22.54206
813.1851, 22.65861
813.6672, 22.64895
814.1493, 22.51258
814.6314, 22.24835
815.1135, 21.78758
815.5956, 21.37757
816.0778, 21.28641
816.5599, 21.42175
817.0420, 21.36491
817.5241, 21.09991
818.0062, 20.85835
818.4883, 20.86785
818.9705, 20.92231
819.4526, 20.79792
819.9347, 20.43669
820.4168, 20.14812
820.8989, 20.02922
821.3810, 19.98126
821.8632, 19.97858
822.3453, 20.03478
822.8274, 19.97074
823.3095, 19.78606
823.7916, 19.52008
824.2737, 19.16136
824.7559, 18.75806
825.2380, 18.37771
825.7201, 18.03357
826.2022, 17.81669
826.6843, 17.95258
827.1664, 18.10725
827.6486, 18.03336
828.1307, 17.66503
828.6128, 17.35059
829.0949, 17.03697
829.5770, 16.86739
830.0591, 16.99612
830.5413, 17.37943
831.0234, 17.54713
831.5055, 17.49917
831.9876, 17.28139
832.4697, 16.78651
832.9518, 16.22643
833.4340, 15.76868
833.9161, 15.43699
834.3982, 15.33225
834.8803, 15.72764
835.3624, 16.13250
835.8445, 16.41894
836.3267, 16.57536
836.8088, 16.13309
837.2909, 14.90048
837.7730, 13.97150
838.2551, 14.16045
838.7372, 15.03030
839.2194, 15.56339
839.7015, 15.77758
840.1836, 15.77526
840.6657, 15.46807
841.1478, 15.09628
841.6299, 14.74803
842.1121, 14.44451
842.5942, 14.33604
843.0763, 14.56561
843.5584, 14.72430
844.0405, 14.59042
844.5226, 14.31693
845.0048, 14.70443
845.4869, 15.68767
845.9690, 16.27699
846.4511, 15.15630
846.9332, 14.08060
847.4153, 15.63220
847.8975, 18.84800
848.3796, 21.00288
848.8617, 20.26064
849.3438, 19.30788
849.8259, 19.15195
850.3080, 19.28947
850.7902, 18.11916
851.2723, 15.30162
851.7544, 13.34363
852.2365, 13.18605
852.7186, 13.90679
853.2007, 13.97667
853.6829, 13.57823
854.1650, 13.21522
854.6471, 13.11002
855.1292, 13.04208
855.6113, 12.85979
856.0934, 12.65674
856.5756, 12.62074
857.0577, 12.95174
857.5398, 13.04562
858.0219, 12.76867
858.5040, 12.30729
858.9861, 11.92869
859.4683, 11.63999
859.9504, 11.48735
860.4325, 11.51117
860.9146, 11.59151
861.3967, 11.62759
861.8788, 11.65749
862.3610, 11.73086
862.8431, 11.90211
863.3252, 12.03175
863.8073, 12.10546
864.2894, 12.14130
864.7715, 12.19866
865.2537, 12.29221
865.7358, 12.08889
866.2179, 11.52118
866.7000, 10.96031
867.1821, 10.91056
867.6642, 11.05135
868.1464, 10.85903
868.6285, 10.18398
869.1106, 9.626755
869.5927, 9.289352
870.0748, 9.240479
870.5569, 9.586937
871.0391, 10.43102
871.5212, 10.95036
872.0033, 11.11794
872.4854, 11.09493
872.9675, 10.95287
873.4496, 10.65433
873.9318, 10.07274
874.4139, 9.249496
874.8960, 8.591324
875.3781, 8.427200
875.8602, 8.423981
876.3423, 8.429901
876.8245, 8.476212
877.3066, 8.473778
877.7887, 8.393486
878.2708, 8.164436
878.7529, 7.724182
879.2350, 7.179207
879.7172, 6.869301
880.1993, 6.778381
880.6814, 6.752060
881.1635, 6.869026
881.6456, 6.877853
882.1277, 6.443718
882.6099, 5.750954
883.0920, 5.335625
883.5741, 5.522957
884.0562, 5.647308
884.5383, 5.576324
885.0204, 5.408577
885.5026, 5.402229
885.9847, 5.532959
886.4668, 5.427711
886.9489, 4.873489
887.4310, 4.276466
887.9131, 4.079323
888.3953, 4.144783
888.8774, 4.269218
889.3595, 4.525719
889.8416, 4.642776
890.3237, 4.612411
890.8058, 4.417473
891.2880, 3.931641
891.7701, 3.114395
892.2522, 2.636505
892.7343, 2.585983
893.2164, 2.656807
893.6985, 2.517303
894.1807, 2.300697
894.6628, 2.240768
895.1449, 2.414291
895.6270, 2.444794
896.1091, 2.087692
896.5912, 1.671722
897.0734, 1.353203
897.5555, 1.172028
898.0376, 0.9531780
898.5197, 0.6816940
899.0018, 0.5392680
899.4839, 0.7192760
899.9661, 1.064049
900.4482, 1.302986
900.9303, 1.423012
901.4124, 1.380455
901.8945, 0.9004780
902.3766, 0.4984020
902.8588, 0.4923290
903.3409, 0.7908520
903.8230, 0.9948580
904.3051, 1.141933
904.7872, 1.000294
905.2693, 0.3255650
905.7515, 0.4831430
906.2336, 0.5255660
906.7157, 1.7627999E-02
907.1978, 0.4124110
907.6799, 0.3545530
908.1620, 0.3523100
908.6442, 0.8864290
909.1263, 1.550011
909.6084, 1.645412
910.0905, 0.8892330
910.5726, 0.3039510
911.0547, 1.8828999E-02
911.5369, 0.1651800
912.0190, 0.1979290
912.5011, 0.1507640
912.9832, 0.1078720
913.4653, 7.7068001E-02
913.9474, 9.9082999E-02
914.4296, 0.3070300
914.9117, 0.5081560
915.3938, 0.5296970
915.8759, 0.3315120
916.3580, 4.9663998E-02
916.8401, 0.4100150
917.3223, 0.7164230
917.8044, 0.5301860
918.2865, 4.5170002E-03
918.7686, 0.3185420
919.2507, 0.4433980
919.7328, 0.4704280
920.2150, 0.4059940
920.6971, 0.3126410
921.1792, 0.2181780
921.6613, 0.1269190
922.1434, 3.5496000E-02
922.6255, 6.7345001E-02
923.1077, 7.2952002E-02
923.5898, 6.1958000E-02
924.0719, 0.2797550
924.5540, 0.4887050
925.0361, 0.6754260
925.5182, 0.7845540
926.0004, 0.8420980
926.4825, 0.7458760
926.9646, 0.2360530
927.4467, 0.4026530
927.9288, 0.7265780
928.4109, 0.6233830
928.8931, 0.3568190
929.3752, 0.1622160
929.8573, 0.6239430
930.3394, 0.6031910
930.8215, 0.2284770
931.3036, 2.9472001E-02
931.7858, 0.1107480
932.2679, 0.1462210
932.7500, 0.3563650
933.2321, 0.4673580
933.7142, 0.1405720
934.1964, 0.7554590
934.6785, 1.065071
935.1606, 0.5770490
935.6427, 6.2259999E-03
936.1248, 0.2972830
936.6069, 0.3910330
937.0891, 0.4477200
937.5712, 0.4627760
938.0533, 0.4164540
938.5354, 0.2708440
939.0175, 8.6845003E-02
939.4996, 0.1535840
939.9818, 0.4030420
940.4639, 0.5190240
940.9460, 0.4443360
941.4281, 0.4027750
941.9102, 0.4727060
942.3923, 0.5108720
942.8745, 0.1887170
943.3566, 0.3561440
943.8387, 0.7160910
944.3208, 0.7723690
944.8029, 0.7113040
945.2850, 0.5454790
945.7672, 0.3607410
946.2493, 0.2839430
946.7314, 0.3623890
947.2135, 0.3473780
947.6956, 0.2005350
948.1777, 9.5863000E-02
948.6599, 0.2104800
949.1420, 0.4594960
949.6241, 0.6563610
950.1062, 0.7954100
950.5883, 0.8840750
951.0704, 0.9490010
951.5526, 0.9385490
952.0347, 0.8248480
952.5168, 0.6159670
952.9989, 0.2555160
953.4810, 0.3675310
953.9631, 0.5578080
954.4453, 5.8437001E-02
954.9274, 0.8897130
955.4095, 0.8023380
955.8916, 0.2013850
956.3737, 7.3699998E-03
956.8558, 0.7982860
957.3380, 1.397423
957.8201, 1.153343
958.3022, 0.6579820
958.7843, 0.4815830
959.2664, 0.7088320
959.7485, 0.7510570
960.2307, 0.5631100
960.7128, 0.3818360
961.1949, 0.4319380
961.6770, 0.6148870
962.1591, 0.8230550
962.6412, 1.043076
963.1234, 1.201054
963.6055, 1.277164
964.0876, 1.264732
964.5697, 1.135639
965.0518, 0.9230840
965.5339, 0.8224530
966.0161, 0.8327410
966.4982, 0.7982790
966.9803, 0.5941620
967.4624, 0.4186740
967.9445, 0.5896030
968.4266, 0.9207690
968.9088, 1.104557
969.3909, 0.9222870
969.8730, 0.7734640
970.3551, 0.6689030
970.8372, 0.6305660
971.3193, 0.7035750
971.8015, 0.8734970
972.2836, 1.028503
972.7657, 1.161152
973.2478, 1.188526
973.7299, 0.8733750
974.2120, 0.5639990
974.6942, 0.6097950
975.1763, 1.036819
975.6584, 1.285973
976.1405, 1.271938
976.6226, 1.204651
977.1047, 1.165268
977.5869, 1.132671
978.0690, 1.015030
978.5511, 0.8461950
979.0332, 0.7062110
979.5153, 0.1513790
979.9974, 0.3265000
980.4796, 2.894714
980.9617, 6.089565
981.4438, 7.399391
981.9259, 6.210716
982.4080, 4.687088
982.8901, 2.660740
983.3723, 1.307217
983.8544, 2.604343
984.3365, 5.142529
984.8186, 6.288837
985.3007, 5.814697
985.7828, 4.770485
986.2650, 2.768646
986.7471, 1.204578
987.2292, 0.8284530
987.7113, 1.362267
988.1934, 1.407017
988.6755, 0.9546390
989.1577, 0.7106780
989.6398, 1.089378
990.1219, 1.544792
990.6040, 1.287910
991.0861, 0.6823880
991.5682, 0.3443680
992.0504, 0.6169400
992.5325, 0.8296390
993.0146, 0.9907990
993.4967, 1.109592
993.9788, 1.147724
994.4609, 1.112034
994.9431, 1.103058
995.4252, 1.125652
995.9073, 1.129841
996.3894, 1.088921
996.8715, 1.004971
997.3536, 0.7874720
997.8358, 0.4714130
998.3179, 0.4617200
998.8000, 0.9474030
999.2821, 1.293468
999.7642, 1.280025
1000.246, 1.063389
1000.728, 0.9989850
1001.211, 1.007702
1001.693, 0.8387030
1002.175, 0.2361410
1002.657, 0.1523400
1003.139, 0.1267660
1003.621, 0.6358950
1004.103, 1.016403
1004.585, 1.296970
1005.068, 1.211727
1005.550, 0.7186780
1006.032, 0.2293780
1006.514, 5.2639000E-02
1006.996, 7.0243999E-02
1007.478, 0.1277310
1007.960, 0.2355270
1008.442, 0.4807320
1008.924, 1.115219
1009.407, 1.590103
1009.889, 1.757874
1010.371, 1.743385
1010.853, 1.881790
1011.335, 2.082592
1011.817, 1.884048
1012.299, 1.127728
1012.781, 0.4056630
1013.263, 0.1657710
1013.746, 0.1598090
1014.228, 0.1511960
1014.710, 0.1262660
1015.192, 0.2793620
1015.674, 0.6887780
1016.156, 1.002228
1016.638, 0.9008220
1017.120, 0.6102710
1017.603, 0.6199420
1018.085, 0.8722420
1018.567, 1.159733
1019.049, 1.551243
1019.531, 1.764999
1020.013, 1.631008
1020.495, 1.335861
1020.977, 1.115799
1021.459, 0.9707570
1021.942, 0.9432720
1022.424, 1.048271
1022.906, 1.185913
1023.388, 1.348446
1023.870, 1.442368
1024.352, 1.336369
1024.834, 1.000832
1025.316, 0.7206760
1025.799, 0.4703410
1026.281, 0.3898010
1026.763, 0.5776180
1027.245, 0.9356380
1027.727, 1.234768
1028.209, 1.491356
1028.691, 1.769798
1029.173, 2.221817
1029.656, 2.501320
1030.138, 2.353493
1030.620, 2.035049
1031.102, 1.744621
1031.584, 1.498356
1032.066, 1.458027
1032.548, 1.643932
1033.030, 1.879997
1033.512, 2.095203
1033.995, 2.225151
1034.477, 2.106625
1034.959, 1.792328
1035.441, 1.645557
1035.923, 1.975296
1036.405, 2.122013
1036.887, 1.891338
1037.369, 1.474483
1037.851, 1.253742
1038.334, 1.212975
1038.816, 1.252743
1039.298, 1.351727
1039.780, 1.556450
1040.262, 2.146324
1040.744, 2.657375
1041.226, 2.651249
1041.708, 2.092564
1042.191, 1.796432
1042.673, 1.789516
1043.155, 1.779694
1043.637, 1.563835
1044.119, 1.291264
1044.601, 1.148621
1045.083, 1.106827
1045.565, 1.128834
1046.047, 1.170536
1046.530, 1.340389
1047.012, 1.749615
1047.494, 2.137196
1047.976, 2.166260
1048.458, 1.906769
1048.940, 1.672199
1049.422, 1.487389
1049.904, 1.357357
1050.386, 1.201206
1050.869, 1.178539
1051.351, 1.480240
1051.833, 2.006252
1052.315, 2.390625
1052.797, 2.630001
1053.279, 2.776108
1053.761, 2.852970
1054.243, 2.822681
1054.726, 2.550236
1055.208, 2.214340
1055.690, 2.101875
1056.172, 2.407181
1056.654, 2.471237
1057.136, 2.073853
1057.618, 1.738998
1058.100, 1.879017
1058.583, 2.316227
1059.065, 2.336594
1059.547, 2.004021
1060.029, 1.613117
1060.511, 1.097538
1060.993, 0.8196410
1061.475, 1.158966
1061.957, 1.689808
1062.439, 1.759609
1062.922, 1.275211
1063.404, 1.237991
1063.886, 1.776814
1064.368, 2.274155
1064.850, 2.116802
1065.332, 1.695217
1065.814, 1.349915
1066.296, 1.110931
1066.778, 0.9796490
1067.261, 1.066982
1067.743, 0.9615100
1068.225, 0.4554210
1068.707, 0.1202930
1069.189, 0.1011510
1069.671, 0.3425830
1070.153, 0.7771220
1070.635, 1.039085
1071.118, 1.379395
1071.600, 2.177002
1072.082, 2.793518
1072.564, 2.781296
1073.046, 2.226040
1073.528, 2.007702
1074.010, 2.045773
1074.492, 1.912613
1074.974, 1.121105
1075.457, 0.3702740
1075.939, 0.1948470
1076.421, 0.4059140
1076.903, 0.7245600
1077.385, 1.281559
1077.867, 1.426968
1078.349, 1.025303
1078.831, 0.5938610
1079.313, 0.6926120
1079.796, 1.035332
1080.278, 1.195274
1080.760, 1.171318
1081.242, 1.145840
1081.724, 1.251492
1082.206, 1.244282
1082.688, 1.021084
1083.170, 0.7314070
1083.652, 0.6661570
1084.135, 0.7716670
1084.617, 0.8446040
1085.099, 0.8405490
1085.581, 0.8681490
1086.063, 1.261623
1086.545, 1.435242
1087.027, 0.8361820
1087.509, 0.3913990
1087.992, 0.6673390
1088.474, 2.0969000E-02
1088.956, 0.5963020
1089.438, 0.5328220
1089.920, 0.3278960
1090.402, 0.4948690
1090.884, 0.8483200
1091.366, 1.061558
1091.849, 0.8622510
1092.331, 1.016037
1092.813, 1.666298
1093.295, 2.212990
1093.777, 2.175739
1094.259, 1.754513
1094.741, 1.102455
1095.223, 0.3665120
1095.705, 4.2750999E-02
1096.188, 0.7499240
1096.670, 1.311161
1097.152, 1.534889
1097.634, 1.531803
1098.116, 1.354668
1098.598, 1.066628
1099.080, 0.9890440
1099.562, 1.170261
1100.044, 1.408058
1100.527, 1.720493
1101.009, 1.813354
1101.491, 1.152897
1101.973, 0.2433010
1102.455, 1.021763
1102.937, 3.514885
1103.419, 5.315540
1103.901, 5.838020
1104.384, 5.440884
1104.866, 3.688450
1105.348, 1.688061
1105.830, 0.5716900
1106.312, 0.5568540
1106.794, 0.7351070
1107.276, 1.205280
1107.758, 1.448555
1108.240, 1.067028
1108.723, 0.5273440
1109.205, 0.7356190
1109.687, 1.298069
1110.169, 1.434505
1110.651, 0.4307630
1111.133, 5.0590999E-02
1111.615, 0.2994270
1112.097, 0.8125110
1112.579, 0.9930880
1113.062, 0.9153630
1113.544, 0.7723880
1114.026, 0.5951960
1114.508, 0.5267980
1114.990, 0.6267050
1115.472, 0.8768770
1115.954, 1.499741
1116.436, 2.072628
1116.919, 1.889385
1117.401, 1.027763
1117.883, 0.6600880
1118.365, 0.8907550
1118.847, 1.175022
1119.329, 1.053890
1119.811, 0.9194830
1120.293, 1.095406
1120.776, 1.474464
1121.258, 1.698814
1121.740, 1.770596
1122.222, 1.617802
1122.704, 1.172062
1123.186, 0.7299040
1123.668, 0.5831570
1124.150, 0.5986370
1124.632, 0.6881180
1125.115, 0.8544160
1125.597, 0.7923240
1126.079, 0.4186970
1126.561, 6.1810002E-02
1127.043, 0.2035450
1127.525, 0.2855070
1128.007, 0.1757320
1128.489, 0.8503340
1128.971, 1.154945
1129.454, 0.8206410
1129.936, 0.4163320
1130.418, 0.1885760
1130.900, 0.4799270
1131.382, 6.6817999E-02
1131.864, 1.076687
1132.346, 1.378979
1132.828, 1.138996
1133.311, 0.8955800
1133.793, 1.007103
1134.275, 0.9671940
1134.757, 0.4705280
1135.239, 1.3336000E-02
1135.721, 5.1502001E-02
1136.203, 0.5751340
1136.685, 0.7065510
1137.167, 0.4713170
1137.650, 0.3843080
1138.132, 1.007534
1138.614, 1.576424
1139.096, 1.690495
1139.578, 1.519085
1140.060, 1.253597
1140.542, 0.8875470
1141.024, 0.7638190
1141.506, 0.9358220
1141.989, 1.069572
1142.471, 0.7571540
1142.953, 0.4396820
1143.435, 0.5258450
1143.917, 0.9238760
1144.399, 1.121964
1144.881, 1.101303
1145.363, 0.9385190
1145.846, 0.6259420
1146.328, 0.4163380
1146.810, 0.7196040
1147.292, 1.055786
1147.774, 0.7505040
1148.256, 0.3407820
1148.738, 0.6675720
1149.220, 1.5784999E-02
1149.703, 0.6491790
1150.185, 0.8717190
1150.667, 0.8530560
1151.149, 0.6797310
1151.631, 0.5035710
1152.113, 0.6320610
1152.595, 1.339674
1153.077, 1.531704
1153.559, 0.9094850
1154.042, 0.3558830
1154.524, 0.4034820
1155.006, 0.7630690
1155.488, 0.8783720
1155.970, 0.7754800
1156.452, 0.4931280
1156.934, 0.2538800
1157.416, 0.5995310
1157.898, 0.3083840
1158.381, 0.1376970
1158.863, 0.3580230
1159.345, 0.4346790
1159.827, 0.7948170
1160.309, 1.336628
1160.791, 1.608877
1161.273, 1.052006
1161.755, 0.6718640
1162.238, 0.8446410
1162.720, 1.158579
1163.202, 1.154913
1163.684, 0.8949580
1164.166, 0.7779120
1164.648, 0.8047920
1165.130, 0.8076250
1165.612, 0.5693240
1166.094, 0.4245990
1166.577, 0.5907990
1167.059, 0.8843650
1167.541, 1.005049
1168.023, 0.9692460
1168.505, 1.013365
1168.987, 1.156883
1169.469, 1.267443
1169.951, 1.206249
1170.433, 1.097746
1170.916, 0.9564610
1171.398, 0.8390580
1171.880, 0.9529040
1172.362, 1.293375
1172.844, 1.398731
1173.326, 1.153023
1173.808, 0.8965360
1174.290, 0.9931070
1174.773, 1.121906
1175.255, 0.9689660
1175.737, 0.6032490
1176.219, 0.4285810
1176.701, 0.4516960
1177.183, 0.5052640
1177.665, 0.5512560
1178.147, 0.5909810
1178.630, 0.5585140
1179.112, 0.5661980
1179.594, 0.7828900
1180.076, 1.207817
1180.558, 1.403069
1181.040, 1.339016
1181.522, 1.369432
1182.004, 1.724539
1182.486, 2.024956
1182.969, 1.732195
1183.451, 1.218712
1183.933, 0.9368760
1184.415, 0.9579890
1184.897, 1.032213
1185.379, 1.199583
1185.861, 1.255444
1186.343, 0.9019200
1186.825, 0.5673180
1187.308, 1.005863
1187.790, 1.715551
1188.272, 1.820463
1188.754, 0.8512080
1189.236, 0.5011410
1189.718, 0.8683780
1190.200, 1.197216
1190.682, 0.7973800
1191.165, 0.2564200
1191.647, 0.4725040
1192.129, 1.093712
1192.611, 1.407166
1193.093, 1.028646
1193.575, 0.9809610
1194.057, 1.383400
1194.539, 1.692379
1195.021, 1.326712
1195.504, 0.7264940
1195.986, 0.4800210
1196.468, 0.5074770
1196.950, 0.5660290
1197.432, 0.6949460
1197.914, 0.6250800
1198.396, 0.2649710
1198.878, 2.8913001E-02
1199.360, 0.2048230
1199.843, 0.6406080
1200.325, 0.8109630
1200.807, 0.7533840
1201.289, 0.6969220
1201.771, 0.7308430
1202.253, 0.6330760
1202.735, 0.3188860
1203.217, 6.3580997E-02
1203.700, 0.2729380
1204.182, 0.6755120
1204.664, 0.9163780
1205.146, 0.9779950
1205.628, 0.9094050
1206.110, 0.5158460
1206.592, 0.4324510
1207.074, 0.9469740
1207.557, 1.454956
1208.039, 1.002161
1208.521, 0.2101760
1209.003, 4.4640001E-02
1209.485, 0.5456770
1209.967, 0.9000450
1210.449, 0.9448830
1210.931, 1.002571
1211.413, 1.182280
1211.896, 1.283291
1212.378, 0.8810480
1212.860, 0.3166410
1213.342, 0.1287000
1213.824, 0.3753150
1214.306, 0.5486390
1214.788, 0.5278380
1215.270, 0.5460590
1215.752, 0.7452510
1216.235, 0.9510920
1216.717, 0.7569640
1217.199, 0.4427930
1217.681, 0.5277940
1218.163, 1.130962
1218.645, 1.193363
1219.127, 0.4008560
1219.609, 0.1713580
1220.092, 0.1682280
1220.574, 0.1797900
1221.056, 0.7807500
1221.538, 1.375036
1222.020, 1.529915
1222.502, 1.099356
1222.984, 0.8476160
1223.466, 0.8618030
1223.948, 0.8519060
1224.431, 0.6719800
1224.913, 0.5026660
1225.395, 0.6946280
1225.877, 1.027658
1226.359, 1.179159
1226.841, 1.075098
1227.323, 0.8868940
1227.805, 0.5741940
1228.287, 0.3539200
1228.770, 0.3351270
1229.252, 0.4317470
1229.734, 0.5168800
1230.216, 0.6402630
1230.698, 0.8862780
1231.180, 1.318754
1231.662, 1.579958
1232.144, 1.656141
1232.627, 1.634136
1233.109, 1.375183
1233.591, 1.351530
1234.073, 2.855755
1234.555, 4.583363
1235.037, 4.515398
1235.519, 2.072094
1236.001, 0.5597840
1236.484, 5.0159000E-02
1236.966, 5.6990001E-02
1237.448, 4.5559000E-02
1237.930, 0.2669830
1238.412, 0.6442180
1238.894, 1.018887
1239.376, 1.140442
1239.858, 0.9666000
1240.340, 0.8369180
1240.823, 0.7495100
1241.305, 0.7925640
1241.787, 1.179588
1242.269, 1.477379
1242.751, 1.124338
1243.233, 0.5769820
1243.715, 0.4416600
1244.197, 0.7828450
1244.679, 0.9542060
1245.162, 0.9617960
1245.644, 0.8540340
1246.126, 0.4835820
1246.608, 0.2447510
1247.090, 0.6829830
1247.572, 1.201725
1248.054, 1.067812
1248.536, 0.2392940
1249.019, 0.1375200
1249.501, 8.5455000E-02
1249.983, 0.1454330
1250.465, 0.6451890
1250.947, 1.009781
1251.429, 0.8777640
1251.911, 0.6361620
1252.393, 0.6158120
1252.875, 0.8051280
1253.358, 1.061066
1253.840, 1.364637
1254.322, 1.551805
1254.804, 1.508568
1255.286, 1.359079
1255.768, 1.006527
1256.250, 0.7047920
1256.732, 0.7588790
1257.214, 1.081156
1257.697, 1.134386
1258.179, 0.9686340
1258.661, 0.8268280
1259.143, 0.7877120
1259.625, 0.8580150
1260.107, 1.148664
1260.589, 1.364481
1261.071, 1.097908
1261.554, 0.5780180
1262.036, 0.6833590
1262.518, 1.251108
1263.000, 1.656937
1263.482, 1.689186
1263.964, 1.438213
1264.446, 0.7178730
1264.928, 0.1878300
1265.411, 0.6649840
1265.893, 1.572046
1266.375, 1.834402
1266.857, 1.587139
1267.339, 1.213335
1267.821, 0.4442900
1268.303, 0.3398490
1268.785, 1.109007
1269.267, 1.834284
1269.750, 1.602837
1270.232, 1.042339
1270.714, 0.9598600
1271.196, 1.207649
1271.678, 1.447517
1272.160, 1.689041
1272.642, 1.758875
1273.124, 1.637939
1273.606, 1.464779
1274.089, 1.268171
1274.571, 1.131630
1275.053, 1.208426
1275.535, 1.366915
1276.017, 1.380659
1276.499, 1.216721
1276.981, 0.9400350
1277.463, 0.5397130
1277.946, 0.2990280
1278.428, 0.5176750
1278.910, 0.8310280
1279.392, 1.123701
1279.874, 1.308210
1280.356, 1.265228
1280.838, 1.001400
1281.320, 0.7338790
1281.802, 0.4710140
1282.285, 0.2405450
1282.767, 2.6176000E-02
1283.249, 0.1464350
1283.731, 3.6738999E-02
1284.213, 0.2910350
1284.695, 0.4527780
1285.177, 0.5140360
1285.659, 0.2939660
1286.141, 8.9236997E-02
1286.624, 0.1496910
1287.106, 0.8700770
1287.588, 1.366873
1288.070, 0.9906410
1288.552, 0.4053760
1289.034, 7.5562000E-02
1289.516, 2.7897000E-02
1289.998, 9.6127003E-02
1290.481, 0.3861870
1290.963, 0.6890890
1291.445, 1.061144
1291.927, 1.244843
1292.409, 1.213909
1292.891, 1.094673
1293.373, 0.8535960
1293.855, 0.6834720
1294.338, 0.6841050
1294.820, 0.7423290
1295.302, 0.7055610
1295.784, 0.6041600
1296.266, 0.6879540
1296.748, 0.9447380
1297.230, 1.190540
1297.712, 1.275452
1298.194, 1.248680
1298.677, 1.104765
1299.159, 0.8984240
1299.641, 0.7022860
1300.123, 0.5070130
1300.605, 0.4130250
1301.087, 0.4080850
1301.569, 0.3694710
1302.051, 9.6129999E-02
1302.533, 3.1200000E-03
1303.016, 0.0000000E+00
##END=



