##NAMES=Andalusite
##RRUFFID=R050258
##IDEAL CHEMISTRY=Al_2_SiO_5_
##LOCALITY=Bautista Canyon, near Hemet, Riverside County, California, USA
##OWNER=RRUFF
##SOURCE=Marcus Origlieri
##DESCRIPTION=Brown fragment
##STATUS=The identification of this mineral has been confirmed by X-ray diffraction and chemical analysis
##URL=rruff.info/R050258
##MEASURED CHEMISTRY=Al_2.00_Si_1.00_O_5_
124.050, 0.000
125.445, 52.603
126.839, 20.937
128.232, 47.663
129.626, 55.049
131.019, 26.586
132.412, 48.463
133.805, 10.576
135.198, 34.908
136.590, 65.450
137.982, 77.609
139.374, 114.728
140.766, 60.842
142.157, 51.974
143.549, 82.426
144.940, 147.867
146.330, 97.319
147.721, 9.326
149.111, 64.081
150.501, 58.085
151.891, 99.295
153.281, 82.575
154.670, 108.926
156.059, 87.347
157.448, 94.835
158.837, 71.391
160.225, 40.011
161.614, 64.649
163.002, 116.256
164.390, 55.932
165.777, 110.674
167.164, 72.480
168.552, 168.343
169.938, 13.662
171.325, 72.218
172.711, 99.151
174.098, 43.136
175.484, 80.168
176.869, 23.282
178.255, 111.055
179.640, 43.210
181.025, 21.415
182.410, 123.667
183.795, 65.966
185.179, 61.310
186.563, 34.695
187.947, 108.122
189.331, 73.588
190.714, 30.092
192.097, 73.632
193.480, 21.209
194.863, 102.820
196.246, 79.464
197.628, 53.142
199.010, 25.149
200.392, 88.592
201.774, 71.362
203.155, 50.163
204.536, 54.994
205.917, 37.854
207.298, 148.736
208.678, 22.624
210.059, 15.523
211.439, 100.433
212.819, 20.356
214.198, 60.292
215.577, 26.760
216.957, 44.202
218.336, 125.178
219.714, 55.160
221.093, 89.156
222.471, 3.166
223.849, 62.190
225.227, 34.228
226.604, 24.280
227.982, 13.371
229.359, 8.525
230.736, 15.599
232.112, 5.246
233.489, 65.921
234.865, 73.880
236.241, 143.531
237.617, 154.859
238.992, 206.205
240.367, 290.565
241.742, 239.944
243.117, 307.335
244.492, 246.732
245.866, 211.137
247.240, 235.790
248.614, 206.990
249.988, 249.439
251.362, 229.901
252.735, 255.370
254.108, 284.848
255.481, 158.337
256.853, 236.840
258.226, 146.355
259.598, 176.882
260.970, 142.420
262.341, 299.970
263.713, 231.532
265.084, 209.106
266.455, 200.693
267.826, 125.291
269.197, 266.900
270.567, 413.522
271.937, 630.156
273.307, 960.800
274.677, 1208.456
276.046, 1585.123
277.415, 1615.802
278.784, 1770.492
280.153, 2226.211
281.522, 2655.942
282.890, 3709.686
284.258, 4852.451
285.626, 6819.214
286.993, 8800.987
288.361, 11042.772
289.728, 13163.917
291.095, 13925.152
292.462, 12956.441
293.828, 10457.778
295.195, 7809.146
296.561, 5420.536
297.927, 3811.949
299.292, 2778.383
300.658, 1963.837
302.023, 1682.283
303.388, 1408.744
304.753, 1134.222
306.117, 1023.715
307.481, 846.225
308.846, 857.749
310.209, 768.288
311.573, 1000.841
312.936, 1266.948
314.300, 1780.508
315.663, 2633.054
317.025, 3557.615
318.388, 4904.191
319.750, 5795.783
321.112, 6137.389
322.474, 5189.007
323.836, 4051.641
325.197, 3056.290
326.558, 2299.934
327.919, 2019.606
329.280, 1818.916
330.640, 1649.615
332.001, 1610.330
333.361, 1454.058
334.721, 1501.099
336.080, 1407.932
337.440, 1282.688
338.799, 1254.956
340.158, 1105.746
341.517, 1141.478
342.875, 954.624
344.233, 967.444
345.591, 890.264
346.949, 941.107
348.307, 988.961
349.664, 1007.825
351.022, 1487.698
352.379, 1659.233
353.735, 2419.136
355.092, 3029.045
356.448, 3599.342
357.804, 4207.274
359.160, 3954.234
360.516, 3729.203
361.871, 2951.180
363.226, 2340.254
364.581, 1928.249
365.936, 1412.251
367.291, 1278.262
368.645, 1003.280
369.999, 823.834
371.353, 768.870
372.707, 552.933
374.060, 593.005
375.413, 436.083
376.766, 497.170
378.119, 340.263
379.472, 418.501
380.824, 460.610
382.176, 369.726
383.528, 454.848
384.880, 362.978
386.231, 341.114
387.582, 309.258
388.933, 217.408
390.284, 237.565
391.635, 124.730
392.985, 168.750
394.335, 187.926
395.685, 106.036
397.035, 134.226
398.384, 63.421
399.733, 123.623
401.083, 84.830
402.431, 58.042
403.780, 76.261
405.128, 14.484
406.476, 48.713
407.824, 40.948
409.172, 148.188
410.520, 120.433
411.867, 55.683
413.214, 162.938
414.561, 64.199
415.907, 168.464
417.254, 172.734
418.600, 92.010
419.946, 121.290
421.292, 77.576
422.637, 92.865
423.983, 68.160
425.328, 42.459
426.673, 160.764
428.017, 8.074
429.362, 164.388
430.706, 122.707
432.050, 65.139
433.394, 25.492
434.737, 38.856
436.081, 116.223
437.424, 1.594
438.767, 22.968
440.109, 43.347
441.452, 0.271
442.794, 124.115
444.136, 118.504
445.478, 245.896
446.820, 247.292
448.161, 484.692
449.502, 827.096
450.843, 877.503
452.184, 885.916
453.524, 556.339
454.865, 328.767
456.205, 261.200
457.545, 127.638
458.884, 138.081
460.224, 9.529
461.563, 95.988
462.902, 70.451
464.241, 105.919
465.579, 155.393
466.918, 57.869
468.256, 107.361
469.594, 46.856
470.931, 69.356
472.269, 159.861
473.606, 138.368
474.943, 164.884
476.280, 113.404
477.617, 61.928
478.953, 155.455
480.289, 8.985
481.625, 148.519
482.961, 43.056
484.297, 61.602
485.632, 57.469
486.967, 14.020
488.302, 132.914
489.637, 34.529
490.971, 93.017
492.305, 30.349
493.639, 62.899
494.973, 121.019
496.307, 41.739
497.640, 75.802
498.973, 11.281
500.306, 70.259
501.639, 96.799
502.971, 155.654
504.304, 135.818
505.636, 20.145
506.968, 27.319
508.299, 57.805
509.631, 47.292
510.962, 48.780
512.293, 12.695
513.624, 8.801
514.954, 56.316
516.285, 7.154
517.615, 87.040
518.945, 18.907
520.275, 48.420
521.604, 53.932
522.933, 8.445
524.262, 131.977
525.591, 19.617
526.920, 121.133
528.248, 62.648
529.577, 7.336
530.905, 159.173
532.232, 133.409
533.560, 128.925
534.887, 181.442
536.214, 155.046
537.541, 203.561
538.868, 146.075
540.195, 395.590
541.521, 406.110
542.847, 590.631
544.173, 796.151
545.498, 1055.717
546.824, 1600.238
548.149, 1742.756
549.474, 1996.282
550.799, 1947.806
552.124, 1914.333
553.448, 1830.860
554.772, 1355.396
556.096, 1114.930
557.420, 846.461
558.743, 599.012
560.067, 517.562
561.390, 347.108
562.712, 422.672
564.035, 289.234
565.358, 129.793
566.680, 324.350
568.002, 100.904
569.324, 294.457
570.645, 225.008
571.967, 194.556
573.288, 263.101
574.609, 141.643
575.929, 277.182
577.250, 108.719
578.570, 99.327
579.890, 183.857
581.210, 118.384
582.530, 180.979
583.850, 128.499
585.169, 110.370
586.488, 178.883
587.807, 47.394
589.125, 120.900
590.444, 23.597
591.762, 190.257
593.080, 145.931
594.398, 86.402
595.715, 218.870
597.033, 89.333
598.350, 131.855
599.667, 229.368
600.983, 131.806
602.300, 360.300
603.616, 190.741
604.932, 334.178
606.248, 329.020
607.564, 204.447
608.879, 286.869
610.194, 239.287
611.509, 208.758
612.824, 161.165
614.139, 155.896
615.453, 103.976
616.767, 162.368
618.081, 141.828
619.395, 169.693
620.709, 173.375
622.022, 167.722
623.335, 187.913
624.648, 160.272
625.961, 208.085
627.273, 203.434
628.586, 365.885
629.898, 66.221
631.209, 243.552
632.521, 220.478
633.833, 91.853
635.144, 147.166
636.455, 105.472
637.766, 145.772
639.076, 53.126
640.387, 100.414
641.697, 128.883
643.007, 22.158
644.316, 218.423
645.626, 32.318
646.935, 65.905
648.244, 143.497
649.553, 8.707
650.862, 200.902
652.171, 14.091
653.479, 11.268
654.787, 141.342
656.095, 18.500
657.403, 111.140
658.710, 46.263
660.017, 61.378
661.324, 239.698
662.631, 6.802
663.938, 131.906
665.244, 45.390
666.550, 79.468
667.856, 178.539
669.162, 14.379
670.468, 91.017
671.773, 129.175
673.078, 45.202
674.383, 9.845
675.688, 50.149
676.992, 102.812
678.297, 59.765
679.601, 103.712
680.905, 45.652
682.208, 28.584
683.512, 182.508
684.815, 97.425
686.118, 14.334
687.421, 129.707
688.724, 55.471
690.026, 162.372
691.328, 70.500
692.630, 32.329
693.932, 150.149
695.234, 155.962
696.535, 75.768
697.836, 96.494
699.137, 120.852
700.438, 222.637
701.739, 42.674
703.039, 261.818
704.339, 67.606
705.639, 176.323
706.939, 368.071
708.238, 136.815
709.538, 396.549
710.837, 337.864
712.136, 314.583
713.434, 449.293
714.733, 438.927
716.031, 629.623
717.329, 583.311
718.627, 500.567
719.925, 775.240
721.222, 536.905
722.519, 427.562
723.816, 510.210
725.113, 181.183
726.410, 306.816
727.706, 199.442
729.003, 266.060
730.299, 236.670
731.594, 141.272
732.890, 246.867
734.185, 49.454
735.480, 177.032
736.775, 186.604
738.070, 50.167
739.365, 210.721
740.659, 27.269
741.953, 219.805
743.247, 130.334
744.541, 67.855
745.834, 280.369
747.128, 78.235
748.421, 4.209
749.714, 219.636
751.006, 77.055
752.299, 196.467
753.591, 47.873
754.883, 49.270
756.175, 168.660
757.467, 51.043
758.758, 141.419
760.050, 63.788
761.341, 19.150
762.632, 154.501
763.922, 68.845
765.213, 172.183
766.503, 3.513
767.793, 67.827
769.083, 138.134
770.372, 57.435
771.662, 187.729
772.951, 42.017
774.240, 4.703
775.529, 81.558
776.817, 32.811
778.106, 59.058
779.394, 91.298
780.682, 21.468
781.970, 200.737
783.257, 30.937
784.545, 72.129
785.832, 60.315
787.119, 7.496
788.405, 41.665
789.692, 119.826
790.978, 62.982
792.264, 176.132
793.550, 39.276
794.836, 133.414
796.122, 4.454
797.407, 142.662
798.692, 128.453
799.977, 73.557
801.262, 197.317
802.546, 154.410
803.830, 165.506
805.115, 253.811
806.398, 85.896
807.682, 177.408
808.966, 120.798
810.249, 142.878
811.532, 124.579
812.815, 52.652
814.097, 194.721
815.380, 1.215
816.662, 77.879
817.944, 190.405
819.226, 63.504
820.508, 194.543
821.789, 138.586
823.070, 42.375
824.351, 104.611
825.632, 61.381
826.913, 115.587
828.193, 138.537
829.474, 97.818
830.754, 152.423
832.033, 81.379
833.313, 265.333
834.592, 265.281
835.872, 140.213
837.151, 175.033
838.429, 76.976
839.708, 47.914
840.986, 86.349
842.265, 32.715
843.543, 208.512
844.820, 5.544
846.098, 65.395
847.375, 79.242
848.653, 27.178
849.930, 52.110
851.206, 19.938
852.483, 12.997
853.759, 55.942
855.035, 6.119
856.311, 9.232
857.587, 6.698
858.863, 39.374
860.138, 100.536
861.413, 23.540
862.688, 105.373
863.963, 50.713
865.238, 42.178
866.512, 99.068
867.786, 89.040
869.060, 66.810
870.334, 94.658
871.607, 84.492
872.881, 189.318
874.154, 34.143
875.427, 27.970
876.700, 199.797
877.972, 11.373
879.244, 155.454
880.517, 129.282
881.788, 26.111
883.060, 47.942
884.332, 90.774
885.603, 299.607
886.874, 166.440
888.145, 72.204
889.416, 307.042
890.686, 150.882
891.957, 295.652
893.227, 378.494
894.497, 242.985
895.767, 402.833
897.036, 375.683
898.305, 453.560
899.575, 645.438
900.843, 489.950
902.112, 880.645
903.381, 736.537
904.649, 900.435
905.917, 1257.333
907.185, 1159.169
908.453, 1643.018
909.720, 1953.925
910.988, 2474.787
912.255, 3195.702
913.522, 4336.620
914.788, 6047.132
916.055, 8288.059
917.321, 10578.982
918.587, 13279.912
919.853, 12709.785
921.119, 11050.722
922.385, 8721.661
923.650, 6322.592
924.915, 5093.537
926.180, 3934.414
927.445, 3023.884
928.709, 2924.841
929.974, 2255.692
931.238, 2016.653
932.502, 1737.624
933.765, 1386.138
935.029, 1467.116
936.292, 1227.990
937.555, 1188.976
938.818, 1239.965
940.081, 1210.359
941.344, 1541.301
942.606, 1532.303
943.868, 1743.309
945.130, 2284.316
946.392, 2555.270
947.653, 3136.285
948.915, 3276.120
950.176, 3337.146
951.437, 3578.179
952.697, 3029.216
953.958, 2540.271
955.218, 2101.329
956.478, 1632.393
957.738, 1243.465
958.998, 924.542
960.258, 825.627
961.517, 752.717
962.776, 478.814
964.035, 605.927
965.294, 536.044
966.553, 272.168
967.811, 546.750
969.069, 177.883
970.327, 320.024
971.585, 410.771
972.842, 89.922
974.100, 382.078
975.357, 247.223
976.614, 188.399
977.871, 157.455
979.127, 104.644
980.384, 189.838
981.640, 162.039
982.896, 84.275
984.152, 202.517
985.407, 127.762
986.663, 170.040
987.918, 187.321
989.173, 125.617
990.428, 193.918
991.682, 113.225
992.937, 162.562
994.191, 206.716
995.445, 152.083
996.699, 183.181
997.952, 196.574
999.206, 132.974
1000.459, 415.404
1001.712, 167.365
1002.965, 376.881
1004.218, 412.066
1005.470, 240.520
1006.722, 628.734
1007.974, 476.165
1009.226, 551.622
1010.478, 881.152
1011.729, 896.198
1012.981, 1106.699
1014.232, 1518.433
1015.483, 1787.705
1016.733, 2399.281
1017.984, 2631.420
1019.234, 2948.074
1020.484, 2999.690
1021.734, 2571.724
1022.984, 2438.773
1024.233, 1723.506
1025.483, 1485.683
1026.732, 1427.334
1027.981, 849.619
1029.229, 1000.947
1030.478, 782.868
1031.726, 544.918
1032.974, 846.622
1034.222, 428.552
1035.470, 530.266
1036.718, 632.033
1037.965, 342.491
1039.212, 526.223
1040.459, 457.974
1041.706, 293.727
1042.952, 511.482
1044.199, 333.950
1045.445, 495.760
1046.691, 447.536
1047.937, 405.278
1049.182, 647.077
1050.428, 468.910
1051.673, 460.772
1052.918, 692.609
1054.163, 694.790
1055.407, 906.648
1056.652, 928.509
1057.896, 940.819
1059.140, 1322.682
1060.384, 1604.545
1061.628, 2107.168
1062.871, 3119.035
1064.114, 3411.020
1065.357, 4092.889
1066.600, 3744.758
1067.843, 3066.832
1069.085, 2578.700
1070.328, 1850.574
1071.570, 1512.531
1072.812, 1294.405
1074.053, 836.533
1075.295, 908.703
1076.536, 500.574
1077.777, 542.509
1079.018, 614.394
1080.259, 346.276
1081.499, 439.156
1082.740, 321.043
1083.980, 203.288
1085.220, 315.185
1086.460, 247.078
1087.699, 259.535
1088.939, 361.426
1090.178, 143.316
1091.417, 305.208
1092.656, 257.097
1093.894, 248.982
1095.133, 450.868
1096.371, 52.750
1097.609, 345.220
1098.847, 417.101
1100.084, 238.980
1101.322, 580.991
1102.559, 532.864
1103.796, 564.734
1105.033, 646.830
1106.270, 828.693
1107.506, 930.790
1108.742, 982.732
1109.978, 1064.655
1111.214, 1027.252
1112.450, 989.097
1113.686, 931.150
1114.921, 903.758
1116.156, 585.588
1117.391, 747.686
1118.626, 499.824
1119.860, 241.644
1121.095, 314.122
1122.329, 225.985
1123.563, 257.808
1124.797, 270.395
1126.030, 82.218
1127.264, 204.914
1128.497, 186.926
1129.730, 108.749
1130.963, 213.132
1132.195, 54.972
1133.428, 186.773
1134.660, 255.061
1135.892, 86.848
1137.124, 290.404
1138.355, 62.524
1139.587, 154.285
1140.818, 212.242
1142.049, 126.016
1143.280, 155.877
1144.511, 181.717
1145.741, 113.380
1146.972, 85.432
1148.202, 93.396
1149.432, 84.976
1150.662, 197.546
1151.891, 30.019
1153.121, 201.533
1154.350, 117.557
1155.579, 19.244
1156.808, 170.887
1158.036, 143.472
1159.265, 64.972
1160.493, 207.804
1161.721, 50.082
1162.949, 21.681
1164.176, 246.782
1165.404, 1.745
1166.631, 249.803
1167.858, 188.379
1169.085, 29.767
1170.312, 232.119
1171.538, 45.497
1172.765, 5.834
1173.991, 249.507
1175.217, 1.146
1176.442, 262.480
1177.668, 92.207
1178.893, 63.863
1180.118, 175.135
1181.343, 97.152
1182.568, 208.338
1183.793, 140.463
1185.017, 3.138
1186.241, 274.265
1187.465, 159.500
1188.689, 210.593
1189.913, 331.667
1191.136, 15.454
1192.360, 156.485
1193.583, 257.952
1194.806, 76.518
1196.028, 314.406
1197.251, 165.758
1198.473, 166.643
1199.695, 197.509
1200.917, 103.367
1202.139, 184.190
1203.361, 295.002
1204.582, 76.178
1205.803, 266.944
1207.024, 208.017
1208.245, 29.038
1209.466, 339.738
1210.686, 160.736
1211.906, 191.434
1213.126, 292.070
1214.346, 142.958
1215.566, 323.550
1216.785, 214.122
1218.005, 175.148
1219.224, 275.678
1220.443, 136.225
1221.661, 126.711
1222.880, 307.173
1224.098, 189.500
1225.316, 379.918
1226.534, 240.315
1227.752, 22.148
1228.970, 382.493
1230.187, 122.817
1231.404, 223.608
1232.621, 373.886
1233.838, 74.288
1235.055, 244.526
1236.271, 754.743
1237.488, 373.792
1238.704, 555.731
1239.920, 315.877
1241.135, 496.351
1242.351, 410.634
1243.566, 76.562
1244.781, 266.643
1245.996, 336.706
1247.211, 186.754
1248.426, 306.894
1249.640, 226.905
1250.854, 167.156
1252.068, 347.129
1253.282, 167.084
1254.496, 187.312
1255.709, 437.227
1256.922, 67.118
1258.135, 346.989
1259.348, 176.830
1260.561, 66.620
1261.774, 346.379
1262.986, 166.118
1264.198, 156.258
1265.410, 365.902
1266.622, 85.527
1267.833, 225.386
1269.045, 384.927
1270.256, 74.424
1271.467, 353.896
1272.678, 63.343
1273.888, 193.045
1275.099, 262.358
1276.309, 1.648
1277.519, 231.396
1278.729, 320.579
1279.939, 60.273
1281.148, 389.303
1282.358, 18.323
1283.567, 157.307
1284.776, 266.258
1285.985, 54.821
1287.193, 314.023
1288.402, 186.083
1289.610, 25.141
1290.818, 353.572
1292.026, 142.248
1293.233, 59.137
1294.441, 309.534
1295.648, 53.543
1296.855, 62.271
1298.062, 259.439
1299.269, 32.113
1300.475, 196.735
1301.682, 204.783
1302.888, 43.129
1304.094, 221.682
1305.300, 26.403
1306.505, 64.633
1307.711, 192.608
1308.916, 179.569
1310.121, 218.513
1311.326, 196.002
1312.530, 75.975
1313.735, 231.986
1314.939, 49.507
1316.143, 47.408
1317.347, 322.177
1318.551, 0.528
1319.755, 147.262
1320.958, 214.391
1322.161, 97.881
1323.364, 129.558
1324.567, 216.835
1325.770, 64.430
1326.972, 421.771
1328.174, 49.300
1329.377, 16.743
1330.578, 403.470
1331.780, 29.108
1332.982, 228.264
1334.183, 245.608
1335.384, 7.074
1336.585, 269.506
1337.786, 116.721
1338.987, 36.053
1340.187, 405.186
1341.387, 112.340
1342.587, 219.430
1343.787, 416.494
1344.987, 46.435
1346.186, 370.268
1347.386, 368.862
1348.585, 125.842
1349.784, 492.349
1350.982, 139.317
1352.181, 146.227
1353.379, 332.358
1354.578, 139.228
1355.776, 205.958
1356.973, 462.787
1358.171, 149.600
1359.369, 356.189
1360.566, 352.971
1361.763, 99.736
1362.960, 466.404
1364.157, 203.144
1365.353, 329.619
1366.550, 455.983
1367.746, 2.633
1368.942, 379.218
1370.138, 425.842
1371.333, 12.458
1372.529, 478.069
1373.724, 324.818
1374.919, 91.065
1376.114, 527.668
1377.309, 176.288
1378.503, 322.354
1379.697, 518.996
1380.892, 75.283
1382.086, 341.316
1383.279, 527.130
1384.473, 125.410
1385.666, 523.054
1386.860, 281.259
1388.053, 229.290
1389.246, 477.186
1390.438, 275.033
1391.631, 182.926
1392.823, 610.146
1394.015, 147.057
1395.207, 364.697
1396.399, 412.245
1397.591, 139.344
1398.782, 526.306
1399.973, 263.102
1401.164, 310.618
1402.355, 495.307
1403.546, 225.362
1404.737, 350.785
1405.927, 597.831
1407.117, 87.805
1408.307, 389.885
1409.497, 446.706
1410.686, 116.150
1411.876, 561.104
1413.065, 272.606
1414.254, 229.328
1415.443, 504.911
1416.632, 109.155
1417.820, 287.874
1419.008, 574.361
1420.197, 41.411
1421.384, 505.291
1422.572, 378.609
1423.760, 44.562
1424.947, 548.489
1426.134, 223.567
1427.322, 288.450
1428.508, 552.442
1429.695, 132.484
1430.882, 284.438
1432.068, 309.729
1433.254, 118.715
1434.440, 293.911
1435.626, 311.829
1436.811, 87.534
1437.997, 632.566
1439.182, 57.158
1440.367, 232.196
1441.552, 527.657
1442.737, 12.680
1443.921, 277.293
1445.105, 492.613
1446.290, 47.963
1447.474, 549.827
1448.657, 472.336
1449.841, 137.471
1451.024, 611.620
1452.208, 246.340
1453.391, 230.039
1454.574, 634.908
1455.756, 218.979
1456.939, 243.622
1458.121, 568.145
1459.303, 142.312
1460.485, 466.033
1461.667, 459.533
1462.849, 133.568
1464.030, 557.499
1465.211, 411.489
1466.392, 134.354
1467.573, 718.334
1468.754, 301.643
1469.935, 245.681
1471.115, 558.882
1472.295, 283.145
1473.475, 386.095
1474.655, 419.126
1475.835, 223.704
1477.014, 578.272
1478.193, 343.000
1479.372, 257.789
1480.551, 612.771
1481.730, 257.481
1482.909, 351.777
1484.087, 725.236
1485.265, 180.201
1486.443, 374.316
1487.621, 629.408
1488.799, 35.473
1489.976, 609.698
1491.153, 504.915
1492.331, 50.178
1493.507, 635.543
1494.684, 331.018
1495.861, 96.626
1497.037, 632.400
1498.213, 158.353
1499.389, 274.502
1500.565, 700.904
1501.741, 97.470
1502.916, 434.201
1504.092, 541.141
1505.267, 128.401
1506.442, 525.976
1507.617, 340.726
1508.791, 117.659
1509.966, 695.121
1511.140, 262.833
1512.314, 120.796
1513.488, 568.984
1514.662, 47.382
1515.835, 395.911
1517.009, 536.692
1518.182, 11.569
1519.355, 471.455
1520.528, 341.511
1521.700, 51.332
1522.873, 385.704
1524.045, 0.000
##END=



