##NAMES=Andradite
##RRUFFID=R100138
##IDEAL CHEMISTRY=Ca_3_Fe^3+^_2_(SiO_4_)_3_
##LOCALITY=Madagascar
##OWNER=RRUFF
##SOURCE=William W. Pinch
##DESCRIPTION=Colorless cut gemstone
##STATUS=The identification of this mineral has been confirmed only by single crystal X-ray diffraction.
##URL=rruff.info/R100138
91.03516, 0.0000000E+00
91.51727, 0.3111320
91.99939, 0.4040460
92.48151, 0.3224850
92.96362, 0.2436780
93.44574, 0.1284050
93.92786, 3.0771000E-02
94.40997, 2.4061000E-02
94.89210, 1.8060000E-03
95.37421, 6.6575997E-02
95.85633, 0.1363530
96.33845, 0.2104140
96.82056, 0.3131630
97.30268, 0.4827680
97.78480, 0.7073880
98.26691, 0.8645520
98.74903, 0.9196240
99.23115, 0.9057700
99.71326, 0.9617280
100.1954, 1.090882
100.6775, 1.268464
101.1596, 1.531347
101.6417, 1.936510
102.1239, 2.200238
102.6060, 2.225904
103.0881, 2.012762
103.5702, 1.924234
104.0523, 2.028318
104.5344, 2.126651
105.0166, 2.081878
105.4987, 1.739522
105.9808, 1.466271
106.4629, 1.400374
106.9450, 1.568048
107.4271, 1.670925
107.9093, 1.660247
108.3914, 1.596393
108.8735, 1.653640
109.3556, 2.107575
109.8377, 2.419128
110.3198, 2.432588
110.8020, 1.969066
111.2841, 1.740604
111.7662, 1.643773
112.2483, 1.582635
112.7304, 1.680837
113.2125, 2.122600
113.6947, 2.592278
114.1768, 2.797481
114.6589, 2.974419
115.1410, 3.025878
115.6231, 2.799626
116.1052, 2.475551
116.5874, 2.265983
117.0695, 2.552156
117.5516, 2.951539
118.0337, 3.070391
118.5158, 2.401418
118.9980, 1.734745
119.4801, 1.459975
119.9622, 1.558490
120.4443, 1.687182
120.9264, 1.626451
121.4085, 1.507218
121.8907, 1.486796
122.3728, 1.810592
122.8549, 2.143553
123.3370, 2.147106
123.8191, 1.799124
124.3012, 1.450764
124.7834, 1.459552
125.2655, 1.681773
125.7476, 1.810078
126.2297, 1.591936
126.7118, 1.223970
127.1939, 1.002277
127.6761, 0.9629090
128.1582, 0.9795780
128.6403, 0.9342210
129.1224, 0.8282200
129.6045, 0.6683600
130.0867, 0.3943080
130.5688, 5.8423001E-02
131.0509, 0.1585130
131.5330, 0.2329820
132.0151, 0.2054020
132.4972, 7.8588001E-02
132.9794, 0.1477350
133.4615, 0.2823470
133.9436, 0.1199230
134.4257, 0.3124520
134.9078, 0.6399970
135.3899, 0.8305440
135.8721, 0.8739930
136.3542, 0.6869260
136.8363, 0.2205500
137.3184, 0.2612000
137.8005, 0.5476270
138.2826, 0.6266490
138.7648, 0.6157120
139.2469, 0.5172620
139.7290, 0.3414190
140.2111, 0.1372080
140.6932, 0.1558280
141.1753, 0.3672780
141.6575, 0.2769770
142.1396, 0.2850120
142.6217, 0.6813530
143.1038, 0.7214620
143.5859, 0.3811350
144.0681, 0.1976640
144.5502, 0.1364030
145.0323, 0.2606600
145.5144, 0.7113830
145.9965, 1.920177
146.4786, 2.778076
146.9608, 2.906563
147.4429, 2.083711
147.9250, 1.490297
148.4071, 1.078402
148.8892, 0.9533500
149.3713, 1.183301
149.8535, 2.272490
150.3356, 3.222506
150.8177, 3.744967
151.2998, 3.632940
151.7819, 3.536946
152.2640, 3.372201
152.7462, 3.232288
153.2283, 3.285322
153.7104, 3.600169
154.1925, 4.060591
154.6746, 4.648767
155.1567, 5.482054
155.6389, 6.218103
156.1210, 6.836230
156.6031, 7.332584
157.0852, 7.707198
157.5673, 7.819179
158.0495, 7.907363
158.5316, 8.092926
159.0137, 8.442884
159.4958, 8.823997
159.9779, 9.200593
160.4600, 9.582382
160.9422, 10.00109
161.4243, 10.48254
161.9064, 10.99573
162.3885, 11.50613
162.8706, 11.83513
163.3527, 12.36864
163.8349, 13.31506
164.3170, 14.62609
164.7991, 16.07334
165.2812, 17.21280
165.7633, 18.58387
166.2454, 20.66509
166.7276, 23.43895
167.2097, 27.11550
167.6918, 31.49526
168.1739, 36.66517
168.6560, 43.65213
169.1381, 52.94499
169.6203, 64.39130
170.1024, 77.23763
170.5845, 91.69794
171.0666, 107.8111
171.5487, 126.6759
172.0309, 147.9341
172.5130, 167.4312
172.9951, 187.5135
173.4772, 203.3521
173.9593, 207.2428
174.4414, 191.0431
174.9236, 164.5361
175.4057, 135.7130
175.8878, 104.3100
176.3699, 76.27267
176.8520, 56.46770
177.3341, 43.33018
177.8163, 33.54654
178.2984, 26.83117
178.7805, 22.23691
179.2626, 18.60354
179.7447, 15.98815
180.2268, 14.00533
180.7090, 12.49090
181.1911, 11.36025
181.6732, 10.38334
182.1553, 9.456020
182.6374, 8.611872
183.1195, 7.957007
183.6017, 7.494799
184.0838, 7.154083
184.5659, 6.870934
185.0480, 6.639773
185.5301, 6.418487
186.0123, 6.149780
186.4944, 5.870622
186.9765, 5.730907
187.4586, 5.757316
187.9407, 5.830658
188.4228, 5.834277
188.9050, 5.759553
189.3871, 5.539075
189.8692, 5.034016
190.3513, 4.328846
190.8334, 3.809312
191.3155, 3.491784
191.7977, 3.333784
192.2798, 3.336288
192.7619, 3.505209
193.2440, 3.639155
193.7261, 3.665104
194.2082, 3.590382
194.6904, 3.380626
195.1725, 2.993762
195.6546, 2.540363
196.1367, 2.282778
196.6188, 2.234152
197.1009, 2.182889
197.5831, 1.944788
198.0652, 1.519383
198.5473, 1.365644
199.0294, 1.582158
199.5115, 1.962783
199.9937, 2.054052
200.4758, 1.793500
200.9579, 1.486717
201.4400, 1.268527
201.9221, 1.136891
202.4042, 1.151896
202.8864, 1.376095
203.3685, 1.698851
203.8506, 1.872705
204.3327, 1.892246
204.8148, 1.753396
205.2969, 1.349737
205.7791, 0.5995520
206.2612, 0.1994370
206.7433, 0.2824200
207.2254, 0.6685800
207.7075, 0.8995200
208.1896, 0.9394030
208.6718, 0.9245020
209.1539, 0.9362960
209.6360, 0.9916960
210.1181, 0.9796730
210.6002, 0.8715290
211.0823, 0.7054620
211.5645, 0.5913990
212.0466, 0.5454110
212.5287, 0.5136900
213.0108, 0.4314990
213.4929, 0.2310400
213.9750, 0.2733490
214.4572, 0.7073970
214.9393, 1.359438
215.4214, 1.637455
215.9035, 1.361745
216.3856, 1.060542
216.8678, 1.050274
217.3499, 1.447598
217.8320, 1.767765
218.3141, 1.940392
218.7962, 2.026201
219.2783, 2.195736
219.7605, 2.390645
220.2426, 2.727883
220.7247, 3.324352
221.2068, 4.326529
221.6889, 5.191324
222.1710, 5.786484
222.6532, 6.246120
223.1353, 6.963594
223.6174, 7.947985
224.0995, 9.181679
224.5816, 10.67389
225.0637, 12.51981
225.5459, 14.38142
226.0280, 16.03731
226.5101, 17.74971
226.9922, 20.33317
227.4743, 24.24663
227.9564, 28.36174
228.4386, 32.18003
228.9207, 35.47537
229.4028, 38.80684
229.8849, 41.95844
230.3670, 45.20854
230.8492, 49.32703
231.3313, 53.76789
231.8134, 59.82172
232.2955, 68.16226
232.7776, 78.74413
233.2597, 91.52637
233.7419, 107.2900
234.2240, 125.0711
234.7061, 142.6479
235.1882, 163.2542
235.6703, 178.7684
236.1524, 186.1641
236.6346, 185.6418
237.1167, 175.6841
237.5988, 152.3271
238.0809, 121.0385
238.5630, 93.70176
239.0451, 70.21105
239.5273, 51.13807
240.0094, 37.08060
240.4915, 29.45914
240.9736, 23.14718
241.4557, 18.25564
241.9378, 14.57417
242.4200, 11.75014
242.9021, 10.07888
243.3842, 8.761300
243.8663, 7.514131
244.3484, 6.316505
244.8306, 5.242659
245.3127, 4.275635
245.7948, 3.448952
246.2769, 2.855886
246.7590, 2.629778
247.2411, 2.420603
247.7233, 2.109189
248.2054, 1.669614
248.6875, 1.211317
249.1696, 0.6760250
249.6517, 0.1644780
250.1338, 0.1522010
250.6160, 0.2259250
251.0981, 0.1888980
251.5802, 5.4031000E-02
252.0623, 0.2152730
252.5444, 0.3991720
253.0265, 0.4787730
253.5087, 0.4869670
253.9908, 0.4596270
254.4729, 0.3731060
254.9550, 0.2947850
255.4371, 0.1992130
255.9192, 5.0747000E-02
256.4014, 0.1945570
256.8835, 0.7588540
257.3656, 1.489124
257.8477, 2.046875
258.3298, 2.233133
258.8120, 2.694996
259.2941, 3.587675
259.7762, 4.924809
260.2583, 6.534645
260.7404, 8.323542
261.2225, 10.51946
261.7047, 13.50548
262.1868, 17.57301
262.6689, 21.74610
263.1510, 26.17022
263.6331, 30.76462
264.1152, 33.97681
264.5974, 35.94218
265.0795, 36.26642
265.5616, 34.28542
266.0437, 29.35217
266.5258, 24.10868
267.0079, 18.77188
267.4901, 13.41558
267.9722, 9.118511
268.4543, 5.895527
268.9364, 3.612249
269.4185, 2.345304
269.9006, 2.358280
270.3828, 2.231310
270.8649, 1.697615
271.3470, 0.8646970
271.8291, 0.2321000
272.3112, 0.1772480
272.7933, 0.4638860
273.2755, 0.6694260
273.7576, 0.7766740
274.2397, 0.9340040
274.7218, 1.180317
275.2039, 1.475264
275.6860, 1.712036
276.1682, 1.903908
276.6503, 1.994436
277.1324, 1.893955
277.6145, 1.580713
278.0966, 1.392979
278.5787, 1.384701
279.0609, 1.481115
279.5430, 1.526955
280.0251, 1.518881
280.5072, 1.477400
280.9893, 1.408018
281.4715, 1.311720
281.9536, 1.202387
282.4357, 1.081387
282.9178, 0.9457820
283.3999, 0.7723010
283.8820, 0.5569320
284.3642, 0.3792340
284.8463, 0.3441070
285.3284, 0.4240670
285.8105, 0.2749200
286.2926, 0.1453130
286.7747, 0.6660800
287.2569, 1.025755
287.7390, 1.232647
288.2211, 1.517759
288.7032, 2.006552
289.1853, 2.654690
289.6674, 3.268103
290.1496, 3.843151
290.6317, 4.428638
291.1138, 4.960634
291.5959, 5.493740
292.0780, 6.386454
292.5602, 7.892603
293.0423, 9.793648
293.5244, 11.56462
294.0065, 13.19457
294.4886, 14.75413
294.9707, 16.52499
295.4529, 18.34569
295.9350, 19.60061
296.4171, 20.12367
296.8992, 20.02162
297.3813, 19.31825
297.8634, 18.05471
298.3456, 16.64088
298.8277, 15.34018
299.3098, 14.13127
299.7919, 12.93594
300.2740, 11.65462
300.7561, 10.54729
301.2383, 9.966347
301.7204, 9.873764
302.2025, 10.14154
302.6846, 10.61679
303.1667, 11.41823
303.6488, 12.73848
304.1310, 14.60021
304.6131, 16.96685
305.0952, 19.52132
305.5773, 22.49169
306.0594, 26.47604
306.5415, 31.75482
307.0237, 38.24218
307.5058, 45.89760
307.9879, 54.66645
308.4700, 64.69589
308.9521, 76.84029
309.4343, 90.29217
309.9164, 103.8793
310.3985, 120.0087
310.8806, 134.2064
311.3627, 143.7482
311.8448, 148.6029
312.3270, 147.8801
312.8091, 138.8728
313.2912, 124.7091
313.7733, 109.0822
314.2554, 90.62536
314.7375, 73.37353
315.2197, 59.33835
315.7018, 48.30827
316.1839, 39.44738
316.6660, 32.85168
317.1481, 27.96975
317.6302, 24.43600
318.1124, 22.41602
318.5945, 21.34563
319.0766, 21.09385
319.5587, 21.65022
320.0408, 22.95654
320.5229, 25.12450
321.0051, 27.94470
321.4872, 31.36305
321.9693, 35.57261
322.4514, 39.92555
322.9335, 44.92133
323.4156, 49.92559
323.8978, 53.71524
324.3799, 56.77492
324.8620, 57.98626
325.3441, 56.75183
325.8262, 52.51555
326.3083, 47.49170
326.7905, 40.82896
327.2726, 33.77171
327.7547, 27.93739
328.2368, 23.70562
328.7189, 20.30525
329.2010, 17.67013
329.6832, 15.84556
330.1653, 14.49678
330.6474, 13.79868
331.1295, 13.45667
331.6116, 13.22240
332.0938, 12.96993
332.5759, 13.02401
333.0580, 13.53323
333.5401, 14.43233
334.0222, 15.12516
334.5043, 15.35904
334.9865, 15.76860
335.4686, 16.78158
335.9507, 18.60722
336.4328, 20.43090
336.9149, 22.14860
337.3970, 23.89090
337.8792, 25.91355
338.3613, 28.26090
338.8434, 30.84999
339.3255, 33.61560
339.8076, 36.53064
340.2898, 39.91466
340.7719, 43.77161
341.2540, 48.14253
341.7361, 52.98224
342.2182, 58.10369
342.7003, 64.60944
343.1825, 72.84473
343.6646, 82.80572
344.1467, 93.54377
344.6288, 104.9144
345.1109, 118.1976
345.5930, 134.3419
346.0752, 153.3130
346.5573, 176.5153
347.0394, 204.2877
347.5215, 236.6480
348.0036, 274.8174
348.4857, 318.6229
348.9679, 366.3936
349.4500, 421.9046
349.9321, 481.2303
350.4142, 534.3267
350.8963, 581.9679
351.3784, 617.8824
351.8606, 633.4883
352.3427, 629.8229
352.8248, 610.5641
353.3069, 571.0516
353.7890, 519.8383
354.2711, 465.3573
354.7533, 407.6803
355.2354, 353.8621
355.7175, 309.5963
356.1996, 273.9403
356.6817, 245.2563
357.1638, 224.2278
357.6460, 208.9490
358.1281, 198.5270
358.6102, 192.8011
359.0923, 189.8697
359.5744, 188.7645
360.0565, 189.9597
360.5387, 193.8937
361.0208, 200.4516
361.5029, 210.1020
361.9850, 222.2589
362.4671, 237.4902
362.9492, 257.4366
363.4314, 281.2725
363.9135, 310.9320
364.3956, 347.3951
364.8777, 390.8967
365.3598, 441.5973
365.8419, 500.4386
366.3241, 566.1234
366.8062, 636.5069
367.2883, 717.1832
367.7704, 796.9365
368.2526, 876.4831
368.7347, 959.1144
369.2168, 1022.615
369.6989, 1070.027
370.1810, 1096.798
370.6631, 1099.344
371.1453, 1072.382
371.6274, 1028.373
372.1095, 964.0737
372.5916, 881.8858
373.0737, 799.3334
373.5558, 712.3263
374.0380, 629.9832
374.5201, 556.0453
375.0022, 491.4487
375.4843, 434.4981
375.9664, 385.5996
376.4485, 344.0185
376.9307, 307.4639
377.4128, 276.4486
377.8949, 249.5755
378.3770, 226.8776
378.8591, 208.3424
379.3412, 192.4765
379.8234, 179.5954
380.3055, 168.8182
380.7876, 159.8186
381.2697, 152.4409
381.7518, 145.5404
382.2339, 139.2767
382.7161, 132.9711
383.1982, 124.5993
383.6803, 114.2870
384.1624, 103.5305
384.6445, 93.05665
385.1266, 83.08372
385.6088, 74.19504
386.0909, 66.57214
386.5730, 59.81182
387.0551, 53.53531
387.5372, 47.85175
388.0193, 42.96625
388.5015, 39.28831
388.9836, 36.36420
389.4657, 33.79757
389.9478, 31.57149
390.4299, 29.53472
390.9120, 27.60738
391.3942, 25.79570
391.8763, 24.13846
392.3584, 22.78596
392.8405, 21.45627
393.3226, 19.85016
393.8047, 18.08452
394.2869, 16.69467
394.7690, 16.30373
395.2511, 16.07068
395.7332, 15.42340
396.2154, 13.93242
396.6975, 12.74330
397.1796, 12.38958
397.6617, 12.43264
398.1438, 12.12347
398.6259, 10.87178
399.1081, 9.732719
399.5902, 9.058701
400.0723, 8.937866
400.5544, 8.673433
401.0365, 8.186419
401.5186, 7.611359
402.0008, 7.050541
402.4829, 6.434954
402.9650, 5.960619
403.4471, 5.689327
403.9292, 5.573990
404.4113, 5.428988
404.8935, 5.252005
405.3756, 5.051777
405.8577, 4.813532
406.3398, 4.528193
406.8219, 4.313751
407.3040, 4.224176
407.7862, 4.125320
408.2683, 3.762646
408.7504, 3.121641
409.2325, 2.547209
409.7146, 2.082640
410.1967, 1.765003
410.6789, 1.766775
411.1610, 2.112883
411.6431, 2.416645
412.1252, 2.239990
412.6073, 1.743017
413.0894, 1.387119
413.5716, 1.288599
414.0537, 1.320686
414.5358, 1.438122
415.0179, 1.595013
415.5000, 1.621809
415.9821, 1.330412
416.4643, 0.9133830
416.9464, 0.5451810
417.4285, 0.2393340
417.9106, 9.9640004E-03
418.3927, 5.7103999E-02
418.8748, 6.9208004E-02
419.3570, 0.1515180
419.8391, 0.5039200
420.3212, 0.7840790
420.8033, 0.7322810
421.2854, 0.4432330
421.7675, 0.3615170
422.2497, 0.9802990
422.7318, 1.575359
423.2139, 1.702980
423.6960, 0.9775140
424.1781, 0.5229340
424.6602, 0.6482620
425.1424, 1.063128
425.6245, 1.344326
426.1066, 1.402990
426.5887, 1.434162
427.0709, 1.514503
427.5530, 1.644035
428.0351, 1.538967
428.5172, 1.023003
428.9993, 0.5126020
429.4814, 0.3212010
429.9636, 0.5240100
430.4457, 0.7819250
430.9278, 1.132114
431.4099, 1.459417
431.8920, 1.450258
432.3741, 1.056993
432.8563, 0.6985590
433.3384, 0.5951270
433.8205, 0.7045290
434.3026, 0.7579920
434.7847, 0.7584210
435.2668, 0.6866340
435.7490, 0.4439950
436.2311, 9.5301002E-02
436.7132, 0.1059150
437.1953, 3.2900002E-02
437.6774, 0.1319180
438.1595, 0.1714380
438.6417, 9.5236003E-02
439.1238, 5.7337001E-02
439.6059, 0.2754190
440.0880, 0.5514320
440.5701, 0.8652380
441.0522, 1.208630
441.5344, 1.646397
442.0165, 2.275238
442.4986, 3.003326
442.9807, 3.715330
443.4628, 4.322548
443.9449, 4.956167
444.4271, 5.647413
444.9092, 6.401194
445.3913, 7.247597
445.8734, 8.069353
446.3555, 9.061449
446.8376, 10.30907
447.3198, 11.79129
447.8019, 13.60338
448.2840, 15.94618
448.7661, 18.51387
449.2482, 20.87220
449.7303, 22.85658
450.2125, 24.91593
450.6946, 27.45434
451.1767, 30.35745
451.6588, 31.76831
452.1409, 31.46624
452.6230, 30.21905
453.1052, 28.46265
453.5873, 26.15870
454.0694, 23.59013
454.5515, 20.70053
455.0337, 17.72757
455.5158, 15.12576
455.9979, 12.85947
456.4800, 10.74057
456.9621, 8.554653
457.4442, 6.477339
457.9264, 4.952452
458.4085, 3.972916
458.8906, 3.221064
459.3727, 2.428715
459.8548, 1.706633
460.3369, 1.293703
460.8191, 1.354040
461.3012, 1.450539
461.7833, 1.157713
462.2654, 0.6428180
462.7475, 0.2547510
463.2296, 0.2694380
463.7118, 0.3456750
464.1939, 0.3000450
464.6760, 0.1195140
465.1581, 9.6785001E-02
465.6402, 0.4694270
466.1223, 0.7747940
466.6045, 0.8493420
467.0866, 0.3524630
467.5687, 1.9967999E-02
468.0508, 1.4500000E-02
468.5329, 0.1309200
469.0150, 0.1941090
469.4972, 0.1258030
469.9793, 5.0884001E-02
470.4614, 2.4916001E-02
470.9435, 5.5254001E-02
471.4256, 3.6995001E-02
471.9077, 0.3096180
472.3899, 0.5904120
472.8720, 0.6819730
473.3541, 0.5583840
473.8362, 0.5816650
474.3183, 0.8189700
474.8004, 1.199629
475.2826, 1.595903
475.7647, 2.008219
476.2468, 2.458862
476.7289, 3.020449
477.2110, 3.615761
477.6931, 4.011745
478.1753, 4.213976
478.6574, 4.456430
479.1395, 4.918400
479.6216, 5.538181
480.1037, 6.198107
480.5858, 6.865437
481.0680, 7.628916
481.5501, 8.607946
482.0322, 9.748875
482.5143, 10.93351
482.9964, 12.02192
483.4786, 13.21323
483.9607, 14.56990
484.4428, 16.07624
484.9249, 17.91735
485.4070, 20.12298
485.8892, 22.66955
486.3713, 25.55518
486.8534, 28.26005
487.3355, 31.98162
487.8176, 36.86988
488.2997, 42.70317
488.7819, 49.22877
489.2640, 56.78592
489.7461, 64.38210
490.2282, 71.81255
490.7103, 79.11213
491.1924, 86.04131
491.6746, 92.85470
492.1567, 98.37340
492.6388, 101.7482
493.1209, 102.9832
493.6030, 101.6380
494.0851, 97.37640
494.5673, 91.32799
495.0494, 84.71440
495.5315, 77.59826
496.0136, 70.48317
496.4957, 63.00689
496.9778, 55.97100
497.4600, 50.01637
497.9421, 45.14960
498.4242, 41.14405
498.9063, 38.00474
499.3884, 35.55264
499.8705, 33.60078
500.3527, 32.15646
500.8348, 31.15440
501.3169, 30.61134
501.7990, 30.50658
502.2811, 30.81619
502.7632, 31.60686
503.2454, 32.73623
503.7275, 34.11578
504.2096, 35.76320
504.6917, 38.00849
505.1738, 40.82705
505.6559, 44.22935
506.1381, 48.08825
506.6202, 52.19512
507.1023, 57.54112
507.5844, 63.98625
508.0665, 71.89232
508.5486, 81.42941
509.0308, 92.63544
509.5129, 106.1367
509.9950, 121.9346
510.4771, 140.3337
510.9592, 162.6096
511.4413, 188.5580
511.9235, 216.9513
512.4056, 248.1620
512.8877, 280.8177
513.3698, 315.0835
513.8519, 351.3533
514.3340, 382.7917
514.8162, 407.3534
515.2983, 423.1367
515.7804, 427.7277
516.2625, 417.7292
516.7446, 399.8012
517.2267, 374.1825
517.7089, 342.6282
518.1910, 309.6315
518.6731, 272.5121
519.1552, 237.3946
519.6373, 206.7056
520.1194, 180.2996
520.6016, 156.9064
521.0837, 136.9411
521.5658, 119.8090
522.0479, 105.3145
522.5300, 93.97781
523.0121, 83.83604
523.4943, 74.76241
523.9764, 66.80581
524.4585, 60.18330
524.9406, 55.05312
525.4227, 50.56271
525.9048, 46.51967
526.3870, 42.85035
526.8691, 39.22642
527.3513, 35.66491
527.8334, 32.52515
528.3155, 30.14331
528.7976, 28.26802
529.2797, 26.56862
529.7618, 25.00583
530.2440, 23.52758
530.7261, 22.11686
531.2082, 20.77498
531.6903, 19.53012
532.1724, 18.19301
532.6545, 17.14703
533.1367, 16.65659
533.6188, 16.57533
534.1009, 16.36039
534.5830, 15.89239
535.0651, 15.31576
535.5472, 14.62322
536.0294, 13.75719
536.5115, 13.16458
536.9936, 12.93561
537.4757, 12.85386
537.9578, 12.77997
538.4399, 12.73620
538.9221, 12.52968
539.4042, 12.08390
539.8863, 11.56116
540.3684, 11.22425
540.8505, 11.06860
541.3326, 11.04768
541.8148, 11.24029
542.2969, 11.49675
542.7790, 11.45613
543.2611, 11.16969
543.7432, 11.03977
544.2253, 11.48524
544.7075, 12.14734
545.1896, 12.61747
545.6717, 12.78721
546.1538, 13.07006
546.6359, 13.60996
547.1180, 14.40124
547.6002, 15.43081
548.0823, 16.99715
548.5644, 18.45587
549.0465, 19.56373
549.5286, 20.48189
550.0107, 21.70266
550.4929, 23.57818
550.9750, 25.23649
551.4571, 26.44386
551.9392, 27.20328
552.4213, 27.50785
552.9034, 27.37832
553.3856, 26.82079
553.8677, 25.72925
554.3498, 24.13339
554.8319, 22.40722
555.3140, 20.57565
555.7961, 18.67560
556.2783, 16.72375
556.7604, 14.75364
557.2425, 12.87908
557.7246, 11.04970
558.2067, 9.423489
558.6888, 8.205669
559.1710, 7.341597
559.6531, 6.662430
560.1352, 6.160610
560.6173, 5.775612
561.0994, 5.507538
561.5815, 5.360394
562.0637, 5.176039
562.5458, 4.930511
563.0279, 4.652143
563.5100, 4.332724
563.9921, 3.778927
564.4742, 3.583700
564.9564, 3.947680
565.4385, 4.515665
565.9206, 4.597599
566.4027, 4.046665
566.8848, 3.785364
567.3669, 4.138052
567.8491, 4.926298
568.3312, 5.538620
568.8133, 5.991121
569.2954, 6.645414
569.7775, 7.796274
570.2596, 9.279655
570.7418, 10.81859
571.2239, 12.40883
571.7060, 13.96580
572.1881, 15.37777
572.6702, 16.75781
573.1523, 18.28327
573.6345, 20.16445
574.1166, 21.84008
574.5987, 23.20648
575.0808, 24.22175
575.5629, 24.82959
576.0450, 25.15377
576.5272, 24.88931
577.0093, 23.91696
577.4914, 22.29427
577.9735, 20.27003
578.4556, 17.62985
578.9377, 15.06506
579.4199, 12.85932
579.9020, 11.04386
580.3841, 9.490404
580.8662, 8.214157
581.3483, 7.143080
581.8304, 6.291725
582.3126, 5.607126
582.7947, 4.890869
583.2768, 4.063906
583.7589, 3.324322
584.2410, 2.935085
584.7231, 2.784784
585.2053, 2.650526
585.6874, 2.373230
586.1696, 2.144968
586.6517, 2.117487
587.1338, 2.243263
587.6159, 2.307644
588.0980, 2.196213
588.5801, 2.064825
589.0623, 2.018835
589.5444, 2.100574
590.0265, 1.954016
590.5086, 1.424717
590.9907, 0.8735140
591.4728, 0.5960180
591.9550, 0.6377890
592.4371, 0.6607250
592.9192, 0.6458550
593.4013, 0.6040460
593.8834, 0.5275570
594.3655, 0.4241030
594.8477, 0.3696590
595.3298, 0.4195350
595.8119, 0.4961260
596.2940, 0.5019130
596.7761, 0.4460540
597.2582, 0.3629420
597.7404, 0.2301240
598.2225, 0.1083530
598.7046, 4.9038000E-02
599.1867, 5.4483000E-02
599.6688, 5.6235999E-02
600.1509, 2.0395000E-02
600.6331, 1.4915000E-02
601.1152, 1.9827001E-02
601.5973, 3.6839001E-02
602.0794, 2.8351000E-02
602.5615, 0.1364350
603.0436, 0.2740290
603.5258, 0.1147690
604.0079, 0.4324070
604.4900, 0.7499680
604.9721, 0.6884020
605.4542, 0.4289460
605.9363, 0.3373370
606.4185, 0.3832760
606.9006, 0.3748570
607.3827, 0.1370560
607.8648, 0.1409780
608.3469, 8.6963996E-02
608.8290, 0.2228200
609.3112, 0.3855860
609.7933, 2.3788000E-02
610.2754, 0.5366370
610.7575, 0.7973910
611.2396, 0.7327130
611.7217, 0.6156010
612.2039, 0.4653440
612.6860, 0.3485020
613.1681, 0.3096560
613.6502, 0.4329890
614.1323, 0.4824930
614.6144, 0.4290810
615.0966, 0.3270750
615.5787, 0.2457050
616.0608, 0.1834970
616.5429, 0.1518950
617.0250, 0.1560570
617.5071, 0.1931960
617.9893, 0.2988000
618.4714, 0.4532590
618.9535, 0.5023070
619.4356, 0.2292410
619.9177, 0.1207880
620.3998, 0.2114900
620.8820, 5.6400001E-02
621.3641, 0.1348050
621.8462, 0.3082340
622.3283, 0.4284950
622.8104, 0.4502860
623.2925, 0.3355220
623.7747, 0.2715180
624.2568, 0.3738190
624.7389, 0.4869550
625.2210, 0.4767300
625.7031, 0.2462440
626.1852, 0.1147570
626.6674, 0.1387560
627.1495, 0.2236400
627.6316, 0.2187400
628.1137, 0.1228380
628.5958, 2.9642001E-02
629.0779, 0.2797170
629.5601, 0.5221360
630.0422, 0.4593670
630.5243, 0.1670980
631.0064, 5.2700000E-04
631.4885, 0.3535910
631.9706, 0.7874690
632.4528, 0.8340870
632.9349, 0.5152400
633.4170, 0.2326270
633.8991, 0.1518720
634.3812, 0.1637860
634.8633, 0.2105810
635.3455, 0.2971050
635.8276, 0.4031110
636.3097, 0.5229600
636.7918, 0.6441400
637.2739, 0.7689410
637.7560, 0.9150880
638.2382, 0.9582090
638.7203, 0.8128250
639.2024, 0.7056500
639.6845, 1.179855
640.1666, 2.125063
640.6487, 2.594731
641.1309, 2.116402
641.6130, 1.295790
642.0951, 0.9148620
642.5772, 0.8811300
643.0594, 0.9533210
643.5415, 1.101042
644.0236, 1.240393
644.5057, 1.354656
644.9879, 1.432561
645.4700, 1.390263
645.9521, 1.021426
646.4342, 0.7000870
646.9163, 0.6078320
647.3984, 0.7894180
647.8806, 0.8842120
648.3627, 0.8428540
648.8448, 0.8092860
649.3269, 0.9467840
649.8090, 1.254831
650.2911, 1.363014
650.7733, 1.202529
651.2554, 1.027782
651.7375, 1.236235
652.2196, 1.663144
652.7017, 1.879039
653.1838, 1.647346
653.6660, 1.402409
654.1481, 1.541092
654.6302, 1.890002
655.1123, 2.142106
655.5944, 2.160079
656.0765, 2.102610
656.5587, 2.003372
657.0408, 1.864647
657.5229, 1.679705
658.0050, 1.372385
658.4871, 1.155107
658.9692, 1.132655
659.4514, 1.283502
659.9335, 1.337429
660.4156, 1.276834
660.8977, 1.244659
661.3798, 1.450257
661.8619, 1.760787
662.3441, 1.741288
662.8262, 1.356614
663.3083, 1.046332
663.7904, 1.315929
664.2725, 1.776958
664.7546, 1.962194
665.2368, 1.639867
665.7189, 1.414056
666.2010, 1.644041
666.6831, 2.013369
667.1652, 2.150899
667.6473, 1.901090
668.1295, 1.619049
668.6116, 1.237120
669.0937, 0.9278760
669.5758, 1.102345
670.0579, 1.836305
670.5400, 2.324889
671.0222, 2.220500
671.5043, 1.830127
671.9864, 1.891459
672.4685, 2.310725
672.9506, 2.591220
673.4327, 2.229218
673.9149, 1.761642
674.3970, 1.716164
674.8791, 2.043971
675.3612, 2.327190
675.8433, 2.489512
676.3254, 2.481881
676.8076, 2.197594
677.2897, 1.567140
677.7718, 1.283709
678.2539, 1.530883
678.7360, 1.838019
679.2181, 1.843885
679.7003, 1.506115
680.1824, 1.335992
680.6645, 1.380427
681.1466, 1.500096
681.6287, 1.537247
682.1108, 1.507237
682.5930, 1.477887
683.0751, 1.471422
683.5572, 1.488632
684.0393, 1.480500
684.5214, 1.481916
685.0035, 1.551963
685.4857, 1.889888
685.9678, 2.108523
686.4499, 2.031294
686.9320, 1.779784
687.4141, 1.609039
687.8962, 1.516539
688.3784, 1.516760
688.8605, 1.682155
689.3426, 1.940502
689.8247, 1.896999
690.3068, 1.540373
690.7889, 1.276299
691.2711, 1.427593
691.7532, 1.741263
692.2353, 1.606215
692.7174, 1.106431
693.1995, 0.7516810
693.6816, 1.012469
694.1638, 1.419546
694.6459, 1.618554
695.1280, 1.578077
695.6101, 1.538175
696.0922, 1.530728
696.5743, 1.547917
697.0565, 1.586698
697.5386, 1.659378
698.0207, 1.711011
698.5028, 1.749786
698.9849, 1.785135
699.4670, 1.805436
699.9492, 1.803688
700.4313, 1.843762
700.9135, 1.968190
701.3956, 2.100444
701.8777, 2.133359
702.3598, 2.103709
702.8419, 2.076300
703.3240, 2.052925
703.8062, 2.072675
704.2883, 2.177246
704.7704, 2.337653
705.2525, 2.511142
705.7346, 2.828808
706.2167, 2.978889
706.6989, 2.812040
707.1810, 2.482376
707.6631, 2.398391
708.1452, 2.616750
708.6273, 2.827594
709.1094, 2.920652
709.5916, 2.930016
710.0737, 2.956083
710.5558, 2.990439
711.0379, 2.976073
711.5200, 2.753220
712.0021, 2.574697
712.4843, 2.757910
712.9664, 3.204557
713.4485, 3.459168
713.9306, 3.165004
714.4127, 2.822722
714.8948, 2.638083
715.3770, 2.613031
715.8591, 2.742836
716.3412, 3.138733
716.8233, 3.469856
717.3054, 3.521939
717.7875, 3.299856
718.2697, 3.034410
718.7518, 2.719860
719.2339, 2.494147
719.7160, 2.589336
720.1981, 2.803082
720.6802, 2.763622
721.1624, 2.390785
721.6445, 2.090631
722.1266, 2.136167
722.6087, 2.339876
723.0908, 2.561427
723.5729, 2.868463
724.0551, 2.990003
724.5372, 2.801524
725.0193, 2.524095
725.5014, 2.397257
725.9835, 2.453915
726.4656, 2.444530
726.9478, 2.325915
727.4299, 2.187946
727.9120, 2.173368
728.3941, 2.229941
728.8762, 2.210038
729.3583, 2.030508
729.8405, 1.852541
730.3226, 1.836622
730.8047, 1.906490
731.2868, 1.937020
731.7689, 1.801768
732.2510, 1.725162
732.7332, 1.794136
733.2153, 1.946818
733.6974, 2.088438
734.1795, 2.268118
734.6616, 2.280617
735.1437, 2.010807
735.6259, 1.594087
736.1080, 1.393601
736.5901, 1.391512
737.0722, 1.435956
737.5543, 1.472527
738.0364, 1.501695
738.5186, 1.539369
739.0007, 1.574674
739.4828, 1.569613
739.9649, 1.487654
740.4470, 1.380391
740.9291, 1.247608
741.4113, 1.097521
741.8934, 1.011352
742.3755, 1.009025
742.8576, 1.036089
743.3397, 1.073704
743.8218, 1.121674
744.3040, 1.221521
744.7861, 1.375855
745.2682, 1.438003
745.7503, 1.168042
746.2324, 0.8007680
746.7145, 0.7790120
747.1967, 1.091493
747.6788, 1.349558
748.1609, 1.344682
748.6430, 1.205181
749.1251, 0.9788900
749.6072, 0.6307920
750.0894, 0.4198530
750.5715, 0.4121360
751.0536, 0.4534370
751.5357, 0.4838380
752.0178, 0.5096380
752.4999, 0.4024790
752.9821, 0.1361280
753.4642, 0.1014230
753.9463, 0.1099240
754.4284, 3.4701001E-02
754.9105, 0.2209490
755.3926, 0.4521380
755.8748, 0.5625540
756.3569, 0.2789840
756.8390, 7.3576003E-02
757.3211, 0.1760720
757.8032, 0.2422080
758.2853, 0.4050880
758.7675, 0.1118460
759.2496, 0.2863160
759.7318, 0.4691620
760.2139, 0.4072720
760.6960, 0.3344460
761.1781, 0.2574370
761.6602, 0.2155690
762.1423, 0.2543720
762.6245, 0.3659170
763.1066, 0.5633590
763.5887, 0.9026800
764.0708, 1.142543
764.5529, 0.9919020
765.0350, 0.6947560
765.5172, 0.5406510
765.9993, 0.7810060
766.4814, 0.9101520
766.9635, 0.8396380
767.4456, 0.6932660
767.9277, 0.6263000
768.4099, 0.6432470
768.8920, 0.7247320
769.3741, 0.9012050
769.8562, 1.058578
770.3383, 0.9867900
770.8204, 0.7577120
771.3026, 0.5625490
771.7847, 0.4600750
772.2668, 0.4077320
772.7489, 0.4006590
773.2310, 0.4177340
773.7131, 0.4273120
774.1953, 0.4706690
774.6774, 0.4376140
775.1595, 0.2808540
775.6416, 6.4322002E-02
776.1237, 0.1186310
776.6058, 0.2798750
777.0880, 0.2882400
777.5701, 5.4088999E-02
778.0522, 0.2370490
778.5343, 0.2282960
779.0164, 1.5890000E-02
779.4985, 0.1237960
779.9807, 2.5615999E-02
780.4628, 0.1068520
780.9449, 0.1951390
781.4270, 0.2258090
781.9091, 0.1696590
782.3912, 0.1103800
782.8734, 0.3115100
783.3555, 0.3875100
783.8376, 0.3616280
784.3197, 0.2384720
784.8018, 3.1810000E-03
785.2839, 8.5381001E-02
785.7661, 0.1181740
786.2482, 0.4685150
786.7303, 0.7482320
787.2124, 0.9785330
787.6945, 1.231495
788.1766, 1.639397
788.6588, 1.982645
789.1409, 2.012936
789.6230, 1.889168
790.1051, 2.094757
790.5872, 3.018652
791.0693, 3.722038
791.5515, 3.927671
792.0336, 3.835680
792.5157, 4.009398
792.9978, 4.449831
793.4799, 4.969934
793.9620, 5.505640
794.4442, 6.089542
794.9263, 6.877415
795.4084, 7.765724
795.8905, 8.476675
796.3726, 8.678045
796.8547, 8.891006
797.3369, 9.307980
797.8190, 9.914890
798.3011, 10.63144
798.7832, 11.47945
799.2653, 12.40263
799.7474, 13.41182
800.2296, 14.47389
800.7117, 15.43567
801.1938, 16.32007
801.6759, 17.38132
802.1580, 18.76067
802.6401, 20.33228
803.1223, 21.81591
803.6044, 23.36131
804.0865, 25.32266
804.5686, 28.39919
805.0507, 31.32472
805.5328, 33.26555
806.0150, 34.79553
806.4971, 37.49245
806.9792, 41.60711
807.4613, 46.04694
807.9434, 50.42791
808.4255, 55.06202
808.9077, 60.83313
809.3898, 67.60838
809.8719, 74.77983
810.3540, 81.71616
810.8361, 89.31014
811.3182, 98.74335
811.8004, 109.3371
812.2825, 119.6750
812.7646, 129.9418
813.2467, 139.2401
813.7288, 147.8169
814.2109, 155.2002
814.6931, 160.2494
815.1752, 163.0536
815.6573, 163.1409
816.1394, 160.0264
816.6215, 154.6575
817.1037, 148.3945
817.5858, 141.2104
818.0679, 132.8524
818.5500, 122.1936
819.0322, 111.3808
819.5143, 101.1722
819.9964, 91.71389
820.4785, 83.54604
820.9606, 77.10131
821.4427, 71.15359
821.9249, 65.43171
822.4070, 60.23339
822.8891, 56.33928
823.3712, 53.65908
823.8533, 51.28330
824.3354, 48.95327
824.8176, 46.83046
825.2997, 45.01259
825.7818, 43.54997
826.2639, 42.56752
826.7460, 42.29740
827.2281, 42.25265
827.7103, 42.35835
828.1924, 42.63022
828.6745, 43.08584
829.1566, 43.70177
829.6387, 44.55172
830.1208, 45.62627
830.6030, 46.96049
831.0851, 48.48486
831.5672, 50.27553
832.0493, 52.60731
832.5314, 55.63740
833.0135, 58.95391
833.4957, 61.88205
833.9778, 65.05213
834.4599, 69.26976
834.9420, 75.33259
835.4241, 81.44522
835.9063, 87.35770
836.3884, 93.59890
836.8705, 100.8379
837.3526, 109.0457
837.8347, 117.2315
838.3168, 125.3984
838.7990, 133.4054
839.2811, 141.8997
839.7632, 149.9718
840.2453, 156.4352
840.7274, 161.1977
841.2095, 164.0365
841.6917, 164.7727
842.1738, 163.5247
842.6559, 160.4726
843.1380, 155.4713
843.6201, 148.9620
844.1022, 140.6640
844.5844, 131.8229
845.0665, 123.3588
845.5486, 115.2666
846.0307, 107.6886
846.5128, 100.6017
846.9949, 93.93797
847.4771, 87.45540
847.9592, 81.52028
848.4413, 76.51872
848.9234, 72.67046
849.4055, 68.80991
849.8876, 64.62772
850.3698, 60.91275
850.8519, 58.23706
851.3340, 56.52647
851.8161, 55.04783
852.2982, 53.80043
852.7803, 52.77472
853.2625, 52.05835
853.7446, 51.50026
854.2267, 50.82400
854.7088, 50.06133
855.1909, 49.67292
855.6730, 49.87931
856.1552, 50.43670
856.6373, 51.19641
857.1194, 52.19492
857.6015, 53.81593
858.0836, 56.14151
858.5657, 58.55964
859.0479, 60.58555
859.5300, 62.68984
860.0121, 65.75657
860.4942, 69.67278
860.9763, 74.04562
861.4584, 78.59979
861.9406, 83.54131
862.4227, 88.62469
862.9048, 94.17894
863.3869, 100.9447
863.8690, 109.0759
864.3511, 117.9993
864.8333, 127.4730
865.3154, 137.9501
865.7975, 150.4993
866.2796, 165.2016
866.7617, 182.4436
867.2438, 202.2999
867.7260, 225.1155
868.2081, 251.2911
868.6902, 280.7438
869.1723, 313.7469
869.6544, 350.7957
870.1365, 391.9451
870.6187, 438.9673
871.1008, 487.9774
871.5829, 534.9734
872.0650, 579.6613
872.5471, 616.9353
873.0292, 646.9843
873.5114, 664.3864
873.9935, 663.0168
874.4756, 645.9551
874.9577, 615.9594
875.4399, 570.6709
875.9220, 520.8872
876.4041, 464.5508
876.8862, 408.9976
877.3683, 358.6492
877.8505, 313.5403
878.3326, 273.3337
878.8147, 238.2276
879.2968, 207.4178
879.7789, 181.1300
880.2610, 158.8526
880.7432, 139.6083
881.2253, 123.2715
881.7074, 108.9646
882.1895, 96.61565
882.6716, 85.93246
883.1537, 76.94390
883.6359, 69.57273
884.1180, 62.94810
884.6001, 57.07782
885.0822, 51.84309
885.5643, 47.27463
886.0464, 43.24518
886.5286, 39.47583
887.0107, 35.96993
887.4928, 32.74043
887.9749, 29.80667
888.4570, 27.24101
888.9391, 25.18555
889.4213, 23.55156
889.9034, 22.02263
890.3855, 20.64084
890.8676, 19.30869
891.3497, 17.98008
891.8318, 16.72267
892.3140, 15.60886
892.7961, 14.63903
893.2782, 13.80112
893.7603, 13.15265
894.2424, 12.49072
894.7245, 11.63029
895.2067, 10.70067
895.6888, 9.846249
896.1709, 9.078407
896.6530, 8.419497
897.1351, 7.848936
897.6172, 7.425482
898.0994, 7.345833
898.5815, 7.533319
899.0636, 7.335958
899.5457, 6.674994
900.0278, 5.976801
900.5099, 5.629223
900.9921, 5.380348
901.4742, 4.981047
901.9563, 4.389357
902.4384, 3.800541
902.9205, 3.073893
903.4026, 2.617552
903.8848, 2.732439
904.3669, 3.323782
904.8490, 3.605057
905.3311, 3.579769
905.8132, 3.397572
906.2953, 2.929932
906.7775, 2.516062
907.2596, 2.617712
907.7417, 3.077566
908.2238, 3.335358
908.7059, 3.073982
909.1880, 2.784481
909.6702, 2.557411
910.1523, 2.371260
910.6344, 2.168388
911.1165, 1.949982
911.5986, 1.764648
912.0807, 1.617470
912.5629, 1.529324
913.0450, 1.653690
913.5271, 1.809774
914.0092, 1.701071
914.4913, 0.9610840
914.9734, 0.4849910
915.4556, 0.5640810
915.9377, 0.8020970
916.4198, 0.8619920
916.9019, 0.7364370
917.3840, 0.5078850
917.8661, 0.1560360
918.3483, 7.2865002E-02
918.8304, 0.2840020
919.3125, 0.7543330
919.7946, 0.6295570
920.2767, 0.1654550
920.7589, 0.6941190
921.2410, 0.4792170
921.7231, 0.1293300
922.2052, 0.1572820
922.6873, 0.3767110
923.1694, 0.5008410
923.6516, 0.5298090
924.1337, 0.4382060
924.6158, 0.1233430
925.0979, 0.2420540
925.5800, 0.4232270
926.0621, 0.4684370
926.5443, 0.5010310
927.0264, 0.6151150
927.5085, 0.6468860
927.9906, 0.4885520
928.4727, 0.2867130
928.9548, 0.3329460
929.4370, 0.6405830
929.9191, 0.7795690
930.4012, 0.6482620
930.8833, 0.4436080
931.3654, 0.3923310
931.8475, 0.4018800
932.3297, 0.3113230
932.8118, 1.1920000E-02
933.2939, 8.9249998E-02
933.7761, 0.3260810
934.2582, 0.7441630
934.7403, 0.8397300
935.2224, 0.6049850
935.7045, 0.4356630
936.1866, 0.3298710
936.6688, 0.3212660
937.1509, 0.5471560
937.6330, 0.8043770
938.1151, 0.8228070
938.5972, 0.6455140
939.0793, 0.5201310
939.5615, 0.6199880
940.0436, 0.6514430
940.5257, 0.4914450
941.0078, 0.2429990
941.4899, 0.2039010
941.9720, 0.3664390
942.4542, 0.5382610
942.9363, 0.6902300
943.4184, 0.7737010
943.9005, 0.6951790
944.3826, 0.5317440
944.8647, 0.3910920
945.3469, 0.3247130
945.8290, 0.2401360
946.3111, 0.1858330
946.7932, 4.3566000E-02
947.2753, 0.3795000
947.7574, 1.060214
948.2396, 1.400190
948.7217, 1.379883
949.2038, 1.206941
949.6859, 0.8782910
950.1680, 0.5936150
950.6501, 0.5609230
951.1323, 0.7780960
951.6144, 1.004896
952.0965, 1.287636
952.5786, 1.435409
953.0607, 1.334821
953.5428, 1.095854
954.0250, 1.091492
954.5071, 1.273329
954.9892, 1.342518
955.4713, 1.087043
955.9534, 0.8472070
956.4355, 0.9029070
956.9177, 1.125903
957.3998, 1.338435
957.8819, 1.609399
958.3640, 1.657725
958.8461, 1.359800
959.3282, 1.076735
959.8104, 1.313224
960.2925, 1.885313
960.7746, 2.111542
961.2567, 1.938768
961.7388, 1.775043
962.2209, 1.896178
962.7031, 2.105968
963.1852, 2.306694
963.6673, 2.486057
964.1494, 2.552086
964.6315, 2.453878
965.1136, 2.427531
965.5958, 2.618122
966.0779, 2.872529
966.5600, 2.821074
967.0421, 2.569611
967.5242, 2.408407
968.0063, 2.475459
968.4885, 2.617499
968.9706, 2.873051
969.4527, 3.119503
969.9348, 3.174627
970.4169, 2.955624
970.8990, 2.998208
971.3812, 3.375180
971.8633, 3.773559
972.3454, 3.819839
972.8275, 3.715487
973.3096, 3.805472
973.7917, 4.115579
974.2739, 4.281132
974.7560, 3.916531
975.2381, 3.669872
975.7202, 3.821588
976.2023, 4.285351
976.6844, 4.665228
977.1666, 4.963847
977.6487, 5.199683
978.1308, 5.362187
978.6129, 5.475701
979.0950, 5.573264
979.5771, 5.674565
980.0593, 5.808673
980.5414, 6.004503
981.0235, 6.206770
981.5056, 6.431356
981.9877, 6.632174
982.4698, 6.749957
982.9520, 6.798674
983.4341, 6.859337
983.9162, 6.935778
984.3983, 7.097561
984.8804, 7.387752
985.3625, 7.795632
985.8447, 8.320933
986.3268, 8.972780
986.8089, 9.728769
987.2910, 10.60676
987.7731, 11.48766
988.2552, 12.28314
988.7374, 13.13960
989.2195, 14.24784
989.7016, 15.63024
990.1837, 17.35964
990.6658, 19.58544
991.1479, 21.90661
991.6301, 24.14099
992.1122, 26.37603
992.5944, 28.77289
993.0765, 31.40615
993.5586, 33.75746
994.0407, 35.85339
994.5228, 37.29635
995.0049, 37.80371
995.4871, 37.41925
995.9692, 36.02735
996.4513, 33.72065
996.9334, 31.11530
997.4155, 28.07077
997.8976, 25.14094
998.3798, 22.43507
998.8619, 19.97446
999.3440, 17.68761
999.8261, 15.56609
1000.308, 13.74386
1000.790, 12.28868
1001.272, 11.03669
1001.755, 9.825598
1002.237, 8.758473
1002.719, 7.967047
1003.201, 7.518372
1003.683, 7.178503
1004.165, 7.013115
1004.647, 6.783710
1005.129, 6.225187
1005.612, 5.505212
1006.094, 5.219884
1006.576, 5.259611
1007.058, 5.093137
1007.540, 4.158070
1008.022, 3.278603
1008.504, 2.734379
1008.986, 2.499488
1009.468, 2.629049
1009.951, 3.204576
1010.433, 3.410599
1010.915, 3.076658
1011.397, 2.572149
1011.879, 2.169778
1012.361, 1.928844
1012.843, 1.957621
1013.325, 2.298693
1013.807, 2.660275
1014.290, 3.186394
1014.772, 3.454992
1015.254, 3.196173
1015.736, 2.548563
1016.218, 1.998131
1016.700, 1.561334
1017.182, 1.341287
1017.664, 1.492554
1018.147, 1.754762
1018.629, 2.066978
1019.111, 2.339021
1019.593, 2.427571
1020.075, 2.255692
1020.557, 2.139986
1021.039, 2.105920
1021.521, 2.078837
1022.003, 1.910961
1022.486, 1.732981
1022.968, 1.905439
1023.450, 2.390646
1023.932, 2.578413
1024.414, 1.881914
1024.896, 1.246657
1025.378, 0.9644150
1025.860, 0.9624120
1026.343, 1.095284
1026.825, 1.347162
1027.307, 1.527512
1027.789, 1.583930
1028.271, 1.555208
1028.753, 1.388088
1029.235, 1.202734
1029.717, 1.154248
1030.199, 1.333282
1030.682, 1.389635
1031.164, 1.306382
1031.646, 1.147093
1032.128, 0.8741410
1032.610, 0.5802700
1033.092, 0.5606760
1033.574, 0.7456000
1034.056, 0.8796480
1034.539, 0.8444070
1035.021, 0.7400240
1035.503, 0.4804790
1035.985, 0.2445590
1036.467, 0.3486680
1036.949, 0.8067140
1037.431, 0.9714370
1037.913, 0.7467950
1038.396, 0.4747230
1038.878, 0.5061600
1039.360, 0.6013290
1039.842, 0.4951090
1040.324, 0.1689390
1040.806, 1.7725000E-02
1041.288, 3.8146999E-02
1041.770, 7.1388997E-02
1042.252, 0.3689740
1042.734, 0.6964370
1043.217, 0.6971760
1043.699, 0.4650260
1044.181, 0.2347600
1044.663, 3.1954002E-02
1045.145, 5.6637999E-02
1045.627, 0.1439250
1046.109, 0.3523940
1046.591, 0.3264180
1047.074, 5.0570998E-02
1047.556, 1.9649001E-02
1048.038, 0.1159290
1048.520, 0.2205720
1049.002, 8.1757002E-02
1049.484, 0.1075720
1049.966, 0.2070440
1050.448, 0.2210280
1050.931, 0.1573200
1051.413, 7.4963003E-02
1051.895, 0.1560730
1052.377, 7.4200002E-03
1052.859, 0.1931500
1053.341, 0.2226640
1053.823, 0.1423400
1054.305, 9.9113002E-02
1054.787, 0.1101720
1055.270, 7.0398003E-02
1055.752, 0.1256290
1056.234, 0.3192960
1056.716, 0.4277570
1057.198, 0.4833070
1057.680, 0.6564630
1058.162, 0.9309780
1058.644, 1.035466
1059.126, 0.8278270
1059.609, 0.5624140
1060.091, 0.3954320
1060.573, 0.3365920
1061.055, 0.4422840
1061.537, 0.8124210
1062.019, 0.9118600
1062.501, 0.6587310
1062.983, 0.4363040
1063.466, 0.5434410
1063.948, 0.8260220
1064.430, 1.075871
1064.912, 1.260897
1065.394, 1.284513
1065.876, 0.8611120
1066.358, 0.6207400
1066.840, 0.7602530
1067.323, 1.007800
1067.805, 0.9670640
1068.287, 0.7033250
1068.769, 0.7225340
1069.251, 1.063613
1069.733, 1.425805
1070.215, 1.635314
1070.697, 1.760199
1071.179, 1.792477
1071.661, 1.769360
1072.144, 1.830105
1072.626, 1.978311
1073.108, 2.192993
1073.590, 2.486049
1074.072, 2.785727
1074.554, 3.087211
1075.036, 3.294636
1075.518, 3.224065
1076.001, 2.732512
1076.483, 2.490200
1076.965, 2.615998
1077.447, 2.850780
1077.929, 3.148115
1078.411, 3.408442
1078.893, 3.208983
1079.375, 2.699206
1079.858, 2.393921
1080.340, 2.697146
1080.822, 2.957704
1081.304, 2.859554
1081.786, 2.687879
1082.268, 2.708159
1082.750, 2.924407
1083.232, 3.078328
1083.714, 3.166844
1084.197, 3.266395
1084.679, 3.469759
1085.161, 3.668392
1085.643, 3.791118
1086.125, 3.824891
1086.607, 3.770331
1087.089, 3.579727
1087.571, 3.495970
1088.054, 3.577761
1088.536, 3.686038
1089.018, 3.593638
1089.500, 3.453599
1089.982, 3.534535
1090.464, 3.867648
1090.946, 4.070646
1091.428, 3.984685
1091.911, 3.897648
1092.393, 3.891347
1092.875, 3.944777
1093.357, 4.055017
1093.839, 4.180083
1094.321, 4.188766
1094.803, 4.003798
1095.285, 3.829988
1095.767, 3.705389
1096.250, 3.686870
1096.732, 3.867605
1097.214, 4.226552
1097.696, 4.305748
1098.178, 4.114124
1098.660, 3.914920
1099.142, 3.797618
1099.624, 3.804022
1100.106, 4.064564
1100.589, 4.422107
1101.071, 4.634986
1101.553, 4.676084
1102.035, 4.612020
1102.517, 4.416782
1102.999, 4.251731
1103.481, 4.332893
1103.963, 4.489601
1104.446, 4.451589
1104.928, 4.273787
1105.410, 4.239037
1105.892, 4.585299
1106.374, 4.810920
1106.856, 4.865333
1107.338, 4.728971
1107.820, 4.190848
1108.302, 3.504384
1108.785, 3.373263
1109.267, 3.883945
1109.749, 4.200207
1110.231, 3.656521
1110.713, 3.203042
1111.195, 3.252375
1111.677, 3.616638
1112.159, 3.789709
1112.641, 3.780521
1113.124, 3.637611
1113.606, 3.333302
1114.088, 3.082041
1114.570, 3.198964
1115.052, 3.285799
1115.534, 2.922607
1116.016, 2.148616
1116.498, 1.904512
1116.981, 2.206097
1117.463, 2.502018
1117.945, 2.566111
1118.427, 2.495624
1118.909, 2.289614
1119.391, 2.052718
1119.873, 1.957327
1120.355, 2.128079
1120.838, 2.074978
1121.320, 1.741213
1121.802, 1.427865
1122.284, 1.405553
1122.766, 1.494785
1123.248, 1.392898
1123.730, 1.173507
1124.212, 1.037683
1124.694, 1.123969
1125.177, 1.184914
1125.659, 1.206528
1126.141, 1.193252
1126.623, 1.125879
1127.105, 1.032449
1127.587, 0.9970830
1128.069, 1.015156
1128.551, 1.020008
1129.033, 1.026261
1129.516, 0.9476060
1129.998, 0.7087800
1130.480, 0.4335780
1130.962, 0.3734330
1131.444, 0.4739820
1131.926, 0.4107830
1132.408, 0.1288890
1132.890, 8.1614003E-02
1133.373, 4.1080002E-02
1133.855, 0.2111080
1134.337, 0.2894440
1134.819, 0.2803670
1135.301, 0.1454360
1135.783, 0.1054330
1136.265, 0.1983680
1136.747, 2.8872000E-02
1137.229, 0.1779340
1137.712, 0.1983770
1138.194, 0.1914670
1138.676, 0.3610450
1139.158, 0.7092080
1139.640, 0.7573010
1140.122, 0.4762200
1140.604, 0.1739590
1141.086, 4.2119000E-02
1141.569, 0.1957100
1142.051, 0.3514230
1142.533, 0.4506240
1143.015, 0.3922250
1143.497, 8.3688997E-02
1143.979, 0.1029490
1144.461, 0.1507640
1144.943, 0.1350420
1145.426, 5.3580999E-02
1145.908, 2.4336001E-02
1146.390, 6.6900000E-02
1146.872, 0.2397950
1147.354, 0.3119500
1147.836, 5.3428002E-02
1148.318, 1.8615000E-02
1148.800, 0.1571580
1149.282, 0.4030040
1149.765, 0.6219380
1150.247, 0.7807950
1150.729, 0.7718060
1151.211, 0.6273550
1151.693, 0.4881670
1152.175, 0.3619560
1152.657, 0.3250930
1153.139, 0.4394870
1153.621, 0.5633640
1154.104, 0.4817680
1154.586, 0.2731960
1155.068, 0.2025640
1155.550, 0.2800050
1156.032, 0.4116300
1156.514, 0.5578380
1156.996, 0.7510320
1157.478, 1.037473
1157.961, 1.336557
1158.443, 1.497686
1158.925, 1.538760
1159.407, 1.566621
1159.889, 1.596890
1160.371, 1.568577
1160.853, 1.370171
1161.335, 1.182383
1161.818, 1.112903
1162.300, 1.117020
1162.782, 1.032151
1163.264, 0.8759400
1163.746, 0.8846100
1164.228, 1.138452
1164.710, 1.382294
1165.192, 1.396871
1165.674, 1.360268
1166.156, 1.411216
1166.639, 1.532808
1167.121, 1.585747
1167.603, 1.570832
1168.085, 1.632042
1168.567, 1.854441
1169.049, 2.050422
1169.531, 2.011602
1170.013, 1.898268
1170.496, 1.872231
1170.978, 1.938881
1171.460, 2.019751
1171.942, 2.119474
1172.424, 2.144299
1172.906, 1.984213
1173.388, 1.851506
1173.870, 2.027188
1174.353, 2.325619
1174.835, 2.484906
1175.317, 2.451332
1175.799, 2.550773
1176.281, 2.814713
1176.763, 2.961617
1177.245, 2.742970
1177.727, 2.424505
1178.209, 2.221635
1178.692, 2.159503
1179.174, 2.315926
1179.656, 2.876433
1180.138, 3.124485
1180.620, 3.019527
1181.102, 2.818790
1181.584, 2.665015
1182.066, 2.556764
1182.548, 2.494306
1183.031, 2.464130
1183.513, 2.461085
1183.995, 2.481443
1184.477, 2.544711
1184.959, 2.665277
1185.441, 2.790769
1185.923, 2.898023
1186.405, 2.949063
1186.888, 2.857423
1187.370, 2.665840
1187.852, 2.532043
1188.334, 2.520720
1188.816, 2.505781
1189.298, 2.496488
1189.780, 2.408267
1190.262, 1.949220
1190.745, 1.471200
1191.227, 1.650640
1191.709, 2.371198
1192.191, 2.845464
1192.673, 2.814898
1193.155, 2.713178
1193.637, 2.589241
1194.119, 2.480280
1194.601, 2.419010
1195.084, 2.369219
1195.566, 2.299147
1196.048, 2.212129
1196.530, 2.188635
1197.012, 2.308955
1197.494, 2.360518
1197.976, 2.299454
1198.458, 2.165109
1198.941, 1.947208
1199.423, 1.722093
1199.905, 1.641963
1200.387, 1.719261
1200.869, 1.831427
1201.351, 2.039014
1201.833, 2.102328
1202.315, 1.915614
1202.797, 1.656541
1203.280, 1.660619
1203.762, 1.775419
1204.244, 1.698296
1204.726, 1.373428
1205.208, 1.172813
1205.690, 1.134948
1206.172, 1.280713
1206.654, 1.705171
1207.136, 2.159741
1207.619, 2.137615
1208.101, 1.870128
1208.583, 1.760575
1209.065, 1.904366
1209.547, 1.965682
1210.029, 1.860044
1210.511, 1.750872
1210.993, 1.683275
1211.476, 1.665557
1211.958, 1.713939
1212.440, 1.815500
1212.922, 1.987828
1213.404, 2.294512
1213.886, 2.302862
1214.368, 1.815033
1214.850, 1.430702
1215.333, 1.436985
1215.815, 1.630649
1216.297, 1.670167
1216.779, 1.615252
1217.261, 1.591329
1217.743, 1.669548
1218.225, 1.553883
1218.707, 1.105787
1219.189, 0.8031700
1219.672, 0.9497180
1220.154, 1.260736
1220.636, 1.160989
1221.118, 0.8611160
1221.600, 0.7556480
1222.082, 1.048828
1222.564, 1.158625
1223.046, 0.9940870
1223.528, 0.8464950
1224.011, 0.8955110
1224.493, 1.016243
1224.975, 0.9622890
1225.457, 0.8367960
1225.939, 0.8367470
1226.421, 1.118360
1226.903, 1.189270
1227.385, 0.9940400
1227.868, 0.7736690
1228.350, 0.6700970
1228.832, 0.6092010
1229.314, 0.4123420
1229.796, 0.2006120
1230.278, 0.2044900
1230.760, 0.6006640
1231.242, 0.8340120
1231.724, 0.8971960
1232.207, 0.8346630
1232.689, 0.5737450
1233.171, 0.3073450
1233.653, 0.3607090
1234.135, 0.5643580
1234.617, 0.5814520
1235.099, 0.2992670
1235.581, 0.1278360
1236.063, 6.9735996E-02
1236.546, 0.1170610
1237.028, 0.3776680
1237.510, 0.6237440
1237.992, 0.5866510
1238.474, 0.3813540
1238.956, 0.1825120
1239.438, 2.6498999E-02
1239.920, 7.9054996E-02
1240.403, 3.9124001E-02
1240.885, 0.1353620
1241.367, 5.8022000E-02
1241.849, 6.4800002E-02
1242.331, 0.2012280
1242.813, 0.2691860
1243.295, 0.1108450
1243.777, 0.3667630
1244.260, 0.5123600
1244.742, 0.3288910
1245.224, 0.1147350
1245.706, 2.6079001E-02
1246.188, 1.1260000E-02
1246.670, 9.7436003E-02
1247.152, 0.2070710
1247.634, 0.2303390
1248.116, 0.1593730
1248.599, 0.1209020
1249.081, 0.1137990
1249.563, 0.1063870
1250.045, 0.1157830
1250.527, 7.7987000E-02
1251.009, 0.1817170
1251.491, 0.3980090
1251.973, 0.2354940
1252.455, 0.2809670
1252.938, 0.5509070
1253.420, 0.5896490
1253.902, 0.5781640
1254.384, 0.6573860
1254.866, 0.6462390
1255.348, 0.3986440
1255.830, 0.1140360
1256.313, 4.6592999E-02
1256.795, 8.8946998E-02
1257.277, 1.5057000E-02
1257.759, 0.1531280
1258.241, 0.3067810
1258.723, 0.4304920
1259.205, 0.4790370
1259.687, 0.4206620
1260.169, 0.3323230
1260.651, 0.2809150
1261.134, 0.2533750
1261.616, 0.1829990
1262.098, 9.6757002E-02
1262.580, 8.6709999E-02
1263.062, 0.3011000
1263.544, 0.4161450
1264.026, 0.3916240
1264.508, 0.2991090
1264.991, 0.1377210
1265.473, 1.6912000E-02
1265.955, 6.1820000E-03
1266.437, 0.1556120
1266.919, 0.2950850
1267.401, 0.4317780
1267.883, 0.4509950
1268.365, 0.3080650
1268.848, 0.2163150
1269.330, 0.4311390
1269.812, 0.7195770
1270.294, 0.7395560
1270.776, 0.6130880
1271.258, 0.6200590
1271.740, 0.8485050
1272.222, 1.005752
1272.704, 1.035576
1273.187, 1.006307
1273.669, 1.004139
1274.151, 0.9870110
1274.633, 0.9973250
1275.115, 0.9836420
1275.597, 0.8199940
1276.079, 0.4536250
1276.561, 0.3181890
1277.043, 0.3768770
1277.526, 0.4181470
1278.008, 0.5767270
1278.490, 0.6975530
1278.972, 0.7218800
1279.454, 0.7092460
1279.936, 0.6617120
1280.418, 0.6614840
1280.900, 0.8345790
1281.383, 1.120890
1281.865, 1.265602
1282.347, 1.030561
1282.829, 0.7787020
1283.311, 0.6482400
1283.793, 0.5900260
1284.275, 0.5803470
1284.757, 0.6274280
1285.240, 0.5970040
1285.722, 0.4904490
1286.204, 0.4279300
1286.686, 0.5332570
1287.168, 0.5853430
1287.650, 0.5454120
1288.132, 0.4984170
1288.614, 0.4904690
1289.096, 0.5208510
1289.578, 0.6827540
1290.061, 0.8493530
1290.543, 0.7731410
1291.025, 9.4224997E-02
1291.507, 0.1067030
1291.989, 0.2725180
1292.471, 0.6530550
1292.953, 0.6557750
1293.435, 0.5532100
1293.918, 0.7278740
1294.400, 0.9845420
1294.882, 1.009117
1295.364, 0.7616040
1295.846, 0.5879780
1296.328, 0.4882760
1296.810, 0.4960030
1297.292, 0.5369610
1297.775, 0.7084770
1298.257, 0.7352740
1298.739, 0.7102430
1299.221, 0.7585620
1299.703, 0.8522590
1300.185, 0.6481250
1300.667, 0.2210160
1301.149, 5.9699998E-03
1301.631, 0.2712020
1302.114, 0.2965840
1302.596, 0.0000000E+00
##END=



