##NAMES=Andradite
##RRUFFID=R120004
##IDEAL CHEMISTRY=Ca_3_Fe^3+^_2_(SiO_4_)_3_
##LOCALITY=Chifeng, Inner Mongolia
##OWNER=RRUFF
##SOURCE=Jack Lowell
##DESCRIPTION=Dark green dodecahedral crystals overlying pale green diopside R120003
##STATUS=The identification of this mineral has been confirmed only by single crystal X-ray diffraction.
##URL=rruff.info/R120004
90.49219, 0.0000000E+00
90.97430, 0.5005910
91.45642, 0.7296330
91.93854, 0.6336980
92.42065, 0.4309200
92.90277, 0.3623580
93.38489, 0.2662280
93.86700, 0.1659240
94.34912, 4.4820001E-03
94.83124, 0.1345440
95.31335, 5.7381000E-02
95.79547, 0.5425190
96.27759, 1.057480
96.75970, 1.260498
97.24182, 1.185902
97.72394, 1.140446
98.20605, 1.194546
98.68817, 1.439671
99.17029, 1.684235
99.65240, 1.793854
100.1345, 1.869801
100.6166, 2.447182
101.0988, 3.515495
101.5809, 4.467999
102.0630, 5.122684
102.5451, 5.482204
103.0272, 5.509220
103.5093, 5.028610
103.9915, 4.308472
104.4736, 4.159046
104.9557, 4.937012
105.4378, 5.845169
105.9199, 6.274576
106.4020, 5.892569
106.8842, 5.649403
107.3663, 5.586376
107.8484, 5.679026
108.3305, 6.031977
108.8126, 7.105639
109.2947, 8.171463
109.7769, 8.541101
110.2590, 7.118958
110.7411, 6.144911
111.2232, 6.194414
111.7053, 7.570053
112.1874, 8.624697
112.6696, 9.087662
113.1517, 9.251312
113.6338, 9.438324
114.1159, 9.577015
114.5980, 9.837418
115.0801, 10.34204
115.5623, 11.33677
116.0444, 12.03523
116.5265, 11.96561
117.0086, 11.48031
117.4907, 11.25619
117.9728, 11.76546
118.4550, 12.48721
118.9371, 13.21331
119.4192, 13.58869
119.9013, 14.01859
120.3834, 15.06018
120.8655, 16.49546
121.3477, 17.88818
121.8298, 18.96819
122.3119, 19.78278
122.7940, 20.61378
123.2761, 21.30357
123.7582, 21.66907
124.2404, 21.77132
124.7225, 21.79873
125.2046, 21.62459
125.6867, 21.05039
126.1688, 20.22079
126.6509, 19.39062
127.1331, 18.60366
127.6152, 17.95542
128.0973, 17.61994
128.5794, 17.61810
129.0615, 17.67321
129.5436, 17.55967
130.0258, 17.27610
130.5079, 16.81888
130.9900, 16.06160
131.4721, 15.11928
131.9542, 14.33092
132.4363, 13.71580
132.9185, 13.22964
133.4006, 12.88222
133.8827, 12.67188
134.3648, 12.36637
134.8469, 11.77927
135.3290, 10.93411
135.8112, 10.17489
136.2933, 9.535367
136.7754, 8.988084
137.2575, 8.478209
137.7396, 8.003617
138.2217, 7.572729
138.7039, 7.204805
139.1860, 6.912539
139.6681, 6.591558
140.1502, 6.222144
140.6323, 5.816822
141.1144, 5.438658
141.5966, 5.113495
142.0787, 4.765432
142.5608, 4.317144
143.0429, 3.710157
143.5250, 3.171612
144.0071, 2.757175
144.4893, 2.460880
144.9714, 2.126726
145.4535, 1.773928
145.9356, 1.363018
146.4177, 0.8421250
146.8998, 7.5173996E-02
147.3820, 0.5872060
147.8641, 1.014538
148.3462, 0.8182470
148.8283, 0.8790360
149.3104, 1.393877
149.7925, 2.074860
150.2747, 2.598000
150.7568, 2.910334
151.2389, 3.111101
151.7210, 3.210941
152.2031, 3.195385
152.6852, 3.130407
153.1674, 2.917387
153.6495, 2.672127
154.1316, 2.560112
154.6137, 2.907804
155.0958, 3.120813
155.5779, 2.992821
156.0601, 2.389374
156.5422, 1.727423
157.0243, 0.9881970
157.5064, 0.2358470
157.9885, 0.4064290
158.4706, 0.6494960
158.9528, 0.9735340
159.4349, 1.597178
159.9170, 2.598961
160.3991, 3.823814
160.8812, 5.262932
161.3633, 6.898411
161.8455, 8.680044
162.3276, 10.53172
162.8097, 12.55163
163.2918, 14.84195
163.7739, 17.40837
164.2560, 20.23512
164.7382, 23.34709
165.2203, 26.72515
165.7024, 30.29453
166.1845, 34.01150
166.6666, 37.93058
167.1487, 42.03089
167.6309, 46.12126
168.1130, 50.64158
168.5951, 55.76368
169.0772, 61.50935
169.5593, 67.87695
170.0414, 75.10313
170.5236, 82.90862
171.0057, 90.87019
171.4878, 99.34026
171.9699, 107.6531
172.4520, 115.6717
172.9341, 123.3393
173.4163, 129.3525
173.8984, 133.5389
174.3805, 135.3525
174.8626, 133.8489
175.3447, 127.5319
175.8268, 118.3798
176.3090, 107.7841
176.7911, 95.81459
177.2732, 84.13262
177.7553, 73.22172
178.2374, 63.25566
178.7195, 55.11485
179.2017, 49.80143
179.6838, 46.17415
180.1659, 42.60312
180.6480, 38.99894
181.1301, 35.92608
181.6122, 34.03924
182.0944, 33.12738
182.5765, 32.53739
183.0586, 32.09085
183.5407, 31.74209
184.0228, 31.37210
184.5049, 30.96323
184.9871, 30.61578
185.4692, 30.52094
185.9513, 30.63068
186.4334, 30.66631
186.9155, 30.48404
187.3976, 30.12482
187.8798, 29.70174
188.3619, 29.19783
188.8440, 28.70242
189.3261, 28.40524
189.8082, 28.28693
190.2903, 28.07039
190.7725, 27.46999
191.2546, 26.59070
191.7367, 26.10482
192.2188, 26.11536
192.7009, 26.32011
193.1830, 26.17683
193.6652, 25.68374
194.1473, 25.23439
194.6294, 25.20026
195.1115, 25.51931
195.5936, 25.30182
196.0757, 24.36648
196.5579, 23.10970
197.0400, 22.27768
197.5221, 21.89242
198.0042, 21.66311
198.4863, 21.49845
198.9684, 21.39979
199.4506, 21.12074
199.9327, 20.55256
200.4148, 19.90740
200.8969, 19.72298
201.3790, 20.08779
201.8611, 20.45116
202.3433, 20.48554
202.8254, 20.16635
203.3075, 19.79169
203.7896, 19.33461
204.2717, 18.86243
204.7538, 18.53327
205.2360, 18.34557
205.7181, 18.29439
206.2002, 18.48920
206.6823, 18.98689
207.1644, 19.16499
207.6465, 18.84344
208.1287, 18.23635
208.6108, 18.00420
209.0929, 18.23978
209.5750, 18.62495
210.0571, 18.95219
210.5392, 19.19690
211.0214, 19.56989
211.5035, 20.15705
211.9856, 20.85450
212.4677, 21.25954
212.9498, 21.17537
213.4319, 21.29884
213.9140, 22.06908
214.3962, 23.54429
214.8783, 25.54833
215.3604, 28.27715
215.8425, 31.50902
216.3246, 33.96258
216.8067, 34.98107
217.2889, 36.49605
217.7710, 39.90674
218.2531, 45.95978
218.7352, 51.71693
219.2173, 56.75499
219.6994, 61.30467
220.1816, 66.41058
220.6637, 72.51962
221.1458, 78.66700
221.6279, 84.05822
222.1100, 88.29290
222.5921, 92.84196
223.0743, 98.05865
223.5564, 103.7272
224.0385, 108.9268
224.5206, 113.1230
225.0027, 117.4591
225.4848, 122.6822
225.9670, 129.0993
226.4491, 135.5254
226.9312, 141.7426
227.4133, 147.8816
227.8954, 154.9012
228.3775, 162.6327
228.8597, 171.2564
229.3418, 180.8512
229.8239, 191.6296
230.3060, 202.9043
230.7881, 214.3844
231.2702, 226.2992
231.7524, 239.1985
232.2345, 252.6455
232.7166, 267.4120
233.1987, 283.9986
233.6808, 303.4700
234.1629, 322.4282
234.6451, 341.5918
235.1272, 360.2168
235.6093, 376.1391
236.0914, 392.5816
236.5735, 401.9568
237.0556, 399.9662
237.5378, 384.9146
238.0199, 361.9217
238.5020, 328.8450
238.9841, 287.8700
239.4662, 248.5862
239.9483, 209.5361
240.4305, 174.1035
240.9126, 143.7913
241.3947, 119.3216
241.8768, 98.38795
242.3589, 81.29073
242.8410, 67.66135
243.3232, 56.02670
243.8053, 46.76176
244.2874, 39.05426
244.7695, 32.64323
245.2516, 27.73847
245.7337, 23.56741
246.2159, 20.22767
246.6980, 17.57559
247.1801, 15.20530
247.6622, 13.04353
248.1443, 11.23852
248.6264, 9.900085
249.1086, 9.159981
249.5907, 8.556915
250.0728, 8.107323
250.5549, 7.784531
251.0370, 7.535988
251.5191, 7.441841
252.0013, 7.299438
252.4834, 6.983696
252.9655, 6.330460
253.4476, 5.919586
253.9297, 5.695107
254.4118, 5.738335
254.8940, 6.305435
255.3761, 7.693306
255.8582, 9.084511
256.3403, 10.07186
256.8224, 10.42002
257.3046, 11.09859
257.7867, 12.02803
258.2688, 13.32108
258.7509, 15.21738
259.2330, 17.77071
259.7151, 20.75821
260.1973, 24.15729
260.6794, 27.94003
261.1615, 31.92755
261.6436, 36.00853
262.1257, 40.33704
262.6078, 45.31035
263.0900, 51.29212
263.5721, 56.98240
264.0542, 62.20901
264.5363, 67.32542
265.0184, 69.99178
265.5005, 70.02713
265.9827, 67.93887
266.4648, 64.26967
266.9469, 58.78418
267.4290, 52.42657
267.9111, 45.07385
268.3932, 36.63301
268.8754, 29.21469
269.3575, 22.89745
269.8396, 17.47906
270.3217, 12.79083
270.8038, 8.816505
271.2859, 5.686584
271.7681, 3.666710
272.2502, 2.717606
272.7323, 1.500710
273.2144, 8.4206000E-02
273.6965, 1.703873
274.1786, 2.977242
274.6608, 3.863579
275.1429, 4.691193
275.6250, 5.619537
276.1071, 6.580467
276.5892, 6.952866
277.0714, 6.564369
277.5535, 6.075333
278.0356, 6.214767
278.5177, 7.071556
278.9998, 7.623169
279.4819, 7.566643
279.9641, 7.066429
280.4462, 6.890373
280.9283, 7.108849
281.4104, 7.344261
281.8925, 7.288368
282.3746, 6.938324
282.8568, 6.494453
283.3389, 5.980141
283.8210, 5.396156
284.3031, 4.761803
284.7852, 4.076500
285.2673, 3.284531
285.7495, 2.312561
286.2316, 1.167587
286.7137, 4.8813000E-02
287.1958, 1.357742
287.6779, 2.687202
288.1600, 3.773033
288.6422, 4.607216
289.1243, 5.687775
289.6064, 7.324715
290.0885, 9.467041
290.5706, 11.75988
291.0527, 14.12115
291.5349, 16.73771
292.0170, 20.07422
292.4991, 24.04186
292.9812, 28.04214
293.4633, 31.44440
293.9454, 34.56573
294.4276, 38.48573
294.9097, 43.32033
295.3918, 48.51073
295.8739, 53.54248
296.3560, 58.34329
296.8381, 62.82022
297.3203, 67.11703
297.8024, 70.97038
298.2845, 73.78053
298.7666, 75.50002
299.2487, 76.64091
299.7308, 77.36989
300.2130, 77.90739
300.6951, 78.86203
301.1772, 80.31102
301.6593, 82.38583
302.1414, 85.43639
302.6235, 89.42317
303.1057, 93.89526
303.5878, 97.92180
304.0699, 102.1972
304.5520, 107.9294
305.0341, 115.6917
305.5162, 124.8786
305.9984, 134.8427
306.4805, 145.5930
306.9626, 157.8719
307.4447, 172.0399
307.9268, 188.0025
308.4089, 205.6169
308.8911, 225.6738
309.3732, 246.1148
309.8553, 265.9011
310.3374, 284.7791
310.8195, 302.3050
311.3016, 319.8896
311.7838, 334.8828
312.2659, 345.4919
312.7480, 352.0548
313.2301, 352.2233
313.7122, 343.1552
314.1943, 326.7161
314.6765, 306.9923
315.1586, 283.3596
315.6407, 258.8345
316.1228, 234.3482
316.6049, 209.5053
317.0870, 187.5607
317.5692, 170.5612
318.0513, 157.3484
318.5334, 146.4370
319.0155, 137.4610
319.4976, 130.5635
319.9797, 125.9964
320.4619, 123.8130
320.9440, 123.3849
321.4261, 124.9771
321.9082, 128.0422
322.3903, 132.0641
322.8724, 138.0043
323.3546, 143.8020
323.8367, 148.9732
324.3188, 153.5121
324.8009, 157.7154
325.2830, 163.1197
325.7651, 167.2523
326.2473, 168.4943
326.7294, 165.3132
327.2115, 160.8589
327.6936, 154.7716
328.1757, 147.4434
328.6578, 140.5190
329.1400, 133.2496
329.6221, 127.0266
330.1042, 122.3674
330.5863, 119.3568
331.0684, 117.7365
331.5505, 117.4008
332.0327, 118.4281
332.5148, 121.0260
332.9969, 125.4233
333.4790, 131.0960
333.9611, 137.9183
334.4432, 145.8620
334.9254, 155.3369
335.4075, 166.6290
335.8896, 179.0535
336.3717, 191.6389
336.8538, 204.0402
337.3359, 217.2460
337.8180, 231.5736
338.3001, 246.9224
338.7823, 262.2794
339.2644, 277.2467
339.7465, 292.6905
340.2286, 309.5509
340.7107, 327.8375
341.1928, 346.7363
341.6750, 365.6055
342.1571, 384.9174
342.6392, 404.9351
343.1213, 425.5350
343.6034, 448.4414
344.0855, 475.3658
344.5677, 506.0075
345.0498, 538.8702
345.5319, 573.2424
346.0140, 610.2482
346.4961, 652.1719
346.9782, 698.7577
347.4604, 748.9786
347.9425, 802.0655
348.4246, 858.2382
348.9067, 916.9565
349.3888, 978.5501
349.8709, 1041.017
350.3531, 1104.075
350.8352, 1166.562
351.3173, 1223.904
351.7994, 1277.829
352.2815, 1324.610
352.7636, 1359.131
353.2458, 1381.365
353.7279, 1390.976
354.2100, 1384.051
354.6921, 1364.815
355.1742, 1340.370
355.6563, 1310.459
356.1385, 1278.579
356.6206, 1245.178
357.1027, 1211.279
357.5848, 1183.022
358.0669, 1163.010
358.5490, 1150.556
359.0312, 1145.070
359.5133, 1146.433
359.9954, 1154.658
360.4775, 1169.374
360.9596, 1191.008
361.4417, 1220.135
361.9239, 1257.598
362.4060, 1302.376
362.8881, 1353.578
363.3702, 1410.728
363.8523, 1476.193
364.3344, 1552.169
364.8166, 1636.368
365.2987, 1726.955
365.7808, 1825.182
366.2629, 1925.749
366.7450, 2029.829
367.2271, 2137.242
367.7093, 2237.538
368.1914, 2335.380
368.6735, 2422.038
369.1556, 2492.384
369.6377, 2554.861
370.1198, 2588.244
370.6020, 2591.886
371.0841, 2565.840
371.5662, 2509.391
372.0483, 2416.680
372.5304, 2301.616
373.0125, 2166.875
373.4947, 2005.995
373.9768, 1845.821
374.4589, 1682.135
374.9410, 1520.660
375.4231, 1372.275
375.9052, 1236.242
376.3874, 1112.437
376.8695, 1002.534
377.3516, 905.1790
377.8337, 818.6251
378.3158, 742.4201
378.7979, 674.8907
379.2801, 616.0566
379.7622, 565.5665
380.2443, 520.4733
380.7264, 479.8699
381.2085, 443.9322
381.6906, 413.5004
382.1728, 388.7340
382.6549, 366.1356
383.1370, 343.7575
383.6191, 321.7097
384.1012, 301.5374
384.5833, 283.3914
385.0655, 266.3169
385.5476, 249.2677
386.0297, 232.1963
386.5118, 215.8773
386.9939, 200.4905
387.4760, 185.9719
387.9582, 172.1470
388.4403, 158.8953
388.9224, 146.4292
389.4045, 134.9826
389.8866, 124.5327
390.3687, 114.9915
390.8509, 106.6704
391.3330, 99.05427
391.8151, 91.68642
392.2972, 84.65745
392.7793, 78.19215
393.2614, 72.31099
393.7436, 67.12328
394.2257, 62.68159
394.7078, 59.32166
395.1899, 56.00101
395.6720, 52.22691
396.1541, 48.27681
396.6363, 44.59841
397.1184, 41.36197
397.6005, 38.35422
398.0826, 35.47440
398.5647, 32.69396
399.0468, 30.24329
399.5290, 28.27674
400.0111, 26.57742
400.4932, 24.96782
400.9753, 23.46250
401.4574, 22.02860
401.9395, 20.77817
402.4217, 19.62679
402.9038, 18.15456
403.3859, 16.04128
403.8680, 14.07729
404.3501, 12.67771
404.8322, 12.03150
405.3144, 11.32027
405.7965, 10.48199
406.2786, 9.663933
406.7607, 9.257454
407.2428, 9.427849
407.7249, 9.136444
408.2071, 7.831703
408.6892, 5.739632
409.1713, 4.400597
409.6534, 3.853920
410.1355, 3.586014
410.6176, 3.194931
411.0998, 2.695290
411.5819, 2.142677
412.0640, 1.563171
412.5461, 0.9020540
413.0282, 0.1242600
413.5103, 1.415985
413.9925, 2.411728
414.4746, 2.617668
414.9567, 2.386452
415.4388, 2.210670
415.9209, 2.120789
416.4030, 2.163223
416.8852, 2.498749
417.3673, 2.973503
417.8494, 3.338402
418.3315, 3.363762
418.8136, 3.361389
419.2957, 3.606590
419.7779, 4.043976
420.2600, 4.333755
420.7421, 4.206444
421.2242, 3.937187
421.7063, 3.699783
422.1884, 3.422768
422.6706, 3.366699
423.1527, 3.784058
423.6348, 4.443596
424.1169, 4.911812
424.5990, 5.045105
425.0811, 5.064651
425.5633, 5.010048
426.0454, 4.870972
426.5275, 4.759102
427.0096, 4.747604
427.4917, 4.707916
427.9738, 4.528625
428.4560, 4.152168
428.9381, 3.753784
429.4202, 3.314934
429.9023, 2.880272
430.3844, 2.625702
430.8665, 2.642227
431.3487, 2.582809
431.8308, 2.240044
432.3129, 1.599976
432.7950, 1.025597
433.2771, 0.5690080
433.7592, 4.5372002E-02
434.2414, 0.9103470
434.7235, 2.251900
435.2056, 3.388992
435.6877, 4.022018
436.1698, 4.411446
436.6519, 5.067810
437.1341, 5.993225
437.6162, 7.155403
438.0983, 8.711433
438.5804, 10.45733
439.0625, 12.02219
439.5446, 13.30792
440.0268, 14.53523
440.5089, 15.88432
440.9910, 17.32659
441.4731, 18.77995
441.9552, 20.22050
442.4373, 21.66396
442.9195, 23.03850
443.4016, 24.35445
443.8837, 25.96721
444.3658, 28.17220
444.8479, 30.65668
445.3300, 33.14681
445.8122, 35.48297
446.2943, 37.98685
446.7764, 40.61959
447.2585, 43.46426
447.7406, 46.73621
448.2227, 50.97166
448.7049, 55.12400
449.1870, 58.97359
449.6691, 62.48724
450.1512, 65.71578
450.6333, 68.65087
451.1154, 71.27385
451.5976, 73.72949
452.0797, 76.35854
452.5618, 77.61983
453.0439, 77.20328
453.5260, 75.30688
454.0081, 72.36460
454.4903, 68.29301
454.9724, 63.63226
455.4545, 58.44870
455.9366, 52.85226
456.4187, 47.23076
456.9008, 41.61447
457.3830, 36.09734
457.8651, 30.74794
458.3472, 25.63692
458.8293, 21.28775
459.3114, 18.03735
459.7935, 15.39526
460.2757, 12.67694
460.7578, 9.958641
461.2399, 7.567253
461.7220, 5.820107
462.2041, 4.428017
462.6862, 3.142387
463.1684, 1.918129
463.6505, 0.8561550
464.1326, 0.1126790
464.6147, 0.4535750
465.0968, 1.036194
465.5789, 2.084412
466.0611, 2.740814
466.5432, 2.588951
467.0253, 1.696037
467.5074, 0.8852460
467.9895, 0.2026520
468.4716, 0.3401950
468.9538, 0.6708220
469.4359, 0.4223710
469.9180, 0.7506410
470.4001, 1.838959
470.8822, 3.333733
471.3643, 4.749222
471.8465, 6.060898
472.3286, 7.460960
472.8107, 9.006165
473.2928, 10.67525
473.7749, 12.53574
474.2570, 14.57575
474.7392, 16.74361
475.2213, 19.05151
475.7034, 21.48365
476.1855, 23.81943
476.6676, 25.93929
477.1497, 28.29234
477.6319, 31.58571
478.1140, 35.63397
478.5961, 39.78419
479.0782, 43.78252
479.5603, 47.71784
480.0424, 51.55478
480.5246, 55.34830
481.0067, 59.45399
481.4888, 64.34035
481.9709, 69.50564
482.4530, 74.42271
482.9352, 78.72938
483.4173, 83.45556
483.8994, 89.17568
484.3815, 95.56062
484.8636, 102.0396
485.3457, 108.1960
485.8279, 114.7115
486.3100, 121.7293
486.7921, 129.2978
487.2742, 137.3595
487.7563, 145.8971
488.2384, 155.0400
488.7206, 164.8843
489.2027, 175.7693
489.6848, 186.4201
490.1669, 196.9965
490.6490, 207.1936
491.1311, 216.8793
491.6133, 226.0567
492.0954, 234.2378
492.5775, 241.5445
493.0596, 247.5983
493.5417, 251.2872
494.0238, 252.6010
494.5060, 251.6218
494.9881, 248.0938
495.4702, 242.3241
495.9523, 234.7385
496.4344, 225.2254
496.9165, 214.8062
497.3987, 203.7317
497.8808, 192.5127
498.3629, 182.3322
498.8450, 172.9342
499.3271, 165.3345
499.8092, 160.4529
500.2914, 158.0781
500.7735, 157.3820
501.2556, 158.1884
501.7377, 160.4102
502.2198, 163.9583
502.7019, 168.7819
503.1841, 175.1324
503.6662, 183.5698
504.1483, 193.3760
504.6304, 203.6087
505.1125, 213.9033
505.5946, 224.9286
506.0768, 236.5042
506.5589, 248.9018
507.0410, 263.6532
507.5231, 280.7676
508.0052, 300.1115
508.4873, 322.0705
508.9695, 346.3831
509.4516, 372.2160
509.9337, 399.4328
510.4158, 428.6853
510.8979, 460.9276
511.3800, 496.0881
511.8622, 532.6554
512.3443, 570.7892
512.8264, 609.4438
513.3085, 648.6008
513.7906, 687.8065
514.2728, 725.4316
514.7549, 762.9990
515.2370, 797.0189
515.7191, 825.6639
516.2012, 849.0365
516.6833, 863.2571
517.1655, 867.3860
517.6476, 861.4275
518.1297, 845.3309
518.6118, 815.6941
519.0939, 780.1794
519.5760, 737.5738
520.0582, 690.0337
520.5403, 641.5106
521.0224, 590.8675
521.5045, 541.5432
521.9866, 493.9881
522.4688, 448.0135
522.9509, 406.2722
523.4330, 368.8525
523.9151, 334.7302
524.3972, 303.1903
524.8793, 274.4135
525.3615, 248.3028
525.8436, 224.8091
526.3257, 203.4770
526.8078, 184.2134
527.2899, 166.8149
527.7720, 150.6629
528.2542, 135.4999
528.7363, 121.6868
529.2184, 109.7067
529.7005, 99.52811
530.1826, 90.37606
530.6647, 81.98003
531.1469, 74.33094
531.6290, 67.26582
532.1111, 60.77148
532.5932, 55.07648
533.0753, 50.45287
533.5574, 46.58269
534.0396, 43.21334
534.5217, 40.50851
535.0038, 38.01772
535.4859, 35.55941
535.9680, 33.24631
536.4501, 31.40621
536.9323, 30.08112
537.4144, 29.17155
537.8965, 28.78635
538.3786, 28.94649
538.8607, 28.64819
539.3428, 27.71373
539.8250, 26.87456
540.3071, 26.89348
540.7892, 27.69180
541.2713, 28.56464
541.7534, 29.43533
542.2355, 30.25777
542.7177, 30.86095
543.1998, 31.34414
543.6819, 32.01244
544.1640, 33.12560
544.6461, 34.39472
545.1282, 35.41801
545.6104, 36.28506
546.0925, 37.56604
546.5746, 39.92236
547.0567, 42.52969
547.5388, 44.81556
548.0209, 46.54112
548.5031, 48.46516
548.9852, 50.91202
549.4673, 53.56602
549.9494, 56.10586
550.4315, 58.59335
550.9136, 60.86523
551.3958, 62.96381
551.8779, 64.82434
552.3600, 66.30403
552.8421, 67.51714
553.3242, 67.98837
553.8063, 67.55512
554.2885, 66.21789
554.7706, 63.89355
555.2527, 60.55411
555.7348, 56.54044
556.2169, 51.82086
556.6990, 46.68765
557.1812, 41.71504
557.6633, 36.95262
558.1454, 32.54282
558.6275, 28.90578
559.1096, 25.69287
559.5917, 22.20110
560.0739, 17.40683
560.5560, 13.02710
561.0381, 10.00702
561.5202, 8.184135
562.0023, 6.665039
562.4844, 5.402130
562.9666, 4.341049
563.4487, 3.335098
563.9308, 2.247253
564.4129, 1.704475
564.8950, 2.008842
565.3771, 2.542648
565.8593, 2.730804
566.3414, 2.364655
566.8235, 2.427605
567.3056, 3.055679
567.7877, 4.070953
568.2698, 5.133278
568.7520, 6.257576
569.2341, 7.637054
569.7162, 9.488274
570.1983, 11.59045
570.6804, 13.41751
571.1625, 15.02786
571.6447, 16.97364
572.1268, 19.92130
572.6089, 23.21211
573.0910, 26.18035
573.5731, 28.75616
574.0552, 31.20739
574.5374, 33.76289
575.0195, 36.22464
575.5016, 38.41649
575.9837, 40.59316
576.4658, 42.12602
576.9479, 43.06133
577.4301, 43.30135
577.9122, 42.59987
578.3943, 40.64810
578.8764, 38.33575
579.3585, 35.89301
579.8406, 33.28149
580.3228, 30.16519
580.8049, 26.47046
581.2870, 22.83247
581.7691, 19.61362
582.2512, 16.78213
582.7333, 14.09604
583.2155, 11.51479
583.6975, 9.308922
584.1796, 7.688469
584.6617, 6.567886
585.1439, 5.850533
585.6260, 5.781303
586.1081, 5.611794
586.5902, 4.632797
587.0723, 3.246979
587.5544, 2.260590
588.0366, 2.148125
588.5187, 2.206512
589.0008, 2.232239
589.4829, 2.219124
589.9650, 2.274406
590.4471, 2.473030
590.9293, 2.637550
591.4114, 2.679199
591.8935, 2.579803
592.3756, 2.438080
592.8577, 2.207024
593.3398, 2.066086
593.8220, 2.287628
594.3041, 2.807793
594.7862, 3.131454
595.2683, 3.117271
595.7504, 3.028587
596.2325, 3.216759
596.7147, 3.600571
597.1968, 3.970909
597.6789, 4.308151
598.1610, 4.541702
598.6431, 4.515732
599.1252, 4.305374
599.6074, 4.249916
600.0895, 4.614990
600.5716, 5.036377
601.0537, 5.339157
601.5358, 5.485023
602.0179, 5.634224
602.5001, 5.794563
602.9822, 5.947830
603.4643, 6.079308
603.9464, 6.180779
604.4285, 6.276260
604.9106, 6.342232
605.3928, 6.445229
605.8749, 6.737183
606.3570, 7.196541
606.8391, 7.564278
607.3212, 7.784317
607.8033, 7.846558
608.2855, 7.615257
608.7676, 7.181145
609.2497, 6.856110
609.7318, 7.132263
610.2139, 7.344177
610.6960, 6.846939
611.1782, 5.643112
611.6603, 4.599655
612.1424, 4.060226
612.6245, 3.727852
613.1066, 3.444534
613.5887, 3.257889
614.0709, 2.931557
614.5530, 2.046013
615.0351, 1.388573
615.5172, 2.152267
615.9993, 5.021614
616.4814, 5.971687
616.9636, 3.774529
617.4457, 0.3761220
617.9278, 4.8520002E-03
618.4099, 2.293053
618.8920, 3.731224
619.3741, 2.235298
619.8563, 0.5121460
620.3384, 2.212456
620.8205, 2.967506
621.3026, 3.286392
621.7847, 3.092987
622.2668, 2.846390
622.7490, 2.976578
623.2311, 3.577850
623.7132, 3.919613
624.1953, 3.592953
624.6774, 3.078133
625.1595, 2.710655
625.6417, 2.583237
626.1238, 2.420868
626.6059, 2.129269
627.0880, 1.896957
627.5701, 2.093372
628.0522, 2.798195
628.5344, 3.131695
629.0165, 2.824787
629.4986, 2.176842
629.9807, 1.706398
630.4628, 1.400925
630.9449, 1.189991
631.4271, 1.087811
631.9092, 1.028049
632.3913, 0.9522320
632.8734, 0.8613970
633.3555, 0.7534900
633.8376, 0.6376500
634.3198, 0.5038190
634.8019, 0.3366510
635.2840, 0.1237530
635.7661, 7.5874001E-02
636.2482, 0.1894760
636.7303, 0.3342320
637.2125, 0.6105350
637.6946, 1.102413
638.1767, 1.485172
638.6588, 1.731743
639.1409, 1.905239
639.6230, 2.099407
640.1052, 2.303455
640.5873, 2.430851
641.0694, 2.436569
641.5515, 2.403126
642.0336, 2.433609
642.5157, 2.527424
642.9979, 2.679981
643.4800, 2.881390
643.9621, 3.148495
644.4442, 3.610989
644.9263, 4.200535
645.4084, 4.525330
645.8906, 4.155289
646.3727, 3.756264
646.8548, 3.654144
647.3369, 3.889492
647.8190, 4.123093
648.3011, 4.349854
648.7833, 4.584496
649.2654, 4.857857
649.7475, 5.180603
650.2296, 5.364697
650.7117, 5.357800
651.1938, 5.371292
651.6760, 5.767723
652.1581, 6.413109
652.6402, 6.868546
653.1223, 6.960007
653.6044, 6.951015
654.0865, 7.070358
654.5687, 7.260258
655.0508, 7.410255
655.5329, 7.447346
656.0150, 7.468346
656.4971, 7.506733
656.9792, 7.559101
657.4614, 7.604546
657.9435, 7.655933
658.4256, 7.677818
658.9077, 7.626373
659.3898, 7.509888
659.8719, 7.557007
660.3541, 7.790916
660.8362, 8.078377
661.3183, 8.342045
661.8004, 8.583530
662.2825, 8.797237
662.7646, 8.978989
663.2468, 9.203522
663.7289, 9.660461
664.2110, 10.15202
664.6931, 10.41050
665.1752, 10.33026
665.6573, 10.13998
666.1395, 9.738720
666.6216, 9.359261
667.1037, 9.287846
667.5858, 10.00983
668.0679, 10.46399
668.5500, 10.43593
669.0322, 10.15269
669.5143, 10.14909
669.9964, 10.50510
670.4785, 10.73067
670.9606, 10.60971
671.4427, 10.30274
671.9249, 10.27987
672.4070, 10.51042
672.8891, 10.75644
673.3712, 10.83306
673.8533, 10.87498
674.3354, 11.09535
674.8176, 11.47213
675.2997, 11.72798
675.7818, 11.61028
676.2639, 11.41357
676.7460, 11.32291
677.2281, 11.40587
677.7103, 11.39461
678.1924, 11.15111
678.6745, 10.83938
679.1566, 10.55495
679.6387, 10.30157
680.1208, 10.30312
680.6030, 10.63726
681.0851, 10.94400
681.5672, 10.74695
682.0493, 10.20380
682.5314, 9.842037
683.0135, 9.823967
683.4957, 9.887959
683.9778, 9.782593
684.4599, 9.581295
684.9420, 9.403202
685.4241, 9.254581
685.9063, 9.088516
686.3884, 8.930145
686.8705, 8.811241
687.3526, 8.729774
687.8347, 8.746105
688.3168, 8.678608
688.7990, 8.444691
689.2811, 8.073799
689.7632, 7.780315
690.2453, 7.562096
690.7274, 7.467270
691.2095, 7.635914
691.6917, 7.932201
692.1738, 7.870285
692.6559, 7.475098
693.1380, 7.182022
693.6201, 7.393967
694.1022, 7.793404
694.5844, 8.112091
695.0665, 8.323074
695.5486, 8.379730
696.0307, 7.971039
696.5128, 7.587685
696.9949, 7.643085
697.4771, 8.461674
697.9592, 9.044357
698.4413, 9.330276
698.9234, 9.436443
699.4055, 9.478973
699.8876, 9.461700
700.3698, 9.472267
700.8519, 9.513977
701.3340, 9.617496
701.8161, 9.838715
702.2982, 10.14484
702.7803, 10.46056
703.2625, 10.81461
703.7446, 11.15182
704.2267, 11.45071
704.7088, 11.68708
705.1909, 11.83199
705.6730, 11.71204
706.1552, 11.68391
706.6373, 11.84118
707.1194, 12.16395
707.6015, 12.58233
708.0836, 13.17075
708.5657, 13.64219
709.0479, 13.80571
709.5300, 13.72554
710.0121, 13.72555
710.4942, 13.81254
710.9763, 14.00116
711.4584, 14.40545
711.9406, 14.87492
712.4227, 15.21156
712.9048, 15.38809
713.3869, 15.49230
713.8690, 15.58823
714.3511, 15.65271
714.8333, 15.66055
715.3154, 15.58759
715.7975, 15.50788
716.2796, 15.35869
716.7617, 15.26423
717.2438, 15.37722
717.7260, 15.73385
718.2081, 16.00640
718.6902, 16.17210
719.1723, 16.25835
719.6544, 16.23212
720.1365, 16.15013
720.6187, 16.16087
721.1008, 16.31691
721.5829, 16.51680
722.0650, 16.70692
722.5471, 16.88609
723.0292, 17.06119
723.5114, 17.21188
723.9935, 17.37155
724.4756, 17.59932
724.9577, 17.82056
725.4398, 17.91608
725.9219, 17.85859
726.4041, 17.72962
726.8862, 17.53669
727.3683, 17.29117
727.8504, 17.03049
728.3325, 16.74722
728.8146, 16.38914
729.2968, 15.81430
729.7789, 15.25526
730.2610, 15.07495
730.7431, 15.15218
731.2252, 15.08327
731.7073, 14.67990
732.1895, 14.10956
732.6716, 13.35517
733.1537, 12.44315
733.6358, 11.71262
734.1179, 11.28112
734.6000, 10.81779
735.0822, 10.14269
735.5643, 9.293671
736.0464, 8.698490
736.5285, 8.368862
737.0106, 8.066956
737.4927, 7.581093
737.9749, 7.028652
738.4570, 6.636906
738.9391, 6.411720
739.4212, 6.161095
739.9033, 5.654812
740.3854, 5.162178
740.8676, 4.920357
741.3497, 5.057312
741.8318, 5.024384
742.3139, 4.663502
742.7960, 4.265942
743.2781, 4.030724
743.7603, 3.979939
744.2424, 3.959053
744.7245, 3.983253
745.2066, 3.964096
745.6887, 3.806763
746.1708, 3.537067
746.6530, 3.213818
747.1351, 2.841415
747.6172, 2.445518
748.0993, 1.937763
748.5814, 1.466831
749.0635, 1.216461
749.5457, 1.494453
750.0278, 1.562401
750.5099, 1.165054
750.9920, 0.6123580
751.4741, 0.2529370
751.9562, 0.1143570
752.4384, 8.1329003E-02
752.9205, 0.1811680
753.4026, 0.2776340
753.8847, 0.1262440
754.3668, 0.2280580
754.8489, 0.6018680
755.3311, 0.9505000
755.8132, 1.267746
756.2953, 1.515129
756.7774, 1.733353
757.2595, 1.993614
757.7416, 2.388535
758.2238, 2.744553
758.7059, 3.066833
759.1880, 3.313103
759.6701, 3.342201
760.1522, 3.023964
760.6343, 2.916489
761.1165, 3.241531
761.5986, 3.774956
762.0807, 3.957832
762.5628, 3.835297
763.0449, 3.669411
763.5270, 3.533211
764.0092, 3.454254
764.4913, 3.442619
764.9734, 3.504204
765.4555, 3.652954
765.9376, 4.153404
766.4197, 4.472145
766.9019, 4.321678
767.3840, 3.816437
767.8661, 3.455078
768.3482, 3.259171
768.8303, 3.158394
769.3124, 3.205513
769.7946, 3.304848
770.2767, 3.021118
770.7588, 2.398895
771.2409, 1.855225
771.7230, 1.725487
772.2051, 1.737709
772.6873, 1.694534
773.1694, 1.569901
773.6515, 1.267578
774.1336, 0.5126110
774.6157, 0.2006450
775.0978, 0.6358410
775.5800, 0.8047180
776.0621, 1.027542
776.5442, 1.331123
777.0263, 1.612885
777.5084, 1.690933
777.9905, 1.682655
778.4727, 2.304199
778.9548, 3.512817
779.4369, 4.552872
779.9190, 4.635544
780.4011, 4.447853
780.8832, 4.687523
781.3654, 5.394226
781.8475, 6.130890
782.3296, 6.751495
782.8117, 7.371330
783.2938, 8.010086
783.7759, 8.643845
784.2581, 9.610016
784.7402, 10.97543
785.2223, 12.44224
785.7044, 13.78730
786.1865, 15.06573
786.6686, 16.59887
787.1508, 18.40176
787.6329, 20.20520
788.1150, 21.64236
788.5971, 23.13292
789.0792, 25.03373
789.5613, 27.43379
790.0435, 30.04456
790.5256, 32.82684
791.0077, 35.80585
791.4898, 39.00655
791.9719, 42.37302
792.4540, 46.27002
792.9362, 50.76627
793.4183, 55.20030
793.9004, 58.49991
794.3825, 61.29482
794.8646, 65.36432
795.3467, 70.88055
795.8289, 76.80743
796.3110, 82.35341
796.7931, 87.96318
797.2752, 93.83108
797.7573, 99.96855
798.2394, 106.7069
798.7216, 113.9023
799.2037, 121.8942
799.6858, 131.0300
800.1679, 141.5567
800.6500, 151.2791
801.1321, 160.1376
801.6143, 169.4555
802.0964, 180.6573
802.5785, 193.0952
803.0606, 205.5558
803.5427, 217.8384
804.0248, 231.0498
804.5070, 246.3555
804.9891, 262.6432
805.4712, 279.0281
805.9533, 295.4886
806.4354, 312.2480
806.9175, 328.9486
807.3997, 346.4907
807.8818, 365.7757
808.3639, 386.5905
808.8460, 407.4669
809.3281, 428.3326
809.8102, 449.6245
810.2924, 471.5783
810.7745, 494.2805
811.2566, 518.3391
811.7387, 543.8099
812.2208, 568.4378
812.7029, 592.0158
813.1851, 613.8176
813.6672, 633.5930
814.1493, 651.7855
814.6314, 666.5336
815.1135, 677.8989
815.5956, 685.3362
816.0778, 688.6496
816.5599, 687.6504
817.0420, 680.8868
817.5241, 668.1999
818.0062, 651.6866
818.4883, 632.1566
818.9705, 609.8086
819.4526, 584.4754
819.9347, 555.9029
820.4168, 527.2726
820.8989, 497.8685
821.3810, 469.8747
821.8632, 444.2539
822.3453, 421.1322
822.8274, 398.8278
823.3095, 377.5411
823.7916, 358.0477
824.2737, 341.3979
824.7559, 327.2337
825.2380, 314.9770
825.7201, 304.6772
826.2022, 296.1755
826.6843, 289.5369
827.1664, 284.6581
827.6486, 281.4907
828.1307, 280.1151
828.6128, 280.5447
829.0949, 283.2527
829.5770, 286.8787
830.0591, 290.4757
830.5413, 294.2001
831.0234, 300.1620
831.5055, 308.3460
831.9876, 317.4530
832.4697, 326.7287
832.9518, 336.3643
833.4340, 346.5595
833.9161, 357.3327
834.3982, 369.2348
834.8803, 382.4455
835.3624, 396.9178
835.8445, 412.8613
836.3267, 430.1279
836.8088, 447.1206
837.2909, 463.7734
837.7730, 480.0786
838.2551, 495.9585
838.7372, 511.5169
839.2194, 527.4258
839.7015, 543.4417
840.1836, 558.1403
840.6657, 571.4941
841.1478, 582.5754
841.6299, 591.0317
842.1121, 596.6940
842.5942, 598.5164
843.0763, 596.5805
843.5584, 591.0016
844.0405, 581.4664
844.5226, 568.4155
845.0048, 553.2587
845.4869, 536.0413
845.9690, 517.4253
846.4511, 497.2300
846.9332, 476.4875
847.4153, 456.1019
847.8975, 436.1435
848.3796, 416.8006
848.8617, 397.3686
849.3438, 379.4492
849.8259, 363.6865
850.3080, 349.7364
850.7902, 336.7221
851.2723, 324.5257
851.7544, 314.7664
852.2365, 308.3318
852.7186, 303.9376
853.2007, 299.2911
853.6829, 294.8122
854.1650, 291.5857
854.6471, 289.9166
855.1292, 289.6952
855.6113, 290.8777
856.0934, 293.4912
856.5756, 297.6289
857.0577, 303.5170
857.5398, 310.2922
858.0219, 317.7736
858.5040, 326.3770
858.9861, 336.3270
859.4683, 347.8317
859.9504, 361.9313
860.4325, 378.8762
860.9146, 398.0327
861.3967, 418.7092
861.8788, 440.9662
862.3610, 465.2174
862.8431, 491.7706
863.3252, 519.6334
863.8073, 548.0645
864.2894, 578.0463
864.7715, 610.3546
865.2537, 645.0568
865.7358, 680.4285
866.2179, 716.4851
866.7000, 754.6181
867.1821, 796.4616
867.6642, 841.3539
868.1464, 887.2109
868.6285, 934.0522
869.1106, 984.3145
869.5927, 1040.511
870.0748, 1099.864
870.5569, 1160.430
871.0391, 1222.310
871.5212, 1283.911
872.0033, 1345.805
872.4854, 1403.796
872.9675, 1455.694
873.4496, 1500.761
873.9318, 1537.596
874.4139, 1565.455
874.8960, 1577.686
875.3781, 1570.375
875.8602, 1546.272
876.3423, 1505.452
876.8245, 1447.651
877.3066, 1378.657
877.7887, 1295.702
878.2708, 1207.648
878.7529, 1116.302
879.2350, 1023.817
879.7172, 933.5466
880.1993, 847.0104
880.6814, 766.6365
881.1635, 694.4120
881.6456, 628.4327
882.1277, 567.3436
882.6099, 511.3392
883.0920, 461.1741
883.5741, 417.6985
884.0562, 379.1010
884.5383, 345.2177
885.0204, 315.1479
885.5026, 287.0998
885.9847, 261.0681
886.4668, 237.1733
886.9489, 215.3562
887.4310, 195.9026
887.9131, 180.1716
888.3953, 166.9581
888.8774, 154.2801
889.3595, 141.1562
889.8416, 129.2951
890.3237, 119.0706
890.8058, 109.9897
891.2880, 101.4484
891.7701, 93.48428
892.2522, 86.12110
892.7343, 79.31807
893.2164, 73.14833
893.6985, 67.83491
894.1807, 63.16508
894.6628, 58.80519
895.1449, 54.77728
895.6270, 50.70079
896.1091, 46.01545
896.5912, 41.58910
897.0734, 37.89983
897.5555, 35.02867
898.0376, 32.28120
898.5197, 29.66942
899.0018, 27.28072
899.4839, 25.31609
899.9661, 23.59338
900.4482, 21.74116
900.9303, 19.77612
901.4124, 17.97905
901.8945, 16.60451
902.3766, 15.28547
902.8588, 13.71212
903.3409, 12.01244
903.8230, 10.75248
904.3051, 10.03065
904.7872, 9.311806
905.2693, 8.424126
905.7515, 7.404594
906.2336, 6.194077
906.7157, 4.899902
907.1978, 3.837196
907.6799, 3.264893
908.1620, 2.793602
908.6442, 2.204742
909.1263, 1.617012
909.6084, 1.228653
910.0905, 1.143158
910.5726, 0.9745710
911.0547, 0.6523670
911.5369, 0.3065640
912.0190, 0.1648480
912.5011, 0.1339570
912.9832, 8.1855997E-02
913.4653, 0.5618360
913.9474, 1.033134
914.4296, 1.411217
914.9117, 1.647659
915.3938, 1.621872
915.8759, 1.184135
916.3580, 1.185417
916.8401, 1.752937
917.3223, 2.448723
917.8044, 3.079597
918.2865, 3.588959
918.7686, 3.705345
919.2507, 3.468956
919.7328, 3.260277
920.2150, 3.388977
920.6971, 3.553543
921.1792, 3.554321
921.6613, 3.408112
922.1434, 3.295013
922.6255, 3.169838
923.1077, 3.226021
923.5898, 3.650078
924.0719, 4.149544
924.5540, 3.915329
925.0361, 3.129951
925.5182, 2.555138
926.0004, 2.680130
926.4825, 2.756424
926.9646, 2.138657
927.4467, 1.238190
927.9288, 0.6952900
928.4109, 0.7728960
928.8931, 0.7318040
929.3752, 0.4907000
929.8573, 0.2179260
930.3394, 0.1673580
930.8215, 0.2491000
931.3036, 7.2967999E-02
931.7858, 0.4319380
932.2679, 0.7897340
932.7500, 0.5686870
933.2321, 0.1452790
933.7142, 0.2874070
934.1964, 0.7400360
934.6785, 0.7395710
935.1606, 3.6324002E-02
935.6427, 0.5102010
936.1248, 0.3456730
936.6069, 0.2932050
937.0891, 0.6041790
937.5712, 0.6349790
938.0533, 0.5763090
938.5354, 0.3972400
939.0175, 0.2979200
939.4996, 0.4300230
939.9818, 0.7336580
940.4639, 1.032661
940.9460, 1.368721
941.4281, 1.570045
941.9102, 1.616394
942.3923, 1.488686
942.8745, 1.034172
943.3566, 0.3799970
943.8387, 0.1046370
944.3208, 0.3212360
944.8029, 0.3937300
945.2850, 0.3479310
945.7672, 0.2165370
946.2493, 9.8649999E-03
946.7314, 0.4152910
947.2135, 0.5492480
947.6956, 0.3805010
948.1777, 4.4555999E-02
948.6599, 0.4171830
949.1420, 0.9538690
949.6241, 1.473965
950.1062, 1.964325
950.5883, 2.353294
951.0704, 2.448959
951.5526, 2.582474
952.0347, 2.962402
952.5168, 3.524757
952.9989, 4.035923
953.4810, 4.486351
953.9631, 4.925720
954.4453, 5.355759
954.9274, 5.804680
955.4095, 6.407185
955.8916, 7.051491
956.3737, 7.479565
956.8558, 7.420704
957.3380, 7.496826
957.8201, 8.024971
958.3022, 8.718258
958.7843, 9.323864
959.2664, 9.836800
959.7485, 10.24502
960.2307, 10.51541
960.7128, 10.91826
961.1949, 11.85557
961.6770, 12.99342
962.1591, 13.87365
962.6412, 14.47317
963.1234, 14.91670
963.6055, 15.03049
964.0876, 15.24142
964.5697, 15.72018
965.0518, 16.40920
965.5339, 17.05876
966.0161, 17.67009
966.4982, 18.36636
966.9803, 19.26871
967.4624, 20.15377
967.9445, 20.71749
968.4266, 21.09785
968.9088, 21.51444
969.3909, 21.91763
969.8730, 22.54720
970.3551, 23.56199
970.8372, 24.61865
971.3193, 25.39458
971.8015, 25.89307
972.2836, 26.11918
972.7657, 26.06416
973.2478, 26.23415
973.7299, 27.24307
974.2120, 28.47987
974.6942, 29.50553
975.1763, 30.26624
975.6584, 30.69123
976.1405, 30.56702
976.6226, 30.61424
977.1047, 31.15985
977.5869, 32.02103
978.0690, 32.62843
978.5511, 33.06969
979.0332, 33.71702
979.5153, 34.84970
979.9974, 36.05592
980.4796, 37.11652
980.9617, 38.11458
981.4438, 39.13675
981.9259, 40.12924
982.4080, 41.39610
982.8901, 43.02354
983.3723, 44.78688
983.8544, 46.24828
984.3365, 47.72702
984.8186, 49.97116
985.3007, 53.04427
985.7828, 56.14658
986.2650, 58.74566
986.7471, 61.48406
987.2292, 64.66403
987.7113, 68.22313
988.1934, 71.81955
988.6755, 75.43791
989.1577, 79.20539
989.6398, 83.07518
990.1219, 87.22361
990.6040, 91.97600
991.0861, 97.07965
991.5682, 102.1378
992.0504, 106.9803
992.5325, 111.8930
993.0146, 117.0506
993.4967, 122.1855
993.9788, 127.4920
994.4609, 132.7491
994.9431, 136.3249
995.4252, 138.1600
995.9073, 138.4836
996.3894, 137.5322
996.8715, 135.1305
997.3536, 130.9278
997.8358, 124.9380
998.3179, 117.9798
998.8000, 109.7675
999.2821, 101.3349
999.7642, 92.81041
1000.246, 84.33511
1000.728, 76.28358
1001.211, 68.67592
1001.693, 61.82966
1002.175, 55.84677
1002.657, 50.40243
1003.139, 45.33858
1003.621, 40.84149
1004.103, 37.17299
1004.585, 34.47987
1005.068, 31.59052
1005.550, 28.43182
1006.032, 25.79374
1006.514, 24.56743
1006.996, 23.98500
1007.478, 23.07405
1007.960, 21.87421
1008.442, 20.85658
1008.924, 20.28397
1009.407, 19.68055
1009.889, 18.88741
1010.371, 18.08535
1010.853, 17.62062
1011.335, 17.46656
1011.817, 17.51592
1012.299, 17.75582
1012.781, 18.13265
1013.263, 18.81796
1013.746, 19.49136
1014.228, 19.83090
1014.710, 19.78510
1015.192, 19.55299
1015.674, 19.06240
1016.156, 18.63194
1016.638, 18.59047
1017.120, 18.67439
1017.603, 18.24928
1018.085, 17.42838
1018.567, 16.62880
1019.049, 16.22719
1019.531, 15.62592
1020.013, 14.44801
1020.495, 13.09682
1020.977, 12.19468
1021.459, 11.75320
1021.942, 11.24520
1022.424, 10.60783
1022.906, 9.851860
1023.388, 8.868698
1023.870, 7.841682
1024.352, 6.921364
1024.834, 6.124676
1025.316, 5.557648
1025.799, 5.309200
1026.281, 5.100498
1026.763, 4.823235
1027.245, 4.512215
1027.727, 4.175159
1028.209, 3.861404
1028.691, 3.751892
1029.173, 4.117908
1029.656, 4.380833
1030.138, 4.134674
1030.620, 3.734913
1031.102, 3.578598
1031.584, 3.734322
1032.066, 3.739101
1032.548, 3.577118
1033.030, 3.318443
1033.512, 2.961094
1033.995, 2.580990
1034.477, 2.254707
1034.959, 1.990597
1035.441, 1.805290
1035.923, 1.754028
1036.405, 1.708744
1036.887, 1.654682
1037.369, 1.579823
1037.851, 1.437542
1038.334, 1.251247
1038.816, 1.087948
1039.298, 0.9524190
1039.780, 0.8919490
1040.262, 0.9895780
1040.744, 1.132751
1041.226, 1.246307
1041.708, 1.332840
1042.191, 1.318916
1042.673, 1.193275
1043.155, 1.060829
1043.637, 0.9769360
1044.119, 0.9179460
1044.601, 0.8356060
1045.083, 0.7522540
1045.565, 0.7230300
1046.047, 0.9065130
1046.530, 0.9194910
1047.012, 0.6465840
1047.494, 0.3217960
1047.976, 0.2167890
1048.458, 0.2908400
1048.940, 0.3902590
1049.422, 0.4994930
1049.904, 0.5176540
1050.386, 0.2042160
1050.869, 5.5636998E-02
1051.351, 8.0283999E-02
1051.833, 0.4822270
1052.315, 0.6120570
1052.797, 0.4410210
1053.279, 0.1916080
1053.761, 0.1174050
1054.243, 0.3805690
1054.726, 0.4862670
1055.208, 0.4534340
1055.690, 0.2927170
1056.172, 3.9833002E-02
1056.654, 0.3739930
1057.136, 0.7912640
1057.618, 1.033211
1058.100, 0.7985380
1058.583, 0.2893910
1059.065, 0.4177440
1059.547, 1.043259
1060.029, 1.519516
1060.511, 1.319324
1060.993, 1.114742
1061.475, 1.234203
1061.957, 1.487720
1062.439, 1.609562
1062.922, 1.580410
1063.404, 1.596069
1063.886, 1.674309
1064.368, 1.774670
1064.850, 1.875866
1065.332, 1.971149
1065.814, 2.049145
1066.296, 2.110470
1066.778, 2.185051
1067.261, 2.305706
1067.743, 2.351418
1068.225, 2.227551
1068.707, 2.119221
1069.189, 2.471012
1069.671, 3.094002
1070.153, 3.556957
1070.635, 3.751820
1071.118, 3.777985
1071.600, 3.511127
1072.082, 3.233704
1072.564, 3.056255
1073.046, 2.995274
1073.528, 3.340370
1074.010, 4.057907
1074.492, 4.697739
1074.974, 5.040157
1075.457, 5.189266
1075.939, 5.085361
1076.421, 4.885654
1076.903, 4.858303
1077.385, 5.038277
1077.867, 5.343391
1078.349, 5.812656
1078.831, 6.216518
1079.313, 6.240223
1079.796, 6.117844
1080.278, 6.237652
1080.760, 6.576569
1081.242, 6.831017
1081.724, 6.630981
1082.206, 6.745628
1082.688, 7.480843
1083.170, 8.414967
1083.652, 8.678902
1084.135, 8.454746
1084.617, 8.478142
1085.099, 8.934772
1085.581, 9.302563
1086.063, 9.123161
1086.545, 8.886799
1087.027, 8.921223
1087.509, 9.197796
1087.992, 9.407032
1088.474, 9.545422
1088.956, 9.669201
1089.438, 9.783501
1089.920, 9.930523
1090.402, 10.26973
1090.884, 10.61708
1091.366, 10.67419
1091.849, 10.13149
1092.331, 10.11359
1092.813, 10.76184
1093.295, 11.43553
1093.777, 11.65969
1094.259, 11.58955
1094.741, 11.42886
1095.223, 11.22319
1095.705, 11.12148
1096.188, 11.28495
1096.670, 11.41266
1097.152, 11.43523
1097.634, 11.42331
1098.116, 11.44923
1098.598, 11.51908
1099.080, 11.73269
1099.562, 12.09332
1100.044, 12.25009
1100.527, 11.69290
1101.009, 11.16943
1101.491, 11.14272
1101.973, 11.46067
1102.455, 11.66580
1102.937, 11.75903
1103.419, 11.83869
1103.901, 11.93534
1104.384, 12.01080
1104.866, 12.05615
1105.348, 12.03653
1105.830, 11.91257
1106.312, 11.67623
1106.794, 11.41613
1107.276, 11.12998
1107.758, 10.81286
1108.240, 10.40690
1108.723, 10.01471
1109.205, 9.797459
1109.687, 9.736496
1110.169, 9.797554
1110.651, 10.11076
1111.133, 10.27765
1111.615, 10.26099
1112.097, 10.09568
1112.579, 9.760456
1113.062, 9.325474
1113.544, 9.056999
1114.026, 8.919716
1114.508, 8.695396
1114.990, 8.182362
1115.472, 7.685841
1115.954, 7.265255
1116.436, 6.940777
1116.919, 6.802952
1117.401, 6.835938
1117.883, 6.767143
1118.365, 6.570724
1118.847, 6.293552
1119.329, 5.909313
1119.811, 5.515282
1120.293, 5.097103
1120.776, 4.724766
1121.258, 4.707981
1121.740, 5.107227
1122.222, 5.246502
1122.704, 4.952362
1123.186, 4.500546
1123.668, 4.090248
1124.150, 3.719025
1124.632, 3.386623
1125.115, 3.096497
1125.597, 2.812889
1126.079, 2.515636
1126.561, 2.301785
1127.043, 2.260078
1127.525, 2.239738
1128.007, 1.882210
1128.489, 1.404400
1128.971, 1.194988
1129.454, 1.449966
1129.936, 1.726311
1130.418, 2.054943
1130.900, 2.255630
1131.382, 2.213936
1131.864, 1.966377
1132.346, 1.485374
1132.828, 0.8795240
1133.311, 0.5076180
1133.793, 0.7610820
1134.275, 0.9501720
1134.757, 0.8583530
1135.239, 0.7052460
1135.721, 0.7501720
1136.203, 0.9445000
1136.685, 0.8060040
1137.167, 0.3554530
1137.650, 2.4871999E-02
1138.132, 8.9328997E-02
1138.614, 4.4918001E-02
1139.096, 0.1059990
1139.578, 0.2558250
1140.060, 0.1928370
1140.542, 8.9984998E-02
1141.024, 0.2030640
1141.506, 9.5202997E-02
1141.989, 7.5869998E-03
1142.471, 0.2007830
1142.953, 0.4270780
1143.435, 0.4884950
1143.917, 0.4095690
1144.399, 0.3715210
1144.881, 0.3903960
1145.363, 0.3252260
1145.846, 0.1251680
1146.328, 7.4081004E-02
1146.810, 0.1047130
1147.292, 6.4044997E-02
1147.774, 6.9606997E-02
1148.256, 0.1403620
1148.738, 7.6545998E-02
1149.220, 0.2057000
1149.703, 0.3059040
1150.185, 2.5899999E-04
1150.667, 0.3880580
1151.149, 0.3061600
1151.631, 8.0800001E-03
1152.113, 7.3276997E-02
1152.595, 0.2678570
1153.077, 0.3721540
1153.559, 3.8711999E-02
1154.042, 0.1420710
1154.524, 0.2457810
1155.006, 0.9040410
1155.488, 1.220695
1155.970, 1.262512
1156.452, 1.163807
1156.934, 0.7317240
1157.416, 0.6318820
1157.898, 1.104519
1158.381, 1.625584
1158.863, 1.761600
1159.345, 1.621311
1159.827, 1.650585
1160.309, 1.805172
1160.791, 1.905773
1161.273, 1.716194
1161.755, 1.677048
1162.238, 2.023708
1162.720, 2.418915
1163.202, 2.412827
1163.684, 2.104343
1164.166, 2.223030
1164.648, 2.747829
1165.130, 3.166389
1165.612, 3.078987
1166.094, 2.941006
1166.577, 2.842590
1167.059, 2.881229
1167.541, 3.338261
1168.023, 4.161739
1168.505, 4.601955
1168.987, 4.583237
1169.469, 4.468746
1169.951, 4.387772
1170.433, 4.411297
1170.916, 4.756073
1171.398, 5.193462
1171.880, 4.974525
1172.362, 4.113571
1172.844, 3.975792
1173.326, 4.908157
1173.808, 5.868690
1174.290, 5.945423
1174.773, 5.735336
1175.255, 5.685867
1175.737, 5.772202
1176.219, 5.748764
1176.701, 5.603615
1177.183, 5.619415
1177.665, 5.920555
1178.147, 6.233746
1178.630, 6.250755
1179.112, 6.184933
1179.594, 6.267349
1180.076, 6.506962
1180.558, 6.637787
1181.040, 6.649677
1181.522, 6.691238
1182.004, 6.864834
1182.486, 6.984886
1182.969, 6.771927
1183.451, 6.437893
1183.933, 6.225246
1184.415, 6.157257
1184.897, 6.257072
1185.379, 6.565189
1185.861, 6.782673
1186.343, 6.721313
1186.825, 6.569557
1187.308, 6.391201
1187.790, 6.259827
1188.272, 6.348656
1188.754, 6.795166
1189.236, 7.141308
1189.718, 7.385860
1190.200, 7.507965
1190.682, 7.396599
1191.165, 7.230824
1191.647, 7.258125
1192.129, 7.412163
1192.611, 7.566914
1193.093, 7.700897
1193.575, 7.847527
1194.057, 7.998848
1194.539, 8.053463
1195.021, 7.914314
1195.504, 7.667858
1195.986, 7.403511
1196.468, 7.121975
1196.950, 6.832703
1197.432, 6.435425
1197.914, 6.282608
1198.396, 6.403873
1198.878, 6.659653
1199.360, 7.027126
1199.843, 7.402515
1200.325, 7.587204
1200.807, 7.550011
1201.289, 7.289196
1201.771, 6.596092
1202.253, 6.237648
1202.735, 6.361046
1203.217, 6.610516
1203.700, 6.589272
1204.182, 6.447144
1204.664, 6.392418
1205.146, 6.429741
1205.628, 6.475803
1206.110, 6.445560
1206.592, 6.625549
1207.074, 7.150471
1207.557, 7.617489
1208.039, 7.443150
1208.521, 6.942913
1209.003, 6.490273
1209.485, 6.132641
1209.967, 6.055634
1210.449, 6.407413
1210.931, 6.687840
1211.413, 6.802269
1211.896, 6.786667
1212.378, 6.647930
1212.860, 6.436874
1213.342, 6.249866
1213.824, 6.096371
1214.306, 5.808945
1214.788, 5.218651
1215.270, 4.955166
1215.752, 5.301460
1216.235, 5.745441
1216.717, 5.453609
1217.199, 4.833157
1217.681, 4.489231
1218.163, 4.524696
1218.645, 4.493793
1219.127, 4.330406
1219.609, 4.195282
1220.092, 4.149059
1220.574, 4.129654
1221.056, 4.037159
1221.538, 3.913025
1222.020, 3.820065
1222.502, 3.776329
1222.984, 3.711914
1223.466, 3.636303
1223.948, 3.493343
1224.431, 3.238926
1224.913, 2.953995
1225.395, 2.716331
1225.877, 2.543926
1226.359, 2.481018
1226.841, 2.574036
1227.323, 2.493507
1227.805, 2.096439
1228.287, 2.183544
1228.770, 3.424767
1229.252, 4.694397
1229.734, 4.157616
1230.216, 2.819248
1230.698, 2.066082
1231.180, 2.248749
1231.662, 2.231689
1232.144, 1.988350
1232.627, 1.687634
1233.109, 1.336193
1233.591, 1.083866
1234.073, 1.246174
1234.555, 1.546024
1235.037, 1.596684
1235.519, 1.333080
1236.001, 0.9810370
1236.484, 0.5161780
1236.966, 0.2206310
1237.448, 0.3423500
1237.930, 0.5368160
1238.412, 0.3799740
1238.894, 0.1201740
1239.376, 0.1287920
1239.858, 0.4660800
1240.340, 0.6783870
1240.823, 0.7597390
1241.305, 0.7720530
1241.787, 0.7359540
1242.269, 0.6577190
1242.751, 0.5736080
1243.233, 0.4280240
1243.715, 0.1143040
1244.197, 0.4084090
1244.679, 0.6253510
1245.162, 0.5419010
1245.644, 0.4263310
1246.126, 0.4013330
1246.608, 0.3844950
1247.090, 0.3288190
1247.572, 0.2193570
1248.054, 8.6209998E-03
1248.536, 0.3175390
1249.019, 0.3674580
1249.501, 0.1634030
1249.983, 7.0618004E-02
1250.465, 0.3417660
1250.947, 0.4445340
1251.429, 7.6068997E-02
1251.911, 0.3583490
1252.393, 0.4492490
1252.875, 0.2209890
1253.358, 0.1728780
1253.840, 0.2758180
1254.322, 0.3361890
1254.804, 0.1302760
1255.286, 2.8232999E-02
1255.768, 0.3233380
1256.250, 0.5970270
1256.732, 0.3767970
1257.214, 0.2019310
1257.697, 0.2300950
1258.179, 0.1813930
1258.661, 0.5055470
1259.143, 0.3820920
1259.625, 0.3238260
1260.107, 0.4207760
1260.589, 0.6139720
1261.071, 0.9334910
1261.554, 1.293610
1262.036, 1.416534
1262.518, 1.334164
1263.000, 1.166599
1263.482, 0.8025610
1263.964, 0.6127400
1264.446, 0.6871260
1264.928, 0.7910580
1265.411, 0.7078740
1265.893, 0.5309720
1266.375, 0.3607220
1266.857, 0.2523960
1267.339, 0.3567710
1267.821, 1.004269
1268.303, 1.289911
1268.785, 1.105347
1269.267, 0.9033760
1269.750, 1.126427
1270.232, 1.473343
1270.714, 1.556925
1271.196, 1.457453
1271.678, 1.376818
1272.160, 1.326441
1272.642, 1.345329
1273.124, 1.440578
1273.606, 1.538919
1274.089, 1.432919
1274.571, 1.334957
1275.053, 1.344467
1275.535, 1.408552
1276.017, 1.472742
1276.499, 1.442932
1276.981, 1.387024
1277.463, 1.384726
1277.946, 1.569668
1278.428, 1.904469
1278.910, 2.186897
1279.392, 2.132235
1279.874, 2.033985
1280.356, 2.024315
1280.838, 2.140821
1281.320, 2.112812
1281.802, 1.848133
1282.285, 1.598761
1282.767, 1.390350
1283.249, 1.302940
1283.731, 1.479061
1284.213, 1.655554
1284.695, 1.492443
1285.177, 1.045616
1285.659, 0.9431300
1286.141, 1.150681
1286.624, 1.459370
1287.106, 2.198532
1287.588, 2.418125
1288.070, 1.834019
1288.552, 1.125755
1289.034, 0.8409840
1289.516, 0.8559190
1289.998, 0.9174040
1290.481, 1.020054
1290.963, 1.152649
1291.445, 1.477158
1291.927, 1.475899
1292.409, 1.061646
1292.891, 0.6742860
1293.373, 0.7132450
1293.855, 0.8922920
1294.338, 0.8184430
1294.820, 0.6320570
1295.302, 0.6070940
1295.784, 0.8110690
1296.266, 0.9734420
1296.748, 1.095047
1297.230, 1.137936
1297.712, 1.038879
1298.194, 0.8994640
1298.677, 0.7909770
1299.159, 0.6942790
1299.641, 0.5878070
1300.123, 0.4711690
1300.605, 0.2694850
1301.087, 1.3184000E-02
1301.569, 1.4183000E-02
1302.051, 0.5706370
1302.533, 0.4945560
1303.016, 0.0000000E+00
##END=



