##NAMES=Andradite
##RRUFFID=R040001
##IDEAL CHEMISTRY=Ca_3_Fe^3+^_2_(SiO_4_)_3_
##LOCALITY=Stanley Butte, Graham County, Arizona, USA
##OWNER=RRUFF
##SOURCE=University of Arizona Mineral Museum
##DESCRIPTION=Brownish-orange dodecahedra
##STATUS=The identification of this mineral has been confirmed by X-ray diffraction and chemical analysis
##URL=rruff.info/R040001
##MEASURED CHEMISTRY=Ca_3.00_(Fe_1.96_Al_0.04_)_Î£=2_(SiO_4_)_3_ ; trace amounts of Mn
122.4867, 0.0000000E+00
122.9688, 8.033752
123.4509, 7.316895
123.9330, 2.533508
124.4151, 0.6170040
124.8972, 0.9715580
125.3794, 5.246033
125.8615, 18.93811
126.3436, 39.02362
126.8257, 56.45074
127.3078, 63.43738
127.7899, 63.08557
128.2721, 64.43774
128.7542, 67.41321
129.2363, 68.12238
129.7184, 72.57654
130.2005, 81.51398
130.6826, 86.64111
131.1648, 77.46820
131.6469, 55.80090
132.1290, 34.64813
132.6111, 17.78253
133.0932, 5.042603
133.5753, 4.206848
134.0575, 10.03326
134.5396, 12.31781
135.0217, 10.39862
135.5038, 4.095093
135.9859, 4.367065
136.4680, 13.37708
136.9501, 22.83191
137.4323, 37.02478
137.9144, 58.82367
138.3965, 83.23438
138.8786, 95.29712
139.3607, 91.94104
139.8428, 84.89948
140.3250, 80.63177
140.8071, 78.71460
141.2892, 81.56274
141.7713, 91.68079
142.2534, 108.0453
142.7355, 117.7731
143.2177, 117.7948
143.6998, 115.0369
144.1819, 115.3521
144.6640, 119.0337
145.1461, 124.8069
145.6283, 134.6757
146.1104, 150.7261
146.5925, 156.5829
147.0746, 145.9628
147.5567, 127.8325
148.0388, 114.7742
148.5210, 108.5620
149.0031, 105.4833
149.4852, 104.1500
149.9673, 102.2147
150.4494, 106.7233
150.9315, 124.3242
151.4137, 148.6971
151.8958, 164.3500
152.3779, 157.4796
152.8600, 152.1310
153.3421, 158.0903
153.8242, 192.8561
154.3064, 219.5656
154.7885, 229.9835
155.2706, 227.1670
155.7527, 230.1718
156.2348, 237.6307
156.7169, 254.4104
157.1990, 283.6770
157.6812, 327.9541
158.1633, 382.9971
158.6454, 447.0887
159.1275, 519.2611
159.6096, 604.8192
160.0917, 702.6119
160.5739, 814.8500
161.0560, 944.9177
161.5381, 1094.670
162.0202, 1259.241
162.5023, 1441.869
162.9844, 1639.494
163.4666, 1848.511
163.9487, 2070.823
164.4308, 2303.904
164.9129, 2541.372
165.3950, 2765.070
165.8771, 2998.369
166.3593, 3260.585
166.8414, 3558.535
167.3235, 3879.688
167.8056, 4215.953
168.2877, 4571.231
168.7698, 4955.997
169.2520, 5409.375
169.7341, 5881.832
170.2162, 6339.419
170.6983, 6835.029
171.1804, 7222.210
171.6625, 7412.801
172.1447, 7405.412
172.6268, 7190.495
173.1089, 6660.596
173.5910, 5938.227
174.0731, 5193.539
174.5552, 4428.958
175.0374, 3697.537
175.5195, 3076.428
176.0016, 2558.389
176.4837, 2123.151
176.9658, 1771.170
177.4479, 1492.717
177.9300, 1270.439
178.4122, 1117.136
178.8943, 1010.225
179.3764, 914.4824
179.8585, 829.8529
180.3406, 754.6898
180.8227, 692.2198
181.3049, 641.4514
181.7870, 596.2466
182.2691, 554.4517
182.7512, 516.2688
183.2333, 482.4481
183.7154, 453.1410
184.1976, 428.4939
184.6797, 411.1957
185.1618, 400.2969
185.6439, 388.5775
186.1260, 370.4536
186.6081, 347.4998
187.0903, 325.7561
187.5724, 305.5048
188.0545, 287.1583
188.5366, 270.6975
189.0187, 256.2360
189.5008, 243.8055
189.9830, 234.6797
190.4651, 228.3759
190.9472, 220.8430
191.4293, 210.9573
191.9114, 199.6135
192.3935, 188.7062
192.8757, 178.3031
193.3578, 169.1017
193.8399, 163.8030
194.3220, 162.1772
194.8041, 154.4948
195.2862, 136.1304
195.7684, 109.9844
196.2505, 89.96326
196.7326, 77.11401
197.2147, 66.49512
197.6968, 51.67419
198.1789, 32.16333
198.6610, 16.32910
199.1432, 7.352539
199.6253, 4.874268
200.1074, 4.550049
200.5895, 7.656128
201.0716, 10.03735
201.5537, 4.551636
202.0359, 10.44263
202.5180, 23.76501
203.0001, 31.04932
203.4822, 32.00635
203.9643, 32.54492
204.4464, 32.57739
204.9286, 32.47632
205.4107, 33.43323
205.8928, 36.24939
206.3749, 37.31543
206.8570, 34.99109
207.3391, 28.98584
207.8213, 20.73914
208.3034, 9.212158
208.7855, 3.627808
209.2676, 12.35107
209.7497, 15.01575
210.2318, 18.94836
210.7140, 27.98499
211.1961, 42.69958
211.6782, 60.01343
212.1603, 79.87463
212.6424, 102.0983
213.1245, 125.5615
213.6067, 149.3507
214.0888, 177.8000
214.5709, 211.7938
215.0530, 250.0826
215.5351, 297.4645
216.0172, 355.9486
216.4994, 423.7767
216.9815, 494.6403
217.4636, 565.9822
217.9457, 641.5715
218.4278, 722.2703
218.9099, 802.4222
219.3920, 899.1628
219.8742, 1019.010
220.3563, 1158.430
220.8384, 1298.698
221.3205, 1430.450
221.8026, 1573.714
222.2847, 1742.024
222.7669, 1936.303
223.2490, 2155.178
223.7311, 2398.043
224.2132, 2668.243
224.6953, 2953.893
225.1774, 3265.737
225.6596, 3586.125
226.1417, 3902.993
226.6238, 4210.932
227.1059, 4521.175
227.5880, 4841.531
228.0701, 5171.938
228.5523, 5495.013
229.0344, 5803.587
229.5165, 6109.735
229.9986, 6428.413
230.4807, 6746.013
230.9628, 7096.570
231.4450, 7494.193
231.9271, 7949.196
232.4092, 8394.229
232.8913, 8877.414
233.3734, 9321.921
233.8555, 9638.960
234.3377, 9864.468
234.8198, 9906.076
235.3019, 9727.118
235.7840, 9307.065
236.2661, 8763.790
236.7482, 8056.692
237.2304, 7260.796
237.7125, 6485.132
238.1946, 5703.966
238.6767, 4987.561
239.1588, 4352.704
239.6409, 3811.274
240.1230, 3321.668
240.6052, 2888.443
241.0873, 2508.431
241.5694, 2182.519
242.0515, 1925.094
242.5336, 1699.028
243.0157, 1491.520
243.4979, 1299.315
243.9800, 1136.114
244.4621, 1007.828
244.9442, 906.3834
245.4263, 813.7205
245.9084, 731.6829
246.3906, 655.4368
246.8727, 581.9644
247.3548, 506.4991
247.8369, 446.9921
248.3190, 408.3838
248.8011, 384.1185
249.2833, 358.2219
249.7654, 327.6116
250.2475, 300.8406
250.7296, 280.4167
251.2117, 262.9310
251.6938, 260.6085
252.1760, 277.2479
252.6581, 307.8757
253.1402, 341.1002
253.6223, 375.6738
254.1044, 415.2664
254.5865, 462.0497
255.0687, 520.1089
255.5508, 574.8993
256.0329, 621.5350
256.5150, 666.1509
256.9971, 727.3723
257.4792, 813.9069
257.9614, 903.4387
258.4435, 983.6030
258.9256, 1044.757
259.4077, 1123.557
259.8898, 1225.805
260.3719, 1345.056
260.8541, 1464.667
261.3362, 1589.763
261.8183, 1708.455
262.3004, 1822.463
262.7825, 1944.478
263.2646, 2018.330
263.7468, 2042.246
264.2289, 2015.256
264.7110, 1929.274
265.1931, 1773.088
265.6752, 1583.811
266.1573, 1369.468
266.6395, 1116.552
267.1216, 897.9756
267.6037, 723.9136
268.0858, 586.3457
268.5679, 457.5117
269.0500, 336.6991
269.5321, 231.7422
270.0143, 148.0378
270.4964, 88.66663
270.9785, 38.59241
271.4606, 2.248657
271.9427, 35.42737
272.4248, 65.59814
272.9070, 92.49023
273.3891, 117.2870
273.8712, 141.7488
274.3533, 166.6926
274.8354, 185.0015
275.3175, 195.5254
275.7997, 199.3687
276.2818, 197.9135
276.7639, 189.7329
277.2460, 182.1696
277.7281, 180.8463
278.2102, 186.4244
278.6924, 189.5402
279.1745, 189.9731
279.6566, 186.9978
280.1387, 177.9727
280.6208, 162.2521
281.1029, 144.4617
281.5851, 127.5198
282.0672, 111.4268
282.5493, 93.99255
283.0314, 75.32532
283.5135, 54.78369
283.9956, 32.30640
284.4778, 8.281250
284.9599, 22.47949
285.4420, 66.96191
285.9241, 123.7590
286.4062, 172.2874
286.8883, 206.7969
287.3705, 237.8828
287.8526, 286.2798
288.3347, 352.0676
288.8168, 422.3950
289.2989, 491.4082
289.7810, 558.7051
290.2632, 618.9583
290.7453, 668.6011
291.2274, 716.0667
291.7095, 776.1821
292.1916, 848.1353
292.6737, 921.3303
293.1559, 991.5215
293.6380, 1057.501
294.1201, 1116.462
294.6022, 1168.206
295.0843, 1213.370
295.5664, 1252.277
296.0486, 1285.758
296.5307, 1317.114
297.0128, 1339.635
297.4949, 1362.597
297.9770, 1405.220
298.4591, 1468.484
298.9413, 1555.620
299.4234, 1667.749
299.9055, 1806.411
300.3876, 1973.040
300.8697, 2168.083
301.3518, 2390.858
301.8340, 2645.439
302.3161, 2935.306
302.7982, 3245.340
303.2803, 3572.010
303.7624, 3909.285
304.2445, 4251.904
304.7267, 4572.810
305.2088, 4902.458
305.6909, 5285.064
306.1730, 5721.375
306.6551, 6201.237
307.1372, 6715.213
307.6194, 7264.710
308.1015, 7841.973
308.5836, 8474.802
309.0657, 9116.057
309.5478, 9760.353
310.0299, 10413.58
310.5120, 10951.54
310.9941, 11364.06
311.4763, 11589.28
311.9584, 11539.87
312.4405, 11088.91
312.9226, 10413.51
313.4047, 9570.295
313.8868, 8548.062
314.3690, 7558.876
314.8511, 6669.556
315.3332, 5884.204
315.8153, 5210.298
316.2974, 4647.353
316.7795, 4187.981
317.2617, 3845.759
317.7438, 3617.055
318.2259, 3452.744
318.7080, 3343.282
319.1901, 3286.322
319.6722, 3279.776
320.1544, 3335.635
320.6365, 3429.773
321.1186, 3563.142
321.6007, 3733.859
322.0828, 3914.425
322.5649, 4124.711
323.0471, 4327.446
323.5292, 4496.627
324.0113, 4680.096
324.4934, 4773.198
324.9755, 4736.678
325.4576, 4582.853
325.9398, 4396.468
326.4219, 4158.608
326.9040, 3907.865
327.3861, 3664.858
327.8682, 3390.601
328.3503, 3172.121
328.8325, 3021.754
329.3146, 2930.990
329.7967, 2863.056
330.2788, 2816.314
330.7609, 2794.665
331.2430, 2800.273
331.7252, 2835.451
332.2073, 2893.669
332.6894, 2980.055
333.1715, 3090.724
333.6536, 3208.836
334.1357, 3329.345
334.6179, 3469.356
335.1000, 3633.967
335.5821, 3816.010
336.0642, 4036.948
336.5463, 4294.975
337.0284, 4594.995
337.5106, 4950.991
337.9927, 5368.814
338.4748, 5820.192
338.9569, 6288.107
339.4390, 6763.783
339.9211, 7319.951
340.4033, 7964.716
340.8854, 8669.961
341.3675, 9372.449
341.8496, 10078.20
342.3317, 10809.41
342.8138, 11573.28
343.2960, 12367.17
343.7781, 13226.13
344.2602, 14142.42
344.7423, 15129.36
345.2244, 16193.86
345.7065, 17334.91
346.1887, 18535.20
346.6708, 19795.54
347.1529, 21112.69
347.6350, 22467.45
348.1171, 23855.78
348.5992, 25217.57
349.0814, 26588.82
349.5635, 27878.72
350.0456, 28876.06
350.5277, 29516.67
351.0098, 29827.73
351.4919, 29824.97
351.9740, 29514.57
352.4561, 28962.45
352.9383, 28049.77
353.4204, 26965.05
353.9025, 25989.33
354.3846, 25150.84
354.8667, 24494.93
355.3488, 24043.65
355.8310, 23806.87
356.3131, 23809.50
356.7952, 24094.86
357.2773, 24615.06
357.7594, 25332.71
358.2415, 26246.21
358.7237, 27343.71
359.2058, 28654.20
359.6879, 30141.88
360.1700, 31741.34
360.6521, 33446.73
361.1342, 35237.05
361.6164, 37110.20
362.0985, 39061.15
362.5806, 41119.26
363.0627, 43371.01
363.5448, 45709.60
364.0269, 48010.59
364.5091, 50258.98
364.9912, 52459.60
365.4733, 54649.87
365.9554, 56849.86
366.4375, 58792.39
366.9196, 60629.21
367.4018, 62088.92
367.8839, 62983.54
368.3660, 63388.59
368.8481, 63117.91
369.3302, 62117.18
369.8123, 60399.23
370.2945, 58170.80
370.7766, 55248.02
371.2587, 51974.84
371.7408, 48490.15
372.2229, 44648.84
372.7050, 40936.99
373.1872, 37303.11
373.6693, 33852.41
374.1514, 30679.62
374.6335, 27774.33
375.1156, 25155.88
375.5977, 22822.75
376.0799, 20784.79
376.5620, 18965.14
377.0441, 17360.08
377.5262, 15950.73
378.0083, 14711.81
378.4904, 13639.97
378.9726, 12699.36
379.4547, 11879.20
379.9368, 11180.52
380.4189, 10563.52
380.9010, 10044.59
381.3831, 9555.729
381.8653, 9044.457
382.3474, 8505.904
382.8295, 7952.288
383.3116, 7361.160
383.7937, 6767.961
384.2758, 6234.313
384.7580, 5759.866
385.2401, 5323.609
385.7222, 4888.870
386.2043, 4473.541
386.6864, 4115.125
387.1685, 3830.337
387.6507, 3584.921
388.1328, 3345.734
388.6149, 3112.015
389.0970, 2895.175
389.5791, 2699.446
390.0612, 2521.548
390.5434, 2363.016
391.0255, 2227.304
391.5076, 2100.817
391.9897, 1970.133
392.4718, 1842.928
392.9539, 1731.269
393.4360, 1651.525
393.9182, 1580.963
394.4003, 1509.389
394.8824, 1436.457
395.3645, 1361.677
395.8466, 1275.505
396.3287, 1191.300
396.8109, 1122.035
397.2930, 1086.421
397.7751, 1049.570
398.2572, 1001.809
398.7393, 943.5566
399.2214, 892.6653
399.7036, 856.2922
400.1857, 822.2595
400.6678, 783.1384
401.1499, 728.9971
401.6320, 686.3958
402.1141, 662.0068
402.5963, 649.0078
403.0784, 625.2632
403.5605, 583.7092
404.0426, 544.5244
404.5247, 518.6838
405.0068, 510.4153
405.4890, 493.9312
405.9711, 467.2668
406.4532, 435.0557
406.9353, 401.7393
407.4174, 366.5447
407.8995, 337.0952
408.3817, 318.5586
408.8638, 308.4663
409.3459, 292.3794
409.8280, 269.6733
410.3101, 245.0886
410.7922, 226.0464
411.2744, 210.1702
411.7565, 186.2976
412.2386, 147.1516
412.7207, 103.4990
413.2028, 71.83105
413.6849, 51.04858
414.1671, 36.07886
414.6492, 25.71582
415.1313, 18.08472
415.6134, 11.43042
416.0955, 6.894287
416.5776, 1.416992
417.0598, 23.08179
417.5419, 51.80542
418.0240, 75.34204
418.5061, 84.86865
418.9882, 89.57715
419.4703, 93.77954
419.9525, 97.66406
420.4346, 103.6082
420.9167, 113.0317
421.3988, 124.6899
421.8809, 137.6604
422.3630, 156.2153
422.8452, 171.1420
423.3273, 178.4597
423.8094, 178.9429
424.2915, 180.6869
424.7736, 185.2662
425.2557, 190.5612
425.7379, 195.7324
426.2200, 203.2750
426.7021, 206.6348
427.1842, 205.0657
427.6663, 199.6183
428.1484, 192.4640
428.6306, 183.2401
429.1127, 172.8108
429.5948, 160.2413
430.0769, 145.1292
430.5590, 136.7781
431.0411, 138.2128
431.5233, 140.1166
432.0054, 130.9895
432.4875, 110.4741
432.9696, 88.41577
433.4517, 67.90845
433.9338, 47.16113
434.4159, 20.25415
434.8980, 12.85791
435.3802, 47.34692
435.8623, 76.80029
436.3444, 104.9907
436.8265, 142.0496
437.3086, 191.2681
437.7907, 245.1628
438.2729, 293.6284
438.7550, 339.7527
439.2371, 392.0383
439.7192, 453.4426
440.2013, 523.7749
440.6834, 606.0488
441.1656, 700.2764
441.6477, 794.4885
442.1298, 875.7688
442.6119, 955.6621
443.0940, 1046.618
443.5761, 1158.526
444.0583, 1276.390
444.5404, 1394.705
445.0225, 1513.576
445.5046, 1637.115
445.9867, 1773.086
446.4688, 1909.235
446.9510, 2038.245
447.4331, 2160.591
447.9152, 2276.898
448.3973, 2399.040
448.8794, 2510.167
449.3615, 2588.368
449.8437, 2637.440
450.3258, 2646.906
450.8079, 2615.430
451.2900, 2543.171
451.7721, 2414.888
452.2542, 2216.587
452.7364, 1994.623
453.2185, 1795.815
453.7006, 1622.448
454.1827, 1437.702
454.6648, 1229.351
455.1469, 1014.648
455.6291, 835.9165
456.1112, 691.8931
456.5933, 572.9924
457.0754, 482.9150
457.5575, 413.9609
458.0396, 352.1941
458.5218, 296.0366
459.0039, 246.9624
459.4860, 206.0637
459.9681, 172.9634
460.4502, 147.7307
460.9323, 134.9485
461.4145, 126.5156
461.8966, 115.5916
462.3787, 102.8628
462.8608, 93.81323
463.3429, 92.76636
463.8250, 95.40332
464.3072, 98.38354
464.7893, 100.3162
465.2714, 103.8281
465.7535, 110.6929
466.2356, 119.4851
466.7177, 127.1672
467.1999, 125.4871
467.6820, 130.4934
468.1641, 148.8501
468.6462, 183.4075
469.1283, 211.8469
469.6104, 231.8987
470.0926, 248.3369
470.5747, 263.9788
471.0568, 275.5391
471.5389, 296.7097
472.0210, 331.5676
472.5031, 376.2649
472.9853, 418.4131
473.4674, 457.7964
473.9495, 496.4106
474.4316, 529.2061
474.9137, 559.0269
475.3958, 608.9412
475.8779, 682.6724
476.3600, 768.4126
476.8422, 852.5151
477.3243, 936.5886
477.8064, 1023.943
478.2885, 1107.586
478.7706, 1200.329
479.2527, 1318.554
479.7349, 1460.025
480.2170, 1611.812
480.6991, 1765.544
481.1812, 1925.473
481.6633, 2092.337
482.1454, 2260.049
482.6276, 2450.537
483.1097, 2681.558
483.5918, 2937.598
484.0739, 3193.811
484.5560, 3420.382
485.0381, 3667.774
485.5203, 3954.510
486.0024, 4285.391
486.4845, 4609.154
486.9666, 4910.089
487.4487, 5217.854
487.9308, 5559.343
488.4130, 5962.909
488.8951, 6337.170
489.3772, 6685.355
489.8593, 7004.207
490.3414, 7290.033
490.8235, 7553.444
491.3057, 7739.792
491.7878, 7827.281
492.2699, 7818.136
492.7520, 7708.076
493.2341, 7492.327
493.7162, 7213.038
494.1984, 6895.818
494.6805, 6548.137
495.1626, 6200.563
495.6447, 5847.516
496.1268, 5511.711
496.6089, 5199.351
497.0911, 4916.984
497.5732, 4674.866
498.0553, 4470.172
498.5374, 4316.718
499.0195, 4231.954
499.5016, 4220.304
499.9838, 4251.992
500.4659, 4306.920
500.9480, 4402.325
501.4301, 4556.062
501.9122, 4783.520
502.3943, 5055.594
502.8765, 5364.674
503.3586, 5713.903
503.8407, 6111.928
504.3228, 6553.420
504.8049, 7049.849
505.2870, 7602.939
505.7692, 8206.017
506.2513, 8886.969
506.7334, 9645.951
507.2155, 10475.86
507.6976, 11359.49
508.1797, 12293.40
508.6619, 13328.88
509.1440, 14480.88
509.6261, 15740.07
510.1082, 17094.73
510.5903, 18543.35
511.0724, 20055.47
511.5546, 21688.57
512.0367, 23347.71
512.5188, 24955.81
513.0009, 26551.35
513.4830, 27849.24
513.9651, 28695.05
514.4473, 29074.53
514.9294, 28966.47
515.4115, 28288.98
515.8936, 27187.14
516.3757, 25575.76
516.8578, 23548.64
517.3400, 21486.95
517.8221, 19357.93
518.3042, 17330.81
518.7863, 15483.63
519.2684, 13836.51
519.7505, 12342.42
520.2327, 11027.75
520.7148, 9858.723
521.1969, 8823.587
521.6790, 7934.810
522.1611, 7134.426
522.6432, 6415.464
523.1254, 5773.984
523.6075, 5211.563
524.0896, 4733.527
524.5717, 4311.988
525.0538, 3938.796
525.5359, 3612.841
526.0181, 3310.085
526.5002, 3027.486
526.9823, 2773.763
527.4644, 2559.607
527.9465, 2378.772
528.4286, 2215.045
528.9108, 2065.350
529.3929, 1925.429
529.8750, 1791.511
530.3571, 1664.151
530.8392, 1550.859
531.3214, 1455.055
531.8035, 1373.430
532.2856, 1302.680
532.7677, 1242.891
533.2498, 1191.957
533.7319, 1150.203
534.2141, 1116.548
534.6962, 1089.310
535.1783, 1071.841
535.6604, 1056.086
536.1425, 1039.981
536.6246, 1024.812
537.1067, 1014.001
537.5888, 1006.303
538.0709, 1008.137
538.5530, 1023.886
539.0352, 1052.848
539.5173, 1082.169
539.9994, 1111.287
540.4815, 1142.032
540.9636, 1175.344
541.4457, 1212.186
541.9279, 1252.890
542.4100, 1294.624
542.8921, 1342.914
543.3742, 1407.966
543.8563, 1485.315
544.3384, 1560.756
544.8206, 1619.579
545.3027, 1679.223
545.7848, 1752.326
546.2669, 1840.526
546.7490, 1932.326
547.2311, 2023.522
547.7133, 2115.784
548.1954, 2212.570
548.6775, 2318.219
549.1596, 2423.894
549.6417, 2538.345
550.1238, 2649.721
550.6060, 2735.848
551.0881, 2801.221
551.5702, 2831.480
552.0523, 2821.193
552.5344, 2771.944
553.0165, 2699.407
553.4987, 2604.864
553.9808, 2481.489
554.4629, 2309.622
554.9450, 2099.423
555.4271, 1897.096
555.9092, 1708.939
556.3914, 1535.316
556.8735, 1382.599
557.3556, 1247.201
557.8377, 1122.191
558.3198, 1003.622
558.8019, 894.3372
559.2841, 799.6729
559.7662, 719.1519
560.2483, 644.6116
560.7304, 567.1987
561.2125, 498.4766
561.6946, 445.8564
562.1768, 415.4363
562.6589, 387.8005
563.1410, 359.6082
563.6231, 335.1829
564.1052, 319.6313
564.5873, 312.7791
565.0695, 315.8716
565.5516, 329.4199
566.0337, 350.0764
566.5158, 365.3557
566.9979, 374.3572
567.4800, 389.8303
567.9622, 420.2454
568.4443, 462.9844
568.9264, 508.0056
569.4085, 555.4739
569.8906, 604.1670
570.3727, 649.7395
570.8549, 696.9312
571.3370, 755.6113
571.8191, 830.7446
572.3012, 911.1465
572.7833, 997.8645
573.2654, 1083.392
573.7476, 1152.234
574.2297, 1197.134
574.7118, 1228.097
575.1939, 1253.172
575.6760, 1272.432
576.1581, 1260.130
576.6403, 1204.127
577.1224, 1129.521
577.6045, 1047.797
578.0866, 956.4448
578.5687, 862.5439
579.0508, 764.3188
579.5330, 668.9551
580.0151, 585.4963
580.4972, 514.2349
580.9793, 447.1165
581.4614, 380.9275
581.9435, 318.6731
582.4257, 270.5643
582.9078, 234.4463
583.3899, 201.2944
583.8720, 162.9125
584.3541, 126.7948
584.8362, 101.1497
585.3184, 86.80676
585.8005, 74.25256
586.2826, 55.94641
586.7647, 39.25293
587.2468, 30.26257
587.7289, 35.72473
588.2111, 40.83179
588.6932, 46.41968
589.1753, 49.59326
589.6574, 44.63831
590.1395, 25.66907
590.6216, 11.79224
591.1038, 9.565552
591.5859, 16.09045
592.0680, 14.31628
592.5501, 2.839233
593.0322, 8.057373
593.5143, 8.152954
593.9965, 1.516724
594.4786, 7.759399
594.9607, 29.41602
595.4428, 48.93909
595.9249, 48.07581
596.4070, 34.70215
596.8892, 20.67651
597.3713, 4.805786
597.8534, 3.547607
598.3355, 8.989014
598.8176, 32.42810
599.2997, 45.67297
599.7819, 32.28711
600.2640, 18.06299
600.7461, 11.36194
601.2282, 12.29553
601.7103, 13.23242
602.1924, 13.67883
602.6746, 15.23206
603.1567, 20.31360
603.6388, 30.83691
604.1209, 30.04443
604.6030, 14.26282
605.0851, 3.443604
605.5673, 4.278320
606.0494, 9.128418
606.5315, 19.72559
607.0136, 23.12439
607.4957, 22.25562
607.9778, 17.71167
608.4600, 11.54419
608.9421, 10.02551
609.4242, 18.56042
609.9063, 31.26099
610.3884, 47.35144
610.8705, 66.64722
611.3527, 78.41528
611.8348, 75.27783
612.3169, 66.91504
612.7990, 58.67249
613.2811, 49.13916
613.7632, 43.79431
614.2454, 45.17688
614.7275, 47.97644
615.2096, 43.66040
615.6917, 30.21448
616.1738, 23.75342
616.6559, 29.90930
617.1381, 42.27600
617.6202, 47.46460
618.1023, 45.69971
618.5844, 41.09814
619.0665, 36.55493
619.5486, 30.33069
620.0307, 15.12952
620.5128, 7.720703
620.9949, 19.88806
621.4771, 5.125732
621.9592, 34.92480
622.4413, 43.18872
622.9234, 17.33289
623.4055, 6.121216
623.8876, 21.33752
624.3698, 30.45081
624.8519, 35.36475
625.3340, 33.41357
625.8161, 32.57849
626.2982, 33.49390
626.7803, 36.22693
627.2625, 41.85681
627.7446, 50.74951
628.2267, 58.11816
628.7088, 60.52979
629.1909, 60.46521
629.6730, 64.31543
630.1552, 71.92712
630.6373, 81.94470
631.1194, 98.66528
631.6015, 114.5250
632.0836, 118.5492
632.5657, 106.6044
633.0479, 99.09985
633.5300, 114.7290
634.0121, 135.1953
634.4942, 142.7324
634.9763, 114.5144
635.4584, 99.17102
635.9406, 106.7922
636.4227, 126.1445
636.9048, 135.0386
637.3869, 130.6342
637.8690, 124.2227
638.3511, 117.5551
638.8333, 111.7844
639.3154, 113.6147
639.7975, 123.0620
640.2796, 131.0621
640.7617, 129.2513
641.2438, 122.8882
641.7260, 120.1320
642.2081, 121.5706
642.6902, 126.5145
643.1723, 140.4460
643.6544, 154.6187
644.1365, 160.2250
644.6187, 151.1906
645.1008, 141.5590
645.5829, 128.6914
646.0650, 119.1766
646.5471, 123.2871
647.0292, 154.4789
647.5114, 174.0399
647.9935, 171.8489
648.4756, 155.4875
648.9577, 149.8158
649.4398, 155.4916
649.9219, 163.0934
650.4041, 169.4510
650.8862, 174.0678
651.3683, 175.6094
651.8504, 174.2529
652.3325, 170.9438
652.8146, 162.3574
653.2968, 154.0356
653.7789, 152.9628
654.2610, 161.4852
654.7431, 172.2084
655.2252, 185.8907
655.7073, 198.2312
656.1895, 204.9247
656.6716, 198.0988
657.1537, 195.4378
657.6358, 202.0673
658.1179, 211.6744
658.6000, 210.2874
659.0822, 194.0311
659.5643, 185.5723
660.0464, 194.5263
660.5285, 212.8596
661.0106, 218.0533
661.4927, 211.2676
661.9749, 203.9905
662.4570, 202.4914
662.9391, 204.9724
663.4212, 209.9020
663.9033, 216.8038
664.3854, 223.4117
664.8676, 232.7188
665.3497, 239.0552
665.8318, 237.2554
666.3139, 221.3618
666.7960, 211.0072
667.2781, 207.6600
667.7603, 208.7236
668.2424, 212.8494
668.7245, 221.9052
669.2066, 225.6335
669.6887, 222.5383
670.1708, 216.4167
670.6530, 213.9142
671.1351, 214.5593
671.6172, 213.7184
672.0993, 208.9453
672.5814, 201.8600
673.0635, 192.4982
673.5457, 183.0507
674.0278, 178.9156
674.5099, 189.7335
674.9920, 199.4307
675.4741, 197.4510
675.9562, 183.1177
676.4384, 174.0943
676.9205, 176.4019
677.4026, 181.2928
677.8847, 185.8817
678.3668, 191.5187
678.8489, 191.3365
679.3311, 180.8057
679.8132, 167.9368
680.2953, 163.9756
680.7774, 169.5934
681.2595, 176.0746
681.7416, 181.6010
682.2238, 185.5206
682.7059, 186.5793
683.1880, 185.4368
683.6701, 184.0499
684.1522, 182.8322
684.6343, 182.0862
685.1165, 183.0096
685.5986, 184.8324
686.0807, 184.9466
686.5628, 180.1528
687.0449, 176.4121
687.5270, 175.3398
688.0092, 176.8707
688.4913, 179.2999
688.9734, 182.3210
689.4555, 186.7983
689.9376, 195.0450
690.4197, 205.7404
690.9019, 210.4922
691.3840, 209.1627
691.8661, 208.2794
692.3482, 214.2016
692.8303, 223.2480
693.3124, 230.7182
693.7946, 236.3749
694.2767, 243.3635
694.7588, 250.6697
695.2409, 259.1926
695.7230, 269.8364
696.2051, 288.3622
696.6873, 300.8035
697.1694, 303.6816
697.6515, 303.5516
698.1336, 312.7448
698.6157, 332.8903
699.0978, 349.7263
699.5800, 358.5714
700.0621, 363.3237
700.5442, 372.1135
701.0262, 384.4401
701.5084, 396.9673
701.9905, 406.3900
702.4726, 415.3909
702.9547, 428.2451
703.4368, 443.8320
703.9189, 454.1717
704.4011, 451.7505
704.8832, 448.4962
705.3653, 448.3246
705.8474, 450.2145
706.3295, 461.6560
706.8116, 488.0106
707.2938, 514.9515
707.7759, 532.1500
708.2580, 539.5723
708.7401, 543.2207
709.2222, 543.0384
709.7043, 541.6437
710.1865, 540.3737
710.6686, 539.6451
711.1507, 541.4822
711.6328, 548.3349
712.1149, 554.8644
712.5970, 558.2949
713.0792, 558.6025
713.5613, 555.7650
714.0434, 546.0751
714.5255, 538.3203
715.0076, 534.1327
715.4897, 531.8176
715.9719, 526.4118
716.4540, 515.1937
716.9361, 514.4906
717.4182, 534.9008
717.9003, 566.5007
718.3824, 577.0965
718.8646, 568.0598
719.3467, 557.0438
719.8288, 554.6502
720.3109, 555.7407
720.7930, 554.3618
721.2751, 550.7626
721.7573, 548.9042
722.2394, 551.9518
722.7215, 556.1317
723.2036, 559.0869
723.6857, 560.1116
724.1678, 562.2471
724.6500, 567.4918
725.1321, 571.0831
725.6142, 569.7537
726.0963, 563.4322
726.5784, 553.4032
727.0605, 539.2438
727.5427, 523.0248
728.0248, 505.7460
728.5069, 488.4011
728.9890, 473.2062
729.4711, 461.5594
729.9532, 449.8126
730.4354, 436.4710
730.9175, 421.1730
731.3996, 403.3380
731.8817, 379.6226
732.3638, 357.7823
732.8459, 338.3697
733.3281, 321.2044
733.8102, 306.4301
734.2923, 294.3538
734.7744, 283.7696
735.2565, 275.4896
735.7386, 267.3275
736.2208, 252.0532
736.7029, 231.1227
737.1850, 213.3538
737.6671, 204.1940
738.1492, 200.0441
738.6313, 199.2720
739.1135, 201.1467
739.5956, 202.2029
740.0777, 201.1088
740.5598, 198.9846
741.0419, 196.3972
741.5240, 193.3782
742.0062, 189.2036
742.4883, 184.1537
742.9704, 177.2817
743.4525, 167.4143
743.9346, 154.7497
744.4167, 141.7755
744.8989, 128.3051
745.3810, 117.1021
745.8631, 111.9883
746.3452, 109.9624
746.8273, 107.2695
747.3094, 103.4957
747.7916, 98.32111
748.2737, 89.46484
748.7558, 80.35730
749.2379, 74.79358
749.7200, 83.46021
750.2021, 76.18689
750.6843, 45.77502
751.1664, 8.075806
751.6485, 19.96667
752.1306, 38.25220
752.6127, 43.17712
753.0948, 30.88269
753.5770, 14.39636
754.0591, 11.96887
754.5412, 19.01355
755.0233, 25.53638
755.5054, 27.00269
755.9875, 28.44495
756.4697, 32.60547
756.9518, 38.72168
757.4339, 45.03259
757.9160, 51.18152
758.3981, 57.86230
758.8802, 66.71753
759.3624, 75.63379
759.8445, 76.86963
760.3266, 69.37878
760.8087, 63.61902
761.2908, 64.27356
761.7729, 68.66431
762.2551, 72.09778
762.7372, 74.59448
763.2193, 76.26270
763.7014, 76.99060
764.1835, 77.01477
764.6656, 76.25037
765.1478, 74.82715
765.6299, 74.21667
766.1120, 74.24438
766.5941, 75.70667
767.0762, 80.36194
767.5583, 88.09143
768.0405, 87.64111
768.5226, 77.62915
769.0047, 68.33618
769.4868, 69.27625
769.9689, 76.24487
770.4510, 77.32141
770.9332, 72.18115
771.4153, 68.02515
771.8974, 76.34766
772.3795, 83.65137
772.8616, 76.03357
773.3438, 46.73120
773.8259, 26.31799
774.3080, 23.90356
774.7901, 27.07959
775.2722, 29.02527
775.7543, 30.16504
776.2365, 27.62573
776.7186, 21.33191
777.2007, 11.25195
777.6828, 6.334229
778.1649, 27.46814
778.6470, 40.38367
779.1292, 41.07410
779.6113, 43.87109
780.0934, 62.70703
780.5755, 88.01526
781.0576, 108.5754
781.5397, 115.5912
782.0219, 128.9640
782.5040, 154.2272
782.9860, 183.2635
783.4681, 205.5510
783.9503, 218.2946
784.4324, 241.7823
784.9145, 280.6449
785.3966, 325.4561
785.8787, 361.0969
786.3608, 391.1997
786.8430, 426.8783
787.3251, 471.5273
787.8072, 522.0376
788.2893, 581.0634
788.7714, 643.7017
789.2535, 703.3536
789.7357, 747.7927
790.2178, 802.1953
790.6999, 872.0322
791.1820, 951.4624
791.6641, 1030.927
792.1462, 1109.009
792.6284, 1196.654
793.1105, 1297.301
793.5926, 1409.745
794.0747, 1539.917
794.5568, 1682.395
795.0389, 1822.991
795.5211, 1941.828
796.0032, 2070.034
796.4853, 2225.281
796.9674, 2402.925
797.4495, 2593.749
797.9316, 2791.361
798.4138, 3008.698
798.8959, 3246.709
799.3780, 3506.066
799.8601, 3777.388
800.3422, 4059.434
800.8243, 4358.729
801.3065, 4667.239
801.7886, 4999.768
802.2707, 5386.416
802.7528, 5815.020
803.2349, 6264.414
803.7170, 6708.280
804.1992, 7180.101
804.6813, 7689.952
805.1634, 8241.643
805.6455, 8845.904
806.1276, 9518.194
806.6097, 10210.14
807.0919, 10908.12
807.5740, 11621.28
808.0561, 12406.90
808.5382, 13262.59
809.0203, 14157.38
809.5024, 15106.56
809.9846, 16062.98
810.4667, 16988.89
810.9488, 17886.31
811.4309, 18768.50
811.9130, 19706.19
812.3951, 20562.04
812.8773, 21300.71
813.3594, 21922.88
813.8415, 22401.32
814.3236, 22753.17
814.8057, 22892.02
815.2878, 22757.40
815.7700, 22372.61
816.2521, 21811.14
816.7342, 21077.19
817.2163, 20221.46
817.6984, 19241.24
818.1805, 18189.62
818.6627, 17078.37
819.1448, 15910.96
819.6269, 14849.90
820.1090, 13969.49
820.5911, 13177.59
821.0732, 12439.00
821.5554, 11757.76
822.0375, 11181.38
822.5196, 10709.23
823.0017, 10311.26
823.4838, 9963.563
823.9659, 9671.267
824.4481, 9449.092
824.9302, 9294.331
825.4123, 9203.696
825.8944, 9194.856
826.3765, 9230.617
826.8586, 9277.820
827.3408, 9330.144
827.8229, 9472.998
828.3050, 9738.416
828.7871, 10036.77
829.2692, 10315.78
829.7513, 10581.33
830.2335, 10885.53
830.7156, 11231.88
831.1977, 11627.89
831.6798, 12094.62
832.1619, 12603.66
832.6440, 13109.63
833.1262, 13612.64
833.6083, 14166.59
834.0904, 14815.69
834.5725, 15498.35
835.0546, 16180.46
835.5367, 16861.20
836.0189, 17563.33
836.5010, 18301.93
836.9831, 19035.48
837.4652, 19783.17
837.9473, 20504.52
838.4294, 21098.85
838.9116, 21565.40
839.3937, 21946.67
839.8758, 22302.44
840.3579, 22557.35
840.8400, 22664.72
841.3221, 22621.10
841.8043, 22412.27
842.2864, 22012.70
842.7685, 21500.27
843.2506, 20895.54
843.7327, 20202.94
844.2148, 19460.99
844.6970, 18675.40
845.1791, 17862.98
845.6612, 17003.57
846.1433, 16144.88
846.6254, 15344.07
847.1075, 14600.66
847.5897, 13889.43
848.0718, 13170.39
848.5539, 12513.74
849.0360, 11944.24
849.5181, 11462.49
850.0002, 11026.61
850.4824, 10636.86
850.9645, 10293.14
851.4466, 9996.516
851.9287, 9743.985
852.4108, 9539.519
852.8929, 9379.415
853.3751, 9254.621
853.8572, 9152.460
854.3393, 9089.600
854.8214, 9083.368
855.3035, 9131.476
855.7856, 9201.408
856.2678, 9271.906
856.7499, 9392.170
857.2320, 9582.145
857.7141, 9833.585
858.1962, 10112.48
858.6783, 10421.26
859.1605, 10786.76
859.6426, 11231.08
860.1247, 11735.24
860.6068, 12274.60
861.0889, 12854.20
861.5710, 13473.49
862.0532, 14122.81
862.5353, 14833.13
863.0174, 15630.20
863.4995, 16487.09
863.9816, 17353.18
864.4637, 18210.57
864.9459, 19162.62
865.4279, 20246.36
865.9100, 21431.25
866.3922, 22655.11
866.8743, 23921.28
867.3564, 25236.91
867.8385, 26584.29
868.3206, 28002.93
868.8027, 29550.64
869.2849, 31164.69
869.7670, 32710.73
870.2491, 34143.89
870.7312, 35625.01
871.2133, 37221.61
871.6954, 38800.61
872.1776, 40117.97
872.6597, 41164.50
873.1418, 41915.90
873.6239, 42461.68
874.1060, 42545.13
874.5881, 41923.71
875.0703, 40727.75
875.5524, 39163.55
876.0345, 37124.34
876.5166, 34845.29
876.9987, 32239.43
877.4808, 29509.85
877.9630, 26917.18
878.4451, 24452.96
878.9272, 22144.83
879.4093, 19979.67
879.8914, 17982.17
880.3735, 16182.96
880.8557, 14565.28
881.3378, 13109.41
881.8199, 11819.60
882.3020, 10671.35
882.7841, 9675.619
883.2662, 8792.859
883.7484, 7998.431
884.2305, 7295.132
884.7126, 6656.725
885.1947, 6084.077
885.6768, 5567.121
886.1589, 5105.958
886.6411, 4695.101
887.1232, 4326.475
887.6053, 4002.351
888.0874, 3699.809
888.5695, 3405.234
889.0516, 3132.259
889.5338, 2885.758
890.0159, 2668.804
890.4980, 2468.829
890.9801, 2287.842
891.4622, 2124.298
891.9443, 1982.546
892.4265, 1857.266
892.9086, 1728.806
893.3907, 1597.674
893.8728, 1477.595
894.3549, 1380.081
894.8370, 1291.570
895.3192, 1205.811
895.8013, 1121.596
896.2834, 1039.629
896.7655, 956.5745
897.2476, 882.8982
897.7297, 829.5105
898.2119, 788.1616
898.6940, 730.6592
899.1761, 659.6243
899.6582, 594.1428
900.1403, 545.8618
900.6224, 504.8207
901.1046, 465.6559
901.5867, 428.0890
902.0688, 394.6111
902.5509, 368.7393
903.0330, 339.3927
903.5151, 301.9275
903.9973, 261.4567
904.4794, 233.3206
904.9615, 215.4913
905.4436, 196.1843
905.9257, 170.4174
906.4078, 142.7563
906.8900, 111.9495
907.3721, 83.06226
907.8542, 64.09460
908.3363, 70.70520
908.8184, 68.32666
909.3005, 52.73608
909.7827, 29.43103
910.2648, 1.589111
910.7469, 29.75854
911.2290, 46.60901
911.7111, 43.79346
912.1932, 37.91235
912.6754, 46.02161
913.1575, 60.31628
913.6396, 71.17712
914.1217, 74.90723
914.6038, 81.33813
915.0859, 97.39697
915.5681, 110.6696
916.0502, 110.8662
916.5323, 97.26721
917.0144, 88.48254
917.4965, 84.80884
917.9786, 82.26306
918.4608, 77.09814
918.9429, 71.57446
919.4250, 68.44971
919.9071, 67.82239
920.3892, 67.90808
920.8713, 71.02246
921.3535, 71.76453
921.8356, 68.60071
922.3177, 61.48157
922.7998, 47.12659
923.2819, 25.08716
923.7640, 9.880859
924.2462, 14.71411
924.7283, 25.72656
925.2104, 24.22559
925.6925, 14.21997
926.1746, 7.033569
926.6567, 6.692993
927.1389, 10.14771
927.6210, 20.07727
928.1031, 31.17322
928.5852, 30.53369
929.0673, 17.03064
929.5494, 10.58789
930.0316, 17.55505
930.5137, 27.89819
930.9958, 26.58203
931.4779, 20.51416
931.9600, 21.81091
932.4421, 41.63635
932.9243, 52.58264
933.4064, 39.51086
933.8885, 22.26477
934.3706, 17.75940
934.8527, 27.64709
935.3348, 34.39343
935.8170, 37.00208
936.2991, 38.34888
936.7812, 42.43677
937.2633, 46.07874
937.7454, 44.08081
938.2275, 35.81335
938.7097, 27.51074
939.1918, 20.02075
939.6739, 14.29614
940.1560, 12.23840
940.6381, 13.02771
941.1202, 4.906372
941.6024, 12.68823
942.0845, 26.81445
942.5666, 25.18286
943.0487, 19.63123
943.5308, 27.67847
944.0129, 44.63501
944.4951, 56.41736
944.9772, 52.00378
945.4593, 49.49988
945.9414, 51.92102
946.4235, 59.20618
946.9056, 73.97461
947.3877, 96.29089
947.8698, 111.0096
948.3519, 113.6055
948.8340, 110.7794
949.3162, 106.2103
949.7983, 102.5605
950.2804, 104.1083
950.7625, 114.6807
951.2446, 124.1677
951.7267, 129.7871
952.2089, 135.4540
952.6910, 145.4978
953.1731, 159.8822
953.6552, 169.0513
954.1373, 172.5647
954.6194, 173.6199
955.1016, 171.5815
955.5837, 170.6620
956.0658, 175.9552
956.5479, 187.6475
957.0300, 198.7244
957.5121, 207.2310
957.9943, 216.1085
958.4764, 226.5166
958.9585, 237.9739
959.4406, 247.8073
959.9227, 256.3914
960.4048, 267.3367
960.8870, 286.0861
961.3691, 303.4617
961.8512, 309.6536
962.3333, 309.5758
962.8154, 313.0359
963.2975, 320.3068
963.7797, 334.6707
964.2618, 360.8820
964.7439, 387.3928
965.2260, 393.9401
965.7081, 385.8258
966.1902, 385.7633
966.6724, 398.1582
967.1545, 413.4427
967.6366, 426.0005
968.1187, 437.3260
968.6008, 447.7583
969.0829, 456.7925
969.5651, 469.6326
970.0472, 488.5751
970.5293, 505.2648
971.0114, 511.7457
971.4935, 512.6483
971.9756, 523.2903
972.4578, 542.0344
972.9399, 560.6645
973.4220, 577.1570
973.9041, 591.3458
974.3862, 601.2627
974.8683, 609.3411
975.3505, 622.4716
975.8326, 640.6649
976.3147, 664.1921
976.7968, 693.6065
977.2789, 727.5090
977.7610, 768.4205
978.2432, 811.2541
978.7253, 844.6212
979.2074, 859.0247
979.6895, 881.4464
980.1716, 924.0254
980.6537, 977.2622
981.1359, 1034.703
981.6180, 1096.169
982.1001, 1158.392
982.5822, 1220.685
983.0643, 1289.617
983.5464, 1365.620
984.0286, 1454.064
984.5107, 1564.198
984.9928, 1694.249
985.4749, 1828.297
985.9570, 1954.646
986.4391, 2094.501
986.9213, 2253.343
987.4034, 2430.331
987.8855, 2621.057
988.3676, 2826.305
988.8497, 3044.711
989.3318, 3276.251
989.8140, 3517.275
990.2961, 3774.934
990.7782, 4038.603
991.2603, 4287.104
991.7424, 4518.792
992.2245, 4743.407
992.7067, 4970.490
993.1888, 5166.298
993.6709, 5320.212
994.1530, 5416.830
994.6351, 5404.312
995.1172, 5280.709
995.5994, 5061.136
996.0815, 4707.620
996.5636, 4306.252
997.0457, 3894.072
997.5278, 3474.871
998.0099, 3072.726
998.4921, 2678.715
998.9742, 2326.906
999.4563, 2030.776
999.9384, 1781.920
1000.421, 1578.730
1000.903, 1412.965
1001.385, 1262.679
1001.867, 1118.635
1002.349, 994.6391
1002.831, 898.3667
1003.313, 818.8980
1003.795, 749.1663
1004.277, 688.9266
1004.760, 639.9647
1005.242, 602.9313
1005.724, 564.2324
1006.206, 501.0048
1006.688, 437.9980
1007.170, 402.6067
1007.652, 396.3938
1008.134, 385.2857
1008.617, 362.9877
1009.099, 339.7622
1009.581, 317.3307
1010.063, 297.0665
1010.545, 282.4807
1011.027, 272.8350
1011.509, 265.7389
1011.991, 262.5133
1012.473, 257.5997
1012.956, 245.5344
1013.438, 230.8828
1013.920, 219.8538
1014.402, 213.5608
1014.884, 208.2899
1015.366, 204.6337
1015.848, 198.3994
1016.330, 182.6201
1016.813, 162.8839
1017.295, 147.2993
1017.777, 136.5790
1018.259, 132.7213
1018.741, 146.0843
1019.223, 155.3102
1019.705, 151.4373
1020.187, 138.5515
1020.669, 130.6292
1021.152, 127.5624
1021.634, 126.6371
1022.116, 127.8978
1022.598, 128.9207
1023.080, 127.9852
1023.562, 125.1816
1024.044, 120.5042
1024.526, 112.5572
1025.008, 105.3360
1025.491, 98.75610
1025.973, 92.81934
1026.455, 87.70276
1026.937, 83.20844
1027.419, 78.94440
1027.901, 74.80603
1028.383, 70.40222
1028.865, 63.43829
1029.348, 58.30042
1029.830, 58.00488
1030.312, 60.92059
1030.794, 63.32916
1031.276, 65.44928
1031.758, 64.20721
1032.240, 57.79114
1032.722, 50.66418
1033.204, 49.39917
1033.687, 50.01556
1034.169, 46.42303
1034.651, 34.08032
1035.133, 26.91431
1035.615, 26.71942
1036.097, 30.10950
1036.579, 37.67639
1037.061, 47.29773
1037.543, 46.35577
1038.026, 36.00549
1038.508, 24.47247
1038.990, 12.46753
1039.472, 4.530823
1039.954, 5.157593
1040.436, 11.10504
1040.918, 14.93335
1041.400, 16.43048
1041.883, 17.04639
1042.365, 17.13135
1042.847, 16.07977
1043.329, 12.05463
1043.811, 6.989746
1044.293, 4.054993
1044.775, 4.343140
1045.257, 2.262451
1045.740, 8.096375
1046.222, 13.71393
1046.704, 5.900635
1047.186, 11.09613
1047.668, 19.87592
1048.150, 20.91125
1048.632, 16.39764
1049.114, 0.8128660
1049.596, 12.40771
1050.078, 14.13318
1050.561, 9.246338
1051.043, 5.789795
1051.525, 3.886536
1052.007, 3.974915
1052.489, 6.727661
1052.971, 8.214417
1053.453, 3.383179
1053.935, 4.497681
1054.418, 11.79480
1054.900, 18.04492
1055.382, 21.22388
1055.864, 17.61877
1056.346, 15.19946
1056.828, 17.61060
1057.310, 21.59137
1057.792, 13.83954
1058.275, 1.249146
1058.757, 2.523132
1059.239, 22.98907
1059.721, 47.40814
1060.203, 52.89752
1060.685, 49.60321
1061.167, 46.94952
1061.649, 44.69849
1062.131, 47.06055
1062.614, 54.66986
1063.096, 61.36475
1063.578, 59.76648
1064.060, 56.86688
1064.542, 63.60840
1065.024, 77.17151
1065.506, 86.95581
1065.988, 86.37091
1066.470, 87.38611
1066.953, 91.27051
1067.435, 97.73242
1067.917, 108.2381
1068.399, 120.9450
1068.881, 129.1636
1069.363, 131.4660
1069.845, 131.9537
1070.327, 131.8669
1070.810, 131.5139
1071.292, 129.9557
1071.774, 127.7959
1072.256, 131.5472
1072.738, 141.3503
1073.220, 153.3849
1073.702, 168.6336
1074.184, 181.2838
1074.666, 184.3419
1075.149, 180.7828
1075.631, 174.7057
1076.113, 158.1550
1076.595, 157.3776
1077.077, 177.3217
1077.559, 199.9935
1078.041, 210.5280
1078.523, 211.8177
1079.005, 205.4670
1079.488, 194.1298
1079.970, 193.5710
1080.452, 228.0325
1080.934, 252.9667
1081.416, 249.6940
1081.898, 233.0290
1082.380, 234.9532
1082.862, 253.4991
1083.344, 265.0779
1083.827, 264.1394
1084.309, 261.2249
1084.791, 261.9878
1085.273, 266.5740
1085.755, 278.1095
1086.237, 296.9837
1086.719, 302.9031
1087.201, 292.8136
1087.684, 285.6970
1088.166, 293.1772
1088.648, 305.2143
1089.130, 307.0879
1089.612, 302.4880
1090.094, 298.2953
1090.576, 291.9589
1091.058, 294.7375
1091.541, 311.6890
1092.023, 329.4645
1092.505, 334.5285
1092.987, 330.5229
1093.469, 331.0348
1093.951, 335.9886
1094.433, 340.8449
1094.915, 343.4252
1095.397, 344.8745
1095.880, 344.5272
1096.362, 343.8079
1096.844, 346.7219
1097.326, 353.1231
1097.808, 355.3340
1098.290, 351.7887
1098.772, 346.3314
1099.254, 339.4980
1099.736, 334.3831
1100.219, 334.0341
1100.701, 338.8939
1101.183, 346.2497
1101.665, 358.0178
1102.147, 363.9010
1102.629, 358.9109
1103.111, 347.1454
1103.593, 326.7384
1104.076, 305.9642
1104.558, 300.7754
1105.040, 330.3556
1105.522, 345.2681
1106.004, 336.8363
1106.486, 322.0222
1106.968, 312.8643
1107.450, 307.0897
1107.932, 297.1290
1108.415, 284.7681
1108.897, 277.1232
1109.379, 287.3101
1109.861, 291.2457
1110.343, 275.7054
1110.825, 252.2593
1111.307, 237.4352
1111.789, 230.9443
1112.271, 224.5232
1112.754, 217.1920
1113.236, 210.6192
1113.718, 206.6687
1114.200, 203.4396
1114.682, 200.2538
1115.164, 196.6749
1115.646, 189.8362
1116.128, 178.9033
1116.611, 169.2938
1117.093, 162.9968
1117.575, 158.0074
1118.057, 152.6352
1118.539, 146.5217
1119.021, 139.2835
1119.503, 130.9172
1119.985, 120.8535
1120.468, 108.1462
1120.950, 96.19281
1121.432, 86.33453
1121.914, 78.75397
1122.396, 75.69800
1122.878, 75.26044
1123.360, 72.24963
1123.842, 61.79370
1124.324, 52.31360
1124.807, 43.26874
1125.289, 37.96533
1125.771, 43.56604
1126.253, 56.65668
1126.735, 55.44757
1127.217, 40.41766
1127.699, 26.29742
1128.181, 21.05573
1128.663, 19.74463
1129.146, 22.25372
1129.628, 26.20062
1130.110, 27.84363
1130.592, 27.17889
1131.074, 21.86499
1131.556, 10.79279
1132.038, 1.492920
1132.520, 0.7481080
1133.003, 3.987610
1133.485, 8.478088
1133.967, 13.82800
1134.449, 18.28613
1134.931, 22.42194
1135.413, 21.88904
1135.895, 13.91058
1136.377, 4.025146
1136.859, 1.982422
1137.342, 5.362122
1137.824, 8.100281
1138.306, 11.70941
1138.788, 8.758545
1139.270, 4.203918
1139.752, 13.13647
1140.234, 6.123047
1140.716, 7.146484
1141.198, 6.270447
1141.681, 3.822327
1142.163, 11.29236
1142.645, 13.24683
1143.127, 9.713623
1143.609, 2.884033
1144.091, 14.18188
1144.573, 13.28436
1145.055, 3.625366
1145.538, 4.323120
1146.020, 10.25201
1146.502, 13.94324
1146.984, 12.73694
1147.466, 12.70911
1147.948, 16.37811
1148.430, 21.37579
1148.912, 25.07159
1149.395, 27.09839
1149.877, 23.46088
1150.359, 13.57690
1150.841, 6.432617
1151.323, 8.498779
1151.805, 14.55334
1152.287, 22.54181
1152.769, 31.76416
1153.251, 41.47540
1153.734, 51.57391
1154.216, 58.25385
1154.698, 60.64856
1155.180, 59.42017
1155.662, 50.84546
1156.144, 42.02710
1156.626, 40.63141
1157.108, 46.38422
1157.590, 49.35419
1158.073, 49.18970
1158.555, 50.80511
1159.037, 56.76379
1159.519, 64.53937
1160.001, 71.90228
1160.483, 79.12915
1160.965, 87.29590
1161.447, 98.32947
1161.929, 102.8887
1162.412, 100.2021
1162.894, 94.94714
1163.376, 86.69336
1163.858, 80.21521
1164.340, 80.87091
1164.822, 88.69635
1165.304, 104.5035
1165.786, 142.3923
1166.269, 159.4390
1166.751, 148.5734
1167.233, 132.4294
1167.715, 131.7576
1168.197, 140.2226
1168.679, 146.8215
1169.161, 151.9385
1169.643, 160.2059
1170.125, 180.9418
1170.608, 191.8627
1171.090, 186.6913
1171.572, 177.0307
1172.054, 180.9218
1172.536, 191.9609
1173.018, 195.2485
1173.500, 189.4999
1173.982, 183.8150
1174.464, 178.0027
1174.947, 178.0278
1175.429, 187.3652
1175.911, 201.2615
1176.393, 212.4567
1176.875, 220.0117
1177.357, 219.0839
1177.839, 207.2198
1178.321, 198.1318
1178.804, 201.2316
1179.286, 204.5042
1179.768, 201.8605
1180.250, 196.0446
1180.732, 197.8636
1181.214, 204.9764
1181.696, 207.1859
1182.178, 198.7673
1182.661, 191.6873
1183.143, 193.4238
1183.625, 196.7770
1184.107, 197.5987
1184.589, 196.1089
1185.071, 192.8472
1185.553, 187.9138
1186.035, 187.1717
1186.517, 198.9595
1187.000, 208.0214
1187.482, 203.3956
1187.964, 195.8680
1188.446, 194.7971
1188.928, 199.4922
1189.410, 206.0197
1189.892, 213.9471
1190.374, 216.4973
1190.856, 205.6444
1191.339, 192.9470
1191.821, 183.3062
1192.303, 176.6008
1192.785, 172.4720
1193.267, 170.6891
1193.749, 171.0798
1194.231, 173.7495
1194.713, 178.5611
1195.196, 190.3623
1195.678, 199.1085
1196.160, 194.0887
1196.642, 182.5146
1197.124, 181.2799
1197.606, 191.2558
1198.088, 193.2289
1198.570, 184.7391
1199.052, 173.1227
1199.535, 157.2297
1200.017, 146.8696
1200.499, 155.4034
1200.981, 175.3840
1201.463, 179.6783
1201.945, 167.1646
1202.427, 156.6009
1202.909, 151.4764
1203.391, 148.2137
1203.874, 141.2572
1204.356, 136.9531
1204.838, 143.7675
1205.320, 159.2103
1205.802, 168.0999
1206.284, 170.3476
1206.766, 165.1392
1207.248, 149.4713
1207.731, 136.2810
1208.213, 142.3958
1208.695, 153.4266
1209.177, 154.8940
1209.659, 146.8362
1210.141, 138.4335
1210.623, 129.6027
1211.105, 123.2548
1211.588, 120.8786
1212.070, 120.7144
1212.552, 125.1215
1213.034, 128.1649
1213.516, 121.2485
1213.998, 103.5627
1214.480, 92.56934
1214.962, 88.40179
1215.444, 86.65332
1215.927, 85.86145
1216.409, 85.66809
1216.891, 86.36945
1217.373, 87.22681
1217.855, 88.05933
1218.337, 90.01947
1218.819, 82.00757
1219.301, 63.22784
1219.783, 50.43262
1220.266, 62.49127
1220.748, 74.80505
1221.230, 58.25464
1221.712, 31.89667
1222.194, 25.94403
1222.676, 46.37476
1223.158, 58.56305
1223.640, 61.98334
1224.123, 61.18695
1224.605, 56.11646
1225.087, 51.21948
1225.569, 53.02698
1226.051, 56.10651
1226.533, 48.93457
1227.015, 28.67328
1227.497, 20.88403
1227.979, 27.09540
1228.462, 34.77997
1228.944, 35.46277
1229.426, 33.32526
1229.908, 31.39447
1230.390, 28.73792
1230.872, 22.35016
1231.354, 11.50549
1231.836, 7.522705
1232.318, 11.56274
1232.801, 16.03198
1233.283, 15.06213
1233.765, 12.56744
1234.247, 10.11530
1234.729, 8.483459
1235.211, 10.03906
1235.693, 14.81360
1236.175, 16.22754
1236.657, 13.34662
1237.140, 10.78143
1237.622, 13.31824
1238.104, 16.01239
1238.586, 16.06769
1239.068, 13.90680
1239.550, 8.794495
1240.032, 1.172607
1240.514, 1.248535
1240.997, 11.38562
1241.479, 17.00848
1241.961, 0.4187010
1242.443, 15.50311
1242.925, 16.74756
1243.407, 8.462830
1243.889, 3.193237
1244.371, 0.8159790
1244.854, 1.925964
1245.336, 7.348450
1245.818, 8.915039
1246.300, 3.464172
1246.782, 15.33398
1247.264, 19.92883
1247.746, 18.66809
1248.228, 13.87665
1248.710, 6.527771
1249.193, 0.9681400
1249.675, 1.998779
1250.157, 2.943848
1250.639, 0.2250370
1251.121, 2.310059
1251.603, 2.823059
1252.085, 2.239136
1252.567, 2.309509
1253.049, 3.507446
1253.532, 7.922729
1254.014, 16.99304
1254.496, 24.29285
1254.978, 26.35443
1255.460, 28.04639
1255.942, 31.56012
1256.424, 35.60883
1256.906, 36.19037
1257.389, 34.91400
1257.871, 36.39807
1258.353, 43.71356
1258.835, 44.81891
1259.317, 33.36090
1259.799, 24.99548
1260.281, 24.38446
1260.763, 26.94519
1261.245, 28.01068
1261.728, 24.56781
1262.210, 22.81293
1262.692, 26.56378
1263.174, 32.38049
1263.656, 40.39996
1264.138, 42.65948
1264.620, 39.91394
1265.102, 33.87207
1265.584, 26.04987
1266.067, 20.89709
1266.549, 20.72284
1267.031, 27.10028
1267.513, 29.47882
1267.995, 27.25629
1268.477, 22.58191
1268.959, 13.22607
1269.441, 5.650757
1269.924, 8.795776
1270.406, 16.63599
1270.888, 21.61353
1271.370, 23.12604
1271.852, 22.08331
1272.334, 17.84473
1272.816, 16.50195
1273.298, 23.89911
1273.781, 29.42633
1274.263, 27.28174
1274.745, 20.70001
1275.227, 11.82666
1275.709, 0.2583010
1276.191, 6.7199998E-02
1276.673, 9.852112
1277.155, 10.37994
1277.637, 0.0000000E+00
##END=



