##NAMES=Annabergite
##RRUFFID=R050462
##IDEAL CHEMISTRY=Ni^2+^_3_(As^5+^O_4_)_2_&#183;8H_2_O
##LOCALITY=Plaka mine, Laurium, Attica, Greece
##OWNER=RRUFF
##SOURCE=University of Arizona Mineral Museum
##DESCRIPTION=Green bladed crystals
##STATUS=The identification of this mineral has been confirmed by X-ray diffraction and chemical analysis
##URL=rruff.info/R050462
##MEASURED CHEMISTRY=(Ni_2.97_Zn_0.03_)_Σ=3_(As_1.00_O_4_)_2_·8H_2_O; lighter vein: (Ni_2.95_Zn_0.05_)_Σ=3_(As_1.00_O_4_)_2_·8H_2_O
144.4055, 0.0000000E+00
144.8876, 3.5950001E-02
145.3697, 0.3438110
145.8518, 0.7890170
146.3340, 1.208527
146.8161, 1.614014
147.2982, 1.980148
147.7803, 2.303986
148.2624, 2.591965
148.7445, 2.845123
149.2267, 3.001984
149.7088, 3.376740
150.1909, 3.951752
150.6730, 4.683945
151.1551, 5.616379
151.6372, 6.724457
152.1194, 7.878555
152.6015, 8.963913
153.0836, 9.934464
153.5657, 10.76616
154.0478, 11.26401
154.5299, 11.66652
155.0121, 12.21248
155.4942, 12.96402
155.9763, 13.83842
156.4584, 14.76363
156.9405, 15.76064
157.4227, 16.64574
157.9048, 17.49768
158.3869, 18.19861
158.8690, 18.49506
159.3511, 18.29950
159.8332, 17.92523
160.3154, 17.41260
160.7975, 16.16258
161.2796, 14.75647
161.7617, 13.56387
162.2438, 12.58835
162.7259, 11.73647
163.2081, 11.13776
163.6902, 10.72144
164.1723, 10.28346
164.6544, 9.798904
165.1365, 9.277161
165.6186, 8.693161
166.1008, 8.013596
166.5829, 7.437805
167.0650, 7.165009
167.5471, 6.899338
168.0292, 6.426529
168.5113, 5.700928
168.9935, 4.883652
169.4756, 4.268951
169.9577, 4.066971
170.4398, 3.653244
170.9219, 2.753555
171.4040, 1.782074
171.8862, 1.093140
172.3683, 0.8152310
172.8504, 0.8089600
173.3325, 0.7456820
173.8146, 0.6930080
174.2967, 0.4797210
174.7789, 0.1440430
175.2610, 0.8516850
175.7431, 1.223221
176.2252, 1.061264
176.7073, 0.5370790
177.1894, 0.2137450
177.6716, 0.1286930
178.1537, 0.1652070
178.6358, 0.4288790
179.1179, 0.7962800
179.6000, 1.051315
180.0821, 1.105927
180.5643, 0.9427640
181.0464, 0.4968110
181.5285, 0.5751040
182.0106, 1.401291
182.4927, 1.325836
182.9749, 0.5542910
183.4570, 3.8437001E-02
183.9391, 0.3466190
184.4212, 1.148743
184.9033, 1.663834
185.3854, 1.781189
185.8676, 1.776718
186.3497, 1.884216
186.8318, 2.108902
187.3139, 2.264160
187.7960, 2.150101
188.2781, 1.975113
188.7603, 1.999588
189.2424, 2.341522
189.7245, 2.739822
190.2066, 2.830643
190.6887, 2.532364
191.1708, 2.215866
191.6530, 1.851013
192.1351, 1.599976
192.6172, 1.654877
193.0993, 2.108749
193.5814, 2.795944
194.0635, 3.385788
194.5457, 3.823639
195.0278, 4.266525
195.5099, 4.737625
195.9920, 5.233047
196.4741, 5.746658
196.9562, 6.275253
197.4384, 6.824554
197.9205, 7.419754
198.4026, 8.098434
198.8847, 8.772552
199.3668, 9.420319
199.8489, 10.06075
200.3311, 10.70930
200.8132, 11.37312
201.2953, 12.06070
201.7774, 12.79768
202.2595, 13.53345
202.7416, 14.38104
203.2238, 15.54346
203.7059, 16.78937
204.1880, 17.79543
204.6701, 18.37479
205.1522, 18.62344
205.6344, 18.96382
206.1165, 19.42085
206.5986, 19.93233
207.0807, 20.63039
207.5628, 21.36740
208.0449, 21.83354
208.5271, 21.82538
209.0092, 21.48769
209.4913, 21.41986
209.9734, 21.77167
210.4555, 22.14732
210.9376, 22.44225
211.4198, 22.65797
211.9019, 22.78000
212.3840, 22.75656
212.8661, 22.67337
213.3482, 22.78142
213.8303, 23.24915
214.3125, 23.62900
214.7946, 23.59438
215.2767, 23.21620
215.7588, 22.87488
216.2409, 22.72710
216.7230, 22.73175
217.2052, 22.81592
217.6873, 23.08185
218.1694, 23.19942
218.6515, 22.78896
219.1336, 21.87396
219.6157, 21.13115
220.0979, 21.04478
220.5800, 21.10432
221.0621, 20.68575
221.5442, 19.62286
222.0263, 18.49225
222.5084, 17.89046
222.9906, 17.86121
223.4727, 17.85672
223.9548, 17.80132
224.4369, 17.64600
224.9190, 17.33044
225.4011, 16.83673
225.8833, 16.25146
226.3654, 15.69196
226.8475, 15.19456
227.3296, 14.55396
227.8117, 13.49622
228.2938, 12.42848
228.7760, 11.62901
229.2581, 11.14705
229.7402, 10.82065
230.2223, 10.43970
230.7044, 9.976898
231.1866, 9.543182
231.6687, 9.107025
232.1508, 8.731094
232.6329, 8.446976
233.1150, 8.235779
233.5971, 8.086014
234.0793, 8.022827
234.5614, 8.176300
235.0435, 8.142090
235.5256, 7.618179
236.0077, 7.118759
236.4898, 7.004379
236.9720, 7.306137
237.4541, 7.759094
237.9362, 7.981461
238.4183, 7.758240
238.9004, 7.904007
239.3825, 8.639938
239.8647, 9.483398
240.3468, 10.15468
240.8289, 10.61226
241.3110, 10.97452
241.7931, 11.40031
242.2752, 11.94701
242.7574, 12.36981
243.2395, 12.60219
243.7216, 12.77946
244.2037, 13.02115
244.6858, 13.32271
245.1679, 13.55333
245.6501, 13.55177
246.1322, 13.23358
246.6143, 13.01089
247.0964, 13.00128
247.5785, 12.98787
248.0606, 12.89952
248.5428, 12.69868
249.0249, 12.26192
249.5070, 11.41666
249.9891, 10.06708
250.4712, 8.985779
250.9533, 8.357071
251.4355, 7.834625
251.9176, 7.149170
252.3997, 6.298843
252.8818, 5.519730
253.3639, 5.036392
253.8460, 4.861511
254.3282, 4.621307
254.8103, 4.133362
255.2924, 3.723465
255.7745, 3.676727
256.2566, 3.971024
256.7387, 4.317383
257.2209, 4.533997
257.7030, 4.619766
258.1851, 4.667343
258.6672, 4.542511
259.1493, 4.486862
259.6314, 4.728851
260.1136, 5.237640
260.5957, 5.727173
261.0778, 6.043854
261.5599, 6.202866
262.0420, 6.319412
262.5241, 6.390472
263.0063, 6.422760
263.4884, 6.272034
263.9705, 5.992126
264.4526, 6.120529
264.9347, 7.224030
265.4168, 8.687027
265.8990, 9.314636
266.3811, 8.806732
266.8632, 8.097610
267.3453, 7.898209
267.8275, 8.135284
268.3096, 8.207169
268.7917, 7.792831
269.2738, 7.215744
269.7559, 6.852814
270.2380, 6.687027
270.7202, 6.738159
271.2023, 7.126572
271.6844, 7.796112
272.1665, 8.354889
272.6486, 8.632385
273.1307, 8.866699
273.6129, 9.356491
274.0950, 10.09477
274.5771, 10.69998
275.0592, 10.85986
275.5413, 10.65254
276.0234, 10.40471
276.5056, 9.999481
276.9877, 9.831818
277.4698, 10.23883
277.9519, 11.13528
278.4340, 12.09433
278.9161, 12.97757
279.3983, 13.73227
279.8804, 14.11462
280.3625, 13.89030
280.8446, 13.60236
281.3267, 13.62984
281.8088, 13.85899
282.2910, 14.01894
282.7731, 13.88634
283.2552, 13.57681
283.7373, 13.53166
284.2194, 13.95192
284.7015, 14.20673
285.1837, 13.92455
285.6658, 13.36136
286.1479, 12.89694
286.6300, 12.80365
287.1121, 12.84932
287.5942, 12.50552
288.0764, 11.65933
288.5585, 10.79303
289.0406, 10.08740
289.5227, 9.454987
290.0048, 8.804718
290.4869, 8.087845
290.9691, 7.375763
291.4512, 6.774323
291.9333, 6.282532
292.4154, 5.915894
292.8975, 5.857498
293.3796, 5.821030
293.8618, 5.534286
294.3439, 4.929138
294.8260, 4.275879
295.3081, 3.988724
295.7902, 4.188934
296.2723, 4.180328
296.7545, 3.601120
297.2366, 2.951157
297.7187, 2.521179
298.2008, 2.330551
298.6829, 2.194473
299.1650, 1.886948
299.6472, 1.369431
300.1293, 1.030838
300.6114, 1.136200
301.0935, 1.212418
301.5756, 0.9385990
302.0577, 0.4200130
302.5399, 4.0603999E-02
303.0220, 0.2087100
303.5041, 0.8880000
303.9862, 1.228821
304.4683, 0.9238890
304.9504, 0.6176910
305.4326, 0.5588380
305.9147, 0.6677400
306.3968, 0.7906800
306.8789, 0.8546600
307.3610, 0.8509060
307.8431, 0.7187650
308.3253, 0.3131710
308.8074, 1.3596000E-02
309.2895, 7.8247003E-02
309.7716, 2.2263000E-02
310.2537, 0.1418910
310.7358, 0.4121860
311.2180, 0.7065580
311.7001, 0.8212130
312.1822, 0.6472320
312.6643, 0.5324400
313.1464, 0.6310120
313.6285, 0.7558140
314.1107, 0.6970210
314.5928, 0.4080660
315.0749, 0.1232300
315.5570, 0.2465210
316.0392, 0.9520110
316.5213, 1.424454
317.0034, 1.322815
317.4855, 1.167191
317.9676, 1.259781
318.4497, 1.609192
318.9319, 2.008423
319.4140, 2.293884
319.8961, 2.475555
320.3782, 2.444336
320.8603, 1.771744
321.3424, 1.295578
321.8246, 1.531723
322.3067, 2.244873
322.7888, 2.823151
323.2709, 2.766846
323.7530, 2.179443
324.2351, 1.859055
324.7173, 2.152985
325.1994, 2.218521
325.6815, 1.566772
326.1636, 0.6109310
326.6457, 6.6895001E-02
327.1278, 0.1575320
327.6100, 0.1320500
328.0921, 0.3210450
328.5742, 0.4064030
329.0563, 0.3860930
329.5384, 0.2053680
330.0205, 3.6835000E-02
330.5027, 0.2984770
330.9848, 0.5670620
331.4669, 0.7454220
331.9490, 0.6282960
332.4311, 0.1021880
332.9132, 0.2213590
333.3954, 0.1412960
333.8775, 8.9890003E-02
334.3596, 0.3995360
334.8417, 0.7569730
335.3238, 1.095230
335.8059, 1.375275
336.2881, 1.598724
336.7702, 1.688629
337.2523, 1.590637
337.7344, 1.402344
338.2165, 1.095306
338.6986, 0.7361600
339.1808, 0.4700780
339.6629, 0.4166560
340.1450, 0.5172270
340.6271, 0.5644840
341.1092, 0.5911100
341.5913, 0.4927520
342.0735, 3.3721998E-02
342.5556, 0.4905090
343.0377, 0.6563570
343.5198, 0.2276150
344.0019, 0.3793030
344.4840, 0.4244080
344.9662, 0.2509000
345.4483, 0.7878420
345.9304, 0.7625890
346.4125, 0.5955660
346.8946, 0.5889590
347.3767, 0.7901920
347.8589, 0.9986420
348.3410, 0.9701230
348.8231, 0.7136540
349.3052, 0.6143800
349.7873, 0.8293610
350.2694, 1.101563
350.7516, 1.244888
351.2337, 1.283356
351.7158, 1.331329
352.1979, 1.511063
352.6800, 1.756912
353.1621, 1.823196
353.6443, 1.620209
354.1264, 1.434143
354.6085, 1.465714
355.0906, 1.617508
355.5727, 1.745438
356.0548, 1.802704
356.5370, 1.816422
357.0191, 1.810760
357.5012, 1.783020
357.9833, 1.770248
358.4654, 1.760391
358.9475, 1.795303
359.4297, 1.936829
359.9118, 2.210114
360.3939, 2.498276
360.8760, 2.757156
361.3581, 2.970856
361.8402, 3.025009
362.3224, 2.773117
362.8045, 2.544357
363.2866, 2.724258
363.7687, 3.269211
364.2508, 3.816818
364.7329, 4.308075
365.2151, 4.687988
365.6972, 4.849167
366.1793, 4.767670
366.6614, 4.547989
367.1436, 4.089020
367.6257, 3.553696
368.1078, 3.426041
368.5899, 4.144363
369.0720, 4.974686
369.5541, 5.253754
370.0363, 5.063293
370.5184, 4.958801
371.0005, 5.266083
371.4826, 5.755936
371.9647, 5.894257
372.4468, 5.558853
372.9290, 5.229019
373.4111, 5.096573
373.8932, 5.093307
374.3753, 5.080734
374.8574, 5.012436
375.3395, 4.995911
375.8217, 5.227371
376.3038, 5.755829
376.7859, 6.065460
377.2680, 5.870300
377.7501, 5.597824
378.2322, 5.677338
378.7144, 6.094238
379.1965, 6.458237
379.6786, 6.449539
380.1607, 6.113617
380.6428, 6.000809
381.1249, 6.216293
381.6071, 6.501297
382.0892, 6.824081
382.5713, 7.146774
383.0534, 7.405670
383.5355, 7.575165
384.0176, 7.668625
384.4998, 7.701599
384.9819, 7.664536
385.4640, 7.616379
385.9461, 7.436371
386.4282, 7.297882
386.9103, 7.345627
387.3925, 7.600677
387.8746, 8.027863
388.3567, 8.653030
388.8388, 9.581970
389.3209, 9.910248
389.8030, 9.202621
390.2852, 8.505859
390.7673, 8.069565
391.2494, 7.915726
391.7315, 8.106628
392.2136, 8.712906
392.6957, 9.541000
393.1779, 9.831131
393.6600, 9.065140
394.1421, 8.485336
394.6242, 8.289368
395.1063, 8.287140
395.5884, 8.326950
396.0706, 8.366943
396.5527, 8.422729
397.0348, 8.504395
397.5169, 8.597290
397.9990, 8.694107
398.4811, 8.858627
398.9633, 8.973938
399.4454, 9.002487
399.9275, 8.971313
400.4096, 8.894974
400.8917, 8.806763
401.3738, 8.670273
401.8560, 8.263901
402.3381, 7.447403
402.8202, 6.747894
403.3023, 6.206314
403.7844, 5.843506
404.2665, 5.760712
404.7487, 6.009201
405.2308, 6.280899
405.7129, 6.135376
406.1950, 5.542587
406.6771, 5.081131
407.1592, 4.817535
407.6414, 4.771072
408.1235, 5.153671
408.6056, 5.838593
409.0877, 6.175995
409.5698, 5.407364
410.0519, 4.082367
410.5341, 3.557312
411.0162, 4.014420
411.4983, 4.702118
411.9804, 5.397781
412.4625, 5.965958
412.9446, 6.116608
413.4268, 5.615631
413.9089, 5.005615
414.3910, 4.729752
414.8731, 4.726868
415.3553, 4.701370
415.8374, 4.552658
416.3195, 4.353622
416.8016, 4.172455
417.2837, 3.990143
417.7658, 3.965744
418.2480, 4.213348
418.7301, 4.602829
419.2122, 5.009476
419.6943, 5.415894
420.1764, 5.810272
420.6585, 6.182724
421.1407, 6.532730
421.6228, 6.858826
422.1049, 7.166916
422.5870, 7.450211
423.0691, 7.642548
423.5512, 7.817749
424.0334, 8.144135
424.5155, 8.694504
424.9976, 9.323944
425.4797, 9.748383
425.9618, 9.774048
426.4439, 9.985275
426.9261, 10.47681
427.4082, 11.07492
427.8903, 11.66191
428.3724, 12.23587
428.8545, 12.88344
429.3366, 13.71457
429.8188, 14.71028
430.3009, 15.33656
430.7830, 14.90503
431.2651, 14.87009
431.7472, 15.64571
432.2293, 16.87321
432.7115, 18.20480
433.1936, 19.49588
433.6757, 20.61786
434.1578, 21.28453
434.6399, 21.32747
435.1220, 21.50169
435.6042, 21.86101
436.0863, 22.36270
436.5684, 23.13937
437.0505, 24.07114
437.5326, 24.80275
438.0147, 24.96196
438.4969, 24.76816
438.9790, 25.06320
439.4611, 26.06516
439.9432, 26.99150
440.4253, 27.51964
440.9074, 27.80913
441.3896, 28.00827
441.8717, 28.14320
442.3538, 28.17429
442.8359, 28.01762
443.3180, 27.71555
443.8001, 27.53851
444.2823, 27.63181
444.7644, 27.70418
445.2465, 27.41901
445.7286, 26.82639
446.2107, 26.17464
446.6928, 25.47598
447.1750, 24.79987
447.6571, 24.17175
448.1392, 23.60689
448.6213, 23.26334
449.1034, 23.35107
449.5855, 23.61168
450.0677, 23.26140
450.5498, 22.03596
451.0319, 20.86435
451.5140, 19.82930
451.9961, 19.05695
452.4782, 18.85429
452.9604, 19.21948
453.4425, 19.61194
453.9246, 19.47241
454.4067, 18.75079
454.8888, 17.99451
455.3709, 16.91028
455.8531, 16.12630
456.3352, 16.12038
456.8173, 16.50497
457.2994, 16.58749
457.7815, 16.04742
458.2636, 15.22527
458.7458, 14.72464
459.2279, 14.65247
459.7100, 14.62888
460.1921, 14.76460
460.6742, 14.83603
461.1563, 14.63898
461.6385, 14.26222
462.1206, 13.97867
462.6027, 14.04259
463.0848, 14.34528
463.5669, 14.34618
464.0491, 13.87456
464.5312, 13.42227
465.0133, 13.21619
465.4954, 13.06676
465.9775, 12.76758
466.4597, 12.26157
466.9418, 11.70726
467.4239, 11.24178
467.9060, 10.85547
468.3881, 10.47691
468.8702, 10.08972
469.3524, 9.747787
469.8345, 9.551666
470.3166, 9.406204
470.7987, 9.043213
471.2808, 8.270752
471.7629, 7.351563
472.2451, 6.348145
472.7272, 5.344147
473.2093, 4.843552
473.6914, 5.200562
474.1735, 5.912994
474.6556, 5.958588
475.1378, 5.161072
475.6199, 4.439865
476.1020, 3.945740
476.5841, 3.573944
477.0662, 3.216766
477.5483, 2.874954
478.0305, 2.637741
478.5126, 2.606400
478.9947, 2.731644
479.4768, 2.586853
479.9589, 1.776306
480.4410, 1.179321
480.9232, 0.9564210
481.4053, 0.9709780
481.8874, 1.138016
482.3695, 1.412048
482.8516, 1.682556
483.3337, 1.756470
483.8159, 1.592758
484.2980, 1.458954
484.7801, 1.453445
485.2622, 1.390030
485.7443, 1.124710
486.2264, 0.7944790
486.7086, 0.5836180
487.1907, 0.6149900
487.6728, 0.7540130
488.1549, 0.8108670
488.6370, 0.7814790
489.1191, 0.7305910
489.6013, 0.6570430
490.0834, 0.5832370
490.5655, 0.5230870
491.0476, 0.4800570
491.5297, 0.4605260
492.0118, 0.5044250
492.4940, 0.5560300
492.9761, 0.5150600
493.4582, 0.3869020
493.9403, 0.3182680
494.4224, 0.4242400
494.9045, 0.6011350
495.3867, 0.5516510
495.8688, 0.1351780
496.3509, 0.1211850
496.8330, 9.6419998E-02
497.3151, 0.4235380
497.7972, 0.4166720
498.2794, 5.9494000E-02
498.7615, 0.3102870
499.2436, 0.4000930
499.7257, 0.2215270
500.2078, 6.6147000E-02
500.6899, 0.1895900
501.1721, 0.2772060
501.6542, 2.3514001E-02
502.1363, 0.4267120
502.6184, 0.6242750
503.1005, 0.5370100
503.5826, 0.3054810
504.0648, 6.8480998E-02
504.5469, 0.1891250
505.0290, 0.3322370
505.5111, 0.3197330
505.9932, 0.2363890
506.4753, 5.2818000E-02
506.9575, 0.1566470
507.4396, 0.2672350
507.9217, 0.2164610
508.4038, 0.1154860
508.8859, 0.1223070
509.3680, 0.2272260
509.8502, 0.2393880
510.3323, 7.0114002E-02
510.8144, 0.1264720
511.2965, 0.1985860
511.7786, 0.1633530
512.2607, 9.7259998E-02
512.7429, 7.0441999E-02
513.2250, 0.1914290
513.7071, 3.3675998E-02
514.1892, 0.3130490
514.6713, 0.4022450
515.1534, 2.9152000E-02
515.6356, 0.6113970
516.1177, 0.5467610
516.5998, 0.7129670
517.0819, 1.395355
517.5640, 1.104713
518.0461, 0.5155870
518.5283, 4.9911000E-02
519.0104, 0.5075450
519.4925, 0.8034590
519.9746, 0.9064410
520.4567, 0.8200150
520.9388, 0.5150830
521.4210, 0.2628330
521.9031, 0.7748410
522.3852, 0.7520900
522.8673, 0.6124950
523.3494, 0.6733930
523.8315, 0.9097370
524.3137, 1.107254
524.7958, 1.112549
525.2779, 0.9495470
525.7600, 0.6440430
526.2421, 0.1136550
526.7242, 0.2424240
527.2064, 0.1087270
527.6885, 0.2268300
528.1706, 0.3978650
528.6527, 0.3545230
529.1348, 0.2684780
529.6169, 0.1958160
530.0991, 0.1518100
530.5812, 0.1859440
531.0633, 0.3024220
531.5454, 0.3780590
532.0275, 0.2799450
532.5096, 6.5177999E-02
532.9918, 0.1345210
533.4739, 0.8325120
533.9560, 1.332428
534.4381, 1.351326
534.9202, 1.127686
535.4023, 0.8955540
535.8845, 0.7141800
536.3666, 0.5468140
536.8487, 0.3314970
537.3308, 6.8222001E-02
537.8129, 8.5220002E-02
538.2951, 0.8311540
538.7772, 1.260277
539.2593, 0.8781590
539.7415, 0.2106020
540.2236, 0.2017670
540.7057, 0.2167130
541.1878, 2.5978001E-02
541.6699, 0.2936330
542.1520, 0.6941150
542.6342, 0.7726590
543.1163, 0.3125080
543.5984, 2.0220000E-03
544.0805, 0.5195310
544.5626, 1.444321
545.0447, 1.952469
545.5269, 1.791481
546.0090, 1.477959
546.4911, 1.279686
546.9732, 1.144562
547.4553, 0.9324110
547.9374, 0.6102070
548.4196, 0.3834530
548.9017, 0.4831160
549.3838, 0.9199980
549.8659, 1.178238
550.3480, 1.149536
550.8301, 1.106705
551.3123, 1.087608
551.7944, 1.112274
552.2765, 1.252396
552.7586, 1.503571
553.2407, 1.693199
553.7228, 1.537979
554.2050, 0.9965440
554.6871, 0.8723300
555.1692, 1.644577
555.6513, 2.142860
556.1334, 1.663315
556.6155, 0.8038250
557.0977, 0.3927380
557.5798, 0.7014390
558.0619, 1.148499
558.5440, 1.133545
559.0261, 0.8089600
559.5082, 0.8254850
559.9904, 1.348770
560.4725, 1.776917
560.9546, 1.575806
561.4367, 0.8908230
561.9188, 0.4912190
562.4009, 0.5491710
562.8831, 0.6673660
563.3652, 0.7198030
563.8473, 0.7368010
564.3294, 0.7109380
564.8115, 0.6553880
565.2936, 0.7288280
565.7758, 1.146805
566.2579, 1.915421
566.7400, 2.304634
567.2221, 1.967033
567.7042, 1.642563
568.1863, 1.469055
568.6685, 1.367699
569.1506, 1.226913
569.6327, 1.036385
570.1148, 0.9283140
570.5969, 1.166481
571.0790, 1.644402
571.5612, 1.627884
572.0433, 0.8793640
572.5254, 0.2772140
573.0075, 0.4667430
573.4896, 0.9550400
573.9717, 1.066933
574.4539, 0.6719740
574.9360, 0.2940750
575.4181, 0.2133940
575.9002, 0.3024220
576.3823, 0.3565370
576.8644, 0.3391190
577.3466, 0.4208830
577.8287, 0.7781680
578.3108, 1.312210
578.7929, 1.488235
579.2750, 0.9639740
579.7571, 0.5249940
580.2393, 9.8709002E-02
580.7214, 0.1441570
581.2035, 7.4042998E-02
581.6856, 0.6493610
582.1677, 1.124992
582.6498, 1.134293
583.1320, 0.8028720
583.6141, 0.5508350
584.0962, 0.3818130
584.5783, 0.2390290
585.0604, 0.1103440
585.5425, 7.1579002E-02
586.0247, 0.1970830
586.5068, 0.4738690
586.9889, 0.7365950
587.4710, 0.9931180
587.9531, 1.146286
588.4352, 1.019035
588.9174, 0.6599660
589.3995, 0.3331380
589.8816, 0.1476440
590.3637, 5.5213999E-02
590.8458, 1.7883001E-02
591.3279, 0.1278000
591.8101, 2.2644000E-02
592.2922, 0.5742650
592.7743, 1.109848
593.2564, 1.174530
593.7385, 0.9790270
594.2206, 0.9959560
594.7028, 1.444283
595.1849, 1.991829
595.6670, 2.040550
596.1491, 1.507858
596.6312, 1.188477
597.1133, 1.329987
597.5955, 1.425186
598.0776, 1.087296
598.5597, 0.5424580
599.0418, 0.1935120
599.5239, 0.1708910
600.0060, 0.3004150
600.4882, 0.5383220
600.9703, 0.8106610
601.4524, 0.9117890
601.9345, 0.8298570
602.4166, 0.7281270
602.8987, 0.7781830
603.3809, 0.9612660
603.8630, 0.9991380
604.3451, 0.6510620
604.8272, 0.4851070
605.3093, 0.7427670
605.7914, 1.143936
606.2736, 1.459511
606.7557, 1.636795
607.2378, 1.678009
607.7199, 1.540047
608.2020, 1.281715
608.6841, 1.225304
609.1663, 1.470779
609.6484, 1.631340
610.1305, 1.548874
610.6126, 1.362846
611.0947, 1.157143
611.5768, 0.9427570
612.0590, 0.7948530
612.5411, 0.7661130
613.0232, 0.8055650
613.5053, 0.8678740
613.9874, 0.9484710
614.4695, 1.048798
614.9517, 1.177429
615.4338, 1.280800
615.9159, 1.241341
616.3980, 0.9866330
616.8801, 0.8304820
617.3622, 0.8825680
617.8444, 0.9049910
618.3265, 0.7100370
618.8086, 0.4434200
619.2907, 0.3449940
619.7728, 0.4973530
620.2549, 0.7756580
620.7371, 1.083946
621.2192, 1.411873
621.7013, 1.499031
622.1834, 1.246864
622.6655, 0.9433980
623.1476, 0.6261830
623.6298, 0.4110110
624.1119, 0.5644840
624.5940, 1.285103
625.0761, 1.832191
625.5582, 1.763260
626.0403, 1.390862
626.5225, 1.010010
627.0046, 0.6923830
627.4867, 0.5907820
627.9688, 0.8355180
628.4509, 1.288986
628.9330, 1.498024
629.4152, 1.326118
629.8973, 1.151611
630.3794, 0.8895650
630.8615, 0.7130660
631.3436, 0.8519590
631.8257, 1.152054
632.3079, 1.201622
632.7900, 0.7163540
633.2721, 0.1240080
633.7542, 0.1111830
634.2363, 0.6022870
634.7184, 0.8935700
635.2006, 0.8086850
635.6827, 0.6331180
636.1648, 0.5905690
636.6469, 0.6731340
637.1291, 0.7765500
637.6112, 1.038284
638.0933, 1.146233
638.5754, 0.7996060
639.0576, 0.3677750
639.5397, 0.2160640
640.0218, 0.4016110
640.5039, 0.8385540
640.9860, 1.521324
641.4681, 2.337753
641.9503, 2.728928
642.4324, 2.569183
642.9145, 2.297287
643.3966, 1.825066
643.8787, 1.414574
644.3608, 1.297867
644.8430, 1.418358
645.3251, 1.484291
645.8072, 1.331734
646.2893, 1.115623
646.7714, 0.9615330
647.2535, 0.8690190
647.7357, 0.8558430
648.2178, 0.9325560
648.6999, 1.048569
649.1820, 1.172531
649.6641, 1.330429
650.1462, 1.255966
650.6284, 0.5628890
651.1105, 0.1266710
651.5926, 0.2691350
652.0747, 0.6339570
652.5568, 0.9210890
653.0389, 1.081390
653.5211, 1.226784
654.0032, 1.463799
654.4853, 1.745644
654.9674, 1.951241
655.4495, 2.061325
655.9316, 2.113525
656.4138, 2.079872
656.8959, 2.048195
657.3780, 2.156609
657.8601, 2.398109
658.3422, 2.631294
658.8243, 3.007675
659.3065, 3.206131
659.7886, 2.845497
660.2707, 2.253120
660.7528, 1.961235
661.2349, 2.098412
661.7170, 2.403557
662.1992, 2.614624
662.6813, 2.737930
663.1634, 2.795570
663.6455, 2.767288
664.1276, 2.751678
664.6097, 2.777534
665.0919, 2.777832
665.5740, 2.707306
666.0561, 2.572754
666.5382, 2.470726
667.0203, 2.405022
667.5024, 2.400108
667.9846, 2.555748
668.4667, 2.807373
668.9488, 2.892212
669.4309, 2.713989
669.9130, 2.544548
670.3951, 2.765656
670.8773, 3.461372
671.3594, 3.763069
671.8415, 3.377060
672.3236, 2.937874
672.8057, 2.485123
673.2878, 2.106094
673.7700, 1.889038
674.2521, 1.843681
674.7342, 1.938065
675.2163, 2.109093
675.6984, 2.331779
676.1805, 2.557571
676.6627, 2.801735
677.1448, 2.691856
677.6269, 2.002716
678.1090, 1.245415
678.5911, 1.141052
679.0732, 1.886314
679.5554, 2.440765
680.0375, 2.920822
680.5196, 3.139984
681.0017, 2.871857
681.4838, 2.377434
681.9659, 1.911812
682.4481, 1.567886
682.9302, 1.424477
683.4123, 1.692764
683.8944, 2.201126
684.3765, 2.133018
684.8586, 1.359909
685.3408, 0.8218150
685.8229, 0.9804230
686.3050, 1.353249
686.7871, 1.240639
687.2692, 0.6501620
687.7513, 0.3867950
688.2335, 0.9083180
688.7156, 1.426071
689.1977, 1.485901
689.6798, 1.296844
690.1619, 1.108627
690.6440, 0.9988780
691.1262, 0.9890900
691.6083, 1.132996
692.0904, 1.394142
692.5725, 1.436111
693.0546, 1.147682
693.5367, 0.9547420
694.0189, 1.006966
694.5010, 1.175522
694.9831, 1.435562
695.4652, 1.746269
695.9473, 1.822716
696.4294, 1.378174
696.9116, 0.8907780
697.3937, 0.7014540
697.8758, 0.6975710
698.3579, 0.6758730
698.8400, 0.5862880
699.3221, 0.4713130
699.8043, 0.3669280
700.2864, 0.2751240
700.7685, 0.2100680
701.2506, 0.1570280
701.7327, 0.1618040
702.2148, 0.2467650
702.6970, 0.3850560
703.1791, 0.6346440
703.6612, 0.9365390
704.1433, 1.076462
704.6254, 0.8738940
705.1075, 0.6155550
705.5897, 0.5198590
706.0718, 0.5447770
706.5539, 0.6601720
707.0360, 0.8441310
707.5181, 0.8968510
708.0002, 0.6143880
708.4824, 0.1074750
708.9645, 6.0913000E-02
709.4466, 0.2980880
709.9287, 0.6487430
710.4108, 1.143120
710.8929, 1.433823
711.3751, 1.140564
711.8572, 0.4946290
712.3393, 0.1000440
712.8214, 0.2431950
713.3035, 0.5039520
713.7856, 0.5140380
714.2678, 0.3763730
714.7499, 0.3329390
715.2320, 0.4080430
715.7141, 0.4276810
716.1962, 0.2676770
716.6783, 1.1208000E-02
717.1605, 0.2387700
717.6426, 0.4808350
718.1247, 0.5353930
718.6068, 0.2207950
719.0889, 8.1344999E-02
719.5710, 0.2360530
720.0532, 0.2505040
720.5353, 0.1055150
721.0174, 0.2325900
721.4995, 0.4806290
721.9816, 0.2885670
722.4637, 0.1117320
722.9459, 0.2342530
723.4280, 6.7328997E-02
723.9101, 0.1037900
724.3922, 0.1456680
724.8743, 8.9722000E-02
725.3564, 2.7077001E-02
725.8386, 0.2823720
726.3207, 0.3147580
726.8028, 0.1500930
727.2849, 0.5143050
727.7670, 0.5654530
728.2491, 0.4323430
728.7313, 0.2334210
729.2134, 2.7850000E-03
729.6955, 0.1595840
730.1776, 0.1445470
730.6597, 4.0100001E-02
731.1418, 5.5849999E-03
731.6240, 6.7139999E-03
732.1061, 0.6011810
732.5882, 1.0033000E-02
733.0703, 0.3595050
733.5524, 0.4613880
734.0345, 0.4262240
734.5167, 3.6369000E-02
734.9988, 0.1586300
735.4809, 0.3018800
735.9631, 0.2675400
736.4452, 0.4766310
736.9273, 8.1290998E-02
737.4094, 0.1194150
737.8915, 0.3953780
738.3737, 0.1562500
738.8558, 7.6247998E-02
739.3379, 0.5116810
739.8200, 0.6617510
740.3021, 0.3634410
740.7842, 0.6547780
741.2664, 0.1073460
741.7485, 5.5031002E-02
742.2306, 0.6162410
742.7127, 0.3439940
743.1948, 0.6449050
743.6769, 0.7275620
744.1591, 0.1816410
744.6412, 0.6342620
745.1233, 0.7035060
745.6054, 3.4030001E-03
746.0875, 0.3577500
746.5696, 0.1218190
747.0518, 0.5814820
747.5339, 0.4770810
748.0160, 0.1065670
748.4981, 2.1484001E-02
748.9802, 0.1076970
749.4623, 0.2772220
749.9445, 0.3846510
750.4266, 0.4273070
750.9087, 0.3894200
751.3908, 0.2390590
751.8729, 0.1608730
752.3550, 0.2736430
752.8372, 0.2976840
753.3193, 4.7226001E-02
753.8014, 0.2739260
754.2835, 0.4377590
754.7656, 0.4196930
755.2477, 0.3616180
755.7299, 0.2699660
756.2120, 0.2191930
756.6941, 0.3715820
757.1762, 0.6080930
757.6583, 0.5724640
758.1404, 0.1898800
758.6226, 0.1425480
759.1047, 5.3940001E-03
759.5868, 0.5373690
760.0689, 0.7414780
760.5510, 0.4241330
761.0331, 0.3016200
761.5153, 0.6831510
761.9974, 1.116989
762.4795, 1.219666
762.9616, 1.105278
763.4437, 1.162575
763.9258, 1.632736
764.4080, 1.997833
764.8901, 1.778076
765.3722, 1.466949
765.8543, 1.750473
766.3364, 2.511597
766.8185, 3.102020
767.3007, 3.185539
767.7828, 3.030373
768.2649, 3.198227
768.7470, 3.713455
769.2291, 3.726036
769.7112, 2.859177
770.1934, 2.411354
770.6755, 3.322250
771.1576, 4.845070
771.6397, 5.679253
772.1218, 5.731979
772.6039, 5.879059
773.0861, 6.444542
773.5682, 6.942329
774.0503, 6.935928
774.5324, 6.774063
775.0145, 7.016594
775.4966, 7.738701
775.9788, 8.527496
776.4609, 9.018951
776.9430, 9.385254
777.4251, 10.02950
777.9072, 10.94463
778.3893, 12.04185
778.8715, 13.37334
779.3536, 14.55389
779.8357, 15.16803
780.3178, 15.35879
780.7999, 15.99800
781.2820, 17.24866
781.7642, 18.68625
782.2463, 20.36550
782.7284, 22.18138
783.2105, 24.18767
783.6926, 26.24715
784.1747, 28.02956
784.6569, 29.37913
785.1390, 30.81664
785.6211, 32.95004
786.1032, 35.48612
786.5853, 37.79414
787.0674, 39.88679
787.5496, 42.21440
788.0317, 44.97617
788.5138, 47.84669
788.9959, 50.32510
789.4780, 52.36826
789.9601, 54.64082
790.4423, 57.32168
790.9244, 60.09715
791.4065, 63.05958
791.8886, 65.94500
792.3707, 68.48927
792.8528, 70.76711
793.3350, 73.42300
793.8171, 77.11298
794.2992, 80.67104
794.7813, 83.43988
795.2634, 85.70416
795.7455, 87.85334
796.2277, 89.94976
796.7098, 91.94185
797.1919, 93.81214
797.6740, 95.52675
798.1561, 97.04242
798.6382, 98.36060
799.1204, 99.41080
799.6025, 100.2033
800.0846, 100.6920
800.5667, 100.6689
801.0488, 100.4602
801.5309, 100.8647
802.0131, 102.1400
802.4952, 102.3529
802.9773, 100.6183
803.4594, 98.59792
803.9415, 97.10744
804.4236, 95.66275
804.9058, 93.59248
805.3879, 90.89137
805.8700, 88.10175
806.3521, 85.60071
806.8342, 83.15018
807.3163, 80.43204
807.7985, 77.47124
808.2806, 74.33765
808.7627, 71.04667
809.2448, 67.69126
809.7269, 64.30294
810.2090, 60.89197
810.6912, 57.49702
811.1733, 53.98730
811.6554, 50.80075
812.1375, 48.02822
812.6196, 45.48051
813.1017, 43.28725
813.5839, 41.18387
814.0660, 38.74513
814.5481, 35.88983
815.0302, 33.32886
815.5123, 31.45593
815.9944, 29.91435
816.4766, 28.46570
816.9587, 27.12273
817.4408, 26.02407
817.9229, 25.15027
818.4050, 24.17670
818.8871, 22.75986
819.3693, 21.18844
819.8514, 20.35405
820.3335, 20.30438
820.8156, 19.83414
821.2977, 18.63763
821.7798, 17.36433
822.2620, 16.39757
822.7441, 15.68342
823.2262, 15.09050
823.7083, 14.76173
824.1904, 14.21339
824.6725, 13.10709
825.1547, 12.13453
825.6368, 11.80788
826.1189, 11.70638
826.6010, 11.14918
827.0831, 10.06351
827.5652, 9.191147
828.0474, 9.298668
828.5295, 9.648521
829.0116, 9.276810
829.4937, 8.443024
829.9758, 7.756439
830.4579, 7.364388
830.9401, 7.281281
831.4222, 7.565727
831.9043, 8.038361
832.3864, 8.171669
832.8685, 7.914436
833.3506, 7.541786
833.8328, 6.941948
834.3149, 6.478027
834.7971, 6.422836
835.2792, 6.595932
835.7613, 6.667816
836.2434, 6.583832
836.7255, 6.709564
837.2076, 7.331772
837.6898, 7.926674
838.1719, 8.225861
838.6540, 8.352821
839.1361, 8.435165
839.6182, 8.506927
840.1003, 8.593491
840.5825, 8.665817
841.0646, 8.871635
841.5467, 9.557121
842.0288, 10.53217
842.5109, 11.12106
842.9930, 11.24926
843.4752, 11.38181
843.9573, 11.78294
844.4394, 12.40550
844.9215, 13.18742
845.4036, 14.18143
845.8857, 15.13422
846.3679, 16.14079
846.8500, 16.95657
847.3321, 17.25146
847.8142, 17.44394
848.2963, 18.07630
848.7784, 19.12644
849.2606, 19.93375
849.7427, 19.97446
850.2248, 20.24930
850.7069, 21.33525
851.1890, 22.74923
851.6711, 24.09034
852.1533, 25.22261
852.6354, 26.12129
853.1175, 26.74924
853.5996, 27.30067
854.0817, 27.98376
854.5638, 28.69072
855.0460, 29.10638
855.5281, 29.25234
856.0102, 29.49100
856.4923, 29.96956
856.9744, 30.58226
857.4565, 31.21349
857.9387, 31.85876
858.4208, 32.35614
858.9029, 32.72163
859.3850, 32.89415
859.8671, 32.81110
860.3492, 32.58105
860.8314, 32.21512
861.3135, 31.77169
861.7956, 31.42809
862.2777, 31.31991
862.7598, 31.03474
863.2419, 30.34985
863.7241, 29.58117
864.2062, 28.84646
864.6883, 28.19896
865.1704, 27.71394
865.6525, 27.39105
866.1346, 27.05302
866.6168, 26.59035
867.0989, 26.00169
867.5810, 25.34193
868.0631, 24.55712
868.5452, 23.37115
869.0273, 21.75096
869.5095, 20.18015
869.9916, 19.00343
870.4737, 18.13469
870.9558, 17.39876
871.4379, 16.84315
871.9200, 16.11451
872.4022, 15.12125
872.8843, 14.12056
873.3664, 13.20663
873.8485, 12.35606
874.3306, 11.53896
874.8127, 10.74914
875.2949, 10.05620
875.7770, 9.519196
876.2591, 9.013138
876.7412, 8.525833
877.2233, 8.042061
877.7054, 7.554726
878.1876, 7.064232
878.6697, 6.578568
879.1518, 6.119049
879.6339, 5.597771
880.1160, 4.871834
880.5981, 4.090118
881.0803, 3.401627
881.5624, 2.842453
882.0445, 2.495796
882.5266, 2.381271
883.0087, 2.349701
883.4908, 2.249931
883.9730, 2.102882
884.4551, 1.986343
884.9372, 1.899200
885.4193, 1.901161
885.9014, 2.058128
886.3835, 2.103104
886.8657, 1.824364
887.3478, 1.316322
887.8299, 0.7965700
888.3120, 6.5421999E-02
888.7941, 0.1307530
889.2762, 0.8184280
889.7584, 1.558846
890.2405, 1.649597
890.7226, 1.365425
891.2047, 0.8439410
891.6868, 0.1694180
892.1689, 0.2349320
892.6511, 4.9187001E-02
893.1332, 0.1918030
893.6153, 0.2750700
894.0974, 0.2357860
894.5795, 4.2061001E-02
895.0616, 0.2347030
895.5438, 0.4372100
896.0259, 0.5025410
896.5080, 0.4537730
896.9901, 0.2090450
897.4722, 9.1720998E-02
897.9543, 8.1482001E-02
898.4365, 0.1922150
898.9186, 0.4491040
899.4007, 0.6060640
899.8828, 0.6891940
900.3649, 0.7211910
900.8470, 0.6914140
901.3292, 0.5567250
901.8113, 0.2834630
902.2934, 6.2737003E-02
902.7755, 0.1104660
903.2576, 0.1674120
903.7397, 2.2050000E-03
904.2219, 0.2416760
904.7040, 0.2858350
905.1861, 0.1027980
905.6682, 7.3813997E-02
906.1503, 0.3955380
906.6324, 0.5407790
907.1146, 0.3510130
907.5967, 3.1959999E-02
908.0788, 0.4188080
908.5609, 0.8517230
909.0430, 0.8261490
909.5251, 3.4667999E-02
910.0073, 0.5654070
910.4894, 0.1819990
910.9715, 0.4627760
911.4536, 0.6862720
911.9357, 0.5833130
912.4178, 0.4157490
912.9000, 0.2620320
913.3821, 0.1053540
913.8642, 8.3297998E-02
914.3463, 0.2711490
914.8284, 0.3873440
915.3105, 0.4402080
915.7927, 0.4727020
916.2748, 0.4937740
916.7569, 0.5184020
917.2390, 0.5487900
917.7211, 0.6259230
918.2032, 0.8625030
918.6854, 1.276222
919.1675, 1.370659
919.6496, 1.050369
920.1317, 0.7159960
920.6138, 0.3376160
921.0959, 0.1363530
921.5781, 0.4732280
922.0602, 1.189079
922.5423, 1.446152
923.0244, 0.8975370
923.5065, 0.5541840
923.9886, 0.5735860
924.4708, 0.6716380
924.9529, 0.7425000
925.4350, 0.8131030
925.9171, 0.9422610
926.3992, 1.117630
926.8813, 1.245628
927.3635, 1.357925
927.8456, 1.340881
928.3277, 0.9462430
928.8098, 0.5051270
929.2919, 0.4422530
929.7740, 0.6871640
930.2562, 0.9478680
930.7383, 1.105080
931.2204, 1.185684
931.7025, 1.161674
932.1846, 1.110435
932.6667, 1.202179
933.1489, 1.388878
933.6310, 0.8479840
934.1132, 1.630180
934.5953, 2.064667
935.0774, 2.170158
935.5595, 0.9612270
936.0416, 1.449287
936.5237, 1.258797
937.0059, 1.042183
937.4880, 1.770157
937.9701, 0.7518920
938.4522, 1.463181
938.9343, 1.483849
939.4164, 1.820656
939.8986, 1.475899
940.3807, 1.345490
940.8628, 1.894287
941.3449, 2.062950
941.8270, 1.635895
942.3091, 1.991867
942.7913, 0.9484480
943.2734, 1.132706
943.7555, 1.846626
944.2376, 1.453339
944.7197, 1.821213
945.2018, 1.898941
945.6840, 0.6589430
946.1661, 1.710190
946.6482, 1.768715
947.1303, 0.8123470
947.6124, 1.784676
948.0945, 0.9671710
948.5767, 0.7884290
949.0588, 1.090225
949.5409, 0.8912200
950.0230, 1.476578
950.5051, 1.304802
950.9872, 1.383148
951.4694, 1.595444
951.9515, 1.583794
952.4336, 1.451965
952.9157, 1.234619
953.3978, 0.9971850
953.8799, 0.8192290
954.3621, 0.7205730
954.8442, 0.8083190
955.3263, 1.041130
955.8084, 1.080299
956.2905, 0.7852710
956.7726, 0.4570390
957.2548, 0.4722210
957.7369, 0.7317350
958.2190, 0.7690580
958.7011, 0.5755840
959.1832, 0.4198610
959.6653, 0.3276670
960.1475, 0.4017790
960.6296, 0.7789540
961.1117, 1.186798
961.5938, 1.072525
962.0759, 0.3299030
962.5580, 3.0640000E-02
963.0402, 0.4731450
963.5223, 0.7643280
964.0044, 0.6071780
964.4865, 0.3519900
964.9686, 0.2037200
965.4507, 0.1689000
965.9329, 0.2779160
966.4150, 0.6695710
966.8971, 0.8539120
967.3792, 0.6323320
967.8613, 0.4601520
968.3434, 0.6149980
968.8256, 0.7838820
969.3077, 0.6556170
969.7898, 0.2994230
970.2719, 6.3087001E-02
970.7540, 8.3443001E-02
971.2361, 0.1349950
971.7183, 9.1109999E-02
972.2004, 7.1091004E-02
972.6825, 0.1741030
973.1646, 0.3625720
973.6467, 0.6261140
974.1288, 0.9250340
974.6110, 1.062340
975.0931, 0.8690260
975.5752, 0.5599820
976.0573, 0.2837220
976.5394, 4.9408000E-02
977.0215, 0.1629710
977.5037, 0.3204190
977.9858, 0.2945400
978.4679, 5.4198999E-02
978.9500, 0.1879730
979.4321, 0.2288210
979.9142, 0.1573330
980.3964, 0.1586910
980.8785, 0.2145160
981.3606, 0.2782440
981.8427, 0.3467860
982.3248, 0.3370740
982.8069, 0.1725080
983.2891, 2.0431999E-02
983.7712, 0.2268600
984.2533, 0.7052080
984.7354, 0.6951450
985.2175, 0.1740570
985.6996, 2.7130000E-02
986.1818, 0.4985120
986.6639, 1.011902
987.1460, 1.176567
987.6281, 1.079002
988.1102, 0.8800050
988.5923, 0.5534670
989.0745, 0.3050080
989.5566, 9.4414003E-02
990.0387, 8.9171998E-02
990.5208, 0.4112700
991.0029, 0.8307420
991.4850, 1.217064
991.9672, 1.520210
992.4493, 1.521446
992.9314, 1.058044
993.4135, 0.6855240
993.8956, 0.3433150
994.3777, 0.1771850
994.8599, 0.3790440
995.3420, 0.6635130
995.8241, 0.7922440
996.3062, 0.7686160
996.7883, 0.6385570
997.2704, 0.2063750
997.7526, 2.9739000E-02
998.2347, 0.4395600
998.7168, 0.8282240
999.1989, 0.8172910
999.6810, 0.6669460
1000.163, 0.7186810
1000.645, 0.9824910
1001.127, 1.228874
1001.609, 1.451393
1002.092, 1.540871
1002.574, 1.409737
1003.056, 1.175201
1003.538, 0.7886510
1004.020, 0.4283070
1004.502, 0.4282380
1004.984, 0.8063130
1005.466, 1.112030
1005.949, 1.102333
1006.431, 0.9459760
1006.913, 0.5549770
1007.395, 0.2428210
1007.877, 0.6062010
1008.359, 1.328278
1008.841, 1.521278
1009.323, 0.9590230
1009.805, 0.3597870
1010.288, 0.3249280
1010.770, 0.4908450
1011.252, 0.3446580
1011.734, 0.1160660
1012.216, 0.3524630
1012.698, 0.9433210
1013.180, 1.245728
1013.662, 1.005432
1014.145, 0.6244280
1014.627, 0.5081180
1015.109, 0.5313570
1015.591, 0.3887410
1016.073, 0.1623920
1016.555, 0.1891020
1017.037, 0.4694820
1017.519, 0.6478650
1018.001, 0.5466540
1018.484, 0.4021910
1018.966, 0.5643230
1019.448, 0.9079900
1019.930, 0.9046860
1020.412, 0.6019210
1020.894, 0.5410390
1021.376, 0.7959440
1021.858, 1.136620
1022.341, 1.450432
1022.823, 1.630814
1023.305, 1.458008
1023.787, 0.9893040
1024.269, 0.7393570
1024.751, 0.7104570
1025.233, 0.7417220
1025.715, 0.8116610
1026.198, 0.8595580
1026.680, 0.8352050
1027.162, 0.7918850
1027.644, 0.8155750
1028.126, 0.9026410
1028.608, 1.182281
1029.090, 1.754097
1029.572, 2.004982
1030.054, 1.715080
1030.536, 1.348595
1031.019, 1.218666
1031.501, 1.221336
1031.983, 1.135513
1032.465, 0.9506230
1032.947, 0.7331390
1033.429, 0.3727870
1033.911, 0.2813640
1034.393, 0.6639860
1034.876, 1.124786
1035.358, 1.466553
1035.840, 1.650681
1036.322, 1.527054
1036.804, 0.9646070
1037.286, 0.6959840
1037.768, 1.024712
1038.250, 1.087784
1038.733, 0.4504850
1039.215, 0.2075040
1039.697, 0.4304810
1040.179, 0.3030700
1040.661, 1.0849000E-02
1041.143, 0.6430970
1041.625, 0.9974520
1042.107, 0.7706150
1042.589, 0.6203690
1043.072, 0.6976620
1043.554, 0.8634340
1044.036, 1.171486
1044.518, 1.487335
1045.000, 1.388481
1045.482, 0.7039180
1045.964, 0.2959980
1046.446, 0.2673110
1046.928, 0.4594800
1047.411, 1.246666
1047.893, 1.857025
1048.375, 1.469818
1048.857, 0.5240860
1049.339, 0.1294710
1049.821, 0.5101470
1050.303, 0.8099290
1050.785, 0.9171070
1051.268, 0.9100950
1051.750, 0.7066960
1052.232, 0.4659810
1052.714, 0.2582780
1053.196, 0.1240840
1053.678, 0.1802290
1054.160, 0.4940110
1054.642, 0.6394200
1055.125, 0.2585300
1055.607, 2.4323000E-02
1056.089, 0.4001010
1056.571, 0.8395540
1057.053, 0.8746030
1057.535, 0.6289600
1058.017, 0.3807980
1058.499, 0.1627200
1058.981, 0.1820070
1059.464, 0.8679500
1059.946, 1.342621
1060.428, 1.032700
1060.910, 0.5606230
1061.392, 0.4231490
1061.874, 0.5472490
1062.356, 0.7374110
1062.838, 0.9630510
1063.320, 1.047104
1063.803, 0.7549970
1064.285, 0.5469510
1064.767, 0.7606430
1065.249, 0.9937970
1065.731, 0.7510830
1066.213, 0.3274380
1066.695, 0.4286040
1067.177, 1.180672
1067.660, 1.727493
1068.142, 1.585007
1068.624, 1.385170
1069.106, 1.312302
1069.588, 1.340462
1070.070, 1.605492
1070.552, 1.911644
1071.034, 1.855232
1071.516, 1.392097
1071.999, 1.039604
1072.481, 1.165604
1072.963, 1.251106
1073.445, 0.9500270
1073.927, 0.6070860
1074.409, 0.4934540
1074.891, 0.5521090
1075.373, 0.6990130
1075.855, 0.8938140
1076.338, 0.9802020
1076.820, 0.7702330
1077.302, 0.6534040
1077.784, 0.9102940
1078.266, 1.241913
1078.748, 1.516525
1079.230, 1.658195
1079.712, 1.494751
1080.195, 1.072571
1080.677, 0.7762150
1081.159, 0.7931440
1081.641, 0.8685610
1082.123, 0.8868100
1082.605, 0.9171680
1083.087, 1.086334
1083.569, 1.251312
1084.052, 1.178963
1084.534, 0.8981700
1085.016, 0.6696320
1085.498, 0.5716480
1085.980, 0.5607600
1086.462, 0.6671680
1086.944, 0.7988200
1087.426, 0.9474490
1087.908, 1.051651
1088.391, 1.011681
1088.873, 0.8634570
1089.355, 0.7364350
1089.837, 0.6463620
1090.319, 0.6766430
1090.801, 1.049522
1091.283, 1.327644
1091.765, 1.110985
1092.248, 0.8072050
1092.730, 0.9369280
1093.212, 1.326431
1093.694, 1.394958
1094.176, 0.9692610
1094.658, 0.5521700
1095.140, 0.1912920
1095.622, 4.2847000E-02
1096.104, 0.3260420
1096.587, 0.7159350
1097.069, 1.049591
1097.551, 1.213577
1098.033, 0.9600600
1098.515, 0.2247090
1098.997, 0.2294080
1099.479, 6.4673997E-02
1099.961, 0.3411560
1100.443, 0.3526000
1100.926, 0.2469480
1101.408, 2.9655000E-02
1101.890, 0.2713930
1102.372, 6.6246003E-02
1102.854, 0.5926970
1103.336, 0.9865570
1103.818, 0.7679140
1104.300, 0.5465160
1104.783, 0.4014130
1105.265, 0.3476490
1105.747, 0.4543840
1106.229, 0.6157150
1106.711, 0.7483830
1107.193, 0.8240130
1107.675, 0.7141950
1108.157, 0.1578370
1108.640, 0.1173400
1109.122, 0.2036740
1109.604, 0.5417180
1110.086, 0.6676100
1110.568, 0.7089160
1111.050, 0.7632520
1111.532, 0.8427120
1112.014, 0.9990770
1112.496, 1.364838
1112.979, 1.444275
1113.461, 0.9832380
1113.943, 0.5596160
1114.425, 0.3049090
1114.907, 0.1356350
1115.389, 3.2653999E-02
1115.871, 0.1461640
1116.353, 4.5860000E-02
1116.835, 0.3390120
1117.318, 0.5162580
1117.800, 0.2460940
1118.282, 0.2250670
1118.764, 0.8271330
1119.246, 1.281204
1119.728, 1.092773
1120.210, 0.5737460
1120.692, 0.1576840
1121.175, 0.1548610
1121.657, 0.2706760
1122.139, 0.1193850
1122.621, 3.2432999E-02
1123.103, 0.1535260
1123.585, 0.3198170
1124.067, 0.6478810
1124.549, 0.8527150
1125.031, 0.5439530
1125.514, 0.1249690
1125.996, 0.4099730
1126.478, 0.2417530
1126.960, 4.6844002E-02
1127.442, 0.1955870
1127.924, 0.2860410
1128.406, 0.1170270
1128.888, 1.6747000E-02
1129.370, 0.1492460
1129.853, 0.4440460
1130.335, 0.4153820
1130.817, 6.4758003E-02
1131.299, 0.1197660
1131.781, 0.6110840
1132.263, 0.8085860
1132.745, 0.5489580
1133.227, 0.3459780
1133.710, 0.5132370
1134.192, 0.7510450
1134.674, 0.5634310
1135.156, 0.1217190
1135.638, 0.2357250
1136.120, 0.8064500
1136.602, 1.021027
1137.084, 0.8185270
1137.567, 0.6377030
1138.049, 0.6508940
1138.531, 0.6972890
1139.013, 0.6128310
1139.495, 0.4895550
1139.977, 0.4862290
1140.459, 0.5962070
1140.941, 0.8604890
1141.423, 1.221733
1141.906, 1.508553
1142.388, 1.659203
1142.870, 1.573570
1143.352, 1.145782
1143.834, 0.7476120
1144.316, 0.9769210
1144.798, 1.396454
1145.280, 1.270096
1145.762, 0.8454900
1146.245, 0.6297300
1146.727, 0.6564710
1147.209, 0.7294240
1147.691, 0.7716450
1148.173, 0.8026890
1148.655, 0.8282850
1149.137, 0.8631060
1149.619, 0.9125670
1150.102, 0.9806370
1150.584, 1.085495
1151.066, 1.204514
1151.548, 1.314583
1152.030, 1.399498
1152.512, 1.388138
1152.994, 1.184738
1153.476, 1.008156
1153.958, 1.099182
1154.441, 1.109558
1154.923, 0.5782780
1155.405, 9.2770001E-03
1155.887, 1.2077000E-02
1156.369, 0.4753490
1156.851, 0.9104610
1157.333, 1.249298
1157.815, 1.444878
1158.297, 1.412544
1158.780, 1.335785
1159.262, 1.256744
1159.744, 1.153534
1160.226, 1.029289
1160.708, 0.9032440
1161.190, 0.8097990
1161.672, 0.7489850
1162.154, 0.7458190
1162.637, 0.8236470
1163.119, 0.9164430
1163.601, 1.045189
1164.083, 1.145233
1164.565, 1.190063
1165.047, 1.188309
1165.529, 1.114357
1166.011, 1.018906
1166.494, 1.154915
1166.976, 1.653458
1167.458, 1.758408
1167.940, 1.359993
1168.422, 1.148720
1168.904, 1.350647
1169.386, 1.413681
1169.868, 0.9338380
1170.350, 0.2603230
1170.833, 3.6713000E-02
1171.315, 3.4409999E-03
1171.797, 0.1173250
1172.279, 0.3222050
1172.761, 0.6408160
1173.243, 1.050308
1173.725, 1.214058
1174.207, 1.023544
1174.689, 0.7556230
1175.172, 0.6265790
1175.654, 0.6679760
1176.136, 1.116264
1176.618, 1.703362
1177.100, 1.700829
1177.582, 1.307518
1178.064, 1.187477
1178.546, 1.411263
1179.029, 1.583023
1179.511, 1.525688
1179.993, 1.375824
1180.475, 1.209976
1180.957, 1.069382
1181.439, 1.005981
1181.921, 0.9888000
1182.403, 0.9686740
1182.885, 0.9629820
1183.368, 1.057625
1183.850, 1.237762
1184.332, 1.263290
1184.814, 0.8804240
1185.296, 0.5832290
1185.778, 0.6522750
1186.260, 0.7793350
1186.742, 0.7911000
1187.225, 0.7678680
1187.707, 0.7439650
1188.189, 0.7629090
1188.671, 0.9908980
1189.153, 1.570663
1189.635, 1.874153
1190.117, 1.757751
1190.599, 1.513245
1191.082, 1.063515
1191.564, 0.6589050
1192.046, 0.3813400
1192.528, 0.2897190
1193.010, 0.5579450
1193.492, 1.086952
1193.974, 1.163666
1194.456, 0.6162190
1194.938, 0.6499560
1195.421, 1.493332
1195.903, 1.824234
1196.385, 1.169579
1196.867, 0.4799420
1197.349, 0.4693220
1197.831, 0.8233570
1198.313, 1.042297
1198.795, 1.128754
1199.277, 0.8231890
1199.760, 0.2653270
1200.242, 0.1969450
1200.724, 0.6174090
1201.206, 0.7680440
1201.688, 0.4079900
1202.170, 0.1444850
1202.652, 0.5546490
1203.134, 1.102051
1203.617, 0.9823990
1204.099, 0.6143420
1204.581, 0.6317210
1205.063, 0.8222890
1205.545, 0.6263200
1206.027, 0.1330260
1206.509, 1.8158000E-02
1206.991, 0.4238660
1207.474, 0.9418330
1207.956, 1.439163
1208.438, 1.708038
1208.920, 1.479652
1209.402, 1.143730
1209.884, 0.9584200
1210.366, 0.8994520
1210.848, 0.9346620
1211.330, 1.041412
1211.813, 1.088409
1212.295, 0.8872990
1212.777, 0.9966660
1213.259, 1.930153
1213.741, 2.328438
1214.223, 1.528442
1214.705, 0.6069410
1215.187, 0.2703170
1215.669, 0.3299180
1216.152, 0.4671480
1216.634, 0.6796420
1217.116, 0.9723820
1217.598, 1.363503
1218.080, 1.441841
1218.562, 1.148422
1219.044, 0.9591750
1219.526, 1.044090
1220.009, 1.117714
1220.491, 0.9474110
1220.973, 0.6519850
1221.455, 0.3793410
1221.937, 0.1948470
1222.419, 0.3559650
1222.901, 0.7237400
1223.383, 0.9509280
1223.865, 0.9958650
1224.348, 0.9021910
1224.830, 0.6991960
1225.312, 0.5231170
1225.794, 0.4416280
1226.276, 0.4629290
1226.758, 0.7131810
1227.240, 0.9447250
1227.722, 0.9217830
1228.204, 0.7522130
1228.687, 0.5253300
1229.169, 0.3053510
1229.651, 0.2185440
1230.133, 0.3013840
1230.615, 0.4452210
1231.097, 0.8115160
1231.579, 0.9583590
1232.061, 0.5177610
1232.544, 0.2071460
1233.026, 0.4601290
1233.508, 0.8759920
1233.990, 1.019661
1234.472, 0.9418030
1234.954, 0.8570100
1235.436, 0.7834240
1235.918, 0.5183560
1236.401, 1.8974001E-02
1236.883, 0.1761780
1237.365, 5.5716999E-02
1237.847, 0.3310240
1238.329, 0.4500580
1238.811, 0.4684910
1239.293, 0.4203190
1239.775, 0.3690340
1240.257, 0.4666600
1240.740, 0.6553500
1241.222, 0.8990330
1241.704, 1.089760
1242.186, 0.8620990
1242.668, 0.2798610
1243.150, 0.1032710
1243.632, 4.5441002E-02
1244.114, 0.1980590
1244.596, 0.6104510
1245.079, 0.9631810
1245.561, 1.129631
1246.043, 1.160477
1246.525, 1.014557
1247.007, 0.8137820
1247.489, 0.7192460
1247.971, 0.7419590
1248.453, 0.8335950
1248.936, 1.157356
1249.418, 1.102463
1249.900, 0.3082280
1250.382, 0.1625980
1250.864, 2.5790001E-03
1251.346, 0.3291170
1251.828, 0.5997310
1252.310, 0.7785260
1252.792, 0.7934800
1253.275, 0.7003100
1253.757, 0.7562480
1254.239, 0.9413220
1254.721, 1.002411
1255.203, 0.9321750
1255.685, 0.7275010
1256.167, 0.2339100
1256.649, 0.3783490
1257.131, 0.7289810
1257.614, 0.8320690
1258.096, 5.4108001E-02
1258.578, 0.3374790
1259.060, 0.2163700
1259.542, 7.5324997E-02
1260.024, 0.6471710
1260.506, 9.5504999E-02
1260.988, 0.4651410
1261.471, 0.5059810
1261.953, 0.7848050
1262.435, 0.5151210
1262.917, 0.4342040
1263.399, 0.8716890
1263.881, 1.023849
1264.363, 0.7275920
1264.845, 1.020973
1265.328, 0.2601550
1265.810, 0.3842390
1266.292, 0.9448470
1266.774, 0.6736530
1267.256, 0.9755710
1267.738, 1.059273
1268.220, 0.1510240
1268.702, 0.9679490
1269.184, 0.9935840
1269.667, 0.2837140
1270.149, 1.039879
1270.631, 0.4485170
1271.113, 0.3379750
1271.595, 0.5892640
1272.077, 0.3899610
1272.559, 0.8558350
1273.041, 0.7131420
1273.523, 0.5483780
1274.006, 0.5994720
1274.488, 2.5397999E-02
1274.970, 0.5748750
1275.452, 0.3731080
1275.934, 0.5692520
1276.416, 0.8547060
1276.898, 0.4434810
1277.380, 0.7687760
1277.863, 4.3853998E-02
1278.345, 0.5748670
1278.827, 0.6012730
1279.309, 0.5872800
1279.791, 0.3561710
1280.273, 8.1336997E-02
1280.755, 0.1803670
1281.237, 0.6077120
1281.719, 0.6668010
1282.202, 0.2770230
1282.684, 0.1021650
1283.166, 0.1474990
1283.648, 0.2493060
1284.130, 0.2612230
1284.612, 0.3203050
1285.094, 0.5254060
1285.576, 0.6862340
1286.059, 0.4943700
1286.541, 0.1720810
1287.023, 2.7160000E-03
1287.505, 0.0000000E+00
##END=



