##NAMES=Anorthite
##RRUFFID=R050104
##IDEAL CHEMISTRY=CaAl_2_Si_2_O_8_
##LOCALITY=unknown
##OWNER=RRUFF
##SOURCE=Rock Currier
##DESCRIPTION=Iridescent slab
##STATUS=The identification of this mineral has been confirmed by X-ray diffraction and chemical analysis
##URL=rruff.info/R050104
##MEASURED CHEMISTRY=Ca_0.50_Na_0.47_K_0.03_Al_1.50_Si_2.50_O_8_
115.644, 0.000
117.034, 346.365
118.424, 296.640
119.813, 87.481
121.203, 341.615
122.592, 219.663
123.981, 49.078
125.369, 44.506
126.758, 39.027
128.146, 0.683
129.534, 30.305
130.922, 435.096
132.309, 265.051
133.696, 633.759
135.083, 747.787
136.470, 1305.676
137.857, 1490.987
139.243, 2205.322
140.630, 2473.327
142.016, 2942.699
143.401, 3437.178
144.787, 4229.555
146.172, 4850.764
147.557, 5373.041
148.942, 5986.580
150.327, 6561.275
151.711, 7044.727
153.096, 7668.748
154.480, 8090.078
155.863, 8509.530
157.247, 9166.934
158.630, 10032.156
160.013, 10770.073
161.396, 11744.595
162.779, 12744.645
164.161, 13979.167
165.544, 15097.116
166.926, 16576.445
168.308, 17789.131
169.689, 19255.145
171.070, 20278.461
172.452, 21915.146
173.833, 22969.338
175.213, 23639.602
176.594, 24406.838
177.974, 24498.406
179.354, 24834.129
180.734, 24803.160
182.114, 24038.180
183.493, 23347.393
184.872, 22691.064
186.251, 21566.143
187.630, 20576.664
189.008, 19233.650
190.387, 18643.135
191.765, 17850.145
193.143, 17061.688
194.520, 16507.410
195.898, 15634.480
197.275, 15519.767
198.652, 14776.680
200.029, 14681.259
201.405, 14282.456
202.782, 13770.327
204.158, 13373.893
205.534, 12731.687
206.909, 12500.423
208.285, 11361.454
209.660, 10840.353
211.035, 10031.140
212.410, 8893.828
213.784, 8271.432
215.159, 7235.957
216.533, 6539.416
217.907, 5790.811
219.281, 4837.146
220.654, 4254.426
222.027, 3521.650
223.400, 3151.828
224.773, 2735.953
226.146, 2335.915
227.518, 2069.171
228.891, 1947.502
230.263, 1704.035
231.634, 1647.172
233.006, 1634.092
234.377, 1606.493
235.748, 1573.119
237.119, 1674.870
238.490, 1658.759
239.860, 2077.237
241.231, 2173.996
242.601, 2462.932
243.970, 2531.523
245.340, 2785.398
246.709, 3234.882
248.079, 3219.934
249.448, 3642.432
250.816, 3830.318
252.185, 4091.758
253.553, 4322.672
254.921, 4469.146
256.289, 4916.625
257.657, 5088.096
259.024, 5443.559
260.391, 5746.993
261.758, 6115.385
263.125, 6501.726
264.492, 7009.006
265.858, 7532.219
267.224, 7913.367
268.590, 8816.445
269.956, 8986.461
271.321, 9941.406
272.687, 10715.292
274.052, 11510.104
275.416, 12064.859
276.781, 13128.550
278.146, 13719.205
279.510, 14072.821
280.874, 15078.228
282.237, 15178.907
283.601, 15949.848
284.964, 15486.171
286.327, 15135.277
287.690, 15390.881
289.053, 14557.532
290.416, 13617.574
291.778, 13209.421
293.140, 12002.585
294.502, 11255.122
295.863, 9966.980
297.225, 9089.089
298.586, 7902.401
299.947, 7126.901
301.308, 6233.572
302.668, 5433.414
304.029, 4849.451
305.389, 4423.608
306.749, 3797.877
308.108, 3259.238
309.468, 3215.737
310.827, 2669.302
312.186, 2459.934
313.545, 2134.615
314.903, 2014.333
316.262, 1764.084
317.620, 1465.852
318.978, 1471.638
320.336, 1123.428
321.693, 1036.245
323.051, 962.058
324.408, 1027.861
325.765, 678.657
327.121, 896.441
328.478, 572.210
329.834, 660.960
331.190, 681.688
332.546, 784.395
333.902, 459.073
335.257, 681.723
336.612, 464.340
337.967, 573.922
339.322, 290.462
340.677, 257.949
342.031, 300.379
343.385, 218.721
344.739, 104.967
346.093, 86.106
347.446, 9.863
348.799, 52.968
350.153, 25.792
351.505, 92.434
352.858, 81.025
354.210, 191.629
355.563, 218.406
356.915, 258.360
358.267, 391.508
359.618, 296.878
360.969, 423.450
362.321, 272.256
363.672, 373.254
365.022, 326.472
366.373, 276.895
367.723, 339.509
369.073, 255.332
370.423, 206.341
371.773, 217.524
373.122, 268.885
374.471, 87.436
375.821, 16.871
377.169, 145.939
378.518, 201.090
379.866, 41.973
381.215, 55.834
382.563, 388.533
383.910, 409.145
385.258, 605.672
386.605, 682.115
387.952, 944.479
389.299, 760.760
390.646, 1086.953
391.992, 1046.051
393.339, 1186.049
394.685, 1380.928
396.031, 1570.625
397.376, 1873.189
398.722, 1633.490
400.067, 2121.453
401.412, 2150.010
402.757, 2103.160
404.101, 2522.908
405.446, 2452.285
406.790, 2362.348
408.134, 2446.092
409.478, 2419.652
410.821, 2447.047
412.165, 2203.287
413.508, 1831.459
414.851, 1900.572
416.193, 1621.631
417.536, 1486.639
418.878, 1339.594
420.220, 1205.977
421.562, 1334.348
422.904, 1162.145
424.245, 1324.891
425.586, 1615.582
426.927, 1523.221
428.268, 1802.805
429.609, 1555.334
430.949, 1737.215
432.289, 1808.641
433.629, 2281.148
434.969, 2032.240
436.309, 2543.102
437.648, 2568.398
438.987, 2951.203
440.326, 2979.578
441.665, 3083.076
443.003, 3177.779
444.342, 3498.234
445.680, 3375.451
447.018, 3475.881
448.355, 3502.971
449.693, 3346.947
451.030, 3535.549
452.367, 3606.316
453.704, 3937.449
455.041, 3704.801
456.377, 4153.457
457.713, 4157.693
459.049, 4634.535
460.385, 4758.438
461.721, 5461.949
463.056, 6047.936
464.391, 6654.805
465.726, 6972.496
467.061, 8371.451
468.395, 9175.779
469.730, 10307.621
471.064, 12172.652
472.398, 12891.781
473.731, 15556.906
475.065, 16356.055
476.398, 18178.309
477.731, 19413.205
479.064, 20538.568
480.397, 20568.855
481.729, 20611.721
483.062, 20002.711
484.394, 18702.375
485.725, 17800.117
487.057, 16370.188
488.389, 15475.404
489.720, 14790.625
491.051, 14467.148
492.382, 14438.816
493.712, 15565.527
495.043, 16790.613
496.373, 18661.607
497.703, 20824.910
499.032, 24533.787
500.362, 27920.369
501.691, 31130.744
503.020, 34793.676
504.349, 37391.410
505.678, 40498.391
507.007, 41601.508
508.335, 43085.566
509.663, 42961.398
510.991, 41856.414
512.319, 40596.473
513.646, 37041.484
514.973, 33928.273
516.300, 29949.385
517.627, 26753.104
518.954, 23359.605
520.280, 20308.133
521.607, 17592.150
522.933, 14961.107
524.259, 12962.510
525.584, 11092.633
526.910, 9551.660
528.235, 8468.551
529.560, 7375.529
530.885, 6506.412
532.209, 5755.080
533.534, 5088.027
534.858, 4595.936
536.182, 4120.180
537.506, 3767.086
538.829, 3411.875
540.152, 3347.074
541.476, 3103.801
542.799, 3404.805
544.121, 3012.861
545.444, 3343.715
546.766, 3052.809
548.088, 3272.486
549.410, 3291.734
550.732, 3329.354
552.053, 3264.932
553.375, 3434.430
554.696, 3486.273
556.017, 3379.377
557.337, 3789.777
558.658, 3904.100
559.978, 4195.344
561.298, 4287.539
562.618, 4990.676
563.938, 4959.738
565.257, 5374.732
566.576, 5486.656
567.895, 5152.520
569.214, 4970.344
570.533, 4705.100
571.851, 4102.781
573.170, 3432.395
574.488, 3211.938
575.805, 2606.410
577.123, 2151.809
578.440, 1753.137
579.758, 1656.395
581.075, 1414.576
582.391, 986.691
583.708, 1235.729
585.024, 788.693
586.341, 690.586
587.657, 792.404
588.972, 571.148
590.288, 710.814
591.603, 633.408
592.918, 240.924
594.233, 282.354
595.548, 403.691
596.863, 268.949
598.177, 120.115
599.491, 314.189
600.805, 488.174
602.119, 150.920
603.432, 116.211
604.746, 76.318
606.059, 108.754
607.372, 113.844
608.685, 46.662
609.997, 18.438
611.309, 57.564
612.621, 205.717
613.933, 212.094
615.245, 31.695
616.557, 63.570
617.868, 45.738
619.179, 6.805
620.490, 50.240
621.801, 209.426
623.111, 27.164
624.421, 8.652
625.731, 223.031
627.041, 168.680
628.351, 484.408
629.660, 28.416
630.970, 173.324
632.279, 384.141
633.588, 92.875
634.896, 393.516
636.205, 52.076
637.513, 488.539
638.821, 44.076
640.129, 268.178
641.437, 320.344
642.744, 274.426
644.051, 170.424
645.358, 109.336
646.665, 321.156
647.972, 221.893
649.278, 161.545
650.584, 362.111
651.890, 104.596
653.196, 481.992
654.502, 27.316
655.807, 403.547
657.113, 157.703
658.418, 15.219
659.722, 255.754
661.027, 183.652
662.331, 100.475
663.636, 205.395
664.940, 571.010
666.244, 149.654
667.547, 242.258
668.851, 64.598
670.154, 449.189
671.457, 223.455
672.760, 402.803
674.062, 1020.504
675.365, 479.746
676.667, 688.869
677.969, 708.748
679.271, 569.068
680.572, 643.428
681.874, 569.654
683.175, 968.068
684.476, 866.086
685.777, 753.676
687.077, 764.887
688.378, 596.734
689.678, 850.500
690.978, 861.418
692.278, 725.092
693.577, 815.941
694.877, 800.254
696.176, 785.336
697.475, 880.771
698.774, 942.920
700.072, 1030.477
701.371, 908.701
702.669, 1023.662
703.967, 658.701
705.265, 1067.928
706.562, 1484.459
707.860, 1345.680
709.157, 980.340
710.454, 1342.738
711.751, 1285.793
713.047, 1548.471
714.344, 1207.648
715.640, 1468.326
716.936, 1300.729
718.232, 1304.332
719.527, 1747.336
720.823, 1706.307
722.118, 1580.820
723.413, 1653.691
724.708, 1567.918
726.002, 1439.762
727.297, 1982.059
728.591, 1353.990
729.885, 1896.217
731.179, 1994.107
732.472, 1835.383
733.766, 1964.295
735.059, 2116.428
736.352, 2047.188
737.645, 2429.336
738.937, 2557.941
740.230, 2765.467
741.522, 2659.920
742.814, 2691.295
744.106, 3012.594
745.397, 3264.414
746.689, 2960.564
747.980, 2762.500
749.271, 3116.723
750.562, 2704.049
751.853, 3334.811
753.143, 2788.938
754.433, 3226.363
755.723, 2861.541
757.013, 3091.375
758.303, 3435.324
759.592, 3117.387
760.881, 3472.121
762.170, 3151.061
763.459, 3727.984
764.748, 3552.162
766.036, 3400.041
767.325, 4069.420
768.613, 3497.441
769.901, 3894.016
771.188, 3642.861
772.476, 3605.959
773.763, 3952.855
775.050, 3559.990
776.337, 3816.504
777.624, 3749.990
778.910, 3533.500
780.196, 3602.600
781.482, 3569.176
782.768, 3309.088
784.054, 3233.656
785.339, 3489.977
786.625, 3548.143
787.910, 3666.262
789.195, 3810.877
790.479, 3947.820
791.764, 4016.135
793.048, 4166.385
794.332, 3965.898
795.616, 4344.133
796.900, 3855.541
798.183, 4077.711
799.467, 3562.402
800.750, 3590.793
802.033, 3204.029
803.316, 2695.809
804.598, 2804.289
805.880, 2059.566
807.163, 2419.729
808.445, 1965.426
809.726, 1681.018
811.008, 1597.309
812.289, 1289.527
813.570, 1083.633
814.851, 1117.186
816.132, 847.402
817.413, 610.232
818.693, 439.465
819.973, 553.182
821.253, 477.109
822.533, 268.387
823.813, 427.879
825.092, 51.057
826.371, 238.945
827.650, 27.344
828.929, 52.076
830.208, 73.736
831.486, 20.838
832.764, 50.771
834.042, 48.844
835.320, 93.756
836.598, 59.611
837.875, 162.404
839.152, 37.143
840.429, 67.186
841.706, 224.375
842.983, 268.117
844.259, 31.828
845.536, 34.365
846.812, 202.502
848.088, 209.553
849.363, 180.789
850.639, 270.121
851.914, 251.523
853.189, 212.637
854.464, 241.645
855.739, 48.850
857.013, 56.852
858.288, 42.506
859.562, 288.949
860.836, 111.611
862.110, 59.605
863.383, 343.232
864.656, 158.688
865.930, 146.438
867.203, 83.299
868.475, 179.986
869.748, 87.371
871.020, 41.828
872.292, 33.639
873.564, 18.059
874.836, 104.428
876.108, 19.246
877.379, 118.980
878.650, 195.176
879.922, 325.291
881.192, 127.375
882.463, 273.416
883.733, 91.424
885.004, 215.391
886.274, 321.322
887.544, 203.225
888.813, 495.092
890.083, 153.928
891.352, 311.730
892.621, 422.502
893.890, 355.246
895.159, 590.963
896.427, 465.650
897.695, 539.309
898.964, 794.945
900.232, 751.553
901.499, 642.135
902.767, 945.703
904.034, 1079.250
905.301, 868.779
906.568, 1289.293
907.835, 1611.844
909.102, 1598.377
910.368, 1338.891
911.634, 1558.443
912.900, 1883.029
914.166, 1662.602
915.432, 2156.164
916.697, 1925.717
917.962, 1690.279
919.227, 2240.842
920.492, 2063.422
921.757, 2105.057
923.021, 2016.750
924.285, 2312.453
925.550, 2141.152
926.813, 2223.848
928.077, 2191.553
929.341, 2128.273
930.604, 2147.053
931.867, 2254.826
933.130, 2096.605
934.393, 2262.375
935.655, 2604.193
936.918, 1925.002
938.180, 2613.838
939.442, 2053.672
940.703, 2277.492
941.965, 2552.318
943.226, 2417.139
944.488, 2290.959
945.749, 2362.771
947.009, 2405.408
948.270, 2646.426
949.530, 2686.242
950.791, 2776.059
952.051, 2912.871
953.311, 2790.684
954.570, 2838.494
955.830, 3389.301
957.089, 3084.105
958.348, 3424.914
959.607, 3358.725
960.866, 3680.529
962.124, 3686.344
963.383, 3716.246
964.641, 4354.207
965.899, 4094.182
967.156, 4339.582
968.414, 4274.248
969.671, 4502.291
970.928, 4606.234
972.185, 4756.281
973.442, 5298.332
974.699, 5147.600
975.955, 5481.551
977.211, 5506.807
978.468, 5273.994
979.723, 5697.840
980.979, 5734.191
982.234, 5438.729
983.490, 5983.562
984.745, 4966.066
986.000, 5613.574
987.254, 5435.289
988.509, 5083.879
989.763, 5385.914
991.017, 5141.441
992.271, 4856.391
993.525, 4742.734
994.779, 4836.223
996.032, 4932.617
997.285, 4649.332
998.538, 4850.234
999.791, 4027.766
1001.044, 4730.211
1002.296, 4179.133
1003.548, 4311.305
1004.800, 4341.020
1006.052, 4253.016
1007.304, 4328.219
1008.555, 3969.297
1009.807, 3980.129
1011.058, 3965.652
1012.309, 3976.418
1013.559, 4069.762
1014.810, 3773.328
1016.060, 3564.180
1017.310, 3967.402
1018.560, 3953.070
1019.810, 3535.199
1021.060, 3794.547
1022.309, 3921.742
1023.558, 3516.477
1024.807, 4103.199
1026.056, 3565.320
1027.305, 3753.035
1028.553, 3634.336
1029.801, 3897.973
1031.049, 3866.141
1032.297, 3662.625
1033.545, 3651.789
1034.793, 3646.699
1036.040, 3732.230
1037.287, 3650.648
1038.534, 3779.836
1039.781, 3649.352
1041.027, 4134.410
1042.274, 3455.035
1043.520, 3768.695
1044.766, 3968.379
1046.012, 3586.109
1047.257, 3624.859
1048.503, 3470.648
1049.748, 3920.457
1050.993, 3390.289
1052.238, 3976.703
1053.483, 3869.586
1054.727, 3616.789
1055.971, 3653.707
1057.216, 4062.477
1058.459, 3791.430
1059.703, 3982.414
1060.947, 3619.414
1062.190, 3765.012
1063.433, 3801.238
1064.676, 3715.297
1065.919, 3643.375
1067.162, 3261.477
1068.404, 4044.312
1069.646, 3393.453
1070.888, 3555.031
1072.130, 3901.660
1073.372, 3573.863
1074.613, 3471.453
1075.855, 3651.617
1077.096, 3283.926
1078.337, 3431.375
1079.578, 3865.746
1080.818, 3485.250
1082.059, 3704.578
1083.299, 3214.926
1084.539, 3490.617
1085.779, 3258.461
1087.018, 3280.336
1088.258, 3015.746
1089.497, 3084.172
1090.736, 3052.211
1091.975, 3048.070
1093.213, 2928.711
1094.452, 2691.195
1095.690, 2737.578
1096.928, 2481.473
1098.166, 2739.000
1099.404, 2566.152
1100.642, 2617.711
1101.879, 2287.477
1103.116, 2527.496
1104.353, 2481.086
1105.590, 2468.598
1106.827, 2070.062
1108.063, 2490.539
1109.299, 1940.543
1110.536, 2371.898
1111.771, 2270.742
1113.007, 1580.398
1114.243, 2093.023
1115.478, 2046.664
1116.713, 1842.348
1117.948, 1813.746
1119.183, 1841.367
1120.418, 1786.188
1121.652, 1831.938
1122.886, 1840.867
1124.120, 1720.438
1125.354, 1763.121
1126.588, 1317.383
1127.821, 1107.863
1129.055, 1012.793
1130.288, 1530.805
1131.521, 1221.863
1132.753, 1211.812
1133.986, 818.137
1135.218, 919.668
1136.450, 1345.605
1137.682, 611.355
1138.914, 1078.457
1140.146, 569.035
1141.377, 941.410
1142.609, 804.707
1143.840, 795.074
1145.071, 908.398
1146.301, 719.137
1147.532, 845.148
1148.762, 781.184
1149.992, 627.965
1151.222, 536.074
1152.452, 780.379
1153.682, 967.488
1154.911, 364.504
1156.140, 822.180
1157.369, 523.109
1158.598, 654.523
1159.827, 483.117
1161.055, 730.992
1162.284, 489.250
1163.512, 676.309
1164.740, 685.426
1165.967, 684.375
1167.195, 691.551
1168.422, 812.570
1169.650, 650.816
1170.877, 445.707
1172.103, 512.422
1173.330, 414.957
1174.557, 401.703
1175.783, 744.516
1177.009, 643.109
1178.235, 72.172
1179.461, 652.227
1180.686, 232.004
1181.912, 404.715
1183.137, 494.090
1184.362, 515.121
1185.587, 409.301
1186.811, 536.309
1188.036, 514.203
1189.260, 498.707
1190.484, 480.215
1191.708, 472.266
1192.932, 510.930
1194.155, 179.340
1195.378, 319.945
1196.602, 348.262
1197.825, 582.195
1199.047, 38.027
1200.270, 712.371
1201.492, 108.465
1202.715, 878.543
1203.937, 250.383
1205.159, 523.637
1206.380, 413.477
1207.602, 310.512
1208.823, 66.508
1210.044, 165.484
1211.265, 290.461
1212.486, 264.512
1213.707, 313.469
1214.927, 56.383
1216.147, 344.098
1217.367, 135.984
1218.587, 132.488
1219.807, 296.609
1221.027, 159.457
1222.246, 31.285
1223.465, 7.098
1224.684, 218.883
1225.903, 245.660
1227.121, 223.551
1228.340, 302.555
1229.558, 319.539
1230.776, 202.953
1231.994, 173.332
1233.212, 117.059
1234.429, 363.906
1235.646, 379.199
1236.864, 14.570
1238.081, 210.566
1239.297, 30.773
1240.514, 424.828
1241.730, 407.844
1242.947, 259.773
1244.163, 375.113
1245.378, 184.805
1246.594, 382.512
1247.810, 291.121
1249.025, 237.414
1250.240, 349.109
1251.455, 133.391
1252.670, 151.582
1253.885, 154.641
1255.099, 274.066
1256.313, 3.812
1257.527, 312.512
1258.741, 180.230
1259.955, 146.332
1261.168, 176.457
1262.382, 141.645
1263.595, 19.398
1264.808, 164.395
1266.021, 116.859
1267.233, 143.211
1268.446, 100.684
1269.658, 189.871
1270.870, 174.184
1272.082, 284.559
1273.294, 237.535
1274.505, 15.441
1275.716, 127.273
1276.928, 120.020
1278.139, 93.309
1279.349, 305.242
1280.560, 65.707
1281.770, 34.086
1282.981, 50.379
1284.191, 131.570
1285.401, 259.684
1286.610, 102.707
1287.820, 71.371
1289.029, 118.434
1290.239, 258.871
1291.448, 263.656
1292.656, 65.078
1293.865, 25.605
1295.073, 301.590
1296.282, 240.691
1297.490, 214.020
1298.698, 95.594
1299.906, 116.395
1301.113, 63.105
1302.320, 131.711
1303.528, 112.773
1304.735, 205.609
1305.942, 180.172
1307.148, 26.109
1308.355, 361.848
1309.561, 132.293
1310.767, 395.434
1311.973, 6.066
1313.179, 96.598
1314.384, 305.734
1315.590, 409.512
1316.795, 94.676
1318.000, 108.746
1319.205, 93.730
1320.410, 186.621
1321.614, 235.441
1322.819, 90.828
1324.023, 157.789
1325.227, 21.668
1326.431, 428.984
1327.634, 265.355
1328.838, 311.336
1330.041, 90.191
1331.244, 336.035
1332.447, 358.035
1333.650, 158.020
1334.852, 39.672
1336.055, 145.445
1337.257, 37.203
1338.459, 214.391
1339.661, 64.809
1340.862, 462.609
1342.064, 320.773
1343.265, 346.129
1344.466, 218.504
1345.667, 542.949
1346.868, 951.715
1348.068, 653.742
1349.269, 754.820
1350.469, 328.473
1351.669, 521.637
1352.869, 547.250
1354.069, 684.000
1355.268, 576.574
1356.468, 286.141
1357.667, 877.484
1358.866, 794.105
1360.065, 358.598
1361.263, 917.660
1362.462, 406.598
1363.660, 499.516
1364.858, 907.941
1366.056, 623.789
1367.254, 580.258
1368.451, 699.000
1369.649, 949.316
1370.846, 498.820
1372.043, 805.199
1373.240, 656.094
1374.436, 560.484
1375.633, 703.352
1376.829, 490.207
1378.025, 393.754
1379.221, 548.277
1380.417, 687.246
1381.613, 574.957
1382.808, 526.621
1384.003, 636.016
1385.199, 590.613
1386.393, 784.801
1387.588, 392.621
1388.783, 641.672
1389.977, 515.234
1391.171, 660.738
1392.365, 546.359
1393.559, 665.312
1394.753, 626.227
1395.946, 618.195
1397.140, 503.656
1398.333, 362.035
1399.526, 589.168
1400.719, 481.355
1401.911, 666.367
1403.104, 722.770
1404.296, 462.215
1405.488, 481.270
1406.680, 425.988
1407.872, 275.582
1409.063, 445.637
1410.255, 688.262
1411.446, 253.480
1412.637, 677.668
1413.828, 29.602
1415.018, 618.762
1416.209, 314.680
1417.399, 587.254
1418.589, 309.207
1419.779, 794.191
1420.969, 286.141
1422.159, 450.719
1423.348, 402.445
1424.537, 576.703
1425.726, 493.348
1426.915, 405.996
1428.104, 343.570
1429.293, 513.781
1430.481, 436.879
1431.669, 343.785
1432.857, 584.129
1434.045, 564.223
1435.233, 224.590
1436.420, 823.449
1437.608, 888.871
1438.795, 500.520
1439.982, 742.418
1441.169, 689.277
1442.355, 473.859
1443.542, 514.781
1444.728, 758.477
1445.914, 554.297
1447.100, 533.254
1448.286, 355.992
1449.472, 690.832
1450.657, 136.426
1451.842, 852.855
1453.027, 490.191
1454.212, 335.453
1455.397, 1156.684
1456.581, 61.945
1457.766, 647.352
1458.950, 785.977
1460.134, 150.918
1461.318, 839.176
1462.501, 291.820
1463.685, 131.727
1464.868, 714.801
1466.051, 150.363
1467.234, 855.258
1468.417, 49.688
1469.600, 449.098
1470.782, 649.719
1471.965, 600.234
1473.147, 66.809
1474.329, 752.648
1475.510, 430.234
1476.692, 8.383
1477.873, 284.551
1479.055, 270.938
1480.236, 56.816
1481.416, 0.000
##END=



