##NAMES=Anorthite
##RRUFFID=R060082
##IDEAL CHEMISTRY=CaAl_2_Si_2_O_8_
##LOCALITY=Pinacate Mountains, Sonora, Mexico
##OWNER=RRUFF
##SOURCE=University of Arizona Mineral Museum
##DESCRIPTION=Colorless crystal fragment
##STATUS=The identification of this mineral has been confirmed by X-ray diffraction and chemical analysis
##URL=rruff.info/R060082
##MEASURED CHEMISTRY=(Na_0.40_K_0.02_Ca_0.58_)Al_1.58_Si_2.42_O_8_
137.6187, 0.0000000E+00
138.1008, 0.4559480
138.5829, 0.4716950
139.0650, 0.1998900
139.5472, 8.9752004E-02
140.0293, 6.2652998E-02
140.5114, 0.1696010
140.9935, 0.3247380
141.4756, 0.2053070
141.9577, 0.2005000
142.4399, 0.8724210
142.9220, 1.774460
143.4041, 2.953262
143.8862, 4.257889
144.3683, 5.622772
144.8504, 7.058334
145.3326, 8.474792
145.8147, 9.771393
146.2968, 10.98404
146.7789, 12.42178
147.2610, 14.28699
147.7431, 16.21449
148.2253, 17.92223
148.7074, 19.22063
149.1895, 20.56149
149.6716, 22.06456
150.1537, 23.78244
150.6358, 25.21577
151.1180, 26.16368
151.6001, 26.90254
152.0822, 27.70270
152.5643, 28.38759
153.0464, 29.28673
153.5285, 30.53317
154.0107, 32.23346
154.4928, 33.77049
154.9749, 35.08244
155.4570, 36.22847
155.9391, 37.28906
156.4212, 38.02945
156.9034, 38.91219
157.3855, 40.11133
157.8676, 41.69730
158.3497, 43.39958
158.8318, 45.16174
159.3139, 47.02640
159.7961, 49.08084
160.2782, 51.37228
160.7603, 53.86250
161.2424, 56.57999
161.7245, 59.65355
162.2066, 62.64760
162.6888, 65.27304
163.1709, 67.69987
163.6530, 70.31155
164.1351, 73.23413
164.6172, 76.39301
165.0993, 79.76108
165.5815, 83.43637
166.0636, 87.12723
166.5457, 90.65512
167.0278, 94.08273
167.5099, 97.62355
167.9921, 101.5479
168.4742, 105.5504
168.9563, 109.3463
169.4384, 112.7584
169.9205, 116.1087
170.4026, 119.6500
170.8848, 123.3489
171.3669, 126.9915
171.8490, 130.5294
172.3311, 133.9246
172.8132, 137.1152
173.2953, 139.9698
173.7775, 142.7622
174.2596, 145.9566
174.7417, 149.4729
175.2238, 152.6007
175.7059, 154.6363
176.1880, 155.9562
176.6702, 157.1384
177.1523, 158.3853
177.6344, 159.5780
178.1165, 160.6788
178.5986, 161.6818
179.0807, 162.3086
179.5629, 162.2339
180.0450, 161.6048
180.5271, 160.7764
181.0092, 159.8703
181.4913, 158.9283
181.9734, 157.9988
182.4556, 156.9609
182.9377, 155.5677
183.4198, 153.3266
183.9019, 150.4480
184.3840, 147.6820
184.8661, 145.1543
185.3483, 142.7585
185.8304, 140.2957
186.3125, 137.7877
186.7946, 135.2132
187.2767, 132.0392
187.7588, 128.4189
188.2409, 125.1600
188.7231, 122.7772
189.2052, 121.0025
189.6873, 118.7457
190.1694, 115.9133
190.6515, 112.9777
191.1336, 110.3650
191.6158, 108.0898
192.0979, 106.3537
192.5800, 105.4177
193.0621, 105.1688
193.5442, 104.9665
194.0263, 104.9263
194.5085, 104.5648
194.9906, 102.9851
195.4727, 100.1140
195.9548, 97.20663
196.4369, 94.76094
196.9190, 92.75856
197.4012, 90.98065
197.8833, 89.49228
198.3654, 88.07104
198.8475, 86.38638
199.3296, 84.40807
199.8117, 82.43063
200.2939, 80.54755
200.7760, 78.76425
201.2581, 77.20177
201.7402, 75.99805
202.2223, 74.81601
202.7044, 72.95673
203.1866, 70.31950
203.6687, 67.68495
204.1508, 65.41534
204.6329, 63.54083
205.1150, 61.74197
205.5971, 60.06934
206.0793, 58.40967
206.5614, 56.47740
207.0435, 54.20348
207.5256, 52.00755
208.0077, 50.09663
208.4898, 48.50684
208.9720, 46.98729
209.4541, 45.58936
209.9362, 44.20450
210.4183, 42.54439
210.9004, 40.49495
211.3825, 38.52594
211.8647, 36.92073
212.3468, 35.83745
212.8289, 34.32050
213.3110, 32.14154
213.7931, 29.66693
214.2752, 27.86414
214.7574, 27.03699
215.2395, 26.10876
215.7216, 24.46756
216.2037, 21.81595
216.6858, 19.65720
217.1679, 18.15630
217.6501, 17.05899
218.1322, 15.78329
218.6143, 14.22179
219.0964, 12.67926
219.5785, 11.34761
220.0606, 10.30693
220.5428, 9.154587
221.0249, 7.837692
221.5070, 6.437546
221.9891, 5.181442
222.4712, 4.075012
222.9533, 3.072784
223.4355, 2.194824
223.9176, 1.479202
224.3997, 0.7172390
224.8818, 0.1872560
225.3639, 1.099518
225.8460, 1.711105
226.3282, 1.894440
226.8103, 1.986420
227.2924, 2.118393
227.7745, 2.311707
228.2566, 2.491928
228.7387, 2.636932
229.2209, 2.776306
229.7030, 2.992218
230.1851, 3.383041
230.6672, 3.691895
231.1493, 3.810257
231.6314, 3.693665
232.1136, 3.501785
232.5957, 3.239487
233.0778, 2.898163
233.5599, 2.434387
234.0420, 1.702805
234.5241, 1.086792
235.0063, 0.8012540
235.4884, 1.078949
235.9705, 1.010590
236.4526, 0.4595030
236.9347, 0.3744050
237.4168, 1.063507
237.8990, 1.442261
238.3811, 1.933670
238.8632, 2.728592
239.3453, 3.979446
239.8274, 5.060471
240.3095, 5.877090
240.7917, 6.578903
241.2738, 7.472000
241.7559, 8.723038
242.2380, 9.888809
242.7201, 10.73189
243.2022, 11.03191
243.6844, 11.81691
244.1665, 13.37242
244.6486, 15.25455
245.1307, 16.68338
245.6128, 17.46239
246.0949, 18.11440
246.5771, 18.71989
247.0592, 19.14211
247.5413, 20.10043
248.0234, 21.82892
248.5055, 23.92657
248.9876, 25.74373
249.4697, 27.18884
249.9519, 28.52826
250.4340, 29.73874
250.9161, 30.69170
251.3982, 32.26018
251.8803, 34.78845
252.3624, 37.64551
252.8446, 39.90401
253.3267, 41.36911
253.8088, 42.66399
254.2909, 43.98906
254.7730, 45.39702
255.2551, 46.40262
255.7373, 46.73442
256.2194, 46.93941
256.7015, 47.69615
257.1836, 49.21182
257.6657, 50.81877
258.1479, 52.36285
258.6300, 53.82005
259.1121, 55.35789
259.5942, 57.04558
260.0763, 58.72577
260.5584, 60.27467
261.0406, 61.64644
261.5227, 62.95770
262.0048, 64.21513
262.4869, 65.41144
262.9690, 66.66772
263.4511, 67.97603
263.9333, 69.35187
264.4154, 70.81281
264.8975, 72.39603
265.3796, 74.03078
265.8617, 75.81709
266.3438, 77.69489
266.8260, 79.06842
267.3081, 79.70724
267.7902, 80.26361
268.2723, 81.35281
268.7544, 83.20242
269.2365, 84.74255
269.7187, 85.68008
270.2008, 86.17715
270.6829, 87.12611
271.1650, 88.64670
271.6471, 90.31303
272.1292, 91.79092
272.6114, 93.06281
273.0935, 94.24402
273.5756, 95.33055
274.0577, 96.32426
274.5398, 97.28296
275.0219, 98.22556
275.5041, 99.02594
275.9862, 99.50233
276.4683, 99.58325
276.9504, 99.99109
277.4325, 100.9601
277.9146, 102.1429
278.3968, 102.5536
278.8788, 102.0482
279.3610, 101.5202
279.8431, 101.5919
280.3252, 102.2993
280.8073, 102.7487
281.2894, 102.9009
281.7715, 102.7789
282.2537, 102.3113
282.7358, 101.4430
283.2179, 100.6131
283.7000, 100.2559
284.1821, 100.3463
284.6642, 99.80370
285.1464, 98.50677
285.6285, 96.78018
286.1106, 95.04543
286.5927, 93.29968
287.0748, 91.59563
287.5569, 90.01462
288.0391, 88.49452
288.5212, 86.77313
289.0033, 84.84592
289.4854, 82.77048
289.9675, 80.40140
290.4496, 77.79329
290.9318, 75.68282
291.4139, 74.85938
291.8960, 74.70752
292.3781, 72.92090
292.8602, 69.34964
293.3423, 65.31177
293.8245, 62.02167
294.3066, 59.42453
294.7887, 57.16443
295.2708, 55.30957
295.7529, 53.58113
296.2350, 51.27371
296.7172, 48.40430
297.1993, 45.65750
297.6814, 43.66267
298.1635, 42.21982
298.6456, 40.81578
299.1277, 39.35492
299.6099, 37.82458
300.0920, 36.17184
300.5741, 34.40900
301.0562, 32.77275
301.5383, 31.43224
302.0204, 30.30919
302.5026, 29.32922
302.9847, 28.55049
303.4668, 27.71359
303.9489, 26.34680
304.4310, 24.62430
304.9131, 23.08212
305.3953, 22.24736
305.8774, 21.68663
306.3595, 20.78264
306.8416, 19.37918
307.3237, 17.96783
307.8058, 17.06725
308.2880, 16.50824
308.7701, 15.91196
309.2522, 14.95450
309.7343, 13.94653
310.2164, 13.18935
310.6985, 12.69795
311.1807, 12.28862
311.6628, 12.01483
312.1449, 11.73946
312.6270, 11.25195
313.1091, 10.19496
313.5912, 9.092056
314.0734, 8.255936
314.5555, 7.711044
315.0376, 7.294800
315.5197, 6.926956
316.0018, 6.625183
316.4839, 6.415283
316.9661, 6.455887
317.4482, 6.466248
317.9303, 6.311279
318.4124, 6.008591
318.8945, 5.680038
319.3766, 5.224335
319.8588, 4.840576
320.3409, 4.697678
320.8230, 5.194839
321.3051, 5.452026
321.7872, 4.972656
322.2693, 4.024994
322.7515, 3.433792
323.2336, 3.811432
323.7157, 4.281403
324.1978, 4.397049
324.6799, 3.865433
325.1620, 3.455124
325.6442, 3.386429
326.1263, 3.489212
326.6084, 3.461090
327.0905, 2.983276
327.5726, 2.636002
328.0547, 2.629852
328.5369, 3.094345
329.0190, 3.503876
329.5011, 3.950592
329.9832, 4.298004
330.4653, 4.379501
330.9474, 3.886215
331.4296, 3.514252
331.9117, 3.425705
332.3938, 3.637772
332.8759, 3.822800
333.3580, 4.030914
333.8401, 4.170074
334.3223, 4.144318
334.8044, 3.817932
335.2865, 3.598480
335.7686, 3.545395
336.2507, 3.639160
336.7328, 3.791656
337.2150, 4.032898
337.6971, 4.272095
338.1792, 4.477249
338.6613, 4.671951
339.1434, 4.704514
339.6255, 4.521469
340.1077, 4.203674
340.5898, 3.892578
341.0719, 3.562714
341.5540, 3.368362
342.0361, 3.477142
342.5182, 3.911911
343.0004, 4.069153
343.4825, 3.903931
343.9646, 3.574585
344.4467, 3.278305
344.9288, 3.020691
345.4109, 2.794296
345.8931, 2.607895
346.3752, 2.453705
346.8573, 2.288559
347.3394, 2.104019
347.8215, 1.964218
348.3036, 2.026779
348.7858, 2.221252
349.2679, 2.172256
349.7500, 1.625610
350.2321, 0.9460910
350.7142, 0.9200130
351.1964, 1.482269
351.6785, 2.015015
352.1606, 2.044205
352.6427, 1.725830
353.1248, 1.341919
353.6069, 0.9080960
354.0891, 0.4964290
354.5712, 0.1534730
355.0533, 0.1070560
355.5354, 0.2521360
356.0175, 8.8669002E-02
356.4996, 0.1160740
356.9818, 2.9785000E-02
357.4639, 0.4038240
357.9460, 0.8353880
358.4281, 1.014023
358.9102, 1.036331
359.3923, 1.039948
359.8745, 1.126938
360.3566, 1.177658
360.8387, 1.051819
361.3208, 0.7705990
361.8029, 0.6120150
362.2850, 0.9298860
362.7672, 1.310196
363.2493, 1.401703
363.7314, 0.8284910
364.2135, 0.3033290
364.6956, 5.4076999E-02
365.1777, 2.7358999E-02
365.6599, 6.5659001E-02
366.1420, 0.1697240
366.6241, 0.2986760
367.1062, 0.4552000
367.5883, 0.7544400
368.0704, 0.8071750
368.5526, 0.3493040
369.0347, 0.3069460
369.5168, 0.7124330
369.9989, 0.5687410
370.4810, 0.4915310
370.9631, 0.6472320
371.4453, 1.072342
371.9274, 1.306030
372.4095, 1.135468
372.8916, 0.9225770
373.3737, 1.032043
373.8558, 1.709961
374.3380, 2.330414
374.8201, 2.761795
375.3022, 2.999374
375.7843, 3.239838
376.2664, 3.541519
376.7485, 3.795380
377.2307, 3.930084
377.7128, 3.939713
378.1949, 3.812592
378.6770, 3.473038
379.1591, 3.103714
379.6412, 3.090530
380.1234, 3.470016
380.6055, 3.915771
381.0876, 4.346558
381.5697, 4.745255
382.0518, 4.941620
382.5339, 4.893280
383.0161, 4.859497
383.4982, 5.141846
383.9803, 5.700027
384.4624, 6.308136
384.9445, 6.923325
385.4266, 7.518753
385.9088, 8.080292
386.3909, 8.602478
386.8730, 9.041672
387.3551, 9.337372
387.8372, 9.537354
388.3193, 9.700226
388.8015, 9.793686
389.2836, 9.970123
389.7657, 10.48058
390.2478, 11.19649
390.7299, 11.79947
391.2120, 11.89452
391.6942, 11.97343
392.1763, 12.54637
392.6584, 13.67056
393.1405, 14.65816
393.6226, 15.04648
394.1047, 15.14644
394.5869, 15.28180
395.0690, 15.66125
395.5511, 15.98946
396.0332, 16.12892
396.5153, 16.11198
396.9974, 16.11389
397.4796, 16.11224
397.9617, 16.18842
398.4438, 16.39151
398.9259, 16.77974
399.4080, 17.20103
399.8901, 17.70122
400.3723, 18.22357
400.8544, 18.65105
401.3365, 18.92342
401.8186, 19.17836
402.3007, 19.49153
402.7828, 19.89600
403.2649, 20.01836
403.7470, 19.53972
404.2292, 19.12187
404.7113, 19.48520
405.1934, 21.07295
405.6755, 22.11894
406.1576, 22.23306
406.6397, 21.67209
407.1219, 21.35857
407.6040, 21.36501
408.0861, 21.28627
408.5682, 20.82568
409.0503, 20.00578
409.5324, 19.41684
410.0146, 19.15610
410.4967, 18.87794
410.9788, 17.98531
411.4609, 16.54675
411.9430, 15.17719
412.4251, 14.06631
412.9073, 13.20753
413.3894, 12.64986
413.8715, 12.40639
414.3536, 12.18352
414.8357, 11.75980
415.3178, 11.14040
415.8000, 10.34938
416.2821, 9.321899
416.7642, 8.314178
417.2463, 7.653183
417.7284, 7.205521
418.2105, 6.641510
418.6927, 5.511276
419.1748, 4.413834
419.6569, 3.928650
420.1390, 4.170166
420.6211, 4.141785
421.1032, 3.068436
421.5854, 1.675751
422.0675, 0.7015990
422.5496, 0.6503910
423.0317, 0.6699830
423.5138, 0.5401310
423.9959, 0.2698670
424.4781, 2.5650000E-02
424.9602, 0.4266660
425.4423, 0.7882690
425.9244, 1.004410
426.4065, 0.8813320
426.8886, 0.8894960
427.3708, 1.196640
427.8529, 1.620972
428.3350, 1.846100
428.8171, 1.821350
429.2992, 1.643127
429.7813, 1.219116
430.2635, 0.5836940
430.7456, 0.5853880
431.2277, 1.484482
431.7098, 2.407669
432.1919, 2.564041
432.6740, 1.882736
433.1562, 1.415497
433.6383, 1.340790
434.1204, 1.467850
434.6025, 1.426727
435.0846, 1.220779
435.5667, 0.9592900
436.0489, 0.6362760
436.5310, 0.2977600
437.0131, 0.1045230
437.4952, 6.1066002E-02
437.9773, 6.3354000E-02
438.4594, 5.9372000E-02
438.9416, 2.3788000E-02
439.4237, 9.3673997E-02
439.9058, 0.3010560
440.3879, 0.6126100
440.8700, 1.167709
441.3521, 1.877121
441.8343, 2.421448
442.3164, 2.526352
442.7985, 2.462891
443.2806, 2.395386
443.7627, 2.310333
444.2448, 2.380630
444.7270, 2.838989
445.2091, 3.431595
445.6912, 3.855072
446.1733, 3.804413
446.6554, 3.809738
447.1375, 3.995758
447.6197, 4.357101
448.1018, 4.812866
448.5839, 5.645935
449.0660, 6.323639
449.5481, 6.536270
450.0302, 5.818069
450.5124, 5.638519
450.9945, 6.256454
451.4766, 7.241653
451.9587, 7.858246
452.4408, 7.936615
452.9229, 8.135117
453.4051, 8.638123
453.8872, 9.425308
454.3693, 10.41183
454.8514, 11.63985
455.3335, 12.90582
455.8156, 14.07333
456.2978, 15.14221
456.7799, 16.15387
457.2620, 17.10370
457.7441, 18.03960
458.2262, 18.99640
458.7083, 19.98972
459.1905, 21.15292
459.6726, 22.49005
460.1547, 24.04793
460.6368, 26.01654
461.1189, 28.39304
461.6010, 30.67918
462.0832, 32.34663
462.5653, 33.80780
463.0474, 35.50407
463.5295, 37.63191
464.0116, 39.91991
464.4937, 42.43561
464.9759, 45.00757
465.4580, 47.19656
465.9401, 48.17610
466.4222, 49.36908
466.9043, 51.51173
467.3864, 54.81688
467.8686, 57.79993
468.3507, 59.86560
468.8328, 61.82555
469.3149, 64.26617
469.7970, 67.45941
470.2791, 70.67682
470.7613, 73.89050
471.2434, 77.07019
471.7255, 80.08562
472.2076, 82.80215
472.6897, 85.69615
473.1718, 89.15085
473.6540, 93.15076
474.1361, 96.53574
474.6182, 99.18817
475.1003, 101.6583
475.5824, 104.6094
476.0645, 107.9783
476.5467, 110.9982
477.0288, 113.4397
477.5109, 115.6557
477.9930, 118.3002
478.4751, 121.2679
478.9572, 124.0507
479.4394, 126.4621
479.9215, 128.4837
480.4036, 129.9873
480.8857, 130.9684
481.3678, 131.7455
481.8499, 132.5476
482.3321, 133.2458
482.8142, 133.6905
483.2963, 133.8359
483.7784, 133.7393
484.2605, 133.3442
484.7426, 132.7249
485.2248, 132.0671
485.7069, 131.3347
486.1890, 130.6560
486.6711, 130.0951
487.1532, 129.6820
487.6353, 129.3236
488.1175, 128.9545
488.5996, 128.6955
489.0817, 128.6378
489.5638, 128.8327
490.0459, 129.0699
490.5280, 129.1759
491.0102, 129.4499
491.4923, 130.7774
491.9744, 133.3171
492.4565, 136.1171
492.9386, 138.7823
493.4207, 141.3888
493.9029, 144.3343
494.3850, 147.6475
494.8671, 151.2389
495.3492, 154.9793
495.8313, 158.9641
496.3134, 163.5509
496.7956, 168.9023
497.2777, 174.6559
497.7598, 180.3618
498.2419, 186.1283
498.7240, 192.0542
499.2061, 198.1974
499.6883, 204.6069
500.1704, 211.4654
500.6525, 218.7641
501.1346, 225.9289
501.6167, 232.7514
502.0988, 239.4142
502.5810, 246.0806
503.0631, 253.3519
503.5452, 259.8786
504.0273, 265.3310
504.5094, 269.9371
504.9915, 273.9454
505.4737, 277.4646
505.9558, 280.2093
506.4379, 282.0890
506.9200, 283.1039
507.4021, 283.3633
507.8842, 282.9680
508.3664, 281.5553
508.8485, 278.6839
509.3306, 274.3291
509.8127, 269.6994
510.2948, 264.9573
510.7769, 259.7634
511.2591, 253.7375
511.7412, 246.8741
512.2233, 239.3439
512.7054, 231.0207
513.1875, 222.1485
513.6696, 212.9151
514.1517, 203.3850
514.6339, 193.9001
515.1160, 184.5182
515.5981, 175.3972
516.0802, 166.5401
516.5623, 157.9285
517.0444, 149.7278
517.5266, 142.3028
518.0087, 135.2146
518.4908, 127.9843
518.9729, 120.0077
519.4550, 112.4019
519.9371, 105.5723
520.4193, 99.34650
520.9014, 93.20270
521.3835, 86.97986
521.8656, 80.98837
522.3477, 75.28702
522.8298, 69.84055
523.3120, 64.98068
523.7941, 60.92160
524.2762, 57.20624
524.7583, 53.41032
525.2404, 49.50525
525.7225, 45.93008
526.2047, 42.78003
526.6868, 39.87138
527.1689, 36.82756
527.6510, 33.70364
528.1331, 30.78461
528.6152, 28.18628
529.0974, 25.86299
529.5795, 23.77641
530.0616, 21.90027
530.5437, 20.06030
531.0258, 18.12987
531.5079, 16.19339
531.9901, 14.20296
532.4722, 11.98080
532.9543, 10.13904
533.4364, 9.168488
533.9185, 8.645447
534.4006, 7.975372
534.8828, 6.879547
535.3649, 5.821640
535.8470, 4.783691
536.3291, 3.798660
536.8112, 3.236969
537.2933, 3.377686
537.7755, 3.538162
538.2576, 3.355560
538.7397, 2.738556
539.2218, 2.456940
539.7039, 2.547333
540.1860, 2.817032
540.6682, 3.104630
541.1503, 3.404114
541.6324, 3.638931
542.1145, 3.765991
542.5966, 3.896393
543.0787, 4.145111
543.5609, 4.533676
544.0430, 5.118759
544.5251, 6.199951
545.0072, 7.348160
545.4893, 8.020447
545.9714, 8.243866
546.4536, 8.580963
546.9357, 9.329819
547.4178, 10.28137
547.8999, 11.30219
548.3820, 12.41391
548.8641, 13.49986
549.3463, 14.47052
549.8284, 15.42087
550.3105, 16.47897
550.7926, 17.69688
551.2747, 18.96271
551.7568, 20.32494
552.2390, 21.72569
552.7211, 22.94699
553.2032, 23.94768
553.6853, 24.86987
554.1674, 25.71861
554.6495, 26.51805
555.1317, 27.63170
555.6138, 29.08766
556.0959, 30.58884
556.5780, 31.86479
557.0601, 32.96175
557.5422, 34.01311
558.0244, 35.06140
558.5065, 36.01785
558.9886, 36.76816
559.4707, 37.36444
559.9528, 37.88737
560.4349, 38.35875
560.9171, 38.78377
561.3992, 39.21616
561.8813, 39.62271
562.3634, 39.80536
562.8455, 39.70842
563.3276, 39.37982
563.8098, 38.77003
564.2919, 37.73610
564.7740, 36.93405
565.2561, 36.55467
565.7382, 36.22574
566.2203, 35.59731
566.7025, 34.63651
567.1846, 33.47226
567.6667, 32.09654
568.1488, 30.52130
568.6309, 28.72969
569.1130, 26.72685
569.5952, 24.80470
570.0773, 22.99489
570.5594, 21.38727
571.0415, 20.22263
571.5236, 19.44231
572.0057, 18.54512
572.4879, 16.94888
572.9700, 15.17896
573.4521, 13.79855
573.9342, 12.92456
574.4163, 12.14465
574.8984, 11.22903
575.3806, 10.33116
575.8627, 9.595520
576.3448, 9.369293
576.8269, 8.926865
577.3090, 7.999451
577.7911, 6.824799
578.2733, 5.937958
578.7554, 5.513153
579.2375, 5.056061
579.7196, 4.390762
580.2017, 3.546082
580.6838, 2.843384
581.1660, 2.288864
581.6481, 1.847946
582.1302, 1.480621
582.6123, 1.208267
583.0944, 1.215576
583.5765, 1.555847
584.0587, 1.828873
584.5408, 1.497849
585.0229, 0.8511660
585.5050, 0.3878630
585.9871, 0.3435670
586.4692, 0.3826600
586.9514, 0.3450160
587.4335, 0.2386470
587.9156, 8.2245000E-02
588.3977, 0.2694090
588.8798, 0.5210720
589.3619, 0.5085910
589.8441, 0.2351680
590.3262, 0.1000670
590.8083, 0.1301120
591.2904, 0.2695620
591.7725, 0.5464320
592.2546, 1.028625
592.7368, 1.217178
593.2189, 1.035248
593.7010, 0.7642360
594.1831, 0.7000120
594.6652, 0.8265990
595.1473, 1.058792
595.6295, 1.435944
596.1116, 1.776413
596.5937, 1.829681
597.0758, 1.646240
597.5579, 1.359543
598.0400, 0.9015350
598.5222, 0.4662480
599.0043, 0.2211760
599.4864, 0.1410680
599.9685, 5.6503002E-02
600.4506, 0.2329710
600.9327, 0.4478910
601.4149, 0.4306340
601.8970, 0.1143040
602.3791, 0.2375490
602.8612, 0.7663120
603.3433, 1.185257
603.8254, 1.220871
604.3076, 0.7314300
604.7897, 0.4071500
605.2718, 0.3410190
605.7539, 0.4078520
606.2360, 0.4011380
606.7181, 0.3300020
607.2003, 0.3079680
607.6824, 0.3675840
608.1645, 0.4939730
608.6466, 0.7477260
609.1287, 1.070084
609.6108, 1.229980
610.0930, 0.9934080
610.5751, 0.6098330
611.0572, 0.2595980
611.5393, 3.6529999E-02
612.0214, 0.3109130
612.5035, 0.6681370
612.9857, 0.9301610
613.4678, 0.9678650
613.9499, 0.6022030
614.4320, 0.4241940
614.9141, 0.4901890
615.3962, 0.6883540
615.8784, 0.9471740
616.3605, 1.328323
616.8426, 1.475220
617.3247, 1.275391
617.8068, 0.9166260
618.2889, 0.7544560
618.7711, 0.7754210
619.2532, 0.8732150
619.7353, 1.053360
620.2174, 1.252731
620.6995, 1.319458
621.1816, 1.298462
621.6638, 1.405106
622.1459, 1.990753
622.6280, 2.582184
623.1101, 2.811523
623.5922, 2.622162
624.0743, 2.397827
624.5565, 2.013107
625.0386, 1.787338
625.5207, 1.973541
626.0028, 2.942352
626.4849, 3.505722
626.9670, 3.489105
627.4492, 3.260498
627.9313, 3.332245
628.4134, 3.751007
628.8955, 4.012466
629.3776, 3.964081
629.8597, 3.781708
630.3419, 3.802643
630.8240, 3.986435
631.3061, 4.144165
631.7882, 4.175980
632.2703, 4.142136
632.7524, 4.156326
633.2346, 4.184830
633.7167, 4.051987
634.1988, 3.356873
634.6809, 2.733078
635.1630, 2.634598
635.6451, 3.212265
636.1273, 3.590240
636.6094, 3.535965
637.0915, 3.377487
637.5736, 3.337769
638.0557, 3.525726
638.5378, 3.465088
639.0200, 3.049423
639.5021, 2.562180
639.9842, 2.410461
640.4663, 2.570297
640.9484, 2.696945
641.4305, 2.705917
641.9127, 2.648666
642.3948, 2.557129
642.8769, 2.453552
643.3590, 2.402893
643.8411, 2.433609
644.3232, 2.526047
644.8054, 2.701019
645.2875, 2.934967
645.7696, 3.139343
646.2517, 3.345032
646.7338, 3.433563
647.2159, 3.312744
647.6981, 2.971710
648.1802, 2.794601
648.6623, 2.888763
649.1444, 2.955582
649.6265, 2.735596
650.1086, 2.185547
650.5908, 1.877930
651.0729, 1.897964
651.5550, 2.020630
652.0371, 1.978485
652.5192, 1.804153
653.0013, 1.628677
653.4835, 1.504898
653.9656, 1.303421
654.4477, 0.8233800
654.9298, 0.2373200
655.4119, 0.1881710
655.8940, 0.2997890
656.3762, 0.2756650
656.8583, 0.1185150
657.3404, 0.1115570
657.8225, 0.2364200
658.3046, 0.1103520
658.7867, 9.3627997E-02
659.2689, 0.3381500
659.7510, 0.7821660
660.2331, 0.9626310
660.7152, 0.8389890
661.1973, 0.5744170
661.6794, 0.1215820
662.1616, 0.3496090
662.6437, 0.1612550
663.1258, 0.7048950
663.6079, 1.426025
664.0900, 1.114822
664.5721, 0.3782500
665.0543, 3.2623000E-02
665.5364, 9.9854000E-02
666.0185, 0.2399900
666.5006, 0.2136840
666.9827, 4.4479001E-02
667.4648, 0.2290800
667.9470, 0.7867130
668.4291, 1.128922
668.9112, 1.220016
669.3933, 1.104431
669.8754, 0.8361510
670.3575, 0.3875730
670.8397, 8.4137000E-02
671.3218, 0.5758670
671.8039, 0.9938960
672.2860, 1.135315
672.7681, 1.028580
673.2502, 0.8344570
673.7324, 0.4509430
674.2145, 0.1361390
674.6966, 0.2399900
675.1787, 0.6932220
675.6608, 1.135574
676.1429, 1.462494
676.6251, 1.682678
677.1072, 1.716888
677.5893, 1.488800
678.0714, 1.627228
678.5535, 2.547455
679.0356, 3.388367
679.5178, 3.544342
679.9999, 2.830704
680.4820, 2.465942
680.9641, 2.513779
681.4462, 2.707199
681.9283, 2.790924
682.4105, 2.781174
682.8926, 2.701492
683.3747, 2.509720
683.8568, 2.463211
684.3389, 2.986526
684.8210, 3.766815
685.3032, 4.321838
685.7853, 4.282272
686.2674, 4.219025
686.7495, 4.340683
687.2316, 4.570465
687.7137, 4.737701
688.1959, 4.849670
688.6780, 4.854568
689.1601, 4.663147
689.6422, 4.364349
690.1243, 4.348129
690.6064, 4.643356
691.0886, 4.985382
691.5707, 5.303482
692.0528, 5.558456
692.5349, 5.665695
693.0170, 5.629837
693.4991, 5.482071
693.9813, 5.031113
694.4634, 4.618469
694.9455, 4.669449
695.4276, 5.235046
695.9097, 5.604355
696.3918, 5.348099
696.8740, 4.968353
697.3561, 4.778625
697.8382, 4.856125
698.3203, 4.884857
698.8024, 4.813110
699.2845, 4.762726
699.7667, 4.899979
700.2488, 5.220078
700.7309, 5.343079
701.2130, 5.187057
701.6951, 4.986740
702.1772, 5.065140
702.6594, 5.316132
703.1415, 5.510635
703.6236, 5.606277
704.1057, 5.595413
704.5878, 5.377808
705.0699, 5.076797
705.5521, 4.889114
706.0342, 5.038727
706.5163, 5.096039
706.9984, 4.906265
707.4805, 4.594421
707.9626, 4.504822
708.4448, 4.731323
708.9269, 4.839615
709.4090, 4.618179
709.8911, 4.223450
710.3732, 4.148529
710.8553, 4.369019
711.3374, 4.640747
711.8195, 4.943115
712.3016, 5.144836
712.7838, 5.067993
713.2659, 4.716599
713.7480, 4.264481
714.2301, 3.458771
714.7122, 2.873795
715.1943, 2.929092
715.6765, 3.768570
716.1586, 4.262268
716.6407, 4.286392
717.1228, 4.139740
717.6049, 3.941452
718.0870, 3.668350
718.5692, 3.608353
719.0513, 3.784714
719.5334, 4.028473
720.0155, 4.215057
720.4976, 4.353119
720.9797, 4.385620
721.4619, 4.273453
721.9440, 4.235413
722.4261, 4.632217
722.9082, 5.086700
723.3903, 5.195923
723.8724, 4.588226
724.3546, 4.122757
724.8367, 4.002762
725.3188, 4.032547
725.8009, 3.983505
726.2830, 3.802902
726.7651, 3.767258
727.2473, 3.986450
727.7294, 4.249298
728.2115, 4.053894
728.6936, 3.509323
729.1757, 3.276703
729.6578, 3.662262
730.1400, 4.297775
730.6221, 5.004303
731.1042, 5.662506
731.5863, 6.006866
732.0684, 5.600708
732.5505, 5.227127
733.0327, 5.233551
733.5148, 5.512054
733.9969, 5.595108
734.4790, 5.336227
734.9611, 5.173050
735.4432, 5.233551
735.9254, 5.484940
736.4075, 5.835190
736.8896, 6.282242
737.3717, 6.681076
737.8538, 6.948380
738.3359, 7.108978
738.8181, 7.108902
739.3002, 6.990570
739.7823, 7.021637
740.2644, 7.360977
740.7465, 7.875824
741.2286, 8.618256
741.7108, 9.604355
742.1929, 10.17020
742.6750, 9.977219
743.1571, 9.768890
743.6392, 9.952652
744.1213, 10.55241
744.6035, 10.89189
745.0856, 10.95406
745.5677, 10.89282
746.0498, 10.81754
746.5319, 10.71860
747.0140, 10.50240
747.4962, 10.15385
747.9783, 9.996170
748.4604, 10.50740
748.9425, 11.15472
749.4246, 11.37523
749.9067, 10.78314
750.3889, 10.71872
750.8710, 11.79375
751.3531, 13.04831
751.8352, 13.76752
752.3173, 13.84221
752.7994, 13.79935
753.2816, 13.57938
753.7637, 13.48695
754.2458, 14.08888
754.7279, 15.11024
755.2100, 15.68727
755.6921, 15.58215
756.1743, 15.29579
756.6564, 15.06848
757.1385, 14.96854
757.6206, 15.09334
758.1027, 15.74570
758.5848, 16.21281
759.0670, 16.21605
759.5491, 16.08635
760.0312, 16.24631
760.5133, 16.81821
760.9954, 17.23933
761.4775, 17.40387
761.9597, 17.45833
762.4418, 17.59872
762.9239, 17.82834
763.4060, 18.16103
763.8881, 18.63260
764.3702, 19.14375
764.8524, 19.59645
765.3345, 20.01276
765.8166, 20.42587
766.2987, 20.88469
766.7808, 21.28902
767.2629, 21.54303
767.7451, 21.75204
768.2272, 22.15297
768.7093, 22.84578
769.1914, 23.28191
769.6735, 23.26285
770.1556, 23.00443
770.6378, 22.98514
771.1199, 23.19591
771.6020, 23.42476
772.0841, 23.61215
772.5662, 23.70979
773.0483, 23.56320
773.5305, 23.28802
774.0126, 23.20032
774.4947, 23.48047
774.9768, 23.89175
775.4589, 24.43718
775.9410, 25.04808
776.4232, 25.34000
776.9053, 25.23793
777.3874, 25.10719
777.8695, 25.05061
778.3516, 25.03574
778.8337, 24.98941
779.3159, 24.90320
779.7980, 24.72470
780.2801, 24.28264
780.7622, 23.88994
781.2443, 23.83418
781.7264, 24.04889
782.2086, 24.17073
782.6907, 24.08917
783.1728, 23.89278
783.6549, 23.53085
784.1370, 23.06612
784.6191, 22.91805
785.1013, 23.17406
785.5834, 23.35780
786.0655, 23.20168
786.5476, 22.84424
787.0297, 22.63844
787.5118, 22.57965
787.9940, 22.63263
788.4761, 22.93074
788.9582, 23.24170
789.4403, 23.33530
789.9224, 23.21640
790.4045, 23.06927
790.8867, 22.95894
791.3688, 22.76451
791.8509, 22.36441
792.3330, 21.81619
792.8151, 21.52620
793.2972, 21.54497
793.7794, 21.50522
794.2615, 21.18271
794.7436, 20.65181
795.2257, 20.06812
795.7078, 19.43465
796.1899, 18.80515
796.6721, 18.19705
797.1542, 17.64114
797.6363, 17.19572
798.1184, 16.85347
798.6005, 16.43779
799.0826, 15.94460
799.5648, 15.36578
800.0469, 14.66977
800.5290, 13.87918
801.0111, 13.14851
801.4932, 12.47618
801.9753, 11.94638
802.4575, 11.75449
802.9396, 11.66679
803.4217, 11.25058
803.9038, 10.54581
804.3859, 9.858047
804.8680, 9.456787
805.3502, 9.015701
805.8323, 8.248810
806.3144, 7.145172
806.7965, 6.409637
807.2786, 6.213303
807.7607, 6.081985
808.2429, 5.833694
808.7250, 5.464783
809.2071, 4.925781
809.6892, 4.233093
810.1713, 3.664627
810.6534, 3.584839
811.1356, 3.614243
811.6177, 3.293198
812.0998, 2.659988
812.5819, 2.056229
813.0640, 1.516876
813.5461, 1.152008
814.0283, 1.112671
814.5104, 1.348358
814.9925, 1.318665
815.4746, 0.9266970
815.9567, 0.6209560
816.4388, 0.6923370
816.9210, 0.9986110
817.4031, 1.081650
817.8852, 0.9570920
818.3673, 0.7288670
818.8494, 0.3299410
819.3315, 5.7069999E-03
819.8137, 2.3972001E-02
820.2958, 0.3419490
820.7779, 0.5759280
821.2600, 0.5024260
821.7421, 0.3656770
822.2242, 0.1937100
822.7064, 4.0252998E-02
823.1885, 0.1276860
823.6706, 0.4755250
824.1527, 0.6423800
824.6348, 0.2646480
825.1169, 0.2965700
825.5991, 0.3787840
826.0812, 8.7173000E-02
826.5633, 0.1595920
827.0454, 0.2472990
827.5275, 0.1614230
828.0096, 0.2349550
828.4918, 0.8469700
828.9739, 1.178253
829.4560, 1.163284
829.9381, 1.057877
830.4202, 0.8735810
830.9023, 0.6424100
831.3845, 0.6481780
831.8666, 0.8823700
832.3487, 0.9048000
832.8308, 7.6995999E-02
833.3129, 0.8016820
833.7950, 0.8314210
834.2772, 0.3083950
834.7593, 3.3110001E-03
835.2414, 0.3407140
835.7235, 0.6741490
836.2056, 0.9277040
836.6877, 1.043411
837.1699, 0.7222140
837.6520, 0.1531370
838.1341, 0.5260160
838.6162, 9.2101999E-02
839.0983, 1.068161
839.5804, 1.312729
840.0626, 1.017288
840.5447, 0.6772770
841.0268, 0.4253540
841.5089, 0.2464600
841.9910, 8.3053999E-02
842.4731, 4.5929998E-03
842.9553, 0.1177220
843.4374, 0.6074370
843.9195, 1.009247
844.4016, 1.325439
844.8837, 1.457306
845.3658, 1.092957
845.8480, 0.3321690
846.3301, 0.2112880
846.8122, 0.3395840
847.2943, 0.3146670
847.7764, 0.4389500
848.2585, 0.5470730
848.7407, 0.3976440
849.2228, 0.4264220
849.7049, 0.9640200
850.1870, 0.9606480
850.6691, 0.7324070
851.1512, 0.6107330
851.6334, 0.6090240
852.1155, 0.5298610
852.5976, 0.3071140
853.0797, 0.1769410
853.5618, 0.5692750
854.0439, 1.198532
854.5261, 1.517319
855.0082, 1.341766
855.4903, 1.170547
855.9724, 1.314865
856.4545, 1.517426
856.9366, 1.550430
857.4188, 1.363815
857.9009, 1.160294
858.3830, 0.9176330
858.8651, 0.7324370
859.3472, 0.6869960
859.8293, 0.7753750
860.3115, 1.025101
860.7936, 1.442337
861.2757, 1.767090
861.7578, 1.764328
862.2399, 1.626511
862.7220, 1.514755
863.2042, 1.456161
863.6863, 1.304306
864.1684, 0.9512940
864.6505, 0.6422420
865.1326, 0.4774930
865.6147, 0.4555970
866.0969, 0.6430510
866.5790, 1.039703
867.0611, 1.422943
867.5432, 1.711945
868.0253, 1.868607
868.5074, 1.787323
868.9896, 1.513702
869.4717, 1.300751
869.9538, 1.398041
870.4359, 1.389465
870.9180, 1.026260
871.4001, 0.4371190
871.8823, 0.2808530
872.3644, 0.6142580
872.8465, 0.9785310
873.3286, 1.280411
873.8107, 1.425934
874.2928, 1.065338
874.7750, 0.3964390
875.2571, 1.5807999E-02
875.7392, 0.3594360
876.2213, 0.7143400
876.7034, 0.7561490
877.1855, 0.5323330
877.6677, 0.1219020
878.1498, 0.6943360
878.6319, 1.028763
879.1140, 0.5985870
879.5961, 0.1318510
880.0782, 0.3579250
880.5604, 0.2392430
881.0425, 0.3340000
881.5246, 0.8800200
882.0067, 1.415131
882.4888, 1.661697
882.9709, 1.689011
883.4531, 1.591705
883.9352, 1.294754
884.4173, 1.081772
884.8994, 0.9938350
885.3815, 0.9150090
885.8636, 0.6384430
886.3458, 0.1926730
886.8279, 0.1157530
887.3100, 0.4974060
887.7921, 0.7787480
888.2742, 0.1148990
888.7563, 0.6322940
889.2385, 0.4919430
889.7206, 0.7895200
890.2027, 1.631729
890.6848, 1.636230
891.1669, 1.479080
891.6490, 1.492920
892.1312, 1.673843
892.6133, 1.597275
893.0954, 1.264465
893.5775, 1.061630
894.0596, 1.541214
894.5417, 2.111786
895.0239, 1.958847
895.5060, 1.197662
895.9881, 0.6188660
896.4702, 0.4450840
896.9523, 0.6921230
897.4344, 1.620392
897.9166, 2.895309
898.3987, 3.202896
898.8808, 2.480087
899.3629, 2.004898
899.8450, 2.316910
900.3271, 2.856110
900.8093, 2.823486
901.2914, 2.449219
901.7735, 2.177200
902.2556, 2.162872
902.7377, 2.272766
903.2198, 2.609177
903.7020, 2.962097
904.1841, 3.038086
904.6662, 2.762695
905.1483, 2.786591
905.6304, 3.230011
906.1125, 3.713821
906.5947, 3.763199
907.0768, 3.615936
907.5589, 3.603973
908.0410, 3.788071
908.5231, 3.978851
909.0052, 4.202271
909.4874, 4.302673
909.9695, 4.087067
910.4516, 3.459030
910.9337, 3.386765
911.4158, 4.010818
911.8979, 4.691025
912.3801, 5.113510
912.8622, 5.229889
913.3443, 4.720703
913.8264, 3.718719
914.3085, 2.993393
914.7906, 3.275208
915.2728, 3.607788
915.7549, 3.416367
916.2370, 2.860382
916.7191, 2.662628
917.2012, 2.892288
917.6833, 3.281982
918.1655, 3.852493
918.6476, 4.400955
919.1297, 4.378952
919.6118, 4.004990
920.0939, 3.910583
920.5760, 4.657425
921.0582, 5.206680
921.5403, 4.848450
922.0224, 4.092636
922.5045, 3.629990
922.9866, 3.496445
923.4688, 3.634918
923.9509, 4.141220
924.4330, 4.657715
924.9151, 4.676270
925.3972, 4.382309
925.8793, 4.271439
926.3615, 4.421478
926.8436, 4.447647
927.3257, 4.008102
927.8078, 3.464798
928.2899, 3.054794
928.7720, 2.782806
929.2542, 2.577744
929.7363, 2.414703
930.2184, 2.510803
930.7005, 3.238083
931.1826, 4.184845
931.6647, 4.110321
932.1469, 3.223404
932.6290, 2.424286
933.1111, 2.316574
933.5932, 2.298065
934.0753, 2.015457
934.5574, 1.575974
935.0396, 1.309601
935.5217, 1.216522
936.0038, 1.235367
936.4859, 1.438782
936.9680, 1.723480
937.4501, 1.971832
937.9323, 2.093140
938.4144, 1.859818
938.8965, 1.083679
939.3786, 0.4617610
939.8607, 0.3962710
940.3428, 0.5762330
940.8250, 0.7373960
941.3071, 0.8609620
941.7892, 1.050262
942.2713, 1.353363
942.7534, 1.506104
943.2355, 1.165985
943.7177, 0.5659790
944.1998, 0.1697390
944.6819, 1.8010000E-03
945.1640, 6.1707001E-02
945.6461, 3.5004001E-02
946.1282, 4.0890002E-03
946.6104, 2.0142000E-02
947.0925, 1.9805999E-02
947.5746, 0.1522830
948.0567, 0.5059200
948.5388, 0.5091860
949.0209, 0.1722720
949.5031, 0.9982910
949.9852, 0.9651790
950.4673, 0.4396360
950.9494, 0.2180480
951.4315, 0.8489380
951.9136, 1.317841
952.3958, 1.203339
952.8779, 0.8629150
953.3600, 0.5833440
953.8421, 0.3494870
954.3242, 0.3763120
954.8063, 0.7089230
955.2885, 0.9403380
955.7706, 0.5343630
956.2527, 0.1157840
956.7348, 0.4828490
957.2169, 0.5229800
957.6990, 0.4764400
958.1811, 0.2738340
958.6632, 0.1589970
959.1453, 0.2362980
959.6274, 0.4713130
960.1096, 0.7220760
960.5917, 0.9879150
961.0738, 1.156067
961.5559, 1.091278
962.0380, 1.030914
962.5201, 1.415253
963.0023, 1.958649
963.4844, 2.147797
963.9665, 1.440430
964.4486, 0.9238590
964.9307, 0.6952820
965.4128, 0.6720580
965.8950, 0.8317570
966.3771, 1.145599
966.8592, 1.263916
967.3413, 1.133789
967.8234, 1.120911
968.3055, 1.766052
968.7877, 2.498840
969.2698, 2.688141
969.7519, 2.225098
970.2340, 2.266968
970.7161, 3.217773
971.1982, 3.955444
971.6804, 3.938721
972.1625, 3.425812
972.6446, 3.122314
973.1267, 3.042236
973.6088, 3.249969
974.0909, 4.120819
974.5731, 4.864410
975.0552, 4.784851
975.5373, 4.381012
976.0194, 4.567261
976.5015, 5.792480
976.9836, 6.343536
977.4658, 5.924957
977.9479, 5.315979
978.4300, 5.445160
978.9121, 6.035492
979.3942, 6.570648
979.8763, 6.987610
980.3585, 7.202698
980.8406, 6.893982
981.3227, 6.628326
981.8048, 6.733154
982.2869, 7.168030
982.7690, 7.565369
983.2512, 7.934631
983.7333, 8.146667
984.2154, 8.060272
984.6975, 7.893250
985.1796, 8.059296
985.6617, 8.365509
986.1439, 8.411072
986.6260, 7.727295
987.1081, 7.244659
987.5902, 7.167480
988.0723, 7.265778
988.5544, 7.331177
989.0366, 7.362946
989.5187, 7.167236
990.0008, 6.708893
990.4829, 6.369568
990.9650, 6.639435
991.4471, 7.040863
991.9293, 7.077606
992.4114, 6.706665
992.8935, 6.608673
993.3756, 7.004242
993.8577, 7.280365
994.3398, 7.175446
994.8220, 6.841644
995.3041, 6.652039
995.7862, 6.579590
996.2683, 6.529449
996.7504, 6.475159
997.2325, 6.418396
997.7147, 6.415680
998.1968, 6.382294
998.6789, 6.203796
999.1610, 5.806366
999.6431, 5.534607
1000.125, 5.413177
1000.607, 5.359741
1001.089, 5.300995
1001.572, 5.262207
1002.054, 5.336639
1002.536, 5.503326
1003.018, 5.545990
1003.500, 5.269348
1003.982, 4.979248
1004.464, 4.774841
1004.946, 4.627350
1005.429, 4.394379
1005.911, 4.086029
1006.393, 4.090576
1006.875, 4.687439
1007.357, 5.150726
1007.839, 4.507385
1008.321, 3.549011
1008.803, 3.249451
1009.285, 4.210510
1009.768, 4.757233
1010.250, 4.830719
1010.732, 4.662476
1011.214, 4.301300
1011.696, 3.829987
1012.178, 3.540558
1012.660, 3.425690
1013.142, 3.484772
1013.625, 3.928345
1014.107, 4.370483
1014.589, 4.603973
1015.071, 4.680389
1015.553, 4.701660
1016.035, 4.665710
1016.517, 4.584656
1016.999, 4.450043
1017.481, 4.322052
1017.964, 4.282257
1018.446, 4.296143
1018.928, 4.301239
1019.410, 4.272888
1019.892, 4.341217
1020.374, 4.669128
1020.856, 4.915619
1021.338, 4.876312
1021.820, 4.618744
1022.303, 4.496246
1022.785, 4.506317
1023.267, 4.650085
1023.749, 5.009277
1024.231, 5.405731
1024.713, 5.773590
1025.195, 6.079498
1025.677, 6.267578
1026.160, 6.332367
1026.642, 6.284637
1027.124, 6.098511
1027.606, 5.896698
1028.088, 5.761658
1028.570, 5.721741
1029.052, 5.844086
1029.534, 6.129120
1030.016, 6.481445
1030.499, 7.210510
1030.981, 7.575287
1031.463, 7.166718
1031.945, 6.265015
1032.427, 5.783173
1032.909, 5.713013
1033.391, 5.981934
1033.873, 6.779175
1034.356, 7.336273
1034.838, 6.597260
1035.320, 5.407959
1035.802, 4.792114
1036.284, 5.049957
1036.766, 5.471161
1037.248, 6.139984
1037.730, 6.748047
1038.213, 7.084717
1038.695, 7.201538
1039.177, 7.183716
1039.659, 7.048523
1040.141, 6.849762
1040.623, 6.540131
1041.105, 6.263123
1041.587, 6.048370
1042.069, 5.897522
1042.552, 5.816193
1043.034, 5.802094
1043.516, 5.813324
1043.998, 5.832764
1044.480, 5.945953
1044.962, 6.395782
1045.444, 6.857361
1045.926, 7.007904
1046.408, 6.799377
1046.891, 6.493683
1047.373, 5.954926
1047.855, 5.726349
1048.337, 6.129120
1048.819, 6.822083
1049.301, 7.179504
1049.783, 7.236938
1050.265, 7.041321
1050.748, 6.373047
1051.230, 5.924469
1051.712, 6.207550
1052.194, 6.586792
1052.676, 6.510681
1053.158, 5.935669
1053.640, 5.905396
1054.122, 6.412109
1054.604, 6.790527
1055.087, 6.250366
1055.569, 5.681213
1056.051, 6.030029
1056.533, 6.959412
1057.015, 7.271545
1057.497, 6.560547
1057.979, 6.167572
1058.461, 6.352844
1058.943, 6.727997
1059.426, 6.844269
1059.908, 6.799438
1060.390, 6.640503
1060.872, 6.357483
1061.354, 6.171478
1061.836, 6.341370
1062.318, 6.456329
1062.800, 6.255371
1063.283, 5.897858
1063.765, 6.129272
1064.247, 6.853424
1064.729, 7.381775
1065.211, 7.425690
1065.693, 7.279449
1066.175, 6.918823
1066.657, 6.619263
1067.140, 6.806366
1067.622, 7.784973
1068.104, 7.911499
1068.586, 7.021027
1069.068, 6.155304
1069.550, 6.317139
1070.032, 6.810303
1070.514, 6.323883
1070.996, 5.200134
1071.479, 4.571899
1071.961, 5.376373
1072.443, 5.924042
1072.925, 5.972900
1073.407, 5.702423
1073.889, 5.256989
1074.371, 4.712311
1074.853, 4.209351
1075.335, 3.716339
1075.818, 3.531647
1076.300, 4.234039
1076.782, 5.000488
1077.264, 5.360382
1077.746, 5.334839
1078.228, 5.084473
1078.710, 4.616608
1079.192, 4.224945
1079.675, 3.967377
1080.157, 3.807159
1080.639, 3.807129
1081.121, 3.902679
1081.603, 3.947327
1082.085, 3.811188
1082.567, 3.760193
1083.049, 3.882660
1083.531, 3.977356
1084.014, 3.829620
1084.496, 3.581909
1084.978, 3.617432
1085.460, 3.873474
1085.942, 4.152191
1086.424, 4.610229
1086.906, 4.750793
1087.388, 4.251282
1087.870, 3.663422
1088.353, 3.621124
1088.835, 4.058197
1089.317, 4.272644
1089.799, 4.240570
1090.281, 4.202271
1090.763, 4.328094
1091.245, 4.440399
1091.727, 4.359283
1092.209, 4.191681
1092.692, 4.207977
1093.174, 4.385376
1093.656, 4.929901
1094.138, 5.962921
1094.620, 7.002869
1095.102, 7.712097
1095.584, 7.971252
1096.066, 7.508606
1096.549, 6.235809
1097.031, 5.249237
1097.513, 4.664093
1097.995, 4.274841
1098.477, 4.079620
1098.959, 3.943970
1099.441, 3.502686
1099.923, 2.921631
1100.406, 2.557831
1100.888, 2.586151
1101.370, 2.675720
1101.852, 2.760590
1102.334, 2.867584
1102.816, 3.100403
1103.298, 3.397888
1103.780, 3.086090
1104.262, 2.276459
1104.745, 1.753540
1105.227, 2.215820
1105.709, 2.753357
1106.191, 2.918610
1106.673, 2.864899
1107.155, 2.783386
1107.637, 2.643494
1108.119, 2.831299
1108.601, 3.409149
1109.084, 3.696960
1109.566, 2.737671
1110.048, 1.559235
1110.530, 1.215149
1111.012, 1.554138
1111.494, 1.520660
1111.976, 0.8794560
1112.458, 0.4037780
1112.941, 0.2182010
1113.423, 0.2661440
1113.905, 0.4463810
1114.387, 0.8190310
1114.869, 1.769592
1115.351, 3.431458
1115.833, 3.885529
1116.315, 1.836823
1116.797, 2.7770000E-03
1117.280, 0.7489320
1117.762, 0.7158200
1118.244, 0.4033510
1118.726, 6.5673999E-02
1119.208, 0.3290710
1119.690, 0.2325740
1120.172, 8.1115998E-02
1120.654, 0.1869510
1121.136, 0.2713930
1121.619, 0.1266780
1122.101, 0.9166260
1122.583, 1.092194
1123.065, 0.7253110
1123.547, 0.4345400
1124.029, 0.7195130
1124.511, 0.9255370
1124.993, 0.4619750
1125.476, 0.2196350
1125.958, 0.5576780
1126.440, 0.5455630
1126.922, 0.1156920
1127.404, 0.7688290
1127.886, 1.468506
1128.368, 1.349915
1128.850, 0.9663090
1129.333, 0.8118900
1129.815, 0.8258670
1130.297, 0.7897640
1130.779, 0.7347110
1131.261, 0.4420470
1131.743, 0.2001650
1132.225, 0.7149050
1132.707, 0.3186650
1133.189, 0.3731080
1133.672, 0.3961490
1134.154, 0.2291870
1134.636, 0.6127320
1135.118, 0.3722230
1135.600, 0.2552490
1136.082, 0.4752200
1136.564, 0.7823180
1137.046, 0.6688840
1137.528, 0.3526000
1138.011, 0.4325870
1138.493, 1.065430
1138.975, 1.379120
1139.457, 0.6543880
1139.939, 1.9714000E-02
1140.421, 5.5663999E-02
1140.903, 0.2102660
1141.385, 0.1582340
1141.868, 0.1393430
1142.350, 0.3932800
1142.832, 0.4968260
1143.314, 0.5966800
1143.796, 0.8667910
1144.278, 1.073486
1144.760, 1.011353
1145.242, 0.7131350
1145.724, 0.7558290
1146.207, 1.093323
1146.689, 1.219299
1147.171, 0.6825560
1147.653, 0.1982730
1148.135, 0.4023740
1148.617, 0.8340150
1149.099, 0.9298710
1149.581, 0.6071170
1150.063, 0.5643620
1150.546, 0.8099370
1151.028, 0.9419560
1151.510, 0.4992070
1151.992, 2.3345999E-02
1152.474, 4.8615001E-02
1152.956, 0.1901860
1153.438, 0.5440980
1153.920, 1.049561
1154.403, 1.468384
1154.885, 1.792053
1155.367, 1.984802
1155.849, 1.992096
1156.331, 1.860443
1156.813, 1.458252
1157.295, 0.9190980
1157.777, 0.9059450
1158.260, 1.724091
1158.742, 2.343018
1159.224, 2.627319
1159.706, 2.653229
1160.188, 2.300873
1160.670, 1.855591
1161.152, 1.810974
1161.634, 2.175934
1162.116, 2.367126
1162.599, 2.143097
1163.081, 2.037292
1163.563, 2.219879
1164.045, 2.485229
1164.527, 2.479553
1165.009, 2.325989
1165.491, 2.279510
1165.973, 2.397369
1166.455, 2.402496
1166.938, 2.130829
1167.420, 1.877869
1167.902, 1.742096
1168.384, 1.679138
1168.866, 1.605896
1169.348, 1.514038
1169.830, 1.389526
1170.312, 1.195892
1170.795, 1.122192
1171.277, 1.354156
1171.759, 1.568176
1172.241, 1.564117
1172.723, 1.453094
1173.205, 1.755035
1173.687, 2.336792
1174.169, 2.681427
1174.651, 2.425934
1175.134, 2.265228
1175.616, 2.709869
1176.098, 3.238739
1176.580, 3.582153
1177.062, 3.702911
1177.544, 3.346069
1178.026, 2.604889
1178.508, 1.978882
1178.990, 1.815521
1179.473, 1.702240
1179.955, 1.206940
1180.437, 0.8917540
1180.919, 1.407227
1181.401, 2.663483
1181.883, 3.167908
1182.365, 2.992188
1182.847, 2.745087
1183.330, 2.655212
1183.812, 2.697266
1184.294, 3.072388
1184.776, 3.518585
1185.258, 3.680450
1185.740, 3.527527
1186.222, 3.097382
1186.704, 2.411804
1187.187, 1.912018
1187.669, 2.055573
1188.151, 2.314514
1188.633, 2.375519
1189.115, 2.316711
1189.597, 2.249268
1190.079, 2.158142
1190.561, 2.198334
1191.043, 2.380463
1191.526, 2.539673
1192.008, 2.508698
1192.490, 2.422516
1192.972, 2.397888
1193.454, 2.415924
1193.936, 2.441803
1194.418, 2.475922
1194.900, 2.420654
1195.382, 2.265930
1195.865, 2.070343
1196.347, 1.888214
1196.829, 1.660065
1197.311, 1.312256
1197.793, 0.9240720
1198.275, 0.8685300
1198.757, 1.175751
1199.239, 1.161926
1199.722, 0.6439820
1200.204, 0.1740720
1200.686, 0.3966980
1201.168, 0.7602540
1201.650, 0.7148130
1202.132, 0.3411870
1202.614, 0.3321530
1203.096, 0.7047420
1203.578, 0.9984740
1204.061, 1.063568
1204.543, 1.115723
1205.025, 1.471161
1205.507, 1.811249
1205.989, 1.797089
1206.471, 1.441772
1206.953, 1.135620
1207.435, 0.8539120
1207.917, 0.8995060
1208.400, 1.512848
1208.882, 2.040070
1209.364, 1.688477
1209.846, 1.011963
1210.328, 0.6011660
1210.810, 0.4873350
1211.292, 0.4843440
1211.774, 0.5997010
1212.257, 0.6928410
1212.739, 0.7240600
1213.221, 0.7069700
1213.703, 0.5957030
1214.185, 0.4858700
1214.667, 0.4752200
1215.149, 0.5622250
1215.631, 0.8077090
1216.114, 1.221130
1216.596, 1.521027
1217.078, 1.532104
1217.560, 1.465576
1218.042, 1.482788
1218.524, 1.536774
1219.006, 1.547272
1219.488, 1.491425
1219.970, 1.705627
1220.453, 2.197388
1220.935, 2.421814
1221.417, 1.904572
1221.899, 1.314362
1222.381, 1.081268
1222.863, 1.141327
1223.345, 1.461334
1223.827, 2.086060
1224.309, 2.444000
1224.792, 2.535187
1225.274, 2.277710
1225.756, 1.220795
1226.238, 0.3160400
1226.720, 0.2843320
1227.202, 0.7906800
1227.684, 1.471405
1228.166, 2.401520
1228.649, 2.670441
1229.131, 2.308960
1229.613, 1.817932
1230.095, 1.395508
1230.577, 1.047180
1231.059, 0.6700130
1231.541, 0.4454650
1232.023, 0.6703190
1232.505, 1.382721
1232.988, 1.551117
1233.470, 1.208588
1233.952, 0.9725340
1234.434, 1.335785
1234.916, 1.760803
1235.398, 2.134216
1235.880, 2.311432
1236.362, 2.105225
1236.844, 1.522034
1237.327, 0.6950680
1237.809, 0.3180540
1238.291, 0.9680790
1238.773, 0.5951840
1239.255, 0.1182860
1239.737, 8.7311000E-02
1240.219, 0.1813350
1240.701, 0.3577270
1241.184, 0.5850830
1241.666, 0.4750670
1242.148, 8.4839001E-02
1242.630, 1.4340000E-03
1243.112, 1.001404
1243.594, 1.768066
1244.076, 1.837036
1244.558, 1.562103
1245.041, 1.235352
1245.523, 0.8967900
1246.005, 0.7361450
1246.487, 0.7462460
1246.969, 0.7882080
1247.451, 0.6688840
1247.933, 0.7806090
1248.415, 1.238708
1248.897, 1.863373
1249.380, 2.461090
1249.862, 2.986023
1250.344, 2.991180
1250.826, 2.558167
1251.308, 2.230133
1251.790, 2.453156
1252.272, 2.413208
1252.754, 1.864258
1253.236, 1.274780
1253.719, 1.260101
1254.201, 1.621277
1254.683, 1.930023
1255.165, 2.167877
1255.647, 2.438812
1256.129, 2.914276
1256.611, 3.219788
1257.093, 3.289337
1257.576, 3.229523
1258.058, 3.256744
1258.540, 3.164246
1259.022, 2.298431
1259.504, 0.9456180
1259.986, 0.6478880
1260.468, 2.143402
1260.950, 2.977142
1261.432, 2.748413
1261.915, 2.322174
1262.397, 2.428711
1262.879, 2.690948
1263.361, 2.638062
1263.843, 2.349792
1264.325, 2.343811
1264.807, 2.710266
1265.289, 2.948608
1265.771, 3.022095
1266.254, 3.000793
1266.736, 2.857147
1267.218, 2.477386
1267.700, 2.339264
1268.182, 2.371368
1268.664, 2.150299
1269.146, 1.596039
1269.628, 1.272827
1270.111, 1.287323
1270.593, 1.416840
1271.075, 1.666290
1271.557, 1.859894
1272.039, 1.798920
1272.521, 1.679504
1273.003, 1.785461
1273.485, 2.076263
1273.968, 2.074677
1274.450, 1.753143
1274.932, 1.391449
1275.414, 1.078766
1275.896, 0.9011840
1276.378, 0.9205320
1276.860, 1.027344
1277.342, 1.086975
1277.824, 1.092468
1278.307, 1.097565
1278.789, 1.131104
1279.271, 1.098969
1279.753, 0.7691040
1280.235, 0.6963810
1280.717, 1.102875
1281.199, 1.569153
1281.681, 1.574127
1282.163, 1.300629
1282.646, 1.059174
1283.128, 0.8791810
1283.610, 0.7790830
1284.092, 0.7888790
1284.574, 0.8372500
1285.056, 0.9230960
1285.538, 1.014282
1286.020, 1.123474
1286.503, 1.183929
1286.985, 1.024170
1287.467, 0.7341920
1287.949, 0.6695860
1288.431, 0.9540100
1288.913, 1.082550
1289.395, 1.002136
1289.877, 0.8183590
1290.359, 0.5387880
1290.842, 0.2778630
1291.324, 2.4932999E-02
1291.806, 8.4960997E-02
1292.288, 0.2884520
1292.770, 1.219543
1293.252, 1.612030
1293.734, 1.266876
1294.216, 0.5566710
1294.698, 0.3099670
1295.181, 8.4533997E-02
1295.663, 0.0000000E+00
##END=



