##NAMES=Anthophyllite
##RRUFFID=R070245
##IDEAL CHEMISTRY=[box]Mg_7_Si_8_O_22_(OH)_2_
##LOCALITY=Shartash, Zlatoust, Ilmen Mts, Chelyabinsk Oblast', Urals Region, Russia
##OWNER=RRUFF
##SOURCE=Michael Scott
##DESCRIPTION=Translucent to transparent grey bladed crystals with satin luster (fibrous appearance) associated with hematite
##STATUS=The identification of this mineral has been confirmed only by single crystal X-ray diffraction.
##URL=rruff.info/R070245
172.6059, 0.0000000E+00
173.0880, 39.14355
173.5701, 2.112305
174.0522, 14.43066
174.5344, 6.250977
175.0165, 44.89844
175.4986, 97.87500
175.9807, 158.0166
176.4628, 207.9248
176.9449, 228.9531
177.4271, 270.8125
177.9092, 350.7939
178.3913, 459.1895
178.8734, 584.8379
179.3555, 726.9062
179.8376, 879.9961
180.3197, 1029.139
180.8019, 1164.480
181.2840, 1313.550
181.7661, 1481.945
182.2482, 1667.433
182.7303, 1867.987
183.2124, 2084.829
183.6946, 2312.723
184.1767, 2538.084
184.6588, 2759.924
185.1409, 2977.367
185.6230, 3231.325
186.1051, 3467.270
186.5873, 3624.027
187.0694, 3671.149
187.5515, 3627.514
188.0336, 3535.788
188.5157, 3363.159
188.9978, 3199.107
189.4800, 3049.052
189.9621, 2921.765
190.4442, 2826.254
190.9263, 2768.004
191.4084, 2740.968
191.8905, 2731.364
192.3727, 2741.452
192.8548, 2767.561
193.3369, 2816.838
193.8190, 2875.147
194.3011, 2928.181
194.7832, 2970.151
195.2654, 3007.981
195.7475, 3057.397
196.2296, 3129.425
196.7117, 3192.888
197.1938, 3247.070
197.6759, 3291.146
198.1581, 3320.110
198.6402, 3333.206
199.1223, 3341.675
199.6044, 3368.622
200.0865, 3432.194
200.5686, 3476.735
201.0508, 3497.924
201.5329, 3502.139
202.0150, 3491.730
202.4971, 3468.044
202.9792, 3434.396
203.4613, 3394.207
203.9435, 3341.160
204.4256, 3307.447
204.9077, 3324.649
205.3898, 3346.214
205.8719, 3334.488
206.3540, 3282.669
206.8362, 3212.104
207.3183, 3148.070
207.8004, 3101.543
208.2825, 3033.544
208.7646, 2936.272
209.2467, 2826.420
209.7289, 2715.080
210.2110, 2602.958
210.6931, 2480.448
211.1752, 2329.797
211.6573, 2134.334
212.1395, 1976.340
212.6216, 1883.894
213.1037, 1802.725
213.5858, 1707.502
214.0679, 1598.394
214.5500, 1489.726
215.0322, 1394.345
215.5143, 1312.301
215.9964, 1246.365
216.4785, 1206.401
216.9606, 1172.725
217.4427, 1139.788
217.9249, 1106.890
218.4070, 1074.104
218.8891, 1039.580
219.3712, 1002.719
219.8533, 983.7549
220.3354, 1011.207
220.8176, 1029.417
221.2997, 1015.803
221.7818, 981.1943
222.2639, 949.9600
222.7460, 942.7744
223.2281, 959.0703
223.7103, 958.7666
224.1924, 923.0273
224.6745, 906.5645
225.1566, 905.2871
225.6387, 904.4199
226.1208, 895.3799
226.6030, 869.8477
227.0851, 822.5283
227.5672, 771.6484
228.0493, 727.5352
228.5314, 690.6318
229.0135, 677.0049
229.4957, 664.3877
229.9778, 623.6855
230.4599, 535.7412
230.9420, 424.2207
231.4241, 334.6963
231.9062, 284.0029
232.3884, 228.9727
232.8705, 157.5488
233.3526, 83.34961
233.8347, 13.25977
234.3168, 49.47461
234.7989, 98.12793
235.2811, 116.7334
235.7632, 87.62109
236.2453, 70.38770
236.7274, 80.89551
237.2095, 95.82910
237.6916, 102.0244
238.1738, 96.06348
238.6559, 79.75391
239.1380, 55.79590
239.6201, 25.33105
240.1022, 17.84570
240.5843, 82.35059
241.0665, 152.6855
241.5486, 221.2969
242.0307, 288.5391
242.5128, 359.4395
242.9949, 432.3916
243.4770, 504.6240
243.9592, 615.9590
244.4413, 829.3350
244.9234, 1024.117
245.4055, 1168.835
245.8876, 1259.361
246.3697, 1292.855
246.8519, 1252.639
247.3340, 1148.681
247.8161, 1075.571
248.2982, 1062.843
248.7803, 1041.901
249.2624, 973.5000
249.7446, 884.0303
250.2267, 818.4707
250.7088, 805.2988
251.1909, 826.2246
251.6730, 825.5586
252.1551, 785.9971
252.6373, 760.4512
253.1194, 779.2881
253.6015, 813.8086
254.0836, 831.3096
254.5657, 817.6123
255.0478, 792.1543
255.5300, 785.8340
256.0121, 802.4434
256.4942, 824.6279
256.9763, 834.1406
257.4584, 857.8184
257.9406, 921.0117
258.4227, 1030.567
258.9048, 1160.419
259.3869, 1285.811
259.8690, 1404.834
260.3511, 1521.252
260.8333, 1649.974
261.3154, 1769.529
261.7975, 1868.493
262.2796, 1941.727
262.7617, 1982.044
263.2438, 1987.386
263.7260, 1961.046
264.2081, 1905.902
264.6902, 1815.787
265.1723, 1698.323
265.6544, 1554.564
266.1365, 1391.387
266.6187, 1231.493
267.1008, 1084.514
267.5829, 948.1016
268.0650, 816.3320
268.5471, 687.7354
269.0292, 568.7549
269.5114, 466.0264
269.9935, 376.5420
270.4756, 297.1904
270.9577, 229.8916
271.4398, 170.2451
271.9219, 110.6719
272.4041, 50.70898
272.8862, 4.507813
273.3683, 16.19141
273.8504, 19.83398
274.3325, 22.79492
274.8146, 20.08105
275.2968, 27.17676
275.7789, 71.60156
276.2610, 139.7285
276.7431, 171.1836
277.2252, 133.2666
277.7073, 64.05566
278.1895, 25.56738
278.6716, 19.33984
279.1537, 25.61328
279.6358, 52.95898
280.1179, 84.80371
280.6000, 93.28613
281.0822, 72.19922
281.5643, 28.04199
282.0464, 41.77441
282.5285, 140.6260
283.0106, 216.5098
283.4927, 241.5449
283.9749, 255.0859
284.4570, 291.9639
284.9391, 354.8701
285.4212, 430.0322
285.9033, 509.2256
286.3854, 591.7080
286.8676, 663.7207
287.3497, 695.1045
287.8318, 746.0000
288.3139, 861.9912
288.7960, 1023.139
289.2781, 1171.110
289.7603, 1270.503
290.2424, 1337.541
290.7245, 1439.166
291.2066, 1581.805
291.6887, 1748.096
292.1708, 1956.981
292.6530, 2178.825
293.1351, 2382.019
293.6172, 2556.661
294.0993, 2705.333
294.5814, 2829.895
295.0635, 2912.972
295.5457, 3003.949
296.0278, 3092.605
296.5099, 3196.178
296.9920, 3333.817
297.4741, 3503.327
297.9562, 3682.772
298.4384, 3860.074
298.9205, 4048.438
299.4026, 4139.226
299.8847, 4100.063
300.3668, 3999.523
300.8489, 3840.687
301.3310, 3637.591
301.8131, 3410.867
302.2953, 3171.794
302.7774, 2922.111
303.2595, 2669.281
303.7416, 2402.129
304.2237, 2149.547
304.7058, 1907.036
305.1880, 1684.777
305.6701, 1498.035
306.1522, 1353.195
306.6343, 1231.056
307.1164, 1096.864
307.5985, 941.9639
308.0807, 809.5723
308.5628, 723.8105
309.0449, 652.4092
309.5270, 579.8457
310.0091, 503.8330
310.4912, 429.8379
310.9734, 360.5342
311.4555, 296.1982
311.9376, 243.8115
312.4197, 214.7949
312.9018, 182.1377
313.3839, 119.6895
313.8661, 39.81836
314.3482, 24.07812
314.8303, 49.95801
315.3124, 53.84082
315.7945, 65.57324
316.2766, 87.97754
316.7588, 100.9443
317.2409, 80.48242
317.7230, 48.01855
318.2051, 42.65918
318.6872, 87.84961
319.1693, 127.5127
319.6515, 107.5596
320.1336, 42.04395
320.6157, 3.520508
321.0978, 0.5302730
321.5799, 21.87695
322.0620, 15.10156
322.5442, 24.54102
323.0263, 60.97559
323.5084, 72.53223
323.9905, 80.20996
324.4726, 122.1172
324.9547, 204.4873
325.4369, 276.9980
325.9190, 283.5215
326.4011, 215.4268
326.8832, 191.1436
327.3653, 230.8721
327.8474, 293.6025
328.3296, 362.2246
328.8117, 435.2988
329.2938, 517.2061
329.7759, 613.8047
330.2580, 716.3828
330.7401, 780.6104
331.2223, 769.7725
331.7044, 768.0254
332.1865, 778.4893
332.6686, 805.0537
333.1507, 853.6035
333.6328, 923.0352
334.1150, 1002.651
334.5971, 1083.603
335.0792, 1175.545
335.5613, 1257.874
336.0434, 1336.676
336.5255, 1397.060
337.0077, 1423.270
337.4898, 1420.984
337.9719, 1412.743
338.4540, 1421.796
338.9361, 1444.730
339.4182, 1435.489
339.9004, 1378.850
340.3825, 1309.428
340.8646, 1232.796
341.3467, 1152.433
341.8288, 1071.531
342.3109, 990.2480
342.7931, 912.3340
343.2752, 846.4453
343.7573, 795.1133
344.2394, 736.2930
344.7215, 652.9639
345.2036, 569.5801
345.6858, 502.9219
346.1679, 453.9600
346.6500, 419.4873
347.1321, 405.5215
347.6142, 404.3789
348.0963, 395.8721
348.5785, 378.7246
349.0606, 351.5566
349.5427, 298.8701
350.0248, 233.3223
350.5069, 195.3105
350.9890, 219.9385
351.4712, 252.2783
351.9533, 239.9102
352.4354, 191.7139
352.9175, 154.5127
353.3996, 149.6875
353.8817, 170.1377
354.3639, 200.6719
354.8460, 246.9863
355.3281, 288.9932
355.8102, 323.3936
356.2923, 350.5967
356.7744, 368.6035
357.2566, 377.6436
357.7387, 382.6377
358.2208, 386.4951
358.7029, 384.6396
359.1850, 410.6475
359.6671, 493.9189
360.1493, 571.5176
360.6314, 613.5791
361.1135, 627.8750
361.5956, 634.5146
362.0777, 644.8887
362.5598, 658.1357
363.0420, 671.3369
363.5241, 686.0117
364.0062, 697.9902
364.4883, 693.7666
364.9704, 694.8467
365.4525, 725.0146
365.9347, 786.7754
366.4168, 855.1113
366.8989, 900.3203
367.3810, 921.1455
367.8631, 945.1455
368.3452, 972.7881
368.8274, 1004.928
369.3095, 1044.970
369.7916, 1089.607
370.2737, 1130.670
370.7558, 1163.026
371.2379, 1190.798
371.7201, 1219.961
372.2022, 1248.212
372.6843, 1275.260
373.1664, 1300.265
373.6485, 1325.428
374.1306, 1350.417
374.6128, 1371.076
375.0949, 1411.059
375.5770, 1485.588
376.0591, 1585.657
376.5412, 1698.660
377.0233, 1825.149
377.5055, 1951.043
377.9876, 2057.810
378.4697, 2140.692
378.9518, 2239.923
379.4339, 2373.809
379.9160, 2507.343
380.3982, 2616.925
380.8803, 2707.178
381.3624, 2793.867
381.8445, 2884.939
382.3266, 2981.414
382.8087, 3088.920
383.2909, 3253.848
383.7730, 3364.758
384.2551, 3396.670
384.7372, 3389.283
385.2193, 3375.630
385.7014, 3360.235
386.1836, 3325.217
386.6657, 3248.368
387.1478, 3127.863
387.6299, 3005.230
388.1120, 2851.650
388.5941, 2730.910
389.0763, 2674.937
389.5584, 2661.438
390.0405, 2659.010
390.5226, 2657.278
391.0047, 2651.195
391.4868, 2632.492
391.9690, 2600.765
392.4511, 2561.674
392.9332, 2520.167
393.4153, 2467.651
393.8974, 2387.992
394.3795, 2281.653
394.8617, 2194.100
395.3438, 2174.460
395.8259, 2177.972
396.3080, 2115.050
396.7901, 1974.848
397.2722, 1851.502
397.7544, 1811.004
398.2365, 1839.742
398.7186, 1859.201
399.2007, 1846.429
399.6828, 1849.156
400.1649, 1886.691
400.6471, 1956.207
401.1292, 2054.704
401.6113, 2178.043
402.0934, 2306.254
402.5755, 2412.698
403.0576, 2481.405
403.5398, 2589.839
404.0219, 2741.801
404.5040, 2915.917
404.9861, 3092.565
405.4682, 3285.919
405.9503, 3532.665
406.4325, 3861.515
406.9146, 4246.389
407.3967, 4586.011
407.8788, 4844.427
408.3609, 5132.223
408.8430, 5529.062
409.3252, 5924.906
409.8073, 6240.861
410.2894, 6462.816
410.7715, 6612.199
411.2536, 6707.575
411.7357, 6746.522
412.2179, 6714.338
412.7000, 6610.789
413.1821, 6433.930
413.6642, 6150.193
414.1463, 5788.841
414.6284, 5411.566
415.1106, 5018.885
415.5927, 4623.250
416.0748, 4211.077
416.5569, 3799.708
417.0390, 3449.771
417.5211, 3187.084
418.0033, 2978.395
418.4854, 2775.616
418.9675, 2573.891
419.4496, 2400.735
419.9317, 2269.714
420.4138, 2158.864
420.8960, 2047.898
421.3781, 1942.405
421.8602, 1866.533
422.3423, 1838.167
422.8244, 1844.786
423.3065, 1831.036
423.7887, 1764.130
424.2708, 1729.465
424.7529, 1759.782
425.2350, 1806.549
425.7171, 1825.037
426.1992, 1811.967
426.6814, 1803.246
427.1635, 1837.058
427.6456, 1909.850
428.1277, 1978.830
428.6098, 2048.751
429.0919, 2105.153
429.5741, 2137.920
430.0562, 2153.971
430.5383, 2164.183
431.0204, 2177.528
431.5025, 2171.579
431.9846, 2127.982
432.4668, 2049.688
432.9489, 1940.673
433.4310, 1795.157
433.9131, 1642.511
434.3952, 1519.346
434.8773, 1430.075
435.3595, 1331.399
435.8416, 1215.905
436.3237, 1095.445
436.8058, 964.2949
437.2879, 833.7852
437.7701, 729.7969
438.2522, 666.5859
438.7343, 632.2803
439.2164, 599.0068
439.6985, 578.2656
440.1806, 536.9707
440.6628, 445.7725
441.1449, 359.5312
441.6270, 318.5449
442.1091, 317.8057
442.5912, 323.4951
443.0733, 311.4775
443.5555, 285.7754
444.0376, 262.8008
444.5197, 245.5801
445.0018, 222.3340
445.4839, 173.5225
445.9660, 124.0967
446.4482, 102.0361
446.9303, 113.7627
447.4124, 129.7246
447.8945, 138.9834
448.3766, 138.2793
448.8587, 111.4521
449.3409, 53.45215
449.8230, 10.18555
450.3051, 27.85059
450.7872, 96.87793
451.2693, 119.2568
451.7514, 48.87500
452.2336, 10.73535
452.7157, 10.41895
453.1978, 15.60352
453.6799, 15.53613
454.1620, 24.29883
454.6441, 73.94043
455.1263, 94.23828
455.6084, 79.96094
456.0905, 65.99512
456.5726, 37.27734
457.0547, 25.07129
457.5368, 63.55859
458.0190, 119.1426
458.5011, 131.2441
458.9832, 67.41895
459.4653, 14.84668
459.9474, 22.06836
460.4295, 47.28320
460.9117, 84.73633
461.3938, 53.44043
461.8759, 6.421875
462.3580, 8.416016
462.8401, 3.353516
463.3222, 13.77344
463.8044, 17.51074
464.2865, 15.03809
464.7686, 1.805664
465.2507, 18.54590
465.7328, 30.43164
466.2149, 25.62109
466.6971, 14.35449
467.1792, 17.92090
467.6613, 53.25000
468.1434, 66.71191
468.6255, 47.82129
469.1076, 16.71191
469.5898, 30.28613
470.0719, 79.39453
470.5540, 95.59082
471.0361, 52.02344
471.5182, 26.03125
472.0003, 62.50098
472.4825, 40.84473
472.9646, 22.05078
473.4467, 20.73828
473.9288, 25.23047
474.4109, 28.03906
474.8930, 29.15039
475.3752, 33.85352
475.8573, 48.61621
476.3394, 67.51074
476.8215, 82.76660
477.3036, 94.18555
477.7857, 94.34668
478.2679, 74.90039
478.7500, 45.63672
479.2321, 29.95117
479.7142, 28.80664
480.1963, 35.85742
480.6784, 54.74609
481.1606, 78.11523
481.6427, 98.94434
482.1248, 117.2158
482.6069, 139.1279
483.0890, 171.6982
483.5711, 209.3809
484.0533, 219.8730
484.5354, 179.5049
485.0175, 150.5459
485.4996, 139.0684
485.9817, 142.8096
486.4638, 168.6924
486.9460, 212.9912
487.4281, 250.3623
487.9102, 250.9209
488.3923, 229.7695
488.8744, 236.0869
489.3565, 274.6523
489.8387, 314.3857
490.3208, 334.7988
490.8029, 349.4990
491.2850, 389.8564
491.7671, 471.3906
492.2492, 535.2227
492.7314, 545.0557
493.2135, 533.4414
493.6956, 540.2764
494.1777, 569.3926
494.6598, 604.1719
495.1419, 633.2217
495.6241, 659.3271
496.1062, 675.0498
496.5883, 658.2148
497.0704, 651.0713
497.5525, 671.1533
498.0346, 696.7080
498.5168, 704.2568
498.9989, 694.4482
499.4810, 692.3447
499.9631, 730.4346
500.4452, 796.1250
500.9273, 823.7969
501.4095, 803.2920
501.8916, 766.9736
502.3737, 717.9980
502.8558, 665.0547
503.3379, 621.8428
503.8200, 590.1025
504.3022, 563.4541
504.7843, 537.0869
505.2664, 515.6729
505.7485, 507.3232
506.2306, 511.4014
506.7127, 521.6885
507.1949, 536.7852
507.6770, 550.2871
508.1591, 532.2666
508.6412, 444.6396
509.1233, 380.8311
509.6054, 345.4551
510.0876, 334.2363
510.5697, 356.5107
511.0518, 404.2002
511.5339, 448.3145
512.0161, 470.4531
512.4982, 470.2686
512.9803, 445.0996
513.4624, 392.1865
513.9445, 354.4336
514.4266, 351.2246
514.9088, 367.7441
515.3909, 381.6787
515.8730, 391.8350
516.3551, 403.9023
516.8372, 433.2090
517.3193, 462.7070
517.8015, 467.3516
518.2836, 448.9688
518.7657, 430.7227
519.2478, 428.8877
519.7299, 439.5693
520.2120, 448.7412
520.6942, 448.2803
521.1763, 458.9189
521.6584, 492.0664
522.1405, 525.3184
522.6226, 549.8887
523.1047, 564.8604
523.5869, 568.6758
524.0690, 556.3965
524.5511, 542.1572
525.0332, 553.3145
525.5153, 589.7822
525.9974, 620.0361
526.4796, 636.4248
526.9617, 644.5420
527.4438, 644.1523
527.9259, 635.8379
528.4080, 633.4062
528.8901, 660.4014
529.3723, 683.0117
529.8544, 660.2861
530.3365, 616.3311
530.8186, 596.7637
531.3007, 619.6221
531.7828, 660.1406
532.2650, 682.4541
532.7471, 685.6699
533.2292, 698.5654
533.7113, 740.5127
534.1934, 769.6348
534.6755, 756.2422
535.1577, 729.4902
535.6398, 734.6504
536.1219, 788.6758
536.6040, 839.9463
537.0861, 832.0234
537.5682, 782.5322
538.0504, 750.1133
538.5325, 743.9824
539.0146, 737.7363
539.4967, 712.6367
539.9788, 672.1025
540.4609, 634.4844
540.9431, 608.4648
541.4252, 572.7607
541.9073, 505.1250
542.3894, 437.5039
542.8715, 404.7900
543.3536, 406.3643
543.8358, 415.8350
544.3179, 415.0537
544.8000, 402.3867
545.2821, 367.2002
545.7642, 298.9385
546.2463, 236.9941
546.7285, 182.0586
547.2106, 145.1895
547.6926, 153.1270
548.1747, 199.1943
548.6569, 211.1787
549.1390, 118.7207
549.6211, 3.929688
550.1032, 41.91699
550.5853, 28.47363
551.0674, 1.106445
551.5496, 33.35059
552.0317, 54.72070
552.5138, 38.81738
552.9959, 37.97949
553.4780, 71.35938
553.9601, 33.13867
554.4423, 11.54199
554.9244, 43.94238
555.4065, 63.27148
555.8886, 71.99023
556.3707, 71.00781
556.8528, 58.68457
557.3350, 16.38184
557.8171, 47.23340
558.2992, 50.06836
558.7813, 36.45312
559.2634, 116.7666
559.7455, 122.6826
560.2277, 73.81836
560.7098, 38.82422
561.1919, 22.15039
561.6740, 12.32617
562.1561, 9.336914
562.6382, 9.303711
563.1204, 6.346680
563.6025, 1.286133
564.0846, 1.445313
564.5667, 12.91992
565.0488, 32.48438
565.5309, 48.49609
566.0131, 63.38086
566.4952, 68.58789
566.9773, 54.79590
567.4594, 36.86719
567.9415, 23.55273
568.4236, 14.38867
568.9058, 4.639648
569.3879, 17.82812
569.8700, 32.71777
570.3521, 5.844727
570.8342, 47.56641
571.3163, 69.58496
571.7985, 39.84961
572.2806, 1.708008
572.7627, 11.85547
573.2448, 77.74512
573.7269, 109.8145
574.2090, 78.44434
574.6912, 51.21973
575.1733, 42.07812
575.6554, 47.30762
576.1375, 66.05273
576.6196, 96.46973
577.1017, 125.9844
577.5839, 149.8887
578.0660, 163.7422
578.5481, 141.1328
579.0302, 74.98828
579.5123, 35.78223
579.9944, 71.00391
580.4766, 138.4785
580.9587, 153.1875
581.4408, 104.3818
581.9229, 60.79102
582.4050, 27.89941
582.8871, 6.704102
583.3693, 4.159180
583.8514, 13.16309
584.3335, 20.56250
584.8156, 20.39551
585.2977, 12.77832
585.7798, 8.477539
586.2620, 46.58691
586.7441, 55.74609
587.2262, 11.16602
587.7083, 24.98145
588.1904, 4.278320
588.6725, 59.52832
589.1547, 71.91406
589.6368, 15.00879
590.1189, 38.76367
590.6010, 54.87988
591.0831, 48.12695
591.5652, 29.07324
592.0474, 3.499023
592.5295, 11.58105
593.0116, 3.730469
593.4937, 19.50098
593.9758, 32.81445
594.4579, 23.45801
594.9401, 34.43652
595.4222, 91.27539
595.9043, 149.3350
596.3864, 187.1611
596.8685, 208.3047
597.3506, 223.6504
597.8328, 234.4160
598.3149, 246.0039
598.7970, 264.7920
599.2791, 288.1631
599.7612, 306.6250
600.2433, 318.3682
600.7255, 337.1748
601.2076, 374.9922
601.6897, 430.2832
602.1718, 490.4863
602.6539, 566.6611
603.1360, 632.2891
603.6182, 679.1973
604.1003, 719.9102
604.5824, 753.1172
605.0645, 787.1055
605.5466, 847.2686
606.0287, 959.6641
606.5109, 1090.932
606.9930, 1195.235
607.4751, 1272.431
607.9572, 1325.458
608.4393, 1353.272
608.9214, 1386.558
609.4036, 1460.042
609.8857, 1572.963
610.3678, 1656.155
610.8499, 1687.021
611.3320, 1713.004
611.8141, 1761.167
612.2963, 1806.820
612.7784, 1827.631
613.2605, 1817.471
613.7426, 1773.168
614.2247, 1683.422
614.7068, 1565.312
615.1890, 1458.735
615.6711, 1360.790
616.1532, 1269.334
616.6353, 1191.559
617.1174, 1113.030
617.5995, 1019.023
618.0817, 908.9023
618.5638, 811.5107
619.0459, 722.2236
619.5280, 652.1309
620.0101, 625.5996
620.4922, 611.2266
620.9744, 564.6016
621.4565, 480.8398
621.9386, 396.0479
622.4207, 346.5400
622.9028, 320.4395
623.3849, 264.7021
623.8671, 168.6992
624.3492, 107.8760
624.8313, 122.3408
625.3134, 161.8516
625.7955, 166.1348
626.2776, 137.4873
626.7598, 111.4453
627.2419, 90.64551
627.7240, 74.25586
628.2061, 73.42773
628.6882, 74.86133
629.1703, 50.05273
629.6525, 1.807617
630.1346, 40.41992
630.6167, 18.71875
631.0988, 49.75000
631.5809, 90.12988
632.0630, 97.97754
632.5452, 94.16309
633.0273, 73.30762
633.5094, 54.62500
633.9915, 67.62598
634.4736, 109.9131
634.9557, 130.1455
635.4379, 95.87793
635.9200, 60.41016
636.4021, 52.41406
636.8842, 63.28320
637.3663, 81.94824
637.8484, 103.9629
638.3306, 123.2666
638.8127, 132.4844
639.2948, 133.9326
639.7769, 141.5439
640.2590, 155.9688
640.7411, 174.7676
641.2233, 202.1562
641.7054, 228.8203
642.1875, 241.7607
642.6696, 242.6230
643.1517, 252.5127
643.6339, 295.8721
644.1160, 325.3447
644.5981, 288.4375
645.0802, 237.8633
645.5623, 257.2383
646.0444, 357.6113
646.5266, 468.4160
647.0087, 529.7822
647.4908, 554.7344
647.9729, 580.6455
648.4550, 607.0977
648.9371, 631.2734
649.4193, 637.0322
649.9014, 657.3262
650.3835, 740.2471
650.8656, 874.4863
651.3477, 976.4775
651.8298, 996.5840
652.3120, 1022.412
652.7941, 1096.084
653.2762, 1199.851
653.7583, 1310.221
654.2404, 1423.073
654.7225, 1545.819
655.2047, 1682.929
655.6868, 1836.382
656.1689, 2009.869
656.6510, 2202.719
657.1331, 2420.885
657.6152, 2667.152
658.0974, 2934.864
658.5795, 3213.599
659.0616, 3506.978
659.5437, 3831.352
660.0258, 4202.748
660.5079, 4588.501
660.9901, 4966.376
661.4722, 5360.016
661.9543, 5794.560
662.4364, 6271.608
662.9185, 6786.871
663.4006, 7339.546
663.8828, 7924.138
664.3649, 8531.213
664.8470, 9160.732
665.3291, 9809.183
665.8112, 10467.45
666.2933, 11173.85
666.7755, 11975.67
667.2576, 12850.14
667.7397, 13704.21
668.2218, 14546.01
668.7039, 15352.86
669.1860, 16139.61
669.6682, 16868.65
670.1503, 17538.83
670.6324, 18129.78
671.1145, 18616.66
671.5966, 18993.73
672.0787, 19222.01
672.5609, 19256.25
673.0430, 19095.74
673.5251, 18738.03
674.0072, 18174.34
674.4893, 17455.00
674.9714, 16579.21
675.4536, 15588.87
675.9357, 14599.62
676.4178, 13589.04
676.8999, 12618.96
677.3820, 11714.30
677.8641, 10825.08
678.3463, 9911.775
678.8284, 9007.782
679.3105, 8162.987
679.7926, 7394.826
680.2747, 6708.462
680.7568, 6133.998
681.2390, 5646.057
681.7211, 5191.946
682.2032, 4772.082
682.6853, 4381.933
683.1674, 4015.105
683.6495, 3681.487
684.1317, 3400.359
684.6138, 3183.711
685.0959, 2975.386
685.5780, 2763.759
686.0601, 2563.424
686.5422, 2386.604
687.0244, 2222.841
687.5065, 2053.189
687.9886, 1877.829
688.4707, 1735.400
688.9528, 1672.850
689.4349, 1633.572
689.9171, 1543.441
690.3992, 1423.016
690.8813, 1339.827
691.3634, 1311.462
691.8455, 1291.214
692.3276, 1229.548
692.8098, 1133.772
693.2919, 1070.984
693.7740, 1055.547
694.2561, 1041.329
694.7382, 1019.989
695.2203, 997.2100
695.7025, 979.5410
696.1846, 964.0420
696.6667, 939.3193
697.1488, 894.3701
697.6309, 851.9346
698.1130, 831.1406
698.5952, 815.9014
699.0773, 785.8740
699.5594, 740.3486
700.0415, 689.1689
700.5236, 637.6709
701.0057, 586.4473
701.4879, 534.2500
701.9700, 480.2285
702.4521, 443.1553
702.9342, 431.8730
703.4163, 418.4219
703.8984, 378.5811
704.3806, 328.5352
704.8627, 309.6797
705.3448, 337.5801
705.8269, 349.5889
706.3090, 335.7402
706.7911, 305.1445
707.2733, 248.1396
707.7554, 183.2207
708.2375, 139.5312
708.7196, 125.5430
709.2017, 127.2051
709.6838, 136.6191
710.1660, 150.1934
710.6481, 159.1807
711.1302, 163.5303
711.6123, 163.3408
712.0944, 157.3662
712.5765, 152.4609
713.0587, 158.1387
713.5408, 175.1592
714.0229, 186.4531
714.5050, 182.8281
714.9871, 186.0918
715.4692, 214.0771
715.9514, 238.8418
716.4335, 231.1064
716.9156, 197.0742
717.3977, 172.1855
717.8798, 176.0664
718.3619, 186.0479
718.8441, 185.2578
719.3262, 177.8369
719.8083, 170.7295
720.2904, 164.7676
720.7725, 156.2305
721.2546, 141.9385
721.7368, 126.6475
722.2189, 126.6396
722.7010, 147.5889
723.1831, 141.5889
723.6652, 90.39941
724.1473, 41.12305
724.6295, 27.23340
725.1116, 30.29297
725.5937, 8.127930
726.0758, 53.37012
726.5579, 90.24512
727.0400, 85.62695
727.5222, 58.88672
728.0043, 5.517578
728.4864, 74.06543
728.9685, 86.33105
729.4506, 31.01855
729.9327, 29.63477
730.4149, 34.35156
730.8970, 6.342773
731.3791, 1.047852
731.8612, 9.812500
732.3433, 18.07031
732.8254, 18.63379
733.3076, 7.893555
733.7897, 21.18066
734.2718, 66.06641
734.7539, 94.46973
735.2360, 104.5645
735.7181, 100.8096
736.2003, 69.34375
736.6824, 38.04297
737.1645, 27.18359
737.6466, 30.19629
738.1287, 27.73926
738.6108, 14.17676
739.0930, 4.039063
739.5751, 35.36426
740.0572, 62.12305
740.5393, 53.63184
741.0214, 20.39062
741.5035, 5.297852
741.9857, 28.69238
742.4678, 59.29883
742.9499, 45.30176
743.4320, 8.378906
743.9141, 33.34668
744.3962, 24.24316
744.8784, 14.98730
745.3605, 16.07227
745.8426, 26.96094
746.3247, 47.79590
746.8068, 78.80859
747.2889, 119.1152
747.7711, 198.4688
748.2532, 248.1299
748.7353, 218.0234
749.2174, 177.2568
749.6995, 193.1904
750.1816, 259.6904
750.6638, 324.4668
751.1459, 366.9531
751.6280, 391.5332
752.1101, 392.4678
752.5922, 381.8467
753.0743, 384.7246
753.5565, 401.7754
754.0386, 414.7598
754.5207, 412.6680
755.0028, 404.0332
755.4849, 408.3750
755.9670, 428.7705
756.4492, 430.0977
756.9313, 402.6260
757.4134, 378.8477
757.8955, 370.5977
758.3776, 374.9326
758.8597, 395.0967
759.3419, 435.1973
759.8240, 448.5127
760.3061, 406.0801
760.7882, 366.4414
761.2703, 345.5967
761.7524, 342.5068
762.2346, 366.5303
762.7167, 409.1787
763.1988, 434.3721
763.6809, 415.4707
764.1630, 381.6680
764.6451, 360.4014
765.1273, 351.3359
765.6094, 360.4580
766.0915, 385.6523
766.5736, 400.8535
767.0557, 389.1006
767.5378, 361.2061
768.0200, 339.2197
768.5021, 323.0312
768.9842, 315.3428
769.4663, 318.4326
769.9484, 324.8301
770.4305, 330.9893
770.9127, 340.3936
771.3948, 359.7759
771.8769, 388.8726
772.3590, 404.6875
772.8411, 397.0469
773.3232, 386.2769
773.8054, 369.4033
774.2875, 356.1406
774.7696, 376.0552
775.2517, 423.0474
775.7338, 458.4673
776.2159, 461.4810
776.6981, 446.2979
777.1802, 406.0747
777.6623, 360.5142
778.1444, 369.7632
778.6265, 433.6641
779.1086, 489.6665
779.5908, 501.3027
780.0729, 491.6167
780.5550, 508.9526
781.0371, 559.8945
781.5192, 565.6494
782.0013, 505.5649
782.4835, 455.9707
782.9656, 452.5049
783.4477, 466.5469
783.9298, 461.6821
784.4119, 438.2729
784.8940, 406.0469
785.3762, 350.4912
785.8583, 310.0908
786.3404, 302.8677
786.8225, 302.9004
787.3046, 288.1729
787.7867, 258.4897
788.2689, 225.3481
788.7510, 189.5601
789.2331, 166.7539
789.7152, 188.8599
790.1973, 224.0605
790.6794, 211.4062
791.1616, 156.5938
791.6437, 107.8413
792.1258, 84.57715
792.6079, 89.48730
793.0900, 137.9751
793.5721, 222.0107
794.0543, 260.2930
794.5364, 249.2920
795.0185, 210.1553
795.5006, 134.5996
795.9827, 63.50146
796.4648, 38.50781
796.9470, 54.91504
797.4291, 68.41016
797.9112, 83.62061
798.3933, 91.78711
798.8754, 96.31494
799.3575, 91.56641
799.8397, 57.22363
800.3218, 13.53662
800.8039, 6.436035
801.2860, 53.86084
801.7681, 94.95361
802.2502, 104.3213
802.7324, 92.17090
803.2145, 49.00342
803.6966, 4.658691
804.1787, 28.69873
804.6608, 14.39648
805.1429, 16.54932
805.6251, 52.24072
806.1072, 83.73633
806.5893, 82.01270
807.0714, 53.79199
807.5535, 56.33252
808.0356, 101.7183
808.5178, 139.7080
808.9999, 135.7188
809.4820, 103.7471
809.9641, 76.64600
810.4462, 52.09424
810.9283, 45.89697
811.4105, 71.28906
811.8926, 91.23389
812.3747, 86.18311
812.8568, 71.69873
813.3389, 65.84912
813.8210, 68.76855
814.3032, 68.43115
814.7853, 51.43018
815.2674, 45.78760
815.7495, 75.78711
816.2316, 109.8203
816.7137, 116.9868
817.1959, 101.7080
817.6780, 87.01465
818.1601, 83.03320
818.6422, 79.58594
819.1243, 63.59424
819.6064, 44.79834
820.0886, 40.32568
820.5707, 47.66064
821.0528, 51.13818
821.5349, 46.26123
822.0170, 45.44189
822.4991, 66.73340
822.9813, 100.9023
823.4634, 103.7588
823.9455, 73.32031
824.4276, 54.24121
824.9097, 58.66406
825.3918, 63.51514
825.8740, 49.77783
826.3561, 24.39502
826.8382, 11.50879
827.3203, 19.05957
827.8024, 20.46143
828.2845, 2.273438
828.7667, 8.768555
829.2488, 45.34180
829.7309, 105.6035
830.2130, 91.05957
830.6951, 1.686523
831.1772, 52.75195
831.6594, 7.368652
832.1415, 64.66260
832.6236, 70.42188
833.1057, 48.98291
833.5878, 12.89795
834.0699, 26.07031
834.5521, 45.83496
835.0342, 36.00195
835.5163, 8.170410
835.9984, 42.30615
836.4805, 95.61914
836.9626, 114.5469
837.4448, 105.5718
837.9269, 100.7354
838.4090, 110.3848
838.8911, 115.3174
839.3732, 89.15332
839.8553, 47.41162
840.3375, 52.63428
840.8196, 105.8330
841.3017, 158.9043
841.7838, 209.0288
842.2659, 227.5332
842.7480, 185.8071
843.2302, 111.1162
843.7123, 73.99121
844.1944, 90.83496
844.6765, 89.44873
845.1586, 51.62793
845.6407, 22.87988
846.1229, 30.38281
846.6050, 45.54688
847.0871, 31.79395
847.5692, 6.797363
848.0513, 15.42285
848.5334, 44.07861
849.0156, 92.72754
849.4977, 101.0669
849.9798, 97.86914
850.4619, 105.6841
850.9440, 120.0078
851.4261, 128.2964
851.9083, 127.0679
852.3904, 114.6846
852.8725, 73.91895
853.3546, 34.94482
853.8367, 37.52295
854.3188, 63.85205
854.8010, 76.12109
855.2831, 67.78467
855.7652, 57.97754
856.2473, 60.76514
856.7294, 69.51660
857.2115, 73.50439
857.6937, 73.19629
858.1758, 72.19287
858.6579, 70.85645
859.1400, 59.21582
859.6221, 30.04004
860.1042, 1.303711
860.5864, 12.76758
861.0685, 4.943848
861.5506, 6.603516
862.0327, 24.14697
862.5148, 37.35156
862.9969, 40.47852
863.4791, 46.13232
863.9612, 71.07227
864.4433, 105.0649
864.9254, 109.3267
865.4075, 55.56250
865.8896, 31.78125
866.3718, 76.16211
866.8539, 103.3091
867.3360, 55.66113
867.8181, 7.026367
868.3002, 7.752930
868.7823, 52.92773
869.2645, 93.47314
869.7466, 76.84180
870.2287, 57.27686
870.7108, 54.64600
871.1929, 58.44775
871.6750, 58.32031
872.1572, 56.87744
872.6393, 63.97705
873.1214, 83.40283
873.6035, 100.7812
874.0856, 108.3779
874.5677, 105.9854
875.0499, 86.47217
875.5320, 58.90088
876.0141, 43.40039
876.4962, 42.03711
876.9783, 38.07031
877.4604, 17.22168
877.9426, 0.1313480
878.4247, 30.50586
878.9068, 93.07861
879.3889, 132.8721
879.8710, 145.3311
880.3531, 138.9976
880.8353, 115.9282
881.3174, 92.70215
881.7995, 86.60645
882.2816, 94.64111
882.7637, 99.75781
883.2458, 101.7612
883.7280, 101.8145
884.2101, 99.23584
884.6922, 96.93164
885.1743, 97.26318
885.6564, 98.42871
886.1385, 96.77783
886.6207, 89.38184
887.1028, 97.66602
887.5849, 134.9185
888.0670, 163.8711
888.5491, 170.8135
889.0313, 164.5186
889.5134, 153.5342
889.9955, 136.7729
890.4776, 132.5371
890.9597, 155.7720
891.4418, 166.7261
891.9240, 133.4136
892.4061, 110.2739
892.8882, 152.6313
893.3703, 213.2285
893.8524, 216.4531
894.3345, 156.0337
894.8167, 107.0659
895.2988, 104.9521
895.7809, 116.1079
896.2630, 129.9165
896.7451, 141.0933
897.2272, 141.5576
897.7094, 135.6729
898.1915, 133.8081
898.6736, 140.5527
899.1557, 150.1401
899.6378, 150.8804
900.1199, 150.7603
900.6021, 168.5195
901.0842, 187.2344
901.5663, 158.2056
902.0484, 84.63525
902.5305, 27.51660
903.0126, 24.83936
903.4948, 57.29492
903.9769, 114.4521
904.4590, 180.9175
904.9411, 199.7148
905.4232, 172.9277
905.9053, 140.2642
906.3875, 117.0464
906.8696, 100.9644
907.3517, 91.53564
907.8338, 88.01807
908.3159, 87.23730
908.7980, 89.14600
909.2802, 102.3784
909.7623, 130.5938
910.2444, 147.5181
910.7265, 137.5825
911.2086, 118.3921
911.6907, 116.4937
912.1729, 131.7339
912.6550, 138.4341
913.1371, 130.0459
913.6192, 136.3960
914.1013, 178.1270
914.5834, 204.6304
915.0656, 167.6201
915.5477, 101.8574
916.0298, 90.32373
916.5119, 152.1450
916.9940, 196.7334
917.4761, 223.6006
917.9583, 232.8574
918.4404, 192.5669
918.9225, 163.7861
919.4046, 220.2456
919.8867, 329.8145
920.3688, 369.7695
920.8510, 290.9854
921.3331, 231.6157
921.8152, 215.6509
922.2973, 218.2344
922.7794, 243.1772
923.2615, 270.3208
923.7437, 270.4443
924.2258, 247.4219
924.7079, 242.3013
925.1900, 288.4443
925.6721, 318.3687
926.1542, 290.2393
926.6364, 252.6025
927.1185, 236.9375
927.6006, 240.1089
928.0827, 259.1431
928.5648, 290.1255
929.0469, 303.5356
929.5291, 274.8931
930.0112, 231.9849
930.4933, 187.3218
930.9754, 145.8350
931.4575, 106.8486
931.9396, 77.25049
932.4218, 82.45312
932.9039, 130.4448
933.3860, 165.5752
933.8681, 121.4590
934.3502, 52.55273
934.8323, 32.04199
935.3145, 39.57666
935.7966, 30.04688
936.2787, 2.935059
936.7608, 9.625000
937.2429, 10.50098
937.7250, 34.42432
938.2072, 16.10742
938.6893, 20.28271
939.1714, 11.60449
939.6535, 30.57129
940.1356, 58.20117
940.6177, 60.36377
941.0999, 46.68652
941.5820, 21.86230
942.0641, 3.586426
942.5462, 8.720215
943.0283, 2.778809
943.5104, 15.52100
943.9926, 27.84863
944.4747, 25.61719
944.9568, 4.182129
945.4389, 23.83838
945.9210, 49.90332
946.4031, 67.43506
946.8853, 48.87695
947.3674, 5.449707
947.8495, 24.46680
948.3316, 0.3032230
948.8137, 21.06152
949.2958, 23.03271
949.7780, 8.768555
950.2601, 22.58594
950.7422, 64.16113
951.2243, 77.39648
951.7064, 58.29639
952.1885, 34.86084
952.6707, 6.643555
953.1528, 14.63525
953.6349, 25.04004
954.1170, 21.25293
954.5991, 8.116211
955.0812, 59.93506
955.5634, 61.06836
956.0455, 18.93945
956.5276, 52.50977
957.0097, 3.731934
957.4918, 50.61670
957.9739, 71.75439
958.4561, 71.43018
958.9382, 68.21191
959.4203, 62.41699
959.9024, 47.10889
960.3845, 4.496582
960.8666, 11.14502
961.3488, 24.34277
961.8309, 66.48242
962.3130, 89.99658
962.7951, 101.1489
963.2772, 113.2173
963.7593, 128.5791
964.2415, 131.9927
964.7236, 110.3950
965.2057, 95.85059
965.6878, 83.09229
966.1699, 89.33936
966.6520, 135.3833
967.1342, 206.4072
967.6163, 274.1982
968.0984, 348.0708
968.5805, 378.1299
969.0626, 309.8403
969.5447, 267.5903
970.0269, 304.4453
970.5090, 358.5435
970.9911, 384.3892
971.4732, 389.5210
971.9553, 396.5933
972.4374, 405.8472
972.9196, 423.6958
973.4017, 473.3657
973.8838, 503.4136
974.3659, 466.4795
974.8480, 426.7607
975.3301, 462.8872
975.8123, 543.6387
976.2944, 558.7148
976.7765, 463.6006
977.2586, 394.0044
977.7407, 398.4551
978.2228, 412.3027
978.7050, 416.2832
979.1871, 409.3203
979.6692, 385.1826
980.1513, 350.2852
980.6334, 325.3877
981.1155, 317.3638
981.5977, 312.0713
982.0798, 303.0850
982.5619, 298.4360
983.0440, 308.7939
983.5261, 320.8086
984.0082, 316.4146
984.4904, 299.6167
984.9725, 289.7886
985.4546, 289.8086
985.9367, 303.7261
986.4188, 357.8086
986.9009, 398.2686
987.3831, 386.8916
987.8652, 349.1069
988.3473, 304.0273
988.8294, 261.6191
989.3115, 243.9243
989.7936, 262.0957
990.2758, 291.9688
990.7579, 341.9180
991.2400, 380.4043
991.7221, 382.2515
992.2042, 364.1343
992.6863, 337.2876
993.1685, 310.4307
993.6506, 307.8901
994.1327, 348.4707
994.6148, 381.8442
995.0969, 379.8965
995.5790, 371.4897
996.0612, 375.4170
996.5433, 384.3579
997.0254, 389.9067
997.5075, 392.8833
997.9896, 403.7446
998.4717, 434.3218
998.9539, 448.6436
999.4360, 406.6709
999.9181, 367.5132
1000.400, 387.9678
1000.882, 426.7729
1001.364, 421.8037
1001.847, 378.4248
1002.329, 353.8662
1002.811, 377.3281
1003.293, 390.1396
1003.775, 344.2104
1004.257, 300.9727
1004.739, 321.2681
1005.221, 362.1992
1005.703, 355.0786
1006.186, 307.6860
1006.668, 283.5098
1007.150, 316.1548
1007.632, 337.3115
1008.114, 300.6465
1008.596, 257.4272
1009.078, 235.9844
1009.560, 230.8501
1010.043, 239.1196
1010.525, 255.3545
1011.007, 263.3799
1011.489, 254.5347
1011.971, 253.1465
1012.453, 286.3452
1012.935, 311.3247
1013.417, 289.8076
1013.899, 254.6875
1014.382, 249.9077
1014.864, 271.0527
1015.346, 269.6787
1015.828, 227.3682
1016.310, 187.3174
1016.792, 163.6509
1017.274, 149.4062
1017.756, 146.0835
1018.239, 146.0786
1018.721, 141.9702
1019.203, 134.8560
1019.685, 128.8491
1020.167, 126.7891
1020.649, 116.5356
1021.131, 69.07861
1021.613, 43.60254
1022.095, 96.92285
1022.578, 159.9897
1023.060, 163.2134
1023.542, 122.7275
1024.024, 88.88818
1024.506, 69.60449
1024.988, 73.54590
1025.470, 125.4536
1025.952, 171.5356
1026.435, 186.1865
1026.917, 193.3149
1027.399, 218.8027
1027.881, 256.2559
1028.363, 288.1665
1028.845, 311.1313
1029.327, 331.1919
1029.809, 352.0952
1030.292, 368.6260
1030.774, 372.0796
1031.256, 378.9180
1031.738, 394.4478
1032.220, 423.3594
1032.702, 477.5405
1033.184, 560.0723
1033.666, 635.7690
1034.148, 695.1587
1034.630, 750.8989
1035.113, 803.1108
1035.595, 857.7197
1036.077, 920.1816
1036.559, 985.7295
1037.041, 1047.336
1037.523, 1105.056
1038.005, 1159.631
1038.487, 1208.435
1038.970, 1258.469
1039.452, 1321.783
1039.934, 1371.681
1040.416, 1398.685
1040.898, 1403.993
1041.380, 1383.710
1041.862, 1340.495
1042.344, 1304.152
1042.826, 1287.609
1043.309, 1249.047
1043.791, 1175.705
1044.273, 1101.342
1044.755, 1037.192
1045.237, 977.3271
1045.719, 913.3120
1046.201, 848.4663
1046.683, 800.6221
1047.166, 781.9785
1047.648, 734.2974
1048.130, 644.2495
1048.612, 562.8062
1049.094, 503.8979
1049.576, 462.8604
1050.058, 440.7837
1050.540, 427.6372
1051.022, 392.3735
1051.505, 330.1895
1051.987, 299.9004
1052.469, 309.9971
1052.951, 295.4482
1053.433, 235.3970
1053.915, 179.1533
1054.397, 158.9170
1054.879, 164.3994
1055.361, 182.2358
1055.844, 209.5103
1056.326, 204.0723
1056.808, 166.1069
1057.290, 158.2036
1057.772, 191.3252
1058.254, 229.4663
1058.736, 255.0713
1059.218, 260.7124
1059.701, 229.7749
1060.183, 176.4517
1060.665, 144.0244
1061.147, 132.6694
1061.629, 154.5513
1062.111, 204.6426
1062.593, 234.3735
1063.075, 225.4580
1063.557, 204.3022
1064.040, 192.9580
1064.522, 191.5249
1065.004, 214.6445
1065.486, 246.1807
1065.968, 237.4546
1066.450, 199.3428
1066.932, 183.1655
1067.414, 199.0576
1067.896, 219.6279
1068.379, 230.6387
1068.861, 230.2114
1069.343, 213.7891
1069.825, 185.9258
1070.307, 140.9604
1070.789, 94.35693
1071.271, 80.72021
1071.753, 97.45020
1072.236, 108.0757
1072.718, 95.23779
1073.200, 80.77686
1073.682, 79.45898
1074.164, 84.26807
1074.646, 96.98730
1075.128, 106.7642
1075.610, 94.53320
1076.093, 69.74072
1076.575, 58.15625
1077.057, 68.04395
1077.539, 77.00488
1078.021, 81.59277
1078.503, 75.37549
1078.985, 44.22363
1079.467, 10.39551
1079.949, 15.33594
1080.432, 28.96533
1080.914, 25.30371
1081.396, 4.202637
1081.878, 25.78223
1082.360, 104.1577
1082.842, 130.1323
1083.324, 26.33936
1083.806, 58.45215
1084.288, 28.31055
1084.771, 32.67578
1085.253, 25.23145
1085.735, 33.73438
1086.217, 58.86768
1086.699, 35.54248
1087.181, 16.82422
1087.663, 4.817871
1088.145, 7.454590
1088.628, 24.35840
1089.110, 37.50000
1089.592, 41.87354
1090.074, 36.48926
1090.556, 14.83691
1091.038, 24.76172
1091.520, 26.36719
1092.002, 18.83252
1092.484, 44.39648
1092.967, 38.64600
1093.449, 23.45557
1093.931, 5.968750
1094.413, 1.782715
1094.895, 36.61865
1095.377, 91.25928
1095.859, 78.76562
1096.341, 13.29541
1096.823, 19.26953
1097.306, 96.80713
1097.788, 139.4155
1098.270, 115.1357
1098.752, 89.98047
1099.234, 117.6621
1099.716, 167.1421
1100.198, 200.4321
1100.680, 215.5615
1101.163, 191.9033
1101.645, 151.5454
1102.127, 152.5498
1102.609, 198.9771
1103.091, 256.3604
1103.573, 311.8555
1104.055, 345.2456
1104.537, 328.7466
1105.020, 293.5093
1105.502, 252.2773
1105.984, 221.0659
1106.466, 227.7627
1106.948, 257.1318
1107.430, 275.2935
1107.912, 274.6255
1108.394, 264.6670
1108.876, 245.0864
1109.359, 223.2739
1109.841, 202.3828
1110.323, 179.8062
1110.805, 148.7944
1111.287, 120.9565
1111.769, 111.6494
1112.251, 121.3359
1112.733, 138.2217
1113.215, 174.1118
1113.698, 184.6328
1114.180, 145.8228
1114.662, 118.0791
1115.144, 119.2935
1115.626, 129.2881
1116.108, 140.1216
1116.590, 145.0044
1117.072, 128.6128
1117.555, 90.74756
1118.037, 68.29932
1118.519, 61.12646
1119.001, 69.08789
1119.483, 99.19189
1119.965, 104.4639
1120.447, 61.15625
1120.929, 11.95410
1121.411, 0.3481450
1121.894, 18.15723
1122.376, 61.39014
1122.858, 113.6533
1123.340, 101.0396
1123.822, 35.72559
1124.304, 7.196289
1124.786, 10.57227
1125.268, 10.65381
1125.750, 49.62988
1126.233, 81.74268
1126.715, 68.78760
1127.197, 41.12842
1127.679, 40.99561
1128.161, 55.27441
1128.643, 63.23535
1129.125, 65.80371
1129.607, 75.54785
1130.090, 94.11084
1130.572, 102.2114
1131.054, 83.21680
1131.536, 64.25049
1132.018, 62.93115
1132.500, 61.25049
1132.982, 31.28857
1133.464, 5.192871
1133.947, 40.80029
1134.429, 116.8550
1134.911, 134.8735
1135.393, 57.28613
1135.875, 10.66895
1136.357, 29.89258
1136.839, 43.94873
1137.321, 38.58203
1137.803, 27.50439
1138.286, 11.91650
1138.768, 4.465820
1139.250, 26.68848
1139.732, 73.50586
1140.214, 107.0029
1140.696, 127.5938
1141.178, 129.5698
1141.660, 107.5757
1142.142, 88.41455
1142.625, 78.69971
1143.107, 67.44678
1143.589, 43.57715
1144.071, 21.97168
1144.553, 41.75684
1145.035, 83.76367
1145.517, 80.95898
1145.999, 51.73535
1146.482, 57.69775
1146.964, 95.95361
1147.446, 117.5249
1147.928, 104.8271
1148.410, 91.24854
1148.892, 110.8804
1149.374, 121.0405
1149.856, 60.77148
1150.339, 5.464355
1150.821, 9.078613
1151.303, 24.49561
1151.785, 59.88574
1152.267, 88.69629
1152.749, 103.7290
1153.231, 97.16162
1153.713, 101.0552
1154.195, 149.1118
1154.677, 171.8887
1155.160, 127.1328
1155.642, 74.30957
1156.124, 47.95947
1156.606, 37.12891
1157.088, 25.62109
1157.570, 14.75830
1158.052, 20.57324
1158.534, 52.91846
1159.017, 51.49854
1159.499, 4.376465
1159.981, 20.52832
1160.463, 0.9960940
1160.945, 28.42578
1161.427, 43.00391
1161.909, 52.48877
1162.391, 73.47021
1162.874, 99.70898
1163.356, 105.5957
1163.838, 96.54150
1164.320, 89.76758
1164.802, 85.77734
1165.284, 71.90527
1165.766, 46.98096
1166.248, 41.38525
1166.730, 91.69385
1167.213, 125.6377
1167.695, 50.82715
1168.177, 32.76562
1168.659, 35.14502
1169.141, 7.016113
1169.623, 54.76660
1170.105, 98.53076
1170.587, 131.0527
1171.069, 151.3223
1171.552, 158.9307
1172.034, 156.3306
1172.516, 136.7832
1172.998, 74.36523
1173.480, 32.06006
1173.962, 52.76074
1174.444, 81.62158
1174.926, 54.45117
1175.409, 5.353027
1175.891, 9.439941
1176.373, 48.84229
1176.855, 60.84814
1177.337, 25.11719
1177.819, 17.50928
1178.301, 50.96680
1178.783, 59.69238
1179.266, 11.21094
1179.748, 32.50098
1180.230, 0.8095700
1180.712, 60.78027
1181.194, 80.95215
1181.676, 78.01270
1182.158, 76.45117
1182.640, 78.93359
1183.122, 88.38232
1183.604, 100.6587
1184.087, 103.5991
1184.569, 92.54736
1185.051, 75.83496
1185.533, 48.27393
1186.015, 28.82617
1186.497, 30.50293
1186.979, 36.25098
1187.461, 35.88916
1187.944, 31.11035
1188.426, 17.57324
1188.908, 1.950684
1189.390, 16.81641
1189.872, 75.54932
1190.354, 115.5962
1190.836, 133.5205
1191.318, 141.9873
1191.801, 144.4966
1192.283, 140.3447
1192.765, 129.4360
1193.247, 113.2402
1193.729, 90.00098
1194.211, 68.40234
1194.693, 72.17725
1195.175, 92.88574
1195.657, 110.9653
1196.140, 124.8618
1196.622, 133.1519
1197.104, 135.0425
1197.586, 149.0918
1198.068, 181.7017
1198.550, 191.7754
1199.032, 126.0630
1199.514, 66.24805
1199.996, 67.03613
1200.479, 83.13232
1200.961, 83.10986
1201.443, 72.76318
1201.925, 63.44971
1202.407, 60.62402
1202.889, 43.30957
1203.371, 7.875977
1203.853, 6.340820
1204.336, 71.28857
1204.818, 126.6826
1205.300, 140.5000
1205.782, 120.4155
1206.264, 71.06201
1206.746, 33.07520
1207.228, 47.90674
1207.710, 89.00146
1208.193, 88.03906
1208.675, 59.10938
1209.157, 36.90234
1209.639, 21.35400
1210.121, 29.27686
1210.603, 52.20166
1211.085, 68.80469
1211.567, 64.53711
1212.049, 64.32666
1212.531, 78.25439
1213.014, 90.62842
1213.496, 103.3789
1213.978, 101.2383
1214.460, 50.53662
1214.942, 4.486816
1215.424, 0.8491210
1215.906, 48.96436
1216.388, 67.74463
1216.871, 51.85156
1217.353, 56.29297
1217.835, 93.85889
1218.317, 89.61133
1218.799, 24.01270
1219.281, 15.32764
1219.763, 9.593262
1220.245, 47.61426
1220.728, 51.88086
1221.210, 42.12793
1221.692, 55.40479
1222.174, 78.67188
1222.656, 78.19629
1223.138, 69.82373
1223.620, 94.87598
1224.102, 146.4326
1224.584, 150.1997
1225.067, 93.92090
1225.549, 58.61084
1226.031, 98.44922
1226.513, 125.8389
1226.995, 106.3120
1227.477, 75.24414
1227.959, 26.86182
1228.441, 4.059570
1228.923, 19.09131
1229.406, 63.26807
1229.888, 73.28857
1230.370, 53.26074
1230.852, 67.14453
1231.334, 112.9634
1231.816, 139.3687
1232.298, 139.0171
1232.780, 112.3320
1233.263, 63.66797
1233.745, 42.94873
1234.227, 79.22607
1234.709, 118.9863
1235.191, 95.71240
1235.673, 59.87207
1236.155, 72.64258
1236.637, 98.66260
1237.120, 91.71387
1237.602, 70.38086
1238.084, 64.37500
1238.566, 76.09326
1239.048, 101.4053
1239.530, 150.6890
1240.012, 165.2339
1240.494, 126.5210
1240.976, 82.69629
1241.458, 28.69189
1241.941, 0.6835940
1242.423, 12.23682
1242.905, 0.0000000E+00
##END=



