##NAMES=Antimony
##RRUFFID=R070318
##IDEAL CHEMISTRY=Sb
##LOCALITY=Arechuybo, Chihuahua, Mexico
##OWNER=RRUFF
##SOURCE=James Shigley
##DESCRIPTION=Bright silver metallic lamellar
##STATUS=The identification of this mineral is not yet confirmed.
##URL=rruff.info/R070318
138.3756, 0.0000000E+00
138.8577, 86.89307
139.3398, 217.6738
139.8220, 375.2900
140.3041, 509.4902
140.7862, 508.0635
141.2683, 307.3579
141.7504, 127.8032
142.2325, 1.280273
142.7147, 38.09180
143.1968, 42.16553
143.6789, 248.2158
144.1610, 484.5503
144.6431, 720.0649
145.1252, 1005.355
145.6074, 1371.779
146.0895, 1817.961
146.5716, 2325.131
147.0537, 2888.220
147.5358, 3509.743
148.0179, 4123.470
148.5001, 4782.302
148.9822, 5394.331
149.4643, 5928.451
149.9464, 6378.875
150.4285, 6678.070
150.9106, 6761.319
151.3928, 6619.625
151.8749, 6359.167
152.3570, 5964.263
152.8391, 5464.833
153.3212, 4854.995
153.8033, 4137.036
154.2855, 3405.768
154.7676, 2689.116
155.2497, 2009.548
155.7318, 1471.433
156.2139, 1138.637
156.6960, 933.5999
157.1782, 771.9136
157.6603, 644.8044
158.1424, 571.8362
158.6245, 610.7080
159.1066, 723.8042
159.5887, 829.3369
160.0709, 911.7400
160.5530, 974.7034
161.0351, 1020.096
161.5172, 1041.315
161.9993, 1054.538
162.4814, 1086.199
162.9636, 1121.070
163.4457, 1128.823
163.9278, 1085.307
164.4099, 1015.559
164.8920, 970.1543
165.3741, 964.9417
165.8563, 962.3728
166.3384, 933.3994
166.8205, 881.9849
167.3026, 808.6655
167.7847, 699.0054
168.2668, 574.1018
168.7490, 482.7866
169.2311, 418.9844
169.7132, 378.2214
170.1953, 372.5701
170.6774, 387.5574
171.1595, 398.0718
171.6417, 392.5559
172.1238, 374.5386
172.6059, 351.8877
173.0880, 323.1687
173.5701, 293.4309
174.0522, 264.3181
174.5344, 235.0100
175.0165, 204.6401
175.4986, 168.0168
175.9807, 132.0381
176.4628, 120.0715
176.9449, 149.4539
177.4271, 169.9570
177.9092, 156.1167
178.3913, 124.9758
178.8734, 99.96875
179.3555, 93.40698
179.8376, 98.81934
180.3197, 96.76807
180.8019, 82.83643
181.2840, 69.48486
181.7661, 59.75537
182.2482, 52.84839
182.7303, 47.04272
183.2124, 40.03833
183.6946, 35.50171
184.1767, 47.31006
184.6588, 92.72827
185.1409, 124.2329
185.6230, 120.9392
186.1051, 102.0039
186.5873, 89.42383
187.0694, 93.94556
187.5515, 109.3867
188.0336, 119.8840
188.5157, 127.2041
188.9978, 123.7012
189.4800, 106.8718
189.9621, 81.03149
190.4442, 48.71973
190.9263, 10.62378
191.4084, 29.26270
191.8905, 62.84387
192.3727, 97.30835
192.8548, 111.3143
193.3369, 91.43542
193.8190, 57.70398
194.3011, 28.08142
194.7832, 9.301514
195.2654, 0.4058840
195.7475, 4.720093
196.2296, 20.51941
196.7117, 28.38440
197.1938, 29.15417
197.6759, 22.68604
198.1581, 5.224121
198.6402, 23.92871
199.1223, 55.25000
199.6044, 71.63293
200.0865, 68.34338
200.5686, 61.40515
201.0508, 45.29224
201.5329, 24.28357
202.0150, 0.9525150
202.4971, 29.08289
202.9792, 55.66235
203.4613, 72.97668
203.9435, 76.81201
204.4256, 80.46094
204.9077, 83.71741
205.3898, 87.54724
205.8719, 93.44885
206.3540, 101.3356
206.8362, 108.8972
207.3183, 112.6772
207.8004, 111.3114
208.2825, 109.7273
208.7646, 106.3208
209.2467, 103.9073
209.7289, 105.4290
210.2110, 110.5566
210.6931, 115.4934
211.1752, 114.7386
211.6573, 104.9990
212.1395, 102.0983
212.6216, 111.6753
213.1037, 122.8243
213.5858, 128.7516
214.0679, 130.5247
214.5500, 135.0112
215.0322, 150.8466
215.5143, 181.3358
215.9964, 200.9221
216.4785, 200.4343
216.9606, 197.7506
217.4427, 198.6415
217.9249, 203.0876
218.4070, 208.4950
218.8891, 212.5121
219.3712, 215.0481
219.8533, 220.0984
220.3354, 231.7465
220.8176, 242.0410
221.2997, 249.4374
221.7818, 253.8000
222.2639, 255.1259
222.7460, 253.1597
223.2281, 248.0370
223.7103, 243.0463
224.1924, 237.6281
224.6745, 233.2129
225.1566, 230.6255
225.6387, 229.1002
226.1208, 226.6672
226.6030, 222.2566
227.0851, 216.9460
227.5672, 215.2506
228.0493, 220.0930
228.5314, 225.6200
229.0135, 232.4797
229.4957, 238.7489
229.9778, 242.2437
230.4599, 241.9559
230.9420, 238.7838
231.4241, 234.5361
231.9062, 227.1316
232.3884, 222.6260
232.8705, 221.2668
233.3526, 222.6873
233.8347, 227.2428
234.3168, 235.1739
234.7989, 244.9567
235.2811, 254.3936
235.7632, 266.5897
236.2453, 269.4990
236.7274, 249.8190
237.2095, 230.3337
237.6916, 229.3170
238.1738, 248.7534
238.6559, 273.3122
239.1380, 282.6785
239.6201, 270.9817
240.1022, 265.9669
240.5843, 274.7794
241.0665, 285.3754
241.5486, 292.3334
242.0307, 295.7394
242.5128, 298.8900
242.9949, 305.5240
243.4770, 316.1743
243.9592, 319.7407
244.4413, 306.2366
244.9234, 295.1619
245.4055, 294.5703
245.8876, 302.5142
246.3697, 313.2045
246.8519, 324.0682
247.3340, 334.3546
247.8161, 336.9126
248.2982, 321.0900
248.7803, 311.4766
249.2624, 318.7885
249.7446, 335.2377
250.2267, 347.4493
250.7088, 348.9801
251.1909, 345.8062
251.6730, 350.0756
252.1551, 363.4899
252.6373, 379.7380
253.1194, 399.2776
253.6015, 418.4540
254.0836, 434.1007
254.5657, 445.2040
255.0478, 450.8959
255.5300, 447.6815
256.0121, 432.0048
256.4942, 418.6594
256.9763, 414.8971
257.4584, 414.4542
257.9406, 413.7708
258.4227, 412.1115
258.9048, 411.7471
259.3869, 417.2538
259.8690, 429.4226
260.3511, 433.9144
260.8333, 421.2891
261.3154, 405.6729
261.7975, 396.5604
262.2796, 394.2599
262.7617, 394.9858
263.2438, 395.9913
263.7260, 397.6689
264.2081, 403.5009
264.6902, 418.9095
265.1723, 430.3612
265.6544, 424.2502
266.1365, 405.5764
266.6187, 391.0700
267.1008, 390.3376
267.5829, 398.8723
268.0650, 407.4275
268.5471, 415.6200
269.0292, 424.3173
269.5114, 438.4978
269.9935, 453.1815
270.4756, 458.5780
270.9577, 447.3407
271.4398, 429.6115
271.9219, 416.7474
272.4041, 408.9022
272.8862, 400.2568
273.3683, 385.5402
273.8504, 369.4120
274.3325, 361.3557
274.8146, 366.8015
275.2968, 371.2063
275.7789, 361.9591
276.2610, 342.5779
276.7431, 328.2032
277.2252, 326.0172
277.7073, 328.8668
278.1895, 323.9553
278.6716, 309.6508
279.1537, 296.8622
279.6358, 293.2019
280.1179, 292.7998
280.6000, 283.8977
281.0822, 262.7931
281.5643, 239.6290
282.0464, 226.9496
282.5285, 225.7022
283.0106, 223.7534
283.4927, 221.1632
283.9749, 216.4246
284.4570, 206.5794
284.9391, 191.9321
285.4212, 177.8718
285.9033, 168.8521
286.3854, 164.9717
286.8676, 161.3947
287.3497, 159.0659
287.8318, 156.0900
288.3139, 153.9594
288.7960, 150.6550
289.2781, 139.2994
289.7603, 114.3479
290.2424, 81.31720
290.7245, 64.26874
291.2066, 74.81744
291.6887, 85.74139
292.1708, 96.15759
292.6530, 103.6838
293.1351, 104.1033
293.6172, 96.09393
294.0993, 84.29230
294.5814, 77.05774
295.0635, 79.08466
295.5457, 77.04211
296.0278, 65.49219
296.5099, 54.01343
296.9920, 49.66876
297.4741, 52.81323
297.9562, 59.28778
298.4384, 65.33063
298.9205, 71.28748
299.4026, 74.35657
299.8847, 72.96454
300.3668, 70.33234
300.8489, 67.51422
301.3311, 64.80579
301.8131, 61.16412
302.2953, 54.78040
302.7774, 46.86859
303.2595, 44.33618
303.7416, 50.41870
304.2237, 57.75433
304.7058, 66.07404
305.1880, 73.67657
305.6701, 79.24969
306.1522, 82.56750
306.6343, 83.69958
307.1164, 81.89752
307.5985, 75.99792
308.0807, 71.92505
308.5628, 71.69135
309.0449, 73.39868
309.5270, 77.01874
310.0091, 81.86230
310.4912, 84.94806
310.9734, 82.64203
311.4555, 75.70276
311.9376, 70.99994
312.4197, 70.99591
312.9018, 70.50159
313.3839, 65.38403
313.8661, 57.13098
314.3482, 49.32886
314.8303, 42.01569
315.3124, 37.47650
315.7945, 40.15454
316.2766, 51.13593
316.7588, 60.97583
317.2409, 65.52277
317.7230, 64.93158
318.2051, 58.78967
318.6872, 43.87952
319.1693, 29.05621
319.6515, 20.72510
320.1336, 18.09033
320.6157, 17.84357
321.0978, 19.59698
321.5799, 22.16394
322.0620, 23.28027
322.5442, 22.46478
323.0263, 23.20691
323.5084, 28.78180
323.9905, 35.49860
324.4726, 38.45801
324.9547, 36.85107
325.4369, 32.82843
325.9190, 27.52576
326.4011, 20.71753
326.8832, 18.38483
327.3653, 22.84406
327.8474, 29.45435
328.3296, 39.08423
328.8117, 49.12250
329.2938, 51.97241
329.7759, 42.36139
330.2580, 23.59778
330.7401, 11.00647
331.2223, 8.221130
331.7044, 7.111206
332.1865, 6.475952
332.6686, 7.277649
333.1507, 12.34436
333.6328, 21.98840
334.1150, 31.06024
334.5971, 30.98975
335.0792, 16.36298
335.5613, 7.296936
336.0434, 7.845093
336.5255, 9.676941
337.0077, 8.183533
337.4898, 4.006653
337.9719, 0.6177980
338.4540, 0.8557130
338.9361, 4.368530
339.4182, 7.883911
339.9004, 10.16327
340.3825, 14.41620
340.8646, 24.52686
341.3467, 35.87781
341.8288, 42.29242
342.3109, 41.09650
342.7931, 36.08905
343.2752, 32.46991
343.7573, 30.31732
344.2394, 28.95673
344.7215, 27.99933
345.2036, 28.10980
345.6858, 30.47931
346.1679, 35.08221
346.6500, 38.59320
347.1321, 38.11462
347.6142, 34.86353
348.0963, 32.14447
348.5785, 30.14709
349.0606, 29.54553
349.5427, 33.56738
350.0248, 39.69928
350.5069, 39.84064
350.9890, 27.46307
351.4712, 12.52472
351.9533, 0.8446660
352.4354, 7.053284
352.9175, 7.830872
353.3996, 1.936340
353.8817, 17.56213
354.3639, 26.66443
354.8460, 27.50708
355.3281, 27.31848
355.8102, 28.22595
356.2923, 28.69531
356.7744, 27.34344
357.2566, 23.74829
357.7387, 17.05273
358.2208, 5.415222
358.7029, 13.27234
359.1850, 24.75964
359.6671, 24.37482
360.1493, 22.57922
360.6314, 24.65881
361.1135, 28.96545
361.5956, 30.80048
362.0777, 27.14240
362.5598, 19.93048
363.0420, 16.59155
363.5241, 21.80182
364.0062, 23.31744
364.4883, 15.77197
364.9704, 6.825562
365.4525, 3.791748
365.9347, 7.823853
366.4168, 13.23346
366.8989, 13.54218
367.3810, 8.446350
367.8631, 3.022095
368.3452, 4.677368
368.8274, 9.908936
369.3095, 8.032654
369.7916, 2.013977
370.2737, 0.5597530
370.7558, 7.244324
371.2379, 17.76178
371.7201, 15.37830
372.2022, 2.135681
372.6843, 14.38599
373.1664, 10.25586
373.6485, 3.864258
374.1306, 18.39099
374.6128, 34.23071
375.0949, 42.99225
375.5770, 34.73505
376.0591, 17.75763
376.5412, 9.061096
377.0233, 12.83252
377.5055, 20.81842
377.9876, 23.51770
378.4697, 19.31158
378.9518, 19.03284
379.4339, 27.61176
379.9160, 36.46899
380.3982, 40.51019
380.8803, 40.54370
381.3624, 39.09930
381.8445, 37.28986
382.3266, 35.80804
382.8087, 36.89929
383.2909, 48.48438
383.7730, 51.79694
384.2551, 37.71906
384.7372, 21.02588
385.2193, 14.33899
385.7014, 19.25006
386.1836, 28.40466
386.6657, 34.27893
387.1478, 36.54626
387.6299, 38.85168
388.1120, 42.62561
388.5941, 44.61914
389.0763, 43.37604
389.5584, 39.82001
390.0405, 34.98596
390.5226, 28.74817
391.0047, 22.98920
391.4868, 20.25970
391.9690, 20.53583
392.4511, 24.49701
392.9332, 35.93085
393.4153, 47.96478
393.8974, 54.35065
394.3795, 54.01575
394.8617, 51.44482
395.3438, 48.36078
395.8259, 44.46338
396.3080, 38.14148
396.7901, 29.03650
397.2722, 22.11475
397.7544, 21.71558
398.2365, 26.61206
398.7186, 29.31830
399.2007, 26.28925
399.6828, 24.97955
400.1649, 31.88287
400.6471, 41.57532
401.1292, 43.39868
401.6113, 33.79205
402.0934, 21.13660
402.5755, 18.08630
403.0576, 28.96802
403.5398, 36.63190
404.0219, 41.22699
404.5040, 43.03772
404.9861, 40.54871
405.4682, 35.37390
405.9503, 30.96686
406.4325, 29.51215
406.9146, 30.47504
407.3967, 31.92932
407.8788, 33.26465
408.3609, 36.41736
408.8430, 44.79926
409.3252, 52.89679
409.8073, 55.69141
410.2894, 52.58112
410.7715, 48.42639
411.2536, 46.83905
411.7357, 47.60583
412.2179, 51.24207
412.7000, 59.63025
413.1821, 66.18073
413.6642, 65.81744
414.1463, 60.46844
414.6284, 52.73413
415.1106, 40.07666
415.5927, 29.88721
416.0748, 26.41962
416.5569, 27.98047
417.0390, 31.58398
417.5211, 37.31506
418.0033, 43.14978
418.4854, 45.69238
418.9675, 43.99597
419.4496, 41.55249
419.9317, 37.96674
420.4138, 34.69525
420.8960, 32.37244
421.3781, 30.57104
421.8602, 29.14771
422.3423, 28.32776
422.8244, 28.04718
423.3065, 27.68994
423.7887, 26.13110
424.2708, 25.76379
424.7529, 29.93219
425.2350, 33.88409
425.7171, 31.92896
426.1992, 24.08289
426.6814, 16.68518
427.1635, 18.18787
427.6456, 27.27826
428.1277, 27.43384
428.6098, 13.82343
429.0919, 1.090820
429.5741, 1.041504
430.0562, 1.635559
430.5383, 0.1008300
431.0204, 9.343262
431.5025, 17.14026
431.9846, 14.49316
432.4668, 4.142883
432.9489, 4.937866
433.4310, 10.96722
433.9131, 13.27094
434.3952, 8.818604
434.8773, 3.564209
435.3595, 7.956909
435.8416, 3.718567
436.3237, 17.07959
436.8058, 23.49127
437.2879, 24.30811
437.7701, 24.44366
438.2522, 26.40656
438.7343, 29.19836
439.2164, 30.21320
439.6985, 28.17468
440.1806, 26.57605
440.6628, 26.06268
441.1449, 25.47736
441.6270, 24.09259
442.1091, 21.92059
442.5912, 19.20386
443.0733, 15.47467
443.5555, 11.62091
444.0376, 11.59155
444.5197, 17.07922
445.0018, 21.37469
445.4839, 19.65277
445.9660, 16.83264
446.4482, 18.67065
446.9303, 26.60199
447.4124, 33.27441
447.8945, 31.41644
448.3766, 25.64856
448.8587, 28.23932
449.3409, 41.68439
449.8230, 50.56250
450.3051, 39.54840
450.7872, 11.74371
451.2693, 0.8742680
451.7514, 15.37878
452.2336, 29.92883
452.7157, 30.97803
453.1978, 24.85083
453.6799, 19.84802
454.1620, 18.67499
454.6441, 20.36896
455.1263, 24.20642
455.6084, 30.98737
456.0905, 35.34546
456.5726, 34.51483
457.0547, 33.96838
457.5368, 36.16675
458.0190, 39.54102
458.5011, 41.15845
458.9832, 39.49298
459.4653, 37.07336
459.9474, 38.74908
460.4295, 44.60852
460.9117, 45.96698
461.3938, 38.80115
461.8759, 29.72534
462.3580, 24.46985
462.8401, 22.46661
463.3222, 20.96869
463.8044, 19.46826
464.2865, 17.96143
464.7686, 15.92407
465.2507, 13.75397
465.7328, 13.30048
466.2149, 15.64960
466.6971, 19.13293
467.1792, 20.49335
467.6613, 18.77539
468.1434, 16.74573
468.6255, 13.51630
469.1076, 10.73987
469.5898, 8.685486
470.0719, 7.965271
470.5540, 10.85565
471.0361, 19.82086
471.5182, 30.60059
472.0003, 28.66974
472.4825, 6.180542
472.9646, 8.008179
473.4467, 0.4129640
473.9288, 13.52862
474.4109, 20.22186
474.8930, 20.18011
475.3752, 19.53876
475.8573, 20.71582
476.3394, 23.94952
476.8215, 32.32343
477.3036, 45.94574
477.7857, 52.74567
478.2679, 44.46558
478.7500, 27.36658
479.2321, 16.26025
479.7142, 11.66528
480.1963, 10.51477
480.6784, 15.94104
481.1606, 22.08075
481.6427, 22.06781
482.1248, 16.67249
482.6069, 13.03125
483.0890, 16.86133
483.5711, 26.47601
484.0533, 32.46179
484.5354, 32.31622
485.0175, 32.56622
485.4996, 34.18750
485.9817, 36.42413
486.4638, 39.32031
486.9460, 42.26123
487.4281, 43.91425
487.9102, 42.74792
488.3923, 39.39563
488.8744, 34.94183
489.3565, 28.69415
489.8387, 26.78760
490.3208, 35.60052
490.8029, 49.53326
491.2850, 56.96588
491.7671, 55.42664
492.2492, 50.01422
492.7314, 39.64825
493.2135, 28.44934
493.6956, 19.87994
494.1777, 14.75244
494.6598, 16.72272
495.1419, 30.75940
495.6241, 53.63098
496.1062, 62.03955
496.5883, 39.69794
497.0704, 24.15814
497.5525, 22.38611
498.0346, 26.67310
498.5168, 32.85553
498.9989, 39.12476
499.4810, 42.24658
499.9631, 38.11493
500.4452, 28.75165
500.9273, 20.60101
501.4095, 12.44379
501.8916, 11.18811
502.3737, 26.76477
502.8558, 46.96509
503.3379, 51.56512
503.8200, 36.24109
504.3022, 22.00275
504.7843, 16.89532
505.2664, 16.84851
505.7485, 19.09882
506.2306, 22.52753
506.7127, 23.24402
507.1949, 18.00507
507.6770, 8.890381
508.1591, 5.164978
508.6412, 12.70306
509.1233, 16.40131
509.6054, 12.47968
510.0876, 8.250610
510.5697, 10.78992
511.0518, 19.12738
511.5339, 25.92767
512.0161, 24.95245
512.4982, 19.31281
512.9803, 17.16730
513.4624, 18.72162
513.9445, 22.91034
514.4266, 31.56775
514.9088, 40.80719
515.3909, 46.35034
515.8730, 48.30634
516.3551, 46.00000
516.8372, 34.36383
517.3193, 21.97351
517.8015, 17.72705
518.2836, 20.36249
518.7657, 22.59192
519.2478, 20.42877
519.7299, 16.17090
520.2120, 15.38452
520.6942, 21.34412
521.1763, 24.58209
521.6584, 22.52789
522.1405, 20.44843
522.6226, 21.31329
523.1047, 24.49384
523.5869, 28.11011
524.0690, 31.71002
524.5511, 34.23328
525.0332, 32.64581
525.5153, 26.95178
525.9974, 24.47943
526.4796, 28.47406
526.9617, 33.69116
527.4438, 35.02039
527.9259, 32.83301
528.4080, 28.25616
528.8901, 16.35901
529.3723, 7.140686
529.8544, 8.803040
530.3365, 16.71344
530.8186, 22.00824
531.3007, 23.03564
531.7828, 22.41907
532.2650, 23.74573
532.7471, 27.60022
533.2292, 28.95465
533.7113, 23.17413
534.1934, 20.33966
534.6755, 27.76971
535.1577, 38.25519
535.6398, 40.83618
536.1219, 31.66541
536.6040, 21.32147
537.0861, 20.07507
537.5682, 25.50403
538.0504, 31.00415
538.5325, 36.39197
539.0146, 38.03687
539.4967, 31.26422
539.9788, 18.63739
540.4609, 13.19275
540.9431, 22.95404
541.4252, 28.18390
541.9073, 19.83716
542.3894, 8.426331
542.8715, 3.740662
543.3536, 6.680298
543.8358, 13.13245
544.3179, 20.57916
544.8000, 28.16278
545.2821, 31.83752
545.7642, 30.47064
546.2463, 28.33691
546.7285, 28.71667
547.2106, 26.91315
547.6927, 16.07678
548.1748, 2.593140
548.6569, 15.18384
549.1390, 12.11603
549.6211, 2.299377
550.1032, 7.000610
550.5853, 14.94843
551.0674, 18.41943
551.5496, 15.91168
552.0317, 9.673462
552.5138, 2.816284
552.9959, 6.451721
553.4780, 10.15277
553.9601, 6.069092
554.4423, 0.3267820
554.9244, 9.600220
555.4065, 18.88806
555.8886, 23.64294
556.3707, 22.12537
556.8528, 18.39264
557.3350, 17.42291
557.8171, 18.78925
558.2992, 18.77136
558.7813, 16.54858
559.2634, 14.35852
559.7455, 13.17725
560.2277, 13.47937
560.7098, 16.23230
561.1919, 24.55988
561.6740, 29.89136
562.1561, 26.57977
562.6382, 20.73260
563.1204, 18.47357
563.6025, 20.52130
564.0846, 25.50500
564.5667, 33.18982
565.0488, 41.74243
565.5309, 43.51306
566.0131, 36.05652
566.4952, 28.33728
566.9773, 19.68311
567.4594, 12.71948
567.9415, 9.351135
568.4236, 9.421204
568.9058, 11.38843
569.3879, 16.78955
569.8700, 21.70648
570.3521, 20.99805
570.8342, 16.32965
571.3163, 13.13727
571.7985, 13.04626
572.2806, 15.32635
572.7627, 19.58319
573.2448, 26.32147
573.7269, 30.32953
574.2090, 30.31689
574.6912, 29.50946
575.1733, 29.97272
575.6554, 29.65729
576.1375, 24.24164
576.6196, 13.54639
577.1017, 5.578674
577.5839, 10.04474
578.0660, 22.32764
578.5481, 28.10339
579.0302, 26.64392
579.5123, 22.92340
579.9944, 17.64874
580.4766, 12.76941
580.9587, 13.19849
581.4408, 20.38184
581.9229, 25.73895
582.4050, 26.01208
582.8871, 25.86786
583.3693, 31.53186
583.8514, 39.18134
584.3335, 38.18231
584.8156, 23.52893
585.2977, 6.518860
585.7798, 7.857910
586.2620, 29.88727
586.7441, 42.21497
587.2262, 39.09265
587.7083, 33.24420
588.1904, 31.41254
588.6725, 31.69519
589.1547, 31.61609
589.6368, 30.11670
590.1189, 28.00299
590.6010, 26.24066
591.0831, 25.12714
591.5652, 24.38531
592.0474, 23.34833
592.5295, 22.18134
593.0116, 20.70679
593.4937, 19.58002
593.9758, 21.02997
594.4579, 26.32196
594.9401, 31.16364
595.4222, 39.43555
595.9043, 43.15967
596.3864, 34.24194
596.8685, 17.57959
597.3506, 5.500488
597.8328, 3.052856
598.3149, 5.690186
598.7970, 12.62091
599.2791, 21.15759
599.7612, 22.40570
600.2433, 14.26886
600.7255, 8.588196
601.2076, 16.85999
601.6897, 36.48596
602.1718, 46.06512
602.6539, 35.78766
603.1360, 28.55731
603.6182, 27.69897
604.1003, 29.16370
604.5824, 32.02887
605.0645, 34.69012
605.5466, 32.52454
606.0287, 19.34882
606.5109, 3.553528
606.9930, 1.719971
607.4751, 12.28082
607.9572, 18.76788
608.4393, 16.38800
608.9214, 11.31036
609.4036, 9.577271
609.8857, 11.20123
610.3678, 12.21082
610.8499, 10.15900
611.3320, 10.09039
611.8141, 15.84723
612.2963, 23.28699
612.7784, 27.70142
613.2605, 28.71399
613.7426, 29.39996
614.2247, 32.67194
614.7068, 36.78137
615.1890, 37.17181
615.6711, 33.71729
616.1532, 29.16364
616.6353, 23.75629
617.1174, 18.52979
617.5995, 14.86572
618.0817, 12.79376
618.5638, 10.26624
619.0459, 3.724670
619.5280, 0.7344970
620.0101, 7.039917
620.4922, 17.15234
620.9744, 24.03174
621.4565, 26.51093
621.9386, 28.59094
622.4207, 34.84027
622.9028, 43.16107
623.3849, 44.34448
623.8671, 37.09082
624.3492, 30.33917
624.8313, 27.30145
625.3134, 25.28723
625.7955, 20.36487
626.2776, 12.73883
626.7598, 7.830200
627.2419, 7.288025
627.7240, 8.663513
628.2061, 11.28668
628.6882, 14.84528
629.1703, 20.84967
629.6525, 28.62708
630.1346, 31.94354
630.6167, 22.59167
631.0988, 3.840393
631.5809, 5.369080
632.0630, 2.858887
632.5452, 0.8333740
633.0273, 3.750488
633.5094, 5.042908
633.9915, 2.216492
634.4736, 4.336487
634.9557, 5.338562
635.4379, 9.279541
635.9200, 21.35107
636.4021, 16.80493
636.8842, 4.467834
637.3663, 0.8319700
637.8484, 3.929016
638.3306, 9.967224
638.8127, 7.957703
639.2948, 0.2849730
639.7769, 3.120850
640.2590, 1.101501
640.7411, 4.647461
641.2233, 3.194824
641.7054, 2.266602
642.1875, 9.809631
642.6696, 24.80737
643.1517, 33.90564
643.6339, 29.93750
644.1160, 24.17273
644.5981, 24.67676
645.0802, 26.64172
645.5623, 20.46808
646.0444, 5.382202
646.5266, 8.089844
647.0087, 9.200500
647.4908, 1.060730
647.9729, 0.6577150
648.4550, 6.670776
648.9371, 9.651306
649.4193, 2.098450
649.9014, 7.969421
650.3835, 11.82690
650.8656, 10.63995
651.3477, 12.97205
651.8298, 25.19397
652.3120, 35.63257
652.7941, 37.22229
653.2762, 34.58337
653.7583, 34.22888
654.2404, 36.88947
654.7225, 38.81018
655.2047, 37.17572
655.6868, 32.13110
656.1689, 22.28571
656.6510, 5.644104
657.1331, 3.101501
657.6152, 1.762451
658.0974, 11.57288
658.5795, 21.39020
659.0616, 30.27319
659.5437, 33.09967
660.0258, 23.80505
660.5079, 15.39374
660.9901, 13.00092
661.4722, 13.20697
661.9543, 12.40265
662.4364, 10.41351
662.9185, 8.996704
663.4006, 9.166504
663.8828, 10.76849
664.3649, 15.37695
664.8470, 23.24335
665.3291, 26.05481
665.8112, 20.29736
666.2933, 14.47150
666.7755, 15.13690
667.2576, 21.00659
667.7397, 26.10254
668.2218, 31.97827
668.7039, 34.58228
669.1860, 29.15472
669.6682, 23.43475
670.1503, 25.44153
670.6324, 32.51965
671.1145, 35.65497
671.5966, 30.03186
672.0787, 21.40833
672.5609, 18.34265
673.0430, 19.88763
673.5251, 18.86450
674.0072, 14.08313
674.4893, 9.581787
674.9714, 7.275574
675.4536, 7.235046
675.9357, 9.913574
676.4178, 17.23920
676.8999, 23.09961
677.3820, 26.53424
677.8641, 29.31189
678.3463, 34.12000
678.8284, 38.23553
679.3105, 35.75952
679.7926, 24.83899
680.2747, 14.16272
680.7568, 13.66785
681.2390, 19.09644
681.7211, 19.61523
682.2032, 15.10907
682.6853, 12.35126
683.1674, 14.63403
683.6495, 18.77881
684.1317, 19.59912
684.6138, 16.00494
685.0959, 14.87152
685.5780, 21.16510
686.0601, 23.91803
686.5422, 14.61334
687.0244, 4.059265
687.5065, 6.786621
687.9886, 22.96881
688.4707, 33.91473
688.9528, 23.56940
689.4349, 6.474060
689.9171, 2.013123
690.3992, 2.726318
690.8813, 3.610779
691.3634, 16.52771
691.8455, 28.34375
692.3276, 30.83594
692.8098, 25.15594
693.2919, 19.63800
693.7740, 11.48785
694.2561, 8.843079
694.7382, 18.91467
695.2203, 29.80334
695.7025, 33.71881
696.1846, 31.64850
696.6667, 28.41217
697.1488, 22.60846
697.6309, 18.96649
698.1130, 22.56042
698.5952, 27.95764
699.0773, 28.03522
699.5594, 23.32068
700.0415, 20.70276
700.5236, 24.70984
701.0057, 31.64838
701.4879, 33.51440
701.9700, 30.01923
702.4521, 27.71967
702.9342, 27.55396
703.4163, 27.60724
703.8984, 26.18231
704.3806, 23.98163
704.8627, 24.47516
705.3448, 29.60980
705.8269, 33.33057
706.3090, 34.58234
706.7911, 33.89075
707.2733, 29.69238
707.7554, 24.80341
708.2375, 25.65839
708.7196, 33.82751
709.2017, 40.96405
709.6838, 37.44104
710.1660, 27.76617
710.6481, 20.57477
711.1302, 15.48291
711.6123, 16.01575
712.0944, 24.24561
712.5765, 34.23871
713.0587, 38.57996
713.5408, 36.99438
714.0229, 35.58929
714.5050, 34.70209
714.9871, 33.39087
715.4692, 32.04718
715.9514, 30.21478
716.4335, 26.60229
716.9156, 22.02350
717.3977, 20.17261
717.8798, 25.59503
718.3619, 29.81818
718.8441, 24.24121
719.3262, 13.60394
719.8083, 4.682495
720.2904, 0.9827880
720.7725, 2.478516
721.2546, 0.9548340
721.7368, 8.461060
722.2189, 19.54468
722.7010, 35.69183
723.1831, 44.72046
723.6652, 43.46497
724.1473, 39.42426
724.6295, 35.81195
725.1116, 32.55750
725.5937, 29.68231
726.0758, 27.68323
726.5579, 24.34381
727.0400, 17.20319
727.5222, 11.18939
728.0043, 7.119385
728.4864, 6.439941
728.9685, 11.80060
729.4506, 23.22595
729.9327, 34.47461
730.4149, 39.50684
730.8970, 40.46802
731.3791, 41.37939
731.8612, 42.41803
732.3433, 46.39996
732.8254, 54.92914
733.3076, 61.29974
733.7897, 57.72034
734.2718, 45.20282
734.7539, 37.51526
735.2360, 39.86194
735.7181, 38.24152
736.2003, 26.41522
736.6824, 14.61224
737.1645, 8.343872
737.6466, 7.226379
738.1287, 9.928772
738.6108, 18.26190
739.0930, 25.02368
739.5751, 25.41840
740.0572, 22.58673
740.5393, 17.96088
741.0214, 13.42670
741.5035, 14.17371
741.9857, 23.02191
742.4678, 33.86572
742.9499, 39.24725
743.4320, 39.53503
743.9141, 40.43231
744.3962, 42.89758
744.8784, 40.19336
745.3605, 26.67224
745.8426, 11.21979
746.3247, 6.007751
746.8068, 12.08038
747.2889, 19.24518
747.7711, 35.38947
748.2532, 42.32751
748.7353, 24.50269
749.2174, 4.252441
749.6995, 5.261047
750.1816, 24.06714
750.6638, 37.54358
751.1459, 32.66193
751.6280, 22.67993
752.1101, 20.56610
752.5922, 21.77905
753.0743, 16.55023
753.5565, 4.816833
754.0386, 6.269226
754.5207, 12.80157
755.0028, 14.10938
755.4849, 7.274597
755.9670, 8.944763
756.4492, 22.09631
756.9313, 32.76794
757.4134, 38.12445
757.8955, 34.26721
758.3776, 26.43878
758.8597, 22.64557
759.3419, 23.20453
759.8240, 23.61926
760.3061, 21.74030
760.7882, 21.81323
761.2703, 29.49109
761.7524, 37.26892
762.2346, 35.51648
762.7167, 25.03015
763.1988, 15.68951
763.6809, 13.55597
764.1630, 14.17010
764.6451, 11.99243
765.1273, 8.601807
765.6094, 9.446045
766.0915, 14.51245
766.5736, 15.46246
767.0557, 6.358093
767.5378, 6.330139
768.0200, 7.806763
768.5021, 3.971680
768.9842, 15.34216
769.4663, 28.53784
769.9484, 35.88837
770.4305, 30.32416
770.9127, 19.55994
771.3948, 14.39667
771.8769, 15.03235
772.3590, 17.74261
772.8411, 25.71832
773.3232, 31.39648
773.8054, 29.50952
774.2875, 25.41437
774.7696, 25.05902
775.2517, 28.48602
775.7338, 32.06708
776.2159, 33.74231
776.6981, 33.89282
777.1802, 33.10565
777.6623, 30.95135
778.1444, 24.60028
778.6265, 14.71606
779.1086, 8.992126
779.5908, 11.81097
780.0729, 18.72815
780.5550, 21.09436
781.0371, 18.12885
781.5192, 19.08801
782.0013, 26.51239
782.4835, 31.65076
782.9656, 30.24738
783.4477, 24.10834
783.9298, 13.31445
784.4119, 2.532288
784.8940, 6.316040
785.3762, 18.09424
785.8583, 34.71265
786.3404, 26.34607
786.8225, 12.20380
787.3046, 8.215271
787.7867, 13.90680
788.2689, 22.28326
788.7510, 32.45721
789.2331, 37.82983
789.7152, 28.43585
790.1973, 12.93964
790.6794, 4.251648
791.1616, 2.809753
791.6437, 5.979248
792.1258, 12.64758
792.6079, 19.11188
793.0900, 19.91400
793.5721, 15.70544
794.0543, 12.36176
794.5364, 9.431152
795.0185, 10.82904
795.5006, 19.65442
795.9827, 28.94800
796.4648, 31.63483
796.9470, 28.36102
797.4291, 26.02429
797.9112, 28.74597
798.3933, 26.36627
798.8754, 9.339172
799.3575, 3.879822
799.8397, 1.519958
800.3218, 17.14307
800.8039, 26.36414
801.2860, 24.74487
801.7681, 21.27325
802.2502, 17.72150
802.7324, 16.69617
803.2145, 24.20905
803.6966, 34.89636
804.1787, 37.48322
804.6608, 30.01855
805.1429, 21.27563
805.6251, 18.46558
806.1072, 19.49689
806.5893, 19.42401
807.0714, 18.76526
807.5535, 22.85132
808.0356, 33.02087
808.5178, 40.58350
808.9999, 39.38123
809.4820, 32.55896
809.9641, 27.80414
810.4462, 25.10321
810.9283, 24.55316
811.4105, 26.99713
811.8926, 29.80341
812.3747, 33.83594
812.8568, 37.04883
813.3389, 37.25842
813.8210, 34.53436
814.3032, 29.80084
814.7853, 20.07904
815.2674, 12.44995
815.7495, 9.502869
816.2316, 9.530029
816.7137, 12.47351
817.1959, 16.89209
817.6780, 19.39917
818.1601, 18.29657
818.6422, 16.33234
819.1243, 13.34912
819.6064, 12.41266
820.0886, 20.62976
820.5707, 35.49829
821.0528, 48.24121
821.5349, 55.80365
822.0170, 58.03485
822.4991, 52.20392
822.9813, 40.36420
823.4634, 30.55896
823.9455, 22.70343
824.4276, 17.55048
824.9097, 15.68646
825.3918, 14.16309
825.8740, 10.81659
826.3561, 7.890686
826.8382, 10.78149
827.3203, 24.71832
827.8024, 32.33240
828.2845, 29.20984
828.7667, 25.09753
829.2488, 24.15576
829.7309, 23.74390
830.2130, 19.75684
830.6951, 12.46881
831.1772, 7.827759
831.6594, 11.39368
832.1415, 13.59631
832.6236, 6.038147
833.1057, 1.852661
833.5878, 0.8841550
834.0699, 12.37366
834.5521, 23.92926
835.0342, 32.31848
835.5163, 36.28406
835.9984, 32.95349
836.4805, 25.37427
836.9626, 16.95929
837.4448, 8.852966
837.9269, 4.572937
838.4090, 5.081360
838.8911, 5.725586
839.3732, 0.6197510
839.8553, 7.400757
840.3375, 6.781372
840.8196, 2.677490
841.3017, 10.58447
841.7838, 15.16534
842.2659, 17.25024
842.7480, 16.75250
843.2302, 16.18762
843.7123, 20.26349
844.1944, 32.44855
844.6765, 37.44031
845.1586, 30.52313
845.6407, 23.44843
846.1229, 21.26318
846.6050, 19.91089
847.0871, 14.47400
847.5692, 5.404907
848.0513, 8.0750003E-02
848.5334, 1.833435
849.0156, 4.533813
849.4977, 6.367310
849.9798, 8.641785
850.4619, 12.99127
850.9440, 18.49353
851.4261, 22.92828
851.9083, 25.58264
852.3904, 28.03656
852.8725, 35.10608
853.3546, 39.34888
853.8367, 27.44574
854.3188, 8.261536
854.8010, 0.9907230
855.2831, 8.342407
855.7652, 19.14685
856.2473, 25.39929
856.7294, 27.85291
857.2115, 27.39764
857.6937, 25.25793
858.1758, 23.44159
858.6579, 22.16998
859.1400, 21.25476
859.6221, 20.38770
860.1042, 21.47510
860.5864, 28.08698
861.0685, 39.85187
861.5506, 47.59967
862.0327, 51.09576
862.5148, 50.55377
862.9969, 44.76691
863.4791, 37.11633
863.9612, 28.69043
864.4433, 20.88434
864.9254, 19.18555
865.4075, 28.59735
865.8896, 33.65149
866.3718, 32.67529
866.8539, 29.56342
867.3360, 24.76135
867.8181, 19.10120
868.3002, 11.92761
868.7823, 3.797363
869.2645, 1.035645
869.7466, 10.79156
870.2287, 19.02533
870.7108, 20.36957
871.1929, 17.89905
871.6750, 12.22369
872.1572, 5.489258
872.6393, 1.505554
873.1214, 1.568970
873.6035, 3.675354
874.0856, 8.282471
874.5677, 12.59735
875.0499, 11.85474
875.5320, 8.874878
876.0141, 10.06128
876.4962, 16.11505
876.9783, 23.64667
877.4604, 31.46558
877.9426, 35.03992
878.4247, 21.63080
878.9068, 2.271301
879.3889, 11.20978
879.8710, 4.351257
880.3531, 7.197266
880.8353, 19.40314
881.3174, 27.11627
881.7995, 22.82300
882.2816, 9.090332
882.7637, 2.132629
883.2458, 2.484802
883.7280, 6.390015
884.2101, 14.32050
884.6922, 22.36633
885.1743, 28.68237
885.6564, 32.62164
886.1385, 32.77808
886.6207, 29.00836
887.1028, 21.61389
887.5849, 3.644714
888.0670, 6.630920
888.5491, 1.705200
889.0313, 10.45447
889.5134, 25.18195
889.9955, 41.53015
890.4776, 55.54773
890.9597, 70.21539
891.4418, 76.40631
891.9240, 67.00378
892.4061, 54.91351
892.8882, 45.21570
893.3703, 37.89679
893.8524, 33.44348
894.3345, 31.45825
894.8167, 27.64276
895.2988, 16.86450
895.7809, 8.010742
896.2630, 6.674011
896.7451, 8.962952
897.2272, 11.99750
897.7094, 14.50458
898.1915, 16.49176
898.6736, 18.45612
899.1557, 19.60583
899.6378, 17.56781
900.1199, 16.01685
900.6021, 20.63354
901.0842, 28.49695
901.5663, 34.45898
902.0484, 36.98322
902.5305, 34.42426
903.0126, 25.33997
903.4948, 13.93073
903.9769, 3.914185
904.4590, 3.655151
904.9411, 5.716064
905.4232, 2.527832
905.9053, 4.468933
906.3875, 14.77862
906.8696, 22.60724
907.3517, 21.67694
907.8338, 15.14618
908.3159, 13.12579
908.7980, 15.63599
909.2802, 20.48712
909.7623, 28.31696
910.2444, 31.49097
910.7265, 25.49323
911.2086, 15.46729
911.6907, 8.611816
912.1729, 4.899597
912.6550, 1.096985
913.1371, 4.355408
913.6192, 4.350403
914.1013, 5.437256
914.5834, 15.02460
915.0656, 17.53998
915.5477, 15.55536
916.0298, 15.13196
916.5119, 17.27063
916.9940, 17.18402
917.4761, 13.62170
917.9583, 9.603638
918.4404, 3.355408
918.9225, 0.9871830
919.4046, 0.4464720
919.8867, 6.571411
920.3688, 13.81195
920.8510, 25.69849
921.3331, 30.26031
921.8152, 18.59930
922.2973, 7.566467
922.7794, 4.374023
923.2615, 6.354492
923.7437, 11.61920
924.2258, 19.30060
924.7079, 25.00128
925.1900, 27.91583
925.6721, 28.50275
926.1542, 24.45282
926.6364, 20.47504
927.1185, 20.21979
927.6006, 22.82568
928.0827, 27.80292
928.5648, 34.40295
929.0469, 36.93665
929.5291, 27.52740
930.0112, 18.35223
930.4933, 21.03168
930.9754, 27.45923
931.4575, 25.84241
931.9396, 18.76666
932.4218, 17.44830
932.9039, 25.82544
933.3860, 34.36456
933.8681, 32.13269
934.3502, 27.64075
934.8323, 35.95605
935.3145, 49.03510
935.7966, 46.36432
936.2787, 29.36151
936.7608, 20.33569
937.2429, 31.41156
937.7250, 45.65839
938.2072, 36.48456
938.6893, 15.64056
939.1714, 12.17499
939.6535, 22.59290
940.1356, 32.66632
940.6177, 38.55054
941.0999, 37.28491
941.5820, 25.43060
942.0641, 12.50775
942.5462, 20.56085
943.0283, 43.62781
943.5104, 48.99927
943.9926, 35.81512
944.4747, 23.26910
944.9568, 17.70691
945.4389, 17.01508
945.9210, 19.46265
946.4031, 24.29498
946.8853, 27.43738
947.3674, 28.75659
947.8495, 26.64752
948.3316, 20.20526
948.8137, 22.14337
949.2958, 39.83759
949.7780, 54.51117
950.2601, 42.56763
950.7422, 11.14862
951.2243, 0.6600340
951.7064, 15.63458
952.1885, 21.26953
952.6707, 11.84802
953.1528, 2.223206
953.6349, 0.9411620
954.1170, 0.3488770
954.5991, 0.8565060
955.0812, 2.552185
955.5634, 1.573425
956.0455, 4.448608
956.5276, 5.634460
957.0097, 0.5784910
957.4918, 9.328979
957.9739, 20.49792
958.4561, 29.94421
958.9382, 30.25098
959.4203, 20.71075
959.9024, 11.61847
960.3845, 0.7941890
960.8666, 4.890015
961.3488, 5.867004
961.8309, 18.79376
962.3130, 28.00488
962.7951, 32.97852
963.2772, 31.69226
963.7593, 22.03162
964.2415, 17.10522
964.7236, 17.88007
965.2057, 21.96741
965.6878, 35.63531
966.1699, 46.05396
966.6520, 40.48981
967.1342, 26.69232
967.6163, 23.62122
968.0984, 36.13464
968.5805, 41.50653
969.0626, 31.59705
969.5447, 23.89282
970.0269, 24.63293
970.5090, 28.48987
970.9911, 29.14502
971.4732, 28.16510
971.9553, 33.38330
972.4374, 49.13080
972.9196, 56.37817
973.4017, 42.06787
973.8838, 32.27838
974.3659, 45.53448
974.8480, 59.33478
975.3301, 48.84564
975.8123, 22.06616
976.2944, 7.002502
976.7765, 10.84399
977.2586, 16.92065
977.7407, 24.83441
978.2228, 30.06409
978.7050, 27.17664
979.1871, 23.31409
979.6692, 29.38403
980.1513, 40.93909
980.6334, 39.88824
981.1155, 14.75208
981.5977, 2.246765
982.0798, 5.411926
982.5619, 15.24805
983.0440, 15.67688
983.5261, 12.32196
984.0082, 10.79865
984.4904, 11.77740
984.9725, 15.31995
985.4546, 23.46039
985.9367, 28.11169
986.4188, 21.04425
986.9009, 15.69147
987.3831, 25.11700
987.8652, 37.06226
988.3473, 34.60968
988.8294, 20.08099
989.3115, 10.21136
989.7936, 11.10522
990.2758, 13.83478
990.7579, 15.15888
991.2400, 16.71429
991.7221, 20.29834
992.2042, 24.22900
992.6863, 26.92706
993.1685, 27.97223
993.6506, 26.59723
994.1327, 21.17371
994.6148, 17.37439
995.0969, 19.12915
995.5790, 21.84973
996.0612, 20.75861
996.5433, 19.84448
997.0254, 26.92987
997.5075, 39.82465
997.9896, 45.80463
998.4717, 38.24579
998.9539, 30.30200
999.4360, 31.75983
999.9181, 30.93555
1000.400, 11.05939
1000.882, 10.36029
1001.364, 6.320923
1001.847, 19.24109
1002.329, 37.12952
1002.811, 35.47827
1003.293, 30.97784
1003.775, 29.86407
1004.257, 30.33362
1004.739, 30.79132
1005.221, 32.35413
1005.703, 38.98914
1006.186, 48.41284
1006.668, 50.55841
1007.150, 39.47559
1007.632, 31.12604
1008.114, 38.00366
1008.596, 43.95721
1009.078, 34.04108
1009.560, 19.81464
1010.043, 14.99890
1010.525, 19.79724
1011.007, 28.52936
1011.489, 41.47845
1011.971, 50.91113
1012.453, 53.18878
1012.935, 51.90375
1013.417, 49.09851
1013.899, 43.74945
1014.382, 31.70947
1014.864, 16.91284
1015.346, 10.92090
1015.828, 19.11627
1016.310, 26.97412
1016.792, 27.95319
1017.274, 28.31091
1017.756, 33.13239
1018.239, 37.68274
1018.721, 35.56866
1019.203, 29.31213
1019.685, 26.27899
1020.167, 29.63422
1020.649, 29.04279
1021.131, 15.14801
1021.613, 3.988342
1022.095, 3.239502
1022.578, 8.309753
1023.060, 18.94598
1023.542, 30.88434
1024.024, 33.47723
1024.506, 22.60095
1024.988, 16.74640
1025.470, 29.23218
1025.952, 36.37128
1026.435, 25.15948
1026.917, 9.010986
1027.399, 6.182190
1027.881, 16.37585
1028.363, 12.67834
1028.845, 8.220947
1029.327, 23.98474
1029.809, 30.54126
1030.292, 31.52551
1030.774, 22.03418
1031.256, 13.18811
1031.738, 12.94452
1032.220, 18.36194
1032.702, 24.25287
1033.184, 30.30884
1033.666, 35.78015
1034.148, 44.82837
1034.630, 47.04675
1035.113, 31.91663
1035.595, 19.18860
1036.077, 26.44684
1036.559, 39.44318
1037.041, 33.54559
1037.523, 7.589539
1038.005, 5.346191
1038.487, 3.489990
1038.970, 11.63873
1039.452, 18.99921
1039.934, 23.91943
1040.416, 24.53174
1040.898, 22.60992
1041.380, 18.01385
1041.862, 11.77338
1042.344, 16.45892
1042.826, 43.78662
1043.309, 55.47394
1043.791, 41.84369
1044.273, 27.96454
1044.755, 21.64984
1045.237, 20.69482
1045.719, 23.51483
1046.201, 29.58398
1046.683, 37.15045
1047.166, 48.87964
1047.648, 52.83398
1048.130, 47.22748
1048.612, 38.17572
1049.094, 25.44250
1049.576, 16.23157
1050.058, 15.18500
1050.540, 18.70715
1051.022, 21.84235
1051.505, 24.81683
1051.987, 24.49683
1052.469, 18.91656
1052.951, 18.52661
1053.433, 26.74207
1053.915, 34.42950
1054.397, 35.05048
1054.879, 33.03381
1055.361, 37.63812
1055.844, 47.77570
1056.326, 48.95343
1056.808, 41.23462
1057.290, 39.43964
1057.772, 46.17566
1058.254, 51.18915
1058.736, 48.35205
1059.218, 42.21820
1059.701, 37.36865
1060.183, 33.10028
1060.665, 28.37677
1061.147, 23.38055
1061.629, 17.88293
1062.111, 12.62732
1062.593, 15.95435
1063.075, 30.45258
1063.557, 38.93872
1064.040, 21.15503
1064.522, 5.380920
1065.004, 5.748779
1065.486, 9.400452
1065.968, 14.37787
1066.450, 10.03412
1066.932, 7.234680
1067.414, 8.644897
1067.896, 8.802979
1068.379, 2.755676
1068.861, 1.336304
1069.343, 9.952148
1069.825, 25.70923
1070.307, 31.35773
1070.789, 29.23383
1071.271, 22.54706
1071.753, 14.42352
1072.236, 13.53467
1072.718, 25.11133
1073.200, 34.75336
1073.682, 30.61542
1074.164, 21.71600
1074.646, 11.24860
1075.128, 3.606262
1075.610, 5.917175
1076.093, 15.08801
1076.575, 22.08490
1077.057, 24.49658
1077.539, 26.06238
1078.021, 28.06177
1078.503, 29.99817
1078.985, 32.79736
1079.467, 34.30450
1079.949, 29.27838
1080.432, 23.59131
1080.914, 28.39258
1081.396, 44.43457
1081.878, 57.21674
1082.360, 69.58752
1082.842, 70.07086
1083.324, 42.09186
1083.806, 19.60382
1084.288, 24.14246
1084.771, 37.18134
1085.253, 36.02008
1085.735, 24.50775
1086.217, 24.69867
1086.699, 46.25519
1087.181, 54.68353
1087.663, 42.61682
1088.145, 32.39386
1088.628, 30.97699
1089.110, 30.30853
1089.592, 23.15668
1090.074, 14.48676
1090.556, 16.74719
1091.038, 30.76373
1091.520, 29.95178
1092.002, 10.91180
1092.484, 0.6775510
1092.967, 4.6082001E-02
1093.449, 4.309265
1093.931, 8.457825
1094.413, 12.38403
1094.895, 16.08057
1095.377, 19.56061
1095.859, 23.16766
1096.341, 27.23682
1096.823, 26.59406
1097.306, 21.50726
1097.788, 17.92725
1098.270, 17.92810
1098.752, 17.80585
1099.234, 15.14734
1099.716, 11.76202
1100.198, 9.536621
1100.680, 9.083252
1101.163, 12.81982
1101.645, 19.08807
1102.127, 23.61975
1102.609, 26.00409
1103.091, 29.34601
1103.573, 35.31982
1104.055, 37.70807
1104.537, 26.30957
1105.020, 14.40332
1105.502, 19.93610
1105.984, 27.70001
1106.466, 11.02179
1106.948, 16.57330
1107.430, 17.22345
1107.912, 14.94482
1108.394, 35.39337
1108.876, 12.29797
1109.359, 4.950623
1109.841, 10.66309
1110.323, 27.95465
1110.805, 25.09332
1111.287, 15.03180
1111.769, 15.25714
1112.251, 24.27271
1112.733, 28.46881
1113.215, 23.71216
1113.698, 21.50562
1114.180, 24.38354
1114.662, 26.30054
1115.144, 25.12347
1115.626, 23.81085
1116.108, 24.74133
1116.590, 26.40234
1117.072, 25.67267
1117.555, 22.52893
1118.037, 21.36121
1118.519, 22.08795
1119.001, 26.47687
1119.483, 36.00635
1119.965, 39.70953
1120.447, 32.14563
1120.929, 22.66089
1121.411, 20.85107
1121.894, 24.33044
1122.376, 28.56238
1122.858, 32.20856
1123.340, 30.98358
1123.822, 26.17487
1124.304, 27.90198
1124.786, 36.89520
1125.268, 41.77325
1125.750, 35.80835
1126.233, 26.90552
1126.715, 21.99591
1127.197, 21.27716
1127.679, 27.15625
1128.161, 35.19342
1128.643, 39.01630
1129.125, 38.45703
1129.607, 34.65826
1130.090, 28.32550
1130.572, 22.38635
1131.054, 16.61676
1131.536, 14.58508
1132.018, 22.65015
1132.500, 30.07306
1132.982, 27.37231
1133.464, 21.40411
1133.947, 20.74921
1134.429, 24.71729
1134.911, 27.70245
1135.393, 28.76910
1135.875, 29.75708
1136.357, 32.78113
1136.839, 32.69952
1137.321, 28.08215
1137.803, 20.62842
1138.286, 8.386963
1138.768, 2.581055
1139.250, 2.281494
1139.732, 7.781067
1140.214, 13.56818
1140.696, 14.90149
1141.178, 12.03589
1141.660, 4.154480
1142.142, 2.927917
1142.625, 12.62128
1143.107, 20.02551
1143.589, 14.17792
1144.071, 3.689087
1144.553, 4.397522
1145.035, 12.36224
1145.517, 15.72351
1145.999, 15.87164
1146.482, 18.32056
1146.964, 22.74744
1147.446, 24.45648
1147.928, 21.74469
1148.410, 16.78223
1148.892, 7.316101
1149.374, 2.856323
1149.856, 18.96069
1150.339, 37.42804
1150.821, 40.13330
1151.303, 33.09564
1151.785, 25.36475
1152.267, 18.57300
1152.749, 11.55096
1153.231, 2.265869
1153.713, 8.0994003E-02
1154.195, 16.89838
1154.677, 26.73676
1155.160, 10.20648
1155.642, 3.141785
1156.124, 10.31232
1156.606, 33.20026
1157.088, 39.42401
1157.570, 30.75977
1158.052, 29.02948
1158.534, 36.48907
1159.017, 36.95154
1159.499, 27.85297
1159.981, 23.83582
1160.463, 30.02197
1160.945, 35.06763
1161.427, 29.97528
1161.909, 23.10089
1162.391, 32.46155
1162.874, 50.13300
1163.356, 45.99646
1163.838, 27.69244
1164.320, 20.91193
1164.802, 24.19220
1165.284, 22.50079
1165.766, 12.61963
1166.248, 4.852173
1166.730, 7.119568
1167.213, 12.79382
1167.695, 19.64331
1168.177, 25.63239
1168.659, 29.63373
1169.141, 31.53741
1169.623, 31.48608
1170.105, 29.32648
1170.587, 23.67847
1171.069, 13.44751
1171.552, 6.994141
1172.034, 6.751160
1172.516, 8.870789
1172.998, 16.18475
1173.480, 20.76202
1173.962, 17.97974
1174.444, 12.98486
1174.926, 11.17126
1175.409, 11.41565
1175.891, 8.644897
1176.373, 2.096680
1176.855, 6.773438
1177.337, 23.07355
1177.819, 34.24500
1178.301, 37.04913
1178.783, 28.32849
1179.266, 6.485962
1179.748, 11.66779
1180.230, 5.461731
1180.712, 9.905151
1181.194, 7.539917
1181.676, 1.377197
1182.158, 3.357056
1182.640, 16.65680
1183.122, 27.42120
1183.604, 32.82080
1184.087, 31.19409
1184.569, 20.76581
1185.051, 12.41455
1185.533, 13.20447
1186.015, 14.26129
1186.497, 9.138611
1186.979, 5.829895
1187.461, 12.27228
1187.944, 20.75073
1188.426, 18.64014
1188.908, 8.233704
1189.390, 4.397827
1189.872, 9.090576
1190.354, 13.29181
1190.836, 16.46576
1191.318, 22.56329
1191.801, 33.42279
1192.283, 39.28461
1192.765, 33.79327
1193.247, 26.75940
1193.729, 31.32458
1194.211, 42.03137
1194.693, 44.37488
1195.175, 41.96179
1195.657, 42.97729
1196.140, 45.69489
1196.622, 42.26013
1197.104, 32.87909
1197.586, 26.41565
1198.068, 27.08221
1198.550, 27.75598
1199.032, 21.76147
1199.514, 17.39838
1199.996, 19.53931
1200.479, 24.95569
1200.961, 37.14124
1201.443, 47.21887
1201.925, 37.91351
1202.407, 12.67877
1202.889, 2.597717
1203.371, 13.11847
1203.853, 22.03760
1204.336, 29.55676
1204.818, 35.05847
1205.300, 38.80768
1205.782, 37.80743
1206.264, 29.54425
1206.746, 19.83057
1207.228, 20.85059
1207.710, 27.26025
1208.193, 25.41010
1208.675, 18.15460
1209.157, 12.94421
1209.639, 10.62524
1210.121, 14.08667
1210.603, 21.65247
1211.085, 25.04016
1211.567, 20.89789
1212.049, 15.86816
1212.531, 11.45056
1213.014, 10.68842
1213.496, 22.00555
1213.978, 29.99988
1214.460, 19.03638
1214.942, 2.159546
1215.424, 4.391968
1215.906, 2.330322
1216.388, 0.3178710
1216.871, 1.558472
1217.353, 4.162292
1217.835, 8.162537
1218.317, 9.265137
1218.799, 6.201843
1219.281, 7.081604
1219.763, 15.75928
1220.245, 23.16034
1220.728, 20.64099
1221.210, 13.55127
1221.692, 8.178711
1222.174, 7.173035
1222.656, 22.03687
1223.138, 42.63446
1223.620, 47.76666
1224.102, 39.01825
1224.584, 22.85376
1225.067, 5.806458
1225.549, 4.866211
1226.031, 38.61957
1226.513, 61.59509
1226.995, 50.70929
1227.477, 36.20087
1227.959, 29.65204
1228.441, 26.26740
1228.923, 23.63025
1229.406, 20.39606
1229.888, 11.88806
1230.370, 0.5679930
1230.852, 1.631348
1231.334, 19.44080
1231.816, 30.65533
1232.298, 29.83130
1232.780, 19.70825
1233.263, 0.0000000E+00
##END=



