##NAMES=Antigorite
##RRUFFID=R070228
##IDEAL CHEMISTRY=Mg_3_Si_2_O_5_(OH)_4_
##LOCALITY=Wood's Chrome Mine (Wood's Mine), Texas, Lancaster County, Pennsylvania, USA
##OWNER=RRUFF
##SOURCE=Michael Scott
##DESCRIPTION=Compact massive, light to dark green associated with chromite
##STATUS=The identification of this mineral has been confirmed by X-ray diffraction and chemical analysis
##URL=rruff.info/R070228
##MEASURED CHEMISTRY=(Mg_2.93_Fe_0.07_)_Î£=3_Si_2.00_O_5_(OH)_4_ ; trace amounts of Al and Mn; OH estimated by difference
175.9807, 0.0000000E+00
176.4628, 10.59937
176.9449, 9.939331
177.4271, 2.276367
177.9092, 7.170654
178.3913, 25.98389
178.8734, 36.66345
179.3555, 28.04419
179.8376, 8.186279
180.3197, 1.904785
180.8019, 16.32349
181.2840, 32.15100
181.7661, 45.24414
182.2482, 55.37634
182.7303, 61.98328
183.2124, 64.61047
183.6946, 63.84265
184.1767, 60.69531
184.6588, 51.92200
185.1409, 46.57458
185.6230, 49.82263
186.1051, 56.23474
186.5873, 59.66638
187.0694, 57.15271
187.5515, 50.30933
188.0336, 42.23145
188.5157, 27.17688
188.9978, 21.83582
189.4800, 36.60425
189.9621, 58.35583
190.4442, 73.45776
190.9263, 75.51440
191.4084, 69.30920
191.8905, 65.31567
192.3727, 59.70007
192.8548, 64.23145
193.3369, 90.08948
193.8190, 120.9386
194.3011, 140.6593
194.7832, 142.7745
195.2654, 133.8867
195.7475, 127.2135
196.2296, 120.4956
196.7117, 120.9700
197.1938, 135.3882
197.6759, 152.9218
198.1581, 163.3890
198.6402, 163.5232
199.1223, 158.7883
199.6044, 159.7317
200.0865, 170.7678
200.5686, 178.7642
201.0508, 178.9395
201.5329, 178.5610
202.0150, 184.8170
202.4971, 199.2738
202.9792, 215.3519
203.4613, 220.9583
203.9435, 207.0968
204.4256, 203.2853
204.9077, 218.8156
205.3898, 237.6327
205.8719, 248.4739
206.3540, 249.3575
206.8362, 246.4784
207.3183, 248.7896
207.8004, 259.8054
208.2825, 266.9221
208.7646, 266.8413
209.2467, 265.8545
209.7289, 267.3522
210.2110, 271.8031
210.6931, 277.7982
211.1752, 284.0337
211.6573, 290.9348
212.1395, 296.2865
212.6216, 294.1360
213.1037, 295.4796
213.5858, 306.7510
214.0679, 327.2474
214.5500, 352.0530
215.0322, 377.9249
215.5143, 406.3898
215.9964, 424.8176
216.4785, 423.5347
216.9606, 421.4313
217.4427, 425.0400
217.9249, 434.0476
218.4070, 445.3210
218.8891, 456.6921
219.3712, 468.2188
219.8533, 477.7339
220.3354, 481.7721
220.8176, 487.1166
221.2997, 495.9431
221.7818, 507.5144
222.2639, 519.9397
222.7460, 531.6008
223.2281, 542.9265
223.7103, 557.4456
224.1924, 578.2439
224.6745, 599.2295
225.1566, 627.4076
225.6387, 654.6184
226.1208, 670.7964
226.6030, 672.6503
227.0851, 668.3574
227.5672, 675.6819
228.0493, 712.8411
228.5314, 749.5735
229.0135, 777.9060
229.4957, 796.1886
229.9778, 813.4800
230.4599, 836.5861
230.9420, 860.7378
231.4241, 867.2617
231.9062, 849.1101
232.3884, 832.0681
232.8705, 822.7693
233.3526, 814.0056
233.8347, 800.5175
234.3168, 780.0334
234.7989, 749.5388
235.2811, 700.5901
235.7632, 619.8584
236.2453, 553.7388
236.7274, 511.4425
237.2095, 478.7911
237.6916, 447.8949
238.1738, 416.6616
238.6559, 385.4355
239.1380, 353.8947
239.6201, 320.9102
240.1022, 291.7472
240.5843, 263.5632
241.0665, 241.7151
241.5486, 233.9595
242.0307, 237.4529
242.5128, 239.0062
242.9949, 222.3723
243.4770, 184.8555
243.9592, 161.5537
244.4413, 165.4690
244.9234, 172.1946
245.4055, 174.1001
245.8876, 171.4607
246.3697, 167.0623
246.8519, 163.1968
247.3340, 159.4517
247.8161, 151.7185
248.2982, 134.0164
248.7803, 120.4973
249.2624, 118.9580
249.7446, 123.9109
250.2267, 126.4600
250.7088, 121.5945
251.1909, 111.5269
251.6730, 102.2234
252.1551, 92.97900
252.6373, 86.07642
253.1194, 80.48340
253.6015, 77.94702
254.0836, 81.93286
254.5657, 94.90015
255.0478, 110.1389
255.5300, 116.5371
256.0121, 112.0732
256.4942, 106.2786
256.9763, 100.5659
257.4584, 95.26343
257.9406, 90.12793
258.4227, 85.05957
258.9048, 81.73413
259.3869, 83.35107
259.8690, 90.25708
260.3511, 93.90210
260.8333, 89.74902
261.3154, 84.37036
261.7975, 83.37158
262.2796, 86.59595
262.7617, 88.65576
263.2438, 83.56958
263.7260, 73.11328
264.2081, 68.54053
264.6902, 74.99268
265.1723, 81.28271
265.6544, 78.48047
266.1365, 68.73071
266.6187, 58.92285
267.1008, 53.34741
267.5829, 49.72144
268.0650, 41.78442
268.5471, 27.15820
269.0292, 15.55347
269.5114, 16.89819
269.9935, 25.66138
270.4756, 33.05396
270.9577, 36.85474
271.4398, 38.33130
271.9219, 40.84106
272.4041, 44.61279
272.8862, 40.12891
273.3683, 15.80176
273.8504, 16.66577
274.3325, 34.71631
274.8146, 32.74438
275.2968, 24.63208
275.7789, 15.86304
276.2610, 7.663330
276.7431, 6.647461
277.2252, 18.97827
277.7073, 34.27881
278.1895, 33.05859
278.6716, 11.53052
279.1537, 5.168213
279.6358, 6.386475
280.1179, 2.766113
280.6000, 16.44580
281.0822, 34.76270
281.5643, 49.03687
282.0464, 46.24707
282.5285, 24.77002
283.0106, 7.410645
283.4927, 4.366211
283.9749, 10.29346
284.4570, 6.732910
284.9391, 5.461914
285.4212, 15.41821
285.9033, 12.91260
286.3854, 1.696045
286.8676, 7.857178
287.3497, 3.517578
287.8318, 13.67993
288.3139, 12.17749
288.7960, 1.939697
289.2781, 8.859375
289.7603, 16.01733
290.2424, 19.76855
290.7245, 20.71069
291.2066, 14.03784
291.6887, 10.66016
292.1708, 14.20020
292.6530, 21.22070
293.1351, 27.92334
293.6172, 32.92700
294.0993, 36.31128
294.5814, 37.85352
295.0635, 34.14624
295.5457, 35.41772
296.0278, 44.92993
296.5099, 56.62866
296.9920, 67.29248
297.4741, 76.00732
297.9562, 82.47339
298.4384, 86.86816
298.9205, 89.82471
299.4026, 85.91187
299.8847, 61.33203
300.3668, 43.81592
300.8489, 47.59155
301.3311, 65.97437
301.8131, 83.81616
302.2953, 91.03223
302.7774, 89.81836
303.2595, 91.60107
303.7416, 100.0217
304.2237, 106.0173
304.7058, 107.8137
305.1880, 106.4990
305.6701, 102.3682
306.1522, 95.40186
306.6343, 88.16309
307.1164, 86.53589
307.5985, 93.87793
308.0807, 94.24463
308.5628, 75.27148
309.0449, 55.04248
309.5270, 44.93994
310.0091, 45.67383
310.4912, 49.50415
310.9734, 51.24951
311.4555, 50.82007
311.9376, 46.34082
312.4197, 33.80908
312.9018, 22.88721
313.3839, 18.34033
313.8661, 19.67163
314.3482, 26.08252
314.8303, 41.69482
315.3124, 60.20654
315.7945, 71.66846
316.2766, 76.31860
316.7588, 71.88989
317.2409, 46.34521
317.7230, 14.51489
318.2051, 1.976807
318.6872, 18.94800
319.1693, 42.98267
319.6515, 60.38013
320.1336, 71.43579
320.6157, 77.00293
321.0978, 75.59863
321.5799, 71.45337
322.0620, 72.10107
322.5442, 78.55298
323.0263, 82.55054
323.5084, 79.61621
323.9905, 73.85522
324.4726, 70.06812
324.9547, 69.06641
325.4369, 70.41235
325.9190, 73.41479
326.4011, 78.19897
326.8832, 87.29297
327.3653, 109.0229
327.8474, 127.3782
328.3296, 129.6721
328.8117, 120.4592
329.2938, 114.6594
329.7759, 121.6589
330.2580, 137.6907
330.7401, 145.3738
331.2223, 137.3643
331.7044, 128.6838
332.1865, 119.5713
332.6686, 112.9231
333.1507, 111.5886
333.6328, 116.1353
334.1150, 123.8367
334.5971, 130.3643
335.0792, 133.9856
335.5613, 138.1328
336.0434, 146.9666
336.5255, 155.4839
337.0077, 159.2615
337.4898, 158.3979
337.9719, 156.1147
338.4540, 154.6892
338.9361, 153.7866
339.4182, 153.1357
339.9004, 150.8257
340.3825, 155.6609
340.8646, 175.6875
341.3467, 200.6157
341.8288, 217.1147
342.3109, 219.6899
342.7931, 214.0752
343.2752, 206.5225
343.7573, 196.1775
344.2394, 196.5674
344.7215, 216.7073
345.2036, 242.7715
345.6858, 264.8677
346.1679, 283.1462
346.6500, 300.9971
347.1321, 319.9360
347.6142, 339.2695
348.0963, 359.0291
348.5785, 380.3411
349.0606, 398.5874
349.5427, 406.5974
350.0248, 408.1658
350.5069, 414.6926
350.9890, 428.5256
351.4712, 447.8118
351.9533, 475.5752
352.4354, 509.3684
352.9175, 535.6650
353.3996, 546.1484
353.8817, 547.4543
354.3639, 556.6086
354.8460, 572.5190
355.3281, 595.8081
355.8102, 635.2454
356.2923, 678.2434
356.7744, 705.2830
357.2566, 713.5447
357.7387, 722.4624
358.2208, 755.7927
358.7029, 821.0635
359.1850, 868.8293
359.6671, 886.8936
360.1493, 902.2224
360.6314, 927.8193
361.1135, 960.1318
361.5956, 988.1121
362.0777, 1004.555
362.5598, 1014.804
363.0420, 1039.671
363.5241, 1094.836
364.0062, 1139.346
364.4883, 1161.569
364.9704, 1176.678
365.4525, 1197.767
365.9347, 1227.240
366.4168, 1258.189
366.8989, 1282.255
367.3810, 1299.090
367.8631, 1316.855
368.3452, 1325.776
368.8274, 1349.095
369.3095, 1407.744
369.7916, 1488.781
370.2737, 1560.680
370.7558, 1604.902
371.2379, 1634.783
371.7201, 1672.088
372.2022, 1717.525
372.6843, 1763.528
373.1664, 1811.788
373.6485, 1855.061
374.1306, 1884.695
374.6128, 1900.388
375.0949, 1902.485
375.5770, 1890.267
376.0591, 1864.635
376.5412, 1828.584
377.0233, 1783.297
377.5055, 1722.368
377.9876, 1633.923
378.4697, 1514.497
378.9518, 1409.313
379.4339, 1336.406
379.9160, 1262.428
380.3982, 1163.032
380.8803, 1045.993
381.3624, 935.5234
381.8445, 844.5073
382.3266, 769.6113
382.8087, 699.3606
383.2909, 634.6768
383.7730, 574.8406
384.2551, 515.5149
384.7372, 463.8181
385.2193, 429.7371
385.7014, 412.3047
386.1836, 397.0217
386.6657, 367.1384
387.1478, 321.5369
387.6299, 285.1851
388.1120, 262.5691
388.5941, 244.5933
389.0763, 231.1978
389.5584, 219.6487
390.0405, 205.4604
390.5226, 185.6128
391.0047, 165.1604
391.4868, 154.9673
391.9690, 157.1125
392.4511, 148.7891
392.9332, 111.3142
393.4153, 72.82471
393.8974, 63.16577
394.3795, 82.24561
394.8617, 99.84692
395.3438, 100.8884
395.8259, 91.15601
396.3080, 78.26855
396.7901, 62.58765
397.2722, 48.52295
397.7544, 37.02441
398.2365, 30.15356
398.7186, 34.82812
399.2007, 69.77563
399.6828, 95.09155
400.1649, 87.56274
400.6471, 62.03906
401.1292, 42.32129
401.6113, 36.14941
402.0934, 38.72607
402.5755, 43.91479
403.0576, 55.02539
403.5398, 58.00146
404.0219, 41.54517
404.5040, 28.57837
404.9861, 37.31885
405.4682, 59.66626
405.9503, 73.40332
406.4325, 63.31421
406.9146, 36.93237
407.3967, 21.09155
407.8788, 19.67603
408.3609, 21.20020
408.8430, 25.53174
409.3252, 30.28955
409.8073, 33.29248
410.2894, 34.31934
410.7715, 35.42041
411.2536, 41.60059
411.7357, 50.37476
412.2179, 45.23071
412.7000, 16.95312
413.1821, 5.545654
413.6642, 6.859619
414.1463, 38.83350
414.6284, 60.40601
415.1106, 62.87085
415.5927, 57.47827
416.0748, 50.08276
416.5569, 41.96240
417.0390, 34.39038
417.5211, 26.69702
418.0033, 20.53052
418.4854, 19.03687
418.9675, 23.93091
419.4496, 28.67114
419.9317, 36.78271
420.4138, 41.77319
420.8960, 36.87183
421.3781, 24.17725
421.8602, 10.05493
422.3423, 2.330811
422.8244, 11.28809
423.3065, 11.93091
423.7887, 4.705566
424.2708, 17.02612
424.7529, 17.57666
425.2350, 17.18530
425.7171, 26.22266
426.1992, 44.65894
426.6814, 62.10156
427.1635, 66.95703
427.6456, 60.25879
428.1277, 59.18433
428.6098, 65.72827
429.0919, 74.31665
429.5741, 85.36621
430.0562, 96.17505
430.5383, 100.7898
431.0204, 94.34692
431.5025, 88.15771
431.9846, 94.33691
432.4668, 109.3105
432.9489, 118.9148
433.4310, 118.8489
433.9131, 115.1572
434.3952, 115.0151
434.8773, 118.9075
435.3595, 123.7944
435.8416, 129.2754
436.3237, 135.9480
436.8058, 145.3064
437.2879, 149.7785
437.7701, 163.7507
438.2522, 174.0697
438.7343, 180.9334
439.2164, 173.9913
439.6985, 184.8761
440.1806, 188.6170
440.6628, 192.0660
441.1449, 205.4598
441.6270, 200.5260
442.1091, 213.7621
442.5912, 219.7450
443.0733, 226.3286
443.5555, 241.5928
444.0376, 250.7092
444.5197, 250.3809
445.0018, 253.6416
445.4839, 271.0554
445.9660, 291.3228
446.4482, 302.3774
446.9303, 301.6533
447.4124, 301.2151
447.8945, 311.9683
448.3766, 328.1189
448.8587, 336.2888
449.3409, 334.6091
449.8230, 333.7422
450.3051, 342.2705
450.7872, 359.2905
451.2693, 373.8564
451.7514, 385.8181
452.2336, 395.5039
452.7157, 401.8228
453.1978, 406.4746
453.6799, 411.7263
454.1620, 418.2161
454.6441, 424.9595
455.1263, 430.6738
455.6084, 435.0115
456.0905, 439.7463
456.5726, 444.9302
457.0547, 450.5632
457.5368, 461.2693
458.0190, 471.3000
458.5011, 470.7615
458.9832, 454.4836
459.4653, 431.0139
459.9474, 410.1975
460.4295, 392.0576
460.9117, 382.2646
461.3938, 390.4351
461.8759, 395.4619
462.3580, 376.0901
462.8401, 336.3447
463.3222, 295.7007
463.8044, 255.7534
464.2865, 212.5294
464.7686, 208.2242
465.2507, 200.2663
465.7328, 188.8536
466.2149, 163.6344
466.6971, 156.2397
467.1792, 141.7039
467.6613, 126.8751
468.1434, 121.9916
468.6255, 111.7893
469.1076, 108.1001
469.5898, 98.80249
470.0719, 84.31787
470.5540, 68.43115
471.0361, 52.89355
471.5182, 38.99292
472.0003, 31.40625
472.4825, 34.80859
472.9646, 31.90332
473.4467, 9.355225
473.9288, 13.71045
474.4109, 24.15332
474.8930, 22.02173
475.3752, 17.13159
475.8573, 13.22119
476.3394, 10.85938
476.8215, 13.22974
477.3036, 20.44458
477.7857, 21.76562
478.2679, 8.532471
478.7500, 11.28979
479.2321, 16.80078
479.7142, 0.4892580
480.1963, 9.118164
480.6784, 1.048340
481.1606, 15.04175
481.6427, 17.00635
482.1248, 7.144531
482.6069, 3.041504
483.0890, 4.618408
483.5711, 0.2861330
484.0533, 0.8610840
484.5354, 16.33032
485.0175, 23.48633
485.4996, 12.08960
485.9817, 2.326172
486.4638, 6.578613
486.9460, 8.5450001E-03
487.4281, 7.493164
487.9102, 8.469238
488.3923, 4.425781
488.8744, 1.032227
489.3565, 8.521484
489.8387, 13.25439
490.3208, 9.671387
490.8029, 3.489014
491.2850, 7.566650
491.7671, 27.50098
492.2492, 41.44116
492.7314, 35.37158
493.2135, 23.52612
493.6956, 21.97583
494.1777, 31.09937
494.6598, 42.99194
495.1419, 52.73999
495.6241, 60.27222
496.1062, 63.43359
496.5883, 59.29053
497.0704, 53.98584
497.5525, 47.28003
498.0346, 40.52588
498.5168, 33.61206
498.9989, 27.19653
499.4810, 24.29028
499.9631, 30.78833
500.4452, 43.28394
500.9273, 45.09009
501.4095, 32.44019
501.8916, 20.47217
502.3737, 14.74438
502.8558, 14.81689
503.3379, 21.75635
503.8200, 39.40796
504.3022, 46.88330
504.7843, 23.88599
505.2664, 6.204590
505.7485, 13.70337
506.2306, 1.794434
506.7127, 20.91406
507.1949, 30.32617
507.6770, 31.47583
508.1591, 32.10034
508.6412, 28.99463
509.1233, 29.53467
509.6054, 38.42236
510.0876, 48.22510
510.5697, 54.38770
511.0518, 56.18823
511.5339, 53.97095
512.0161, 45.69897
512.4982, 35.07104
512.9803, 33.20190
513.4624, 41.54248
513.9445, 51.07495
514.4266, 59.41870
514.9088, 66.39575
515.3909, 70.79785
515.8730, 72.58496
516.3551, 72.75171
516.8372, 69.30981
517.3193, 66.57275
517.8015, 67.43506
518.2836, 71.94214
518.7657, 80.13281
519.2478, 92.60864
519.7299, 105.4871
520.2120, 108.9968
520.6942, 96.51343
521.1763, 87.67651
521.6584, 79.06836
522.1405, 77.48071
522.6226, 91.82349
523.1047, 115.5151
523.5869, 132.2693
524.0690, 131.8386
524.5511, 123.4219
525.0332, 122.2771
525.5153, 128.6414
525.9974, 133.5962
526.4796, 134.7339
526.9617, 134.0542
527.4438, 132.1101
527.9259, 130.0798
528.4080, 131.2400
528.8901, 144.1238
529.3723, 152.3042
529.8544, 139.8372
530.3365, 117.3015
530.8186, 103.7307
531.3007, 106.0012
531.7828, 116.7935
532.2650, 128.2810
532.7471, 142.7832
533.2292, 148.9331
533.7113, 138.1855
534.1934, 128.4077
534.6755, 128.7485
535.1577, 131.2178
535.6398, 124.0669
536.1219, 103.7812
536.6040, 82.68701
537.0861, 69.95581
537.5682, 65.04150
538.0504, 69.59692
538.5325, 86.79956
539.0146, 99.52612
539.4967, 93.83936
539.9788, 73.78687
540.4609, 59.70117
540.9431, 57.08984
541.4252, 52.99536
541.9073, 39.84204
542.3894, 25.76099
542.8715, 20.29395
543.3536, 24.85132
543.8358, 34.38159
544.3179, 45.09497
544.8000, 55.28442
545.2821, 58.66870
545.7642, 53.04468
546.2463, 48.30566
546.7285, 43.71924
547.2106, 43.62695
547.6927, 55.93677
548.1748, 78.74951
548.6569, 92.30737
549.1390, 84.62109
549.6211, 66.45996
550.1032, 43.71875
550.5853, 19.44189
551.0674, 7.088867
551.5496, 13.14038
552.0317, 27.12378
552.5138, 31.66797
552.9959, 22.05786
553.4780, 19.05005
553.9601, 29.92969
554.4423, 38.63086
554.9244, 37.40723
555.4065, 30.15527
555.8886, 23.48657
556.3707, 19.82056
556.8528, 16.55371
557.3350, 7.883301
557.8171, 4.578613
558.2992, 5.861328
558.7813, 8.955322
559.2634, 23.65845
559.7455, 26.46387
560.2277, 20.89429
560.7098, 19.29639
561.1919, 24.85596
561.6740, 29.36011
562.1561, 32.07544
562.6382, 31.10352
563.1204, 20.65747
563.6025, 3.108643
564.0846, 11.78711
564.5667, 18.41772
565.0488, 18.30469
565.5309, 14.67773
566.0131, 5.246582
566.4952, 1.845947
566.9773, 3.974365
567.4594, 4.495117
567.9415, 5.104492
568.4236, 5.754395
568.9058, 5.925293
569.3879, 6.127686
569.8700, 5.083252
570.3521, 2.377197
570.8342, 12.65356
571.3163, 10.97656
571.7985, 8.158936
572.2806, 29.76880
572.7627, 35.39062
573.2448, 23.13599
573.7269, 12.77905
574.2090, 1.339111
574.6912, 4.889648
575.1733, 0.1621090
575.6554, 8.895020
576.1375, 12.90210
576.6196, 10.38794
577.1017, 5.499023
577.5839, 2.643311
578.0660, 0.4206540
578.5481, 7.383789
579.0302, 21.79883
579.5123, 33.53149
579.9944, 38.81689
580.4766, 38.51270
580.9587, 32.71484
581.4408, 19.53735
581.9229, 9.666016
582.4050, 3.822998
582.8871, 2.454590
583.3693, 12.14990
583.8514, 25.79858
584.3335, 26.69604
584.8156, 7.038818
585.2977, 19.37598
585.7798, 30.79614
586.2620, 26.15259
586.7441, 17.18555
587.2262, 1.884766
587.7083, 14.83594
588.1904, 7.362305
588.6725, 10.90112
589.1547, 24.59082
589.6368, 30.51099
590.1189, 35.04907
590.6010, 44.00195
591.0831, 51.83960
591.5652, 49.04004
592.0474, 36.72119
592.5295, 25.58447
593.0116, 22.77026
593.4937, 26.08105
593.9758, 28.66260
594.4579, 29.35547
594.9401, 32.03345
595.4222, 37.82959
595.9043, 44.98438
596.3864, 52.73584
596.8685, 61.15063
597.3506, 70.64453
597.8328, 81.87988
598.3149, 93.14185
598.7970, 104.0054
599.2791, 113.6348
599.7612, 118.9731
600.2433, 119.3652
600.7255, 119.2395
601.2076, 122.8445
601.6897, 129.4800
602.1718, 132.9119
602.6539, 128.8381
603.1360, 127.1228
603.6182, 124.8855
604.1003, 128.0283
604.5824, 147.1238
605.0645, 177.1372
605.5466, 197.4805
606.0287, 191.3796
606.5109, 176.0347
606.9930, 180.0408
607.4751, 200.4875
607.9572, 213.2725
608.4393, 210.9761
608.9214, 203.5503
609.4036, 200.9023
609.8857, 203.2061
610.3678, 199.1021
610.8499, 213.0598
611.3320, 221.7439
611.8141, 225.7373
612.2963, 210.1558
612.7784, 219.9919
613.2605, 219.5615
613.7426, 218.6064
614.2247, 231.7654
614.7068, 218.7129
615.1890, 231.2759
615.6711, 232.8005
616.1532, 238.9983
616.6353, 235.7969
617.1174, 236.1897
617.5995, 246.8965
618.0817, 251.8467
618.5638, 247.8579
619.0459, 255.7178
619.5280, 242.6831
620.0101, 248.0610
620.4922, 261.3806
620.9744, 258.0349
621.4565, 265.6028
621.9386, 267.9478
622.4207, 250.1636
622.9028, 266.7407
623.3849, 268.7307
623.8671, 256.0996
624.3492, 272.8528
624.8313, 262.9395
625.3134, 262.6472
625.7955, 269.6125
626.2776, 269.1277
626.7598, 280.5176
627.2419, 280.5388
627.7240, 279.5278
628.2061, 282.5759
628.6882, 272.4136
629.1703, 285.7654
629.6525, 284.2175
630.1346, 290.6943
630.6167, 298.9814
631.0988, 293.5051
631.5809, 294.5200
632.0630, 301.8347
632.5452, 306.6409
633.0273, 306.4480
633.5094, 303.8997
633.9915, 301.6990
634.4736, 299.8083
634.9557, 297.4905
635.4379, 291.5967
635.9200, 288.3582
636.4021, 293.3359
636.8842, 301.5813
637.3663, 306.1213
637.8484, 305.7444
638.3306, 304.2207
638.8127, 305.8423
639.2948, 309.9829
639.7769, 308.8577
640.2590, 300.1895
640.7411, 292.7002
641.2233, 287.5122
641.7054, 284.5974
642.1875, 285.7969
642.6696, 291.9822
643.1517, 297.7771
643.6339, 306.3550
644.1160, 309.5310
644.5981, 297.5378
645.0802, 279.2822
645.5623, 268.1650
646.0444, 267.6658
646.5266, 270.8142
647.0087, 271.5869
647.4908, 270.3276
647.9729, 268.1458
648.4550, 264.3279
648.9371, 262.7969
649.4193, 267.1204
649.9014, 271.2686
650.3835, 268.2332
650.8656, 259.1875
651.3477, 252.3604
651.8298, 251.5098
652.3120, 250.4341
652.7941, 244.8594
653.2762, 237.9731
653.7583, 234.8562
654.2404, 235.7117
654.7225, 235.6401
655.2047, 229.7773
655.6868, 221.2031
656.1689, 221.1902
656.6510, 231.3372
657.1331, 239.7898
657.6152, 241.6843
658.0974, 244.6296
658.5795, 257.0183
659.0616, 276.7727
659.5437, 294.6340
660.0258, 312.5474
660.5079, 325.0835
660.9901, 327.1277
661.4722, 324.9609
661.9543, 323.5898
662.4364, 324.5327
662.9185, 328.5994
663.4006, 336.0242
663.8828, 347.8809
664.3649, 370.2615
664.8470, 403.8362
665.3291, 424.1082
665.8112, 422.4756
666.2933, 418.8586
666.7755, 429.7954
667.2576, 450.9983
667.7397, 463.0623
668.2218, 453.5283
668.7039, 455.0562
669.1860, 479.6782
669.6682, 512.8862
670.1503, 547.5483
670.6324, 580.7092
671.1145, 608.2849
671.5966, 628.0151
672.0787, 644.3315
672.5609, 660.8193
673.0430, 678.6519
673.5251, 707.2534
674.0072, 749.0669
674.4893, 793.1401
674.9714, 832.5034
675.4536, 870.2029
675.9357, 914.6602
676.4178, 975.0703
676.8999, 1021.920
677.3820, 1047.191
677.8641, 1066.373
678.3463, 1082.262
678.8284, 1098.820
679.3105, 1123.480
679.7926, 1158.792
680.2747, 1196.945
680.7568, 1231.941
681.2390, 1262.714
681.7211, 1288.432
682.2032, 1308.910
682.6853, 1320.955
683.1674, 1322.397
683.6495, 1318.465
684.1317, 1316.200
684.6138, 1315.016
685.0959, 1314.529
685.5780, 1318.617
686.0601, 1320.074
686.5422, 1316.395
687.0244, 1308.986
687.5065, 1301.791
687.9886, 1294.294
688.4707, 1277.711
688.9528, 1241.008
689.4349, 1197.460
689.9171, 1158.704
690.3992, 1125.471
690.8813, 1102.811
691.3634, 1091.840
691.8455, 1080.027
692.3276, 1053.743
692.8098, 1015.388
693.2919, 986.5977
693.7740, 971.8669
694.2561, 956.7566
694.7382, 940.3579
695.2203, 921.0618
695.7025, 898.3601
696.1846, 871.8577
696.6667, 839.9460
697.1488, 795.5503
697.6309, 755.6990
698.1130, 733.8523
698.5952, 719.3591
699.0773, 699.8508
699.5594, 674.0566
700.0415, 644.7725
700.5236, 612.4119
701.0057, 581.3708
701.4879, 563.9331
701.9700, 561.2842
702.4521, 544.5068
702.9342, 504.6667
703.4163, 466.9875
703.8984, 446.6648
704.3806, 438.6370
704.8627, 431.0120
705.3448, 425.1821
705.8269, 415.7925
706.3090, 397.5325
706.7911, 380.0176
707.2733, 371.2285
707.7554, 366.3877
708.2375, 354.8496
708.7196, 333.9731
709.2017, 317.0664
709.6838, 320.2310
710.1660, 336.0720
710.6481, 348.2876
711.1302, 356.3477
711.6123, 353.9890
712.0944, 337.1409
712.5765, 316.7869
713.0587, 306.4868
713.5408, 306.6697
714.0229, 307.6885
714.5050, 306.8447
714.9871, 310.7166
715.4692, 325.5144
715.9514, 341.2524
716.4335, 350.0178
716.9156, 352.0637
717.3977, 352.0652
717.8798, 352.8218
718.3619, 350.7917
718.8441, 340.6392
719.3262, 326.8850
719.8083, 316.9092
720.2904, 311.5764
720.7725, 307.9082
721.2546, 304.5176
721.7368, 299.0894
722.2189, 285.2798
722.7010, 261.9448
723.1831, 237.0254
723.6652, 206.7021
724.1473, 183.6672
724.6295, 180.6946
725.1116, 187.8022
725.5937, 183.7483
726.0758, 164.6973
726.5579, 147.7988
727.0400, 141.7749
727.5222, 132.9795
728.0043, 107.3276
728.4864, 75.50269
728.9685, 56.24414
729.4506, 53.90210
729.9327, 55.43994
730.4149, 49.10181
730.8970, 38.42432
731.3791, 32.55298
731.8612, 30.60205
732.3433, 23.23828
732.8254, 7.758057
733.3076, 5.151123
733.7897, 2.779053
734.2718, 12.97437
734.7539, 16.27441
735.2360, 5.579102
735.7181, 18.60229
736.2003, 9.330566
736.6824, 0.5703130
737.1645, 4.265381
737.6466, 18.27563
738.1287, 26.82227
738.6108, 23.04150
739.0930, 17.41406
739.5751, 13.66553
740.0572, 12.26538
740.5393, 18.38013
741.0214, 28.28979
741.5035, 28.15112
741.9857, 11.74927
742.4678, 6.441406
742.9499, 4.388428
743.4320, 15.46851
743.9141, 26.34644
744.3962, 26.79761
744.8784, 24.45654
745.3605, 21.08008
745.8426, 17.27588
746.3247, 14.33179
746.8068, 12.91602
747.2889, 10.29370
747.7711, 4.303467
748.2532, 0.4938960
748.7353, 2.508301
749.2174, 2.960449
749.6995, 1.725342
750.1816, 0.1086430
750.6638, 0.8024900
751.1459, 7.146973
751.6280, 14.83423
752.1101, 21.31860
752.5922, 26.09131
753.0743, 27.27710
753.5565, 25.10181
754.0386, 22.41333
754.5207, 21.06470
755.0028, 21.99658
755.4849, 29.94775
755.9670, 47.16895
756.4492, 47.28760
756.9313, 19.63977
757.4134, 5.6030001E-02
757.8955, 9.766724
758.3776, 32.99622
758.8597, 45.88562
759.3419, 47.60229
759.8240, 49.83728
760.3061, 57.22559
760.7882, 60.83032
761.2703, 53.66809
761.7524, 43.43823
762.2346, 38.24194
762.7167, 38.53699
763.1988, 40.26172
763.6809, 41.74036
764.1630, 43.03748
764.6451, 44.42908
765.1273, 45.58716
765.6094, 45.10681
766.0915, 43.10083
766.5736, 42.48621
767.0557, 45.36353
767.5378, 49.57227
768.0200, 49.36755
768.5021, 43.08618
768.9842, 40.60767
769.4663, 44.45081
769.9484, 47.39587
770.4305, 45.27319
770.9127, 40.89050
771.3948, 38.94348
771.8769, 39.42578
772.3590, 42.10339
772.8411, 51.42029
773.3232, 57.58618
773.8054, 55.60413
774.2875, 49.41479
774.7696, 42.70984
775.2517, 35.96814
775.7338, 28.35242
776.2159, 17.17615
776.6981, 10.18555
777.1802, 21.74402
777.6623, 42.78101
778.1444, 50.32251
778.6265, 42.99280
779.1086, 36.63123
779.5908, 40.33313
780.0729, 49.56128
780.5550, 56.87183
781.0371, 62.63257
781.5192, 63.46021
782.0013, 57.27234
782.4835, 49.64185
782.9656, 39.88184
783.4477, 32.84070
783.9298, 37.34985
784.4119, 53.79602
784.8940, 63.18445
785.3762, 60.39685
785.8583, 56.04993
786.3404, 53.67236
786.8225, 50.32910
787.3046, 42.53088
787.7867, 31.34058
788.2689, 19.45056
788.7510, 5.229858
789.2331, 0.4766850
789.7152, 20.49646
790.1973, 51.21899
790.6794, 65.10779
791.1616, 62.26367
791.6437, 52.78503
792.1258, 40.89062
792.6079, 31.10327
793.0900, 32.25732
793.5721, 41.79321
794.0543, 33.74219
794.5364, 2.981323
795.0185, 12.16577
795.5006, 5.235352
795.9827, 27.98987
796.4648, 28.99170
796.9470, 10.79175
797.4291, 0.7905270
797.9112, 1.139282
798.3933, 1.819946
798.8754, 7.817017
799.3575, 9.770142
799.8397, 2.206543
800.3218, 21.15796
800.8039, 34.81726
801.2860, 40.04260
801.7681, 38.31982
802.2502, 26.54065
802.7324, 12.47571
803.2145, 1.037354
803.6966, 6.748169
804.1787, 8.363159
804.6608, 4.200317
805.1429, 0.3935550
805.6251, 3.155273
806.1072, 8.029297
806.5893, 5.809937
807.0714, 2.863159
807.5535, 16.48853
808.0356, 35.63550
808.5178, 48.49951
808.9999, 45.91858
809.4820, 33.30261
809.9641, 23.18384
810.4462, 14.11597
810.9283, 13.37219
811.4105, 27.05237
811.8926, 39.18384
812.3747, 45.64246
812.8568, 46.03650
813.3389, 35.18579
813.8210, 13.33533
814.3032, 5.501465
814.7853, 28.82581
815.2674, 50.02612
815.7495, 57.89636
816.2316, 58.02075
816.7137, 52.19336
817.1959, 43.40308
817.6780, 38.38855
818.1601, 40.99524
818.6422, 42.99805
819.1243, 33.19568
819.6064, 20.63098
820.0886, 19.69397
820.5707, 29.18274
821.0528, 43.71033
821.5349, 60.87817
822.0170, 72.27185
822.4991, 66.84973
822.9813, 48.91150
823.4634, 36.70325
823.9455, 30.36060
824.4276, 24.01404
824.9097, 14.93005
825.3918, 12.77991
825.8740, 28.59680
826.3561, 54.10681
826.8382, 59.79846
827.3203, 29.17896
827.8024, 17.03809
828.2845, 40.53271
828.7667, 61.58472
829.2488, 63.74768
829.7309, 57.80334
830.2130, 58.29578
830.6951, 65.99976
831.1772, 64.98059
831.6594, 39.35364
832.1415, 19.12866
832.6236, 20.75854
833.1057, 31.63306
833.5878, 42.81860
834.0699, 50.79749
834.5521, 49.31982
835.0342, 33.90784
835.5163, 20.02307
835.9984, 26.76880
836.4805, 41.94666
836.9626, 45.87402
837.4448, 39.49792
837.9269, 28.37109
838.4090, 15.08691
838.8911, 8.328125
839.3732, 19.75427
839.8553, 42.96716
840.3375, 53.04419
840.8196, 49.64624
841.3017, 50.96912
841.7838, 61.87085
842.2659, 68.99072
842.7480, 61.61438
843.2302, 46.37854
843.7123, 40.48767
844.1944, 47.74878
844.6765, 52.85388
845.1586, 53.18909
845.6407, 54.90894
846.1229, 63.76758
846.6050, 71.69043
847.0871, 69.41711
847.5692, 59.21680
848.0513, 53.88721
848.5334, 59.40759
849.0156, 64.15833
849.4977, 65.35034
849.9798, 64.29504
850.4619, 61.53674
850.9440, 57.47693
851.4261, 52.24561
851.9083, 45.69934
852.3904, 39.56128
852.8725, 32.30688
853.3546, 30.84058
853.8367, 46.30444
854.3188, 68.60010
854.8010, 76.38147
855.2831, 67.16162
855.7652, 56.81897
856.2473, 55.06921
856.7294, 59.16711
857.2115, 71.35791
857.6937, 88.67285
858.1758, 90.62866
858.6579, 75.40503
859.1400, 64.94629
859.6221, 70.37964
860.1042, 78.86853
860.5864, 69.67749
861.0685, 43.80200
861.5506, 35.22778
862.0327, 51.32715
862.5148, 56.94629
862.9969, 38.70850
863.4791, 18.85278
863.9612, 16.89294
864.4433, 27.25208
864.9254, 27.94666
865.4075, 7.992310
865.8896, 0.8416750
866.3718, 16.19189
866.8539, 31.84949
867.3360, 41.59485
867.8181, 46.65381
868.3002, 45.99365
868.7823, 40.67993
869.2645, 41.11792
869.7466, 57.38708
870.2287, 69.60828
870.7108, 72.41016
871.1929, 66.02710
871.6750, 39.88464
872.1572, 6.659668
872.6393, 2.921143
873.1214, 21.49658
873.6035, 47.56519
874.0856, 50.85681
874.5677, 44.55859
875.0499, 41.23560
875.5320, 40.63489
876.0141, 43.11511
876.4962, 47.36768
876.9783, 45.97498
877.4604, 32.15515
877.9426, 16.83350
878.4247, 20.72754
878.9068, 38.09778
879.3889, 48.15137
879.8710, 49.67493
880.3531, 46.96887
880.8353, 40.43286
881.3174, 34.10706
881.7995, 32.56067
882.2816, 34.97607
882.7637, 36.09790
883.2458, 35.76660
883.7280, 37.45557
884.2101, 42.73389
884.6922, 45.40601
885.1743, 40.89685
885.6564, 31.62866
886.1385, 25.12744
886.6207, 20.82898
887.1028, 21.82031
887.5849, 36.09827
888.0670, 42.33472
888.5491, 23.78406
889.0313, 4.485962
889.5134, 8.247070
889.9955, 29.15491
890.4776, 41.28906
890.9597, 38.77612
891.4418, 35.16943
891.9240, 28.61462
892.4061, 25.27002
892.8882, 32.09412
893.3703, 41.86206
893.8524, 44.35999
894.3345, 38.77954
894.8167, 34.29907
895.2988, 36.38171
895.7809, 38.19031
896.2630, 36.46289
896.7451, 32.22070
897.2272, 24.52649
897.7094, 16.03296
898.1915, 12.92065
898.6736, 17.47949
899.1557, 23.92822
899.6378, 32.14551
900.1199, 36.11475
900.6021, 23.01770
901.0842, 1.487671
901.5663, 9.891479
902.0484, 8.717773
902.5305, 4.254883
903.0126, 2.315796
903.4948, 0.3679200
903.9769, 10.44250
904.4590, 24.89880
904.9411, 34.48364
905.4232, 38.94531
905.9053, 39.15210
906.3875, 35.44312
906.8696, 31.20654
907.3517, 29.72937
907.8338, 30.18250
908.3159, 29.42310
908.7980, 27.42310
909.2802, 29.19263
909.7623, 36.20728
910.2444, 39.13391
910.7265, 32.80505
911.2086, 22.05017
911.6907, 13.54883
912.1729, 7.213867
912.6550, 0.9741210
913.1371, 7.482178
913.6192, 7.518433
914.1013, 8.441650
914.5834, 22.10095
915.0656, 19.32532
915.5477, 7.292114
916.0298, 2.704834
916.5119, 8.011597
916.9940, 11.72839
917.4761, 10.37061
917.9583, 12.00122
918.4404, 24.71008
918.9225, 35.72986
919.4046, 31.06055
919.8867, 15.97498
920.3688, 10.69958
920.8510, 23.66064
921.3331, 30.86194
921.8152, 22.33313
922.2973, 15.23560
922.7794, 17.83240
923.2615, 25.53174
923.7437, 36.93188
924.2258, 49.94006
924.7079, 51.42468
925.1900, 27.79102
925.6721, 7.909790
926.1542, 5.372070
926.6364, 9.499390
927.1185, 14.26709
927.6006, 18.54517
928.0827, 20.78076
928.5648, 21.10901
929.0469, 24.56335
929.5291, 39.53687
930.0112, 51.96497
930.4933, 50.24841
930.9754, 41.55310
931.4575, 30.42737
931.9396, 19.42749
932.4218, 12.66003
932.9039, 11.52026
933.3860, 12.84546
933.8681, 15.74841
934.3502, 18.10815
934.8323, 15.98572
935.3145, 11.62000
935.7966, 10.66602
936.2787, 12.82190
936.7608, 10.93042
937.2429, 0.7427980
937.7250, 8.231079
938.2072, 4.1016001E-02
938.6893, 16.23071
939.1714, 15.54053
939.6535, 3.439941
940.1356, 7.876953
940.6177, 32.66675
941.0999, 48.09644
941.5820, 31.95251
942.0641, 2.138184
942.5462, 7.610107
943.0283, 1.282471
943.5104, 0.6121830
943.9926, 2.474731
944.4747, 6.919800
944.9568, 11.61877
945.4389, 11.07971
945.9210, 1.093628
946.4031, 19.23499
946.8853, 26.40674
947.3674, 22.93250
947.8495, 22.83301
948.3316, 27.45935
948.8137, 27.13562
949.2958, 16.98352
949.7780, 6.186523
950.2601, 4.891846
950.7422, 11.97913
951.2243, 22.61438
951.7064, 37.59668
952.1885, 49.20825
952.6707, 57.75537
953.1528, 58.59277
953.6349, 47.13342
954.1170, 31.72388
954.5991, 22.61536
955.0812, 19.90942
955.5634, 26.14087
956.0455, 46.59302
956.5276, 59.39917
957.0097, 59.46582
957.4918, 56.80615
957.9739, 56.44702
958.4561, 56.86353
958.9382, 55.84998
959.4203, 52.81421
959.9024, 50.19226
960.3845, 47.43701
960.8666, 46.88416
961.3488, 52.16040
961.8309, 55.14026
962.3130, 47.21362
962.7951, 35.35425
963.2772, 34.23730
963.7593, 46.56775
964.2415, 55.22449
964.7236, 61.52673
965.2057, 62.22717
965.6878, 50.36230
966.1699, 38.97095
966.6520, 37.04004
967.1342, 41.52173
967.6163, 46.37878
968.0984, 52.97278
968.5805, 53.82361
969.0626, 38.02539
969.5447, 30.56384
970.0269, 49.34045
970.5090, 68.09009
970.9911, 61.75696
971.4732, 40.19019
971.9553, 31.89307
972.4374, 45.27710
972.9196, 47.46655
973.4017, 20.64709
973.8838, 1.172974
974.3659, 3.828491
974.8480, 1.819580
975.3301, 8.225464
975.8123, 14.44385
976.2944, 19.89062
976.7765, 24.93237
977.2586, 27.57959
977.7407, 24.74097
978.2228, 22.60120
978.7050, 23.65820
979.1871, 26.92932
979.6692, 32.31653
980.1513, 38.95679
980.6334, 44.64709
981.1155, 49.35730
981.5977, 51.65173
982.0798, 50.42554
982.5619, 47.47839
983.0440, 43.26611
983.5261, 38.11108
984.0082, 30.72119
984.4904, 22.60840
984.9725, 19.78076
985.4546, 27.11584
985.9367, 29.85913
986.4188, 16.27502
986.9009, 3.848145
987.3831, 5.020142
987.8652, 11.51111
988.3473, 13.27344
988.8294, 10.44019
989.3115, 9.239014
989.7936, 12.67261
990.2758, 14.50452
990.7579, 7.432251
991.2400, 3.126343
991.7221, 13.99829
992.2042, 28.72021
992.6863, 31.44971
993.1685, 23.72192
993.6506, 21.01074
994.1327, 31.72876
994.6148, 38.19507
995.0969, 24.74414
995.5790, 12.30017
996.0612, 19.76013
996.5433, 35.08215
997.0254, 46.33838
997.5075, 50.40210
997.9896, 42.37268
998.4717, 13.48962
998.9539, 6.072144
999.4360, 7.117676
999.9181, 24.22473
1000.400, 25.93555
1000.882, 19.16699
1001.364, 9.811035
1001.847, 0.3691410
1002.329, 4.389648
1002.811, 1.755127
1003.293, 2.926514
1003.775, 7.210693
1004.257, 12.40601
1004.739, 22.84766
1005.221, 33.63135
1005.703, 39.15247
1006.186, 38.93127
1006.668, 34.32019
1007.150, 24.69275
1007.632, 14.36072
1008.114, 1.566406
1008.596, 7.161621
1009.078, 4.881958
1009.560, 2.109253
1010.043, 7.245361
1010.525, 9.613281
1011.007, 9.829590
1011.489, 7.358521
1011.971, 5.267090
1012.453, 4.441040
1012.935, 4.885498
1013.417, 9.200562
1013.899, 12.89441
1014.382, 8.533936
1014.864, 1.052979
1015.346, 4.781494
1015.828, 1.630127
1016.310, 8.575317
1016.792, 13.63135
1017.274, 16.78772
1017.756, 17.07935
1018.239, 16.22400
1018.721, 14.29163
1019.203, 12.90857
1019.685, 17.54468
1020.167, 32.05823
1020.649, 39.20239
1021.131, 23.91614
1021.613, 11.78137
1022.095, 19.34534
1022.578, 31.37585
1023.060, 33.36389
1023.542, 27.92639
1024.024, 24.66455
1024.506, 25.78625
1024.988, 26.06763
1025.470, 24.43152
1025.952, 21.38074
1026.435, 12.41785
1026.917, 6.431152
1027.399, 16.86438
1027.881, 33.88330
1028.363, 33.20618
1028.845, 8.391357
1029.327, 4.709351
1029.809, 11.14575
1030.292, 24.53833
1030.774, 25.84753
1031.256, 23.26233
1031.738, 19.77747
1032.220, 17.37793
1032.702, 20.59595
1033.184, 30.26172
1033.666, 39.30884
1034.148, 45.04065
1034.630, 52.99377
1035.113, 65.37671
1035.595, 78.77979
1036.077, 89.94556
1036.559, 101.6556
1037.041, 119.2571
1037.523, 143.1281
1038.005, 162.7715
1038.487, 180.7893
1038.970, 189.9657
1039.452, 175.7188
1039.934, 171.1884
1040.416, 195.9595
1040.898, 233.4603
1041.380, 265.0309
1041.862, 291.0841
1042.344, 316.9038
1042.826, 343.4589
1043.309, 367.6094
1043.791, 392.1743
1044.273, 408.2570
1044.755, 407.6218
1045.237, 404.5581
1045.719, 415.2534
1046.201, 435.5382
1046.683, 447.4033
1047.166, 454.3369
1047.648, 438.1116
1048.130, 387.5996
1048.612, 347.2611
1049.094, 333.1619
1049.576, 326.8517
1050.058, 315.3198
1050.540, 296.9172
1051.022, 264.2352
1051.505, 214.3037
1051.987, 182.0291
1052.469, 170.8120
1052.951, 156.2682
1053.433, 131.5110
1053.915, 109.6643
1054.397, 100.1450
1054.879, 96.12988
1055.361, 84.02502
1055.844, 65.01233
1056.326, 52.91479
1056.808, 47.45459
1057.290, 47.52637
1057.772, 52.81152
1058.254, 51.38049
1058.736, 36.53223
1059.218, 17.26892
1059.701, 4.755127
1060.183, 2.030396
1060.665, 6.417480
1061.147, 7.875000
1061.629, 0.3685300
1062.111, 15.01562
1062.593, 24.58435
1063.075, 23.14099
1063.557, 16.97815
1064.040, 10.88928
1064.522, 6.460571
1065.004, 9.015747
1065.486, 14.70801
1065.968, 12.88538
1066.450, 5.011353
1066.932, 0.2402340
1067.414, 0.6979980
1067.896, 1.0376000E-02
1068.379, 1.103638
1068.861, 0.5062260
1069.343, 7.865967
1069.825, 19.52319
1070.307, 31.56714
1070.789, 40.53894
1071.271, 36.84509
1071.753, 23.17712
1072.236, 16.58813
1072.718, 25.76013
1073.200, 35.34009
1073.682, 32.78662
1074.164, 28.26343
1074.646, 29.42773
1075.128, 33.19519
1075.610, 36.39575
1076.093, 39.24609
1076.575, 44.39697
1077.057, 53.04871
1077.539, 56.83911
1078.021, 46.58167
1078.503, 36.90881
1078.985, 36.89087
1079.467, 37.32239
1079.949, 26.92981
1080.432, 13.91455
1080.914, 13.69666
1081.396, 27.27222
1081.878, 38.28699
1082.360, 47.04260
1082.842, 48.16187
1083.324, 30.84668
1083.806, 17.66150
1084.288, 21.73877
1084.771, 32.84717
1085.253, 43.51099
1085.735, 51.88672
1086.217, 48.00085
1086.699, 22.00720
1087.181, 11.00293
1087.663, 27.23242
1088.145, 33.38000
1088.628, 12.87708
1089.110, 6.961548
1089.592, 5.049805
1090.074, 9.977539
1090.556, 20.36475
1091.038, 26.18311
1091.520, 23.09021
1092.002, 7.078369
1092.484, 14.16760
1092.967, 55.06824
1093.449, 79.19885
1093.931, 58.97144
1094.413, 27.16541
1094.895, 27.23230
1095.377, 47.92493
1095.859, 45.10999
1096.341, 22.83191
1096.823, 13.02783
1097.306, 18.01050
1097.788, 25.71802
1098.270, 32.46326
1098.752, 36.56653
1099.234, 36.43762
1099.716, 33.14941
1100.198, 25.28357
1100.680, 17.14160
1101.163, 20.11548
1101.645, 29.81396
1102.127, 33.93091
1102.609, 31.33777
1103.091, 27.13074
1103.573, 23.41821
1104.055, 23.22180
1104.537, 31.80884
1105.020, 42.08716
1105.502, 47.25769
1105.984, 50.53259
1106.466, 57.70178
1106.948, 65.82715
1107.430, 67.53088
1107.912, 61.42883
1108.394, 52.64221
1108.876, 34.32410
1109.359, 27.17297
1109.841, 56.13867
1110.323, 79.33496
1110.805, 62.36743
1111.287, 31.12170
1111.769, 16.35608
1112.251, 17.95776
1112.733, 24.25146
1113.215, 38.87427
1113.698, 46.60437
1114.180, 40.56335
1114.662, 37.98865
1115.144, 45.24683
1115.626, 53.33789
1116.108, 55.75305
1116.590, 55.63599
1117.072, 59.51086
1117.555, 67.42468
1118.037, 68.95837
1118.519, 62.85632
1119.001, 56.81531
1119.483, 52.16553
1119.965, 46.75110
1120.447, 39.54956
1120.929, 32.37756
1121.411, 26.88818
1121.894, 24.39392
1122.376, 31.85681
1122.858, 45.74316
1123.340, 46.46326
1123.822, 35.30774
1124.304, 21.95972
1124.786, 9.672485
1125.268, 1.891357
1125.750, 0.4934080
1126.233, 6.014526
1126.715, 24.82397
1127.197, 46.11157
1127.679, 54.12244
1128.161, 54.66418
1128.643, 57.39526
1129.125, 61.30505
1129.607, 61.68604
1130.090, 57.01196
1130.572, 45.64111
1131.054, 19.54419
1131.536, 0.6784670
1132.018, 2.566284
1132.500, 2.979736
1132.982, 15.63733
1133.464, 26.23376
1133.947, 19.30762
1134.429, 0.6767580
1134.911, 2.690552
1135.393, 19.95520
1135.875, 31.85767
1136.357, 17.09192
1136.839, 11.18799
1137.321, 28.12183
1137.803, 43.44946
1138.286, 42.50403
1138.768, 32.82764
1139.250, 24.24988
1139.732, 17.24133
1140.214, 17.04419
1140.696, 24.94543
1141.178, 29.57312
1141.660, 29.97144
1142.142, 30.15735
1142.625, 31.56287
1143.107, 29.47864
1143.589, 19.20239
1144.071, 8.704712
1144.553, 16.20142
1145.035, 33.28857
1145.517, 29.59509
1145.999, 14.02820
1146.482, 19.74207
1146.964, 43.53442
1147.446, 54.46899
1147.928, 41.22803
1148.410, 18.85400
1148.892, 8.992554
1149.374, 28.39246
1149.856, 24.72937
1150.339, 8.495239
1150.821, 20.75037
1151.303, 48.84875
1151.785, 52.72327
1152.267, 36.08557
1152.749, 26.91797
1153.231, 35.89038
1153.713, 36.75464
1154.195, 11.32788
1154.677, 6.015503
1155.160, 1.550293
1155.642, 13.09448
1156.124, 16.10327
1156.606, 14.92847
1157.088, 16.35681
1157.570, 19.77820
1158.052, 16.84399
1158.534, 4.376709
1159.017, 0.1901860
1159.499, 5.647339
1159.981, 18.68530
1160.463, 40.35168
1160.945, 54.81458
1161.427, 49.51880
1161.909, 36.46155
1162.391, 36.28821
1162.874, 44.84326
1163.356, 50.55383
1163.838, 52.43176
1164.320, 44.15247
1164.802, 28.47961
1165.284, 17.36450
1165.766, 14.68311
1166.248, 17.83154
1166.730, 29.07812
1167.213, 36.40125
1167.695, 23.24072
1168.177, 9.184082
1168.659, 14.28833
1169.141, 26.67554
1169.623, 30.90527
1170.105, 28.15308
1170.587, 26.22656
1171.069, 26.16260
1171.552, 29.85242
1172.034, 45.89709
1172.516, 52.73743
1172.998, 38.84265
1173.480, 27.45959
1173.962, 31.07996
1174.444, 37.64417
1174.926, 33.69971
1175.409, 23.24841
1175.891, 21.22791
1176.373, 28.90173
1176.855, 25.65405
1177.337, 11.07336
1177.819, 4.522583
1178.301, 9.774414
1178.783, 17.97498
1179.266, 24.95764
1179.748, 30.93860
1180.230, 36.25562
1180.712, 39.94446
1181.194, 41.42920
1181.676, 41.14636
1182.158, 39.56946
1182.640, 37.48962
1183.122, 35.13574
1183.604, 33.24500
1184.087, 37.28381
1184.569, 52.18262
1185.051, 57.48279
1185.533, 33.42468
1186.015, 13.64221
1186.497, 12.84399
1186.979, 18.99426
1187.461, 27.29529
1187.944, 34.78284
1188.426, 36.73889
1188.908, 34.51123
1189.390, 36.86060
1189.872, 46.24475
1190.354, 51.11157
1190.836, 50.65894
1191.318, 48.46216
1191.801, 44.85205
1192.283, 41.54517
1192.765, 37.50232
1193.247, 37.56360
1193.729, 32.98499
1194.211, 27.02234
1194.693, 31.74438
1195.175, 42.36523
1195.657, 52.52527
1196.140, 60.89514
1196.622, 67.45569
1197.104, 71.12598
1197.586, 67.56653
1198.068, 55.56567
1198.550, 42.96423
1199.032, 32.67175
1199.514, 26.42444
1199.996, 27.74780
1200.479, 30.79211
1200.961, 32.37805
1201.443, 32.04663
1201.925, 28.17212
1202.407, 21.64270
1202.889, 16.94800
1203.371, 13.47412
1203.853, 13.51978
1204.336, 16.95227
1204.818, 26.00989
1205.300, 44.06323
1205.782, 53.18872
1206.264, 42.57422
1206.746, 26.57410
1207.228, 23.77258
1207.710, 29.67688
1208.193, 34.01697
1208.675, 37.28857
1209.157, 42.88281
1209.639, 48.22766
1210.121, 43.97620
1210.603, 31.00439
1211.085, 17.77527
1211.567, 8.056519
1212.049, 7.739746
1212.531, 31.29480
1213.014, 50.43921
1213.496, 46.28674
1213.978, 36.87390
1214.460, 33.05310
1214.942, 32.54028
1215.424, 32.82825
1215.906, 33.34827
1216.388, 32.51892
1216.871, 30.09485
1217.353, 27.59241
1217.835, 24.17114
1218.317, 24.90466
1218.799, 31.30750
1219.281, 35.81653
1219.763, 35.02600
1220.245, 33.95386
1220.728, 36.96301
1221.210, 41.82458
1221.692, 46.29700
1222.174, 48.70850
1222.656, 46.13721
1223.138, 38.56946
1223.620, 18.57483
1224.102, 4.881592
1224.584, 3.174683
1225.067, 28.11475
1225.549, 51.55615
1226.031, 47.99841
1226.513, 40.41003
1226.995, 32.34778
1227.477, 27.14417
1227.959, 28.05847
1228.441, 30.60205
1228.923, 32.82983
1229.406, 33.04297
1229.888, 21.45203
1230.370, 4.915894
1230.852, 6.069458
1231.334, 21.60486
1231.816, 22.15247
1232.298, 6.747925
1232.780, 0.2551270
1233.263, 6.604004
1233.745, 16.69849
1234.227, 20.30737
1234.709, 18.30798
1235.191, 0.0000000E+00
##END=



