##NAMES=Aravaipaite
##RRUFFID=R100004
##IDEAL CHEMISTRY=Pb_3_AlF_9_&#183;H_2_O
##LOCALITY=Grand Reef mine, Klondyke, Aravaipa District, Graham County, Arizona, USA
##OWNER=RRUFF
##SOURCE=William W. Pinch
##DESCRIPTION=Colorless thin plates. Same sample as used in Kampf (2001) and Kampf et al (2011).
##STATUS=The identification of this mineral has been confirmed by single-crystal X-ray diffraction.
##URL=rruff.info/R100004
144.9714, 0.0000000E+00
145.4535, 5.992004
145.9356, 5.247528
146.4177, 0.9055480
146.8998, 2.346954
147.3820, 0.1496580
147.8641, 3.974060
148.3462, 10.43530
148.8283, 17.36499
149.3104, 23.90442
149.7925, 28.68396
150.2747, 34.30261
150.7568, 41.06842
151.2389, 48.76819
151.7210, 55.49677
152.2031, 60.37201
152.6852, 64.54462
153.1674, 68.86304
153.6495, 72.53314
154.1316, 76.99933
154.6137, 83.48529
155.0958, 92.04449
155.5779, 97.94739
156.0601, 97.25958
156.5422, 95.18878
157.0243, 96.12463
157.5064, 102.9929
157.9885, 110.9220
158.4706, 118.6008
158.9528, 125.8682
159.4349, 133.5602
159.9170, 140.7783
160.3991, 148.8354
160.8812, 159.2542
161.3633, 175.5336
161.8455, 191.7982
162.3276, 205.3340
162.8097, 215.1771
163.2918, 224.6613
163.7739, 234.2105
164.2560, 239.8201
164.7382, 245.9124
165.2203, 249.0376
165.7024, 252.5911
166.1845, 255.3184
166.6666, 257.0564
167.1487, 258.1448
167.6309, 258.8098
168.1130, 259.0399
168.5951, 258.7393
169.0772, 256.7302
169.5593, 254.8107
170.0414, 254.7990
170.5236, 257.7895
171.0057, 260.8473
171.4878, 261.5331
171.9699, 260.5179
172.4520, 259.7635
172.9341, 260.6867
173.4163, 262.3795
173.8984, 263.6479
174.3805, 263.7593
174.8626, 264.0328
175.3447, 266.5089
175.8268, 270.6449
176.3090, 273.9328
176.7911, 274.4857
177.2732, 273.0831
177.7553, 270.9030
178.2374, 268.1281
178.7195, 264.8251
179.2017, 260.9309
179.6838, 256.4728
180.1659, 251.8927
180.6480, 247.5431
181.1301, 243.3214
181.6122, 238.9515
182.0944, 234.4814
182.5765, 229.7386
183.0586, 223.9691
183.5407, 217.2556
184.0228, 210.8752
184.5049, 206.4611
184.9871, 203.4887
185.4692, 200.2639
185.9513, 196.8949
186.4334, 192.6937
186.9155, 184.5552
187.3976, 172.0804
187.8798, 160.6240
188.3619, 156.7180
188.8440, 159.3152
189.3261, 161.9023
189.8082, 162.1980
190.2903, 160.8121
190.7725, 159.8384
191.2546, 159.2692
191.7367, 159.1517
192.2188, 160.1482
192.7009, 162.1581
193.1830, 162.8977
193.6652, 160.7473
194.1473, 156.3264
194.6294, 153.8063
195.1115, 153.4974
195.5936, 154.0317
196.0757, 153.5380
196.5579, 151.9768
197.0400, 150.6401
197.5221, 150.2963
198.0042, 150.8395
198.4863, 150.5458
198.9684, 149.2467
199.4506, 147.4928
199.9327, 146.1537
200.4148, 145.2863
200.8969, 144.2732
201.3790, 142.3391
201.8611, 139.3873
202.3433, 138.9400
202.8254, 140.1565
203.3075, 142.3024
203.7896, 140.3788
204.2717, 133.4930
204.7538, 127.1823
205.2360, 124.1485
205.7181, 124.7716
206.2002, 124.3879
206.6823, 122.6241
207.1644, 120.2807
207.6465, 119.0209
208.1287, 119.2144
208.6108, 119.1960
209.0929, 117.9395
209.5750, 114.9941
210.0571, 113.4520
210.5392, 113.8052
211.0214, 115.1600
211.5035, 115.4418
211.9856, 114.0535
212.4677, 113.2668
212.9498, 114.2013
213.4319, 117.1562
213.9140, 120.5188
214.3962, 124.3408
214.8783, 128.5290
215.3604, 132.5410
215.8425, 135.7762
216.3246, 140.2177
216.8067, 147.1760
217.2889, 157.5089
217.7710, 167.0318
218.2531, 175.4497
218.7352, 183.0914
219.2173, 190.8788
219.6994, 198.6611
220.1816, 206.9033
220.6637, 215.9492
221.1458, 225.9106
221.6279, 236.5557
222.1100, 248.5414
222.5921, 261.0114
223.0743, 271.8593
223.5564, 279.9767
224.0385, 288.3654
224.5206, 298.2798
225.0027, 310.4069
225.4848, 322.5781
225.9670, 334.4271
226.4491, 346.3116
226.9312, 359.6171
227.4133, 375.2520
227.8954, 390.7173
228.3775, 404.5844
228.8597, 416.8975
229.3418, 427.9360
229.8239, 437.3381
230.3060, 445.5350
230.7881, 453.4407
231.2702, 461.0620
231.7524, 468.4398
232.2345, 475.6488
232.7166, 483.4348
233.1987, 489.4969
233.6808, 493.6450
234.1629, 496.1069
234.6451, 497.5182
235.1272, 497.9438
235.6093, 497.2726
236.0914, 495.3375
236.5735, 491.5153
237.0556, 488.0325
237.5378, 485.2646
238.0199, 482.8162
238.5020, 479.6352
238.9841, 475.4170
239.4662, 470.8663
239.9483, 466.3786
240.4305, 462.6870
240.9126, 457.4080
241.3947, 450.2670
241.8768, 441.6304
242.3589, 432.1111
242.8410, 420.4733
243.3232, 409.7275
243.8053, 401.5497
244.2874, 397.6187
244.7695, 392.1285
245.2516, 384.4871
245.7337, 375.4276
246.2159, 366.5627
246.6980, 357.7268
247.1801, 349.3881
247.6622, 341.5765
248.1443, 334.0844
248.6264, 327.7493
249.1086, 323.1962
249.5907, 319.4898
250.0728, 314.3979
250.5549, 306.2924
251.0370, 299.5510
251.5191, 296.3488
252.0013, 298.4624
252.4834, 298.0958
252.9655, 294.2057
253.4476, 288.4530
253.9297, 283.9434
254.4118, 281.2860
254.8940, 278.7935
255.3761, 275.6487
255.8582, 271.2667
256.3403, 268.6682
256.8224, 268.6589
257.3046, 269.8248
257.7867, 269.7817
258.2688, 267.9697
258.7509, 266.1701
259.2330, 265.1935
259.7151, 265.3722
260.1973, 264.3312
260.6794, 261.5739
261.1615, 258.1831
261.6436, 255.9397
262.1257, 255.3831
262.6078, 254.5938
263.0900, 252.9572
263.5721, 250.3468
264.0542, 247.8613
264.5363, 245.6573
265.0184, 243.3178
265.5005, 240.2171
265.9827, 236.3923
266.4648, 231.7615
266.9469, 226.2961
267.4290, 220.0206
267.9111, 212.9478
268.3932, 204.7452
268.8754, 196.3381
269.3575, 188.9901
269.8396, 183.0356
270.3217, 176.7784
270.8038, 169.6436
271.2859, 161.6545
271.7681, 154.6603
272.2502, 149.0192
272.7323, 143.7825
273.2144, 138.3064
273.6965, 132.5658
274.1786, 126.1219
274.6608, 118.3782
275.1429, 109.7394
275.6250, 102.5655
276.1071, 97.15491
276.5892, 92.89899
277.0714, 89.75470
277.5535, 87.79663
278.0356, 85.01886
278.5177, 80.94550
278.9998, 75.97253
279.4819, 71.73090
279.9641, 68.30145
280.4462, 64.95923
280.9283, 60.65094
281.4104, 55.35425
281.8925, 51.56104
282.3746, 50.09393
282.8568, 50.06976
283.3389, 48.82935
283.8210, 46.11359
284.3031, 43.60529
284.7852, 43.02216
285.2673, 44.22687
285.7495, 43.99384
286.2316, 41.49097
286.7137, 37.86401
287.1958, 35.65839
287.6779, 34.93549
288.1600, 34.10028
288.6422, 31.87213
289.1243, 28.43860
289.6064, 25.68048
290.0885, 23.78284
290.5706, 22.27783
291.0527, 20.59930
291.5349, 18.76337
292.0170, 16.56958
292.4991, 14.01392
292.9812, 11.04016
293.4633, 7.377258
293.9454, 6.425206
294.4276, 5.915603
294.9097, 5.062683
295.3918, 7.187500
295.8739, 8.530396
296.3560, 9.108093
296.8381, 9.061035
297.3203, 8.457703
297.8024, 7.236206
298.2845, 6.069519
298.7666, 5.954651
299.2487, 6.525696
299.7308, 6.697998
300.2130, 5.391907
300.6951, 3.652283
301.1772, 3.470886
301.6593, 4.828308
302.1414, 6.210022
302.6235, 6.025818
303.1057, 4.892029
303.5878, 4.029297
304.0699, 4.208191
304.5520, 4.572571
305.0341, 3.979980
305.5162, 2.531738
305.9984, 1.146484
306.4805, 0.6922610
306.9626, 0.6554570
307.4447, 0.2813110
307.9268, 0.7396850
308.4089, 1.971741
308.8911, 2.909546
309.3732, 3.670593
309.8553, 4.757568
310.3374, 6.823425
310.8195, 9.188110
311.3016, 11.17731
311.7838, 12.59534
312.2659, 13.74011
312.7480, 14.67383
313.2301, 15.48553
313.7122, 16.36823
314.1943, 17.27618
314.6765, 18.37860
315.1586, 19.88477
315.6407, 21.97760
316.1228, 23.95026
316.6049, 25.42047
317.0870, 26.55383
317.5692, 27.63068
318.0513, 28.98676
318.5334, 30.09747
319.0155, 30.79584
319.4976, 31.08411
319.9797, 30.66559
320.4619, 28.87518
320.9440, 26.49005
321.4261, 24.43286
321.9082, 23.45319
322.3903, 22.27173
322.8724, 20.44611
323.3546, 17.95459
323.8367, 15.36572
324.3188, 12.37952
324.8009, 9.554993
325.2830, 7.374878
325.7651, 6.575012
326.2473, 5.650391
326.7294, 4.386230
327.2115, 2.817505
327.6936, 1.173279
328.1757, 0.4925540
328.6578, 2.215881
329.1400, 4.046387
329.6221, 6.764771
330.1042, 8.476501
330.5863, 8.740173
331.0684, 7.994080
331.5505, 7.422058
332.0327, 6.557434
332.5148, 6.453186
332.9969, 7.917175
333.4790, 12.30981
333.9611, 14.25195
334.4432, 12.51642
334.9254, 9.047852
335.4075, 7.178833
335.8896, 7.525452
336.3717, 8.233582
336.8538, 8.841248
337.3359, 9.395569
337.8180, 9.428040
338.3001, 8.735901
338.7823, 7.818909
339.2644, 7.381958
339.7465, 7.691223
340.2286, 7.282410
340.7107, 5.503906
341.1928, 2.642395
341.6750, 0.8969120
342.1571, 0.5289310
342.6392, 0.2948610
343.1213, 0.9703370
343.6034, 3.282166
344.0855, 5.296753
344.5677, 6.751648
345.0498, 7.813110
345.5319, 8.718018
346.0140, 9.449097
346.4961, 10.51172
346.9782, 12.28717
347.4604, 14.70062
347.9425, 17.53955
348.4246, 21.01550
348.9067, 24.29236
349.3888, 25.75354
349.8709, 25.73969
350.3531, 26.11246
350.8352, 27.70322
351.3173, 30.34109
351.7994, 33.81281
352.2815, 38.11459
352.7636, 42.94830
353.2458, 48.54218
353.7279, 54.47891
354.2100, 59.86212
354.6921, 63.95212
355.1742, 67.54926
355.6563, 71.67319
356.1385, 76.25769
356.6206, 80.59491
357.1027, 83.12384
357.5848, 85.46277
358.0669, 89.75616
358.5490, 97.74289
359.0312, 106.0693
359.5133, 112.8999
359.9954, 118.3862
360.4775, 123.1580
360.9596, 126.4234
361.4417, 129.7921
361.9239, 134.4561
362.4060, 140.8945
362.8881, 147.6156
363.3702, 154.7521
363.8523, 161.7868
364.3344, 167.8458
364.8166, 172.4652
365.2987, 176.1140
365.7808, 178.7914
366.2629, 180.4753
366.7450, 181.9400
367.2271, 183.6536
367.7093, 185.1001
368.1914, 185.7624
368.6735, 184.6833
369.1556, 183.6718
369.6377, 183.5247
370.1198, 184.0314
370.6020, 183.0501
371.0841, 180.1199
371.5662, 176.0860
372.0483, 171.4060
372.5304, 165.7229
373.0125, 159.9631
373.4947, 153.8461
373.9768, 147.8119
374.4589, 142.9957
374.9410, 140.0658
375.4231, 136.9540
375.9052, 132.5471
376.3874, 126.4855
376.8695, 121.8394
377.3516, 118.8568
377.8337, 116.8253
378.3158, 114.7526
378.7979, 112.5803
379.2801, 110.6866
379.7622, 109.0116
380.2443, 107.7047
380.7264, 107.8671
381.2085, 109.7919
381.6906, 111.1031
382.1728, 108.6152
382.6549, 103.1518
383.1370, 100.4054
383.6191, 101.9012
384.1012, 105.4846
384.5833, 107.6478
385.0655, 108.5004
385.5476, 109.2893
386.0297, 110.8691
386.5118, 112.8700
386.9939, 114.8326
387.4760, 116.6940
387.9582, 117.8090
388.4403, 117.1581
388.9224, 115.4507
389.4045, 114.0046
389.8866, 113.5130
390.3687, 113.3785
390.8509, 112.9912
391.3330, 112.1929
391.8151, 111.5291
392.2972, 112.2428
392.7793, 113.1883
393.2614, 112.8715
393.7436, 109.1129
394.2257, 106.2284
394.7078, 107.0454
395.1899, 110.2542
395.6720, 112.4242
396.1541, 111.3585
396.6363, 109.9901
397.1184, 109.7388
397.6005, 111.1028
398.0826, 112.3558
398.5647, 113.4963
399.0468, 114.4973
399.5290, 115.1675
400.0111, 115.6332
400.4932, 115.4228
400.9753, 114.7261
401.4574, 113.5987
401.9395, 110.8583
402.4217, 105.7840
402.9038, 99.75793
403.3859, 93.43591
403.8680, 85.91107
404.3501, 80.39407
404.8322, 78.02228
405.3144, 77.42902
405.7965, 74.99841
406.2786, 70.39456
406.7607, 65.03973
407.2428, 59.02893
407.7249, 52.24744
408.2071, 47.28558
408.6892, 44.36899
409.1713, 42.69421
409.6534, 41.72952
410.1355, 41.36325
410.6176, 39.74744
411.0998, 35.41153
411.5819, 30.02240
412.0640, 28.20322
412.5461, 29.83286
413.0282, 31.43774
413.5103, 29.58578
413.9925, 25.88458
414.4746, 23.86487
414.9567, 24.54456
415.4388, 25.75555
415.9209, 25.07242
416.4030, 23.10162
416.8852, 21.23761
417.3673, 20.15802
417.8494, 19.62503
418.3315, 19.05975
418.8136, 18.46255
419.2957, 18.57175
419.7779, 21.35886
420.2600, 24.38535
420.7421, 25.16205
421.2242, 19.95682
421.7063, 15.57285
422.1884, 14.81720
422.6706, 16.79913
423.1527, 18.11185
423.6348, 17.86508
424.1169, 16.86786
424.5990, 15.24673
425.0811, 12.11343
425.5633, 10.48688
426.0454, 11.49368
426.5275, 13.61188
427.0096, 14.92502
427.4917, 14.82471
427.9738, 14.84494
428.4560, 15.46777
428.9381, 16.67004
429.4202, 17.05481
429.9023, 16.26727
430.3844, 15.23248
430.8665, 14.61401
431.3487, 14.52670
431.8308, 14.37558
432.3129, 14.04727
432.7950, 13.82709
433.2771, 14.58896
433.7592, 16.35434
434.2414, 17.72687
434.7235, 17.86447
435.2056, 17.08600
435.6877, 16.71732
436.1698, 16.78336
436.6519, 16.91150
437.1341, 16.76608
437.6162, 16.39047
438.0983, 15.88733
438.5804, 15.22983
439.0625, 14.54068
439.5446, 14.07526
440.0268, 13.73703
440.5089, 13.16479
440.9910, 11.64078
441.4731, 10.09634
441.9552, 9.553131
442.4373, 10.35611
442.9195, 10.89929
443.4016, 9.680023
443.8837, 7.966614
444.3658, 7.300323
444.8479, 9.830597
445.3300, 11.77496
445.8122, 11.58414
446.2943, 9.490723
446.7764, 7.768036
447.2585, 6.723083
447.7406, 6.141510
448.2227, 5.997711
448.7049, 6.850525
449.1870, 7.009979
449.6691, 5.872620
450.1512, 4.340912
450.6333, 3.941833
451.1154, 5.285706
451.5976, 6.451355
452.0797, 6.915802
452.5618, 6.722839
453.0439, 6.415405
453.5260, 5.973297
454.0081, 5.480957
454.4903, 5.021820
454.9724, 4.595978
455.4545, 4.055634
455.9366, 3.348511
456.4187, 2.598785
456.9008, 1.849396
457.3830, 1.156036
457.8651, 0.9844970
458.3472, 1.950409
458.8293, 3.456787
459.3114, 4.576355
459.7935, 5.285614
460.2757, 5.485229
460.7578, 4.692749
461.2399, 3.450134
461.7220, 2.473602
462.2041, 1.826904
462.6862, 1.681274
463.1684, 2.451996
463.6505, 3.816620
464.1326, 5.007721
464.6147, 6.390411
465.0968, 6.970062
465.5789, 5.705811
466.0611, 2.171967
466.5432, 0.2766720
467.0253, 0.2046200
467.5074, 0.8255920
467.9895, 1.505859
468.4716, 1.169342
468.9538, 1.265778
469.4359, 2.154663
469.9180, 3.515930
470.4001, 4.377899
470.8822, 4.813690
471.3643, 4.559174
471.8465, 3.071930
472.3286, 7.5714000E-02
472.8107, 0.6488950
473.2928, 1.688110
473.7749, 4.384888
474.2570, 3.669891
474.7392, 0.4141850
475.2213, 2.576355
475.7034, 1.138519
476.1855, 2.238220
476.6676, 4.406464
477.1497, 5.433380
477.6319, 5.820862
478.1140, 5.510529
478.5961, 4.815430
479.0782, 4.165222
479.5603, 3.558960
480.0424, 3.198517
480.5246, 3.456482
481.0067, 4.012787
481.4888, 4.418549
481.9709, 4.547485
482.4530, 4.448578
482.9352, 3.976990
483.4173, 3.264648
483.8994, 2.709045
484.3815, 2.896667
484.8636, 2.892212
485.3457, 2.068756
485.8279, 2.362079
486.3100, 1.452667
486.7921, 2.156647
487.2742, 2.287262
487.7563, 1.913239
488.2384, 9.7626001E-02
488.7206, 0.5180970
489.2027, 0.9915770
489.6848, 3.798553
490.1669, 4.881256
490.6490, 3.900940
491.1311, 2.169373
491.6133, 7.4127004E-02
492.0954, 2.811737
492.5775, 4.213837
493.0596, 4.084290
493.5417, 3.378082
494.0238, 2.909241
494.5060, 2.703918
494.9881, 3.001770
495.4702, 4.176941
495.9523, 5.366791
496.4344, 4.992950
496.9165, 3.446930
497.3987, 2.208527
497.8808, 2.098602
498.3629, 2.680542
498.8450, 3.460907
499.3271, 4.390381
499.8092, 5.925262
500.2914, 9.435913
500.7735, 13.14075
501.2556, 15.42712
501.7377, 14.95300
502.2198, 14.09888
502.7019, 13.10406
503.1841, 12.10516
503.6662, 11.51050
504.1483, 10.55658
504.6304, 10.86932
505.1125, 13.54651
505.5946, 18.95490
506.0768, 21.95776
506.5589, 21.33331
507.0410, 20.11841
507.5231, 20.75043
508.0052, 23.40088
508.4873, 26.87878
508.9695, 31.52759
509.4516, 36.18890
509.9337, 38.10040
510.4158, 37.42511
510.8979, 37.34949
511.3800, 39.63910
511.8622, 43.36603
512.3443, 46.43964
512.8264, 48.87012
513.3085, 51.44769
513.7906, 54.90540
514.2728, 58.79510
514.7549, 62.58154
515.2370, 66.20398
515.7191, 69.60187
516.2012, 72.37982
516.6833, 75.00403
517.1655, 78.24786
517.6476, 82.73169
518.1297, 87.50476
518.6118, 91.98822
519.0939, 96.28430
519.5760, 101.6271
520.0582, 109.6497
520.5403, 117.4419
521.0224, 123.6175
521.5045, 127.6223
521.9866, 131.7059
522.4688, 135.8679
522.9509, 140.0958
523.4330, 144.4143
523.9151, 148.7812
524.3972, 153.3788
524.8793, 158.3497
525.3615, 163.5627
525.8436, 168.9231
526.3257, 174.4309
526.8078, 179.1384
527.2899, 182.0660
527.7720, 183.9376
528.2542, 186.5297
528.7363, 189.9470
529.2184, 192.9859
529.7005, 194.1168
530.1826, 194.3645
530.6647, 195.2452
531.1469, 198.1016
531.6290, 200.2695
532.1111, 199.8852
532.5932, 197.7238
533.0753, 195.3720
533.5574, 193.5835
534.0396, 191.7216
534.5217, 189.4068
535.0038, 186.6249
535.4859, 183.9650
535.9680, 181.9926
536.4501, 179.6135
536.9323, 176.0237
537.4144, 170.3257
537.8965, 165.8621
538.3786, 162.8998
538.8607, 160.9064
539.3428, 159.2607
539.8250, 157.9754
540.3071, 156.7908
540.7892, 155.7300
541.2713, 154.6691
541.7534, 153.1180
542.2355, 151.1552
542.7177, 149.5786
543.1998, 149.2618
543.6819, 149.5078
544.1640, 149.0992
544.6461, 147.9194
545.1282, 146.8809
545.6104, 146.6472
546.0925, 146.9417
546.5746, 147.3961
547.0567, 148.0372
547.5388, 148.5332
548.0209, 148.1928
548.5031, 147.8008
548.9852, 148.9154
549.4673, 154.2099
549.9494, 158.3618
550.4315, 159.7681
550.9136, 158.4421
551.3958, 157.3781
551.8779, 156.6688
552.3600, 156.0660
552.8421, 155.5260
553.3242, 155.1136
553.8063, 154.0022
554.2885, 151.9449
554.7706, 149.7752
555.2527, 148.9860
555.7348, 149.2766
556.2169, 148.7568
556.6990, 146.8014
557.1812, 143.8508
557.6633, 140.0524
558.1454, 135.6677
558.6275, 131.6658
559.1096, 129.3474
559.5917, 127.1605
560.0739, 123.7953
560.5560, 119.1368
561.0381, 114.2659
561.5202, 109.5394
562.0023, 104.8736
562.4844, 100.1630
562.9666, 94.31305
563.4487, 90.10034
563.9308, 88.98096
564.4129, 88.96674
564.8950, 86.96484
565.3771, 82.19897
565.8593, 77.19861
566.3414, 72.38849
566.8235, 67.80109
567.3056, 63.24072
567.7877, 58.63635
568.2698, 54.73755
568.7520, 52.55554
569.2341, 51.50433
569.7162, 48.99164
570.1983, 44.87909
570.6804, 40.68213
571.1625, 37.96204
571.6447, 36.11163
572.1268, 34.19708
572.6089, 32.04285
573.0910, 29.64893
573.5731, 26.76770
574.0552, 23.68103
574.5374, 20.81635
575.0195, 18.28619
575.5016, 16.06891
575.9837, 14.21515
576.4658, 12.72052
576.9479, 11.37549
577.4301, 10.40900
577.9122, 9.337158
578.3943, 7.881165
578.8764, 5.932983
579.3585, 4.219604
579.8406, 2.712952
580.3228, 1.497253
580.8049, 0.7271120
581.2870, 0.3812870
581.7691, 9.8938003E-02
582.2512, 0.1876830
582.7333, 0.4320680
583.2155, 0.6185910
583.6975, 0.7200930
584.1796, 0.6399540
584.6617, 0.6122174
585.1439, 0.4457400
585.6260, 0.3466190
586.1081, 0.1947020
586.5902, 9.0209998E-02
587.0723, 2.683167
587.5544, 5.059387
588.0366, 4.939880
588.5187, 1.335205
589.0008, 1.362122
589.4829, 2.030212
589.9650, 1.991211
590.4471, 2.278442
590.9293, 3.473328
591.4114, 3.529785
591.8935, 1.921631
592.3756, 0.4591670
592.8577, 2.026855
593.3398, 2.736694
593.8220, 3.217163
594.3041, 3.639465
594.7862, 3.983704
595.2683, 3.895142
595.7504, 3.509521
596.2325, 3.819458
596.7147, 6.488281
597.1968, 9.633911
597.6789, 10.60156
598.1610, 9.160950
598.6431, 8.554077
599.1252, 11.75403
599.6074, 15.88165
600.0895, 18.52905
600.5716, 18.22992
601.0537, 18.25781
601.5358, 19.21057
602.0179, 20.70105
602.5001, 22.23450
602.9822, 23.66260
603.4643, 25.40802
603.9464, 27.59149
604.4285, 30.11572
604.9106, 32.76715
605.3928, 35.51947
605.8749, 38.38129
606.3570, 41.74011
606.8391, 45.17017
607.3212, 46.81097
607.8033, 46.74426
608.2855, 47.21313
608.7676, 50.92194
609.2497, 55.76367
609.7318, 58.81207
610.2139, 59.34772
610.6960, 59.77673
611.1782, 61.12811
611.6603, 63.07581
612.1424, 65.33026
612.6245, 68.48486
613.1066, 71.21954
613.5887, 73.31030
614.0709, 74.89673
614.5530, 76.28400
615.0351, 77.51398
615.5172, 78.53162
615.9993, 79.22009
616.4814, 79.50537
616.9636, 79.66815
617.4457, 79.76562
617.9278, 79.21497
618.4099, 76.68347
618.8920, 73.37781
619.3741, 72.92987
619.8563, 75.42328
620.3384, 77.88507
620.8205, 78.29126
621.3026, 77.05688
621.7847, 74.60004
622.2668, 70.53119
622.7490, 66.80939
623.2311, 64.02100
623.7132, 61.81549
624.1953, 59.92462
624.6774, 58.82855
625.1595, 57.64746
625.6417, 56.10962
626.1238, 54.29169
626.6059, 52.57996
627.0880, 50.95520
627.5701, 49.53131
628.0522, 48.51465
628.5344, 47.78888
629.0165, 46.57684
629.4986, 44.83685
629.9807, 42.73126
630.4628, 39.78857
630.9449, 36.72266
631.4271, 34.93384
631.9092, 34.54755
632.3913, 34.69287
632.8734, 35.56689
633.3555, 36.17383
633.8376, 35.49103
634.3198, 32.86084
634.8019, 30.05048
635.2840, 26.66748
635.7661, 23.31415
636.2482, 21.00836
636.7303, 20.18427
637.2125, 19.74927
637.6946, 19.67181
638.1767, 19.87738
638.6588, 20.36932
639.1409, 21.30383
639.6230, 21.21667
640.1052, 18.69934
640.5873, 15.00763
641.0694, 14.61664
641.5515, 17.21576
642.0336, 19.24500
642.5157, 17.38446
642.9979, 14.11151
643.4800, 12.36420
643.9621, 12.45074
644.4442, 12.69086
644.9263, 12.11029
645.4084, 11.52258
645.8906, 11.51331
646.3727, 12.68329
646.8548, 13.10406
647.3369, 12.08582
647.8190, 10.87726
648.3011, 11.03784
648.7833, 13.11761
649.2654, 14.16199
649.7475, 13.54773
650.2296, 12.02057
650.7117, 11.19910
651.1938, 10.98267
651.6760, 10.25006
652.1581, 7.848267
652.6402, 5.263489
653.1223, 4.830872
653.6044, 6.154358
654.0865, 7.661438
654.5687, 9.253235
655.0508, 10.12360
655.5329, 9.156006
656.0150, 6.207458
656.4971, 4.546997
656.9792, 6.740295
657.4614, 8.909790
657.9435, 8.781067
658.4256, 5.385864
658.9077, 3.032227
659.3898, 1.837646
659.8719, 1.465759
660.3541, 1.775879
660.8362, 2.751099
661.3183, 3.680176
661.8004, 4.480225
662.2825, 5.064209
662.7646, 5.225830
663.2468, 5.064819
663.7289, 4.829590
664.2110, 4.697266
664.6931, 4.458557
665.1752, 3.833252
665.6573, 2.971252
666.1395, 2.171448
666.6216, 1.587280
667.1037, 1.020752
667.5858, 0.2072140
668.0679, 0.7417600
668.5500, 0.9515380
669.0322, 0.2932740
669.5143, 0.8726200
669.9964, 2.813477
670.4785, 5.383179
670.9606, 6.004272
671.4427, 4.528198
671.9249, 2.490601
672.4070, 0.5015870
672.8891, 1.048401
673.3712, 0.9326170
673.8533, 1.112671
674.3354, 3.037109
674.8176, 3.534119
675.2997, 3.061218
675.7818, 1.992004
676.2639, 2.424197
676.7460, 1.846436
677.2281, 2.165100
677.7103, 1.708679
678.1924, 0.9736330
678.6745, 0.6149900
679.1566, 1.097351
679.6387, 0.3024290
680.1208, 0.7286556
680.6030, 0.3807075
681.0851, 1.039490
681.5672, 0.2532960
682.0493, 1.7517000E-02
682.5314, 0.8194580
683.0135, 9.3566999E-02
683.4957, 1.763611
683.9778, 3.174194
684.4599, 3.121460
684.9420, 2.449402
685.4241, 1.465393
685.9063, 0.2608030
686.3884, 0.4854740
686.8705, 0.5970460
687.3526, 0.1611940
687.8347, 1.054688
688.3168, 3.349365
688.7990, 4.199585
689.2811, 3.159302
689.7632, 1.723206
690.2453, 1.219849
690.7274, 1.527893
691.2095, 0.7363280
691.6917, 1.499146
692.1738, 3.183777
692.6559, 1.219360
693.1380, 2.511108
693.6201, 4.727478
694.1022, 4.298157
694.5844, 3.308228
695.0665, 2.132935
695.5486, 1.374756
696.0307, 1.809937
696.5128, 5.710083
696.9949, 8.074402
697.4771, 7.843445
697.9592, 6.088135
698.4413, 4.865173
698.9234, 4.254333
699.4055, 3.861023
699.8876, 3.543579
700.3698, 3.420593
700.8519, 4.304016
701.3340, 5.931458
701.8161, 6.486511
702.2982, 3.753540
702.7803, 0.3206790
703.2625, 0.7095340
703.7446, 0.2344970
704.2267, 0.9051510
704.7088, 0.6669310
705.1909, 1.911255
705.6730, 1.236633
706.1552, 1.630188
706.6373, 3.911499
707.1194, 5.537720
707.6015, 6.649353
708.0836, 7.379456
708.5657, 7.747009
709.0479, 6.823059
709.5300, 4.330261
710.0121, 2.192932
710.4942, 2.628967
710.9763, 4.681152
711.4584, 6.142151
711.9406, 6.675659
712.4227, 6.948425
712.9048, 7.283875
713.3869, 7.700562
713.8690, 8.269836
714.3511, 9.359253
714.8333, 9.960388
715.3154, 9.668579
715.7975, 8.926025
716.2796, 8.171875
716.7617, 7.474792
717.2438, 6.540466
717.7260, 5.102600
718.2081, 3.815735
718.6902, 4.145020
719.1723, 5.881165
719.6544, 7.392273
720.1365, 8.328857
720.6187, 8.559021
721.1008, 7.119629
721.5829, 4.857544
722.0650, 3.727783
722.5471, 5.444336
723.0292, 7.596985
723.5114, 9.464844
723.9935, 10.94397
724.4756, 11.70068
724.9577, 11.32745
725.4398, 10.84326
725.9219, 10.50836
726.4041, 10.31323
726.8862, 9.972839
727.3683, 9.463623
727.8504, 9.184387
728.3325, 9.610779
728.8146, 10.37677
729.2968, 10.76495
729.7789, 10.77911
730.2610, 10.45709
730.7431, 9.104553
731.2252, 7.948425
731.7073, 8.210510
732.1895, 10.03711
732.6716, 11.16510
733.1537, 10.28278
733.6358, 9.410522
734.1179, 9.492920
734.6000, 10.66302
735.0822, 12.01849
735.5643, 13.83167
736.0464, 15.14972
736.5285, 14.72308
737.0106, 12.98724
737.4927, 11.64758
737.9749, 10.78259
738.4570, 10.71869
738.9391, 12.79980
739.4212, 15.39893
739.9033, 16.43884
740.3854, 14.75409
740.8676, 13.38226
741.3497, 13.72211
741.8318, 14.43750
742.3139, 14.17535
742.7960, 12.43854
743.2781, 10.87299
743.7603, 9.306274
744.2424, 8.249390
744.7245, 8.852844
745.2066, 10.90692
745.6887, 12.56610
746.1708, 13.40875
746.6530, 13.52545
747.1351, 12.53607
747.6172, 11.00598
748.0993, 10.00012
748.5814, 10.34235
749.0635, 10.78351
749.5457, 10.74200
750.0278, 10.46521
750.5099, 10.71332
750.9920, 12.31476
751.4741, 12.86157
751.9562, 11.66284
752.4384, 9.357605
752.9205, 7.279358
753.4026, 5.441956
753.8847, 4.697144
754.3668, 5.867798
754.8489, 7.760559
755.3311, 8.978943
755.8132, 9.560913
756.2953, 9.577026
756.7774, 8.688782
757.2595, 7.607483
757.7416, 6.474854
758.2238, 5.395325
758.7059, 4.755859
759.1880, 4.495117
759.6701, 4.768616
760.1522, 5.785034
760.6343, 7.260925
761.1165, 8.450134
761.5986, 9.481812
762.0807, 9.924988
762.5628, 9.123596
763.0449, 7.612000
763.5270, 6.257568
764.0092, 5.208618
764.4913, 4.522034
764.9734, 4.589111
765.4555, 4.650635
765.9376, 4.074829
766.4197, 2.837158
766.9019, 2.195923
767.3840, 2.390686
767.8661, 2.874756
768.3482, 3.639587
768.8303, 4.710510
769.3124, 5.259399
769.7946, 5.172485
770.2767, 4.702087
770.7588, 3.248840
771.2409, 1.806458
771.7230, 2.785828
772.2051, 6.112854
772.6873, 8.639160
773.1694, 7.726074
773.6515, 5.961487
774.1336, 5.092407
774.6157, 5.466553
775.0978, 5.581604
775.5800, 5.185791
776.0621, 4.744019
776.5442, 4.384827
777.0263, 4.085144
777.5084, 5.326843
777.9905, 8.366089
778.4727, 10.49707
778.9548, 8.216736
779.4369, 3.836548
779.9190, 1.425354
780.4011, 1.516052
780.8832, 2.288269
781.3654, 3.453369
781.8475, 4.384399
782.3296, 4.496948
782.8117, 3.300049
783.2938, 2.594360
783.7759, 2.154358
784.2581, 2.544189
784.7402, 4.876343
785.2223, 9.150818
785.7044, 10.74243
786.1865, 9.239807
786.6686, 7.068481
787.1508, 6.814331
787.6329, 7.277405
788.1150, 6.242004
788.5971, 3.023865
789.0792, 0.6442870
789.5613, 1.232178
790.0435, 2.768799
790.5256, 3.642456
791.0077, 3.570435
791.4898, 3.245850
791.9719, 2.330261
792.4540, 1.847107
792.9362, 3.430603
793.4183, 6.778870
793.9004, 7.552368
794.3825, 5.160461
794.8646, 2.598328
795.3467, 2.837036
795.8289, 4.626038
796.3110, 6.560242
796.7931, 8.758484
797.2752, 9.619690
797.7573, 7.289551
798.2394, 4.245728
798.7216, 2.624695
799.2037, 3.241577
799.6858, 2.917114
800.1679, 1.069092
800.6500, 0.4115600
801.1321, 1.204224
801.6143, 5.046509
802.0964, 6.443604
802.5785, 4.627625
803.0606, 2.668518
803.5427, 3.784851
804.0248, 5.967529
804.5070, 6.977722
804.9891, 6.076233
805.4712, 5.008789
805.9533, 3.837402
806.4354, 2.863342
806.9175, 2.417114
807.3997, 2.756226
807.8818, 2.423401
808.3639, 1.224792
808.8460, 7.6290001E-03
809.3281, 0.3391110
809.8102, 3.1067001E-02
810.2924, 0.2387700
810.7745, 0.3698730
811.2566, 0.5952760
811.7387, 1.316284
812.2208, 2.058167
812.7029, 2.332214
813.1851, 1.762512
813.6672, 1.560974
814.1493, 2.021362
814.6314, 2.559570
815.1135, 2.579407
815.5956, 2.032837
816.0778, 2.188782
816.5599, 3.167114
817.0420, 4.262939
817.5241, 5.018555
818.0062, 5.361389
818.4883, 5.018250
818.9705, 3.852661
819.4526, 2.918823
819.9347, 3.287048
820.4168, 3.662354
820.8989, 2.736023
821.3810, 0.3557740
821.8632, 0.9066160
822.3453, 2.128418
822.8274, 5.423462
823.3095, 5.978638
823.7916, 4.327393
824.2737, 3.431152
824.7559, 3.431458
825.2380, 3.236877
825.7201, 1.309387
826.2022, 0.8378910
826.6843, 1.543457
827.1664, 0.5529790
827.6486, 0.6762080
828.1307, 2.550293
828.6128, 3.932007
829.0949, 4.045166
829.5770, 2.689087
830.0591, 2.064453
830.5413, 2.244507
831.0234, 2.811584
831.5055, 3.688660
831.9876, 4.648499
832.4697, 5.296448
832.9518, 5.607666
833.4340, 5.635437
833.9161, 5.283386
834.3982, 4.749573
834.8803, 3.942566
835.3624, 2.819275
835.8445, 2.646667
836.3267, 3.971436
836.8088, 5.192200
837.2909, 5.557129
837.7730, 5.162170
838.2551, 4.403381
838.7372, 3.317871
839.2194, 2.366882
839.7015, 1.939270
840.1836, 1.724121
840.6657, 1.402954
841.1478, 1.010437
841.6299, 0.7857670
842.1121, 0.6869510
842.5942, 0.9203490
843.0763, 1.601501
843.5584, 2.659485
844.0405, 3.896057
844.5226, 5.427795
845.0048, 6.181824
845.4869, 5.278442
845.9690, 3.623047
846.4511, 3.188232
846.9332, 2.167198
847.4153, 3.479492
847.8975, 0.8271480
848.3796, 0.9762570
848.8617, 0.6798100
849.3438, 4.585510
849.8259, 6.491516
850.3080, 5.186279
850.7902, 4.459717
851.2723, 5.401306
851.7544, 7.126099
852.2365, 8.084839
852.7186, 8.315247
853.2007, 7.789001
853.6829, 5.807495
854.1650, 4.224487
854.6471, 5.440857
855.1292, 8.020569
855.6113, 9.564392
856.0934, 8.390991
856.5756, 7.012817
857.0577, 5.544189
857.5398, 4.298828
858.0219, 3.746338
858.5040, 3.911682
858.9861, 4.100769
859.4683, 4.128479
859.9504, 4.303467
860.4325, 5.506653
860.9146, 6.968140
861.3967, 7.152771
861.8788, 4.949097
862.3610, 3.466187
862.8431, 4.812622
863.3252, 6.823608
863.8073, 7.422058
864.2894, 6.053162
864.7715, 4.927063
865.2537, 4.012756
865.7358, 3.567383
866.2179, 4.456055
866.7000, 5.916748
867.1821, 5.683899
867.6642, 3.464050
868.1464, 1.584473
868.6285, 1.720398
869.1106, 2.703247
869.5927, 3.811584
870.0748, 5.111084
870.5569, 5.716003
871.0391, 5.414185
871.5212, 4.767578
872.0033, 3.788513
872.4854, 2.643738
872.9675, 2.969727
873.4496, 4.660400
873.9318, 6.160950
874.4139, 6.074585
874.8960, 5.465576
875.3781, 5.262207
875.8602, 5.449524
876.3423, 5.594727
876.8245, 5.451233
877.3066, 5.458496
877.7887, 5.986023
878.2708, 6.723450
878.7529, 6.057617
879.2350, 3.989624
879.7172, 2.265503
880.1993, 1.720886
880.6814, 1.930237
881.1635, 2.935303
881.6456, 4.266968
882.1277, 4.824341
882.6099, 3.799805
883.0920, 2.415344
883.5741, 0.5156250
884.0562, 1.292603
884.5383, 2.086121
885.0204, 1.702393
885.5026, 1.354858
885.9847, 1.368408
886.4668, 1.221191
886.9489, 0.2755740
887.4310, 2.386414
887.9131, 3.357910
888.3953, 2.048035
888.8774, 1.582214
889.3595, 4.980286
889.8416, 8.832275
890.3237, 9.745178
890.8058, 6.340515
891.2880, 3.830627
891.7701, 2.247681
892.2522, 1.526794
892.7343, 2.028320
893.2164, 3.265503
893.6985, 3.932861
894.1807, 3.924072
894.6628, 3.601257
895.1449, 2.967590
895.6270, 2.281372
896.1091, 1.559448
896.5912, 0.7848510
897.0734, 0.7908330
897.5555, 1.781128
898.0376, 3.084900
898.5197, 4.585876
899.0018, 6.085876
899.4839, 6.722046
899.9661, 6.606934
900.4482, 6.389099
900.9303, 6.689392
901.4124, 6.767151
901.8945, 5.792847
902.3766, 4.175781
902.8588, 3.279297
903.3409, 3.585999
903.8230, 4.019348
904.3051, 4.585693
904.7872, 4.961853
905.2693, 4.019531
905.7515, 2.105103
906.2336, 1.531189
906.7157, 3.670654
907.1978, 5.577576
907.6799, 4.037781
908.1620, 1.130371
908.6442, 0.6275630
909.1263, 2.4048001E-02
909.6084, 0.6084590
910.0905, 1.279968
910.5726, 1.841553
911.0547, 2.339844
911.5369, 2.713684
912.0190, 2.693376
912.5011, 0.2334590
912.9832, 1.939209
913.4653, 1.380920
913.9474, 1.0376000E-02
914.4296, 0.8746950
914.9117, 1.133545
915.3938, 1.191345
915.8759, 0.4613650
916.3580, 0.4870610
916.8401, 2.372742
917.3223, 5.541382
917.8044, 6.393982
918.2865, 5.044678
918.7686, 3.575439
919.2507, 3.073669
919.7328, 2.979797
920.2150, 2.597656
920.6971, 2.198486
921.1792, 2.446167
921.6613, 5.257080
922.1434, 6.267639
922.6255, 3.887085
923.1077, 0.3510130
923.5898, 0.1030270
924.0719, 2.325317
924.5540, 3.941895
925.0361, 3.893372
925.5182, 3.363037
926.0004, 3.625427
926.4825, 4.051025
926.9646, 3.737610
927.4467, 1.952332
927.9288, 1.060120
928.4109, 1.576904
928.8931, 2.653931
929.3752, 4.164917
929.8573, 6.067932
930.3394, 5.503906
930.8215, 2.481628
931.3036, 0.1734620
931.7858, 6.0180999E-02
932.2679, 1.202942
932.7500, 2.341125
933.2321, 3.234863
933.7142, 3.721008
934.1964, 3.732971
934.6785, 3.332703
935.1606, 2.334961
935.6427, 1.042664
936.1248, 0.3148190
936.6069, 0.1382450
937.0891, 0.4807740
937.5712, 1.486145
938.0533, 2.684692
938.5354, 3.960388
939.0175, 5.024048
939.4996, 5.427246
939.9818, 4.921509
940.4639, 3.796448
940.9460, 1.528198
941.4281, 0.5421750
941.9102, 0.8618160
942.3923, 0.3898320
942.8745, 1.394897
943.3566, 2.033936
943.8387, 2.189575
944.3208, 1.217163
944.8029, 0.2448120
945.2850, 0.2623900
945.7672, 1.388306
946.2493, 2.022339
946.7314, 1.734680
947.2135, 1.557129
947.6956, 2.065735
948.1777, 2.900696
948.6599, 2.353943
949.1420, 0.7388920
949.6241, 0.1459960
950.1062, 0.8910520
950.5883, 2.522827
951.0704, 4.571533
951.5526, 6.412109
952.0347, 6.691711
952.5168, 4.209839
952.9989, 2.504822
953.4810, 1.836731
953.9631, 2.005371
954.4453, 3.467285
954.9274, 5.595337
955.4095, 5.832336
955.8916, 3.693726
956.3737, 1.722412
956.8558, 1.444519
957.3380, 2.096924
957.8201, 3.559204
958.3022, 5.912354
958.7843, 6.506287
959.2664, 4.754272
959.7485, 3.079346
960.2307, 2.809814
960.7128, 3.339966
961.1949, 3.252258
961.6770, 2.713318
962.1591, 2.309082
962.6412, 2.300964
963.1234, 2.504639
963.6055, 3.262268
964.0876, 4.036865
964.5697, 3.686707
965.0518, 1.649658
965.5339, 1.508057
966.0161, 4.170410
966.4982, 7.027100
966.9803, 6.668579
967.4624, 4.661255
967.9445, 3.699280
968.4266, 4.313049
968.9088, 4.886230
969.3909, 4.093506
969.8730, 3.834656
970.3551, 5.512878
970.8372, 8.817505
971.3193, 9.703125
971.8015, 8.112854
972.2836, 6.781921
972.7657, 7.621094
973.2478, 9.181702
973.7299, 9.633423
974.2120, 9.444946
974.6942, 9.787354
975.1763, 11.34839
975.6584, 13.05261
976.1405, 15.02820
976.6226, 16.81842
977.1047, 17.59100
977.5869, 17.46497
978.0690, 17.89948
978.5511, 19.24121
979.0332, 19.79132
979.5153, 17.36444
979.9974, 13.98865
980.4796, 11.47980
980.9617, 10.14594
981.4438, 8.863220
981.9259, 7.297119
982.4080, 6.561035
982.8901, 7.727905
983.3723, 9.825012
983.8544, 9.444153
984.3365, 7.133301
984.8186, 5.170105
985.3007, 4.683105
985.7828, 4.790833
986.2650, 5.267822
986.7471, 6.010559
987.2292, 6.831421
987.7113, 7.710876
988.1934, 8.800659
988.6755, 10.23395
989.1577, 11.28113
989.6398, 11.15387
990.1219, 10.15143
990.6040, 8.426147
991.0861, 5.983948
991.5682, 4.145203
992.0504, 4.165588
992.5325, 4.160950
993.0146, 3.137695
993.4967, 1.379150
993.9788, 0.3696290
994.4609, 0.1099240
994.9431, 0.2808840
995.4252, 0.9872440
995.9073, 1.717590
996.3894, 2.044983
996.8715, 1.986511
997.3536, 1.573120
997.8358, 1.518159
998.3179, 0.6075440
998.8000, 0.8010250
999.2821, 0.5868530
999.7642, 4.7913000E-02
1000.246, 0.8620000
1000.728, 1.646484
1001.211, 2.309387
1001.693, 3.472961
1002.175, 6.655640
1002.657, 9.487061
1003.139, 10.34857
1003.621, 9.328491
1004.103, 7.584778
1004.585, 4.725769
1005.068, 2.626404
1005.550, 1.822144
1006.032, 1.967590
1006.514, 3.127441
1006.996, 4.676147
1007.478, 5.319214
1007.960, 4.423218
1008.442, 3.455933
1008.924, 2.621155
1009.407, 1.906128
1009.889, 1.173218
1010.371, 0.4432370
1010.853, 0.4891360
1011.335, 1.363403
1011.817, 2.409058
1012.299, 3.746826
1012.781, 4.582397
1013.263, 3.342896
1013.746, 0.9010620
1014.228, 0.3845830
1014.710, 3.863831
1015.192, 6.239197
1015.674, 6.585632
1016.156, 5.825012
1016.638, 5.157715
1017.120, 4.563782
1017.603, 3.909485
1018.085, 3.174438
1018.567, 2.822388
1019.049, 3.377319
1019.531, 4.200256
1020.013, 5.089050
1020.495, 5.998352
1020.977, 5.482971
1021.459, 3.326660
1021.942, 1.649902
1022.424, 1.665710
1022.906, 2.441711
1023.388, 2.998901
1023.870, 3.297729
1024.352, 3.257751
1024.834, 2.386963
1025.316, 1.854736
1025.799, 1.763855
1026.281, 2.030518
1026.763, 2.778076
1027.245, 3.869873
1027.727, 4.344421
1028.209, 4.178894
1028.691, 4.093872
1029.173, 4.877563
1029.656, 5.641907
1030.138, 5.390259
1030.620, 4.484619
1031.102, 5.396973
1031.584, 8.948425
1032.066, 11.10986
1032.548, 10.71124
1033.030, 8.943726
1033.512, 6.679260
1033.995, 4.710571
1034.477, 4.884155
1034.959, 8.626038
1035.441, 10.56061
1035.923, 7.757202
1036.405, 4.679443
1036.887, 3.900085
1037.369, 5.076050
1037.851, 4.917236
1038.334, 3.569092
1038.816, 2.344910
1039.298, 1.602478
1039.780, 1.632935
1040.262, 3.496765
1040.744, 6.054993
1041.226, 6.980957
1041.708, 5.597168
1042.191, 4.462952
1042.673, 3.807556
1043.155, 3.202271
1043.637, 1.981140
1044.119, 1.571885
1044.601, 0.2717290
1045.083, 0.5393680
1045.565, 0.4542850
1046.047, 0.3210450
1046.530, 0.9152830
1047.012, 1.019104
1047.494, 0.7765500
1047.976, 0.4530030
1048.458, 0.1364750
1048.940, 0.6785890
1049.422, 2.743164
1049.904, 4.312439
1050.386, 3.159302
1050.869, 1.186340
1051.351, 0.3897710
1051.833, 1.069946
1052.315, 1.677368
1052.797, 2.264954
1053.279, 2.527466
1053.761, 1.916016
1054.243, 1.114990
1054.726, 1.719910
1055.208, 1.083696
1055.690, 0.5514843
1056.172, 1.071594
1056.654, 0.1812740
1057.136, 0.7653810
1057.618, 2.748657
1058.100, 5.018494
1058.583, 7.273193
1059.065, 7.041382
1059.547, 4.195557
1060.029, 1.477539
1060.511, 0.9874880
1060.993, 1.354919
1061.475, 2.204407
1061.957, 3.249878
1062.439, 3.257874
1062.922, 1.966309
1063.404, 1.452515
1063.886, 2.547729
1064.368, 3.664917
1064.850, 2.240173
1065.332, 0.1051640
1065.814, 0.9864500
1066.296, 0.5722660
1066.778, 1.266235
1067.261, 5.8959998E-02
1067.743, 0.9656370
1068.225, 3.9795000E-02
1068.707, 2.125366
1069.189, 4.063171
1069.671, 5.555603
1070.153, 5.715820
1070.635, 2.505615
1071.118, 0.1195070
1071.600, 1.406982
1072.082, 3.614075
1072.564, 3.872986
1073.046, 1.976074
1073.528, 0.5371700
1074.010, 0.3635250
1074.492, 0.5648190
1074.974, 0.7171630
1075.457, 1.054016
1075.939, 1.343443
1076.421, 2.091980
1076.903, 2.043640
1077.385, 2.768494
1077.867, 3.112488
1078.349, 2.784729
1078.831, 2.289490
1079.313, 2.357300
1079.796, 2.709106
1080.278, 2.843872
1080.760, 2.687439
1081.242, 2.472229
1081.724, 1.856628
1082.206, 1.746826
1082.688, 2.743164
1083.170, 4.322205
1083.652, 4.807190
1084.135, 4.325623
1084.617, 3.408142
1085.099, 1.974304
1085.581, 0.8266600
1086.063, 0.9276730
1086.545, 1.214966
1087.027, 0.5237430
1087.509, 1.356995
1087.992, 1.747070
1088.474, 0.5382080
1088.956, 0.6002200
1089.438, 0.2510990
1089.920, 0.3309940
1090.402, 0.3368530
1090.884, 1.735046
1091.366, 2.752319
1091.849, 2.885254
1092.331, 3.266296
1092.813, 4.013977
1093.295, 4.780884
1093.777, 5.251526
1094.259, 5.467590
1094.741, 5.486267
1095.223, 5.332275
1095.705, 5.153442
1096.188, 5.104797
1096.670, 4.935730
1097.152, 4.642822
1097.634, 4.174866
1098.116, 2.942932
1098.598, 1.316162
1099.080, 1.823730
1099.562, 5.135193
1100.044, 7.615723
1100.527, 5.519897
1101.009, 3.018250
1101.491, 3.356934
1101.973, 5.893188
1102.455, 6.484192
1102.937, 5.075928
1103.419, 3.269775
1103.901, 1.335449
1104.384, 8.4595002E-02
1104.866, 1.0071000E-02
1105.348, 0.8629150
1105.830, 1.654541
1106.312, 2.321411
1106.794, 2.573914
1107.276, 2.271118
1107.758, 2.026367
1108.240, 2.185181
1108.723, 2.627747
1109.205, 3.145813
1109.687, 3.794312
1110.169, 4.679932
1110.651, 6.688354
1111.133, 7.571655
1111.615, 6.586670
1112.097, 5.494385
1112.579, 6.209900
1113.062, 8.244385
1113.544, 9.384216
1114.026, 9.697021
1114.508, 9.341125
1114.990, 8.528076
1115.472, 6.890686
1115.954, 3.284119
1116.436, 0.4174190
1116.919, 1.081909
1117.401, 1.097656
1117.883, 3.308899
1118.365, 5.252502
1118.847, 6.686462
1119.329, 7.809631
1119.811, 8.004517
1120.293, 5.893738
1120.776, 2.391296
1121.258, 1.480347
1121.740, 3.540527
1122.222, 4.501160
1122.704, 3.222351
1123.186, 1.351013
1123.668, 0.2755130
1124.150, 0.9300540
1124.632, 0.5455320
1125.115, 4.660217
1125.597, 6.415588
1126.079, 5.149048
1126.561, 4.083374
1127.043, 4.669250
1127.525, 5.831909
1128.007, 5.765503
1128.489, 5.019104
1128.971, 4.547913
1129.454, 4.796082
1129.936, 4.776855
1130.418, 4.451843
1130.900, 3.732788
1131.382, 2.088989
1131.864, 0.1903690
1132.346, 0.3723140
1132.828, 2.158569
1133.311, 3.837708
1133.793, 5.074890
1134.275, 5.544556
1134.757, 4.589355
1135.239, 3.563477
1135.721, 3.919067
1136.203, 5.387390
1136.685, 5.786072
1137.167, 5.200562
1137.650, 4.251404
1138.132, 3.289917
1138.614, 2.544250
1139.096, 2.073608
1139.578, 1.910706
1140.060, 2.306946
1140.542, 3.280945
1141.024, 3.486328
1141.506, 2.804993
1141.989, 2.111816
1142.471, 2.034302
1142.953, 2.211731
1143.435, 2.515625
1143.917, 2.856628
1144.399, 2.921997
1144.881, 2.628174
1145.363, 2.655884
1145.846, 3.287659
1146.328, 3.933899
1146.810, 3.268677
1147.292, 2.627869
1147.774, 3.520325
1148.256, 6.104187
1148.738, 8.556946
1149.220, 11.20197
1149.703, 12.05408
1150.185, 10.03174
1150.667, 7.517395
1151.149, 8.054688
1151.631, 9.847229
1152.113, 10.40192
1152.595, 9.109070
1153.077, 8.113953
1153.559, 7.576477
1154.042, 7.275146
1154.524, 7.144775
1155.006, 7.155457
1155.488, 7.330688
1155.970, 7.587891
1156.452, 7.674622
1156.934, 7.231140
1157.416, 7.676758
1157.898, 9.861938
1158.381, 11.57629
1158.863, 11.60303
1159.345, 10.27588
1159.827, 7.776062
1160.309, 4.780762
1160.791, 3.221863
1161.273, 5.164673
1161.755, 6.059875
1162.238, 3.682739
1162.720, 1.591797
1163.202, 3.383118
1163.684, 7.835876
1164.166, 7.840637
1164.648, 4.371460
1165.130, 1.722656
1165.612, 2.684753
1166.094, 3.884460
1166.577, 4.312988
1167.059, 4.466919
1167.541, 4.883728
1168.023, 5.480286
1168.505, 5.674927
1168.987, 5.412476
1169.469, 4.460083
1169.951, 3.552517
1170.433, 1.415955
1170.916, 1.408997
1171.398, 0.6516130
1171.880, 1.026269
1172.362, 2.188171
1172.844, 1.666443
1173.326, 4.538208
1173.808, 6.727173
1174.290, 3.905640
1174.773, 1.002808
1175.255, 1.616394
1175.737, 4.000183
1176.219, 4.998352
1176.701, 4.617004
1177.183, 4.363953
1177.665, 4.457886
1178.147, 4.244019
1178.630, 2.622742
1179.112, 1.045776
1179.594, 0.5173950
1180.076, 0.8941040
1180.558, 1.875977
1181.040, 3.532593
1181.522, 4.427612
1182.004, 4.232605
1182.486, 3.653564
1182.969, 2.603333
1183.451, 1.767761
1183.933, 1.871155
1184.415, 2.777161
1184.897, 3.482910
1185.379, 3.980591
1185.861, 4.423950
1186.343, 4.846069
1186.825, 5.227844
1187.308, 6.068604
1187.790, 6.494202
1188.272, 5.223511
1188.754, 2.322937
1189.236, 0.5833130
1189.718, 6.8970002E-02
1190.200, 0.3695680
1190.682, 1.543152
1191.165, 2.968018
1191.647, 4.507263
1192.129, 5.610718
1192.611, 5.604980
1193.093, 4.390686
1193.575, 2.305603
1194.057, 1.005127
1194.539, 2.485107
1195.021, 0.1848750
1195.504, 2.847168
1195.986, 3.026428
1196.468, 1.940735
1196.950, 1.522949
1197.432, 1.982239
1197.914, 3.357178
1198.396, 5.983398
1198.878, 7.082336
1199.360, 4.325439
1199.843, 0.9528810
1200.325, 0.5819090
1200.807, 2.133301
1201.289, 4.516785
1201.771, 8.272156
1202.253, 9.083374
1202.735, 6.425110
1203.217, 4.333679
1203.700, 5.862671
1204.182, 8.175171
1204.664, 7.698120
1205.146, 8.315979
1205.628, 8.325623
1206.110, 6.902893
1206.592, 6.775757
1207.074, 4.636169
1207.557, 2.340515
1208.039, 0.6050420
1208.521, 0.2356570
1209.003, 0.8401490
1209.485, 2.872620
1209.967, 4.081238
1210.449, 4.156799
1210.931, 3.795776
1211.413, 2.897461
1211.896, 2.211548
1212.378, 2.093811
1212.860, 2.593079
1213.342, 4.112305
1213.824, 6.210327
1214.306, 8.104126
1214.788, 10.34021
1215.270, 10.13971
1215.752, 7.191406
1216.235, 3.914246
1216.717, 1.826843
1217.199, 0.5016480
1217.681, 0.3320920
1218.163, 0.7683720
1218.645, 1.090393
1219.127, 1.665161
1219.609, 0.6464840
1220.092, 2.176941
1220.574, 5.417725
1221.056, 9.651245
1221.538, 12.30487
1222.020, 9.153503
1222.502, 2.984802
1222.984, 0.3620610
1223.466, 2.193176
1223.948, 4.291138
1224.431, 6.498108
1224.913, 7.758667
1225.395, 6.289978
1225.877, 4.388306
1226.359, 4.102295
1226.841, 4.822266
1227.323, 4.921753
1227.805, 4.348022
1228.287, 3.230896
1228.770, 1.751221
1229.252, 0.4765010
1229.734, 0.4295650
1230.216, 0.6323240
1230.698, 0.8184810
1231.180, 1.218620
1231.662, 1.302661
1232.144, 1.660421
1232.627, 1.825378
1233.109, 2.385193
1233.591, 3.180908
1234.073, 3.822815
1234.555, 4.319580
1235.037, 4.710693
1235.519, 5.000545
1236.001, 5.221252
1236.484, 5.226807
1236.966, 5.139648
1237.448, 4.960510
1237.930, 4.464722
1238.412, 2.581909
1238.894, 1.321960
1239.376, 2.522644
1239.858, 4.706421
1240.340, 5.645996
1240.823, 5.372192
1241.305, 4.286682
1241.787, 2.471558
1242.269, 0.9743650
1242.751, 0.2775880
1243.233, 0.3397220
1243.715, 1.689026
1244.197, 3.265991
1244.679, 3.100769
1245.162, 1.630066
1245.644, 1.270142
1246.126, 2.193298
1246.608, 3.163147
1247.090, 3.792664
1247.572, 4.001343
1248.054, 3.487061
1248.536, 2.951843
1249.019, 3.478088
1249.501, 5.058167
1249.983, 6.225586
1250.465, 6.804321
1250.947, 6.557800
1251.429, 3.756653
1251.911, 2.495911
1252.393, 4.047852
1252.875, 6.632507
1253.358, 8.260559
1253.840, 8.966553
1254.322, 8.714478
1254.804, 7.568970
1255.286, 6.048645
1255.768, 3.756104
1256.250, 1.999756
1256.732, 0.9724730
1257.214, 0.7250370
1257.697, 1.955872
1258.179, 3.697510
1258.661, 4.372314
1259.143, 4.008362
1259.625, 3.429260
1260.107, 2.597107
1260.589, 1.857300
1261.071, 1.000366
1261.554, 0.9322510
1262.036, 4.221863
1262.518, 7.765564
1263.000, 7.652649
1263.482, 4.539307
1263.964, 2.658264
1264.446, 2.406799
1264.928, 2.473999
1265.411, 2.734680
1265.893, 2.963806
1266.375, 2.704346
1266.857, 3.276612
1267.339, 3.051392
1267.821, 4.160583
1268.303, 4.986511
1268.785, 5.537781
1269.267, 5.643188
1269.750, 5.266785
1270.232, 4.874939
1270.714, 4.679077
1271.196, 4.724243
1271.678, 5.244507
1272.160, 5.932312
1272.642, 6.322693
1273.124, 6.418579
1273.606, 6.360718
1274.089, 6.173462
1274.571, 5.931641
1275.053, 6.032654
1275.535, 5.610291
1276.017, 3.980713
1276.499, 2.120667
1276.981, 1.139771
1277.463, 1.031921
1277.946, 2.233337
1278.428, 4.501404
1278.910, 6.114868
1279.392, 6.002869
1279.874, 5.438538
1280.356, 4.411133
1280.838, 3.510681
1281.320, 3.529541
1281.802, 4.051025
1282.285, 4.211853
1282.767, 4.062805
1283.249, 3.976135
1283.731, 4.000061
1284.213, 4.340393
1284.695, 5.250427
1285.177, 5.585938
1285.659, 3.520996
1286.141, 0.8654170
1286.624, 0.1146850
1287.106, 0.2650150
1287.588, 1.004578
1288.070, 2.155762
1288.552, 2.929016
1289.034, 3.256653
1289.516, 3.517944
1289.998, 3.752930
1290.481, 4.282898
1290.963, 6.649719
1291.445, 8.780029
1291.927, 6.671448
1292.409, 0.1585690
1292.891, 2.160828
1293.373, 0.6034550
1293.855, 3.760010
1294.338, 5.199829
1294.820, 5.762329
1295.302, 5.279541
1295.784, 4.583862
1296.266, 3.430481
1296.748, 2.155396
1297.230, 3.931702
1297.712, 7.998474
1298.194, 8.535767
1298.677, 6.938293
1299.159, 5.479858
1299.641, 4.442322
1300.123, 3.889771
1300.605, 4.399048
1301.087, 5.610107
1301.569, 5.159790
1302.051, 3.571960
1302.533, 1.933838
1303.016, 0.0000000E+00
##END=



