##NAMES=Arfvedsonite
##RRUFFID=R110049
##IDEAL CHEMISTRY=NaNa_2_(Fe^2+^_4_Fe^3+^)Si_8_O_22_(OH)_2_
##LOCALITY=Mount Malosa, Zomba District, Malawi
##OWNER=RRUFF
##SOURCE=Donald M Doell
##DESCRIPTION=Black prismatic crystal
##STATUS=The identification of this mineral has been confirmed only by single crystal X-ray diffraction.
##URL=rruff.info/R110049
167.1487, 0.0000000E+00
167.6309, 1.506607
168.1130, 2.259506
168.5951, 0.9841310
169.0772, 0.5437160
169.5593, 1.015198
170.0414, 0.1792600
170.5236, 2.256653
171.0057, 4.242218
171.4878, 5.518280
171.9699, 6.787140
172.4520, 8.548065
172.9341, 10.78021
173.4163, 13.29187
173.8984, 15.93613
174.3805, 18.78726
174.8626, 21.83237
175.3447, 24.27493
175.8268, 27.38272
176.3090, 33.13623
176.7911, 41.49017
177.2732, 50.15460
177.7553, 55.61697
178.2374, 58.25821
178.7195, 60.59955
179.2017, 63.26901
179.6838, 66.49167
180.1659, 70.51541
180.6480, 75.37466
181.1301, 80.98523
181.6122, 87.87970
182.0944, 95.69333
182.5765, 103.0250
183.0586, 108.2401
183.5407, 112.7179
184.0228, 120.0752
184.5049, 130.5711
184.9871, 142.2419
185.4692, 152.5502
185.9513, 161.8424
186.4334, 171.3876
186.9155, 182.6025
187.3976, 194.6919
187.8798, 205.1687
188.3619, 213.8526
188.8440, 221.2474
189.3261, 228.0067
189.8082, 234.1469
190.2903, 238.9007
190.7725, 242.4288
191.2546, 244.5152
191.7367, 243.5035
192.2188, 239.2760
192.7009, 232.2815
193.1830, 223.0032
193.6652, 211.5048
194.1473, 198.4704
194.6294, 183.5427
195.1115, 166.9511
195.5936, 151.8052
196.0757, 138.4200
196.5579, 126.2417
197.0400, 114.3282
197.5221, 102.6680
198.0042, 91.39996
198.4863, 80.15668
198.9684, 68.96619
199.4506, 59.31165
199.9327, 51.44025
200.4148, 45.07248
200.8969, 39.94351
201.3790, 36.14212
201.8611, 32.81763
202.3433, 29.30417
202.8254, 25.49365
203.3075, 22.65182
203.7896, 20.81082
204.2717, 20.04941
204.7538, 20.35352
205.2360, 21.41422
205.7181, 24.59103
206.2002, 31.61783
206.6823, 43.38141
207.1644, 53.13400
207.6465, 60.13583
208.1287, 64.89670
208.6108, 69.08719
209.0929, 72.77881
209.5750, 75.70316
210.0571, 77.42856
210.5392, 77.62421
211.0214, 78.28561
211.5035, 79.81464
211.9856, 81.85342
212.4677, 83.09949
212.9498, 83.25717
213.4319, 83.31573
213.9141, 84.00470
214.3962, 85.67245
214.8783, 86.59534
215.3604, 85.95349
215.8425, 84.55161
216.3246, 85.95029
216.8067, 91.32025
217.2889, 97.23349
217.7710, 101.6900
218.2531, 104.4188
218.7352, 106.3761
219.2173, 107.0715
219.6994, 107.0568
220.1816, 108.8959
220.6637, 112.9534
221.1458, 118.2220
221.6279, 124.5299
222.1100, 133.3727
222.5921, 139.4081
223.0743, 141.9727
223.5564, 141.4292
224.0385, 139.2910
224.5206, 135.0381
225.0027, 129.7494
225.4848, 124.7504
225.9670, 120.4453
226.4491, 115.3578
226.9312, 107.9670
227.4133, 99.57373
227.8954, 96.49960
228.3775, 101.0829
228.8597, 107.5732
229.3418, 112.4392
229.8239, 114.6452
230.3060, 117.5106
230.7881, 120.7886
231.2702, 124.8458
231.7524, 131.5799
232.2345, 142.2717
232.7166, 153.6604
233.1987, 163.6325
233.6808, 171.1915
234.1629, 179.5191
234.6451, 188.7394
235.1272, 198.7998
235.6093, 209.8980
236.0914, 222.2601
236.5735, 235.4426
237.0556, 249.1640
237.5378, 263.6286
238.0199, 277.8474
238.5020, 291.8307
238.9841, 305.7331
239.4662, 319.2218
239.9483, 331.3456
240.4305, 344.2785
240.9126, 359.6404
241.3947, 379.3817
241.8768, 397.3979
242.3589, 413.3248
242.8410, 427.2717
243.3232, 440.1230
243.8053, 452.7390
244.2874, 463.2425
244.7695, 470.7177
245.2516, 475.7534
245.7337, 476.3436
246.2159, 472.0813
246.6980, 463.2645
247.1801, 451.1115
247.6622, 435.4615
248.1443, 416.6740
248.6264, 395.0194
249.1086, 370.1430
249.5907, 342.5473
250.0728, 310.6450
250.5549, 276.4690
251.0370, 245.4228
251.5191, 218.0569
252.0013, 192.9795
252.4834, 169.0908
252.9655, 146.0098
253.4476, 126.0878
253.9297, 109.7113
254.4118, 96.35678
254.8940, 84.61996
255.3761, 74.84338
255.8582, 66.02527
256.3403, 57.76627
256.8224, 49.89297
257.3046, 43.20496
257.7867, 37.87314
258.2688, 33.66528
258.7509, 30.23590
259.2330, 27.74039
259.7151, 25.76645
260.1973, 24.11609
260.6794, 22.73682
261.1615, 22.10007
261.6436, 22.39502
262.1257, 23.27908
262.6078, 24.16580
263.0900, 24.92844
263.5721, 26.00269
264.0542, 27.55185
264.5363, 29.63940
265.0184, 31.94348
265.5005, 34.53485
265.9827, 37.30722
266.4648, 40.12296
266.9469, 42.89734
267.4290, 45.94980
267.9111, 49.68356
268.3932, 54.19611
268.8754, 57.38391
269.3575, 58.96466
269.8396, 59.64413
270.3217, 60.36859
270.8038, 61.33990
271.2859, 61.51889
271.7681, 60.38535
272.2502, 57.99936
272.7323, 56.05481
273.2144, 54.74017
273.6965, 53.56073
274.1786, 52.13464
274.6608, 50.52173
275.1429, 48.19876
275.6250, 44.79352
276.1071, 40.51773
276.5892, 36.70392
277.0714, 33.35297
277.5535, 30.65729
278.0356, 29.02072
278.5177, 28.55057
278.9998, 27.95523
279.4819, 26.77988
279.9641, 25.30847
280.4462, 25.02820
280.9283, 26.16388
281.4104, 27.51169
281.8925, 27.99756
282.3746, 27.60788
282.8568, 27.52457
283.3389, 28.10056
283.8210, 28.98981
284.3031, 29.32465
284.7852, 29.11963
285.2673, 28.28278
285.7495, 26.53770
286.2316, 23.95598
286.7137, 21.40417
287.1958, 18.98540
287.6779, 16.66234
288.1600, 14.42508
288.6422, 12.27568
289.1243, 9.964966
289.6064, 7.105560
290.0885, 3.871796
290.5706, 1.298706
291.0527, 0.5639650
291.5349, 1.649429
292.0170, 1.306595
292.4991, 0.3010250
292.9812, 1.374130
293.4633, 0.1901860
293.9454, 2.370697
294.4276, 3.240143
294.9097, 1.985489
295.3918, 0.1870570
295.8739, 6.5094002E-02
296.3560, 0.9388730
296.8381, 1.845337
297.3203, 1.832077
297.8024, 1.301987
298.2845, 1.128571
298.7666, 1.359177
299.2487, 1.635391
299.7308, 1.256989
300.2130, 0.5859990
300.6951, 0.6712650
301.1772, 2.623169
301.6593, 5.226044
302.1414, 6.808792
302.6235, 7.367050
303.1057, 7.383118
303.5878, 6.837997
304.0699, 6.061142
304.5520, 5.694901
305.0341, 6.343384
305.5162, 7.123322
305.9984, 7.134415
306.4805, 6.428940
306.9626, 5.391403
307.4447, 4.053864
307.9268, 2.609818
308.4089, 1.411789
308.8911, 0.9608920
309.3732, 0.1397550
309.8553, 2.313446
310.3374, 5.977493
310.8195, 9.477097
311.3016, 11.77257
311.7838, 13.64714
312.2659, 15.76785
312.7480, 18.19121
313.2301, 21.02789
313.7122, 24.59375
314.1943, 28.64896
314.6765, 32.62238
315.1586, 36.14301
315.6407, 39.57422
316.1228, 43.10353
316.6049, 46.67319
317.0870, 50.63753
317.5692, 55.14294
318.0513, 60.11285
318.5334, 65.41998
319.0155, 70.99887
319.4976, 76.92953
319.9797, 83.46072
320.4619, 90.69630
320.9440, 97.40276
321.4261, 102.7101
321.9082, 107.4768
322.3903, 112.4939
322.8724, 118.0327
323.3546, 123.7265
323.8367, 129.6354
324.3188, 135.7333
324.8009, 141.5035
325.2830, 146.6611
325.7651, 151.5416
326.2473, 156.3506
326.7294, 161.6291
327.2115, 166.2521
327.6936, 169.9832
328.1757, 172.9184
328.6578, 175.6717
329.1400, 179.3336
329.6221, 181.9381
330.1042, 182.6109
330.5863, 180.1544
331.0684, 177.7252
331.5505, 175.3371
332.0327, 172.9803
332.5148, 170.7451
332.9969, 169.3119
333.4790, 167.0337
333.9611, 163.1470
334.4432, 157.1826
334.9254, 151.4002
335.4075, 145.9433
335.8896, 140.6002
336.3717, 135.0896
336.8538, 129.4116
337.3359, 123.6769
337.8180, 117.9283
338.3001, 112.1963
338.7823, 106.4912
339.2644, 100.7118
339.7465, 95.30276
340.2286, 90.60526
340.7107, 86.61508
341.1928, 83.67345
341.6750, 82.05637
342.1571, 81.52002
342.6392, 81.34607
343.1213, 81.58673
343.6034, 81.93787
344.0855, 82.12256
344.5677, 82.15292
345.0498, 82.41763
345.5319, 82.98547
346.0140, 83.79291
346.4961, 84.45915
346.9782, 85.01541
347.4604, 86.39915
347.9425, 90.03708
348.4246, 95.14056
348.9067, 98.32376
349.3888, 99.06363
349.8709, 98.79236
350.3531, 99.03775
350.8352, 99.83748
351.3173, 101.3760
351.7994, 104.0795
352.2815, 107.2107
352.7636, 109.5489
353.2458, 111.1408
353.7279, 112.7615
354.2100, 115.1944
354.6921, 118.0190
355.1742, 120.5537
355.6563, 122.3976
356.1385, 124.1577
356.6206, 126.4787
357.1027, 129.2780
357.5848, 132.0573
358.0669, 134.8573
358.5490, 137.2151
359.0312, 138.6702
359.5133, 139.0339
359.9954, 138.7898
360.4775, 138.0496
360.9596, 136.9826
361.4417, 135.9004
361.9239, 135.0115
362.4060, 134.0306
362.8881, 132.8800
363.3702, 131.6547
363.8523, 129.7939
364.3344, 127.0085
364.8166, 123.5809
365.2987, 119.8078
365.7808, 114.9061
366.2629, 110.6698
366.7450, 107.9714
367.2271, 106.7108
367.7093, 104.7171
368.1914, 100.9615
368.6735, 96.76387
369.1556, 92.94551
369.6377, 89.54118
370.1198, 86.62799
370.6020, 84.29361
371.0841, 82.45898
371.5662, 80.87192
372.0483, 79.82581
372.5304, 78.69836
373.0125, 77.23291
373.4947, 75.38922
373.9768, 73.25320
374.4589, 70.38049
374.9410, 67.54663
375.4231, 65.90411
375.9052, 65.32118
376.3874, 66.39720
376.8695, 70.42508
377.3516, 77.27231
377.8337, 78.99609
378.3158, 74.41174
378.7979, 68.13667
379.2801, 64.82930
379.7622, 64.63943
380.2443, 64.46542
380.7264, 63.47189
381.2085, 62.03658
381.6906, 61.44084
382.1728, 61.71353
382.6549, 62.14513
383.1370, 62.79062
383.6191, 63.34894
384.1012, 62.08502
384.5833, 58.29008
385.0655, 53.99762
385.5476, 52.30702
386.0297, 52.56569
386.5118, 52.39246
386.9939, 49.89763
387.4760, 46.44954
387.9582, 44.24446
388.4403, 43.30786
388.9224, 42.31210
389.4045, 39.96648
389.8866, 37.01430
390.3687, 34.42914
390.8509, 32.54372
391.3330, 31.07932
391.8151, 30.17365
392.2972, 29.64742
392.7793, 28.72978
393.2614, 26.86559
393.7436, 24.58643
394.2257, 22.09596
394.7078, 19.14659
395.1899, 16.83061
395.6720, 15.83485
396.1541, 15.60939
396.6363, 15.27074
397.1184, 14.50401
397.6005, 13.68726
398.0826, 12.96968
398.5647, 12.38434
399.0468, 11.66728
399.5290, 10.87668
400.0111, 9.899323
400.4932, 8.624008
400.9753, 6.435532
401.4574, 4.783417
401.9395, 4.009979
402.4217, 3.920776
402.9038, 3.621460
403.3859, 3.006104
403.8680, 2.337784
404.3501, 1.762619
404.8322, 1.368423
405.3144, 0.6760710
405.7965, 0.6320650
406.2786, 1.851990
406.7607, 1.471252
407.2428, 0.9487760
407.7249, 2.527802
408.2071, 1.908493
408.6892, 0.4571080
409.1713, 1.584686
409.6534, 1.334579
410.1355, 0.6761320
410.6176, 0.4893190
411.0998, 0.6870420
411.5819, 0.7377170
412.0640, 0.4828490
412.5461, 0.1306760
413.0282, 1.3382000E-02
413.5103, 0.1084590
413.9925, 0.2759860
414.4746, 0.6834870
414.9567, 1.033844
415.4388, 0.7429350
415.9209, 1.394642
416.4030, 1.404617
416.8852, 2.147369
417.3673, 2.556183
417.8494, 2.685760
418.3315, 2.151535
418.8136, 1.685577
419.2957, 1.916656
419.7779, 2.728088
420.2600, 3.340515
420.7421, 3.198303
421.2242, 2.845734
421.7063, 2.734512
422.1884, 3.302963
422.6706, 3.436752
423.1527, 2.176743
423.6348, 0.3769230
424.1169, 0.3674770
424.5990, 1.332413
425.0811, 2.999222
425.5633, 3.848175
426.0454, 3.749252
426.5275, 3.691055
427.0096, 3.624664
427.4917, 3.631149
427.9738, 3.780136
428.4560, 4.109955
428.9381, 4.487488
429.4202, 4.778748
429.9023, 5.125031
430.3844, 6.306992
430.8665, 8.833740
431.3487, 10.64575
431.8308, 10.36391
432.3129, 7.814713
432.7950, 5.896378
433.2771, 4.680969
433.7592, 4.006378
434.2414, 3.886017
434.7235, 4.256668
435.2056, 4.341125
435.6877, 3.870682
436.1698, 2.978958
436.6519, 2.656716
437.1341, 0.1875760
437.6162, 1.431030
438.0983, 0.9361570
438.5804, 0.4708400
439.0625, 1.383621
439.5446, 1.543274
440.0268, 1.280930
440.5089, 0.4782560
440.9910, 0.5199130
441.4731, 0.9994350
441.9552, 0.1369780
442.4373, 1.274780
442.9195, 1.159424
443.4016, 0.2086490
443.8837, 1.325668
444.3658, 1.478226
444.8479, 1.186737
445.3300, 0.8464510
445.8122, 0.3309480
446.2943, 4.1122001E-02
446.7764, 0.2767330
447.2585, 0.7948610
447.7406, 0.9717560
448.2227, 0.3868560
448.7049, 0.1689150
449.1870, 0.4613340
449.6691, 0.4402470
450.1512, 0.4667050
450.6333, 0.6505280
451.1154, 0.7669070
451.5976, 0.4943240
452.0797, 0.4277340
452.5618, 0.8063200
453.0439, 0.2643740
453.5260, 0.8415220
454.0081, 1.365417
454.4903, 1.215591
454.9724, 1.099045
455.4545, 1.323654
455.9366, 1.893509
456.4187, 2.995102
456.9008, 4.706528
457.3830, 6.495941
457.8651, 7.504150
458.3472, 8.009018
458.8293, 8.887726
459.3114, 10.61044
459.7935, 12.65984
460.2757, 14.36484
460.7578, 15.80202
461.2399, 17.41568
461.7220, 19.87425
462.2041, 22.42505
462.6862, 24.27835
463.1684, 25.19861
463.6505, 25.83940
464.1326, 26.53055
464.6147, 27.25093
465.0968, 27.97498
465.5789, 28.19781
466.0611, 28.61667
466.5432, 29.66139
467.0253, 31.25261
467.5074, 32.22577
467.9895, 31.83250
468.4716, 31.29692
468.9538, 31.24342
469.4359, 32.22508
469.9180, 32.49828
470.4001, 31.80559
470.8822, 30.57707
471.3643, 29.42892
471.8465, 28.34880
472.3286, 27.37912
472.8107, 26.71649
473.2928, 26.24081
473.7749, 24.85794
474.2570, 22.38873
474.7392, 19.78014
475.2213, 17.64522
475.7034, 15.96234
476.1855, 14.67583
476.6676, 13.85567
477.1497, 13.19159
477.6319, 12.34232
478.1140, 11.31104
478.5961, 10.11957
479.0782, 8.722946
479.5603, 7.209198
480.0424, 5.510376
480.5246, 3.677887
481.0067, 2.206467
481.4888, 1.549957
481.9709, 1.278259
482.4530, 1.111450
482.9352, 0.8457490
483.4173, 0.8308560
483.8994, 1.704330
484.3815, 2.801666
484.8636, 3.101288
485.3457, 1.569092
485.8279, 4.5196999E-02
486.3100, 0.9613490
486.7921, 1.437500
487.2742, 1.996582
487.7563, 3.154678
488.2384, 3.868805
488.7206, 3.693863
489.2027, 3.043762
489.6848, 7.1517996E-02
490.1669, 7.627960
490.6490, 15.53847
491.1311, 16.33636
491.6133, 8.819260
492.0954, 2.404922
492.5775, 0.1722560
493.0596, 0.6089940
493.5417, 3.750977
494.0238, 9.276245
494.5060, 14.45311
494.9881, 17.12704
495.4702, 17.81535
495.9523, 17.83809
496.4344, 17.24695
496.9165, 16.66151
497.3987, 16.86589
497.8808, 17.53413
498.3629, 18.04454
498.8450, 18.16212
499.3271, 17.97899
499.8092, 17.40909
500.2914, 16.52870
500.7735, 15.99324
501.2556, 16.04863
501.7377, 16.43854
502.2198, 17.09738
502.7019, 18.06139
503.1841, 19.29314
503.6662, 20.61900
504.1483, 22.29724
504.6304, 24.71370
505.1125, 29.28598
505.5946, 32.14714
506.0768, 32.03914
506.5589, 29.73218
507.0410, 29.41377
507.5231, 31.92393
508.0052, 34.03580
508.4873, 33.96458
508.9695, 31.68831
509.4516, 28.76064
509.9337, 24.87517
510.4158, 21.51683
510.8979, 20.95795
511.3800, 22.60825
511.8622, 23.82053
512.3443, 23.62363
512.8264, 23.05811
513.3085, 23.53049
513.7906, 24.84500
514.2728, 26.29990
514.7549, 27.57788
515.2370, 28.77386
515.7191, 29.95750
516.2012, 31.14000
516.6833, 32.34073
517.1655, 33.17877
517.6476, 34.26109
518.1297, 36.11314
518.6118, 39.39809
519.0939, 42.76971
519.5760, 46.21883
520.0582, 49.59258
520.5403, 52.60539
521.0224, 54.62166
521.5045, 57.10506
521.9866, 60.42899
522.4688, 64.61043
522.9509, 69.35417
523.4330, 74.77524
523.9151, 80.54446
524.3972, 86.77341
524.8793, 93.46295
525.3615, 98.71719
525.8436, 102.0409
526.3257, 104.8954
526.8078, 109.5427
527.2899, 115.6718
527.7720, 121.7606
528.2542, 127.1482
528.7363, 132.1382
529.2184, 137.3129
529.7005, 142.5385
530.1826, 147.3473
530.6647, 151.4445
531.1469, 154.9853
531.6290, 158.1050
532.1111, 160.7524
532.5932, 163.2389
533.0753, 165.6547
533.5574, 167.9995
534.0396, 170.2313
534.5217, 172.6303
535.0038, 174.6120
535.4859, 176.0103
535.9680, 176.9457
536.4501, 177.8651
536.9323, 179.1776
537.4144, 179.7654
537.8965, 178.9783
538.3786, 176.7749
538.8607, 175.3521
539.3428, 175.0654
539.8250, 174.5256
540.3071, 172.4353
540.7892, 168.9173
541.2713, 164.4828
541.7534, 159.1259
542.2355, 153.3526
542.7177, 147.6567
543.1998, 141.9813
543.6819, 136.2043
544.1640, 129.7700
544.6461, 123.7255
545.1282, 119.2429
545.6104, 116.0805
546.0925, 112.8687
546.5746, 108.8071
547.0567, 104.5574
547.5388, 100.4769
548.0209, 96.39371
548.5031, 92.98878
548.9852, 90.89529
549.4673, 89.22800
549.9494, 87.03098
550.4315, 83.55023
550.9136, 80.72260
551.3958, 78.93646
551.8779, 77.86815
552.3600, 76.54277
552.8421, 74.77510
553.3242, 73.38664
553.8063, 72.90050
554.2885, 73.16403
554.7706, 72.97456
555.2527, 72.31688
555.7348, 71.38083
556.2169, 69.82257
556.6990, 68.13675
557.1812, 67.73582
557.6633, 69.07503
558.1454, 70.82143
558.6275, 71.94260
559.1096, 72.53397
559.5917, 72.78513
560.0739, 71.88205
560.5560, 71.49352
561.0381, 72.70140
561.5202, 75.20981
562.0023, 77.73471
562.4844, 79.56705
562.9666, 81.68268
563.4487, 84.74493
563.9308, 89.13306
564.4129, 92.45218
564.8950, 93.91898
565.3771, 95.16843
565.8593, 97.69650
566.3414, 101.9052
566.8235, 105.6213
567.3056, 108.4500
567.7877, 111.0428
568.2698, 114.8048
568.7520, 119.6857
569.2341, 124.2388
569.7162, 127.6119
570.1983, 130.5682
570.6804, 134.8576
571.1625, 140.2663
571.6447, 145.3996
572.1268, 149.2715
572.6089, 152.4871
573.0910, 155.7121
573.5731, 159.1627
574.0552, 161.7519
574.5374, 162.8059
575.0195, 162.8827
575.5016, 162.5114
575.9837, 162.4630
576.4658, 161.1182
576.9479, 157.9915
577.4301, 153.5446
577.9122, 148.6441
578.3943, 143.2881
578.8764, 137.3513
579.3585, 130.7818
579.8406, 123.5902
580.3228, 115.6312
580.8049, 106.7504
581.2870, 98.14435
581.7691, 90.78560
582.2512, 84.36806
582.7333, 77.42542
583.2155, 69.79843
583.6976, 62.22990
584.1797, 54.75584
584.6617, 47.81378
585.1439, 42.13841
585.6260, 38.30804
586.1081, 35.10390
586.5902, 32.11351
587.0723, 29.17496
587.5544, 26.03894
588.0366, 21.79155
588.5187, 18.10423
589.0008, 15.82095
589.4829, 14.85687
589.9650, 13.31805
590.4471, 10.64317
590.9293, 8.104141
591.4114, 6.362381
591.8935, 5.517624
592.3756, 4.636139
592.8577, 3.641891
593.3398, 2.807983
593.8220, 2.552292
594.3041, 2.784103
594.7862, 2.780441
595.2683, 2.387360
595.7504, 1.781860
596.2325, 0.8957980
596.7147, 4.3350000E-02
597.1968, 0.4365080
597.6789, 0.8843540
598.1610, 2.087311
598.6431, 1.330383
599.1252, 0.8851620
599.6074, 2.226578
600.0895, 0.6064610
600.5716, 1.004608
601.0537, 1.013824
601.5358, 1.132004
602.0179, 2.817856
602.5001, 4.140976
602.9822, 4.873886
603.4643, 4.648544
603.9464, 3.017029
604.4285, 2.297562
604.9106, 2.909286
605.3928, 3.947876
605.8749, 3.968658
606.3570, 3.045090
606.8391, 2.147064
607.3212, 1.589706
607.8033, 1.188980
608.2855, 0.7246090
608.7676, 0.1878510
609.2497, 0.4718930
609.7318, 1.536148
610.2139, 2.539963
610.6960, 2.912537
611.1782, 2.666458
611.6603, 2.825424
612.1424, 4.270706
612.6245, 5.855957
613.1066, 6.839508
613.5887, 6.834274
614.0709, 7.014969
614.5530, 7.425674
615.0351, 7.990051
615.5172, 8.661865
615.9993, 9.487030
616.4814, 10.23399
616.9636, 10.84554
617.4457, 11.39961
617.9278, 12.13487
618.4099, 13.01408
618.8920, 13.66364
619.3741, 13.74045
619.8563, 13.63866
620.3384, 14.07870
620.8205, 14.92488
621.3026, 15.50417
621.7847, 14.96596
622.2668, 14.34413
622.7490, 14.54822
623.2311, 15.74687
623.7132, 16.69373
624.1953, 16.91187
624.6774, 16.86826
625.1595, 16.88341
625.6417, 16.97083
626.1238, 17.10066
626.6059, 17.20581
627.0880, 17.43274
627.5701, 18.20462
628.0522, 19.66304
628.5344, 20.16226
629.0165, 18.96803
629.4986, 17.21300
629.9807, 17.41811
630.4628, 19.21547
630.9449, 20.61728
631.4271, 19.93024
631.9092, 18.81079
632.3913, 19.33115
632.8734, 21.22527
633.3555, 22.75554
633.8376, 22.72807
634.3198, 22.33218
634.8019, 22.21994
635.2840, 22.45935
635.7661, 22.98050
636.2482, 24.08969
636.7303, 25.21690
637.2125, 25.87105
637.6946, 25.60052
638.1767, 26.33780
638.6588, 28.56029
639.1409, 31.10260
639.6230, 31.91656
640.1052, 31.16916
640.5873, 31.39796
641.0694, 33.62744
641.5515, 36.45972
642.0336, 37.52831
642.5157, 37.42180
642.9979, 37.78679
643.4800, 39.89133
643.9621, 42.31711
644.4442, 44.02042
644.9263, 45.20117
645.4084, 46.66605
645.8906, 48.43605
646.3727, 50.59174
646.8548, 53.41110
647.3369, 57.09451
647.8190, 59.95000
648.3011, 61.82562
648.7833, 63.26653
649.2654, 64.43727
649.7475, 65.24341
650.2296, 66.24988
650.7117, 67.43481
651.1938, 69.11383
651.6760, 71.89397
652.1581, 75.52684
652.6402, 79.07924
653.1223, 82.41673
653.6044, 85.33188
654.0865, 86.95332
654.5687, 88.14038
655.0508, 90.54898
655.5329, 96.06052
656.0150, 101.6961
656.4971, 106.7230
656.9792, 111.0018
657.4614, 114.1254
657.9435, 115.0644
658.4256, 116.7272
658.9077, 120.1759
659.3898, 125.2951
659.8719, 129.5824
660.3541, 133.0830
660.8362, 135.7040
661.3183, 136.9976
661.8004, 137.4097
662.2825, 138.7894
662.7646, 141.2637
663.2468, 143.0526
663.7289, 142.0575
664.2110, 139.8108
664.6931, 138.2885
665.1752, 138.3477
665.6573, 137.9934
666.1395, 136.3798
666.6216, 133.8676
667.1037, 130.8941
667.5858, 127.7767
668.0679, 123.7151
668.5500, 118.1402
669.0322, 111.8268
669.5143, 106.6886
669.9964, 102.9284
670.4785, 99.24255
670.9606, 95.37692
671.4427, 91.19533
671.9249, 86.16658
672.4070, 80.38501
672.8891, 74.76666
673.3712, 69.99660
673.8533, 65.63771
674.3354, 61.16458
674.8176, 56.60143
675.2997, 52.52512
675.7818, 49.67535
676.2639, 47.11353
676.7460, 44.11504
677.2281, 40.34065
677.7103, 37.51871
678.1924, 36.58257
678.6745, 35.71735
679.1566, 33.31898
679.6387, 28.78738
680.1208, 25.73038
680.6030, 24.63248
681.0851, 24.14687
681.5672, 22.32101
682.0493, 19.53748
682.5314, 17.46072
683.0135, 16.77367
683.4957, 16.29564
683.9778, 14.71364
684.4599, 12.45901
684.9420, 10.41209
685.4241, 8.462280
685.9063, 7.197144
686.3884, 7.396713
686.8705, 8.530807
687.3526, 8.709595
687.8347, 6.831070
688.3168, 5.495407
688.7990, 5.700592
689.2811, 7.100281
689.7632, 7.234451
690.2453, 5.933441
690.7274, 4.556458
691.2095, 3.840546
691.6917, 3.668182
692.1738, 3.922775
692.6559, 4.564728
693.1380, 4.817444
693.6201, 3.579193
694.1022, 1.991150
694.5844, 1.225174
695.0665, 1.558426
695.5486, 1.877899
696.0307, 1.832535
696.5128, 1.599777
696.9949, 1.306259
697.4771, 0.8826900
697.9592, 0.5727840
698.4413, 0.4431920
698.9234, 0.3507690
699.4055, 2.8091000E-02
699.8876, 0.5337070
700.3698, 0.6317440
700.8519, 3.5767000E-02
701.3340, 0.7318570
701.8161, 0.1164090
702.2982, 1.296310
702.7803, 2.213272
703.2625, 1.954300
703.7446, 1.286667
704.2267, 0.2866210
704.7088, 0.7226560
705.1909, 1.016510
705.6730, 0.6592410
706.1552, 1.881439
706.6373, 1.960083
707.1194, 1.115768
707.6015, 0.2602840
708.0836, 0.7373350
708.5657, 1.286835
709.0479, 0.8580170
709.5300, 0.1820530
710.0121, 7.2754003E-02
710.4942, 1.139603
710.9763, 2.312225
711.4584, 2.585587
711.9406, 2.433563
712.4227, 2.471405
712.9048, 2.726059
713.3869, 2.845276
713.8690, 2.798477
714.3511, 2.458130
714.8333, 1.539764
715.3154, 0.5025480
715.7975, 1.249908
716.2796, 9.1309004E-02
716.7617, 1.764740
717.2438, 2.312775
717.7260, 1.600845
718.2081, 1.211700
718.6902, 1.260605
719.1723, 1.561371
719.6544, 2.201584
720.1365, 2.908493
720.6187, 2.808594
721.1008, 1.330704
721.5829, 0.1716160
722.0650, 1.041367
722.5471, 2.851685
723.0292, 4.158661
723.5114, 3.908936
723.9935, 3.894287
724.4756, 4.707901
724.9577, 5.781525
725.4398, 6.106354
725.9219, 5.340286
726.4041, 4.908463
726.8862, 5.171097
727.3683, 5.880310
727.8504, 6.596558
728.3325, 7.278549
728.8146, 7.628128
729.2968, 7.127487
729.7789, 6.555328
730.2610, 7.161346
730.7431, 8.514374
731.2252, 9.173782
731.7073, 7.544434
732.1895, 6.046722
732.6716, 5.778442
733.1537, 6.701797
733.6358, 7.725891
734.1179, 9.307648
734.6000, 10.19325
735.0822, 9.576385
735.5643, 7.682129
736.0464, 6.769241
736.5285, 6.875519
737.0106, 7.277283
737.4927, 7.547668
737.9749, 7.734726
738.4570, 7.997070
738.9391, 8.320496
739.4212, 8.370850
739.9033, 7.444763
740.3854, 6.545547
740.8676, 6.580902
741.3497, 8.105255
741.8318, 8.770233
742.3139, 7.598373
742.7960, 6.346420
743.2781, 6.406555
743.7603, 8.107147
744.2424, 8.813477
744.7245, 8.263474
745.2066, 7.562897
745.6887, 8.117218
746.1708, 9.431793
746.6530, 10.07660
747.1351, 9.656738
747.6172, 9.255295
748.0993, 9.813980
748.5814, 10.78264
749.0635, 11.54655
749.5457, 12.08978
750.0278, 12.19446
750.5099, 11.13835
750.9920, 10.11336
751.4741, 10.81293
751.9562, 13.92421
752.4384, 15.49770
752.9205, 14.67300
753.4026, 12.98425
753.8847, 12.65652
754.3668, 13.37387
754.8489, 14.34642
755.3311, 15.49821
755.8132, 16.64314
756.2953, 17.54568
756.7774, 18.07259
757.2595, 18.16570
757.7416, 17.13501
758.2238, 16.49229
758.7059, 16.98990
759.1880, 18.04239
759.6701, 18.38336
760.1522, 17.74753
760.6343, 17.03252
761.1165, 16.52397
761.5986, 16.19370
762.0807, 15.93112
762.5628, 15.69753
763.0449, 15.47279
763.5270, 15.41469
764.0092, 15.09024
764.4913, 13.92270
764.9734, 12.30081
765.4555, 11.04361
765.9376, 10.35233
766.4197, 9.928650
766.9019, 9.834259
767.3840, 9.926056
767.8661, 9.750778
768.3482, 9.308441
768.8303, 8.706711
769.3124, 7.776352
769.7946, 6.737549
770.2767, 6.423981
770.7588, 6.801529
771.2409, 7.483673
771.7230, 8.850586
772.2051, 9.976669
772.6873, 9.613831
773.1694, 7.903625
773.6515, 6.504028
774.1336, 6.185928
774.6157, 6.321945
775.0978, 6.816589
775.5800, 7.625824
776.0621, 7.926041
776.5442, 7.583130
777.0263, 7.147278
777.5084, 6.920639
777.9905, 6.844147
778.4727, 6.642731
778.9548, 6.300629
779.4369, 5.804840
779.9190, 5.095749
780.4011, 4.341873
780.8832, 3.539551
781.3654, 2.704361
781.8475, 2.373932
782.3296, 3.421249
782.8117, 4.379684
783.2938, 4.427429
783.7759, 3.445190
784.2581, 2.945160
784.7402, 3.010880
785.2223, 3.315063
785.7044, 3.798630
786.1865, 4.349854
786.6686, 4.525497
787.1508, 4.315643
787.6329, 3.882294
788.1150, 3.231262
788.5971, 2.482071
789.0792, 1.663986
789.5613, 0.7224120
790.0435, 0.1857300
790.5256, 0.3140410
791.0077, 0.7704320
791.4898, 1.502533
791.9719, 2.618454
792.4540, 3.137222
792.9362, 2.972198
793.4183, 2.517639
793.9004, 1.966827
794.3825, 1.392014
794.8646, 0.9906310
795.3467, 0.7736660
795.8289, 0.7719270
796.3110, 1.295578
796.7931, 1.854355
797.2752, 2.040451
797.7573, 1.773224
798.2394, 1.254791
798.7216, 1.347869
799.2037, 0.8091430
799.6858, 1.054993
800.1679, 0.5209810
800.6500, 0.1625520
801.1321, 1.037308
801.6143, 1.872803
802.0964, 2.683395
802.5785, 3.245239
803.0606, 2.922073
803.5427, 1.577835
804.0248, 0.4212490
804.5070, 0.2708280
804.9891, 0.5099330
805.4712, 0.6684570
805.9533, 0.6196900
806.4354, 0.7855830
806.9175, 1.425949
807.3997, 1.901321
807.8818, 1.572220
808.3639, 0.4668580
808.8460, 5.3635001E-02
809.3281, 0.1027370
809.8102, 0.2592010
810.2924, 0.6498260
810.7745, 1.726273
811.2566, 1.368820
811.7387, 0.8485720
812.2208, 2.196091
812.7029, 0.5112150
813.1851, 1.661713
813.6672, 2.498581
814.1493, 1.619431
814.6314, 0.9632420
815.1135, 0.5861820
815.5956, 0.3053130
816.0778, 6.6344999E-02
816.5599, 0.4713750
817.0420, 0.5987400
817.5241, 0.4272920
818.0062, 0.1770940
818.4883, 0.1484990
818.9705, 0.3658290
819.4526, 0.2792510
819.9347, 0.1544950
820.4168, 0.7162020
820.8989, 2.037460
821.3810, 2.823776
821.8632, 2.077728
822.3453, 0.5139620
822.8274, 1.278152
823.3095, 4.8477001E-02
823.7916, 1.658920
824.2737, 2.187073
824.7559, 1.947388
825.2380, 1.353134
825.7201, 0.4619140
826.2022, 0.1261600
826.6843, 3.6591001E-02
827.1664, 0.4791110
827.6486, 1.509598
828.1307, 3.257065
828.6128, 3.853683
829.0949, 2.737717
829.5770, 1.439682
830.0591, 0.7683870
830.5413, 0.6774900
831.0234, 0.6100620
831.5055, 0.5669250
831.9876, 0.6829070
832.4697, 1.410187
832.9518, 2.122070
833.4340, 1.895187
833.9161, 0.7746580
834.3982, 0.1093290
834.8803, 0.6193390
835.3624, 1.465012
835.8445, 2.417496
836.3267, 3.448318
836.8088, 3.840927
837.2909, 3.445648
837.7730, 3.085373
838.2551, 3.177032
838.7372, 3.646271
839.2194, 4.620132
839.7015, 5.940826
840.1836, 6.690247
840.6657, 5.624329
841.1478, 4.438690
841.6299, 4.273727
842.1121, 5.048157
842.5942, 5.621643
843.0763, 5.977280
843.5584, 6.019012
844.0405, 5.528778
844.5226, 4.754868
845.0048, 4.742691
845.4869, 5.454346
845.9690, 6.343765
846.4511, 7.262848
846.9332, 8.099777
847.4153, 8.758453
847.8975, 9.235123
848.3796, 9.527573
848.8617, 9.486694
849.3438, 9.432114
849.8259, 9.222900
850.3080, 9.108765
850.7902, 9.925766
851.2723, 11.85838
851.7544, 13.55083
852.2365, 14.62296
852.7186, 15.24483
853.2007, 14.75327
853.6829, 14.03705
854.1650, 15.62901
854.6471, 23.77081
855.1292, 30.25836
855.6113, 29.68179
856.0934, 25.13391
856.5756, 22.31129
857.0577, 22.08846
857.5398, 22.31267
858.0219, 22.87874
858.5040, 23.71567
858.9861, 24.74655
859.4683, 25.90488
859.9504, 27.00696
860.4325, 27.98430
860.9146, 28.94647
861.3967, 29.61224
861.8788, 30.35417
862.3610, 31.75426
862.8431, 34.55275
863.3252, 36.92145
863.8073, 38.32986
864.2894, 39.64772
864.7715, 42.09476
865.2537, 45.84154
865.7358, 47.36014
866.2179, 46.02654
866.7000, 44.82178
867.1821, 47.14201
867.6642, 51.30598
868.1464, 55.15169
868.6285, 58.51207
869.1106, 60.94614
869.5927, 61.04330
870.0748, 61.18581
870.5569, 63.12498
871.0391, 67.18140
871.5212, 69.94977
872.0033, 71.31853
872.4854, 72.26157
872.9675, 72.97784
873.4496, 73.89932
873.9318, 76.49013
874.4139, 80.60609
874.8960, 84.29488
875.3781, 86.79269
875.8602, 88.15808
876.3423, 87.77823
876.8245, 85.70853
877.3066, 85.18155
877.7887, 86.92735
878.2708, 88.62839
878.7529, 89.28059
879.2350, 89.22372
879.7172, 89.81265
880.1993, 90.83351
880.6814, 91.32443
881.1635, 90.45157
881.6456, 89.31575
882.1277, 88.75073
882.6099, 88.59723
883.0920, 88.36037
883.5741, 87.68848
884.0562, 87.27454
884.5383, 87.41321
885.0204, 87.75874
885.5026, 87.60849
885.9847, 86.95078
886.4668, 85.68726
886.9489, 83.51723
887.4310, 81.34921
887.9131, 80.50848
888.3953, 80.25362
888.8774, 79.43651
889.3595, 76.99329
889.8416, 75.14908
890.3237, 74.90189
890.8058, 74.79384
891.2880, 73.08655
891.7701, 69.61670
892.2522, 66.81335
892.7343, 64.95183
893.2164, 63.32011
893.6985, 61.20570
894.1807, 58.84227
894.6628, 56.63573
895.1449, 54.74492
895.6270, 52.35709
896.1091, 48.20932
896.5912, 44.31892
897.0734, 42.03297
897.5555, 41.56642
898.0376, 40.29625
898.5197, 38.19746
899.0018, 35.52553
899.4839, 31.82346
899.9661, 27.95349
900.4482, 25.74025
900.9303, 24.99071
901.4124, 24.37451
901.8945, 23.27466
902.3766, 22.10420
902.8588, 21.03169
903.3409, 20.04932
903.8230, 19.16628
904.3051, 18.54669
904.7872, 17.21252
905.2693, 14.32370
905.7515, 11.13936
906.2336, 10.64337
906.7157, 12.01703
907.1978, 12.89487
907.6799, 12.20441
908.1620, 10.92747
908.6442, 8.872971
909.1263, 6.726089
909.6084, 5.679184
910.0905, 6.390076
910.5726, 6.444031
911.0547, 5.532440
911.5369, 4.139816
912.0190, 2.561234
912.5011, 1.035126
912.9832, 0.3083190
913.4653, 0.5791470
913.9474, 1.175613
914.4296, 2.307648
914.9117, 3.154297
915.3938, 2.771118
915.8759, 0.5946960
916.3580, 0.3839720
916.8401, 0.2951970
917.3223, 1.025589
917.8044, 0.4411930
918.2865, 0.9968110
918.7686, 1.544205
919.2507, 1.251389
919.7328, 0.7524410
920.2150, 0.2527770
920.6971, 0.1603240
921.1792, 0.5831300
921.6613, 0.9254000
922.1434, 0.5968930
922.6255, 0.7702330
923.1077, 1.990494
923.5898, 2.856705
924.0719, 3.225708
924.5540, 2.365631
925.0361, 0.6287540
925.5182, 0.4715730
926.0004, 0.1665950
926.4825, 0.6952210
926.9646, 0.4384920
927.4467, 2.281067
927.9288, 3.343109
928.4109, 3.024139
928.8931, 3.018341
929.3752, 3.522797
929.8573, 4.106049
930.3394, 4.291397
930.8215, 4.148666
931.3036, 3.806702
931.7858, 3.249878
932.2679, 3.043854
932.7500, 3.722504
933.2321, 4.807648
933.7142, 6.086731
934.1964, 7.601700
934.6785, 8.561661
935.1606, 8.715744
935.6427, 8.923859
936.1248, 9.720078
936.6069, 10.89091
937.0891, 11.57718
937.5712, 11.89597
938.0533, 12.39218
938.5354, 13.40440
939.0175, 14.63428
939.4996, 15.96100
939.9818, 17.36858
940.4639, 18.79691
940.9460, 20.22849
941.4281, 21.72078
941.9102, 23.42137
942.3923, 24.88773
942.8745, 24.82010
943.3566, 23.93124
943.8387, 24.39426
944.3208, 26.97624
944.8029, 30.01514
945.2850, 33.23111
945.7672, 36.06696
946.2493, 37.76071
946.7314, 37.68095
947.2135, 39.25534
947.6956, 42.85866
948.1777, 46.82988
948.6599, 49.57091
949.1420, 51.73514
949.6241, 54.79657
950.1062, 58.76447
950.5883, 63.34256
951.0704, 68.38629
951.5526, 74.00433
952.0347, 80.87476
952.5168, 88.40213
952.9989, 93.88049
953.4810, 96.44429
953.9631, 100.7302
954.4453, 108.4528
954.9274, 118.0580
955.4095, 127.0099
955.8916, 135.6659
956.3737, 145.0679
956.8558, 155.4551
957.3380, 166.9188
957.8201, 180.5812
958.3022, 194.7402
958.7843, 207.4512
959.2664, 218.0656
959.7485, 230.8951
960.2307, 246.1294
960.7128, 262.8887
961.1949, 280.6904
961.6770, 299.4050
962.1591, 318.8766
962.6412, 339.1833
963.1234, 359.1292
963.6055, 378.2507
964.0876, 397.2444
964.5697, 416.8452
965.0518, 436.5097
965.5339, 454.7528
966.0161, 471.6277
966.4982, 486.9284
966.9803, 500.8852
967.4624, 512.7410
967.9445, 522.2821
968.4266, 528.8044
968.9088, 530.9641
969.3909, 527.1524
969.8730, 520.5404
970.3551, 511.4101
970.8372, 499.7111
971.3193, 484.5373
971.8015, 466.3075
972.2836, 447.4587
972.7657, 428.2524
973.2478, 409.0025
973.7299, 389.5334
974.2120, 370.1737
974.6942, 350.8112
975.1763, 331.4818
975.6584, 314.0292
976.1405, 298.5910
976.6226, 284.2875
977.1047, 270.7332
977.5869, 259.1279
978.0690, 247.6800
978.5511, 239.0988
979.0332, 231.3693
979.5153, 224.0422
979.9974, 217.3906
980.4796, 211.8803
980.9617, 206.9242
981.4438, 201.6826
981.9259, 195.7841
982.4080, 190.8207
982.8901, 187.1011
983.3723, 183.4408
983.8544, 178.5866
984.3365, 172.9784
984.8186, 167.5601
985.3007, 162.3490
985.7828, 156.8203
986.2650, 150.8416
986.7471, 144.2906
987.2292, 137.0260
987.7113, 129.1732
988.1934, 121.2910
988.6755, 113.3645
989.1577, 105.6164
989.6398, 98.08893
990.1219, 90.99582
990.6040, 84.96312
991.0861, 79.48308
991.5682, 73.68680
992.0504, 66.59183
992.5325, 60.36768
993.0146, 55.50648
993.4967, 51.07706
993.9788, 45.80086
994.4609, 39.90118
994.9431, 35.41084
995.4252, 32.42076
995.9073, 30.12030
996.3894, 28.70601
996.8715, 27.04645
997.3536, 23.83224
997.8358, 19.25667
998.3179, 15.92474
998.8000, 14.15335
999.2821, 12.95212
999.7642, 12.17711
1000.246, 11.56538
1000.728, 10.58966
1001.211, 9.361725
1001.693, 8.225113
1002.175, 7.385712
1002.657, 6.424088
1003.139, 4.818893
1003.621, 3.208725
1004.103, 2.136703
1004.585, 1.653961
1005.068, 1.746750
1005.550, 2.427414
1006.032, 2.840225
1006.514, 1.716568
1006.996, 0.3128200
1007.478, 0.4651030
1007.960, 1.913086
1008.442, 2.863297
1008.924, 2.835938
1009.407, 2.126404
1009.889, 2.460180
1010.371, 1.643723
1010.853, 2.100784
1011.335, 1.276001
1011.817, 1.125320
1012.299, 2.293747
1012.781, 3.344925
1013.263, 2.987381
1013.746, 2.123444
1014.228, 1.614685
1014.710, 1.585251
1015.192, 1.664780
1015.674, 2.013733
1016.156, 1.913437
1016.638, 2.087024
1017.120, 1.589401
1017.603, 1.974182
1018.085, 1.128815
1018.567, 0.4320830
1019.049, 0.1972200
1019.531, 0.5751800
1020.013, 1.805862
1020.495, 3.511795
1020.977, 5.280319
1021.459, 7.116302
1021.942, 8.667007
1022.424, 9.905243
1022.906, 10.72687
1023.388, 10.54195
1023.870, 10.23842
1024.352, 10.73064
1024.834, 12.16673
1025.316, 13.88968
1025.799, 16.25188
1026.281, 17.98463
1026.763, 18.17157
1027.245, 17.74161
1027.727, 19.48772
1028.209, 22.78168
1028.691, 25.49498
1029.173, 26.35303
1029.656, 27.17992
1030.138, 29.00163
1030.620, 31.07487
1031.102, 32.52777
1031.584, 33.13580
1032.066, 34.51030
1032.548, 36.75832
1033.030, 39.08499
1033.512, 40.50667
1033.995, 41.83405
1034.477, 44.59436
1034.959, 48.39859
1035.441, 50.54820
1035.923, 49.01387
1036.405, 47.91049
1036.887, 48.13342
1037.369, 49.10745
1037.851, 49.69687
1038.334, 50.04916
1038.816, 50.89429
1039.298, 52.59229
1039.780, 53.89529
1040.262, 53.58176
1040.744, 52.92467
1041.226, 53.11330
1041.708, 54.26530
1042.191, 54.34981
1042.673, 53.29933
1043.155, 51.78860
1043.637, 50.15633
1044.119, 48.27451
1044.601, 45.83253
1045.083, 42.98724
1045.565, 40.19936
1046.047, 37.74297
1046.530, 35.11758
1047.012, 32.33017
1047.494, 29.32681
1047.976, 25.67780
1048.458, 21.66582
1048.940, 19.19078
1049.422, 18.33305
1049.904, 17.34207
1050.386, 14.81125
1050.869, 12.07057
1051.351, 9.703033
1051.833, 7.790451
1052.315, 6.819870
1052.797, 6.934036
1053.279, 6.876358
1053.761, 6.271561
1054.243, 5.439133
1054.726, 4.595261
1055.208, 3.860779
1055.690, 3.457809
1056.172, 3.605255
1056.654, 3.474335
1057.136, 2.727325
1057.618, 2.201691
1058.100, 2.747116
1058.583, 1.699786
1059.065, 3.064957
1059.547, 0.8486330
1060.029, 0.5863950
1060.511, 1.125092
1060.993, 2.476730
1061.475, 1.317978
1061.957, 0.7039030
1062.439, 1.239502
1062.922, 7.4676998E-02
1063.404, 0.6235050
1063.886, 0.6464080
1064.368, 0.5752870
1064.850, 0.8549350
1065.332, 1.351318
1065.814, 1.910614
1066.296, 2.533340
1066.778, 3.460648
1067.261, 5.060760
1067.743, 6.102905
1068.225, 5.955475
1068.707, 5.457138
1069.189, 6.482697
1069.671, 8.265625
1070.153, 8.813232
1070.635, 7.189224
1071.118, 6.174606
1071.600, 7.665939
1072.082, 9.363098
1072.564, 9.715134
1073.046, 8.918259
1073.528, 9.733124
1074.010, 12.07126
1074.492, 14.46765
1074.974, 15.91585
1075.457, 17.20474
1075.939, 19.00691
1076.421, 21.02745
1076.903, 22.69400
1077.385, 23.50066
1077.867, 25.54649
1078.349, 29.18675
1078.831, 32.88547
1079.313, 35.03418
1079.796, 36.43370
1080.278, 38.21866
1080.760, 40.41949
1081.242, 42.68869
1081.724, 45.21779
1082.206, 47.43694
1082.688, 49.34529
1083.170, 50.69499
1083.652, 51.01323
1084.135, 50.36615
1084.617, 48.84760
1085.099, 46.37898
1085.581, 43.81322
1086.063, 42.23096
1086.545, 40.14842
1087.027, 36.26717
1087.509, 30.87373
1087.992, 26.64348
1088.474, 23.57991
1088.956, 21.39703
1089.438, 20.28421
1089.920, 19.46434
1090.402, 18.06393
1090.884, 16.50528
1091.366, 15.44005
1091.849, 15.40771
1092.331, 14.52348
1092.813, 12.51955
1093.295, 10.59084
1093.777, 9.501709
1094.259, 9.088928
1094.741, 9.471024
1095.223, 10.28055
1095.705, 10.25978
1096.188, 7.763290
1096.670, 6.045807
1097.152, 5.817764
1097.634, 6.254501
1098.116, 6.300415
1098.598, 6.063049
1099.080, 6.241119
1099.562, 6.883636
1100.044, 7.080338
1100.527, 5.664429
1101.009, 4.280609
1101.491, 3.814362
1101.973, 4.126114
1102.455, 5.130371
1102.937, 6.805405
1103.419, 7.011307
1103.901, 4.937088
1104.384, 2.630615
1104.866, 2.000946
1105.348, 2.218597
1105.830, 2.445786
1106.312, 2.546692
1106.794, 2.965683
1107.276, 3.839127
1107.758, 4.543976
1108.240, 4.787125
1108.723, 4.796951
1109.205, 4.902176
1109.687, 4.966354
1110.169, 4.792587
1110.651, 4.015915
1111.133, 3.615219
1111.615, 3.593750
1112.097, 3.940048
1112.579, 4.875381
1113.062, 6.163803
1113.544, 6.975647
1114.026, 7.348938
1114.508, 7.318878
1114.990, 6.211349
1115.472, 5.575882
1115.954, 6.229965
1116.436, 7.337067
1116.919, 7.861694
1117.401, 7.864670
1117.883, 7.789978
1118.365, 7.677170
1118.847, 7.572647
1119.329, 7.640961
1119.811, 7.674255
1120.293, 7.474777
1120.776, 7.218872
1121.258, 7.245148
1121.740, 7.584366
1122.222, 7.805573
1122.704, 7.821930
1123.186, 7.677490
1123.668, 7.270081
1124.150, 6.811844
1124.632, 6.599152
1125.115, 6.706192
1125.597, 6.359665
1126.079, 5.302032
1126.561, 4.661102
1127.043, 4.952866
1127.525, 5.741531
1128.007, 6.643005
1128.489, 7.419052
1128.971, 7.603500
1129.454, 6.828232
1129.936, 6.163712
1130.418, 5.717163
1130.900, 5.402603
1131.382, 5.188370
1131.864, 5.052597
1132.346, 4.941574
1132.828, 4.836853
1133.311, 4.677795
1133.793, 4.018188
1134.275, 3.890945
1134.757, 4.825211
1135.239, 6.014877
1135.721, 6.818069
1136.203, 7.223541
1136.685, 6.963654
1137.167, 6.110031
1137.650, 5.521576
1138.132, 6.247437
1138.614, 6.787933
1139.096, 6.141815
1139.578, 4.958420
1140.060, 4.270798
1140.542, 4.087662
1141.024, 3.761246
1141.506, 3.207870
1141.989, 2.884415
1142.471, 3.628326
1142.953, 4.319107
1143.435, 3.907593
1143.917, 2.641052
1144.399, 1.848282
1144.881, 1.580154
1145.363, 1.546768
1145.846, 1.734695
1146.328, 1.942505
1146.810, 1.924515
1147.292, 1.823074
1147.774, 1.836151
1148.256, 2.001160
1148.738, 1.844360
1149.220, 1.259033
1149.703, 0.6662750
1150.185, 7.1654998E-02
1150.667, 0.1790080
1151.149, 1.034027
1151.631, 2.707199
1152.113, 3.142525
1152.595, 1.514244
1153.077, 0.2873380
1153.559, 0.3380510
1154.042, 0.6312180
1154.524, 0.6870270
1155.006, 0.5432210
1155.488, 0.1983030
1155.970, 0.2692790
1156.452, 0.6882630
1156.934, 1.197067
1157.416, 1.280746
1157.898, 0.7947080
1158.381, 8.0177002E-02
1158.863, 0.8392180
1159.345, 1.768692
1159.827, 1.700523
1160.309, 0.8676910
1160.791, 0.2063600
1161.273, 0.2114030
1161.755, 0.3835220
1162.238, 0.8034290
1162.720, 1.107033
1163.202, 0.7547230
1163.684, 0.9250372
1164.166, 0.6077650
1164.648, 0.7042010
1165.130, 0.4923250
1165.612, 0.4503170
1166.094, 1.135025
1166.577, 0.8944780
1167.059, 0.3123550
1167.541, 0.3763580
1168.023, 1.012917
1168.505, 1.256874
1168.987, 1.009155
1169.469, 0.5949480
1169.951, 5.6357998E-02
1170.433, 0.5121080
1170.916, 0.2457500
1171.398, 0.3454900
1171.880, 0.1976090
1172.362, 0.6767580
1172.844, 1.453140
1173.326, 2.017326
1173.808, 2.128601
1174.290, 1.074547
1174.773, 9.2445001E-02
1175.255, 0.5749050
1175.737, 0.4304730
1176.219, 0.2833940
1176.701, 1.627861
1177.183, 2.250046
1177.665, 1.608437
1178.147, 0.7855530
1178.630, 0.7610020
1179.112, 1.103813
1179.594, 1.406349
1180.076, 1.640678
1180.558, 2.073715
1181.040, 2.734505
1181.522, 3.372620
1182.004, 3.985794
1182.486, 4.335876
1182.969, 3.957283
1183.451, 3.282288
1183.933, 2.796432
1184.415, 2.537796
1184.897, 2.537270
1185.379, 2.791313
1185.861, 3.349670
1186.343, 4.519073
1186.825, 5.617378
1187.308, 5.650543
1187.790, 5.129440
1188.272, 4.870949
1188.754, 5.169052
1189.236, 5.112343
1189.718, 4.605217
1190.200, 4.249657
1190.682, 4.700935
1191.165, 5.305283
1191.647, 4.992821
1192.129, 4.243645
1192.611, 4.063850
1193.093, 5.092514
1193.575, 5.577667
1194.057, 5.361687
1194.539, 5.155762
1195.021, 5.760025
1195.504, 6.538651
1195.986, 6.465752
1196.468, 5.834137
1196.950, 5.556900
1197.432, 6.063225
1197.914, 6.285629
1198.396, 6.119400
1198.878, 5.808136
1199.360, 5.327530
1199.843, 5.009590
1200.325, 5.707695
1200.807, 7.075134
1201.289, 7.557449
1201.771, 6.280022
1202.253, 5.548882
1202.735, 5.703712
1203.217, 6.182510
1203.700, 6.523827
1204.182, 6.702042
1204.664, 6.563965
1205.146, 6.177017
1205.628, 6.036598
1206.110, 6.369194
1206.592, 6.590630
1207.074, 6.596558
1207.557, 6.469063
1208.039, 6.046677
1208.521, 5.697472
1209.003, 6.257843
1209.485, 7.678253
1209.967, 8.393570
1210.449, 7.948761
1210.931, 7.470306
1211.413, 7.212265
1211.896, 6.917809
1212.378, 5.828384
1212.860, 4.702629
1213.342, 4.912804
1213.824, 6.605675
1214.306, 7.632393
1214.788, 7.511505
1215.270, 7.498665
1215.752, 7.974792
1216.235, 8.538773
1216.717, 8.763977
1217.199, 8.587326
1217.681, 7.762085
1218.163, 6.210808
1218.645, 5.572533
1219.127, 6.157387
1219.609, 6.816986
1220.092, 7.237206
1220.574, 7.428474
1221.056, 7.365311
1221.538, 7.187782
1222.020, 6.919083
1222.502, 6.505592
1222.984, 6.643600
1223.466, 7.533600
1223.948, 8.179680
1224.431, 8.266777
1224.913, 8.028572
1225.395, 7.468224
1225.877, 6.834732
1226.359, 6.602394
1226.841, 7.010582
1227.323, 7.184113
1227.805, 7.147591
1228.287, 6.754364
1228.770, 5.741982
1229.252, 4.648651
1229.734, 4.287857
1230.216, 4.408829
1230.698, 4.684235
1231.180, 5.132072
1231.662, 5.303284
1232.144, 5.141464
1232.627, 4.890289
1233.109, 4.579620
1233.591, 4.446945
1234.073, 5.077522
1234.555, 5.889473
1235.037, 5.950447
1235.519, 4.929703
1236.001, 4.846138
1236.484, 5.861244
1236.966, 6.668678
1237.448, 6.471283
1237.930, 5.959435
1238.412, 5.730606
1238.894, 5.648560
1239.376, 5.497498
1239.858, 5.523872
1240.340, 5.264565
1240.823, 5.666451
1241.305, 6.026398
1241.787, 6.165375
1242.269, 6.138260
1242.751, 5.988754
1243.233, 5.686684
1243.715, 4.997253
1244.197, 3.745880
1244.679, 4.509491
1245.162, 7.230865
1245.644, 9.096283
1246.126, 8.023079
1246.608, 6.388855
1247.090, 5.571968
1247.572, 5.224808
1248.054, 4.881248
1248.536, 4.551643
1249.019, 4.427208
1249.501, 4.512733
1249.983, 4.780304
1250.465, 5.533813
1250.947, 6.068024
1251.429, 5.652863
1251.911, 5.120995
1252.393, 5.425507
1252.875, 6.469452
1253.358, 6.301331
1253.840, 5.149422
1254.322, 4.536758
1254.804, 5.910370
1255.286, 7.113678
1255.768, 7.457703
1256.250, 7.281410
1256.732, 6.662102
1257.214, 5.713783
1257.697, 5.082397
1258.179, 4.765831
1258.661, 4.766869
1259.143, 5.490166
1259.625, 5.942703
1260.107, 5.876198
1260.589, 5.631569
1261.071, 5.412178
1261.554, 5.257576
1262.036, 5.329826
1262.518, 5.583794
1263.000, 5.865189
1263.482, 6.308113
1263.964, 6.443817
1264.446, 6.155708
1264.928, 5.750725
1265.411, 5.464027
1265.893, 5.249008
1266.375, 5.011330
1266.857, 4.770584
1267.339, 4.580711
1267.821, 4.496376
1268.303, 4.412727
1268.785, 4.351860
1269.267, 4.207344
1269.750, 3.711906
1270.232, 3.231308
1270.714, 3.597786
1271.196, 4.286423
1271.678, 3.905075
1272.160, 1.581787
1272.642, 0.8658910
1273.124, 2.009499
1273.606, 3.323280
1274.089, 3.476563
1274.571, 3.359451
1275.053, 3.988129
1275.535, 4.795372
1276.017, 4.732620
1276.499, 3.606468
1276.981, 2.821304
1277.463, 2.405060
1277.946, 2.132744
1278.428, 1.718803
1278.910, 1.570198
1279.392, 2.280968
1279.874, 3.178482
1280.356, 3.326622
1280.838, 2.757881
1281.320, 3.382690
1281.802, 5.011147
1282.285, 5.832336
1282.767, 3.833450
1283.249, 2.179756
1283.731, 2.085403
1284.213, 2.710114
1284.695, 3.729347
1285.177, 4.878792
1285.659, 4.619316
1286.141, 3.262733
1286.624, 2.132973
1287.106, 1.873886
1287.588, 1.801918
1288.070, 1.844795
1288.552, 1.965988
1289.034, 2.113640
1289.516, 2.329216
1289.998, 2.977966
1290.481, 3.749939
1290.963, 3.838791
1291.445, 2.160469
1291.927, 1.447380
1292.409, 1.989326
1292.891, 2.394882
1293.373, 1.157936
1293.855, 0.3666840
1294.338, 0.3876570
1294.820, 0.5485530
1295.302, 1.416199
1295.784, 2.015915
1296.266, 3.106354
1296.748, 4.739418
1297.230, 5.931297
1297.712, 5.916779
1298.194, 5.419357
1298.677, 4.640083
1299.159, 3.695549
1299.641, 2.884209
1300.123, 1.942154
1300.605, 1.093475
1301.087, 0.3603900
1301.569, 1.4259000E-02
1302.051, 3.2478001E-02
1302.533, 0.1359100
1303.016, 0.0000000E+00
##END=



