##NAMES=Argentobaumhauerite
##RRUFFID=R070167
##IDEAL CHEMISTRY=Ag_1.5_Pb_22_As_33.5_S_72_
##LOCALITY=Cerro de Pasco, Alcides Carri√≥n Province, Pasco department, Peru
##OWNER=RRUFF
##SOURCE=Michael Scott
##DESCRIPTION=Silver metallic mass of spheroids
##STATUS=The identification of this mineral is not yet confirmed.
##URL=rruff.info/R070167
151.2007, 0.0000000E+00
151.6828, 227.2461
152.1649, 422.3047
152.6470, 540.4375
153.1291, 614.2695
153.6113, 624.1562
154.0934, 553.7539
154.5755, 488.6523
155.0576, 560.5312
155.5397, 421.3711
156.0218, 293.6133
156.5040, 213.2305
156.9861, 155.4141
157.4682, 74.24609
157.9503, 49.45312
158.4324, 157.8789
158.9145, 156.4023
159.3967, 45.06250
159.8788, 99.58984
160.3609, 240.9883
160.8430, 407.2812
161.3251, 657.2617
161.8072, 1018.875
162.2894, 1419.812
162.7715, 1749.207
163.2536, 2002.680
163.7357, 2295.871
164.2178, 2691.457
164.6999, 3150.004
165.1821, 3592.246
165.6642, 4004.930
166.1463, 4386.785
166.6284, 4735.836
167.1105, 5054.477
167.5926, 5346.293
168.0748, 5599.898
168.5569, 5827.836
169.0390, 6070.730
169.5211, 6355.910
170.0032, 6623.191
170.4853, 6810.609
170.9675, 6923.777
171.4496, 7001.582
171.9317, 7043.688
172.4138, 7062.348
172.8959, 7103.801
173.3780, 7199.965
173.8602, 7281.160
174.3423, 7270.598
174.8244, 7177.879
175.3065, 7091.137
175.7886, 7067.902
176.2707, 7091.918
176.7529, 7095.809
177.2350, 7052.859
177.7171, 7012.953
178.1992, 7029.816
178.6813, 7094.070
179.1634, 7142.117
179.6456, 7112.348
180.1277, 7027.160
180.6098, 6998.805
181.0919, 7071.379
181.5740, 7161.859
182.0561, 7209.156
182.5383, 7219.762
183.0204, 7223.672
183.5025, 7240.203
183.9846, 7265.809
184.4667, 7281.418
184.9488, 7276.258
185.4310, 7272.930
185.9131, 7282.438
186.3952, 7304.859
186.8773, 7339.586
187.3594, 7392.898
187.8415, 7460.824
188.3237, 7521.570
188.8058, 7575.258
189.2879, 7618.672
189.7700, 7634.477
190.2521, 7636.758
190.7342, 7664.953
191.2164, 7777.605
191.6985, 7951.484
192.1806, 8039.031
192.6627, 7978.973
193.1448, 7914.746
193.6269, 7932.312
194.1091, 8003.438
194.5912, 8059.738
195.0733, 8043.887
195.5554, 7975.289
196.0375, 7950.777
196.5196, 7976.770
197.0018, 8042.691
197.4839, 8174.145
197.9660, 8334.793
198.4481, 8452.758
198.9302, 8475.371
199.4123, 8425.223
199.8945, 8388.371
200.3766, 8358.090
200.8587, 8355.359
201.3408, 8411.523
201.8229, 8492.539
202.3050, 8542.211
202.7872, 8522.555
203.2693, 8455.406
203.7514, 8411.691
204.2335, 8407.168
204.7156, 8398.191
205.1977, 8359.309
205.6799, 8309.340
206.1620, 8279.859
206.6441, 8304.875
207.1262, 8366.867
207.6083, 8406.105
208.0904, 8400.633
208.5726, 8430.309
209.0547, 8472.953
209.5368, 8530.938
210.0189, 8553.332
210.5010, 8512.242
210.9831, 8442.766
211.4653, 8420.902
211.9474, 8470.520
212.4295, 8509.215
212.9116, 8507.992
213.3937, 8491.770
213.8758, 8476.492
214.3580, 8464.746
214.8401, 8464.387
215.3222, 8496.258
215.8043, 8572.938
216.2864, 8628.090
216.7685, 8633.777
217.2507, 8632.869
217.7328, 8653.018
218.2149, 8702.959
218.6970, 8754.678
219.1791, 8767.453
219.6612, 8731.195
220.1434, 8705.586
220.6255, 8715.664
221.1076, 8732.113
221.5897, 8742.867
222.0718, 8744.723
222.5539, 8728.564
223.0361, 8676.680
223.5182, 8582.258
224.0003, 8501.141
224.4824, 8463.715
224.9645, 8424.336
225.4466, 8356.469
225.9288, 8258.965
226.4109, 8148.004
226.8930, 8034.254
227.3751, 7917.525
227.8572, 7809.244
228.3393, 7720.559
228.8215, 7629.686
229.3036, 7517.793
229.7857, 7390.383
230.2678, 7272.859
230.7499, 7187.340
231.2320, 7131.293
231.7142, 7080.400
232.1963, 7057.307
232.6784, 7006.871
233.1605, 6883.004
233.6426, 6710.957
234.1247, 6552.660
234.6069, 6455.641
235.0890, 6403.352
235.5711, 6327.941
236.0532, 6210.379
236.5353, 6103.652
237.0174, 6059.061
237.4996, 6038.625
237.9817, 5969.443
238.4638, 5784.775
238.9459, 5552.574
239.4280, 5433.133
239.9101, 5474.691
240.3922, 5497.129
240.8744, 5395.133
241.3565, 5232.580
241.8386, 5081.320
242.3207, 4966.061
242.8028, 4867.707
243.2849, 4758.098
243.7671, 4634.318
244.2492, 4515.262
244.7313, 4418.107
245.2134, 4323.443
245.6955, 4210.623
246.1776, 4073.170
246.6598, 3925.342
247.1419, 3780.293
247.6240, 3636.967
248.1061, 3488.320
248.5882, 3327.383
249.0703, 3162.713
249.5525, 3001.889
250.0346, 2845.016
250.5167, 2691.492
250.9988, 2537.270
251.4809, 2384.238
251.9630, 2241.615
252.4452, 2113.426
252.9273, 1992.867
253.4094, 1876.869
253.8915, 1765.152
254.3736, 1644.740
254.8557, 1502.521
255.3379, 1347.900
255.8200, 1202.148
256.3021, 1070.812
256.7842, 943.2891
257.2663, 806.2168
257.7484, 663.7402
258.2306, 528.9766
258.7127, 398.4297
259.1948, 281.9121
259.6769, 200.6191
260.1590, 159.8301
260.6411, 115.9512
261.1233, 29.23828
261.6054, 88.71875
262.0875, 194.8047
262.5696, 294.0508
263.0517, 371.6523
263.5338, 397.1621
264.0160, 377.1055
264.4981, 381.2344
264.9802, 460.7090
265.4623, 589.7031
265.9444, 676.6484
266.4265, 701.3066
266.9087, 713.0918
267.3908, 740.2891
267.8729, 774.4316
268.3550, 787.5879
268.8371, 762.1758
269.3192, 719.5625
269.8014, 715.2617
270.2835, 768.6973
270.7656, 805.3867
271.2477, 806.7637
271.7298, 780.1504
272.2119, 730.8203
272.6941, 659.0234
273.1762, 578.9316
273.6583, 513.8848
274.1404, 478.0820
274.6225, 409.4434
275.1046, 279.7676
275.5868, 131.4238
276.0689, 3.255859
276.5510, 101.1191
277.0331, 205.6582
277.5152, 334.1270
277.9973, 489.9375
278.4795, 647.1953
278.9616, 795.3281
279.4437, 954.0605
279.9258, 1144.738
280.4079, 1356.932
280.8900, 1554.344
281.3722, 1708.463
281.8543, 1826.158
282.3364, 1987.961
282.8185, 2214.025
283.3006, 2457.787
283.7827, 2736.129
284.2649, 3019.600
284.7470, 3262.711
285.2291, 3442.561
285.7112, 3586.100
286.1933, 3766.795
286.6754, 4021.576
287.1576, 4260.557
287.6397, 4475.113
288.1218, 4675.580
288.6039, 4869.033
289.0860, 5058.707
289.5681, 5245.242
290.0503, 5423.385
290.5324, 5574.252
291.0145, 5773.354
291.4966, 6088.211
291.9787, 6390.979
292.4608, 6607.541
292.9430, 6745.664
293.4251, 6864.096
293.9072, 7010.738
294.3893, 7185.746
294.8714, 7368.590
295.3535, 7558.166
295.8357, 7759.047
296.3178, 7983.574
296.7999, 8217.994
297.2820, 8434.725
297.7641, 8614.279
298.2462, 8773.395
298.7284, 8958.355
299.2105, 9176.074
299.6926, 9404.854
300.1747, 9638.762
300.6568, 9878.652
301.1389, 10126.02
301.6211, 10381.21
302.1032, 10645.89
302.5853, 10929.98
303.0674, 11235.07
303.5495, 11522.20
304.0316, 11769.72
304.5138, 12005.41
304.9959, 12252.75
305.4780, 12512.65
305.9601, 12778.40
306.4422, 13049.31
306.9243, 13323.11
307.4065, 13589.15
307.8886, 13837.77
308.3707, 14096.24
308.8528, 14400.54
309.3349, 14738.96
309.8170, 15062.94
310.2992, 15374.43
310.7813, 15657.98
311.2634, 15876.16
311.7455, 16029.62
312.2276, 16201.44
312.7097, 16449.35
313.1919, 16757.08
313.6740, 17046.58
314.1561, 17306.51
314.6382, 17562.87
315.1203, 17823.76
315.6024, 18090.76
316.0846, 18373.73
316.5667, 18681.27
317.0488, 18992.36
317.5309, 19254.23
318.0130, 19438.98
318.4951, 19641.25
318.9773, 19876.76
319.4594, 20125.70
319.9415, 20367.82
320.4236, 20599.71
320.9057, 20840.51
321.3878, 21118.37
321.8700, 21451.99
322.3521, 21730.28
322.8342, 21930.15
323.3163, 22093.26
323.7984, 22219.85
324.2805, 22331.87
324.7627, 22472.22
325.2448, 22674.09
325.7269, 22921.55
326.2090, 23118.36
326.6911, 23212.31
327.1732, 23322.39
327.6554, 23478.17
328.1375, 23645.90
328.6196, 23795.37
329.1017, 23917.17
329.5838, 24017.13
330.0659, 24097.41
330.5481, 24143.63
331.0302, 24220.83
331.5123, 24373.05
331.9944, 24524.03
332.4765, 24637.54
332.9586, 24714.48
333.4408, 24772.08
333.9229, 24809.07
334.4050, 24825.85
334.8871, 24868.08
335.3692, 24949.53
335.8513, 25034.99
336.3335, 25104.12
336.8156, 25164.88
337.2977, 25231.72
337.7798, 25313.53
338.2619, 25400.11
338.7440, 25470.32
339.2262, 25521.65
339.7083, 25595.81
340.1904, 25731.71
340.6725, 25884.37
341.1546, 25980.54
341.6367, 25996.98
342.1189, 26035.11
342.6010, 26166.99
343.0831, 26360.69
343.5652, 26534.67
344.0473, 26663.99
344.5294, 26799.21
345.0116, 27001.52
345.4937, 27271.92
345.9758, 27559.13
346.4579, 27864.75
346.9400, 28180.50
347.4221, 28491.02
347.9043, 28801.11
348.3864, 29138.21
348.8685, 29519.68
349.3506, 29944.11
349.8327, 30408.35
350.3148, 30916.65
350.7970, 31453.59
351.2791, 32013.48
351.7612, 32602.23
352.2433, 33234.70
352.7254, 33915.50
353.2076, 34633.23
353.6897, 35366.16
354.1718, 36094.72
354.6539, 36891.00
355.1360, 37789.93
355.6181, 38709.02
356.1003, 39596.79
356.5824, 40460.41
357.0645, 41321.36
357.5466, 42200.68
358.0287, 43093.39
358.5108, 43983.99
358.9930, 44880.02
359.4751, 45772.60
359.9572, 46670.12
360.4393, 47554.71
360.9214, 48405.00
361.4035, 49214.82
361.8857, 49986.98
362.3678, 50734.18
362.8499, 51458.48
363.3320, 52135.65
363.8141, 52764.02
364.2962, 53330.18
364.7784, 53832.92
365.2605, 54272.29
365.7426, 54647.01
366.2247, 54955.43
366.7068, 55197.11
367.1889, 55369.86
367.6711, 55474.37
368.1532, 55514.38
368.6353, 55477.87
369.1174, 55371.51
369.5995, 55243.43
370.0816, 55139.48
370.5638, 54971.75
371.0459, 54683.91
371.5280, 54291.08
372.0101, 53829.07
372.4922, 53308.96
372.9743, 52754.63
373.4565, 52216.25
373.9386, 51747.41
374.4207, 51167.40
374.9028, 50418.97
375.3849, 49593.71
375.8670, 48762.97
376.3492, 47934.82
376.8313, 47094.95
377.3134, 46232.46
377.7955, 45346.41
378.2776, 44421.60
378.7597, 43431.86
379.2419, 42433.36
379.7240, 41454.76
380.2061, 40468.13
380.6882, 39453.38
381.1703, 38395.82
381.6524, 37307.09
382.1346, 36198.26
382.6167, 35068.71
383.0988, 33933.34
383.5809, 32800.61
384.0630, 31668.33
384.5451, 30525.67
385.0273, 29381.00
385.5094, 28259.52
385.9915, 27193.43
386.4736, 26166.06
386.9557, 25127.31
387.4378, 24074.96
387.9200, 23040.34
388.4021, 22053.72
388.8842, 21088.95
389.3663, 20096.12
389.8484, 19028.74
390.3305, 17996.17
390.8127, 17074.31
391.2948, 16235.45
391.7769, 15383.02
392.2590, 14489.05
392.7411, 13591.58
393.2232, 12751.12
393.7054, 11973.56
394.1875, 11218.40
394.6696, 10474.56
395.1517, 9756.162
395.6338, 9070.150
396.1159, 8418.555
396.5981, 7797.404
397.0802, 7207.198
397.5623, 6648.338
398.0444, 6123.838
398.5265, 5670.840
399.0086, 5205.161
399.4908, 4681.182
399.9729, 4167.858
400.4550, 3735.327
400.9371, 3397.977
401.4192, 3106.412
401.9013, 2801.575
402.3835, 2482.082
402.8656, 2191.255
403.3477, 1938.010
403.8298, 1708.470
404.3119, 1497.657
404.7940, 1301.650
405.2762, 1110.282
405.7583, 913.7568
406.2404, 725.6416
406.7225, 566.8994
407.2046, 436.7354
407.6867, 313.7119
408.1689, 182.3115
408.6510, 64.77344
409.1331, 4.596680
409.6152, 19.81738
410.0973, 41.02539
410.5794, 93.16992
411.0616, 160.7529
411.5437, 230.3057
412.0258, 299.5713
412.5079, 353.1914
412.9900, 375.5977
413.4721, 370.4932
413.9543, 377.9814
414.4364, 417.5308
414.9185, 445.4019
415.4006, 437.9531
415.8827, 418.2188
416.3648, 420.9502
416.8470, 455.2065
417.3291, 494.7500
417.8112, 499.8013
418.2933, 460.0332
418.7754, 426.0337
419.2575, 393.3745
419.7397, 370.9741
420.2218, 371.6802
420.7039, 384.6392
421.1860, 387.7690
421.6681, 367.6089
422.1502, 334.0068
422.6324, 306.6235
423.1145, 286.7866
423.5966, 264.9551
424.0787, 232.7803
424.5608, 202.2363
425.0429, 187.6265
425.5250, 190.0669
426.0071, 189.9736
426.4893, 176.8804
426.9714, 155.9341
427.4535, 136.2964
427.9356, 119.1733
428.4177, 96.13135
428.8998, 56.62891
429.3820, 6.337402
429.8641, 20.72363
430.3462, 4.933594
430.8283, 15.74316
431.3104, 22.63672
431.7925, 80.59424
432.2747, 118.4839
432.7568, 126.0952
433.2389, 120.9292
433.7210, 123.1074
434.2031, 131.4883
434.6852, 153.8267
435.1674, 205.4395
435.6495, 255.3394
436.1316, 292.0278
436.6137, 320.5811
437.0958, 351.6157
437.5779, 391.1055
438.0601, 430.6284
438.5422, 449.9517
439.0243, 443.7832
439.5064, 458.7969
439.9885, 523.6128
440.4706, 593.3882
440.9528, 631.3735
441.4349, 639.9697
441.9170, 642.7505
442.3991, 638.7114
442.8812, 640.1245
443.3633, 670.1274
443.8455, 727.0562
444.3276, 778.6987
444.8097, 807.8462
445.2918, 820.8735
445.7739, 834.2202
446.2560, 844.6626
446.7382, 861.2544
447.2203, 888.2666
447.7024, 920.4248
448.1845, 955.4922
448.6666, 991.6016
449.1487, 1023.597
449.6309, 1046.298
450.1130, 1060.396
450.5951, 1076.523
451.0772, 1097.796
451.5593, 1117.052
452.0414, 1130.771
452.5236, 1142.973
453.0057, 1156.703
453.4878, 1172.834
453.9699, 1194.054
454.4520, 1225.206
454.9341, 1265.347
455.4163, 1305.295
455.8984, 1347.698
456.3805, 1382.875
456.8626, 1398.326
457.3447, 1401.887
457.8268, 1409.507
458.3090, 1425.136
458.7911, 1444.234
459.2732, 1465.889
459.7553, 1488.705
460.2374, 1507.009
460.7195, 1518.360
461.2017, 1531.317
461.6838, 1558.614
462.1659, 1605.787
462.6480, 1643.229
463.1301, 1665.365
463.6122, 1684.107
464.0944, 1704.645
464.5765, 1725.943
465.0586, 1745.320
465.5407, 1761.103
466.0228, 1773.339
466.5049, 1779.851
466.9871, 1775.337
467.4692, 1782.407
467.9513, 1816.533
468.4334, 1849.772
468.9155, 1868.148
469.3976, 1870.778
469.8798, 1859.887
470.3619, 1829.819
470.8440, 1795.450
471.3261, 1779.724
471.8082, 1781.335
472.2903, 1783.344
472.7725, 1786.624
473.2546, 1782.983
473.7367, 1746.749
474.2188, 1667.254
474.7009, 1605.872
475.1830, 1591.627
475.6652, 1588.899
476.1473, 1569.064
476.6294, 1532.994
477.1115, 1497.624
477.5936, 1473.429
478.0757, 1455.438
478.5579, 1429.796
479.0400, 1391.692
479.5221, 1357.448
480.0042, 1328.579
480.4863, 1304.505
480.9684, 1286.099
481.4506, 1272.547
481.9327, 1260.797
482.4148, 1249.724
482.8969, 1236.861
483.3790, 1214.736
483.8611, 1181.331
484.3433, 1151.716
484.8254, 1132.128
485.3075, 1120.521
485.7896, 1114.908
486.2717, 1118.252
486.7538, 1116.549
487.2360, 1100.951
487.7181, 1078.811
488.2002, 1055.825
488.6823, 1034.183
489.1644, 1016.592
489.6465, 1003.695
490.1287, 993.8347
490.6108, 985.1421
491.0929, 978.1616
491.5750, 970.8477
492.0571, 966.0525
492.5392, 959.8777
493.0214, 946.5801
493.5035, 927.2920
493.9856, 912.3516
494.4677, 914.7107
494.9498, 927.9971
495.4319, 919.7871
495.9141, 880.1631
496.3962, 850.2212
496.8783, 858.2822
497.3604, 877.9482
497.8425, 878.2209
498.3246, 854.9309
498.8068, 826.1772
499.2889, 790.5730
499.7710, 759.1819
500.2531, 752.9150
500.7352, 770.8108
501.2173, 786.6580
501.6995, 782.6143
502.1816, 763.2368
502.6637, 748.2764
503.1458, 743.4321
503.6279, 735.5591
504.1100, 717.6599
504.5922, 700.4270
505.0743, 693.2781
505.5564, 696.1895
506.0385, 703.1470
506.5206, 711.2588
507.0027, 719.0669
507.4849, 719.1636
507.9670, 710.2075
508.4491, 695.3894
508.9312, 671.8743
509.4133, 645.1912
509.8954, 619.6653
510.3776, 595.3503
510.8597, 576.2942
511.3418, 568.8442
511.8239, 565.0938
512.3060, 551.5647
512.7881, 530.0068
513.2703, 518.6614
513.7524, 530.2695
514.2345, 554.6997
514.7166, 562.5498
515.1987, 535.4729
515.6808, 519.0686
516.1630, 524.9084
516.6451, 531.0042
517.1272, 520.8164
517.6093, 496.8586
518.0914, 471.2939
518.5735, 451.5720
519.0557, 436.5288
519.5378, 424.0188
520.0199, 414.7705
520.5020, 406.2878
520.9841, 396.8096
521.4662, 388.1448
521.9484, 384.9541
522.4305, 386.3955
522.9126, 380.4482
523.3947, 354.9380
523.8768, 327.0181
524.3589, 312.1694
524.8411, 308.2058
525.3232, 307.1016
525.8053, 305.8738
526.2874, 303.9399
526.7695, 300.1826
527.2516, 294.0601
527.7338, 287.4438
528.2159, 281.7095
528.6980, 274.0530
529.1801, 261.2419
529.6622, 246.2051
530.1443, 233.9517
530.6265, 226.6299
531.1086, 222.7217
531.5907, 222.5503
532.0728, 225.4539
532.5549, 219.5591
533.0370, 199.3369
533.5192, 178.4146
534.0013, 167.9497
534.4834, 165.9707
534.9655, 165.7969
535.4476, 172.1731
535.9297, 174.3008
536.4119, 163.2080
536.8940, 145.3906
537.3761, 130.4224
537.8582, 120.7380
538.3403, 115.5588
538.8224, 114.8140
539.3046, 118.5867
539.7867, 119.9207
540.2688, 122.5994
540.7509, 116.7285
541.2330, 92.37451
541.7151, 63.53052
542.1973, 43.48242
542.6794, 35.03540
543.1615, 34.19409
543.6436, 42.16528
544.1257, 54.82495
544.6078, 62.83691
545.0900, 65.46973
545.5721, 62.92407
546.0542, 53.25586
546.5363, 40.33691
547.0184, 34.62769
547.5005, 39.64868
547.9827, 43.94849
548.4648, 49.03931
548.9469, 50.71533
549.4290, 43.79395
549.9111, 30.42285
550.3932, 16.41553
550.8754, 4.443115
551.3575, 4.017822
551.8396, 3.203369
552.3217, 10.48389
552.8038, 19.49292
553.2859, 19.37402
553.7681, 16.16187
554.2502, 12.59790
554.7323, 9.471191
555.2144, 9.583740
555.6965, 19.36206
556.1786, 26.04565
556.6608, 15.04053
557.1429, 5.555176
557.6250, 16.12085
558.1071, 11.17603
558.5892, 0.2343750
559.0714, 6.799805
559.5535, 9.620361
560.0356, 8.438477
560.5177, 8.929688
560.9998, 16.15503
561.4819, 3.575684
561.9641, 30.02905
562.4462, 42.78271
562.9283, 36.93896
563.4104, 20.84961
563.8925, 2.592529
564.3746, 28.35400
564.8568, 41.71094
565.3389, 41.37329
565.8210, 36.01099
566.3031, 27.56177
566.7852, 18.00610
567.2673, 11.82227
567.7495, 9.729492
568.2316, 7.854492
568.7137, 3.812256
569.1958, 1.387207
569.6779, 6.129395
570.1600, 14.56665
570.6422, 16.91553
571.1243, 7.908203
571.6064, 4.476318
572.0885, 2.530029
572.5706, 17.64868
573.0527, 23.40820
573.5349, 1.082764
574.0170, 20.48706
574.4991, 20.89526
574.9812, 8.495605
575.4633, 1.132568
575.9454, 6.098633
576.4276, 9.346191
576.9097, 2.551514
577.3918, 19.54175
577.8739, 24.89136
578.3560, 16.43066
578.8381, 1.971680
579.3203, 13.50684
579.8024, 28.72852
580.2845, 34.67627
580.7666, 21.24219
581.2487, 15.40454
581.7308, 28.42700
582.2130, 42.47998
582.6951, 43.52539
583.1772, 33.27100
583.6593, 23.82764
584.1414, 22.63135
584.6235, 24.75317
585.1057, 22.61133
585.5878, 17.31934
586.0699, 16.59644
586.5520, 23.83081
587.0341, 30.96313
587.5162, 27.26001
587.9984, 10.90869
588.4805, 5.010986
588.9626, 21.32568
589.4447, 32.83521
589.9268, 28.61011
590.4089, 17.21753
590.8911, 8.912598
591.3732, 5.653320
591.8553, 1.961670
592.3374, 10.56494
592.8195, 27.45264
593.3016, 29.12305
593.7838, 13.25464
594.2659, 2.002197
594.7480, 10.43018
595.2301, 13.63354
595.7122, 12.86743
596.1943, 7.657471
596.6765, 3.625244
597.1586, 0.9460450
597.6407, 0.2714840
598.1228, 4.392578
598.6049, 10.30127
599.0870, 11.99072
599.5692, 7.301514
600.0513, 0.1733400
600.5334, 3.435547
601.0155, 3.199463
601.4976, 7.862061
601.9797, 21.94116
602.4619, 31.68677
602.9440, 27.23242
603.4261, 16.02441
603.9082, 7.037842
604.3903, 0.5742190
604.8724, 1.846924
605.3546, 4.008789
605.8367, 11.54565
606.3188, 13.81982
606.8009, 11.52979
607.2830, 9.708984
607.7651, 11.10425
608.2473, 12.31616
608.7294, 4.702148
609.2115, 17.07935
609.6936, 26.79614
610.1757, 15.74780
610.6578, 2.670898
611.1400, 5.955811
611.6221, 10.54517
612.1042, 11.60815
612.5863, 8.882568
613.0684, 4.142578
613.5505, 3.585205
614.0327, 11.71802
614.5148, 16.83960
614.9969, 18.36060
615.4790, 15.28223
615.9611, 6.593994
616.4432, 4.567383
616.9254, 9.902344
617.4075, 7.952393
617.8896, 3.553955
618.3717, 10.58911
618.8538, 19.45093
619.3359, 7.796875
619.8181, 12.14380
620.3002, 13.26123
620.7823, 19.47778
621.2644, 51.37427
621.7465, 46.21631
622.2286, 19.72021
622.7108, 7.276855
623.1929, 13.50659
623.6750, 26.30469
624.1571, 39.11914
624.6392, 50.30005
625.1213, 53.63794
625.6035, 41.10864
626.0856, 34.08545
626.5677, 32.32886
627.0498, 36.16943
627.5319, 48.98926
628.0140, 66.98389
628.4962, 83.05664
628.9783, 95.44653
629.4604, 102.6094
629.9425, 99.08667
630.4246, 88.88892
630.9067, 86.57080
631.3889, 95.01904
631.8710, 101.3999
632.3531, 96.78882
632.8352, 83.56836
633.3173, 70.61279
633.7994, 50.13354
634.2816, 42.45947
634.7637, 56.86841
635.2458, 74.84619
635.7279, 87.81616
636.2100, 95.89478
636.6921, 101.0544
637.1743, 103.9043
637.6564, 103.6099
638.1385, 96.10742
638.6206, 84.57788
639.1027, 81.65747
639.5848, 89.52515
640.0670, 96.12183
640.5491, 92.12231
641.0312, 81.24414
641.5133, 77.43579
641.9954, 87.35547
642.4775, 94.55225
642.9597, 98.70532
643.4418, 100.4973
643.9239, 96.72827
644.4060, 91.40991
644.8881, 93.89111
645.3702, 109.6096
645.8524, 127.0481
646.3345, 131.4927
646.8166, 127.4846
647.2987, 133.4563
647.7808, 152.1257
648.2629, 159.1265
648.7451, 134.6602
649.2272, 91.43994
649.7093, 68.90698
650.1914, 80.69653
650.6735, 89.10767
651.1556, 93.04346
651.6378, 96.49707
652.1199, 100.2456
652.6020, 104.4487
653.0841, 110.9207
653.5662, 121.0750
654.0483, 128.4780
654.5305, 125.1982
655.0126, 114.7747
655.4947, 105.3645
655.9768, 97.37671
656.4589, 93.83521
656.9410, 98.66772
657.4232, 107.6394
657.9053, 108.9238
658.3874, 97.24463
658.8695, 90.43042
659.3516, 89.79272
659.8337, 91.40991
660.3159, 95.97559
660.7980, 101.8743
661.2801, 107.0691
661.7622, 111.0012
662.2443, 111.0308
662.7264, 97.91895
663.2086, 82.05200
663.6907, 88.81201
664.1728, 115.7795
664.6549, 129.9900
665.1370, 114.4973
665.6191, 85.13623
666.1013, 68.95142
666.5834, 68.99170
667.0655, 71.66626
667.5476, 77.97705
668.0297, 84.62646
668.5118, 91.76880
668.9940, 97.67212
669.4761, 101.9612
669.9582, 104.5684
670.4403, 100.2341
670.9224, 73.37671
671.4045, 46.88696
671.8867, 53.84595
672.3688, 85.55566
672.8509, 109.9211
673.3330, 115.4946
673.8151, 113.3403
674.2972, 117.7976
674.7794, 129.3416
675.2615, 132.9465
675.7436, 124.1526
676.2257, 115.9102
676.7078, 109.4124
677.1899, 105.4622
677.6721, 105.3628
678.1542, 109.5776
678.6363, 115.7153
679.1184, 126.4419
679.6005, 132.7036
680.0826, 122.5576
680.5648, 104.7732
681.0469, 97.94507
681.5290, 104.7683
682.0111, 111.6636
682.4932, 105.8533
682.9753, 91.11523
683.4575, 84.50049
683.9396, 87.88721
684.4217, 92.05249
684.9038, 96.25391
685.3859, 99.42822
685.8680, 102.6975
686.3502, 104.6194
686.8323, 98.62720
687.3144, 69.64478
687.7965, 52.39575
688.2786, 73.76562
688.7607, 102.4019
689.2429, 102.1365
689.7250, 76.92725
690.2071, 55.68237
690.6892, 55.48926
691.1713, 66.87012
691.6534, 74.97461
692.1356, 79.83545
692.6177, 81.42847
693.0998, 78.63135
693.5819, 76.84570
694.0640, 78.99634
694.5461, 84.81152
695.0283, 95.18457
695.5104, 120.9097
695.9925, 126.8027
696.4746, 88.93335
696.9567, 52.66992
697.4388, 44.22290
697.9210, 54.47412
698.4031, 68.70020
698.8852, 82.03833
699.3673, 87.86743
699.8494, 74.36597
700.3315, 50.84351
700.8137, 36.82495
701.2958, 32.80493
701.7779, 35.70605
702.2600, 45.29004
702.7421, 56.56226
703.2242, 62.71265
703.7064, 63.55640
704.1885, 60.65869
704.6706, 46.73535
705.1527, 39.12646
705.6348, 47.51465
706.1169, 59.28784
706.5991, 63.06714
707.0812, 58.52051
707.5633, 52.47046
708.0454, 45.27197
708.5275, 40.22656
709.0096, 42.06519
709.4918, 47.35986
709.9739, 50.34351
710.4560, 49.61011
710.9381, 45.16260
711.4202, 36.85132
711.9023, 25.13477
712.3845, 8.976563
712.8666, 15.30200
713.3487, 24.16455
713.8308, 6.988525
714.3129, 13.88062
714.7950, 24.31812
715.2772, 26.44507
715.7593, 24.99048
716.2414, 16.40356
716.7235, 12.56860
717.2056, 21.99097
717.6877, 31.49487
718.1699, 29.15137
718.6520, 19.15601
719.1341, 11.59619
719.6162, 10.55591
720.0983, 13.87915
720.5804, 21.22827
721.0626, 31.08325
721.5447, 35.85400
722.0268, 35.64136
722.5089, 42.08618
722.9910, 62.37207
723.4731, 82.57031
723.9553, 79.29370
724.4374, 47.71484
724.9195, 31.59473
725.4016, 46.69116
725.8837, 56.93408
726.3658, 49.90503
726.8480, 39.46533
727.3301, 39.24121
727.8122, 48.69312
728.2943, 56.55103
728.7764, 58.16528
729.2585, 56.16406
729.7407, 51.39746
730.2228, 45.81909
730.7049, 41.42847
731.1870, 38.94116
731.6691, 36.50659
732.1512, 32.30566
732.6334, 28.37354
733.1155, 30.36108
733.5976, 39.31836
734.0797, 49.78662
734.5618, 64.60596
735.0439, 72.71045
735.5261, 62.68848
736.0082, 43.06885
736.4903, 33.95605
736.9724, 39.97534
737.4545, 42.70630
737.9366, 33.99512
738.4188, 28.04004
738.9009, 33.36206
739.3830, 45.56641
739.8651, 57.06738
740.3472, 65.72363
740.8293, 72.33203
741.3115, 80.47803
741.7936, 85.58154
742.2757, 74.35229
742.7578, 50.85986
743.2399, 36.91772
743.7220, 38.65625
744.2042, 47.22607
744.6863, 55.42847
745.1684, 63.18237
745.6505, 68.47095
746.1326, 72.90430
746.6147, 71.02979
747.0969, 50.88281
747.5790, 35.82349
748.0611, 43.24170
748.5432, 65.34497
749.0253, 84.52808
749.5074, 101.4075
749.9896, 107.2422
750.4717, 86.27710
750.9538, 63.19507
751.4359, 63.94556
751.9180, 80.33960
752.4001, 90.60718
752.8823, 86.92944
753.3644, 75.97925
753.8465, 61.68042
754.3286, 46.03247
754.8107, 38.62671
755.2928, 39.81079
755.7750, 45.33789
756.2571, 55.13184
756.7392, 63.73730
757.2213, 64.16504
757.7034, 56.64209
758.1855, 52.56787
758.6677, 54.73267
759.1498, 56.34644
759.6319, 56.75806
760.1140, 55.97290
760.5961, 51.66187
761.0782, 46.06934
761.5604, 46.52759
762.0425, 59.19141
762.5246, 68.57983
763.0067, 63.23755
763.4888, 52.58228
763.9709, 46.08838
764.4531, 43.39795
764.9352, 40.76514
765.4173, 36.80347
765.8994, 34.90649
766.3815, 42.32178
766.8636, 56.34839
767.3458, 59.49658
767.8279, 50.63696
768.3100, 45.58887
768.7921, 52.10864
769.2742, 58.33936
769.7563, 48.18701
770.2385, 21.55737
770.7206, 7.873535
771.2027, 16.82056
771.6848, 27.56348
772.1669, 45.17065
772.6490, 56.21143
773.1312, 45.05371
773.6133, 20.08301
774.0954, 6.034180
774.5775, 13.70215
775.0596, 23.15601
775.5417, 21.37524
776.0239, 17.07544
776.5060, 22.55005
776.9881, 33.72314
777.4702, 37.57812
777.9523, 29.05762
778.4344, 14.26660
778.9166, 4.260498
779.3987, 22.93896
779.8808, 20.57349
780.3629, 3.429443
780.8450, 17.72656
781.3271, 10.75391
781.8093, 1.590576
782.2914, 3.131836
782.7735, 5.193359
783.2556, 11.48267
783.7377, 15.84351
784.2198, 17.98120
784.7020, 15.64526
785.1841, 13.37109
785.6662, 16.53638
786.1483, 20.95776
786.6304, 15.40186
787.1125, 7.540527
787.5947, 20.45654
788.0768, 3.891846
788.5589, 20.63062
789.0410, 41.27441
789.5231, 53.96924
790.0052, 50.94653
790.4874, 31.46948
790.9695, 9.991699
791.4516, 0.9101560
791.9337, 3.600830
792.4158, 2.672363
792.8979, 1.574219
793.3801, 9.340332
793.8622, 21.28662
794.3443, 26.22400
794.8264, 12.64087
795.3085, 11.72534
795.7906, 16.40649
796.2727, 9.261719
796.7548, 23.48108
797.2369, 18.11572
797.7191, 9.628540
798.2012, 5.131470
798.6833, 2.879150
799.1654, 0.3843990
799.6475, 2.710938
800.1296, 4.089111
800.6118, 4.945435
801.0939, 2.140015
801.5760, 11.51318
802.0581, 26.43384
802.5402, 29.69238
803.0223, 21.38281
803.5045, 12.48633
803.9866, 8.927612
804.4687, 8.283569
804.9508, 5.985718
805.4329, 5.160278
805.9150, 16.28064
806.3972, 37.83276
806.8793, 53.78699
807.3614, 55.64587
807.8435, 47.86865
808.3256, 34.25623
808.8077, 14.73157
809.2899, 13.72754
809.7720, 37.90479
810.2541, 51.14709
810.7362, 34.82104
811.2183, 13.73499
811.7004, 17.45715
812.1826, 45.33533
812.6647, 62.89185
813.1468, 66.15991
813.6289, 65.10193
814.1110, 58.27173
814.5931, 49.58044
815.0753, 40.79504
815.5574, 32.18213
816.0395, 23.26843
816.5216, 13.19641
817.0037, 6.824097
817.4858, 7.010498
817.9680, 11.60010
818.4501, 21.47144
818.9322, 33.41333
819.4143, 42.90649
819.8964, 48.33044
820.3785, 48.09155
820.8607, 37.02661
821.3428, 24.75891
821.8249, 35.57971
822.3070, 62.87939
822.7891, 71.58191
823.2712, 56.08704
823.7534, 37.94849
824.2355, 29.90295
824.7176, 30.76538
825.1997, 39.71143
825.6818, 59.57947
826.1639, 71.01282
826.6461, 72.01099
827.1282, 68.89673
827.6103, 60.66516
828.0924, 52.54724
828.5745, 52.03577
829.0566, 59.49548
829.5388, 63.18933
830.0209, 54.72852
830.5030, 53.53088
830.9851, 73.33752
831.4672, 92.37268
831.9493, 93.22546
832.4315, 81.23242
832.9136, 68.79211
833.3957, 58.46118
833.8778, 53.09082
834.3599, 57.13245
834.8420, 64.81934
835.3242, 72.28015
835.8063, 78.41870
836.2884, 81.01440
836.7705, 79.55066
837.2526, 76.54089
837.7347, 75.54004
838.2169, 77.11829
838.6990, 78.78479
839.1811, 80.37537
839.6632, 84.94275
840.1453, 93.09204
840.6274, 96.78015
841.1096, 90.56250
841.5917, 78.00049
842.0738, 64.19861
842.5559, 48.07727
843.0380, 43.64819
843.5201, 54.18030
844.0023, 68.20862
844.4844, 87.31482
844.9665, 100.3341
845.4486, 93.58093
845.9307, 70.92529
846.4128, 56.80542
846.8950, 51.64001
847.3771, 52.54858
847.8592, 70.60645
848.3413, 82.97009
848.8234, 70.18469
849.3055, 45.31543
849.7877, 30.47998
850.2698, 30.18481
850.7519, 37.25964
851.2340, 53.79919
851.7161, 71.44080
852.1982, 88.90576
852.6804, 100.9867
853.1625, 97.20251
853.6446, 80.69653
854.1267, 67.49646
854.6088, 64.88818
855.0909, 67.07092
855.5731, 70.12036
856.0552, 72.38538
856.5373, 67.71460
857.0194, 57.83215
857.5015, 55.32629
857.9836, 65.18091
858.4658, 73.30737
858.9479, 60.54614
859.4300, 33.51245
859.9121, 22.91748
860.3942, 29.14709
860.8763, 38.49683
861.3585, 49.97156
861.8406, 55.45520
862.3227, 46.72473
862.8048, 31.29797
863.2869, 29.38538
863.7690, 46.71130
864.2512, 59.30054
864.7333, 67.04895
865.2154, 68.38745
865.6975, 56.41638
866.1796, 42.51038
866.6617, 39.64954
867.1439, 46.97522
867.6260, 52.00940
868.1081, 49.69629
868.5902, 49.97974
869.0723, 60.10437
869.5544, 67.92017
870.0366, 63.30286
870.5187, 51.44263
871.0008, 42.37830
871.4829, 38.19568
871.9650, 36.67603
872.4471, 38.17676
872.9293, 40.38611
873.4114, 41.63721
873.8935, 42.31091
874.3756, 44.25134
874.8577, 46.73547
875.3398, 45.14233
875.8220, 34.60779
876.3041, 25.31433
876.7862, 31.67676
877.2683, 46.43152
877.7504, 55.84595
878.2325, 59.26709
878.7147, 57.24463
879.1968, 50.31885
879.6789, 45.24768
880.1610, 49.67334
880.6431, 59.22729
881.1252, 57.52490
881.6074, 45.09155
882.0895, 43.48315
882.5716, 57.26660
883.0537, 69.18555
883.5358, 69.04456
884.0179, 61.57190
884.5001, 54.88599
884.9822, 48.67639
885.4643, 47.17004
885.9464, 51.85718
886.4285, 57.30933
886.9106, 62.22144
887.3928, 66.57678
887.8749, 69.63757
888.3570, 71.66638
888.8391, 73.95020
889.3212, 79.85132
889.8033, 79.68958
890.2855, 63.71069
890.7676, 52.91772
891.2497, 60.63232
891.7318, 74.72559
892.2139, 82.59753
892.6960, 83.14038
893.1782, 78.12744
893.6603, 62.16809
894.1424, 48.41760
894.6245, 42.24341
895.1066, 39.32178
895.5887, 35.66504
896.0709, 32.59180
896.5530, 35.02502
897.0351, 44.39270
897.5172, 50.12097
897.9993, 41.00964
898.4814, 30.01855
898.9636, 31.50647
899.4457, 37.50537
899.9278, 33.18591
900.4099, 19.51404
900.8920, 9.616699
901.3741, 10.48462
901.8563, 17.57898
902.3384, 29.61267
902.8205, 42.33398
903.3026, 46.24963
903.7847, 42.81226
904.2668, 39.15039
904.7490, 37.22803
905.2311, 33.93164
905.7132, 25.83301
906.1953, 16.63403
906.6774, 16.03491
907.1595, 22.76855
907.6417, 27.01221
908.1238, 27.93945
908.6059, 26.76721
909.0880, 23.71838
909.5701, 20.86267
910.0522, 21.38062
910.5344, 24.50891
911.0165, 22.81812
911.4986, 15.20398
911.9807, 9.101563
912.4628, 5.626343
912.9449, 3.990112
913.4271, 3.298218
913.9092, 4.704468
914.3913, 11.48853
914.8734, 25.61755
915.3555, 32.77576
915.8376, 31.10889
916.3198, 25.87427
916.8019, 15.04761
917.2840, 4.392700
917.7661, 1.173584
918.2482, 2.637329
918.7303, 3.801147
919.2125, 4.111206
919.6946, 5.359497
920.1767, 9.665771
920.6588, 12.56763
921.1409, 15.21033
921.6230, 13.57263
922.1052, 1.401489
922.5873, 26.08032
923.0694, 38.10950
923.5515, 23.09985
924.0336, 12.23584
924.5157, 22.14661
924.9979, 31.07251
925.4800, 19.02539
925.9621, 0.6977540
926.4442, 4.667725
926.9263, 9.380249
927.4084, 19.40454
927.8906, 7.330078
928.3727, 1.330322
928.8548, 16.90308
929.3369, 39.40869
929.8190, 40.27649
930.3011, 26.03857
930.7833, 17.18457
931.2654, 19.93604
931.7475, 21.58435
932.2296, 5.729248
932.7117, 8.851074
933.1938, 4.465210
933.6760, 28.57727
934.1581, 32.25500
934.6402, 17.19250
935.1223, 7.016968
935.6044, 12.79517
936.0865, 21.47021
936.5687, 16.97803
937.0508, 7.372070
937.5329, 9.259888
938.0150, 18.10339
938.4971, 17.50012
938.9792, 6.349121
939.4614, 1.490845
939.9435, 14.34619
940.4256, 33.61377
940.9077, 45.48840
941.3898, 48.96960
941.8719, 36.18091
942.3541, 9.934326
942.8362, 11.43457
943.3183, 22.55945
943.8004, 20.66345
944.2825, 1.484009
944.7646, 25.55566
945.2468, 38.71179
945.7289, 38.81604
946.2110, 34.54138
946.6931, 26.28418
947.1752, 21.24854
947.6573, 22.35217
948.1395, 24.24976
948.6216, 20.51941
949.1037, 14.36023
949.5858, 20.16443
950.0679, 39.38269
950.5500, 53.52002
951.0322, 61.09033
951.5143, 63.30042
951.9964, 60.00989
952.4785, 53.35962
952.9606, 45.71851
953.4427, 37.42017
953.9249, 31.33826
954.4070, 26.52600
954.8891, 28.77905
955.3712, 41.46326
955.8533, 53.99353
956.3354, 61.26123
956.8176, 64.99512
957.2997, 67.71777
957.7818, 69.38806
958.2639, 68.98291
958.7460, 67.99377
959.2281, 60.55042
959.7103, 37.87292
960.1924, 22.26245
960.6745, 32.80066
961.1566, 53.51587
961.6387, 53.10938
962.1208, 26.47327
962.6030, 19.25635
963.0851, 48.29626
963.5672, 68.44202
964.0493, 66.89661
964.5314, 61.21777
965.0135, 60.94934
965.4957, 64.71509
965.9778, 71.46167
966.4599, 84.33069
966.9420, 85.38000
967.4241, 59.36011
967.9063, 42.28992
968.3884, 49.19080
968.8705, 59.70911
969.3526, 59.62231
969.8347, 52.57776
970.3168, 47.97144
970.7990, 47.14380
971.2811, 45.57019
971.7632, 39.37866
972.2453, 36.90247
972.7274, 43.80518
973.2095, 52.52478
973.6917, 60.70825
974.1738, 65.28833
974.6559, 56.22351
975.1380, 24.72351
975.6201, 8.818359
976.1022, 28.69043
976.5844, 48.59814
977.0665, 53.48633
977.5486, 53.43225
978.0307, 58.11658
978.5128, 65.99280
978.9949, 69.88147
979.4771, 67.87317
979.9592, 65.88550
980.4413, 64.35132
980.9234, 62.96191
981.4055, 63.62207
981.8876, 62.63220
982.3698, 52.50891
982.8519, 37.70337
983.3340, 33.75745
983.8161, 47.83130
984.2982, 60.20898
984.7803, 65.47656
985.2625, 66.80017
985.7446, 67.89954
986.2267, 64.26697
986.7088, 45.83215
987.1909, 18.15527
987.6730, 1.613281
988.1552, 3.267578
988.6373, 10.33130
989.1194, 23.29382
989.6015, 34.24597
990.0836, 39.19324
990.5657, 38.28723
991.0479, 29.72485
991.5300, 16.85315
992.0121, 10.35779
992.4942, 14.02515
992.9763, 22.20142
993.4584, 40.47559
993.9406, 53.85010
994.4227, 47.98108
994.9048, 34.87708
995.3869, 28.68188
995.8690, 29.33630
996.3511, 29.16724
996.8333, 25.38623
997.3154, 21.86877
997.7975, 19.89380
998.2796, 19.43262
998.7617, 19.34412
999.2438, 21.44495
999.7260, 30.97913
1000.208, 44.88879
1000.690, 50.43811
1001.172, 41.42932
1001.654, 33.20203
1002.137, 35.69580
1002.619, 38.54028
1003.101, 34.74548
1003.583, 27.98157
1004.065, 21.26721
1004.547, 15.99487
1005.029, 15.00452
1005.511, 20.07227
1005.993, 25.30652
1006.476, 28.55054
1006.958, 30.41479
1007.440, 33.60498
1007.922, 33.99585
1008.404, 21.00195
1008.886, 1.124146
1009.368, 2.200439
1009.850, 22.24646
1010.333, 40.77380
1010.815, 33.32422
1011.297, 21.88538
1011.779, 17.91992
1012.261, 17.87341
1012.743, 17.62073
1013.225, 17.20569
1013.707, 18.94666
1014.189, 24.26379
1014.672, 26.50513
1015.154, 19.18469
1015.636, 12.68713
1016.118, 13.39575
1016.600, 16.90857
1017.082, 20.77344
1017.564, 23.19263
1018.046, 20.17773
1018.529, 9.938354
1019.011, 2.095581
1019.493, 0.6153560
1019.975, 1.664673
1020.457, 4.978638
1020.939, 8.751099
1021.421, 12.58398
1021.903, 15.35156
1022.385, 13.26831
1022.868, 4.713501
1023.350, 3.402832
1023.832, 22.58130
1024.314, 37.28406
1024.796, 35.22205
1025.278, 28.17371
1025.760, 23.33411
1026.242, 20.88904
1026.724, 20.95215
1027.207, 23.71960
1027.689, 23.42737
1028.171, 13.62598
1028.653, 8.045898
1029.135, 13.89612
1029.617, 21.29211
1030.099, 26.14478
1030.581, 27.31445
1031.064, 21.66772
1031.546, 9.001221
1032.028, 0.8780520
1032.510, 1.255981
1032.992, 2.869019
1033.474, 5.272827
1033.956, 7.725464
1034.438, 9.601929
1034.921, 11.45203
1035.403, 14.86292
1035.885, 19.62708
1036.367, 20.91174
1036.849, 16.75903
1037.331, 11.85266
1037.813, 3.908691
1038.295, 1.855835
1038.777, 4.065186
1039.260, 2.454834
1039.742, 5.299927
1040.224, 17.72571
1040.706, 24.91748
1041.188, 26.49622
1041.670, 23.47766
1042.152, 10.89258
1042.634, 2.048096
1043.116, 3.512207
1043.599, 7.204834
1044.081, 4.078613
1044.563, 1.984253
1045.045, 4.462524
1045.527, 31.69019
1046.009, 38.37292
1046.491, 14.34058
1046.973, 5.108032
1047.455, 12.61694
1047.938, 9.649414
1048.420, 6.153687
1048.902, 27.52441
1049.384, 37.91370
1049.866, 36.76953
1050.348, 30.11060
1050.830, 15.71729
1051.312, 6.604126
1051.795, 6.192139
1052.277, 8.492676
1052.759, 9.348633
1053.241, 10.97095
1053.723, 18.17444
1054.205, 29.68762
1054.687, 29.75476
1055.169, 17.47620
1055.651, 14.74170
1056.134, 25.23877
1056.616, 31.73669
1057.098, 25.67578
1057.580, 16.85132
1058.062, 17.27893
1058.544, 24.07922
1059.026, 26.73230
1059.508, 26.05444
1059.990, 30.72705
1060.473, 40.90112
1060.955, 44.70667
1061.437, 37.96655
1061.919, 28.37512
1062.401, 22.04785
1062.883, 18.86243
1063.365, 17.40295
1063.847, 17.98877
1064.330, 23.75513
1064.812, 32.95935
1065.294, 38.03796
1065.776, 37.42554
1066.258, 33.43616
1066.740, 26.71838
1067.222, 22.92261
1067.704, 35.18677
1068.187, 50.86414
1068.669, 44.26086
1069.151, 26.48950
1069.633, 22.30347
1070.115, 32.55225
1070.597, 45.53918
1071.079, 56.35718
1071.561, 61.18994
1072.043, 51.59338
1072.526, 39.58215
1073.008, 39.24963
1073.490, 42.10645
1073.972, 33.66992
1074.454, 19.41455
1074.936, 15.12146
1075.418, 24.43652
1075.900, 36.46106
1076.382, 50.33557
1076.865, 59.89197
1077.347, 56.72192
1077.829, 50.87683
1078.311, 48.84595
1078.793, 50.36523
1079.275, 55.08887
1079.757, 61.85645
1080.239, 64.94116
1080.722, 61.29553
1081.204, 57.27100
1081.686, 54.03979
1082.168, 51.34045
1082.650, 48.43713
1083.132, 46.52991
1083.614, 47.48596
1084.096, 50.35486
1084.578, 52.17029
1085.061, 53.71631
1085.543, 51.16687
1086.025, 37.57898
1086.507, 31.38586
1086.989, 41.94495
1087.471, 52.17480
1087.953, 49.96777
1088.435, 42.54993
1088.917, 43.34204
1089.400, 52.33875
1089.882, 51.84998
1090.364, 37.49414
1090.846, 30.84119
1091.328, 35.89685
1091.810, 42.58459
1092.292, 47.20959
1092.774, 49.20374
1093.257, 47.57251
1093.739, 43.38757
1094.221, 39.12793
1094.703, 34.98669
1095.185, 39.92859
1095.667, 53.90466
1096.149, 55.37000
1096.631, 38.70715
1097.114, 23.20239
1097.596, 22.68127
1098.078, 28.67969
1098.560, 27.02283
1099.042, 21.39905
1099.524, 23.97766
1100.006, 31.73499
1100.488, 35.79932
1100.970, 34.67688
1101.453, 27.01685
1101.935, 12.72107
1102.417, 2.873413
1102.899, 11.62781
1103.381, 24.41064
1103.863, 23.42041
1104.345, 16.16797
1104.827, 11.26221
1105.309, 8.983154
1105.792, 8.545898
1106.274, 9.781860
1106.756, 12.70361
1107.238, 19.32336
1107.720, 22.38208
1108.202, 14.85828
1108.684, 5.904785
1109.166, 1.339966
1109.649, 4.289673
1110.131, 1.453003
1110.613, 13.39221
1111.095, 25.46484
1111.577, 38.58179
1112.059, 41.41431
1112.541, 20.48645
1113.023, 5.710449
1113.505, 8.134399
1113.988, 14.26819
1114.470, 18.14624
1114.952, 19.73267
1115.434, 18.50073
1115.916, 14.67908
1116.398, 11.36987
1116.880, 8.778931
1117.362, 5.319946
1117.844, 1.642700
1118.327, 0.2449950
1118.809, 17.24976
1119.291, 30.92310
1119.773, 21.45471
1120.255, 2.039795
1120.737, 6.878662
1121.219, 33.86401
1121.701, 43.97522
1122.184, 38.28516
1122.666, 30.56482
1123.148, 23.66467
1123.630, 21.84033
1124.112, 27.18921
1124.594, 32.73474
1125.076, 31.12939
1125.558, 24.36426
1126.041, 13.39978
1126.523, 1.060791
1127.005, 6.647949
1127.487, 10.28540
1127.969, 13.11243
1128.451, 15.54407
1128.933, 14.65515
1129.415, 8.264160
1129.897, 0.5877690
1130.380, 6.034180
1130.862, 11.82434
1131.344, 17.04199
1131.826, 21.45227
1132.308, 27.62549
1132.790, 32.18616
1133.272, 25.01831
1133.754, 3.299194
1134.236, 11.88428
1134.719, 15.07812
1135.201, 11.83887
1135.683, 3.045898
1136.165, 16.64526
1136.647, 20.52356
1137.129, 21.08777
1137.611, 25.61243
1138.093, 32.73608
1138.576, 36.04065
1139.058, 34.84155
1139.540, 31.55762
1140.022, 24.33032
1140.504, 22.20227
1140.986, 27.55310
1141.468, 38.54285
1141.950, 56.22192
1142.432, 69.20850
1142.915, 55.88013
1143.397, 26.68079
1143.879, 31.34692
1144.361, 61.82727
1144.843, 66.94385
1145.325, 47.36780
1145.807, 38.12683
1146.289, 49.34570
1146.771, 64.74292
1147.254, 73.13306
1147.736, 79.91870
1148.218, 93.85107
1148.700, 107.4500
1149.182, 113.6084
1149.664, 111.3889
1150.146, 91.66089
1150.628, 63.74487
1151.111, 56.14209
1151.593, 76.49951
1152.075, 91.71851
1152.557, 80.11035
1153.039, 71.02417
1153.521, 77.47827
1154.003, 87.39624
1154.485, 98.51758
1154.968, 105.3882
1155.450, 99.06689
1155.932, 82.62598
1156.414, 71.44409
1156.896, 64.30664
1157.378, 67.80078
1157.860, 90.09448
1158.342, 100.7715
1158.824, 90.99170
1159.307, 77.38135
1159.789, 68.25146
1160.271, 63.23413
1160.753, 61.66040
1161.235, 64.50562
1161.717, 80.73657
1162.199, 106.2871
1162.681, 105.9131
1163.163, 82.36377
1163.646, 68.25977
1164.128, 71.05225
1164.610, 78.16187
1165.092, 82.36963
1165.574, 84.11304
1166.056, 80.79321
1166.538, 78.14453
1167.020, 84.53760
1167.503, 95.56909
1167.985, 106.0107
1168.467, 113.4912
1168.949, 111.5959
1169.431, 100.3049
1169.913, 89.73828
1170.395, 81.81372
1170.877, 77.90356
1171.359, 77.89258
1171.842, 82.93359
1172.324, 103.4832
1172.806, 119.5610
1173.288, 112.6943
1173.770, 90.83618
1174.252, 66.06714
1174.734, 37.73242
1175.216, 40.48877
1175.698, 85.55225
1176.181, 109.8281
1176.663, 103.7878
1177.145, 95.36914
1177.627, 93.39355
1178.109, 90.83154
1178.591, 81.26025
1179.073, 71.13989
1179.555, 73.51758
1180.038, 82.47485
1180.520, 86.21143
1181.002, 86.15796
1181.484, 83.80322
1181.966, 79.01562
1182.448, 74.47949
1182.930, 70.99341
1183.412, 64.59351
1183.895, 53.08154
1184.377, 45.89941
1184.859, 45.64209
1185.341, 47.10059
1185.823, 47.18774
1186.305, 46.36621
1186.787, 43.51099
1187.269, 41.23071
1187.751, 46.85278
1188.234, 62.53979
1188.716, 71.64697
1189.198, 72.67139
1189.680, 67.73608
1190.162, 53.91992
1190.644, 40.99316
1191.126, 31.70117
1191.608, 27.80713
1192.090, 31.48291
1192.573, 40.48340
1193.055, 50.60986
1193.537, 61.11353
1194.019, 65.88843
1194.501, 66.23169
1194.983, 68.81323
1195.465, 74.19189
1195.947, 81.76245
1196.430, 90.15625
1196.912, 87.95361
1197.394, 61.49609
1197.876, 36.71509
1198.358, 38.62891
1198.840, 50.74976
1199.322, 64.58057
1199.804, 74.82642
1200.286, 75.58862
1200.769, 68.52075
1201.251, 55.86353
1201.733, 36.82935
1202.215, 31.49121
1202.697, 56.78589
1203.179, 71.32275
1203.661, 68.58105
1204.143, 62.17065
1204.625, 54.48364
1205.108, 50.53809
1205.590, 56.95898
1206.072, 64.32007
1206.554, 49.29980
1207.036, 18.20337
1207.518, 15.08569
1208.000, 34.89722
1208.482, 47.22583
1208.965, 49.82471
1209.447, 50.28955
1209.929, 51.42847
1210.411, 55.36646
1210.893, 64.06470
1211.375, 71.83545
1211.857, 77.25854
1212.339, 75.30640
1212.822, 54.37231
1213.304, 30.83032
1213.786, 21.94629
1214.268, 23.98926
1214.750, 28.88623
1215.232, 35.26807
1215.714, 39.08423
1216.196, 42.13965
1216.678, 36.92554
1217.161, 12.46484
1217.643, 7.380371
1218.125, 39.53979
1218.607, 66.56421
1219.089, 61.91748
1219.571, 41.01147
1220.053, 20.80347
1220.535, 6.873779
1221.017, 16.78491
1221.500, 42.31812
1221.982, 53.02637
1222.464, 51.03711
1222.946, 51.96899
1223.428, 55.79541
1223.910, 44.99023
1224.392, 10.62744
1224.874, 8.969727
1225.357, 29.42163
1225.839, 67.85156
1226.321, 68.87939
1226.803, 58.19897
1227.285, 55.65356
1227.767, 55.96533
1228.249, 53.94385
1228.731, 33.24243
1229.214, 28.61328
1229.696, 26.08960
1230.178, 17.54883
1230.660, 0.2185060
1231.142, 0.2138670
1231.624, 12.09131
1232.106, 0.0000000E+00
##END=



