##NAMES=Armangite
##RRUFFID=R100041
##IDEAL CHEMISTRY=Mn^2+^_26_As^3+^_18_O_50_(CO_3_)(OH)_4_
##LOCALITY=Langban, Filipstad, Varmland, Sweden
##OWNER=RRUFF
##SOURCE=William W. Pinch
##DESCRIPTION=Elongated prismatic transparent brown, associated with green magnussonite R100027, and white nadorite
##STATUS=The identification of this mineral has been confirmed by single-crystal X-ray diffraction.
##URL=rruff.info/R100041
90.49219, 0.0000000E+00
90.97430, 0.8518100
91.45642, 8.0792002E-02
91.93854, 2.202742
92.42065, 5.781114
92.90277, 7.767318
93.38489, 7.826334
93.86700, 7.066313
94.34912, 6.607696
94.83124, 6.392165
95.31335, 6.338428
95.79547, 6.489595
96.27759, 6.777978
96.75970, 6.844344
97.24182, 6.463851
97.72394, 5.995486
98.20605, 6.447311
98.68817, 8.035732
99.17029, 9.701544
99.65240, 10.50162
100.1345, 10.42598
100.6166, 10.69553
101.0988, 11.63964
101.5809, 13.14373
102.0630, 14.12682
102.5451, 14.70188
103.0272, 15.05712
103.5093, 15.04139
103.9915, 14.54136
104.4736, 14.15693
104.9557, 14.14278
105.4378, 14.53189
105.9199, 14.75635
106.4020, 14.65568
106.8842, 14.49526
107.3663, 14.83807
107.8484, 16.62850
108.3305, 19.22864
108.8126, 21.88799
109.2947, 23.87964
109.7769, 25.62492
110.2590, 27.28767
110.7411, 28.78328
111.2232, 29.94521
111.7053, 29.66583
112.1874, 28.81474
112.6696, 27.86466
113.1517, 28.59681
113.6338, 28.56071
114.1159, 26.83365
114.5980, 23.70263
115.0801, 21.22052
115.5623, 20.28636
116.0444, 19.99055
116.5265, 19.62687
117.0086, 19.19560
117.4907, 18.51447
117.9728, 17.37807
118.4550, 15.76822
118.9371, 14.29796
119.4192, 13.52222
119.9013, 12.99071
120.3834, 12.11482
120.8655, 10.26798
121.3477, 8.233181
121.8298, 6.542405
122.3119, 5.247832
122.7940, 4.222141
123.2761, 3.619803
123.7582, 3.239855
124.2404, 2.635444
124.7225, 1.345011
125.2046, 0.2273880
125.6867, 1.613532
126.1688, 2.775112
126.6509, 3.675469
127.1331, 4.217227
127.6152, 4.434488
128.0973, 4.495368
128.5794, 4.450990
129.0615, 4.334542
129.5436, 4.205642
130.0258, 4.020569
130.5079, 3.891819
130.9900, 4.118328
131.4721, 4.705877
131.9542, 5.187065
132.4363, 5.151144
132.9185, 4.639061
133.4006, 3.926805
133.8827, 3.031996
134.3648, 2.014103
134.8469, 1.043604
135.3290, 0.1867010
135.8112, 0.9181580
136.2933, 2.760952
136.7754, 5.395222
137.2575, 8.078533
137.7396, 10.48880
138.2217, 12.58850
138.7039, 15.27398
139.1860, 18.72330
139.6681, 22.49336
140.1502, 26.09343
140.6323, 29.55022
141.1144, 32.60378
141.5966, 35.12382
142.0787, 37.01690
142.5608, 38.68847
143.0429, 40.04593
143.5250, 41.22893
144.0071, 42.51590
144.4893, 43.82941
144.9714, 45.34226
145.4535, 47.10521
145.9356, 49.20518
146.4177, 51.41820
146.8998, 53.57170
147.3820, 55.81770
147.8641, 58.95782
148.3462, 63.61757
148.8283, 68.76460
149.3104, 74.10174
149.7925, 79.89776
150.2747, 85.53025
150.7568, 90.85275
151.2389, 95.88213
151.7210, 100.8085
152.2031, 105.5415
152.6852, 110.1694
153.1674, 114.8070
153.6495, 119.7497
154.1316, 124.3466
154.6137, 128.5573
155.0958, 132.3816
155.5779, 135.6931
156.0601, 137.9893
156.5422, 139.9957
157.0243, 142.2955
157.5064, 145.1027
157.9885, 148.1123
158.4706, 151.3750
158.9528, 154.9505
159.4349, 158.2217
159.9170, 160.2221
160.3991, 162.0748
160.8812, 165.0774
161.3633, 170.9129
161.8455, 176.9302
162.3276, 181.6279
162.8097, 184.3284
163.2918, 188.0571
163.7739, 194.7777
164.2560, 202.8529
164.7382, 208.3916
165.2203, 210.8156
165.7024, 213.3503
166.1845, 217.8214
166.6666, 224.9920
167.1487, 232.3002
167.6309, 238.6886
168.1130, 244.3092
168.5951, 249.3384
169.0772, 253.4400
169.5593, 257.3012
170.0414, 261.6310
170.5236, 266.9117
171.0057, 271.9024
171.4878, 275.6831
171.9699, 278.4889
172.4520, 280.9381
172.9341, 282.9725
173.4163, 285.0432
173.8984, 287.7840
174.3805, 291.7512
174.8626, 295.7308
175.3447, 298.4098
175.8268, 300.0501
176.3090, 301.9018
176.7911, 305.1625
177.2732, 309.1088
177.7553, 312.5637
178.2374, 315.2810
178.7195, 317.3190
179.2017, 318.6571
179.6838, 319.3488
180.1659, 319.6855
180.6480, 319.8649
181.1301, 319.8848
181.6122, 319.7775
182.0944, 319.7297
182.5765, 319.3806
183.0586, 318.0303
183.5407, 315.6983
184.0228, 312.9605
184.5049, 310.6490
184.9871, 308.4801
185.4692, 305.3944
185.9513, 300.8623
186.4334, 295.2905
186.9155, 289.4538
187.3976, 283.3745
187.8798, 277.0434
188.3619, 270.5539
188.8440, 263.7998
189.3261, 256.5255
189.8082, 248.2415
190.2903, 239.3819
190.7725, 231.3595
191.2546, 224.1468
191.7367, 217.5156
192.2188, 211.1625
192.7009, 205.0305
193.1830, 199.0943
193.6652, 193.3421
194.1473, 187.7092
194.6294, 182.2011
195.1115, 176.8829
195.5936, 171.4736
196.0757, 165.2724
196.5579, 158.2251
197.0400, 151.9155
197.5221, 147.4145
198.0042, 144.5685
198.4863, 140.5362
198.9684, 135.0112
199.4506, 129.0123
199.9327, 124.1289
200.4148, 120.4193
200.8969, 117.0502
201.3790, 113.6998
201.8611, 110.3767
202.3433, 107.1150
202.8254, 103.8950
203.3075, 100.7468
203.7896, 97.78120
204.2717, 95.00706
204.7538, 92.28156
205.2360, 89.37573
205.7181, 86.17758
206.2002, 83.91789
206.6823, 82.90295
207.1644, 82.45366
207.6465, 81.20964
208.1287, 78.92274
208.6108, 76.74806
209.0929, 75.26308
209.5750, 74.61984
210.0571, 73.84682
210.5392, 72.90709
211.0214, 71.87407
211.5035, 70.90790
211.9856, 70.05760
212.4677, 69.16681
212.9498, 68.01674
213.4319, 66.36139
213.9140, 65.64565
214.3962, 66.38792
214.8783, 67.74835
215.3604, 67.67863
215.8425, 65.71611
216.3246, 63.37198
216.8067, 61.23715
217.2889, 59.29453
217.7710, 57.67653
218.2531, 56.47206
218.7352, 55.54355
219.2173, 54.54372
219.6994, 53.41734
220.1816, 52.31459
220.6637, 51.33701
221.1458, 50.62735
221.6279, 49.58380
222.1100, 47.96338
222.5921, 46.09920
223.0743, 44.86296
223.5564, 44.50529
224.0385, 44.35701
224.5206, 44.16687
225.0027, 44.04832
225.4848, 43.55923
225.9670, 42.42712
226.4491, 41.01353
226.9312, 40.34671
227.4133, 40.93991
227.8954, 41.45082
228.3775, 41.15286
228.8597, 39.48589
229.3418, 38.40385
229.8239, 38.16510
230.3060, 38.44917
230.7881, 38.33887
231.2702, 37.52855
231.7524, 36.77483
232.2345, 36.45221
232.7166, 36.77037
233.1987, 37.01968
233.6808, 37.18829
234.1629, 37.28662
234.6451, 37.35625
235.1272, 37.43991
235.6093, 37.43776
236.0914, 37.22377
236.5735, 36.39636
237.0556, 36.38077
237.5378, 37.70030
238.0199, 39.71216
238.5020, 40.62625
238.9841, 39.50168
239.4662, 38.66408
239.9483, 39.19717
240.4305, 41.86694
240.9126, 44.00702
241.3947, 45.43230
241.8768, 46.43753
242.3589, 47.75720
242.8410, 49.77444
243.3232, 51.51456
243.8053, 52.38060
244.2874, 51.55467
244.7695, 51.83301
245.2516, 53.70714
245.7337, 56.49176
246.2159, 58.66914
246.6980, 60.06490
247.1801, 61.19771
247.6622, 62.19930
248.1443, 62.91991
248.6264, 63.88660
249.1086, 65.28703
249.5907, 66.83937
250.0728, 67.96216
250.5549, 68.52121
251.0370, 68.92500
251.5191, 69.31595
252.0013, 69.69302
252.4834, 70.03607
252.9655, 70.37984
253.4476, 70.66609
253.9297, 70.75397
254.4118, 70.62485
254.8940, 70.32539
255.3761, 69.88350
255.8582, 69.32172
256.3403, 68.50557
256.8224, 67.41028
257.3046, 66.08337
257.7867, 64.57664
258.2688, 62.71722
258.7509, 61.02629
259.2330, 59.72066
259.7151, 58.85699
260.1973, 58.09666
260.6794, 57.75519
261.1615, 57.23538
261.6436, 55.49097
262.1257, 51.86357
262.6078, 48.57907
263.0900, 46.36407
263.5721, 45.28255
264.0542, 44.43961
264.5363, 43.82925
265.0184, 43.44652
265.5005, 43.37946
265.9827, 43.86766
266.4648, 43.97107
266.9469, 43.42226
267.4290, 42.22049
267.9111, 40.54744
268.3932, 38.16374
268.8754, 35.69730
269.3575, 33.88025
269.8396, 32.80780
270.3217, 31.97720
270.8038, 31.29529
271.2859, 30.75406
271.7681, 30.37607
272.2502, 30.26381
272.7323, 30.10664
273.2144, 29.54826
273.6965, 28.50572
274.1786, 27.53020
274.6608, 26.84979
275.1429, 26.36044
275.6250, 25.15356
276.1071, 23.02141
276.5892, 20.77513
277.0714, 19.22603
277.5535, 18.42757
278.0356, 17.76404
278.5177, 17.20079
278.9998, 16.66879
279.4819, 15.84183
279.9641, 14.65747
280.4462, 13.40392
280.9283, 12.32018
281.4104, 11.42607
281.8925, 10.44916
282.3746, 9.308304
282.8568, 8.089478
283.3389, 7.037369
283.8210, 6.160431
284.3031, 5.372330
284.7852, 4.458130
285.2673, 3.461731
285.7495, 3.203964
286.2316, 4.106018
286.7137, 5.326447
287.1958, 4.774338
287.6779, 2.384750
288.1600, 0.1746670
288.6422, 0.4125980
289.1243, 0.3972930
289.6064, 1.043884
290.0885, 1.411224
290.5706, 1.556076
291.0527, 1.518753
291.5349, 1.309296
292.0170, 1.052658
292.4991, 0.8772430
292.9812, 0.7221980
293.4633, 0.3792880
293.9454, 0.1701510
294.4276, 0.8805240
294.9097, 1.812042
295.3918, 2.905594
295.8739, 3.815186
296.3560, 4.409744
296.8381, 4.682220
297.3203, 4.416794
297.8024, 3.527664
298.2845, 2.668900
298.7666, 2.591599
299.2487, 3.125916
299.7308, 3.742172
300.2130, 4.407639
300.6951, 4.943787
301.1772, 5.036270
301.6593, 4.694092
302.1414, 4.241226
302.6235, 3.785690
303.1057, 3.404968
303.5878, 3.256592
304.0699, 3.699188
304.5520, 4.208862
305.0341, 4.192963
305.5162, 3.682007
305.9984, 2.932495
306.4805, 1.933670
306.9626, 0.8972020
307.4447, 0.1750180
307.9268, 6.3614003E-02
308.4089, 0.1369630
308.8911, 0.1377560
309.3732, 0.1554110
309.8553, 0.5686040
310.3374, 2.037567
310.8195, 3.780289
311.3016, 4.908844
311.7838, 4.949081
312.2659, 5.015396
312.7480, 6.031113
313.2301, 7.648376
313.7122, 9.015076
314.1943, 9.314743
314.6765, 9.523895
315.1586, 10.46481
315.6407, 12.54727
316.1228, 14.44104
316.6049, 15.11978
317.0870, 15.22618
317.5692, 15.80417
318.0513, 17.70258
318.5334, 19.82268
319.0155, 21.72549
319.4976, 23.39717
319.9797, 24.68364
320.4619, 25.16727
320.9440, 25.36325
321.4261, 25.85353
321.9082, 27.17644
322.3903, 28.45065
322.8724, 29.39453
323.3546, 29.98409
323.8367, 30.51224
324.3188, 30.98842
324.8009, 31.46387
325.2830, 31.97659
325.7651, 32.38655
326.2473, 33.00233
326.7294, 34.16611
327.2115, 35.74434
327.6936, 36.67319
328.1757, 36.11308
328.6578, 35.45554
329.1400, 35.38857
329.6221, 36.36824
330.1042, 37.33434
330.5863, 38.49161
331.0684, 39.63647
331.5505, 40.12036
332.0327, 39.25479
332.5148, 38.53702
332.9969, 38.64520
333.4790, 40.09357
333.9611, 40.94434
334.4432, 41.04552
334.9254, 40.63171
335.4075, 40.06178
335.8896, 39.20075
336.3717, 38.45074
336.8538, 38.02286
337.3359, 37.97235
337.8180, 37.55058
338.3001, 36.62575
338.7823, 35.53754
339.2644, 34.68613
339.7465, 34.10278
340.2286, 33.61538
340.7107, 33.30414
341.1928, 33.07578
341.6750, 32.26513
342.1571, 30.73035
342.6392, 29.08524
343.1213, 27.91563
343.6034, 27.24406
344.0855, 26.21339
344.5677, 24.57958
345.0498, 22.62486
345.5319, 21.05466
346.0140, 19.87350
346.4961, 18.92159
346.9782, 18.27130
347.4604, 17.81499
347.9425, 17.02945
348.4246, 15.77524
348.9067, 14.43105
349.3888, 13.70766
349.8709, 13.46507
350.3531, 12.91916
350.8352, 11.19731
351.3173, 9.015991
351.7994, 7.855789
352.2815, 7.825645
352.7636, 8.067757
353.2458, 8.049805
353.7279, 7.685013
354.2100, 6.771774
354.6921, 4.441277
355.1742, 2.100449
355.6563, 1.566788
356.1385, 2.676414
356.6206, 3.665451
357.1027, 3.009697
357.5848, 1.656830
358.0669, 0.7328640
358.5490, 0.7678450
359.0312, 0.9821400
359.5133, 1.052971
359.9954, 0.9444660
360.4775, 0.5391620
360.9596, 0.6803670
361.4417, 1.929893
361.9239, 2.635574
362.4060, 2.504181
362.8881, 2.420403
363.3702, 2.957695
363.8523, 3.677666
364.3344, 3.915131
364.8166, 2.871063
365.2987, 1.866501
365.7808, 1.484955
366.2629, 1.827850
366.7450, 2.151482
367.2271, 2.470940
367.7093, 2.641945
368.1914, 2.541481
368.6735, 1.877777
369.1556, 1.287666
369.6377, 0.9243550
370.1198, 0.7486340
370.6020, 0.4387210
371.0841, 0.1355440
371.5662, 0.7253800
372.0483, 1.224167
372.5304, 1.834541
373.0125, 1.934090
373.4947, 1.160545
373.9768, 7.4310000E-03
374.4589, 0.4011760
374.9410, 0.2995300
375.4231, 1.117241
375.9052, 1.659637
376.3874, 1.868202
376.8695, 2.285728
377.3516, 2.943108
377.8337, 3.766434
378.3158, 4.821480
378.7979, 6.199532
379.2801, 7.092484
379.7622, 7.014206
380.2443, 6.309792
380.7264, 6.722305
381.2085, 8.392776
381.6906, 10.17009
382.1728, 11.01184
382.6549, 11.05897
383.1370, 11.15655
383.6191, 11.46089
384.1012, 11.85781
384.5833, 12.18971
385.0655, 12.45639
385.5476, 12.65936
386.0297, 12.50422
386.5118, 12.35880
386.9939, 13.12557
387.4760, 15.01536
387.9582, 16.81837
388.4403, 17.11201
388.9224, 16.49438
389.4045, 16.20911
389.8866, 17.24458
390.3687, 18.50432
390.8509, 18.92731
391.3330, 18.58178
391.8151, 18.32555
392.2972, 18.80699
392.7793, 19.55666
393.2614, 20.14552
393.7436, 20.56120
394.2257, 20.64601
394.7078, 19.94217
395.1899, 18.81447
395.6720, 18.22133
396.1541, 18.97007
396.6363, 19.92258
397.1184, 20.51926
397.6005, 20.56045
398.0826, 20.69585
398.5647, 21.31219
399.0468, 21.97693
399.5290, 22.16562
400.0111, 21.50016
400.4932, 20.71657
400.9753, 19.70876
401.4574, 18.47923
401.9395, 18.11481
402.4217, 19.37110
402.9038, 20.69122
403.3859, 20.97057
403.8680, 19.65990
404.3501, 18.59172
404.8322, 17.86883
405.3144, 17.47603
405.7965, 17.47333
406.2786, 17.99554
406.7607, 18.46078
407.2428, 18.59927
407.7249, 18.40240
408.2071, 18.09572
408.6892, 17.61630
409.1713, 17.20488
409.6534, 17.25505
410.1355, 17.73978
410.6176, 18.14395
411.0998, 18.38103
411.5819, 18.40051
412.0640, 17.99284
412.5461, 17.12718
413.0282, 16.07937
413.5103, 14.79530
413.9925, 13.67915
414.4746, 13.62832
414.9567, 15.08520
415.4388, 16.49560
415.9209, 15.86077
416.4030, 13.96899
416.8852, 12.65456
417.3673, 13.42928
417.8494, 14.75931
418.3315, 15.44818
418.8136, 15.36244
419.2957, 14.82613
419.7779, 13.48833
420.2600, 12.11432
420.7421, 11.42773
421.2242, 12.27917
421.7063, 13.08087
422.1884, 13.42704
422.6706, 13.44318
423.1527, 13.33735
423.6348, 12.88004
424.1169, 12.41429
424.5990, 12.11996
425.0811, 12.06277
425.5633, 12.07372
426.0454, 12.24522
426.5275, 12.49670
427.0096, 12.66400
427.4917, 12.47689
427.9738, 12.57864
428.4560, 13.24451
428.9381, 14.45946
429.4202, 15.28700
429.9023, 15.60159
430.3844, 15.70970
430.8665, 15.67467
431.3487, 15.35779
431.8308, 15.57045
432.3129, 16.61977
432.7950, 18.07089
433.2771, 18.76201
433.7592, 18.63176
434.2414, 18.55142
434.7235, 19.05769
435.2056, 19.97173
435.6877, 20.53461
436.1698, 20.72818
436.6519, 20.77512
437.1341, 20.87177
437.6162, 20.97693
438.0983, 21.00526
438.5804, 20.94513
439.0625, 20.81216
439.5446, 20.48610
440.0268, 20.05701
440.5089, 19.85139
440.9910, 20.27866
441.4731, 20.88734
441.9552, 21.26077
442.4373, 21.30449
442.9195, 21.35341
443.4016, 21.72250
443.8837, 22.14615
444.3658, 22.30110
444.8479, 21.89697
445.3300, 21.40689
445.8122, 20.98151
446.2943, 20.61142
446.7764, 20.16237
447.2585, 19.51981
447.7406, 18.86568
448.2227, 18.28879
448.7049, 17.82750
449.1870, 17.38443
449.6691, 17.02820
450.1512, 16.65712
450.6333, 16.07863
451.1154, 15.11130
451.5976, 14.32556
452.0797, 13.93977
452.5618, 13.91577
453.0439, 13.72476
453.5260, 13.36018
454.0081, 12.85657
454.4903, 12.06908
454.9724, 11.01363
455.4545, 10.54123
455.9366, 10.88422
456.4187, 11.58734
456.9008, 11.96782
457.3830, 12.03656
457.8651, 11.84334
458.3472, 11.22552
458.8293, 10.42352
459.3114, 9.805038
459.7935, 9.380157
460.2757, 9.206223
460.7578, 9.365860
461.2399, 9.798325
461.7220, 10.48323
462.2041, 11.72543
462.6862, 12.69827
463.1684, 12.51329
463.6505, 11.64079
464.1326, 11.17258
464.6147, 11.81465
465.0968, 12.74901
465.5789, 13.51421
466.0611, 14.01845
466.5432, 14.79561
467.0253, 16.39494
467.5074, 18.06462
467.9895, 19.16759
468.4716, 19.17934
468.9538, 19.25221
469.4359, 19.28566
469.9180, 19.42790
470.4001, 20.27077
470.8822, 22.33032
471.3643, 24.16988
471.8465, 25.06546
472.3286, 24.87286
472.8107, 25.32623
473.2928, 26.62512
473.7749, 28.07695
474.2570, 28.86470
474.7392, 28.99237
475.2213, 28.99408
475.7034, 28.89085
476.1855, 28.84961
476.6676, 29.40147
477.1497, 30.46230
477.6319, 31.26231
478.1140, 30.96422
478.5961, 30.22980
479.0782, 30.20525
479.5603, 30.99335
480.0424, 32.06253
480.5246, 33.38867
481.0067, 34.61269
481.4888, 35.21010
481.9709, 34.46350
482.4530, 33.69276
482.9352, 33.49158
483.4173, 33.79951
483.8994, 34.42572
484.3815, 35.77347
484.8636, 37.04320
485.3457, 37.75960
485.8279, 37.67247
486.3100, 37.87918
486.7921, 38.44608
487.2742, 39.36256
487.7563, 40.67769
488.2384, 42.80830
488.7206, 44.62672
489.2027, 45.94046
489.6848, 46.86551
490.1669, 47.77394
490.6490, 48.63998
491.1311, 49.52614
491.6133, 50.44775
492.0954, 51.40897
492.5775, 52.37836
493.0596, 53.31506
493.5417, 54.43050
494.0238, 56.09425
494.5060, 58.17870
494.9881, 60.05200
495.4702, 61.43692
495.9523, 62.71295
496.4344, 64.54590
496.9165, 66.75549
497.3987, 68.67120
497.8808, 69.68198
498.3629, 70.38370
498.8450, 71.40457
499.3271, 72.82178
499.8092, 74.10001
500.2914, 74.68016
500.7735, 75.09908
501.2556, 75.90279
501.7377, 77.96979
502.2198, 79.53708
502.7019, 80.13130
503.1841, 79.94333
503.6662, 79.51489
504.1483, 78.97211
504.6304, 78.07822
505.1125, 76.64626
505.5946, 74.61089
506.0768, 73.02162
506.5589, 72.24626
507.0410, 71.39534
507.5231, 69.58571
508.0052, 66.61293
508.4873, 64.13286
508.9695, 62.53407
509.4516, 61.26379
509.9337, 59.17664
510.4158, 56.31122
510.8979, 53.59715
511.3800, 51.69562
511.8622, 50.14066
512.3443, 47.67253
512.8264, 44.35300
513.3085, 41.04469
513.7906, 38.32135
514.2728, 36.05048
514.7549, 34.16182
515.2370, 32.81621
515.7191, 31.29465
516.2012, 28.77470
516.6833, 25.85594
517.1655, 23.43056
517.6476, 22.36426
518.1297, 21.28568
518.6118, 19.64526
519.0939, 17.48753
519.5760, 15.46698
520.0582, 13.52921
520.5403, 11.86993
521.0224, 10.71291
521.5045, 10.46553
521.9866, 9.487045
522.4688, 7.240204
522.9509, 4.811188
523.4330, 3.640900
523.9151, 3.974838
524.3972, 4.240280
524.8793, 4.136749
525.3615, 3.726883
525.8436, 3.075302
526.3257, 2.178696
526.8078, 1.320740
527.2899, 0.7150570
527.7720, 0.2723240
528.2542, 0.2635650
528.7363, 0.8465120
529.2184, 1.227295
529.7005, 1.142136
530.1826, 0.8383480
530.6647, 0.6297150
531.1469, 0.6817470
531.6290, 0.7340850
532.1111, 0.5795140
532.5932, 0.3347170
533.0753, 0.2225950
533.5574, 0.5805050
534.0396, 0.7514500
534.5217, 0.3587650
535.0038, 0.6434170
535.4859, 1.139862
535.9680, 0.5250400
536.4501, 4.5685001E-02
536.9323, 0.1559750
537.4144, 1.551682
537.8965, 2.573380
538.3786, 3.211624
538.8607, 3.469788
539.3428, 3.065872
539.8250, 1.901993
540.3071, 1.561691
540.7892, 2.776657
541.2713, 4.870850
541.7534, 6.346893
542.2355, 7.181549
542.7177, 7.369019
543.1998, 6.338234
543.6819, 4.931908
544.1640, 4.616753
544.6461, 5.537300
545.1282, 6.431259
545.6104, 6.449150
546.0925, 5.929329
546.5746, 5.205498
547.0567, 3.834106
547.5388, 3.026703
548.0209, 3.752365
548.5031, 5.317039
548.9852, 6.202858
549.4673, 5.731659
549.9494, 5.025383
550.4315, 4.211189
550.9136, 3.291542
551.3958, 2.920921
551.8779, 3.413162
552.3600, 3.924713
552.8421, 3.811264
553.3242, 2.960197
553.8063, 2.610535
554.2885, 2.909065
554.7706, 3.449783
555.2527, 3.804504
555.7348, 3.957916
556.2169, 3.748207
556.6990, 2.863075
557.1812, 1.937340
557.6633, 2.121513
558.1454, 3.125801
558.6275, 3.862251
559.1096, 3.478195
559.5917, 2.723900
560.0739, 2.139488
560.5560, 1.761719
561.0381, 1.568428
561.5202, 1.778183
562.0023, 2.031609
562.4844, 2.057297
562.9666, 1.638535
563.4487, 1.253662
563.9308, 0.8835450
564.4129, 0.5798110
564.8950, 0.4412310
565.3771, 0.5538710
565.8593, 0.6178050
566.3414, 0.4740750
566.8235, 0.2399140
567.3056, 0.6123580
567.7877, 1.703621
568.2698, 2.558037
568.7520, 2.413345
569.2341, 1.544197
569.7162, 1.031219
570.1983, 0.9294200
570.6804, 0.8862300
571.1625, 0.5261230
571.6447, 1.9889999E-02
572.1268, 0.3700560
572.6089, 0.6082990
573.0910, 0.6616130
573.5731, 0.3300170
574.0552, 0.1716840
574.5374, 0.4770430
575.0195, 0.2620770
575.5016, 3.8063001E-02
575.9837, 0.1069260
576.4658, 0.1498340
576.9479, 0.1237180
577.4301, 1.212593
577.9122, 2.021866
578.3943, 1.958496
578.8764, 0.7728270
579.3585, 0.1469120
579.8406, 0.2067110
580.3228, 0.5438840
580.8049, 0.7619930
581.2870, 0.8662260
581.7691, 0.9562530
582.2512, 0.9897770
582.7333, 1.147766
583.2155, 2.013046
583.6975, 3.275360
584.1796, 4.007248
584.6617, 3.597412
585.1439, 2.579788
585.6260, 1.092133
586.1081, 0.7105410
586.5902, 2.048904
587.0723, 2.378784
587.5544, 2.273071
588.0366, 2.020477
588.5187, 1.630814
589.0008, 1.191559
589.4829, 0.4573360
589.9650, 0.1537930
590.4471, 0.2870640
590.9293, 0.3501130
591.4114, 0.7922360
591.8935, 0.9546510
592.3756, 0.9137880
592.8577, 0.7864380
593.3398, 0.5726470
593.8220, 0.3483580
594.3041, 0.1139070
594.7862, 9.6527003E-02
595.2683, 0.2292330
595.7504, 0.2735140
596.2325, 0.1757350
596.7147, 0.1473540
597.1968, 0.6053920
597.6789, 1.269928
598.1610, 2.154755
598.6431, 2.553421
599.1252, 1.487442
599.6074, 0.1075290
600.0895, 0.6214900
600.5716, 9.1843002E-02
601.0537, 0.3061520
601.5358, 0.3368530
602.0179, 0.1736600
602.5001, 1.4374000E-02
602.9822, 7.6003999E-02
603.4643, 0.3598180
603.9464, 0.9261630
604.4285, 1.651672
604.9106, 2.244888
605.3928, 2.707611
605.8749, 3.192352
606.3570, 3.779999
606.8391, 4.363449
607.3212, 4.758728
607.8033, 4.986343
608.2855, 5.225998
608.7676, 5.468369
609.2497, 5.860657
609.7318, 6.724930
610.2139, 8.276840
610.6960, 9.499481
611.1782, 9.672775
611.6603, 9.298920
612.1424, 8.918121
612.6245, 8.325760
613.1066, 8.124924
613.5887, 8.619324
614.0709, 9.506088
614.5530, 10.20735
615.0351, 10.59572
615.5172, 11.03169
615.9993, 11.63147
616.4814, 12.36394
616.9636, 13.06088
617.4457, 13.70099
617.9278, 14.45581
618.4099, 15.55727
618.8920, 16.83525
619.3741, 17.83308
619.8563, 18.54401
620.3384, 19.16629
620.8205, 19.95482
621.3026, 20.70766
621.7847, 21.06726
622.2668, 20.67758
622.7490, 20.70303
623.2311, 22.33789
623.7132, 24.45039
624.1953, 25.59863
624.6774, 24.19095
625.1595, 23.49179
625.6417, 24.09906
626.1238, 25.63464
626.6059, 27.15076
627.0880, 28.87579
627.5701, 30.09517
628.0522, 30.27066
628.5344, 29.62425
629.0165, 29.55055
629.4986, 30.14427
629.9807, 31.11852
630.4628, 32.49571
630.9449, 33.89430
631.4271, 34.79231
631.9092, 35.17670
632.3913, 35.40323
632.8734, 35.80615
633.3555, 36.22392
633.8376, 36.35751
634.3198, 35.85757
634.8019, 35.40924
635.2840, 35.41573
635.7661, 35.52679
636.2482, 35.26138
636.7303, 34.51828
637.2125, 33.60789
637.6946, 32.42787
638.1767, 31.11205
638.6588, 30.11327
639.1409, 29.50163
639.6230, 28.93291
640.1052, 28.33087
640.5873, 27.64452
641.0694, 26.54459
641.5515, 25.09311
642.0336, 23.96175
642.5157, 23.94987
642.9979, 24.30252
643.4800, 24.06097
643.9621, 23.05920
644.4442, 22.10001
644.9263, 21.91634
645.4084, 21.86441
645.8906, 21.37263
646.3727, 19.87851
646.8548, 18.84071
647.3369, 18.49651
647.8190, 18.53604
648.3011, 18.64420
648.7833, 18.91534
649.2654, 18.71106
649.7475, 17.83704
650.2296, 16.60410
650.7117, 15.67099
651.1938, 15.00833
651.6760, 14.21492
652.1581, 12.90211
652.6402, 11.54079
653.1223, 11.12012
653.6044, 11.36842
654.0865, 11.15326
654.5687, 9.000412
655.0508, 6.810303
655.5329, 6.058502
656.0150, 6.891678
656.4971, 7.250000
656.9792, 6.451218
657.4614, 5.404785
657.9435, 4.475647
658.4256, 3.464188
658.9077, 3.027557
659.3898, 3.473953
659.8719, 4.024521
660.3541, 3.676712
660.8362, 2.465607
661.3183, 1.872742
661.8004, 2.261856
662.2825, 2.888870
662.7646, 2.497757
663.2468, 1.552063
663.7289, 1.241776
664.2110, 2.513840
664.6931, 3.909210
665.1752, 4.275558
665.6573, 3.979614
666.1395, 3.915009
666.6216, 4.348770
667.1037, 5.054047
667.5858, 6.183624
668.0679, 7.627533
668.5500, 8.555573
669.0322, 8.817093
669.5143, 8.880539
669.9964, 8.944931
670.4785, 9.002502
670.9606, 8.893463
671.4427, 8.594284
671.9249, 8.355957
672.4070, 8.442749
672.8891, 8.729034
673.3712, 8.994141
673.8533, 9.235168
674.3354, 9.266937
674.8176, 8.883163
675.2997, 8.263962
675.7818, 7.561737
676.2639, 6.595062
676.7460, 5.955063
677.2281, 6.075500
677.7103, 6.470901
678.1924, 6.587677
678.6745, 6.515793
679.1566, 5.907608
679.6387, 4.497574
680.1208, 2.728088
680.6030, 1.568848
681.0851, 1.026810
681.5672, 0.5840300
682.0493, 7.1425997E-02
682.5314, 0.4679720
683.0135, 0.8147430
683.4957, 1.080688
683.9778, 1.703613
684.4599, 3.608063
684.9420, 5.397644
685.4241, 5.825150
685.9063, 4.985916
686.3884, 4.679596
686.8705, 6.375717
687.3526, 7.779221
687.8347, 7.683228
688.3168, 5.752701
688.7990, 4.630875
689.2811, 4.345016
689.7632, 4.734131
690.2453, 6.154846
690.7274, 8.446915
691.2095, 9.272888
691.6917, 8.377350
692.1738, 6.822433
692.6559, 5.317200
693.1380, 4.054016
693.6201, 3.518021
694.1022, 4.169540
694.5844, 4.586060
695.0665, 3.918091
695.5486, 2.554504
696.0307, 0.9851680
696.5128, 0.8447720
696.9949, 2.658463
697.4771, 4.521622
697.9592, 6.316803
698.4413, 7.723602
698.9234, 8.646515
699.4055, 9.511475
699.8876, 10.24179
700.3698, 11.16978
700.8519, 13.37199
701.3340, 16.67661
701.8161, 19.86522
702.2982, 22.11728
702.7803, 24.05766
703.2625, 26.33482
703.7446, 28.92062
704.2267, 31.55937
704.7088, 34.78214
705.1909, 37.51172
705.6730, 38.72223
706.1552, 38.18677
706.6373, 39.15436
707.1194, 42.71201
707.6015, 46.26846
708.0836, 48.15813
708.5657, 48.23921
709.0479, 49.50363
709.5300, 52.12997
710.0121, 54.80083
710.4942, 56.20966
710.9763, 56.75340
711.4584, 57.49670
711.9406, 58.63269
712.4227, 59.40826
712.9048, 59.03773
713.3869, 58.14285
713.8690, 57.35373
714.3511, 56.77795
714.8333, 56.39334
715.3154, 56.39127
715.7975, 56.48758
716.2796, 56.47079
716.7617, 56.61116
717.2438, 55.82001
717.7260, 53.69641
718.2081, 51.01358
718.6902, 49.20468
719.1723, 48.16194
719.6544, 47.08058
720.1365, 45.63223
720.6187, 44.11781
721.1008, 42.91971
721.5829, 41.94818
722.0650, 40.97864
722.5471, 39.64444
723.0292, 38.47008
723.5114, 37.70883
723.9935, 37.31512
724.4756, 37.11229
724.9577, 37.38431
725.4398, 37.35054
725.9219, 36.62784
726.4041, 35.39880
726.8862, 34.66959
727.3683, 34.43959
727.8504, 34.69962
728.3325, 35.94867
728.8146, 37.53822
729.2968, 37.81410
729.7789, 36.92342
730.2610, 36.23071
730.7431, 36.68510
731.2252, 37.59801
731.7073, 38.59088
732.1895, 39.65042
732.6716, 40.42548
733.1537, 40.75751
733.6358, 40.85590
734.1179, 40.67412
734.6000, 40.02412
735.0822, 40.25674
735.5643, 41.50052
736.0464, 43.17059
736.5285, 45.06705
737.0106, 46.98697
737.4927, 47.99440
737.9749, 47.91866
738.4570, 47.74510
738.9391, 48.25900
739.4212, 49.18788
739.9033, 50.31477
740.3854, 51.88623
740.8676, 52.94081
741.3497, 52.25500
741.8318, 51.46002
742.3139, 52.31342
742.7960, 55.94424
743.2781, 58.29790
743.7603, 58.74277
744.2424, 58.57916
744.7245, 59.74823
745.2066, 62.07320
745.6887, 64.16406
746.1708, 65.72699
746.6530, 67.08342
747.1351, 68.32010
747.6172, 69.63062
748.0993, 71.36606
748.5814, 74.53659
749.0635, 77.13272
749.5457, 77.94760
750.0278, 77.92529
750.5099, 78.99298
750.9920, 81.72266
751.4741, 84.49179
751.9562, 86.93689
752.4384, 89.22681
752.9205, 91.76608
753.4026, 94.58203
753.8847, 97.34171
754.3668, 99.46777
754.8489, 101.8767
755.3311, 106.2838
755.8132, 112.1685
756.2953, 117.8728
756.7774, 121.8448
757.2595, 126.2742
757.7416, 132.7059
758.2238, 140.6630
758.7059, 147.9183
759.1880, 153.6153
759.6701, 159.6565
760.1522, 166.5166
760.6343, 174.1782
761.1165, 183.0471
761.5986, 193.1221
762.0807, 203.7073
762.5628, 214.5383
763.0449, 225.5771
763.5270, 236.5852
764.0092, 247.6203
764.4913, 259.3355
764.9734, 271.8406
765.4555, 285.2666
765.9376, 299.5753
766.4197, 314.9316
766.9019, 330.9272
767.3840, 347.5749
767.8661, 364.7252
768.3482, 382.1200
768.8303, 399.9358
769.3124, 419.0507
769.7946, 439.3319
770.2767, 460.6440
770.7588, 482.8629
771.2409, 506.0072
771.7230, 530.3803
772.2051, 555.9305
772.6873, 581.5930
773.1694, 606.2280
773.6515, 631.1199
774.1336, 657.5792
774.6157, 686.0303
775.0978, 713.9937
775.5800, 741.0956
776.0621, 768.0350
776.5442, 795.3320
777.0263, 823.1339
777.5084, 850.2096
777.9905, 876.6950
778.4727, 902.2662
778.9548, 925.4041
779.4369, 947.8566
779.9190, 973.3810
780.4011, 1002.288
780.8832, 1030.664
781.3654, 1054.672
781.8475, 1078.041
782.3296, 1103.959
782.8117, 1134.186
783.2938, 1161.596
783.7759, 1185.273
784.2581, 1207.516
784.7402, 1230.119
785.2223, 1253.014
785.7044, 1274.415
786.1865, 1294.243
786.6686, 1311.055
787.1508, 1323.260
787.6329, 1331.479
788.1150, 1337.542
788.5971, 1342.231
789.0792, 1340.971
789.5613, 1330.678
790.0435, 1314.135
790.5256, 1293.189
791.0077, 1268.399
791.4898, 1238.788
791.9719, 1203.967
792.4540, 1165.182
792.9362, 1124.001
793.4183, 1080.104
793.9004, 1035.656
794.3825, 990.4413
794.8646, 944.8564
795.3467, 898.1403
795.8289, 850.8857
796.3110, 804.2712
796.7931, 757.6005
797.2752, 712.3684
797.7573, 667.4349
798.2394, 624.7999
798.7216, 585.9203
799.2037, 550.9603
799.6858, 518.6382
800.1679, 489.3947
800.6500, 461.7819
801.1321, 433.2034
801.6143, 404.2915
802.0964, 377.6958
802.5785, 353.8464
803.0606, 331.7007
803.5427, 310.8047
804.0248, 291.3106
804.5070, 273.1167
804.9891, 256.1933
805.4712, 240.6738
805.9533, 227.1284
806.4354, 214.4441
806.9175, 201.7255
807.3997, 188.6674
807.8818, 176.9484
808.3639, 166.8482
808.8460, 157.6045
809.3281, 148.5669
809.8102, 139.8036
810.2924, 131.4282
810.7745, 123.4286
811.2566, 116.0026
811.7387, 109.3575
812.2208, 103.3904
812.7029, 98.08476
813.1851, 93.64032
813.6672, 89.52632
814.1493, 85.97742
814.6314, 82.32755
815.1135, 77.81668
815.5956, 72.35312
816.0778, 68.48132
816.5599, 66.41975
817.0420, 64.70732
817.5241, 61.85588
818.0062, 58.54942
818.4883, 55.69809
818.9705, 53.39775
819.4526, 51.62482
819.9347, 50.87967
820.4168, 50.33911
820.8989, 49.34233
821.3810, 47.69136
821.8632, 46.32428
822.3453, 45.30159
822.8274, 44.43945
823.3095, 43.59236
823.7916, 42.79358
824.2737, 42.46591
824.7559, 42.62698
825.2380, 42.49786
825.7201, 40.98727
826.2022, 39.16100
826.6843, 38.21997
827.1664, 38.42464
827.6486, 38.41815
828.1307, 37.57002
828.6128, 36.72340
829.0949, 36.29298
829.5770, 36.31921
830.0591, 36.25362
830.5413, 36.09573
831.0234, 35.89810
831.5055, 35.80452
831.9876, 35.64171
832.4697, 35.02901
832.9518, 33.98936
833.4340, 32.81822
833.9161, 31.86818
834.3982, 30.70618
834.8803, 28.87077
835.3624, 26.27222
835.8445, 24.29283
836.3267, 23.13391
836.8088, 22.22939
837.2909, 21.53049
837.7730, 20.89949
838.2551, 19.32100
838.7372, 16.85083
839.2194, 14.38884
839.7015, 12.51947
840.1836, 10.94363
840.6657, 9.335205
841.1478, 7.715744
841.6299, 6.391220
842.1121, 5.891052
842.5942, 5.203171
843.0763, 3.785614
843.5584, 1.868759
844.0405, 0.8133850
844.5226, 0.7278140
845.0048, 0.6934660
845.4869, 0.2819820
845.9690, 0.3215030
846.4511, 0.6845090
846.9332, 0.8903350
847.4153, 1.205963
847.8975, 1.875366
848.3796, 2.588867
848.8617, 3.291084
849.3438, 3.918205
849.8259, 4.251411
850.3080, 4.089958
850.7902, 4.125679
851.2723, 4.576126
851.7544, 5.206963
852.2365, 5.490532
852.7186, 5.474983
853.2007, 5.450958
853.6829, 5.598305
854.1650, 5.632896
854.6471, 5.234367
855.1292, 4.575974
855.6113, 3.948494
856.0934, 3.236015
856.5756, 2.835739
857.0577, 2.900429
857.5398, 3.187164
858.0219, 3.444420
858.5040, 3.694466
858.9861, 3.645645
859.4683, 3.224625
859.9504, 2.600052
860.4325, 1.724808
860.9146, 0.8591690
861.3967, 0.5049360
861.8788, 0.9804530
862.3610, 1.449844
862.8431, 1.589844
863.3252, 1.571739
863.8073, 1.555702
864.2894, 1.562622
864.7715, 1.547691
865.2537, 1.511147
865.7358, 1.431824
866.2179, 1.274597
866.7000, 1.066956
867.1821, 0.8940430
867.6642, 0.7661510
868.1464, 0.5940780
868.6285, 0.3409270
869.1106, 1.3733000E-02
869.5927, 0.4612430
870.0748, 1.189362
870.5569, 1.385574
871.0391, 0.6655960
871.5212, 0.1292340
872.0033, 0.6094740
872.4854, 1.916496
872.9675, 2.513634
873.4496, 2.452011
873.9318, 2.499153
874.4139, 3.668510
874.8960, 4.798225
875.3781, 4.563034
875.8602, 3.139549
876.3423, 2.249222
876.8245, 2.848839
877.3066, 3.403732
877.7887, 3.413719
878.2708, 3.084328
878.7529, 3.350777
879.2350, 4.211449
879.7172, 5.023964
880.1993, 5.590515
880.6814, 5.884613
881.1635, 5.656494
881.6456, 5.135780
882.1277, 4.855942
882.6099, 5.032310
883.0920, 5.459435
883.5741, 6.340744
884.0562, 7.329216
884.5383, 7.836891
885.0204, 7.781792
885.5026, 7.733826
885.9847, 7.783691
886.4668, 7.910141
886.9489, 8.160484
887.4310, 8.448669
887.9131, 8.537636
888.3953, 8.187828
888.8774, 8.159615
889.3595, 9.163414
889.8416, 10.41461
890.3237, 11.15790
890.8058, 11.21771
891.2880, 11.22531
891.7701, 11.16291
892.2522, 11.11352
892.7343, 11.13833
893.2164, 11.23302
893.6985, 11.42155
894.1807, 11.70536
894.6628, 11.93687
895.1449, 11.89050
895.6270, 11.86414
896.1091, 12.11135
896.5912, 12.67439
897.0734, 13.03770
897.5555, 13.12438
898.0376, 13.18893
898.5197, 13.31190
899.0018, 13.52233
899.4839, 14.06727
899.9661, 14.85851
900.4482, 15.38844
900.9303, 15.13786
901.4124, 14.76287
901.8945, 14.61209
902.3766, 14.68259
902.8588, 14.96227
903.3409, 15.77856
903.8230, 16.14182
904.3051, 15.69827
904.7872, 14.92250
905.2693, 14.78807
905.7515, 15.18099
906.2336, 15.44067
906.7157, 15.28517
907.1978, 15.22012
907.6799, 16.04361
908.1620, 17.09318
908.6442, 17.50160
909.1263, 16.49914
909.6084, 15.82063
910.0905, 15.69382
910.5726, 15.71983
911.0547, 15.49400
911.5369, 15.03764
912.0190, 14.72308
912.5011, 14.60260
912.9832, 14.59737
913.4653, 14.86411
913.9474, 15.04961
914.4296, 14.59489
914.9117, 13.38490
915.3938, 12.74491
915.8759, 13.26629
916.3580, 13.84212
916.8401, 14.12471
917.3223, 14.13512
917.8044, 13.70690
918.2865, 12.89936
918.7686, 12.39510
919.2507, 12.85258
919.7328, 13.41492
920.2150, 13.06017
920.6971, 12.21736
921.1792, 11.90177
921.6613, 13.18681
922.1434, 13.92604
922.6255, 13.62301
923.1077, 12.82690
923.5898, 12.58444
924.0719, 12.85190
924.5540, 12.61903
925.0361, 11.56039
925.5182, 10.45051
926.0004, 9.905029
926.4825, 9.841499
926.9646, 10.24833
927.4467, 11.44398
927.9288, 12.18523
928.4109, 12.12051
928.8931, 11.76485
929.3752, 11.51673
929.8573, 11.43029
930.3394, 11.12036
930.8215, 10.54803
931.3036, 9.982262
931.7858, 9.585861
932.2679, 9.383530
932.7500, 9.517403
933.2321, 9.875298
933.7142, 9.823784
934.1964, 8.905304
934.6785, 8.030174
935.1606, 7.274017
935.6427, 6.760948
936.1248, 7.167191
936.6069, 8.423561
937.0891, 9.348351
937.5712, 9.484673
938.0533, 9.251877
938.5354, 8.834305
939.0175, 8.374435
939.4996, 8.101418
939.9818, 8.470215
940.4639, 8.397781
940.9460, 7.558586
941.4281, 6.694283
941.9102, 6.704575
942.3923, 7.460304
942.8745, 7.779198
943.3566, 7.572243
943.8387, 7.213219
944.3208, 6.964035
944.8029, 6.735619
945.2850, 6.397514
945.7672, 5.932129
946.2493, 5.689293
946.7314, 5.786705
947.2135, 5.961922
947.6956, 6.164940
948.1777, 6.336533
948.6599, 6.203720
949.1420, 5.822029
949.6241, 5.508034
950.1062, 5.485832
950.5883, 5.491714
951.0704, 5.185944
951.5526, 4.816750
952.0347, 4.897797
952.5168, 5.833000
952.9989, 6.420921
953.4810, 6.477577
953.9631, 6.358063
954.4453, 6.636749
954.9274, 7.117065
955.4095, 6.967331
955.8916, 6.023697
956.3737, 5.261543
956.8558, 5.604057
957.3380, 6.167641
957.8201, 6.244690
958.3022, 5.755875
958.7843, 5.507172
959.2664, 5.579468
959.7485, 5.631119
960.2307, 5.482414
960.7128, 5.209930
961.1949, 5.039322
961.6770, 4.906708
962.1591, 4.605598
962.6412, 3.629044
963.1234, 2.928444
963.6055, 3.137177
964.0876, 3.775208
964.5697, 4.046852
965.0518, 3.885712
965.5339, 3.643555
966.0161, 3.317276
966.4982, 3.081856
966.9803, 3.290321
967.4624, 3.678230
967.9445, 3.728989
968.4266, 3.308319
968.9088, 3.066696
969.3909, 3.659027
969.8730, 4.053970
970.3551, 3.562271
970.8372, 2.270920
971.3193, 1.662117
971.8015, 1.750549
972.2836, 2.186035
972.7657, 3.043411
973.2478, 3.913055
973.7299, 4.307877
974.2120, 4.325760
974.6942, 4.234077
975.1763, 4.062035
975.6584, 3.836174
976.1405, 3.488411
976.6226, 3.163490
977.1047, 3.138458
977.5869, 3.373131
978.0690, 3.371315
978.5511, 3.029327
979.0332, 2.791214
979.5153, 3.269440
979.9974, 3.848610
980.4796, 3.916321
980.9617, 3.322472
981.4438, 2.876572
981.9259, 2.588577
982.4080, 2.485016
982.8901, 2.669418
983.3723, 2.998077
983.8544, 2.951042
984.3365, 2.620163
984.8186, 2.389610
985.3007, 2.524086
985.7828, 2.721352
986.2650, 3.049286
986.7471, 3.258537
987.2292, 2.869080
987.7113, 1.535637
988.1934, 0.9052430
988.6755, 1.228752
989.1577, 1.966896
989.6398, 2.478745
990.1219, 2.779861
990.6040, 3.065948
991.0861, 3.376991
991.5682, 3.399025
992.0504, 2.501701
992.5325, 1.821930
993.0146, 2.006805
993.4967, 2.851593
993.9788, 3.109291
994.4609, 2.783150
994.9431, 2.440315
995.4252, 2.193718
995.9073, 2.201782
996.3894, 3.084846
996.8715, 4.210709
997.3536, 4.557106
997.8358, 2.848427
998.3179, 1.881714
998.8000, 1.997147
999.2821, 2.426315
999.7642, 2.413879
1000.246, 2.054565
1000.728, 1.780380
1001.211, 1.617157
1001.693, 1.723282
1002.175, 2.474518
1002.657, 3.287140
1003.139, 3.934074
1003.621, 4.329811
1004.103, 3.984879
1004.585, 2.577583
1005.068, 1.621956
1005.550, 1.610939
1006.032, 2.083740
1006.514, 2.507942
1006.996, 2.821442
1007.478, 2.853661
1007.960, 2.444199
1008.442, 2.081398
1008.924, 1.884109
1009.407, 1.777161
1009.889, 1.722260
1010.371, 1.723389
1010.853, 1.805260
1011.335, 1.967842
1011.817, 2.160324
1012.299, 2.574486
1012.781, 2.821785
1013.263, 2.362617
1013.746, 1.423126
1014.228, 0.7841340
1014.710, 0.5453640
1015.192, 0.6901090
1015.674, 1.376846
1016.156, 2.170250
1016.638, 2.408699
1017.120, 2.235748
1017.603, 2.069412
1018.085, 2.031181
1018.567, 2.044380
1019.049, 2.335327
1019.531, 2.485512
1020.013, 1.988167
1020.495, 0.8889770
1020.977, 0.6591570
1021.459, 1.423286
1021.942, 2.003639
1022.424, 1.714127
1022.906, 1.104713
1023.388, 0.9074020
1023.870, 0.9643100
1024.352, 0.9670260
1024.834, 0.8281480
1025.316, 0.5878220
1025.799, 1.1124000E-02
1026.281, 0.3487700
1026.763, 0.4107210
1027.245, 2.011833
1027.727, 2.484718
1028.209, 1.760170
1028.691, 1.064552
1029.173, 1.574051
1029.656, 2.100624
1030.138, 1.612572
1030.620, 0.3626020
1031.102, 0.1671300
1031.584, 0.1821140
1032.066, 0.6312260
1032.548, 1.053093
1033.030, 1.331451
1033.512, 1.161026
1033.995, 0.7645190
1034.477, 0.5636670
1034.959, 0.7503360
1035.441, 0.7570800
1035.923, 0.1612850
1036.405, 0.3217160
1036.887, 0.2134090
1037.369, 0.3922200
1037.851, 0.5634610
1038.334, 0.3463750
1038.816, 0.1995850
1039.298, 0.5722350
1039.780, 0.9086840
1040.262, 0.7103810
1040.744, 0.2485120
1041.226, 8.2275003E-02
1041.708, 0.3665310
1042.191, 0.5381850
1042.673, 0.5532530
1043.155, 0.4813390
1043.637, 0.2535550
1044.119, 4.6379000E-02
1044.601, 0.4213330
1045.083, 1.353607
1045.565, 1.551315
1046.047, 0.5048290
1046.530, 2.085106
1047.012, 2.231567
1047.494, 1.386185
1047.976, 0.6227950
1048.458, 5.0446000E-02
1048.940, 0.5040890
1049.422, 0.7031780
1049.904, 0.6901630
1050.386, 0.1471940
1050.869, 0.3754650
1051.351, 0.2208630
1051.833, 0.7794650
1052.315, 1.528252
1052.797, 2.050270
1053.279, 2.197456
1053.761, 1.570450
1054.243, 0.7293170
1054.726, 0.7618180
1055.208, 1.374390
1055.690, 1.790962
1056.172, 1.649651
1056.654, 1.377457
1057.136, 0.8889240
1057.618, 0.4890440
1058.100, 0.6425400
1058.583, 1.244583
1059.065, 1.680939
1059.547, 1.902374
1060.029, 1.792770
1060.511, 0.9246900
1060.993, 2.7846999E-02
1061.475, 0.4312590
1061.957, 0.5210340
1062.439, 0.5850300
1062.922, 0.6443480
1063.404, 0.4998470
1063.886, 1.3046000E-02
1064.368, 0.4259640
1064.850, 0.1684950
1065.332, 0.3567810
1065.814, 0.5483700
1066.296, 0.2115100
1066.778, 0.1042180
1067.261, 0.3979800
1067.743, 0.5696410
1068.225, 0.5369030
1068.707, 0.3592000
1069.189, 7.8750998E-02
1069.671, 0.2023930
1070.153, 9.3139999E-02
1070.635, 1.158966
1071.118, 2.048393
1071.600, 1.637360
1072.082, 0.7663040
1072.564, 0.2011260
1073.046, 5.8517002E-02
1073.528, 0.1602860
1074.010, 0.8851700
1074.492, 1.255867
1074.974, 0.1318440
1075.457, 1.551529
1075.939, 1.146660
1076.421, 0.6247480
1076.903, 1.683495
1077.385, 1.715828
1077.867, 1.408699
1078.349, 0.7121960
1078.831, 0.1513370
1079.313, 0.7166980
1079.796, 1.802498
1080.278, 2.261658
1080.760, 1.906952
1081.242, 1.626167
1081.724, 1.765900
1082.206, 1.985847
1082.688, 2.211266
1083.170, 2.406235
1083.652, 2.411697
1084.135, 2.262932
1084.617, 2.172562
1085.099, 2.230827
1085.581, 2.279037
1086.063, 2.003372
1086.545, 1.844292
1087.027, 2.285919
1087.509, 3.430931
1087.992, 3.955063
1088.474, 3.796867
1088.956, 3.956085
1089.438, 5.402077
1089.920, 7.170517
1090.402, 8.285812
1090.884, 8.960236
1091.366, 9.626030
1091.849, 10.22700
1092.331, 11.09415
1092.813, 12.30061
1093.295, 13.61675
1093.777, 14.71225
1094.259, 15.77795
1094.741, 17.17458
1095.223, 18.94190
1095.705, 21.17459
1096.188, 25.12894
1096.670, 27.86256
1097.152, 28.15385
1097.634, 27.37664
1098.116, 27.99146
1098.598, 29.82220
1099.080, 32.03903
1099.562, 34.58418
1100.044, 36.72196
1100.527, 37.55846
1101.009, 38.25576
1101.491, 39.50735
1101.973, 41.25097
1102.455, 42.96260
1102.937, 44.65858
1103.419, 46.02854
1103.901, 46.88052
1104.384, 47.42727
1104.866, 47.97087
1105.348, 48.51151
1105.830, 48.96313
1106.312, 49.27852
1106.794, 49.48196
1107.276, 49.47150
1107.758, 49.72775
1108.240, 50.91420
1108.723, 52.20882
1109.205, 51.99720
1109.687, 50.81804
1110.169, 49.90057
1110.651, 50.14719
1111.133, 50.04115
1111.615, 49.62234
1112.097, 48.57516
1112.579, 46.55441
1113.062, 43.62790
1113.544, 39.86980
1114.026, 35.34875
1114.508, 30.66401
1114.990, 26.01342
1115.472, 21.33498
1115.954, 16.17750
1116.436, 11.38732
1116.919, 8.513756
1117.401, 7.424377
1117.883, 6.292534
1118.365, 4.897064
1118.847, 3.946007
1119.329, 4.726654
1119.811, 5.444954
1120.293, 4.435852
1120.776, 2.229988
1121.258, 1.151649
1121.740, 1.334183
1122.222, 1.531540
1122.704, 1.480972
1123.186, 1.250771
1123.668, 0.7691730
1124.150, 0.2848050
1124.632, 2.6397999E-02
1125.115, 3.5271000E-02
1125.597, 0.2188950
1126.079, 0.5770260
1126.561, 1.154610
1127.043, 2.199799
1127.525, 3.096718
1128.007, 2.591866
1128.489, 1.332077
1128.971, 0.4045490
1129.454, 0.1414030
1129.936, 5.8952000E-02
1130.418, 0.1675110
1130.900, 0.2907560
1131.382, 0.3170390
1131.864, 0.2976150
1132.346, 0.4628520
1132.828, 0.7346190
1133.311, 0.7646030
1133.793, 0.1990970
1134.275, 2.0035001E-02
1134.757, 0.4372250
1135.239, 1.012306
1135.721, 1.226730
1136.203, 1.122482
1136.685, 0.9354860
1137.167, 0.7115480
1137.650, 0.7435070
1138.132, 1.522408
1138.614, 2.236351
1139.096, 2.587914
1139.578, 2.605370
1140.060, 2.168251
1140.542, 1.262863
1141.024, 0.8026120
1141.506, 0.8641740
1141.989, 1.150139
1142.471, 1.614136
1142.953, 2.058083
1143.435, 2.490356
1143.917, 2.771820
1144.399, 2.404472
1144.881, 1.262527
1145.363, 0.4479980
1145.846, 0.1712340
1146.328, 0.1817780
1146.810, 0.4308170
1147.292, 0.7059560
1147.774, 0.7139510
1148.256, 0.4606860
1148.738, 0.6230770
1149.220, 1.381569
1149.703, 1.832458
1150.185, 1.628235
1150.667, 1.301865
1151.149, 1.745522
1151.631, 2.413544
1152.113, 2.493431
1152.595, 1.753914
1153.077, 1.178085
1153.559, 0.8102490
1154.042, 0.6642530
1154.524, 0.8015210
1155.006, 1.080650
1155.488, 1.320938
1155.970, 1.487579
1156.452, 1.527817
1156.934, 1.477547
1157.416, 1.073914
1157.898, 0.1129380
1158.381, 0.8410950
1158.863, 0.1224520
1159.345, 1.374458
1159.827, 1.643593
1160.309, 1.069748
1160.791, 0.6985320
1161.273, 1.016205
1161.755, 1.386848
1162.238, 1.776466
1162.720, 2.056023
1163.202, 2.095879
1163.684, 1.938499
1164.166, 1.799171
1164.648, 1.669395
1165.130, 1.512871
1165.612, 1.198830
1166.094, 1.010765
1166.577, 1.298676
1167.059, 1.493996
1167.541, 0.6641690
1168.023, 0.9485400
1168.505, 0.6287380
1168.987, 1.437691
1169.469, 2.963043
1169.951, 1.977844
1170.433, 0.8807600
1170.916, 0.8175280
1171.398, 1.214241
1171.880, 1.329010
1172.362, 1.185715
1172.844, 1.305656
1173.326, 1.719978
1173.808, 2.084137
1174.290, 2.050293
1174.773, 2.006897
1175.255, 2.212830
1175.737, 2.558624
1176.219, 2.900345
1176.701, 3.242409
1177.183, 3.211845
1177.665, 2.745110
1178.147, 2.197495
1178.630, 1.768250
1179.112, 1.434967
1179.594, 1.147110
1180.076, 0.9450070
1180.558, 1.043564
1181.040, 1.472038
1181.522, 1.650116
1182.004, 1.364571
1182.486, 0.9921950
1182.969, 0.7788770
1183.451, 0.7081070
1183.933, 0.8288120
1184.415, 1.098206
1184.897, 1.200195
1185.379, 1.045242
1185.861, 1.102905
1186.343, 1.521355
1186.825, 2.033455
1187.308, 2.643135
1187.790, 3.030457
1188.272, 2.763443
1188.754, 1.853157
1189.236, 1.039993
1189.718, 0.3142700
1190.200, 0.1500850
1190.682, 0.2640910
1191.165, 0.1872790
1191.647, 8.4441997E-02
1192.129, 0.1037600
1192.611, 0.5793610
1193.093, 1.374336
1193.575, 1.605484
1194.057, 1.175362
1194.539, 0.8833690
1195.021, 1.055145
1195.504, 1.485626
1195.986, 2.139992
1196.468, 2.769707
1196.950, 3.013817
1197.432, 3.312805
1197.914, 3.561150
1198.396, 3.349419
1198.878, 3.566315
1199.360, 3.132164
1199.843, 2.443436
1200.325, 1.757080
1200.807, 1.215324
1201.289, 1.076241
1201.771, 1.459656
1202.253, 1.793045
1202.735, 2.078911
1203.217, 2.310684
1203.700, 2.544327
1204.182, 2.649231
1204.664, 2.293526
1205.146, 1.775963
1205.628, 1.594650
1206.110, 1.874725
1206.592, 2.223709
1207.074, 2.682709
1207.557, 2.978271
1208.039, 2.866631
1208.521, 2.565971
1209.003, 2.145126
1209.485, 1.757378
1209.967, 1.733025
1210.449, 2.304100
1210.931, 2.604301
1211.413, 2.625175
1211.896, 2.423126
1212.378, 1.670486
1212.860, 1.037376
1213.342, 1.637459
1213.824, 1.246590
1214.306, 1.189301
1214.788, 1.729477
1215.270, 1.334572
1215.752, 1.964165
1216.235, 2.756752
1216.717, 3.363655
1217.199, 3.749855
1217.681, 3.924339
1218.163, 3.828194
1218.645, 3.213173
1219.127, 1.727486
1219.609, 1.330444
1220.092, 2.211021
1220.574, 3.119949
1221.056, 3.089760
1221.538, 2.617134
1222.020, 1.905830
1222.502, 1.172417
1222.984, 0.8347930
1223.466, 0.9324870
1223.948, 1.332733
1224.431, 2.054359
1224.913, 2.721756
1225.395, 3.176323
1225.877, 3.249268
1226.359, 2.641045
1226.841, 1.774010
1227.323, 1.581032
1227.805, 2.233757
1228.287, 2.335449
1228.770, 1.768524
1229.252, 1.306763
1229.734, 1.838608
1230.216, 2.442680
1230.698, 2.348640
1231.180, 1.834839
1231.662, 1.603882
1232.144, 1.683304
1232.627, 1.594948
1233.109, 1.318871
1233.591, 1.127907
1234.073, 1.452850
1234.555, 1.774567
1235.037, 1.657906
1235.519, 1.333664
1236.001, 1.221619
1236.484, 1.324677
1236.966, 1.640152
1237.448, 2.162262
1237.930, 2.282768
1238.412, 0.8513030
1238.894, 0.3083420
1239.376, 0.2335210
1239.858, 1.504990
1240.340, 2.029213
1240.823, 1.840965
1241.305, 1.223351
1241.787, 0.2394490
1242.269, 0.2600630
1242.751, 0.8714220
1243.233, 1.887253
1243.715, 1.986488
1244.197, 1.578270
1244.679, 1.112404
1245.162, 0.6665570
1245.644, 0.8088070
1246.126, 1.557739
1246.608, 2.145897
1247.090, 1.873375
1247.572, 1.753113
1248.054, 2.312263
1248.536, 2.911476
1249.019, 2.343941
1249.501, 1.043396
1249.983, 0.3714680
1250.465, 0.4221730
1250.947, 0.7075040
1251.429, 1.544411
1251.911, 1.792198
1252.393, 0.9987110
1252.875, 5.8083002E-02
1253.358, 0.4952090
1253.840, 0.3450090
1254.322, 0.6018910
1254.804, 2.218971
1255.286, 3.304466
1255.768, 3.228844
1256.250, 3.115952
1256.732, 3.162628
1257.214, 3.137680
1257.697, 2.536392
1258.179, 1.793617
1258.661, 1.668762
1259.143, 2.121811
1259.625, 2.586250
1260.107, 3.038467
1260.589, 3.410362
1261.071, 3.769180
1261.554, 3.721939
1262.036, 2.288300
1262.518, 0.6233290
1263.000, 0.2146680
1263.482, 0.8452760
1263.964, 1.035843
1264.446, 0.5354080
1264.928, 0.4476390
1265.411, 0.9625170
1265.893, 1.464836
1266.375, 1.284950
1266.857, 0.9583050
1267.339, 0.9532320
1267.821, 1.184776
1268.303, 1.320534
1268.785, 1.353043
1269.267, 1.376366
1269.750, 1.398232
1270.232, 1.465576
1270.714, 1.782310
1271.196, 1.918945
1271.678, 1.528755
1272.160, 0.9945830
1272.642, 1.122429
1273.124, 1.790718
1273.606, 1.744286
1274.089, 0.8710330
1274.571, 0.2380070
1275.053, 0.7962340
1275.535, 1.366623
1276.017, 1.545158
1276.499, 1.478523
1276.981, 1.256279
1277.463, 0.9684600
1277.946, 0.9313960
1278.428, 0.9797290
1278.910, 0.9902950
1279.392, 0.6776960
1279.874, 0.5137250
1280.356, 0.5767210
1280.838, 0.8419040
1281.320, 1.605965
1281.802, 2.415085
1282.285, 2.033684
1282.767, 0.7515030
1283.249, 2.7145000E-02
1283.731, 0.8092190
1284.213, 1.046471
1284.695, 0.4369130
1285.177, 5.4908998E-02
1285.659, 0.8575440
1286.141, 2.114548
1286.624, 2.304008
1287.106, 1.710365
1287.588, 1.214943
1288.070, 0.8601000
1288.552, 0.8168410
1289.034, 1.113472
1289.516, 1.250877
1289.998, 0.4267120
1290.481, 0.3609160
1290.963, 6.4865001E-02
1291.445, 0.7080760
1291.927, 0.8262860
1292.409, 0.2469940
1292.891, 9.7030997E-02
1293.373, 0.3433910
1293.855, 0.7078630
1294.338, 0.8851550
1294.820, 1.141281
1295.302, 1.629822
1295.784, 1.988075
1296.266, 1.731560
1296.748, 0.9991300
1297.230, 0.5362630
1297.712, 0.9356230
1298.194, 1.087296
1298.677, 0.3504180
1299.159, 0.1663280
1299.641, 1.020958
1300.123, 1.790710
1300.605, 1.531845
1301.087, 0.6883010
1301.569, 0.3521270
1302.051, 0.3583910
1302.533, 0.2857510
1303.016, 0.0000000E+00
##END=



