##NAMES=Arrojadite-(NaFe)
##RRUFFID=R070298
##IDEAL CHEMISTRY=Na_2_Fe^2+^(CaNa2)Fe^2+^_13_Al(PO_4_)_11_(PO_3_OH)(OH)_2_
##LOCALITY=Boundary Creek, Richardson Mountains, Dawson mining district, Yukon Territory, Canada
##OWNER=RRUFF
##SOURCE=Mark Mauthner
##DESCRIPTION=Dark bluish grey fragments
##STATUS=The identification of this mineral is confirmed by single-crystal X-ray diffraction and chemical analysis.
##URL=rruff.info/R070298
##MEASURED CHEMISTRY=(Na_1.80_K_0.20_)_Σ=2_Fe^2+^_1.00_(Ca_0.90_Na_2.10_)_Σ=3_(Fe^2+^_10.71_Mg_1.40_Mn_0.89_)_Σ=13_(Al_0.90_Ti_0.05_Fe^3+^_0.05_)_Σ=1_(P_1.00_O_4_)_11_(P_1.00_O_3_OH)((OH)_1.15_F_0.85_)_Σ=2_; (OH) by stoichiometry and charge balance
149.1797, 0.0000000E+00
149.6618, 0.4993900
150.1439, 0.2609860
150.6261, 13.22949
151.1082, 26.74121
151.5903, 35.28174
152.0724, 33.07556
152.5545, 37.08325
153.0366, 54.41687
153.5188, 78.20776
154.0009, 95.02136
154.4830, 99.48938
154.9651, 99.20959
155.4472, 97.36108
155.9293, 92.81189
156.4115, 88.88867
156.8936, 86.39563
157.3757, 85.03259
157.8578, 83.80798
158.3399, 81.31543
158.8221, 79.48779
159.3042, 79.59961
159.7863, 85.96497
160.2684, 90.35547
160.7505, 88.48914
161.2326, 81.21423
161.7148, 75.23083
162.1969, 74.47681
162.6790, 75.92273
163.1611, 76.64001
163.6432, 72.93628
164.1253, 70.41113
164.6075, 72.41101
165.0896, 79.06421
165.5717, 87.07776
166.0538, 96.05957
166.5359, 104.9944
167.0180, 112.4813
167.5002, 118.3527
167.9823, 122.4309
168.4644, 124.0176
168.9465, 122.6666
169.4286, 120.9365
169.9107, 120.4347
170.3929, 120.8774
170.8750, 121.7103
171.3571, 122.6766
171.8392, 123.8700
172.3213, 125.3307
172.8034, 126.9852
173.2856, 129.1388
173.7677, 133.4508
174.2498, 138.9364
174.7319, 142.1641
175.2140, 138.6207
175.6961, 132.0847
176.1783, 128.2762
176.6604, 128.4309
177.1425, 131.3359
177.6246, 139.0627
178.1067, 150.1991
178.5888, 156.0156
179.0710, 144.4570
179.5531, 122.8951
180.0352, 108.4406
180.5173, 108.5243
180.9994, 114.3237
181.4815, 109.7871
181.9637, 95.22839
182.4458, 81.80310
182.9279, 80.49390
183.4100, 88.63513
183.8921, 96.04504
184.3742, 99.12488
184.8564, 100.6333
185.3385, 104.0579
185.8206, 110.3273
186.3027, 118.4724
186.7848, 126.9761
187.2669, 133.5369
187.7491, 138.6522
188.2312, 141.2736
188.7133, 142.1624
189.1954, 144.1467
189.6775, 148.2471
190.1596, 148.9537
190.6418, 141.1005
191.1239, 126.1591
191.6060, 115.3853
192.0881, 113.7510
192.5702, 120.8524
193.0524, 128.7906
193.5345, 138.1700
194.0166, 146.7809
194.4987, 151.0587
194.9808, 150.8802
195.4629, 148.2266
195.9451, 143.0502
196.4272, 135.3521
196.9093, 129.0077
197.3914, 123.9432
197.8735, 120.5303
198.3556, 119.9343
198.8378, 122.4839
199.3199, 125.7534
199.8020, 129.5654
200.2841, 134.2192
200.7662, 133.9863
201.2483, 126.6791
201.7305, 116.0145
202.2126, 112.4381
202.6947, 118.1266
203.1768, 122.6686
203.6589, 117.6888
204.1410, 101.0326
204.6232, 90.89539
205.1053, 90.40808
205.5874, 96.80286
206.0695, 101.4537
206.5516, 104.6110
207.0337, 104.7367
207.5159, 101.1195
207.9980, 92.96289
208.4801, 85.59131
208.9622, 79.64368
209.4443, 74.96252
209.9264, 70.76917
210.4086, 66.89661
210.8907, 63.81934
211.3728, 62.89844
211.8549, 65.97461
212.3370, 64.20166
212.8191, 53.13965
213.3013, 35.00146
213.7834, 28.42383
214.2655, 36.68274
214.7476, 51.28687
215.2297, 67.78064
215.7118, 92.34009
216.1940, 100.9434
216.6761, 83.53308
217.1582, 41.79224
217.6403, 16.01306
218.1224, 12.56348
218.6045, 16.93762
219.0867, 14.65308
219.5688, 1.093140
220.0509, 7.896118
220.5330, 7.033691
221.0151, 4.006714
221.4972, 9.089355
221.9794, 6.385254
222.4615, 0.1789550
222.9436, 7.100708
223.4257, 16.03296
223.9078, 21.87366
224.3899, 22.65002
224.8721, 17.90454
225.3542, 14.66943
225.8363, 14.37573
226.3184, 14.21899
226.8005, 9.932129
227.2827, 3.043945
227.7648, 11.23779
228.2469, 9.763184
228.7290, 3.129028
229.2111, 12.30823
229.6932, 18.46826
230.1754, 20.25122
230.6575, 14.26660
231.1396, 7.358643
231.6217, 22.55103
232.1038, 23.02063
232.5859, 4.657104
233.0681, 6.210205
233.5502, 7.471802
234.0323, 2.766968
234.5144, 3.099121
234.9965, 11.14294
235.4786, 18.57849
235.9608, 24.63867
236.4429, 29.18469
236.9250, 32.66626
237.4071, 34.56873
237.8892, 35.70471
238.3713, 37.01367
238.8535, 37.02380
239.3356, 39.79688
239.8177, 48.35034
240.2998, 66.56128
240.7819, 75.00061
241.2640, 68.92346
241.7462, 55.95959
242.2283, 49.71167
242.7104, 55.10864
243.1925, 59.01990
243.6746, 55.51501
244.1567, 39.76514
244.6389, 34.84216
245.1210, 44.79272
245.6031, 61.94727
246.0852, 72.88049
246.5673, 75.96484
247.0494, 75.56641
247.5316, 72.87524
248.0137, 66.42737
248.4958, 60.57544
248.9779, 54.06689
249.4600, 48.90454
249.9421, 49.62708
250.4243, 59.84155
250.9064, 70.35022
251.3885, 77.12659
251.8706, 78.58899
252.3527, 78.13196
252.8348, 74.70850
253.3170, 70.35608
253.7991, 69.24487
254.2812, 72.31506
254.7633, 75.52173
255.2454, 76.72937
255.7275, 74.47400
256.2097, 73.98047
256.6918, 75.87842
257.1739, 79.26392
257.6560, 82.62305
258.1381, 85.63257
258.6202, 88.20630
259.1024, 90.62622
259.5845, 93.35706
260.0666, 93.92151
260.5487, 90.82910
261.0308, 86.61719
261.5129, 85.98193
261.9951, 89.83313
262.4772, 95.07678
262.9593, 101.9729
263.4414, 112.6035
263.9235, 113.6605
264.4056, 99.46704
264.8878, 81.05786
265.3699, 80.15393
265.8520, 104.1829
266.3341, 124.1620
266.8162, 127.1461
267.2983, 109.8955
267.7805, 97.32727
268.2626, 89.77734
268.7447, 86.23645
269.2268, 86.08923
269.7089, 90.37598
270.1910, 93.82019
270.6732, 93.07922
271.1553, 87.38220
271.6374, 89.15466
272.1195, 101.3625
272.6016, 115.6407
273.0837, 116.6001
273.5659, 101.7094
274.0480, 86.57446
274.5301, 76.71729
275.0122, 72.31995
275.4943, 70.90247
275.9764, 73.79968
276.4586, 77.11584
276.9407, 73.59131
277.4228, 62.23706
277.9049, 52.84485
278.3870, 50.22095
278.8691, 54.26013
279.3513, 58.76233
279.8334, 64.22363
280.3155, 68.85242
280.7976, 69.65186
281.2798, 66.34875
281.7619, 61.99573
282.2440, 57.36194
282.7261, 52.89734
283.2082, 50.16821
283.6903, 49.19727
284.1725, 49.25488
284.6546, 48.93555
285.1367, 48.54785
285.6188, 51.02075
286.1009, 60.48413
286.5830, 73.92383
287.0652, 77.76550
287.5473, 71.23413
288.0294, 60.31860
288.5115, 49.34070
288.9936, 39.08850
289.4757, 33.48645
289.9579, 36.15088
290.4400, 43.96936
290.9221, 48.39502
291.4042, 49.52966
291.8863, 48.87646
292.3684, 46.20264
292.8506, 42.17883
293.3327, 40.51807
293.8148, 45.21436
294.2969, 51.35474
294.7790, 46.91907
295.2611, 31.85620
295.7433, 17.67029
296.2254, 16.07617
296.7075, 23.40198
297.1896, 29.30042
297.6717, 30.04980
298.1538, 28.57373
298.6360, 30.31140
299.1181, 34.84875
299.6002, 37.19165
300.0823, 31.89331
300.5644, 21.86938
301.0465, 12.02417
301.5287, 1.279419
302.0108, 5.801758
302.4929, 0.4855960
302.9750, 17.59399
303.4571, 30.59814
303.9392, 23.35657
304.4214, 7.841553
304.9035, 0.9230960
305.3856, 11.10461
305.8677, 23.90479
306.3498, 27.28040
306.8319, 22.73438
307.3141, 15.52600
307.7962, 3.414917
308.2783, 7.293213
308.7604, 8.809082
309.2425, 5.516724
309.7246, 18.14893
310.2068, 15.20850
310.6889, 1.483398
311.1710, 10.51709
311.6531, 17.00360
312.1352, 17.74170
312.6173, 10.91986
313.0995, 7.881348
313.5816, 22.55994
314.0637, 21.71777
314.5458, 11.95917
315.0279, 5.969177
315.5100, 13.00116
315.9922, 21.39014
316.4743, 24.46277
316.9564, 20.33911
317.4385, 16.84363
317.9206, 16.34174
318.4027, 18.11658
318.8849, 21.23535
319.3670, 26.90643
319.8491, 32.38446
320.3312, 37.21918
320.8133, 41.67554
321.2954, 43.39630
321.7776, 39.56915
322.2597, 34.12158
322.7418, 31.26562
323.2239, 35.64752
323.7060, 37.96124
324.1881, 34.07037
324.6703, 23.07129
325.1524, 15.63934
325.6345, 13.63696
326.1166, 15.53790
326.5987, 20.17114
327.0808, 35.35010
327.5630, 43.93988
328.0451, 39.36884
328.5272, 22.66693
329.0093, 16.75269
329.4914, 29.89551
329.9735, 46.41656
330.4557, 56.18707
330.9378, 56.08795
331.4199, 54.47522
331.9020, 50.81488
332.3841, 45.94104
332.8662, 43.84644
333.3484, 44.66113
333.8305, 48.09613
334.3126, 55.25952
334.7947, 69.22534
335.2768, 76.77466
335.7589, 75.08362
336.2411, 67.80206
336.7232, 64.07489
337.2053, 64.73230
337.6874, 66.60724
338.1695, 68.12390
338.6516, 69.07812
339.1338, 71.62048
339.6159, 76.29724
340.0980, 81.73456
340.5801, 84.77057
341.0622, 84.98059
341.5443, 87.14062
342.0265, 94.88898
342.5086, 107.2266
342.9907, 114.6823
343.4728, 116.3327
343.9549, 116.4713
344.4370, 121.8245
344.9192, 131.5411
345.4013, 137.2433
345.8834, 132.1296
346.3655, 121.8910
346.8476, 123.7129
347.3297, 137.9434
347.8119, 153.5026
348.2940, 159.0417
348.7761, 157.3661
349.2582, 157.0188
349.7403, 162.0642
350.2225, 167.8751
350.7046, 166.2761
351.1867, 158.2363
351.6688, 151.3468
352.1509, 151.5348
352.6331, 156.2351
353.1152, 162.0599
353.5973, 169.4011
354.0794, 175.5347
354.5615, 177.8099
355.0436, 176.8296
355.5258, 174.4298
356.0079, 171.2567
356.4900, 167.3070
356.9721, 162.8682
357.4542, 158.4297
357.9363, 151.9850
358.4185, 139.7652
358.9006, 125.0519
359.3827, 113.3406
359.8648, 105.1527
360.3469, 102.2319
360.8290, 108.6010
361.3112, 126.7610
361.7933, 135.9510
362.2754, 121.5531
362.7575, 97.66589
363.2396, 80.24707
363.7217, 79.89429
364.2039, 79.01178
364.6860, 71.91248
365.1681, 58.37622
365.6502, 47.47424
366.1323, 41.17725
366.6144, 36.89539
367.0966, 33.39166
367.5787, 31.61731
368.0608, 27.60980
368.5429, 18.94348
369.0250, 6.447937
369.5071, 2.128723
369.9893, 2.120117
370.4714, 2.363647
370.9535, 7.674377
371.4356, 24.70465
371.9177, 34.40363
372.3998, 34.26825
372.8820, 28.06848
373.3641, 22.74915
373.8462, 17.63092
374.3283, 15.56476
374.8104, 19.33801
375.2925, 29.96033
375.7747, 34.70032
376.2568, 32.31482
376.7389, 26.43524
377.2210, 21.69238
377.7031, 18.18573
378.1852, 14.51941
378.6674, 9.042358
379.1495, 3.129089
379.6316, 4.227600
380.1137, 13.18903
380.5958, 21.75537
381.0779, 21.54181
381.5601, 13.88922
382.0422, 5.265564
382.5243, 3.557190
383.0064, 11.66809
383.4885, 17.80682
383.9706, 22.25067
384.4528, 25.51550
384.9349, 25.97003
385.4170, 25.93970
385.8991, 29.82513
386.3812, 38.70404
386.8633, 49.49585
387.3455, 60.09802
387.8276, 70.65991
388.3097, 81.93109
388.7918, 95.04675
389.2739, 108.4796
389.7560, 120.9302
390.2382, 132.2202
390.7203, 143.3505
391.2024, 157.3080
391.6845, 170.5602
392.1666, 179.1649
392.6487, 173.7886
393.1309, 170.9453
393.6130, 178.9808
394.0951, 197.0056
394.5772, 213.4584
395.0593, 223.6593
395.5414, 232.4845
396.0236, 242.8719
396.5057, 256.5748
396.9878, 270.3201
397.4699, 282.4427
397.9520, 294.1699
398.4341, 309.3756
398.9163, 335.0692
399.3984, 356.9189
399.8805, 368.3215
400.3626, 363.2368
400.8447, 366.1910
401.3268, 382.0660
401.8090, 402.3693
402.2911, 414.5651
402.7732, 414.6558
403.2553, 416.8497
403.7374, 425.6459
404.2195, 440.5917
404.7017, 454.4103
405.1838, 468.3292
405.6659, 477.8444
406.1480, 473.7147
406.6301, 455.5026
407.1122, 452.3075
407.5944, 474.0685
408.0765, 509.0308
408.5586, 528.0107
409.0407, 531.3759
409.5228, 533.0337
410.0049, 542.5730
410.4871, 557.4503
410.9692, 571.1222
411.4513, 583.2015
411.9334, 593.0881
412.4155, 598.3835
412.8976, 600.8236
413.3798, 605.1656
413.8619, 616.7196
414.3440, 629.5424
414.8261, 636.1566
415.3082, 636.4858
415.7903, 638.4070
416.2725, 648.1082
416.7546, 661.8878
417.2367, 675.9055
417.7188, 690.4486
418.2009, 702.9731
418.6830, 711.5660
419.1652, 716.9374
419.6473, 721.3369
420.1294, 720.4570
420.6115, 722.5839
421.0937, 733.4363
421.5758, 759.6133
422.0579, 781.4230
422.5400, 795.4760
423.0221, 803.8828
423.5042, 810.3073
423.9864, 812.5215
424.4685, 815.3607
424.9506, 820.0111
425.4327, 826.5225
425.9148, 833.5477
426.3969, 841.8209
426.8791, 849.4841
427.3612, 854.2880
427.8433, 855.2548
428.3254, 858.6898
428.8075, 867.0072
429.2896, 876.5488
429.7718, 875.3993
430.2539, 861.7236
430.7360, 851.3245
431.2181, 856.9579
431.7002, 877.0389
432.1823, 887.3938
432.6645, 885.0964
433.1466, 876.8615
433.6287, 871.9702
434.1108, 870.3536
434.5929, 869.7697
435.0750, 870.1965
435.5572, 870.4092
436.0393, 867.0659
436.5214, 860.5234
437.0035, 855.9956
437.4856, 859.6388
437.9677, 866.1627
438.4499, 868.8539
438.9320, 865.8076
439.4141, 860.8253
439.8962, 854.0624
440.3783, 846.9008
440.8604, 842.8140
441.3426, 850.2036
441.8247, 856.0708
442.3068, 851.7123
442.7889, 833.8766
443.2710, 816.9753
443.7531, 805.3640
444.2353, 796.4763
444.7174, 787.2744
445.1995, 772.7738
445.6816, 763.1146
446.1637, 764.9390
446.6458, 776.2710
447.1280, 775.0035
447.6101, 751.5278
448.0922, 725.9778
448.5743, 709.8274
449.0564, 706.7009
449.5385, 703.1998
450.0207, 699.4258
450.5028, 694.7291
450.9849, 686.9816
451.4670, 675.2655
451.9491, 665.6423
452.4312, 662.2181
452.9134, 663.6134
453.3955, 656.6989
453.8776, 640.1069
454.3597, 625.1011
454.8418, 625.4121
455.3239, 637.5630
455.8061, 647.7848
456.2882, 654.2272
456.7703, 656.6385
457.2524, 652.6034
457.7345, 643.3872
458.2166, 634.3582
458.6988, 628.9371
459.1809, 625.4912
459.6630, 623.4985
460.1451, 623.3965
460.6272, 620.6737
461.1093, 607.8412
461.5915, 592.0176
462.0736, 582.4053
462.5557, 589.4526
463.0378, 595.8542
463.5199, 593.7814
464.0020, 584.3612
464.4842, 577.1561
464.9663, 576.6586
465.4484, 576.6928
465.9305, 573.9043
466.4126, 566.6998
466.8947, 560.1542
467.3769, 556.2132
467.8590, 552.5715
468.3411, 545.3535
468.8232, 534.3619
469.3053, 519.7798
469.7874, 499.0551
470.2696, 473.0049
470.7517, 457.8564
471.2338, 455.7954
471.7159, 457.9600
472.1980, 457.5151
472.6801, 454.4908
473.1623, 450.3934
473.6444, 444.8503
474.1265, 439.4181
474.6086, 438.0115
475.0907, 439.8426
475.5728, 439.8112
476.0550, 433.0496
476.5371, 423.4388
477.0192, 417.7827
477.5013, 416.3184
477.9834, 415.2178
478.4655, 411.7899
478.9477, 406.8489
479.4298, 401.4566
479.9119, 395.3262
480.3940, 389.4966
480.8761, 384.9059
481.3582, 381.1251
481.8404, 376.9780
482.3225, 372.7318
482.8046, 367.5005
483.2867, 361.0292
483.7688, 353.5767
484.2509, 343.8995
484.7331, 327.4438
485.2152, 311.0713
485.6973, 301.4897
486.1794, 305.6392
486.6615, 304.5339
487.1436, 294.0973
487.6258, 276.3140
488.1079, 260.0779
488.5900, 245.2604
489.0721, 232.6290
489.5542, 223.1511
490.0363, 216.8054
490.5185, 210.3347
491.0006, 203.4838
491.4827, 197.3008
491.9648, 195.1921
492.4470, 195.8901
492.9291, 191.8995
493.4112, 177.1062
493.8933, 159.4433
494.3754, 152.5001
494.8575, 154.8662
495.3397, 158.1037
495.8218, 157.5231
496.3039, 154.4822
496.7860, 149.7531
497.2681, 142.4686
497.7502, 137.1515
498.2324, 138.6837
498.7145, 142.8917
499.1966, 144.1168
499.6787, 138.4608
500.1608, 131.8088
500.6429, 124.1146
501.1251, 115.8096
501.6072, 112.7083
502.0893, 118.9141
502.5714, 127.0668
503.0535, 134.2125
503.5356, 141.6270
504.0178, 144.8908
504.4999, 143.2994
504.9820, 138.1411
505.4641, 130.3458
505.9462, 119.0476
506.4283, 109.8206
506.9105, 104.7935
507.3926, 103.0087
507.8747, 101.0430
508.3568, 98.90466
508.8389, 96.16833
509.3210, 93.83838
509.8032, 90.61475
510.2853, 82.10120
510.7674, 66.89209
511.2495, 50.08417
511.7316, 36.94373
512.2137, 26.00854
512.6959, 14.53479
513.1780, 0.1959840
513.6601, 14.69672
514.1422, 27.55298
514.6243, 38.53735
515.1064, 46.32587
515.5886, 47.97742
516.0707, 47.98767
516.5528, 49.01276
517.0349, 51.75775
517.5170, 54.78442
517.9991, 58.90155
518.4813, 62.84277
518.9634, 64.94446
519.4455, 64.67712
519.9276, 63.50610
520.4097, 61.89844
520.8918, 59.68744
521.3740, 55.68146
521.8561, 49.96729
522.3382, 42.15796
522.8203, 30.56067
523.3024, 15.64099
523.7845, 4.315491
524.2667, 2.575500
524.7488, 7.854858
525.2309, 15.38995
525.7130, 24.50006
526.1951, 32.51807
526.6772, 37.05347
527.1594, 41.57312
527.6415, 50.16425
528.1236, 62.27582
528.6057, 75.76093
529.0878, 90.10052
529.5699, 104.7706
530.0521, 119.9332
530.5342, 136.6466
531.0163, 149.7356
531.4984, 153.1233
531.9805, 154.0737
532.4626, 160.3279
532.9448, 178.7098
533.4269, 195.5656
533.9090, 209.8843
534.3911, 221.6287
534.8732, 229.2881
535.3553, 229.2125
535.8375, 232.1100
536.3196, 243.2943
536.8017, 263.3208
537.2838, 282.6271
537.7659, 301.2178
538.2480, 319.6765
538.7302, 337.6853
539.2123, 355.8285
539.6944, 377.3787
540.1765, 404.0563
540.6586, 432.6102
541.1407, 460.1833
541.6229, 486.5337
542.1050, 511.2224
542.5871, 531.6695
543.0692, 551.9182
543.5513, 576.8391
544.0334, 606.4045
544.5156, 633.1765
544.9977, 650.8515
545.4798, 665.9141
545.9619, 683.6279
546.4440, 711.6514
546.9261, 732.4437
547.4083, 738.4685
547.8904, 736.7718
548.3725, 740.5173
548.8546, 756.8100
549.3367, 766.8212
549.8188, 764.8144
550.3010, 751.7548
550.7831, 738.5396
551.2652, 725.0524
551.7473, 711.7457
552.2294, 699.1369
552.7115, 687.1284
553.1937, 675.1143
553.6758, 662.8953
554.1579, 651.3145
554.6400, 641.8218
555.1221, 633.8195
555.6042, 625.5383
556.0864, 613.1613
556.5685, 603.3169
557.0506, 605.0235
557.5327, 615.4664
558.0148, 624.1896
558.4969, 623.5893
558.9791, 621.5946
559.4612, 623.3934
559.9433, 630.4176
560.4254, 636.5420
560.9075, 640.9294
561.3896, 643.7435
561.8718, 645.1302
562.3539, 643.5042
562.8360, 643.0396
563.3181, 643.4825
563.8002, 645.5289
564.2823, 650.8550
564.7645, 659.4476
565.2466, 671.5203
565.7287, 690.0223
566.2108, 712.2421
566.6929, 722.8932
567.1750, 721.5079
567.6572, 717.2908
568.1393, 716.7249
568.6214, 719.0667
569.1035, 722.9780
569.5856, 728.3297
570.0677, 735.0161
570.5499, 747.8676
571.0320, 760.7591
571.5141, 764.0761
571.9962, 744.2749
572.4783, 724.6150
572.9604, 714.8047
573.4426, 713.9152
573.9247, 714.5474
574.4068, 721.8594
574.8889, 724.3193
575.3710, 716.2783
575.8531, 695.2137
576.3353, 676.9002
576.8174, 661.9379
577.2995, 649.4697
577.7816, 639.7351
578.2637, 633.3709
578.7458, 622.9703
579.2280, 606.4198
579.7101, 587.6804
580.1922, 574.0895
580.6743, 565.0951
581.1564, 556.4650
581.6385, 543.1436
582.1207, 530.0287
582.6028, 525.3987
583.0849, 528.1832
583.5670, 530.1744
584.0491, 524.3188
584.5313, 517.1615
585.0134, 515.5475
585.4955, 524.7599
585.9776, 525.5257
586.4597, 502.1879
586.9418, 472.3853
587.4240, 456.7408
587.9061, 467.1364
588.3882, 473.5276
588.8703, 470.3563
589.3524, 461.7708
589.8345, 460.8649
590.3167, 469.7788
590.7988, 478.1817
591.2809, 481.3575
591.7630, 480.2452
592.2451, 481.1973
592.7272, 484.5165
593.2094, 482.4772
593.6915, 460.4210
594.1736, 430.0978
594.6557, 415.6182
595.1378, 423.9075
595.6199, 436.3630
596.1021, 439.3918
596.5842, 437.7725
597.0663, 438.3165
597.5485, 451.1001
598.0306, 458.1669
598.5127, 449.0615
598.9948, 428.1968
599.4769, 414.7973
599.9590, 413.2760
600.4412, 415.3008
600.9233, 420.6803
601.4054, 430.3625
601.8875, 426.9314
602.3696, 405.7970
602.8517, 382.8721
603.3339, 374.7976
603.8160, 379.9077
604.2981, 376.6412
604.7802, 361.6370
605.2623, 341.4065
605.7444, 320.8483
606.2266, 301.5767
606.7087, 289.2081
607.1908, 292.2744
607.6729, 295.8479
608.1550, 287.3903
608.6371, 269.4907
609.1193, 250.2272
609.6014, 228.2263
610.0835, 209.6863
610.5656, 199.1124
611.0477, 197.8795
611.5298, 195.7097
612.0120, 194.0731
612.4941, 189.6405
612.9762, 179.2919
613.4583, 160.4030
613.9404, 145.3376
614.4225, 135.1636
614.9047, 128.0874
615.3868, 121.8909
615.8689, 116.1788
616.3510, 111.0533
616.8331, 106.6332
617.3152, 103.5488
617.7974, 103.4782
618.2795, 105.0719
618.7616, 104.6134
619.2437, 95.95111
619.7258, 89.40515
620.2079, 94.23029
620.6901, 109.9378
621.1722, 121.3250
621.6543, 118.0840
622.1364, 113.8586
622.6185, 118.0237
623.1006, 136.9817
623.5828, 149.9277
624.0649, 152.9580
624.5470, 154.0380
625.0291, 163.6667
625.5112, 183.8298
625.9933, 199.0044
626.4755, 204.1663
626.9576, 206.6020
627.4397, 221.0620
627.9218, 245.9889
628.4039, 272.2557
628.8860, 297.4607
629.3682, 320.7474
629.8503, 338.8915
630.3324, 352.7571
630.8145, 368.3951
631.2966, 388.6162
631.7787, 412.2040
632.2609, 439.1387
632.7430, 470.7372
633.2251, 500.6772
633.7072, 529.3271
634.1893, 554.2269
634.6714, 572.9834
635.1536, 581.0815
635.6357, 594.9759
636.1178, 618.1112
636.5999, 644.4043
637.0820, 662.4341
637.5641, 671.3297
638.0463, 678.2936
638.5284, 684.6171
639.0105, 691.3232
639.4926, 703.2853
639.9747, 718.9153
640.4568, 728.6536
640.9390, 722.0962
641.4211, 710.0845
641.9032, 702.7175
642.3853, 700.6841
642.8674, 697.8906
643.3495, 697.7167
643.8317, 692.3309
644.3138, 674.9543
644.7959, 633.9115
645.2780, 601.1502
645.7601, 581.5538
646.2422, 566.1857
646.7244, 543.4540
647.2065, 511.6434
647.6886, 482.8801
648.1707, 460.4028
648.6528, 440.8741
649.1349, 415.7618
649.6171, 386.2974
650.0992, 360.4141
650.5813, 345.4362
651.0634, 333.8544
651.5455, 316.3626
652.0276, 293.6478
652.5098, 270.4154
652.9919, 247.1954
653.4740, 225.7042
653.9561, 206.9736
654.4382, 191.1851
654.9203, 177.9595
655.4025, 168.2039
655.8846, 160.1309
656.3667, 153.3206
656.8488, 149.5273
657.3309, 141.0290
657.8130, 125.6260
658.2952, 108.7176
658.7773, 99.01752
659.2594, 95.74976
659.7415, 90.18182
660.2236, 78.41620
660.7057, 65.95880
661.1879, 61.76282
661.6700, 63.54065
662.1521, 65.01581
662.6342, 62.74683
663.1163, 59.57104
663.5984, 57.72632
664.0806, 56.85742
664.5627, 53.95184
665.0448, 44.34778
665.5269, 36.34967
666.0090, 34.29034
666.4911, 39.43469
666.9733, 41.33502
667.4554, 39.66742
667.9375, 35.44940
668.4196, 27.44397
668.9017, 15.93457
669.3839, 11.97955
669.8660, 17.83813
670.3481, 25.20178
670.8302, 24.57666
671.3123, 18.14282
671.7944, 10.12646
672.2766, 0.5128170
672.7587, 8.324951
673.2408, 6.478027
673.7229, 0.3247680
674.2050, 2.866638
674.6871, 7.825684
675.1693, 16.14301
675.6514, 15.21497
676.1335, 7.659851
676.6156, 8.291626
677.0977, 22.14502
677.5798, 32.58789
678.0620, 30.15570
678.5441, 16.67255
679.0262, 10.57703
679.5083, 12.19440
679.9904, 15.41705
680.4725, 15.02075
680.9547, 12.97900
681.4368, 13.30676
681.9189, 16.75793
682.4010, 19.53412
682.8831, 17.35901
683.3652, 14.02655
683.8474, 13.55518
684.3295, 20.45422
684.8116, 24.52203
685.2937, 22.47620
685.7758, 17.65442
686.2579, 14.21869
686.7401, 12.60950
687.2222, 11.16266
687.7043, 9.617249
688.1864, 8.030945
688.6685, 6.485107
689.1506, 4.989197
689.6328, 3.716370
690.1149, 3.095215
690.5970, 2.523193
691.0791, 5.7983000E-02
691.5612, 3.601135
692.0433, 4.925659
692.5255, 1.027771
693.0076, 7.481384
693.4897, 10.80139
693.9718, 10.71576
694.4539, 6.752441
694.9360, 7.305237
695.4182, 19.47235
695.9003, 22.58472
696.3824, 13.81458
696.8645, 7.832947
697.3466, 5.031067
697.8287, 4.028320
698.3109, 3.132385
698.7930, 2.652283
699.2751, 5.060608
699.7572, 11.81915
700.2393, 17.60846
700.7214, 13.27734
701.2036, 4.914917
701.6857, 2.752655
702.1678, 16.54572
702.6499, 29.99460
703.1320, 37.95886
703.6141, 41.06323
704.0963, 40.60831
704.5784, 33.66385
705.0605, 28.12738
705.5426, 25.85458
706.0247, 26.23853
706.5068, 27.19275
706.9890, 28.97726
707.4711, 29.76981
707.9532, 27.40506
708.4353, 23.60663
708.9174, 22.36688
709.3995, 23.74448
709.8817, 28.34085
710.3638, 40.75153
710.8459, 53.79562
711.3280, 60.27344
711.8101, 58.73218
712.2922, 57.40814
712.7744, 61.49301
713.2565, 64.49838
713.7386, 61.36084
714.2207, 46.56812
714.7028, 40.38654
715.1849, 45.41464
715.6671, 54.50128
716.1492, 60.16901
716.6313, 62.57846
717.1134, 64.19778
717.5955, 65.34396
718.0776, 66.14404
718.5598, 67.09369
719.0419, 67.81284
719.5240, 67.53903
720.0061, 62.37500
720.4882, 59.75266
720.9703, 66.73126
721.4525, 79.05865
721.9346, 86.78290
722.4167, 84.03436
722.8988, 82.15082
723.3809, 84.17212
723.8630, 88.76395
724.3452, 89.84308
724.8273, 86.82553
725.3094, 81.89578
725.7915, 74.95023
726.2736, 67.94666
726.7557, 65.72678
727.2379, 68.04218
727.7200, 73.12851
728.2021, 84.44183
728.6842, 94.75446
729.1663, 97.42960
729.6484, 91.85934
730.1306, 86.41901
730.6127, 79.06683
731.0948, 74.41870
731.5769, 75.79404
732.0590, 85.29776
732.5411, 91.77563
733.0233, 94.52374
733.5054, 95.82364
733.9875, 98.02145
734.4696, 100.3965
734.9517, 99.43561
735.4338, 94.62613
735.9160, 89.84567
736.3981, 89.24619
736.8802, 90.82779
737.3623, 91.93445
737.8444, 92.21857
738.3266, 91.41412
738.8087, 88.38791
739.2908, 84.42020
739.7729, 81.57733
740.2551, 81.60767
740.7372, 80.07138
741.2193, 74.93213
741.7014, 68.84872
742.1835, 68.59039
742.6656, 74.51077
743.1478, 79.32318
743.6299, 80.44006
744.1120, 79.65833
744.5941, 80.14200
745.0762, 81.11798
745.5583, 80.32474
746.0405, 74.12961
746.5226, 68.18933
747.0047, 66.34436
747.4868, 67.82874
747.9689, 67.88950
748.4510, 64.18134
748.9332, 61.44287
749.4153, 61.83563
749.8974, 64.75134
750.3795, 64.25040
750.8616, 59.98541
751.3438, 54.55133
751.8259, 47.97006
752.3080, 42.14490
752.7901, 42.38324
753.2722, 47.89059
753.7543, 53.91614
754.2365, 58.91547
754.7186, 61.94092
755.2007, 61.89600
755.6828, 58.43176
756.1649, 53.78009
756.6470, 44.96307
757.1292, 38.18018
757.6113, 38.58252
758.0934, 49.37384
758.5755, 50.71240
759.0576, 40.08331
759.5397, 27.75012
760.0219, 25.59540
760.5040, 30.66064
760.9861, 34.98553
761.4682, 37.53479
761.9503, 37.76324
762.4324, 31.70612
762.9146, 24.58044
763.3967, 22.96552
763.8788, 35.31635
764.3609, 42.03381
764.8430, 34.41205
765.3251, 22.66089
765.8073, 18.96826
766.2894, 26.25092
766.7715, 29.70868
767.2536, 26.29584
767.7357, 20.19025
768.2178, 17.70105
768.7000, 18.49164
769.1821, 21.60089
769.6642, 29.17145
770.1463, 34.92773
770.6284, 31.06342
771.1105, 21.82574
771.5927, 15.40790
772.0748, 17.90924
772.5569, 19.26727
773.0390, 16.14185
773.5211, 10.49200
774.0032, 7.391907
774.4854, 7.583008
774.9675, 7.543091
775.4496, 6.403809
775.9317, 4.197388
776.4138, 0.4136350
776.8959, 6.595581
777.3781, 9.965027
777.8602, 4.437683
778.3423, 1.809692
778.8244, 0.7250370
779.3065, 5.905823
779.7886, 10.34106
780.2708, 7.981995
780.7529, 5.520142
781.2350, 5.915833
781.7171, 8.547058
782.1992, 6.816284
782.6813, 0.6420290
783.1635, 6.784607
783.6456, 7.054321
784.1277, 3.355164
784.6098, 1.985352
785.0919, 2.788147
785.5740, 3.998413
786.0562, 6.982483
786.5383, 8.125793
787.0204, 1.853149
787.5025, 12.03503
787.9846, 20.14020
788.4667, 14.31781
788.9489, 6.677063
789.4310, 1.935364
789.9131, 0.2608640
790.3952, 1.396729
790.8773, 3.056885
791.3594, 4.401733
791.8416, 4.850647
792.3237, 4.815186
792.8058, 5.367065
793.2879, 6.567871
793.7700, 8.060730
794.2521, 9.519775
794.7343, 11.25641
795.2164, 13.37457
795.6985, 15.84558
796.1806, 19.29987
796.6627, 25.36523
797.1448, 30.71423
797.6270, 31.78705
798.1091, 27.17761
798.5912, 31.33685
799.0733, 45.90045
799.5554, 61.16431
800.0375, 67.54456
800.5197, 67.92072
801.0018, 66.64471
801.4839, 63.80920
801.9660, 63.38696
802.4481, 67.04230
802.9302, 74.64099
803.4124, 86.99188
803.8945, 109.9414
804.3766, 124.1592
804.8587, 126.6549
805.3408, 124.3922
805.8229, 121.2695
806.3051, 117.3304
806.7872, 123.6973
807.2693, 142.7885
807.7514, 163.5334
808.2335, 172.7183
808.7156, 176.9053
809.1978, 187.5444
809.6799, 210.6055
810.1620, 227.9785
810.6441, 223.8900
811.1262, 215.3054
811.6083, 219.1934
812.0905, 242.3741
812.5726, 263.3962
813.0547, 281.8916
813.5368, 297.6066
814.0189, 308.5436
814.5010, 315.7454
814.9832, 326.1482
815.4653, 341.5440
815.9474, 356.6571
816.4295, 365.5144
816.9116, 371.6967
817.3937, 379.6801
817.8759, 390.6459
818.3580, 403.2820
818.8401, 418.5105
819.3222, 434.3007
819.8043, 448.8061
820.2864, 461.5994
820.7686, 475.3845
821.2507, 490.9159
821.7328, 505.7555
822.2149, 512.9169
822.6970, 516.7643
823.1791, 530.3154
823.6613, 559.7891
824.1434, 589.4244
824.6255, 602.8337
825.1076, 612.0922
825.5897, 630.3914
826.0718, 672.1378
826.5540, 705.5979
827.0361, 725.6623
827.5182, 744.4796
828.0003, 780.1171
828.4824, 832.2726
828.9645, 875.4338
829.4467, 903.1237
829.9288, 926.1727
830.4109, 954.5018
830.8930, 988.8906
831.3751, 1032.803
831.8572, 1093.748
832.3394, 1146.766
832.8215, 1175.314
833.3036, 1195.694
833.7857, 1225.347
834.2678, 1262.470
834.7499, 1315.693
835.2321, 1391.679
835.7142, 1469.246
836.1963, 1516.401
836.6784, 1541.415
837.1605, 1574.466
837.6426, 1622.260
838.1248, 1672.277
838.6069, 1712.647
839.0890, 1750.175
839.5711, 1792.069
840.0532, 1843.198
840.5353, 1894.329
841.0175, 1947.271
841.4996, 1997.734
841.9817, 2040.730
842.4638, 2076.428
842.9459, 2106.225
843.4280, 2129.645
843.9102, 2150.389
844.3923, 2173.262
844.8744, 2195.821
845.3565, 2213.472
845.8386, 2226.068
846.3207, 2234.676
846.8029, 2234.000
847.2850, 2232.824
847.7671, 2239.783
848.2492, 2261.832
848.7313, 2273.310
849.2134, 2273.058
849.6956, 2264.615
850.1777, 2249.674
850.6598, 2229.409
851.1419, 2207.906
851.6240, 2185.641
852.1061, 2161.584
852.5883, 2132.088
853.0704, 2102.017
853.5525, 2075.948
854.0346, 2056.707
854.5167, 2036.304
854.9988, 2020.502
855.4810, 1995.536
855.9631, 1945.859
856.4452, 1870.806
856.9273, 1814.057
857.4094, 1777.779
857.8915, 1745.898
858.3737, 1704.029
858.8558, 1658.944
859.3379, 1621.657
859.8200, 1594.663
860.3021, 1560.339
860.7842, 1503.368
861.2664, 1445.510
861.7485, 1401.018
862.2306, 1371.655
862.7127, 1333.891
863.1948, 1286.221
863.6769, 1235.636
864.1591, 1182.180
864.6412, 1130.318
865.1233, 1093.627
865.6054, 1070.721
866.0875, 1042.266
866.5696, 986.8933
867.0518, 930.0476
867.5339, 893.1625
868.0160, 878.3378
868.4981, 839.4152
868.9802, 761.1930
869.4623, 690.7878
869.9445, 655.7106
870.4266, 646.6388
870.9087, 619.3652
871.3908, 575.2142
871.8729, 531.3090
872.3550, 499.8539
872.8372, 471.1547
873.3193, 436.1953
873.8014, 396.0300
874.2835, 359.1914
874.7656, 330.6134
875.2477, 301.7950
875.7299, 269.1167
876.2120, 235.0104
876.6941, 209.7325
877.1762, 193.3242
877.6583, 175.2211
878.1404, 148.7324
878.6226, 120.5160
879.1047, 101.0449
879.5869, 87.04651
880.0690, 69.78809
880.5511, 40.32373
881.0332, 13.64941
881.5153, 6.986816
881.9974, 21.70178
882.4796, 29.42822
882.9617, 28.86682
883.4438, 28.20483
883.9259, 28.46106
884.4080, 31.45142
884.8901, 40.21619
885.3723, 54.02417
885.8544, 72.23181
886.3365, 103.2529
886.8186, 124.2955
887.3007, 115.0894
887.7828, 93.98596
888.2650, 87.18237
888.7471, 101.3492
889.2292, 113.4436
889.7113, 121.8059
890.1934, 127.2076
890.6755, 129.8090
891.1577, 130.2756
891.6398, 130.7224
892.1219, 131.8634
892.6040, 131.6521
893.0861, 127.8669
893.5682, 122.6447
894.0504, 118.2195
894.5325, 116.4692
895.0146, 111.4901
895.4967, 103.1018
895.9788, 91.87024
896.4609, 78.06042
896.9431, 61.84827
897.4252, 45.20471
897.9073, 28.23181
898.3894, 8.996704
898.8715, 16.60083
899.3536, 43.83728
899.8358, 68.10266
900.3179, 88.11206
900.8000, 113.2906
901.2821, 143.8140
901.7642, 179.9553
902.2463, 223.9441
902.7285, 273.8839
903.2106, 323.1418
903.6927, 371.4329
904.1748, 417.3038
904.6569, 460.3293
905.1390, 500.8470
905.6212, 535.7828
906.1033, 567.3455
906.5854, 607.6068
907.0675, 670.3594
907.5496, 729.0771
908.0317, 776.2092
908.5139, 815.2866
908.9960, 857.6733
909.4781, 903.1843
909.9602, 950.1927
910.4423, 998.3174
910.9244, 1046.291
911.4066, 1096.919
911.8887, 1145.037
912.3708, 1181.914
912.8529, 1189.637
913.3350, 1204.859
913.8171, 1243.571
914.2993, 1285.767
914.7814, 1299.388
915.2635, 1281.000
915.7456, 1283.122
916.2277, 1317.246
916.7098, 1355.545
917.1920, 1368.871
917.6741, 1363.961
918.1562, 1345.851
918.6383, 1307.514
919.1204, 1286.087
919.6025, 1303.260
920.0847, 1333.186
920.5668, 1360.229
921.0489, 1384.483
921.5310, 1403.820
922.0131, 1416.939
922.4952, 1434.890
922.9774, 1467.427
923.4595, 1510.006
923.9416, 1557.571
924.4237, 1609.316
924.9058, 1662.145
925.3879, 1711.641
925.8701, 1766.071
926.3522, 1829.938
926.8343, 1902.531
927.3164, 1975.830
927.7985, 2050.259
928.2806, 2125.165
928.7628, 2200.060
929.2449, 2274.258
929.7270, 2345.440
930.2091, 2415.367
930.6912, 2491.117
931.1733, 2590.416
931.6555, 2677.284
932.1376, 2729.310
932.6197, 2766.647
933.1018, 2826.264
933.5839, 2914.167
934.0660, 2981.478
934.5482, 3016.866
935.0303, 3038.991
935.5124, 3071.145
935.9945, 3108.146
936.4766, 3141.683
936.9587, 3173.295
937.4409, 3193.431
937.9230, 3188.509
938.4051, 3178.270
938.8872, 3175.858
939.3693, 3180.375
939.8514, 3203.086
940.3336, 3246.955
940.8157, 3288.605
941.2978, 3305.321
941.7799, 3309.019
942.2620, 3312.301
942.7441, 3316.617
943.2263, 3333.728
943.7084, 3370.899
944.1905, 3418.383
944.6726, 3478.575
945.1547, 3548.863
945.6368, 3593.613
946.1190, 3609.649
946.6011, 3646.048
947.0832, 3739.027
947.5653, 3850.112
948.0474, 3931.481
948.5295, 3991.489
949.0117, 4049.299
949.4938, 4093.592
949.9759, 4160.625
950.4580, 4268.958
950.9401, 4394.130
951.4222, 4495.717
951.9044, 4573.650
952.3865, 4658.008
952.8686, 4753.888
953.3507, 4857.021
953.8328, 4970.439
954.3149, 5084.973
954.7971, 5186.858
955.2792, 5264.554
955.7613, 5356.453
956.2434, 5479.418
956.7255, 5603.580
957.2076, 5710.191
957.6898, 5800.200
958.1719, 5895.965
958.6540, 5998.002
959.1361, 6088.016
959.6182, 6146.121
960.1003, 6193.412
960.5825, 6249.379
961.0646, 6313.082
961.5467, 6374.733
962.0288, 6432.324
962.5109, 6487.964
962.9930, 6542.604
963.4752, 6593.752
963.9573, 6628.095
964.4394, 6649.410
964.9215, 6683.253
965.4036, 6740.127
965.8857, 6808.374
966.3679, 6880.759
966.8500, 6957.796
967.3321, 7040.697
967.8142, 7114.680
968.2963, 7224.045
968.7784, 7379.124
969.2606, 7547.378
969.7427, 7690.215
970.2248, 7817.051
970.7069, 7966.053
971.1890, 8139.195
971.6711, 8309.396
972.1533, 8446.972
972.6354, 8583.507
973.1175, 8743.145
973.5996, 8925.913
974.0817, 9096.781
974.5638, 9259.623
975.0460, 9394.579
975.5281, 9483.322
976.0102, 9550.078
976.4923, 9658.116
976.9744, 9789.438
977.4565, 9891.210
977.9387, 9933.612
978.4208, 9950.447
978.9029, 9951.413
979.3850, 9933.634
979.8671, 9884.702
980.3492, 9794.516
980.8314, 9743.198
981.3135, 9749.674
981.7956, 9748.771
982.2777, 9661.303
982.7598, 9523.882
983.2419, 9388.253
983.7241, 9263.656
984.2062, 9127.525
984.6883, 8954.318
985.1704, 8788.203
985.6525, 8655.461
986.1346, 8549.535
986.6168, 8401.607
987.0989, 8213.016
987.5810, 8022.414
988.0631, 7854.555
988.5452, 7691.816
989.0273, 7519.311
989.5095, 7340.378
989.9916, 7164.699
990.4737, 6985.367
990.9558, 6823.336
991.4379, 6686.692
991.9200, 6562.520
992.4022, 6435.753
992.8843, 6305.516
993.3664, 6159.776
993.8485, 5994.114
994.3306, 5840.872
994.8127, 5732.775
995.2949, 5638.792
995.7770, 5530.789
996.2591, 5403.238
996.7412, 5294.148
997.2233, 5209.535
997.7054, 5123.684
998.1876, 5016.412
998.6697, 4900.674
999.1518, 4807.256
999.6339, 4728.979
1000.116, 4636.892
1000.598, 4494.887
1001.080, 4361.825
1001.562, 4266.952
1002.044, 4189.276
1002.527, 4087.769
1003.009, 3961.614
1003.491, 3831.057
1003.973, 3699.859
1004.455, 3577.073
1004.937, 3483.575
1005.419, 3399.059
1005.901, 3298.877
1006.384, 3173.651
1006.866, 3064.372
1007.348, 2981.311
1007.830, 2899.424
1008.312, 2805.522
1008.794, 2702.713
1009.276, 2598.436
1009.758, 2494.658
1010.240, 2402.779
1010.723, 2343.515
1011.205, 2284.335
1011.687, 2198.757
1012.169, 2097.371
1012.651, 2009.778
1013.133, 1937.712
1013.615, 1875.470
1014.097, 1822.790
1014.580, 1776.644
1015.062, 1740.867
1015.544, 1708.251
1016.026, 1659.914
1016.508, 1588.725
1016.990, 1521.518
1017.472, 1468.360
1017.954, 1424.155
1018.436, 1388.890
1018.919, 1362.021
1019.401, 1321.974
1019.883, 1268.789
1020.365, 1212.920
1020.847, 1159.070
1021.329, 1106.781
1021.811, 1054.139
1022.293, 1002.438
1022.776, 953.5222
1023.258, 908.8013
1023.740, 865.4250
1024.222, 821.8342
1024.704, 780.8176
1025.186, 748.8318
1025.668, 722.9553
1026.150, 695.1067
1026.632, 664.1709
1027.115, 630.5647
1027.597, 595.5911
1028.079, 557.0981
1028.561, 507.9861
1029.043, 449.5845
1029.525, 415.8965
1030.007, 410.6243
1030.489, 404.7605
1030.972, 383.9421
1031.454, 356.5513
1031.936, 332.7793
1032.418, 311.1997
1032.900, 289.2485
1033.382, 264.0967
1033.864, 240.9082
1034.346, 220.4319
1034.828, 201.6785
1035.311, 185.8777
1035.793, 171.6733
1036.275, 148.8372
1036.757, 116.2412
1037.239, 88.07471
1037.721, 74.59570
1038.203, 68.81909
1038.685, 71.08032
1039.167, 79.06104
1039.650, 71.81787
1040.132, 44.48047
1040.614, 24.82202
1041.096, 27.19092
1041.578, 34.35815
1042.060, 13.60278
1042.542, 20.97510
1043.024, 42.87354
1043.507, 37.66089
1043.989, 31.70190
1044.471, 29.79565
1044.953, 28.84058
1045.435, 25.02734
1045.917, 19.03735
1046.399, 22.08081
1046.881, 33.94641
1047.364, 46.61377
1047.846, 56.70544
1048.328, 63.86499
1048.810, 68.16809
1049.292, 69.12720
1049.774, 64.59277
1050.256, 50.80554
1050.738, 45.78467
1051.220, 55.04663
1051.703, 69.16870
1052.185, 76.08398
1052.667, 77.46045
1053.149, 75.67188
1053.631, 70.84521
1054.113, 64.13794
1054.595, 50.24536
1055.077, 41.18787
1055.559, 45.23645
1056.042, 59.87512
1056.524, 69.61243
1057.006, 74.47400
1057.488, 74.63086
1057.970, 65.87219
1058.452, 56.87549
1058.934, 53.38159
1059.416, 53.36841
1059.899, 52.47766
1060.381, 49.43359
1060.863, 51.56458
1061.345, 61.71936
1061.827, 67.34009
1062.309, 44.40479
1062.791, 14.03308
1063.273, 15.64539
1063.755, 51.26636
1064.238, 67.07092
1064.720, 28.78906
1065.202, 6.341919
1065.684, 21.90259
1066.166, 22.85730
1066.648, 20.29529
1067.130, 14.99512
1067.612, 9.324951
1068.094, 2.357666
1068.577, 0.7155760
1069.059, 7.408325
1069.541, 18.02185
1070.023, 21.52832
1070.505, 15.21558
1070.987, 19.81262
1071.469, 36.99280
1071.951, 48.62781
1072.434, 33.53601
1072.916, 12.31494
1073.398, 10.33301
1073.880, 23.26062
1074.362, 34.63940
1074.844, 39.60938
1075.326, 45.38660
1075.808, 53.58936
1076.291, 61.57446
1076.773, 66.53662
1077.255, 68.17871
1077.737, 63.04456
1078.219, 50.14819
1078.701, 43.72437
1079.183, 60.79883
1079.665, 76.38611
1080.147, 76.29858
1080.630, 63.88293
1081.112, 58.25574
1081.594, 59.32202
1082.076, 64.38379
1082.558, 73.07922
1083.040, 84.13721
1083.522, 101.2283
1084.004, 117.8541
1084.486, 123.7917
1084.969, 110.3475
1085.451, 109.4653
1085.933, 123.8030
1086.415, 140.8929
1086.897, 151.2993
1087.379, 158.0602
1087.861, 169.1047
1088.343, 181.9965
1088.826, 186.0687
1089.308, 164.6947
1089.790, 151.6422
1090.272, 155.2102
1090.754, 166.8259
1091.236, 174.4092
1091.718, 178.3907
1092.200, 178.6017
1092.682, 174.3425
1093.165, 176.6648
1093.647, 205.0839
1094.129, 230.6036
1094.611, 231.2689
1095.093, 211.6304
1095.575, 205.0048
1096.057, 212.0278
1096.539, 216.4966
1097.022, 209.9629
1097.504, 203.2970
1097.986, 211.8534
1098.468, 225.6234
1098.950, 230.1630
1099.432, 218.1339
1099.914, 211.3358
1100.396, 211.4941
1100.879, 210.5177
1101.361, 200.3757
1101.843, 187.2345
1102.325, 182.2937
1102.807, 184.6481
1103.289, 190.7186
1103.771, 207.1650
1104.253, 215.3560
1104.735, 209.0020
1105.218, 196.9149
1105.700, 191.1603
1106.182, 190.7964
1106.664, 192.3501
1107.146, 195.7128
1107.628, 197.7618
1108.110, 197.6010
1108.592, 194.2091
1109.074, 184.0082
1109.557, 169.6895
1110.039, 164.1644
1110.521, 167.7939
1111.003, 174.8154
1111.485, 185.5587
1111.967, 193.1617
1112.449, 187.3641
1112.931, 177.2090
1113.414, 172.0776
1113.896, 173.3239
1114.378, 176.2382
1114.860, 182.4357
1115.342, 184.6686
1115.824, 176.1284
1116.306, 164.0856
1116.788, 161.9606
1117.271, 164.6995
1117.753, 161.4683
1118.235, 138.2250
1118.717, 125.7755
1119.199, 128.8038
1119.681, 135.8512
1120.163, 137.9135
1120.645, 136.7396
1121.127, 132.6295
1121.609, 124.3875
1122.092, 118.6605
1122.574, 126.7427
1123.056, 134.2124
1123.538, 134.7753
1124.020, 131.4752
1124.502, 129.9449
1124.984, 129.3685
1125.466, 127.5636
1125.949, 124.0730
1126.431, 120.7932
1126.913, 113.8700
1127.395, 113.5725
1127.877, 133.6331
1128.359, 168.8662
1128.841, 175.7777
1129.323, 152.9836
1129.806, 135.9740
1130.288, 138.7805
1130.770, 147.4691
1131.252, 154.0876
1131.734, 157.6207
1132.216, 153.8389
1132.698, 137.0961
1133.180, 133.1030
1133.662, 144.9775
1134.145, 157.2734
1134.627, 157.9353
1135.109, 154.2053
1135.591, 161.4573
1136.073, 173.1002
1136.555, 173.2205
1137.037, 141.1554
1137.519, 124.9503
1138.001, 132.4832
1138.484, 144.4010
1138.966, 138.2573
1139.448, 122.2936
1139.930, 118.7278
1140.412, 126.9913
1140.894, 130.6747
1141.376, 115.9047
1141.858, 104.5626
1142.341, 103.1923
1142.823, 106.8257
1143.305, 104.6104
1143.787, 99.29895
1144.269, 105.3056
1144.751, 126.5675
1145.233, 140.7825
1145.715, 126.3387
1146.198, 110.1650
1146.680, 107.5603
1147.162, 115.5420
1147.644, 120.8600
1148.126, 123.6116
1148.608, 124.8936
1149.090, 125.1235
1149.572, 123.6740
1150.054, 118.4918
1150.536, 112.5070
1151.019, 108.5757
1151.501, 106.9221
1151.983, 105.2290
1152.465, 103.6306
1152.947, 99.26086
1153.429, 85.90186
1153.911, 74.37811
1154.393, 77.84668
1154.876, 89.57373
1155.358, 98.00330
1155.840, 101.7797
1156.322, 103.9426
1156.804, 104.7573
1157.286, 103.0411
1157.768, 93.79663
1158.250, 84.25586
1158.733, 87.47760
1159.215, 98.96271
1159.697, 100.1677
1160.179, 81.23157
1160.661, 67.78119
1161.143, 62.94702
1161.625, 63.70209
1162.107, 70.06714
1162.589, 77.82050
1163.072, 80.13348
1163.554, 76.52271
1164.036, 68.79364
1164.518, 50.01550
1165.000, 40.25464
1165.482, 46.36914
1165.964, 60.59210
1166.446, 72.39294
1166.928, 80.53497
1167.411, 80.47388
1167.893, 69.86621
1168.375, 62.83875
1168.857, 65.99091
1169.339, 70.96008
1169.821, 76.18561
1170.303, 80.13220
1170.785, 76.70386
1171.268, 67.89459
1171.750, 59.73407
1172.232, 53.34692
1172.714, 49.85919
1173.196, 51.68109
1173.678, 55.20074
1174.160, 59.84882
1174.642, 64.50043
1175.125, 59.19080
1175.607, 46.04657
1176.089, 37.24707
1176.571, 44.24683
1177.053, 48.98694
1177.535, 40.22986
1178.017, 27.90118
1178.499, 20.59265
1178.981, 18.16864
1179.464, 20.23865
1179.946, 26.12695
1180.428, 26.71155
1180.910, 7.868042
1181.392, 8.624146
1181.874, 8.330688
1182.356, 0.1777950
1182.838, 4.303711
1183.320, 3.986694
1183.803, 0.7863770
1184.285, 5.366455
1184.767, 8.782898
1185.249, 2.145691
1185.731, 5.781738
1186.213, 9.247131
1186.695, 9.037354
1187.177, 7.544250
1187.660, 4.679810
1188.142, 2.438049
1188.624, 1.006409
1189.106, 1.438660
1189.588, 7.662598
1190.070, 13.66260
1190.552, 13.35168
1191.034, 7.701111
1191.516, 5.023560
1191.999, 5.598083
1192.481, 5.951233
1192.963, 4.674988
1193.445, 4.752502
1193.927, 12.84271
1194.409, 21.25555
1194.891, 20.64130
1195.373, 10.27979
1195.855, 4.792847
1196.338, 4.523376
1196.820, 5.381897
1197.302, 6.465576
1197.784, 6.743469
1198.266, 2.575378
1198.748, 1.792908
1199.230, 0.5005490
1199.712, 12.15692
1200.195, 15.69299
1200.677, 9.986633
1201.159, 4.126465
1201.641, 2.382202
1202.123, 3.600647
1202.605, 6.764648
1203.087, 11.97491
1203.569, 20.01904
1204.052, 33.53180
1204.534, 41.85522
1205.016, 44.69153
1205.498, 44.29089
1205.980, 40.03943
1206.462, 35.15302
1206.944, 33.08093
1207.426, 33.24646
1207.908, 34.52325
1208.391, 36.60382
1208.873, 40.61688
1209.355, 47.45697
1209.837, 51.80060
1210.319, 46.61298
1210.801, 38.31073
1211.283, 33.53827
1211.765, 32.01538
1212.247, 32.37402
1212.730, 34.74756
1213.212, 38.37677
1213.694, 43.84332
1214.176, 47.17603
1214.658, 41.58423
1215.140, 33.89569
1215.622, 31.90436
1216.104, 35.27191
1216.587, 39.40363
1217.069, 44.05066
1217.551, 49.50537
1218.033, 56.60822
1218.515, 60.92017
1218.997, 54.67499
1219.479, 45.01288
1219.961, 39.33136
1220.443, 38.37860
1220.926, 40.66296
1221.408, 47.20270
1221.890, 52.28973
1222.372, 54.51929
1222.854, 54.67224
1223.336, 53.17450
1223.818, 50.71271
1224.300, 47.92175
1224.782, 44.76068
1225.265, 39.65491
1225.747, 30.59985
1226.229, 30.20587
1226.711, 45.73480
1227.193, 62.41254
1227.675, 61.36810
1228.157, 51.73380
1228.639, 42.47089
1229.122, 34.09067
1229.604, 36.95374
1230.086, 53.85266
1230.568, 62.75629
1231.050, 51.60907
1231.532, 36.52539
1232.014, 35.83014
1232.496, 42.19092
1232.979, 46.15179
1233.461, 46.22571
1233.943, 51.02814
1234.425, 61.55606
1234.907, 67.97397
1235.389, 62.98062
1235.871, 55.87482
1236.353, 55.77936
1236.835, 59.34729
1237.318, 62.52176
1237.800, 65.23007
1238.282, 66.27008
1238.764, 65.27124
1239.246, 63.63113
1239.728, 64.25763
1240.210, 64.55316
1240.692, 58.63437
1241.175, 51.21445
1241.657, 48.95322
1242.139, 53.04056
1242.621, 52.68011
1243.103, 48.40601
1243.585, 45.93912
1244.067, 52.95154
1244.549, 58.23227
1245.031, 51.18893
1245.514, 39.33411
1245.996, 32.93588
1246.478, 32.16147
1246.960, 35.64536
1247.442, 43.27585
1247.924, 51.20233
1248.406, 58.70517
1248.888, 63.46494
1249.370, 63.52603
1249.853, 60.50220
1250.335, 55.24255
1250.817, 48.08585
1251.299, 47.96582
1251.781, 53.83060
1252.263, 55.24417
1252.745, 38.47974
1253.227, 24.26459
1253.710, 24.59781
1254.192, 31.19693
1254.674, 33.47687
1255.156, 32.57074
1255.638, 35.34412
1256.120, 41.86377
1256.602, 46.22577
1257.084, 44.28986
1257.567, 39.98523
1258.049, 32.14969
1258.531, 26.18680
1259.013, 32.40515
1259.495, 46.31277
1259.977, 52.89609
1260.459, 51.48801
1260.941, 47.32739
1261.423, 38.47388
1261.906, 32.20129
1262.388, 29.93832
1262.870, 31.67599
1263.352, 41.67944
1263.834, 54.09216
1264.316, 53.27142
1264.798, 39.33807
1265.280, 30.07788
1265.762, 35.74335
1266.245, 37.75079
1266.727, 31.21768
1267.209, 23.44821
1267.691, 25.87943
1268.173, 32.82935
1268.655, 36.35251
1269.137, 36.19739
1269.619, 32.98395
1270.102, 25.04651
1270.584, 20.10974
1271.066, 19.91992
1271.548, 22.89728
1272.030, 28.49323
1272.512, 34.94769
1272.994, 39.63068
1273.476, 42.39746
1273.958, 46.98907
1274.441, 54.65320
1274.923, 56.95041
1275.405, 51.22260
1275.887, 43.53299
1276.369, 40.52072
1276.851, 38.18521
1277.333, 33.01306
1277.815, 25.68436
1278.297, 18.21173
1278.780, 10.10751
1279.262, 12.80542
1279.744, 31.09537
1280.226, 47.09253
1280.708, 43.57321
1281.190, 34.82208
1281.672, 29.54871
1282.154, 27.66656
1282.637, 29.23199
1283.119, 33.43625
1283.601, 34.28775
1284.083, 29.81149
1284.565, 26.11893
1285.047, 28.15869
1285.529, 30.53214
1286.011, 30.21106
1286.494, 28.29691
1286.976, 28.29715
1287.458, 29.55978
1287.940, 30.83908
1288.422, 31.98575
1288.904, 32.08279
1289.386, 30.26846
1289.868, 28.02109
1290.350, 25.31137
1290.833, 22.67050
1291.315, 22.18747
1291.797, 22.42682
1292.279, 19.84491
1292.761, 13.17746
1293.243, 9.641205
1293.725, 11.78586
1294.207, 13.17557
1294.689, 11.00931
1295.172, 8.293823
1295.654, 11.79852
1296.136, 16.16318
1296.618, 12.34317
1297.100, 1.986877
1297.582, 6.428162
1298.064, 0.4296880
1298.546, 8.284119
1299.029, 14.53918
1299.511, 18.72256
1299.993, 19.94336
1300.475, 19.06940
1300.957, 15.76996
1301.439, 10.80090
1301.921, 10.29050
1302.403, 12.67880
1302.885, 8.414917
1303.368, 3.863037
1303.850, 0.3282780
1304.332, 4.066803
1304.814, 7.762207
1305.296, 7.260406
1305.778, 3.119751
1306.260, 0.7504270
1306.742, 2.1210000E-02
1307.224, 0.0000000E+00
##END=



