##NAMES=Arsenogorceixite
##RRUFFID=R060686
##IDEAL CHEMISTRY=BaAl_3_As^5+^O_4_(As^5+^O_3_OH)(OH)_6_
##LOCALITY=Clara mine, Rankach Valley, Oberwolfach, Wolfach, Black Forest, Baden-WÃ¼rttemberg, Germany
##OWNER=RRUFF
##SOURCE=Michael Scott
##DESCRIPTION=Stacked aggregates of pale greenish-yellow hexagonal plates
##STATUS=The identification of this mineral is not yet confirmed.
##URL=rruff.info/R060686
143.7000, 0.0000000E+00
144.1820, 2.262695
144.6650, 27.44238
145.1470, 91.58398
145.6290, 177.9297
146.1110, 289.6123
146.5930, 430.3936
147.0750, 609.4121
147.5570, 771.7764
148.0390, 897.7246
148.5210, 1005.599
149.0040, 1124.242
149.4860, 1273.409
149.9680, 1422.546
150.4500, 1570.277
150.9320, 1721.062
151.4140, 1832.096
151.8960, 1896.834
152.3780, 1925.234
152.8610, 1936.441
153.3430, 1932.685
153.8250, 1914.015
154.3070, 1889.624
154.7890, 1863.926
155.2710, 1815.984
155.7530, 1740.155
156.2350, 1669.655
156.7170, 1625.828
157.2000, 1641.389
157.6820, 1640.395
158.1640, 1558.902
158.6460, 1412.306
159.1280, 1264.920
159.6100, 1125.028
160.0920, 993.0576
160.5740, 872.3330
161.0570, 768.2695
161.5390, 677.7373
162.0210, 597.7852
162.5030, 542.8096
162.9850, 484.6709
163.4670, 404.1133
163.9490, 299.2148
164.4310, 202.6885
164.9130, 126.4307
165.3960, 68.85254
165.8780, 27.81641
166.3600, 20.93066
166.8420, 18.85449
167.3240, 0.2167970
167.8060, 41.17969
168.2880, 82.55762
168.7700, 110.1895
169.2530, 127.7803
169.7350, 143.4277
170.2170, 175.1172
170.6990, 200.0566
171.1810, 191.4229
171.6630, 134.3652
172.1450, 69.03809
172.6270, 27.41113
173.1090, 5.265625
173.5920, 13.27734
174.0740, 26.89746
174.5560, 45.49121
175.0380, 83.85547
175.5200, 151.0449
176.0020, 231.2373
176.4840, 307.3770
176.9660, 379.4668
177.4490, 451.7168
177.9310, 520.1465
178.4130, 590.4600
178.8950, 677.0215
179.3770, 789.7881
179.8590, 916.9541
180.3410, 1037.700
180.8230, 1153.328
181.3050, 1277.548
181.7880, 1424.980
182.2700, 1591.888
182.7520, 1772.578
183.2340, 1969.553
183.7160, 2176.842
184.1980, 2370.622
184.6800, 2548.321
185.1620, 2732.263
185.6450, 2964.373
186.1270, 3232.839
186.6090, 3482.948
187.0910, 3649.247
187.5730, 3769.680
188.0550, 3999.421
188.5370, 4363.445
189.0190, 4765.367
189.5010, 5082.887
189.9840, 5321.475
190.4660, 5534.461
190.9480, 5751.760
191.4300, 5970.850
191.9120, 6153.717
192.3940, 6293.264
192.8760, 6407.531
193.3580, 6535.709
193.8400, 6679.387
194.3230, 6796.656
194.8050, 6863.596
195.2870, 6880.920
195.7690, 6856.197
196.2510, 6780.288
196.7330, 6673.552
197.2150, 6589.283
197.6970, 6531.777
198.1800, 6468.065
198.6620, 6380.420
199.1440, 6268.430
199.6260, 6128.472
200.1080, 5954.160
200.5900, 5753.660
201.0720, 5552.391
201.5540, 5352.164
202.0360, 5167.422
202.5190, 5021.053
203.0010, 4918.105
203.4830, 4809.949
203.9650, 4684.309
204.4470, 4545.258
204.9290, 4425.801
205.4110, 4332.360
205.8930, 4238.754
206.3760, 4113.007
206.8580, 3942.275
207.3400, 3799.543
207.8220, 3708.643
208.3040, 3664.830
208.7860, 3598.480
209.2680, 3503.435
209.7500, 3399.508
210.2320, 3306.730
210.7140, 3227.912
211.1970, 3156.529
211.6790, 3095.496
212.1610, 3045.579
212.6430, 2977.147
213.1250, 2873.939
213.6070, 2775.613
214.0890, 2737.525
214.5720, 2693.161
215.0540, 2709.153
215.5360, 2709.906
216.0180, 2696.515
216.5000, 2627.174
216.9820, 2630.062
217.4640, 2604.072
217.9460, 2576.971
218.4280, 2590.230
218.9110, 2528.971
219.3930, 2541.107
219.8750, 2518.312
220.3570, 2502.510
220.8390, 2510.634
221.3210, 2533.112
221.8030, 2557.229
222.2850, 2587.791
222.7670, 2610.176
223.2500, 2618.104
223.7320, 2609.001
224.2140, 2598.502
224.6960, 2586.256
225.1780, 2572.950
225.6600, 2562.996
226.1420, 2567.018
226.6240, 2556.795
227.1070, 2516.324
227.5890, 2424.760
228.0710, 2359.870
228.5530, 2337.053
229.0350, 2337.711
229.5170, 2313.837
229.9990, 2252.950
230.4810, 2185.925
230.9630, 2126.231
231.4450, 2080.544
231.9280, 2020.622
232.4100, 1936.160
232.8920, 1839.082
233.3740, 1770.268
233.8560, 1752.773
234.3380, 1729.062
234.8200, 1667.976
235.3030, 1539.332
235.7850, 1439.979
236.2670, 1388.598
236.7490, 1366.800
237.2310, 1309.976
237.7130, 1191.856
238.1950, 1076.068
238.6770, 998.0254
239.1590, 984.0469
239.6410, 950.8760
240.1240, 879.8711
240.6060, 786.4756
241.0880, 733.2480
241.5700, 736.5049
242.0520, 758.7695
242.5340, 782.9834
243.0160, 819.7979
243.4980, 834.3799
243.9800, 813.9346
244.4630, 767.9648
244.9450, 741.8604
245.4270, 747.8223
245.9090, 756.6699
246.3910, 747.4785
246.8730, 696.3457
247.3550, 679.0898
247.8370, 662.6553
248.3200, 676.3838
248.8020, 682.9043
249.2840, 682.6309
249.7660, 654.8838
250.2480, 662.8623
250.7300, 656.6650
251.2120, 649.9746
251.6940, 655.3906
252.1760, 695.3887
252.6590, 731.6543
253.1410, 767.2666
253.6230, 796.6533
254.1050, 817.3877
254.5870, 830.6055
255.0690, 832.3604
255.5510, 815.9766
256.0330, 787.0332
256.5160, 774.9941
256.9980, 784.4902
257.4800, 804.0107
257.9620, 827.6738
258.4440, 860.0400
258.9260, 883.4482
259.4080, 892.6055
259.8900, 890.3252
260.3720, 891.6436
260.8550, 891.0508
261.3370, 902.2686
261.8190, 941.3262
262.3010, 1028.046
262.7830, 1082.377
263.2650, 1084.898
263.7470, 1047.888
264.2290, 1036.560
264.7110, 1064.697
265.1940, 1092.712
265.6760, 1088.575
266.1580, 1039.606
266.6400, 1006.330
267.1220, 1000.914
267.6040, 1016.242
268.0860, 1019.935
268.5690, 1010.021
269.0510, 993.8848
269.5330, 976.7842
270.0150, 959.7529
270.4970, 938.0693
270.9790, 909.8164
271.4610, 877.2070
271.9430, 847.5020
272.4250, 818.7656
272.9080, 799.0879
273.3900, 798.2715
273.8720, 820.2158
274.3540, 835.1123
274.8360, 837.5498
275.3180, 831.6816
275.8000, 834.1816
276.2820, 848.7021
276.7640, 857.5557
277.2470, 838.0322
277.7290, 783.9346
278.2110, 770.1230
278.6930, 818.0674
279.1750, 899.7666
279.6570, 933.1064
280.1390, 911.9385
280.6210, 875.3037
281.1030, 838.4609
281.5860, 799.6240
282.0680, 783.6553
282.5500, 797.5889
283.0320, 833.4277
283.5140, 874.8223
283.9960, 922.9717
284.4780, 959.2188
284.9600, 967.2783
285.4430, 950.0615
285.9250, 928.9248
286.4070, 898.3281
286.8890, 871.7783
287.3710, 886.8350
287.8530, 945.8428
288.3350, 1002.701
288.8170, 1016.437
289.2990, 994.5684
289.7820, 1000.840
290.2640, 1051.798
290.7460, 1115.145
291.2280, 1126.112
291.7100, 1087.859
292.1920, 1059.435
292.6740, 1085.438
293.1560, 1150.901
293.6380, 1207.163
294.1210, 1251.615
294.6030, 1283.697
295.0850, 1286.427
295.5670, 1264.945
296.0490, 1256.673
296.5310, 1293.739
297.0130, 1360.232
297.4960, 1417.206
297.9780, 1458.701
298.4600, 1491.762
298.9420, 1521.675
299.4240, 1549.950
299.9060, 1579.858
300.3880, 1604.798
300.8700, 1635.085
301.3520, 1694.802
301.8350, 1789.034
302.3170, 1879.069
302.7990, 1917.065
303.2810, 1919.469
303.7630, 1928.446
304.2450, 1975.902
304.7270, 2035.405
305.2090, 2069.904
305.6910, 2075.594
306.1740, 2075.045
306.6560, 2088.062
307.1380, 2109.591
307.6200, 2130.127
308.1020, 2155.869
308.5840, 2172.008
309.0660, 2165.762
309.5480, 2137.875
310.0300, 2094.309
310.5130, 2026.321
310.9950, 1949.330
311.4770, 1883.879
311.9590, 1846.974
312.4410, 1815.513
312.9230, 1778.031
313.4050, 1734.104
313.8870, 1684.929
314.3700, 1624.396
314.8520, 1561.147
315.3340, 1503.500
315.8160, 1461.136
316.2980, 1418.594
316.7800, 1365.021
317.2620, 1303.061
317.7440, 1249.069
318.2260, 1225.976
318.7090, 1205.104
319.1910, 1165.141
319.6730, 1082.235
320.1550, 1001.080
320.6370, 933.9922
321.1190, 878.7412
321.6010, 825.5586
322.0830, 773.0127
322.5650, 721.2236
323.0480, 669.4600
323.5300, 604.6006
324.0120, 557.1299
324.4940, 546.5732
324.9760, 558.3906
325.4580, 550.2305
325.9400, 488.4678
326.4220, 428.6670
326.9050, 395.1787
327.3870, 417.4141
327.8690, 417.1201
328.3510, 374.4883
328.8330, 310.5078
329.3150, 265.2393
329.7970, 254.7793
330.2790, 246.2100
330.7620, 227.6113
331.2440, 190.5439
331.7260, 170.4248
332.2080, 183.4863
332.6900, 205.0938
333.1720, 196.4883
333.6540, 140.4502
334.1360, 83.06836
334.6180, 30.94824
335.1000, 18.11426
335.5830, 31.50781
336.0650, 13.12988
336.5470, 67.47949
337.0290, 70.16211
337.5110, 2.722656
337.9930, 55.94531
338.4750, 59.86035
338.9570, 20.41992
339.4400, 8.823242
339.9220, 36.43848
340.4040, 65.59375
340.8860, 50.80273
341.3680, 15.47559
341.8500, 49.80273
342.3320, 25.60840
342.8140, 38.10156
343.2970, 71.18164
343.7790, 69.67969
344.2610, 64.87988
344.7430, 91.43945
345.2250, 143.5967
345.7070, 159.0078
346.1890, 117.4043
346.6710, 50.39648
347.1530, 17.89844
347.6350, 18.72754
348.1180, 23.33398
348.6000, 14.31055
349.0820, 5.174805
349.5640, 30.17090
350.0460, 64.37500
350.5280, 89.55664
351.0100, 72.55664
351.4920, 23.70605
351.9750, 18.27344
352.4570, 18.27148
352.9390, 3.761719
353.4210, 22.59668
353.9030, 82.47559
354.3850, 136.1143
354.8670, 135.4004
355.3490, 98.91406
355.8320, 61.92871
356.3140, 32.25684
356.7960, 12.35156
357.2780, 7.815430
357.7600, 18.23633
358.2420, 30.42969
358.7240, 43.45508
359.2060, 51.37793
359.6880, 47.69629
360.1710, 4.147461
360.6530, 27.65234
361.1350, 8.763672
361.6170, 51.77051
362.0990, 92.33203
362.5810, 68.84668
363.0630, 30.24805
363.5450, 11.01074
364.0270, 38.65332
364.5100, 59.17188
364.9920, 58.31738
365.4740, 40.72852
365.9560, 19.91895
366.4380, 14.84082
366.9200, 41.84961
367.4020, 50.22070
367.8840, 24.52246
368.3660, 10.24707
368.8490, 11.49609
369.3310, 25.24023
369.8130, 46.22461
370.2950, 71.75977
370.7770, 108.2891
371.2590, 168.4365
371.7410, 265.7432
372.2240, 305.4902
372.7060, 249.8584
373.1880, 168.7490
373.6700, 145.1182
374.1520, 204.1787
374.6340, 258.3193
375.1160, 289.8096
375.5980, 299.8516
376.0800, 295.9834
376.5620, 268.8164
377.0450, 249.3398
377.5270, 238.7139
378.0090, 262.5977
378.4910, 278.0420
378.9730, 285.5283
379.4550, 261.2764
379.9370, 277.9023
380.4190, 278.1006
380.9020, 277.5898
381.3840, 290.8291
381.8660, 303.0010
382.3480, 340.6729
382.8300, 408.0059
383.3120, 482.3496
383.7940, 529.0059
384.2760, 551.6426
384.7590, 570.1699
385.2410, 580.9590
385.7230, 597.2109
386.2050, 653.7539
386.6870, 753.8701
387.1690, 846.3984
387.6510, 875.8467
388.1330, 864.1787
388.6150, 852.3555
389.0980, 850.1914
389.5800, 856.7598
390.0620, 877.5537
390.5440, 910.2783
391.0260, 935.6455
391.5080, 938.0967
391.9900, 931.8672
392.4720, 929.0693
392.9540, 931.5732
393.4370, 939.5674
393.9190, 954.7773
394.4010, 973.3906
394.8830, 992.1914
395.3650, 1004.434
395.8470, 1022.594
396.3290, 1058.178
396.8110, 1126.036
397.2930, 1179.366
397.7760, 1206.594
398.2580, 1213.698
398.7400, 1213.860
399.2220, 1188.247
399.7040, 1175.090
400.1860, 1182.719
400.6680, 1210.595
401.1510, 1248.119
401.6330, 1302.410
402.1150, 1364.322
402.5970, 1426.929
403.0790, 1496.423
403.5610, 1549.817
404.0430, 1583.205
404.5250, 1603.190
405.0070, 1629.343
405.4900, 1657.690
405.9720, 1695.646
406.4540, 1753.423
406.9360, 1834.162
407.4180, 1903.729
407.9000, 1956.929
408.3820, 2002.160
408.8640, 2059.396
409.3460, 2128.254
409.8280, 2184.850
410.3110, 2214.187
410.7930, 2224.937
411.2750, 2244.229
411.7570, 2270.661
412.2390, 2296.077
412.7210, 2313.240
413.2030, 2328.394
413.6850, 2353.418
414.1680, 2403.143
414.6500, 2452.892
415.1320, 2457.453
415.6140, 2424.565
416.0960, 2408.525
416.5780, 2477.614
417.0600, 2568.246
417.5420, 2607.001
418.0250, 2564.274
418.5070, 2505.615
418.9890, 2448.809
419.4710, 2398.430
419.9530, 2369.960
420.4350, 2414.344
420.9170, 2454.100
421.3990, 2441.488
421.8810, 2359.729
422.3640, 2285.521
422.8460, 2244.431
423.3280, 2218.861
423.8100, 2190.807
424.2920, 2168.113
424.7740, 2133.035
425.2560, 2071.458
425.7380, 1985.388
426.2200, 1925.064
426.7030, 1916.306
427.1850, 1906.872
427.6670, 1864.770
428.1490, 1770.606
428.6310, 1690.155
429.1130, 1622.506
429.5950, 1552.104
430.0770, 1527.701
430.5600, 1492.128
431.0420, 1445.984
431.5240, 1357.623
432.0060, 1323.782
432.4880, 1268.103
432.9700, 1211.534
433.4520, 1185.368
433.9340, 1103.163
434.4170, 1076.521
434.8990, 1023.644
435.3810, 989.6172
435.8630, 965.2461
436.3450, 913.1328
436.8270, 836.2363
437.3090, 759.9551
437.7910, 709.0957
438.2730, 668.8027
438.7550, 614.6973
439.2380, 538.9297
439.7200, 462.3906
440.2020, 394.9434
440.6840, 339.2617
441.1660, 300.6582
441.6480, 301.8848
442.1300, 304.9160
442.6120, 284.6738
443.0950, 239.0410
443.5770, 192.4590
444.0590, 153.1621
444.5410, 116.9492
445.0230, 80.35938
445.5050, 23.73633
445.9870, 11.62500
446.4690, 4.369141
446.9520, 33.79688
447.4340, 54.31445
447.9160, 51.12305
448.3980, 35.60742
448.8800, 9.810547
449.3620, 33.06836
449.8440, 67.29688
450.3260, 97.54297
450.8080, 115.0215
451.2900, 102.1992
451.7730, 48.41602
452.2550, 3.515625
452.7370, 17.87891
453.2190, 19.01367
453.7010, 18.87695
454.1830, 16.01953
454.6650, 18.96289
455.1470, 42.71094
455.6300, 81.96484
456.1120, 102.6855
456.5940, 97.77930
457.0760, 78.03906
457.5580, 48.08984
458.0400, 13.44141
458.5220, 3.029297
459.0040, 0.1445310
459.4870, 32.61719
459.9690, 136.0898
460.4510, 312.5371
460.9330, 454.8652
461.4150, 450.2012
461.8970, 377.4297
462.3790, 328.2676
462.8610, 340.5195
463.3430, 372.8262
463.8260, 417.4043
464.3080, 469.0176
464.7900, 510.8496
465.2720, 540.4570
465.7540, 556.1309
466.2360, 551.7285
466.7180, 508.7832
467.2000, 493.4102
467.6820, 523.9434
468.1650, 577.5000
468.6470, 630.6953
469.1290, 692.7734
469.6110, 737.4121
470.0930, 751.6973
470.5750, 740.5176
471.0570, 751.9355
471.5390, 789.6504
472.0220, 840.6992
472.5040, 901.9121
472.9860, 974.7812
473.4680, 1033.121
473.9500, 1073.664
474.4320, 1100.875
474.9140, 1115.965
475.3960, 1120.705
475.8780, 1131.328
476.3610, 1156.777
476.8430, 1193.338
477.3250, 1235.271
477.8070, 1283.010
478.2890, 1328.727
478.7710, 1370.562
479.2530, 1405.793
479.7350, 1426.859
480.2170, 1419.592
480.7000, 1421.756
481.1820, 1468.832
481.6640, 1544.539
482.1460, 1612.686
482.6280, 1648.898
483.1100, 1679.746
483.5920, 1721.004
484.0740, 1776.525
484.5560, 1815.770
485.0390, 1808.205
485.5210, 1793.168
486.0030, 1805.004
486.4850, 1878.867
486.9670, 1931.340
487.4490, 1949.467
487.9310, 1942.223
488.4140, 1940.672
488.8960, 1952.652
489.3780, 1956.109
489.8600, 1937.051
490.3420, 1893.342
490.8240, 1870.854
491.3060, 1876.271
491.7880, 1886.600
492.2700, 1867.094
492.7530, 1821.705
493.2350, 1797.625
493.7170, 1751.867
494.1990, 1762.096
494.6810, 1759.293
495.1630, 1743.568
495.6450, 1676.510
496.1270, 1674.342
496.6090, 1646.336
497.0920, 1617.756
497.5740, 1625.119
498.0560, 1565.236
498.5380, 1568.207
499.0200, 1562.109
499.5020, 1576.605
499.9840, 1652.420
500.4660, 1709.137
500.9480, 1698.160
501.4310, 1631.297
501.9130, 1585.229
502.3950, 1593.287
502.8770, 1614.371
503.3590, 1625.479
503.8410, 1607.287
504.3230, 1621.787
504.8050, 1685.324
505.2880, 1769.414
505.7700, 1840.787
506.2520, 1898.912
506.7340, 1945.934
507.2160, 1978.891
507.6980, 1999.725
508.1800, 2011.133
508.6620, 2009.844
509.1450, 2031.018
509.6270, 2119.492
510.1090, 2256.049
510.5910, 2349.205
511.0730, 2385.562
511.5550, 2412.086
512.0370, 2496.602
512.5190, 2613.777
513.0010, 2700.111
513.4840, 2703.805
513.9660, 2691.273
514.4480, 2719.596
514.9300, 2782.248
515.4120, 2847.619
515.8940, 2899.549
516.3760, 2948.756
516.8580, 3001.590
517.3410, 3059.348
517.8230, 3119.107
518.3050, 3192.248
518.7870, 3262.564
519.2690, 3309.104
519.7510, 3320.811
520.2330, 3321.469
520.7150, 3303.541
521.1970, 3274.209
521.6800, 3285.475
522.1620, 3362.588
522.6440, 3426.697
523.1260, 3425.967
523.6080, 3355.406
524.0900, 3301.779
524.5720, 3268.328
525.0540, 3246.832
525.5360, 3234.820
526.0190, 3228.385
526.5010, 3203.553
526.9830, 3148.021
527.4650, 3075.725
527.9470, 3002.033
528.4290, 2929.020
528.9110, 2860.688
529.3930, 2817.061
529.8750, 2769.932
530.3580, 2691.557
530.8400, 2577.006
531.3220, 2448.258
531.8040, 2283.570
532.2860, 2123.842
532.7680, 2016.682
533.2500, 2061.791
533.7320, 2055.770
534.2140, 1931.832
534.6970, 1723.307
535.1790, 1551.785
535.6610, 1429.283
536.1430, 1330.342
536.6250, 1253.822
537.1070, 1202.883
537.5890, 1135.713
538.0710, 1048.273
538.5540, 954.2637
539.0360, 865.2285
539.5180, 781.4668
540.0000, 709.6582
540.4820, 653.1055
540.9640, 607.4160
541.4460, 567.6484
541.9280, 532.9082
542.4110, 498.9082
542.8930, 456.1504
543.3750, 416.1074
543.8570, 402.0410
544.3390, 413.1680
544.8210, 410.6738
545.3030, 354.4824
545.7850, 282.2148
546.2670, 229.4102
546.7500, 216.2969
547.2320, 201.8906
547.7140, 163.2969
548.1960, 118.6758
548.6780, 100.2988
549.1600, 159.9219
549.6420, 188.6855
550.1240, 151.1621
550.6060, 52.23242
551.0890, 14.13672
551.5710, 42.10156
552.0530, 49.16797
552.5350, 39.94531
553.0170, 13.06055
553.4990, 1.566406
553.9810, 11.01172
554.4630, 24.68945
554.9450, 11.51953
555.4280, 20.68359
555.9100, 31.93945
556.3920, 1.542969
556.8740, 51.49805
557.3560, 90.58789
557.8380, 116.9434
558.3200, 122.9883
558.8020, 80.75000
559.2840, 32.07031
559.7670, 13.96094
560.2490, 36.61719
560.7310, 47.92578
561.2130, 16.91016
561.6950, 26.19141
562.1770, 54.09766
562.6590, 33.09961
563.1410, 35.23242
563.6240, 76.89648
564.1060, 140.9238
564.5880, 186.7969
565.0700, 211.0957
565.5520, 223.4141
566.0340, 225.5215
566.5160, 217.7617
566.9980, 200.3691
567.4810, 170.8398
567.9630, 148.7656
568.4450, 153.8438
568.9270, 180.0488
569.4090, 212.2949
569.8910, 253.2051
570.3730, 280.0059
570.8550, 248.9883
571.3380, 187.2227
571.8200, 149.0098
572.3020, 173.1973
572.7840, 210.7559
573.2660, 239.4922
573.7480, 259.0430
574.2300, 270.5527
574.7120, 268.2324
575.1940, 264.4570
575.6770, 266.7617
576.1590, 280.2363
576.6410, 278.3398
577.1230, 245.2812
577.6050, 210.8770
578.0870, 205.0645
578.5690, 238.4277
579.0510, 262.9492
579.5330, 271.2949
580.0160, 271.0664
580.4980, 281.3379
580.9800, 301.6387
581.4620, 311.6367
581.9440, 292.6016
582.4260, 260.0645
582.9080, 250.5820
583.3900, 261.7676
583.8720, 269.6641
584.3550, 243.0957
584.8370, 212.8105
585.3190, 214.8828
585.8010, 265.9766
586.2830, 311.2500
586.7650, 323.6250
587.2470, 317.0625
587.7290, 309.2480
588.2110, 303.7012
588.6940, 300.2598
589.1760, 300.6699
589.6580, 303.8398
590.1400, 313.1270
590.6220, 333.4824
591.1040, 351.6543
591.5860, 365.6758
592.0680, 375.4707
592.5510, 362.3340
593.0330, 323.0312
593.5150, 278.9844
593.9970, 245.4648
594.4790, 224.3047
594.9610, 222.5801
595.4430, 245.4961
595.9250, 272.4414
596.4070, 277.7188
596.8900, 272.9258
597.3720, 279.2891
597.8540, 332.4375
598.3360, 373.3457
598.8180, 362.1016
599.3000, 309.9824
599.7820, 269.7520
600.2650, 256.1523
600.7470, 252.9629
601.2290, 252.0234
601.7110, 250.9961
602.1930, 271.3340
602.6750, 328.8281
603.1570, 385.7168
603.6390, 409.0605
604.1210, 397.1270
604.6040, 369.3477
605.0860, 322.1934
605.5680, 278.5059
606.0500, 282.2285
606.5320, 322.4023
607.0140, 357.2227
607.4960, 367.9551
607.9780, 365.9355
608.4600, 365.3301
608.9430, 363.6699
609.4250, 357.5918
609.9070, 342.9355
610.3890, 326.8203
610.8710, 312.8574
611.3530, 300.1270
611.8350, 290.9863
612.3170, 293.9902
612.7990, 296.2285
613.2820, 285.6719
613.7640, 240.9473
614.2460, 230.8438
614.7280, 276.8105
615.2100, 336.5078
615.6920, 331.5215
616.1740, 256.3848
616.6560, 193.8867
617.1380, 173.0020
617.6210, 173.6250
618.1030, 138.7578
618.5850, 76.93164
619.0670, 47.11914
619.5490, 125.4492
620.0310, 229.1562
620.5130, 257.2930
620.9950, 202.0195
621.4770, 151.6855
621.9600, 154.3848
622.4420, 180.2227
622.9240, 206.3535
623.4060, 234.4727
623.8880, 250.9922
624.3700, 253.3691
624.8520, 244.1191
625.3340, 222.0566
625.8170, 171.7480
626.2990, 149.4062
626.7810, 177.1816
627.2630, 232.3750
627.7450, 243.5566
628.2270, 209.7246
628.7090, 166.5508
629.1910, 120.4512
629.6740, 80.81250
630.1560, 83.56836
630.6380, 125.1992
631.1200, 152.6172
631.6020, 113.1875
632.0840, 48.78516
632.5660, 0.2324220
633.0480, 25.65234
633.5310, 40.59961
634.0130, 49.83789
634.4950, 50.79102
634.9770, 40.20117
635.4590, 9.386719
635.9410, 22.08008
636.4230, 59.87891
636.9050, 94.61523
637.3870, 101.4883
637.8700, 74.73828
638.3520, 41.79297
638.8340, 5.587891
639.3160, 28.27930
639.7980, 37.38086
640.2800, 22.50977
640.7620, 3.400391
641.2440, 12.62891
641.7260, 22.59375
642.2090, 18.76953
642.6910, 2.9297000E-02
643.1730, 15.20117
643.6550, 17.64062
644.1370, 10.03125
644.6190, 7.830078
645.1010, 63.14258
645.5830, 83.90625
646.0650, 20.75977
646.5480, 66.65625
647.0300, 96.89844
647.5120, 46.32617
647.9940, 6.695313
648.4760, 53.49609
648.9580, 89.22656
649.4400, 89.33203
649.9220, 51.72070
650.4040, 33.63477
650.8870, 84.85742
651.3690, 169.2988
651.8510, 205.9609
652.3330, 198.7168
652.8150, 188.1094
653.2970, 216.6660
653.7790, 246.4531
654.2610, 237.0840
654.7440, 173.0000
655.2260, 120.6113
655.7080, 112.2109
656.1900, 118.2188
656.6720, 110.2363
657.1540, 70.54492
657.6360, 47.67578
658.1180, 51.68750
658.6010, 65.74609
659.0830, 57.35352
659.5650, 23.12891
660.0470, 5.371094
660.5290, 24.44531
661.0110, 27.45898
661.4930, 44.60352
661.9750, 1.480469
662.4580, 26.99023
662.9400, 41.60547
663.4220, 0.9003910
663.9040, 31.66602
664.3860, 33.81445
664.8680, 34.80273
665.3500, 75.64062
665.8320, 43.00781
666.3140, 83.19531
666.7970, 94.30273
667.2790, 118.7461
667.7610, 114.3730
668.2430, 118.9238
668.7250, 152.2871
669.2070, 169.6816
669.6890, 147.3516
670.1710, 152.4902
670.6530, 169.6445
671.1350, 176.1660
671.6180, 174.3418
672.1000, 176.2051
672.5820, 192.6719
673.0640, 206.8145
673.5460, 196.9434
674.0280, 171.0312
674.5100, 150.1035
674.9920, 156.2637
675.4740, 159.1465
675.9570, 140.5605
676.4390, 101.0879
676.9210, 75.58008
677.4030, 73.69141
677.8850, 76.33789
678.3670, 74.90039
678.8490, 68.64844
679.3310, 61.71875
679.8140, 51.13086
680.2960, 48.30078
680.7780, 66.08203
681.2600, 100.2090
681.7420, 136.2773
682.2240, 172.3613
682.7060, 208.5000
683.1880, 250.6152
683.6700, 291.4121
684.1530, 320.0449
684.6350, 319.9844
685.1170, 324.6074
685.5990, 360.3359
686.0810, 407.3809
686.5630, 421.3203
687.0450, 364.1758
687.5280, 331.5742
688.0100, 353.7988
688.4920, 414.1973
688.9740, 445.3887
689.4560, 444.6172
689.9380, 433.4590
690.4200, 415.6250
690.9020, 394.7988
691.3840, 376.5020
691.8670, 362.3613
692.3490, 372.2832
692.8310, 452.8711
693.3130, 546.6621
693.7950, 591.5742
694.2770, 572.9961
694.7590, 550.6602
695.2410, 529.5352
695.7230, 521.8008
696.2060, 540.4629
696.6880, 623.1875
697.1700, 651.3770
697.6520, 599.9492
698.1340, 530.6758
698.6160, 529.8242
699.0980, 599.6484
699.5800, 654.2891
700.0620, 675.0449
700.5450, 675.0645
701.0270, 660.1777
701.5090, 640.8633
701.9910, 644.6406
702.4730, 707.1387
702.9550, 776.5957
703.4370, 818.7031
703.9190, 836.6992
704.4020, 843.9629
704.8840, 828.5645
705.3660, 831.4219
705.8480, 867.9629
706.3300, 933.6621
706.8120, 997.3887
707.2940, 1058.273
707.7760, 1117.322
708.2580, 1179.809
708.7410, 1245.467
709.2230, 1296.377
709.7050, 1332.518
710.1870, 1355.713
710.6690, 1349.648
711.1510, 1338.811
711.6330, 1359.000
712.1150, 1418.457
712.5970, 1495.986
713.0800, 1604.447
713.5620, 1714.438
714.0440, 1796.508
714.5260, 1806.117
715.0080, 1844.088
715.4900, 1920.553
715.9720, 2019.449
716.4550, 2117.998
716.9370, 2218.162
717.4190, 2314.182
717.9010, 2407.039
718.3830, 2491.615
718.8650, 2548.391
719.3470, 2586.754
719.8290, 2653.869
720.3110, 2786.852
720.7940, 2938.543
721.2760, 3074.969
721.7580, 3196.230
722.2400, 3296.566
722.7220, 3374.012
723.2040, 3436.977
723.6860, 3466.059
724.1680, 3470.904
724.6510, 3565.672
725.1330, 3797.535
725.6150, 4001.217
726.0970, 4073.918
726.5790, 4032.209
727.0610, 4021.695
727.5430, 4043.070
728.0250, 4089.701
728.5070, 4189.494
728.9890, 4295.896
729.4720, 4326.611
729.9540, 4261.283
730.4360, 4212.855
730.9180, 4271.432
731.4000, 4353.652
731.8820, 4392.531
732.3640, 4368.936
732.8460, 4311.732
733.3280, 4196.459
733.8110, 4069.383
734.2930, 3987.490
734.7750, 3956.332
735.2570, 3926.410
735.7390, 3895.730
736.2210, 3849.498
736.7030, 3744.143
737.1850, 3605.135
737.6670, 3504.141
738.1500, 3500.109
738.6320, 3495.148
739.1140, 3413.648
739.5960, 3285.406
740.0780, 3170.311
740.5600, 3090.451
741.0420, 3018.465
741.5240, 2948.361
742.0070, 2881.377
742.4890, 2825.840
742.9710, 2787.055
743.4530, 2735.977
743.9350, 2650.090
744.4170, 2547.402
744.8990, 2491.428
745.3810, 2476.531
745.8640, 2458.158
746.3460, 2397.367
746.8280, 2326.688
747.3100, 2283.520
747.7920, 2266.166
748.2740, 2233.793
748.7560, 2171.229
749.2380, 2090.855
749.7210, 1999.070
750.2030, 1896.260
750.6850, 1781.865
751.1670, 1645.568
751.6490, 1522.699
752.1310, 1448.418
752.6130, 1415.732
753.0950, 1347.453
753.5770, 1233.914
754.0600, 1151.756
754.5420, 1086.510
755.0240, 1093.992
755.5060, 1083.781
755.9880, 1056.846
756.4700, 963.1094
756.9520, 955.5508
757.4340, 913.4180
757.9160, 869.8320
758.3990, 874.3066
758.8810, 790.1348
759.3630, 793.8027
759.8450, 762.3730
760.3270, 746.9707
760.8090, 689.5898
761.2910, 656.2832
761.7730, 596.3379
762.2550, 539.7754
762.7380, 541.3223
763.2200, 570.9512
763.7020, 568.8926
764.1840, 472.6543
764.6660, 390.0137
765.1480, 376.2012
765.6300, 405.7207
766.1120, 426.2422
766.5940, 442.5059
767.0770, 432.6074
767.5590, 377.5078
768.0410, 301.6387
768.5230, 282.0977
769.0050, 317.7363
769.4870, 336.6543
769.9690, 301.4453
770.4510, 241.6914
770.9340, 203.3555
771.4160, 179.5957
771.8980, 147.9297
772.3800, 77.98828
772.8620, 16.48633
773.3440, 5.718750
773.8260, 6.619141
774.3080, 4.607422
774.7910, 19.58008
775.2730, 46.92188
775.7550, 70.89258
776.2370, 91.61328
776.7190, 111.1270
777.2010, 129.0059
777.6830, 149.9590
778.1650, 193.1895
778.6480, 233.9844
779.1300, 222.7754
779.6120, 164.0176
780.0940, 113.1152
780.5760, 102.2168
781.0580, 108.7773
781.5400, 126.8340
782.0220, 160.3906
782.5040, 170.2852
782.9870, 143.6484
783.4690, 114.2617
783.9510, 100.5293
784.4330, 102.8301
784.9150, 116.1836
785.3970, 141.5332
785.8790, 163.7988
786.3610, 170.9844
786.8430, 166.1543
787.3260, 150.0527
787.8080, 121.3027
788.2900, 98.78711
788.7720, 97.65234
789.2540, 102.5098
789.7360, 103.5234
790.2180, 103.0723
790.7000, 88.76758
791.1820, 53.60156
791.6650, 16.46875
792.1470, 0.8906250
792.6290, 0.5253910
793.1110, 21.19922
793.5930, 69.13672
794.0750, 109.7461
794.5570, 91.09180
795.0390, 49.23047
795.5210, 39.04883
796.0040, 83.83594
796.4860, 122.9824
796.9680, 130.2871
797.4500, 123.9141
797.9320, 121.9102
798.4140, 126.1582
798.8960, 132.1230
799.3780, 140.3613
799.8600, 150.3457
800.3430, 161.5586
800.8250, 174.1992
801.3070, 189.3750
801.7890, 206.6719
802.2710, 228.0078
802.7530, 253.8359
803.2350, 284.7832
803.7180, 324.0020
804.2000, 385.2852
804.6820, 433.1582
805.1640, 458.0078
805.6460, 466.1426
806.1280, 459.5605
806.6100, 429.6367
807.0920, 417.2676
807.5740, 427.2148
808.0570, 456.9219
808.5390, 521.5488
809.0210, 605.3145
809.5030, 647.9570
809.9850, 613.4902
810.4670, 575.8652
810.9490, 595.5332
811.4310, 646.5215
811.9140, 691.8125
812.3960, 719.6895
812.8780, 743.5996
813.3600, 752.6250
813.8420, 766.7070
814.3240, 829.9727
814.8060, 949.0586
815.2880, 1030.287
815.7700, 1041.449
816.2530, 1035.227
816.7350, 1102.102
817.2170, 1210.408
817.6990, 1287.096
818.1810, 1285.904
818.6630, 1275.596
819.1450, 1282.168
819.6270, 1303.283
820.1090, 1335.273
820.5920, 1384.877
821.0740, 1431.326
821.5560, 1466.357
822.0380, 1502.986
822.5200, 1569.572
823.0020, 1662.938
823.4840, 1754.246
823.9660, 1834.523
824.4480, 1907.934
824.9310, 1978.070
825.4130, 2044.098
825.8950, 2105.363
826.3770, 2150.895
826.8590, 2203.039
827.3410, 2265.412
827.8230, 2337.547
828.3050, 2419.139
828.7870, 2513.688
829.2700, 2605.889
829.7520, 2691.883
830.2340, 2777.588
830.7160, 2875.949
831.1980, 2987.059
831.6800, 3112.154
832.1620, 3271.961
832.6440, 3411.693
833.1270, 3476.773
833.6090, 3501.297
834.0910, 3542.797
834.5730, 3604.801
835.0550, 3699.635
835.5370, 3845.207
836.0190, 4008.344
836.5010, 4123.523
836.9840, 4194.189
837.4660, 4296.385
837.9480, 4455.832
838.4300, 4626.666
838.9120, 4761.744
839.3940, 4865.119
839.8760, 4945.445
840.3580, 4975.574
840.8410, 5029.898
841.3230, 5144.625
841.8050, 5292.904
842.2870, 5430.805
842.7690, 5552.316
843.2510, 5683.004
843.7330, 5831.969
844.2150, 5981.803
844.6970, 6099.326
845.1800, 6192.889
845.6620, 6290.303
846.1440, 6398.805
846.6260, 6512.639
847.1080, 6626.150
847.5900, 6743.020
848.0720, 6868.725
848.5540, 7019.932
849.0360, 7159.109
849.5190, 7281.910
850.0010, 7394.273
850.4830, 7500.082
850.9650, 7599.514
851.4470, 7720.604
851.9290, 7873.455
852.4110, 8026.973
852.8930, 8139.152
853.3750, 8231.838
853.8570, 8342.150
854.3400, 8492.592
854.8220, 8630.889
855.3040, 8726.664
855.7860, 8809.732
856.2680, 8911.635
856.7500, 9040.379
857.2320, 9156.572
857.7140, 9251.676
858.1970, 9346.982
858.6790, 9473.475
859.1610, 9618.975
859.6430, 9756.518
860.1250, 9879.660
860.6070, 9984.678
861.0890, 10047.01
861.5710, 10100.81
862.0540, 10180.62
862.5360, 10305.06
863.0180, 10424.36
863.5000, 10535.71
863.9820, 10644.82
864.4640, 10764.79
864.9460, 10892.76
865.4280, 10956.16
865.9110, 10945.84
866.3930, 10945.37
866.8750, 11054.48
867.3570, 11200.19
867.8390, 11291.54
868.3210, 11307.24
868.8030, 11340.89
869.2850, 11426.72
869.7670, 11528.38
870.2500, 11637.76
870.7320, 11759.21
871.2140, 11828.39
871.6960, 11840.26
872.1780, 11841.39
872.6600, 11873.63
873.1420, 11916.30
873.6240, 11937.51
874.1060, 11934.98
874.5890, 11914.32
875.0710, 11812.86
875.5530, 11750.36
876.0350, 11835.54
876.5170, 12061.20
876.9990, 12147.10
877.4810, 12053.15
877.9630, 11943.88
878.4450, 11902.73
878.9280, 11912.52
879.4100, 11945.80
879.8920, 11991.62
880.3740, 11984.62
880.8560, 11858.21
881.3380, 11694.06
881.8200, 11523.77
882.3020, 11355.51
882.7840, 11225.43
883.2670, 11150.33
883.7490, 11087.24
884.2310, 11034.53
884.7130, 10978.68
885.1950, 10875.92
885.6770, 10729.80
886.1590, 10559.23
886.6410, 10339.20
887.1240, 10140.93
887.6060, 10060.34
888.0880, 10042.37
888.5700, 9971.344
889.0520, 9739.824
889.5340, 9559.564
890.0160, 9492.471
890.4980, 9471.879
890.9810, 9354.219
891.4630, 9138.666
891.9450, 8945.762
892.4270, 8803.447
892.9090, 8700.738
893.3910, 8671.855
893.8730, 8662.982
894.3550, 8580.738
894.8380, 8332.482
895.3200, 8113.553
895.8020, 7982.424
896.2840, 7882.201
896.7660, 7764.100
897.2480, 7631.191
897.7300, 7466.002
898.2120, 7263.676
898.6940, 7066.059
899.1770, 6937.754
899.6590, 6844.201
900.1410, 6725.746
900.6230, 6564.045
901.1050, 6408.592
901.5870, 6287.367
902.0690, 6178.018
902.5510, 6061.406
903.0330, 5934.670
903.5160, 5833.426
903.9980, 5761.293
904.4800, 5675.443
904.9620, 5524.121
905.4440, 5339.727
905.9260, 5197.197
906.4080, 5099.186
906.8900, 5002.125
907.3720, 4875.072
907.8550, 4745.352
908.3370, 4642.703
908.8190, 4561.641
909.3010, 4424.643
909.7830, 4207.912
910.2650, 4017.189
910.7470, 3905.660
911.2290, 3843.299
911.7110, 3762.240
912.1940, 3664.920
912.6760, 3557.959
913.1580, 3438.805
913.6400, 3317.348
914.1220, 3195.301
914.6040, 3074.822
915.0860, 2963.451
915.5680, 2873.039
916.0500, 2759.959
916.5330, 2604.990
917.0150, 2442.975
917.4970, 2342.584
917.9790, 2287.172
918.4610, 2214.209
918.9430, 2094.373
919.4250, 1984.805
919.9070, 1921.123
920.3900, 1890.254
920.8720, 1879.623
921.3540, 1913.174
921.8360, 1913.510
922.3180, 1874.098
922.8000, 1812.787
923.2820, 1734.287
923.7640, 1645.949
924.2470, 1592.082
924.7290, 1576.424
925.2110, 1559.002
925.6930, 1509.928
926.1750, 1447.572
926.6570, 1378.900
927.1390, 1300.955
927.6210, 1263.766
928.1040, 1301.430
928.5860, 1309.977
929.0680, 1212.537
929.5500, 1045.279
930.0320, 969.3535
930.5140, 973.7715
930.9960, 967.3633
931.4780, 871.5488
931.9600, 769.4512
932.4430, 717.2246
932.9250, 706.7207
933.4070, 695.0410
933.8890, 685.0625
934.3710, 661.5332
934.8530, 617.0605
935.3350, 561.5703
935.8170, 519.1660
936.2990, 486.8809
936.7820, 452.3145
937.2640, 401.5391
937.7460, 366.6504
938.2280, 400.9395
938.7100, 452.5605
939.1920, 447.7246
939.6740, 324.6758
940.1560, 256.0586
940.6380, 269.1016
941.1210, 290.4258
941.6030, 222.4297
942.0850, 93.57227
942.5670, 27.59766
943.0490, 39.76562
943.5310, 53.55078
944.0130, 3.460938
944.4950, 65.69922
944.9770, 74.12695
945.4600, 13.85156
945.9420, 10.43750
946.4240, 10.06055
946.9060, 45.89453
947.3880, 91.94141
947.8700, 138.6758
948.3520, 150.7227
948.8340, 134.0098
949.3170, 113.8438
949.7990, 90.83008
950.2810, 80.42969
950.7630, 100.5703
951.2450, 140.8086
951.7270, 169.0586
952.2090, 186.9824
952.6910, 186.2578
953.1740, 160.2109
953.6560, 125.2676
954.1380, 107.1016
954.6200, 102.7832
955.1020, 103.9375
955.5840, 108.1504
956.0660, 120.4277
956.5480, 162.8027
957.0310, 199.0625
957.5130, 189.6543
957.9950, 112.8320
958.4770, 62.77344
958.9590, 39.34180
959.4410, 40.81055
959.9230, 88.92383
960.4050, 153.3164
960.8870, 171.4531
961.3700, 142.0625
961.8520, 98.02734
962.3340, 23.32227
962.8160, 28.63477
963.2980, 13.54883
963.7800, 50.82031
964.2620, 55.97852
964.7440, 8.441406
965.2260, 56.99609
965.7090, 43.69336
966.1910, 14.81836
966.6730, 55.84766
967.1550, 135.6836
967.6370, 185.1777
968.1190, 157.6172
968.6010, 125.2559
969.0830, 98.20703
969.5650, 77.98828
970.0480, 66.29883
970.5300, 63.40039
971.0120, 66.71875
971.4940, 76.68945
971.9760, 88.13477
972.4580, 94.82031
972.9400, 100.9512
973.4220, 109.8301
973.9040, 121.0586
974.3870, 144.1699
974.8690, 189.7246
975.3510, 236.5996
975.8330, 278.3516
976.3150, 313.7109
976.7970, 322.8867
977.2790, 308.7891
977.7610, 310.4883
978.2440, 392.5234
978.7260, 461.0723
979.2080, 411.2793
979.6900, 288.7402
980.1720, 214.0977
980.6540, 230.2773
981.1360, 249.2832
981.6180, 263.1113
982.1010, 270.9707
982.5830, 274.2578
983.0650, 271.1777
983.5470, 248.4473
984.0290, 197.7793
984.5110, 160.2109
984.9930, 169.9434
985.4750, 199.6895
985.9570, 231.0312
986.4400, 267.0215
986.9220, 275.0332
987.4040, 247.6465
987.8860, 218.9590
988.3680, 217.3477
988.8500, 228.1855
989.3320, 211.6289
989.8140, 175.5547
990.2960, 156.7715
990.7790, 192.1738
991.2610, 226.8438
991.7430, 236.4238
992.2250, 232.8125
992.7070, 245.2324
993.1890, 277.4883
993.6710, 280.5488
994.1530, 236.0371
994.6350, 187.3066
995.1180, 189.9102
995.6000, 220.3496
996.0820, 245.4238
996.5640, 257.0703
997.0460, 267.1309
997.5280, 274.0332
998.0100, 283.6719
998.4920, 299.4492
998.9740, 321.1289
999.4570, 349.7500
999.9390, 384.9766
1000.421, 419.4102
1000.903, 461.4805
1001.385, 489.6562
1001.867, 471.3457
1002.349, 419.5078
1002.831, 402.6699
1003.314, 451.7773
1003.796, 476.3027
1004.278, 453.9707
1004.760, 404.5801
1005.242, 327.8145
1005.724, 253.1133
1006.206, 284.0547
1006.688, 494.9414
1007.171, 648.4863
1007.653, 576.5176
1008.135, 438.6582
1008.617, 364.0859
1009.099, 360.7148
1009.581, 354.7754
1010.063, 347.4629
1010.545, 337.3262
1011.027, 331.1328
1011.510, 318.2246
1011.992, 260.4102
1012.474, 174.5547
1012.956, 135.1445
1013.438, 222.7305
1013.920, 285.3320
1014.402, 284.0430
1014.884, 244.6230
1015.367, 211.3262
1015.849, 188.9805
1016.331, 180.4473
1016.813, 186.4316
1017.295, 198.1758
1017.777, 203.5547
1018.259, 209.9648
1018.741, 236.5801
1019.223, 303.2012
1019.706, 312.8379
1020.188, 247.4863
1020.670, 183.8633
1021.152, 177.4824
1021.634, 197.8027
1022.116, 161.3027
1022.598, 92.45703
1023.080, 71.28320
1023.563, 181.7012
1024.045, 285.8613
1024.527, 341.3770
1025.009, 363.6406
1025.491, 375.6816
1025.973, 377.3965
1026.455, 357.7441
1026.937, 308.1211
1027.419, 270.6992
1027.901, 311.7598
1028.384, 377.2285
1028.866, 403.3066
1029.348, 374.7188
1029.830, 353.7676
1030.312, 349.7422
1030.794, 347.4609
1031.276, 343.2227
1031.758, 334.9609
1032.241, 309.6406
1032.723, 271.7637
1033.205, 238.9180
1033.687, 213.4219
1034.169, 202.6406
1034.651, 216.6543
1035.133, 244.7480
1035.615, 270.6035
1036.098, 292.7480
1036.580, 316.0449
1037.062, 340.3438
1037.544, 363.6113
1038.026, 392.4922
1038.508, 413.2148
1038.990, 404.4238
1039.472, 363.5488
1039.954, 321.8555
1040.437, 284.0547
1040.919, 249.8164
1041.401, 218.8086
1041.883, 191.9766
1042.365, 170.5645
1042.847, 156.6445
1043.329, 153.9434
1043.811, 168.7793
1044.293, 186.7500
1044.776, 218.2363
1045.258, 237.6133
1045.740, 208.8730
1046.222, 108.4316
1046.704, 49.39648
1047.186, 35.66016
1047.668, 43.38477
1048.150, 55.12695
1048.633, 76.64844
1049.115, 126.6953
1049.597, 196.9395
1050.079, 238.1738
1050.561, 206.3496
1051.043, 180.7578
1051.525, 179.2266
1052.007, 191.2441
1052.490, 199.0820
1052.972, 203.1895
1053.454, 201.6172
1053.936, 193.1152
1054.418, 178.3047
1054.900, 131.2090
1055.382, 96.72852
1055.864, 127.1914
1056.346, 230.8691
1056.828, 276.8438
1057.311, 259.0977
1057.793, 220.0527
1058.275, 168.6582
1058.757, 122.7930
1059.239, 123.9980
1059.721, 150.8145
1060.203, 148.7949
1060.685, 54.14844
1061.168, 0.8085940
1061.650, 19.07617
1062.132, 61.99805
1062.614, 69.96289
1063.096, 51.45898
1063.578, 45.79688
1064.060, 57.89453
1064.542, 61.47070
1065.025, 28.34570
1065.507, 8.865234
1065.989, 35.41797
1066.471, 49.42578
1066.953, 29.65039
1067.435, 29.39453
1067.917, 68.21094
1068.399, 61.48828
1068.881, 39.62500
1069.364, 40.63086
1069.846, 50.33398
1070.328, 45.06250
1070.810, 0.7988280
1071.292, 7.505859
1071.774, 41.36328
1072.256, 96.14062
1072.738, 124.2363
1073.220, 127.9023
1073.703, 106.9531
1074.185, 66.01367
1074.667, 30.33008
1075.149, 6.261719
1075.631, 2.669922
1076.113, 19.53711
1076.595, 50.13281
1077.077, 47.64648
1077.559, 12.19922
1078.042, 8.525391
1078.524, 6.576172
1079.006, 2.720703
1079.488, 6.339844
1079.970, 10.91797
1080.452, 27.03711
1080.934, 56.14844
1081.416, 61.73828
1081.899, 32.07031
1082.381, 15.74219
1082.863, 34.00391
1083.345, 70.13867
1083.827, 102.3301
1084.309, 127.5781
1084.791, 139.6094
1085.273, 120.6387
1085.755, 120.8418
1086.238, 168.6680
1086.720, 210.8750
1087.202, 201.3906
1087.684, 149.1953
1088.166, 127.3164
1088.648, 134.7637
1089.130, 153.4297
1089.612, 200.0508
1090.094, 230.3242
1090.577, 196.9473
1091.059, 131.9668
1091.541, 107.5469
1092.023, 131.2070
1092.505, 150.2441
1092.987, 155.2500
1093.469, 169.1699
1093.951, 242.4902
1094.434, 318.2129
1094.916, 320.0000
1095.398, 237.1504
1095.880, 202.5957
1096.362, 239.5254
1096.844, 286.9102
1097.326, 334.8730
1097.808, 365.7930
1098.291, 319.9141
1098.773, 233.3125
1099.255, 192.5273
1099.737, 238.5938
1100.219, 290.4316
1100.701, 349.8086
1101.183, 383.8105
1101.665, 357.6699
1102.147, 280.0742
1102.630, 244.8125
1103.112, 248.7969
1103.594, 268.1484
1104.076, 296.0938
1104.558, 327.0586
1105.040, 367.3672
1105.522, 404.3457
1106.004, 415.2520
1106.486, 396.9121
1106.969, 369.2500
1107.451, 331.8242
1107.933, 303.9590
1108.415, 322.8594
1108.897, 346.2051
1109.379, 328.4453
1109.861, 269.8516
1110.343, 209.6465
1110.826, 138.4922
1111.308, 115.1250
1111.790, 166.9277
1112.272, 233.3477
1112.754, 206.1152
1113.236, 132.2402
1113.718, 101.2754
1114.200, 142.0605
1114.682, 180.2012
1115.165, 207.1094
1115.647, 215.3105
1116.129, 180.6816
1116.611, 125.8184
1117.093, 185.7129
1117.575, 327.1250
1118.057, 402.8320
1118.539, 294.1406
1119.021, 180.5430
1119.504, 139.9746
1119.986, 130.9688
1120.468, 108.9551
1120.950, 71.29688
1121.432, 91.37695
1121.914, 170.9473
1122.396, 233.5449
1122.878, 215.1328
1123.361, 168.3438
1123.843, 119.0605
1124.325, 73.64062
1124.807, 43.62305
1125.289, 27.05078
1125.771, 37.77148
1126.253, 81.72656
1126.735, 132.9082
1127.218, 157.1719
1127.700, 175.0449
1128.182, 217.9082
1128.664, 287.8066
1129.146, 331.0801
1129.628, 337.3809
1130.110, 330.6230
1130.592, 315.0527
1131.074, 294.0156
1131.557, 260.4316
1132.039, 229.2852
1132.521, 240.3438
1133.003, 324.4297
1133.485, 376.4004
1133.967, 374.5605
1134.449, 334.9199
1134.931, 241.5781
1135.413, 121.5059
1135.896, 109.2793
1136.378, 183.3223
1136.860, 252.3086
1137.342, 285.7988
1137.824, 290.9180
1138.306, 245.1113
1138.788, 189.5879
1139.270, 163.9707
1139.752, 167.5488
1140.235, 155.4414
1140.717, 127.3027
1141.199, 114.4492
1141.681, 176.7285
1142.163, 220.9707
1142.645, 157.1191
1143.127, 37.06055
1143.609, 10.24023
1144.092, 24.52930
1144.574, 55.63086
1145.056, 75.18164
1145.538, 75.85352
1146.020, 41.03125
1146.502, 7.015625
1146.984, 55.62500
1147.466, 99.34375
1147.948, 106.9688
1148.431, 71.38086
1148.913, 20.81641
1149.395, 45.47070
1149.877, 102.9355
1150.359, 110.0293
1150.841, 90.16797
1151.323, 69.27734
1151.805, 44.87109
1152.287, 64.30664
1152.770, 159.5586
1153.252, 216.2422
1153.734, 156.7598
1154.216, 53.13086
1154.698, 68.87695
1155.180, 159.0840
1155.662, 227.0117
1156.144, 240.3027
1156.627, 233.9141
1157.109, 203.4355
1157.591, 174.6309
1158.073, 167.0273
1158.555, 176.6133
1159.037, 194.6152
1159.519, 216.8477
1160.001, 225.6602
1160.484, 177.2520
1160.966, 163.6484
1161.448, 238.9863
1161.930, 323.1055
1162.412, 317.7480
1162.894, 238.6855
1163.376, 195.3633
1163.858, 190.8105
1164.340, 176.4570
1164.823, 99.81445
1165.305, 35.17969
1165.787, 23.92773
1166.269, 42.18555
1166.751, 54.20703
1167.233, 59.76953
1167.715, 35.58008
1168.197, 24.73438
1168.679, 67.14453
1169.162, 34.08203
1169.644, 14.07812
1170.126, 31.42969
1170.608, 28.04688
1171.090, 54.79492
1171.572, 111.6016
1172.054, 124.1602
1172.536, 60.91016
1173.019, 6.171875
1173.501, 23.12891
1173.983, 6.707031
1174.465, 36.75977
1174.947, 104.3262
1175.429, 163.0352
1175.911, 213.9238
1176.393, 237.9551
1176.875, 217.0410
1177.358, 185.3906
1177.840, 175.3242
1178.322, 178.2695
1178.804, 187.2363
1179.286, 209.5176
1179.768, 192.4492
1180.250, 127.6191
1180.732, 80.53516
1181.214, 101.2031
1181.697, 150.1152
1182.179, 192.6973
1182.661, 225.1836
1183.143, 239.2168
1183.625, 221.3164
1184.107, 209.1113
1184.589, 196.7852
1185.071, 214.4434
1185.554, 163.8730
1186.036, 224.0664
1186.518, 257.3672
1187.000, 265.2148
1187.482, 171.4102
1187.964, 208.8516
1188.446, 193.6875
1188.928, 176.3574
1189.411, 232.2734
1189.893, 153.2148
1190.375, 207.9531
1190.857, 209.2793
1191.339, 235.0508
1191.821, 207.8828
1192.303, 197.0605
1192.785, 239.1875
1193.267, 251.9902
1193.750, 218.7344
1194.232, 246.0488
1194.714, 165.1230
1195.196, 179.1797
1195.678, 234.2129
1196.160, 203.6133
1196.642, 231.8906
1197.124, 238.6113
1197.606, 142.5703
1198.089, 223.7812
1198.571, 228.3262
1199.053, 154.1777
1199.535, 229.3184
1200.017, 166.0371
1200.499, 152.0996
1200.981, 175.0527
1201.463, 158.1152
1201.945, 203.2930
1202.428, 189.8730
1202.910, 171.1230
1203.392, 175.6836
1203.874, 109.8652
1204.356, 155.3613
1204.838, 125.5215
1205.320, 144.0996
1205.802, 172.1543
1206.285, 128.7305
1206.767, 160.8164
1207.249, 76.29492
1207.731, 89.07812
1208.213, 91.72461
1208.695, 156.8086
1209.177, 72.81055
1209.659, 83.23633
1210.141, 133.8398
1210.624, 128.2031
1211.106, 146.0645
1211.588, 94.27539
1212.070, 107.8848
1212.552, 103.4688
1213.034, 160.9570
1213.516, 168.8418
1213.998, 117.7148
1214.480, 63.72656
1214.963, 115.4492
1215.445, 69.68750
1215.927, 81.89062
1216.409, 35.25586
1216.891, 37.94141
1217.373, 36.64453
1217.855, 66.44727
1218.337, 16.70117
1218.820, 70.60156
1219.302, 64.57031
1219.784, 76.17383
1220.266, 85.79297
1220.748, 14.93164
1221.230, 10.04688
1221.712, 99.43750
1222.194, 45.00977
1222.677, 19.60547
1223.159, 14.81641
1223.641, 52.83398
1224.123, 24.58398
1224.605, 25.20508
1225.087, 54.48242
1225.569, 76.11719
1226.051, 74.89062
1226.533, 63.47852
1227.016, 35.90039
1227.498, 13.85156
1227.980, 48.23828
1228.462, 105.3359
1228.944, 100.0508
1229.426, 26.88281
1229.908, 11.31250
1230.390, 47.89258
1230.872, 92.26172
1231.355, 90.90039
1231.837, 74.12891
1232.319, 93.99805
1232.801, 133.5566
1233.283, 158.3320
1233.765, 162.6191
1234.247, 173.8984
1234.729, 215.0840
1235.212, 222.1016
1235.694, 161.6973
1236.176, 84.70703
1236.658, 84.32227
1237.140, 125.6621
1237.622, 148.9492
1238.104, 140.1953
1238.586, 146.4727
1239.068, 185.4844
1239.551, 204.7832
1240.033, 180.1562
1240.515, 139.0918
1240.997, 126.5293
1241.479, 129.0586
1241.961, 123.0977
1242.443, 103.0566
1242.925, 87.41406
1243.407, 75.27734
1243.890, 75.97852
1244.372, 100.2852
1244.854, 126.5039
1245.336, 111.9512
1245.818, 81.16406
1246.300, 59.81055
1246.782, 45.50781
1247.264, 81.99414
1247.747, 182.5078
1248.229, 267.1094
1248.711, 303.3770
1249.193, 294.5488
1249.675, 202.1641
1250.157, 88.50586
1250.639, 55.19727
1251.121, 137.4648
1251.604, 157.8281
1252.086, 109.8574
1252.568, 59.66016
1253.050, 44.65234
1253.532, 40.91406
1254.014, 12.82227
1254.496, 12.67578
1254.978, 9.769531
1255.460, 92.48633
1255.943, 128.3555
1256.425, 115.0469
1256.907, 101.6602
1257.389, 121.1973
1257.871, 123.0742
1258.353, 117.7383
1258.835, 94.43555
1259.317, 56.45898
1259.799, 0.1113280
1260.281, 0.0000000E+00
##END=



