##NAMES=Arsendescloizite
##RRUFFID=R060947
##IDEAL CHEMISTRY=Pb^2+^Zn^2+^As^5+^O_4_(OH)
##LOCALITY=Ojuela mine, Mapimi, Durango, Mexico
##OWNER=RRUFF
##SOURCE=Bob Jenkins
##DESCRIPTION=Green mammillary aggregates associated with yellow and colorless mimetite and calcite
##STATUS=The identification of this mineral is not yet confirmed.
##URL=rruff.info/R060947
123.9386, 0.0000000E+00
124.4208, 3.231049
124.9029, 3.961395
125.3850, 0.4006650
125.8671, 2.888153
126.3492, 5.1879999E-03
126.8313, 11.01569
127.3135, 23.63309
127.7956, 34.07593
128.2777, 44.73660
128.7598, 60.15790
129.2419, 84.29163
129.7240, 117.1814
130.2062, 151.6189
130.6883, 190.0605
131.1704, 227.4670
131.6525, 267.9237
132.1346, 307.0281
132.6167, 333.3431
133.0989, 335.1602
133.5810, 307.9457
134.0631, 288.5114
134.5452, 283.0010
135.0273, 278.3597
135.5094, 267.0725
135.9916, 249.2106
136.4737, 230.4697
136.9558, 217.2791
137.4379, 212.5613
137.9200, 197.6924
138.4021, 163.0993
138.8843, 125.7756
139.3664, 96.29761
139.8485, 76.42279
140.3306, 64.30762
140.8127, 58.11578
141.2948, 58.78137
141.7769, 65.29626
142.2591, 78.80219
142.7412, 97.57880
143.2233, 121.3248
143.7054, 150.0156
144.1875, 180.1734
144.6696, 207.6082
145.1518, 231.7762
145.6339, 255.7158
146.1160, 276.7698
146.5981, 298.7900
147.0802, 328.8929
147.5623, 369.8066
148.0445, 412.2575
148.5266, 442.9314
149.0087, 462.1017
149.4908, 476.6715
149.9729, 485.2494
150.4550, 490.8298
150.9372, 501.2281
151.4193, 521.7313
151.9014, 538.9016
152.3835, 529.7484
152.8656, 493.5947
153.3477, 456.9928
153.8299, 429.3828
154.3120, 408.7438
154.7941, 390.9313
155.2762, 375.7320
155.7583, 361.7374
156.2404, 345.8783
156.7226, 327.4857
157.2047, 312.4443
157.6868, 304.5541
158.1689, 302.6333
158.6510, 302.0945
159.1331, 300.7789
159.6153, 301.9224
160.0974, 310.3969
160.5795, 327.3336
161.0616, 342.5316
161.5437, 348.9873
162.0258, 347.7238
162.5080, 345.7332
162.9901, 345.3842
163.4722, 344.2664
163.9543, 340.0801
164.4364, 332.5908
164.9185, 323.3568
165.4007, 311.1440
165.8828, 296.5027
166.3649, 287.6799
166.8470, 291.2135
167.3291, 298.0544
167.8112, 298.8938
168.2934, 292.5237
168.7755, 285.8635
169.2576, 286.0225
169.7397, 292.9930
170.2218, 296.9553
170.7039, 293.1254
171.1861, 286.8362
171.6682, 282.7490
172.1503, 281.5641
172.6324, 280.3528
173.1145, 275.6976
173.5966, 267.3138
174.0788, 260.3890
174.5609, 258.3833
175.0430, 256.8434
175.5251, 250.9451
176.0072, 239.6924
176.4893, 230.1532
176.9715, 232.5125
177.4536, 248.6917
177.9357, 258.5555
178.4178, 252.4704
178.8999, 241.1811
179.3820, 231.2808
179.8642, 223.8979
180.3463, 216.9847
180.8284, 206.9950
181.3105, 192.7582
181.7926, 181.9512
182.2747, 183.7534
182.7569, 187.6055
183.2390, 187.2462
183.7211, 181.5133
184.2032, 173.1002
184.6853, 163.4315
185.1674, 151.5757
185.6496, 144.1797
186.1317, 146.6722
186.6138, 151.6900
187.0959, 155.9945
187.5780, 158.8865
188.0601, 159.7120
188.5423, 156.5355
189.0244, 148.1576
189.5065, 142.4575
189.9886, 147.2081
190.4707, 150.8208
190.9528, 143.8455
191.4350, 125.3845
191.9171, 106.6089
192.3992, 101.7600
192.8813, 113.7781
193.3634, 123.3201
193.8455, 124.9698
194.3277, 125.1480
194.8098, 128.1448
195.2919, 134.2816
195.7740, 139.2102
196.2561, 135.8643
196.7382, 121.9620
197.2204, 115.7326
197.7025, 126.2437
198.1846, 139.3602
198.6667, 148.4326
199.1488, 152.5982
199.6309, 154.6855
200.1131, 156.6605
200.5952, 158.0866
201.0773, 163.4167
201.5594, 177.0355
202.0415, 191.4645
202.5236, 204.0327
203.0058, 214.1307
203.4879, 221.8849
203.9700, 226.6703
204.4521, 228.0718
204.9342, 230.8492
205.4163, 235.6516
205.8985, 242.4428
206.3806, 251.2238
206.8627, 261.4252
207.3448, 271.9707
207.8269, 282.9196
208.3090, 294.8258
208.7912, 303.6031
209.2733, 304.5328
209.7554, 306.3636
210.2375, 314.0287
210.7196, 326.3745
211.2017, 338.3178
211.6839, 344.4294
212.1660, 344.6299
212.6481, 348.7949
213.1302, 360.4763
213.6123, 373.5515
214.0944, 387.4746
214.5765, 400.6122
215.0587, 408.8698
215.5408, 406.5924
216.0229, 394.7942
216.5050, 389.1935
216.9871, 398.0398
217.4692, 404.3729
217.9514, 397.2036
218.4335, 381.2705
218.9156, 368.3877
219.3977, 368.9431
219.8798, 379.9989
220.3619, 383.2225
220.8441, 375.5317
221.3262, 363.2637
221.8083, 346.2052
222.2904, 327.1313
222.7725, 311.3767
223.2546, 303.9246
223.7368, 301.6302
224.2189, 293.0200
224.7010, 274.4568
225.1831, 256.1208
225.6652, 242.1713
226.1473, 231.1410
226.6295, 220.7903
227.1116, 209.1736
227.5937, 198.2608
228.0758, 194.4047
228.5579, 202.3387
229.0400, 205.9028
229.5222, 195.0568
230.0043, 177.5678
230.4864, 162.3583
230.9685, 152.9539
231.4506, 146.9456
231.9327, 140.2552
232.4149, 132.3059
232.8970, 125.6656
233.3791, 122.6823
233.8612, 120.9516
234.3433, 118.3077
234.8254, 114.1450
235.3076, 108.9677
235.7897, 103.4472
236.2718, 97.62994
236.7539, 90.98236
237.2360, 81.65314
237.7181, 72.38068
238.2003, 65.70349
238.6824, 62.06238
239.1645, 60.67908
239.6466, 62.31348
240.1287, 66.91504
240.6108, 68.35297
241.0930, 61.52301
241.5751, 53.65619
242.0572, 52.93127
242.5393, 60.50232
243.0214, 67.40375
243.5035, 66.18744
243.9857, 58.16193
244.4678, 51.02740
244.9499, 46.03455
245.4320, 43.08728
245.9141, 42.73157
246.3962, 44.92932
246.8784, 45.81006
247.3605, 42.21619
247.8426, 35.70819
248.3247, 30.45807
248.8068, 26.93555
249.2889, 25.11121
249.7710, 25.67328
250.2532, 28.21283
250.7353, 30.36963
251.2174, 31.80084
251.6995, 32.20013
252.1816, 31.12659
252.6637, 28.55255
253.1459, 24.22675
253.6280, 14.26776
254.1101, 1.005493
254.5922, 3.181458
255.0743, 13.75000
255.5564, 35.15802
256.0386, 43.26874
256.5207, 37.19861
257.0028, 26.63104
257.4849, 16.49384
257.9670, 7.439148
258.4492, 1.497803
258.9313, 8.6669996E-03
259.4134, 0.5684200
259.8955, 2.777344
260.3776, 6.165100
260.8597, 8.591614
261.3419, 9.151978
261.8240, 7.636841
262.3061, 3.645569
262.7882, 7.476196
263.2703, 15.58179
263.7524, 13.97864
264.2346, 6.395447
264.7167, 1.010498
265.1988, 1.419617
265.6809, 5.989685
266.1630, 10.86334
266.6451, 17.69855
267.1272, 22.15002
267.6093, 22.17163
268.0915, 19.78711
268.5736, 16.86542
269.0557, 13.95197
269.5378, 12.52545
270.0199, 15.24286
270.5020, 25.93750
270.9842, 33.57855
271.4663, 38.16925
271.9484, 39.71448
272.4305, 36.23291
272.9126, 28.21252
273.3947, 20.92816
273.8769, 20.95056
274.3590, 31.41522
274.8411, 36.78027
275.3232, 33.66302
275.8053, 29.27747
276.2874, 27.55322
276.7696, 28.25391
277.2517, 28.96960
277.7338, 27.79871
278.2159, 24.72583
278.6980, 20.35785
279.1801, 12.49060
279.6623, 5.667969
280.1444, 1.991943
280.6265, 0.1618650
281.1086, 1.833801
281.5907, 5.043030
282.0728, 9.750977
282.5550, 17.52997
283.0371, 32.67908
283.5192, 44.93286
284.0013, 49.38776
284.4834, 51.64789
284.9655, 58.41681
285.4477, 72.44226
285.9298, 89.78375
286.4119, 103.2003
286.8940, 111.5191
287.3761, 118.8052
287.8582, 121.5270
288.3404, 126.2685
288.8225, 139.2849
289.3046, 161.2434
289.7867, 185.2183
290.2688, 202.0440
290.7509, 210.4896
291.2331, 226.3130
291.7152, 259.4634
292.1973, 292.7992
292.6794, 314.9603
293.1615, 327.5600
293.6436, 341.0602
294.1258, 363.5693
294.6079, 393.2042
295.0900, 420.6943
295.5721, 444.2195
296.0542, 468.3260
296.5363, 494.2172
297.0185, 522.5918
297.5006, 555.3162
297.9827, 596.4877
298.4648, 640.2330
298.9469, 677.5785
299.4290, 707.6493
299.9112, 736.8636
300.3933, 765.7495
300.8754, 797.1371
301.3575, 836.8147
301.8396, 890.7924
302.3217, 944.9072
302.8039, 987.8726
303.2860, 1021.763
303.7681, 1054.249
304.2502, 1086.871
304.7323, 1121.601
305.2144, 1163.208
305.6966, 1213.298
306.1787, 1263.148
306.6608, 1311.833
307.1429, 1357.957
307.6250, 1399.183
308.1071, 1435.050
308.5893, 1467.763
309.0714, 1499.529
309.5535, 1529.013
310.0356, 1563.451
310.5177, 1610.472
310.9998, 1656.706
311.4820, 1689.248
311.9641, 1709.113
312.4462, 1730.047
312.9283, 1764.877
313.4104, 1813.260
313.8925, 1856.743
314.3747, 1888.690
314.8568, 1923.712
315.3389, 1968.351
315.8210, 2019.048
316.3031, 2069.980
316.7852, 2118.386
317.2674, 2164.583
317.7495, 2208.502
318.2316, 2247.429
318.7137, 2288.569
319.1958, 2325.677
319.6779, 2368.510
320.1601, 2432.165
320.6422, 2518.243
321.1243, 2606.522
321.6064, 2665.718
322.0885, 2686.746
322.5706, 2713.188
323.0528, 2749.255
323.5349, 2788.531
324.0170, 2831.277
324.4991, 2875.222
324.9812, 2914.676
325.4633, 2942.898
325.9455, 2961.740
326.4276, 2988.221
326.9097, 3039.306
327.3918, 3068.348
327.8739, 3043.719
328.3560, 2985.906
328.8382, 2928.573
329.3203, 2884.899
329.8024, 2848.530
330.2845, 2813.378
330.7666, 2780.662
331.2487, 2738.786
331.7309, 2680.468
332.2130, 2609.204
332.6951, 2530.765
333.1772, 2442.419
333.6593, 2357.767
334.1414, 2284.953
334.6236, 2221.508
335.1057, 2161.557
335.5878, 2105.385
336.0699, 2047.269
336.5520, 1977.215
337.0341, 1894.189
337.5162, 1815.866
337.9984, 1741.628
338.4805, 1674.847
338.9626, 1622.186
339.4447, 1582.826
339.9268, 1544.649
340.4089, 1498.541
340.8911, 1444.528
341.3732, 1391.556
341.8553, 1335.590
342.3374, 1284.571
342.8195, 1242.061
343.3016, 1206.656
343.7838, 1176.606
344.2659, 1151.048
344.7480, 1129.038
345.2301, 1108.457
345.7122, 1094.802
346.1943, 1073.900
346.6765, 1039.654
347.1586, 1002.262
347.6407, 968.5400
348.1228, 940.3506
348.6049, 916.8738
349.0870, 898.9814
349.5692, 888.3217
350.0513, 871.5620
350.5334, 844.1462
351.0155, 814.6975
351.4976, 784.7040
351.9797, 755.3721
352.4619, 728.2301
352.9440, 704.5381
353.4261, 683.5983
353.9082, 664.0040
354.3903, 646.5043
354.8724, 628.3607
355.3546, 606.5551
355.8367, 584.2228
356.3188, 564.6381
356.8009, 548.9823
357.2830, 534.4460
357.7651, 519.0640
358.2473, 502.8668
358.7294, 486.8434
359.2115, 471.7456
359.6936, 456.0305
360.1757, 437.7129
360.6578, 416.9949
361.1400, 394.3894
361.6221, 367.2677
362.1042, 339.8953
362.5863, 315.2456
363.0684, 294.0355
363.5505, 280.2701
364.0327, 279.8464
364.5148, 291.1050
364.9969, 288.4304
365.4790, 259.7749
365.9611, 232.9231
366.4432, 218.8760
366.9254, 212.5054
367.4075, 204.9375
367.8896, 192.5002
368.3717, 177.3577
368.8538, 164.0349
369.3359, 154.5222
369.8181, 143.2900
370.3002, 128.0583
370.7823, 113.0773
371.2644, 102.1176
371.7465, 94.73022
372.2286, 86.62170
372.7108, 72.18713
373.1929, 51.92285
373.6750, 41.42200
374.1571, 49.91943
374.6392, 55.63403
375.1213, 48.08740
375.6035, 33.76306
376.0856, 22.41406
376.5677, 17.88416
377.0498, 17.43738
377.5319, 17.70361
378.0140, 18.72021
378.4962, 20.01746
378.9783, 22.64453
379.4604, 24.32471
379.9425, 21.32703
380.4246, 12.98438
380.9067, 7.884521
381.3889, 12.59863
381.8710, 22.39905
382.3531, 28.74609
382.8352, 30.25806
383.3173, 32.33289
383.7994, 40.28857
384.2816, 53.82971
384.7637, 63.12659
385.2458, 63.31665
385.7279, 64.20325
386.2100, 70.50598
386.6921, 81.07458
387.1743, 93.44995
387.6564, 106.5645
388.1385, 120.0481
388.6206, 132.7549
389.1027, 139.6185
389.5848, 153.9794
390.0670, 182.8947
390.5491, 213.6022
391.0312, 235.7537
391.5133, 249.5035
391.9954, 262.3032
392.4775, 280.4517
392.9597, 303.9008
393.4418, 332.7855
393.9239, 374.3154
394.4060, 411.3005
394.8881, 437.1248
395.3702, 455.7588
395.8524, 472.3132
396.3345, 487.8798
396.8166, 504.2345
397.2987, 525.9193
397.7808, 553.1190
398.2629, 572.7593
398.7451, 574.9049
399.2272, 575.5732
399.7093, 594.3798
400.1914, 631.1217
400.6735, 664.8767
401.1556, 688.4529
401.6378, 704.3010
402.1199, 714.3500
402.6020, 718.9663
403.0841, 721.5963
403.5662, 724.1846
404.0483, 726.8459
404.5305, 730.3102
405.0126, 732.7581
405.4947, 738.0284
405.9768, 751.4888
406.4589, 767.0708
406.9410, 775.4639
407.4231, 773.8110
407.9052, 767.6581
408.3874, 765.7704
408.8695, 771.7491
409.3516, 771.0488
409.8337, 756.8380
410.3158, 742.9501
410.7979, 736.9540
411.2801, 736.4655
411.7622, 735.2041
412.2443, 729.4175
412.7264, 720.0812
413.2085, 708.4792
413.6906, 691.8623
414.1728, 681.0931
414.6549, 689.9396
415.1370, 700.9019
415.6191, 696.6157
416.1012, 673.5411
416.5833, 648.4742
417.0655, 634.1387
417.5476, 626.0674
418.0297, 612.0134
418.5118, 589.3365
418.9939, 566.7388
419.4760, 552.5433
419.9582, 546.3429
420.4403, 538.4446
420.9224, 527.5072
421.4045, 514.7640
421.8866, 501.2989
422.3687, 487.7509
422.8509, 474.5411
423.3330, 461.6193
423.8151, 447.3174
424.2972, 427.7639
424.7793, 397.9706
425.2614, 372.5316
425.7436, 355.5322
426.2257, 338.5197
426.7078, 314.5284
427.1899, 285.5002
427.6720, 259.2870
428.1541, 242.4974
428.6363, 233.0936
429.1184, 221.6377
429.6005, 207.2397
430.0826, 192.6096
430.5647, 177.8209
431.0468, 163.5131
431.5290, 149.8514
432.0111, 136.7075
432.4932, 125.7286
432.9753, 120.8376
433.4574, 119.3618
433.9395, 110.9400
434.4217, 91.96332
434.9038, 74.06885
435.3859, 68.72699
435.8680, 74.71234
436.3501, 76.53271
436.8322, 68.55640
437.3144, 60.99567
437.7965, 60.73981
438.2786, 64.97595
438.7607, 66.90723
439.2428, 63.64233
439.7249, 58.32526
440.2071, 56.74603
440.6892, 59.65173
441.1713, 65.28772
441.6534, 77.03119
442.1355, 87.93091
442.6176, 94.60406
443.0998, 96.97449
443.5819, 95.53174
444.0640, 89.02704
444.5461, 80.64850
445.0282, 82.05902
445.5103, 97.60345
445.9925, 110.1440
446.4746, 110.9058
446.9567, 108.0680
447.4388, 109.8206
447.9209, 117.4967
448.4030, 122.0043
448.8852, 113.7438
449.3673, 99.37439
449.8494, 93.12421
450.3315, 96.92291
450.8136, 103.2734
451.2957, 107.4678
451.7779, 109.4230
452.2600, 109.3415
452.7421, 108.6891
453.2242, 104.6442
453.7063, 93.14276
454.1884, 78.75903
454.6706, 67.14191
455.1527, 60.13879
455.6348, 57.33191
456.1169, 58.84186
456.5990, 65.82898
457.0811, 71.30151
457.5633, 76.68237
458.0454, 78.93201
458.5275, 74.40009
459.0096, 66.47015
459.4917, 61.48682
459.9738, 63.10864
460.4560, 66.08130
460.9381, 61.09943
461.4202, 47.92810
461.9023, 38.48407
462.3844, 36.93176
462.8665, 38.49969
463.3487, 38.99963
463.8308, 38.42230
464.3129, 35.90344
464.7950, 28.61182
465.2771, 21.31750
465.7592, 20.21631
466.2414, 23.80536
466.7235, 24.19092
467.2056, 16.70776
467.6877, 4.764526
468.1698, 2.655640
468.6519, 1.018372
469.1341, 1.023987
469.6162, 3.746216
470.0983, 7.224731
470.5804, 10.23016
471.0625, 12.77667
471.5446, 15.67871
472.0268, 19.58099
472.5089, 23.92834
472.9910, 27.16492
473.4731, 29.89951
473.9552, 30.37732
474.4373, 25.06357
474.9195, 18.60025
475.4016, 14.90796
475.8837, 14.64948
476.3658, 16.84589
476.8479, 24.06519
477.3300, 32.02985
477.8121, 30.76953
478.2943, 19.15359
478.7764, 9.219360
479.2585, 10.37579
479.7406, 20.79276
480.2227, 27.00714
480.7048, 26.46100
481.1870, 25.30478
481.6691, 25.16852
482.1512, 24.90225
482.6333, 23.15372
483.1154, 19.70840
483.5975, 15.40979
484.0797, 10.87473
484.5618, 6.050323
485.0439, 1.568787
485.5260, 3.647156
486.0081, 6.826691
486.4902, 3.358246
486.9724, 1.004578
487.4545, 2.312561
487.9366, 16.80594
488.4187, 32.28842
488.9008, 39.18793
489.3829, 39.54822
489.8651, 41.57761
490.3472, 47.39066
490.8293, 50.99945
491.3114, 45.44791
491.7935, 31.41217
492.2756, 24.27094
492.7578, 29.05942
493.2399, 34.99857
493.7220, 38.64685
494.2041, 40.59518
494.6862, 41.02496
495.1683, 40.23477
495.6505, 40.61307
496.1326, 46.70135
496.6147, 60.60321
497.0968, 65.09619
497.5789, 50.01764
498.0610, 36.95850
498.5432, 34.07635
499.0253, 37.57581
499.5074, 41.41397
499.9895, 43.33548
500.4716, 46.03403
500.9537, 54.43875
501.4359, 66.79132
501.9180, 73.32312
502.4001, 70.83246
502.8822, 66.36688
503.3643, 66.75333
503.8464, 71.87802
504.3286, 74.93982
504.8107, 75.08466
505.2928, 73.76913
505.7749, 70.02167
506.2570, 65.75327
506.7391, 64.27866
507.2213, 66.59033
507.7034, 70.44537
508.1855, 73.31467
508.6676, 75.65851
509.1497, 73.86392
509.6318, 62.11993
510.1140, 52.98511
510.5961, 51.89548
511.0782, 55.92264
511.5603, 60.74771
512.0424, 65.32678
512.5245, 69.18961
513.0067, 71.94592
513.4888, 73.53955
513.9709, 73.60831
514.4530, 71.88669
514.9351, 69.72058
515.4172, 68.74548
515.8994, 68.81363
516.3815, 66.30273
516.8636, 57.05737
517.3457, 49.96664
517.8278, 49.32327
518.3099, 52.45416
518.7921, 56.32843
519.2742, 59.79565
519.7563, 61.86899
520.2384, 60.47543
520.7205, 55.14929
521.2026, 54.40253
521.6848, 62.65158
522.1669, 69.16922
522.6490, 69.68811
523.1311, 66.23950
523.6132, 60.97614
524.0953, 53.82767
524.5775, 47.77124
525.0596, 46.09879
525.5417, 47.02484
526.0238, 45.69449
526.5059, 41.63931
526.9880, 37.42126
527.4702, 34.47928
527.9523, 32.88440
528.4344, 34.32657
528.9165, 44.14838
529.3986, 49.79568
529.8807, 45.26883
530.3629, 37.49597
530.8450, 34.33203
531.3271, 36.53616
531.8092, 38.40582
532.2913, 33.57932
532.7734, 23.84399
533.2556, 21.66232
533.7377, 30.82321
534.2198, 36.65332
534.7019, 29.43951
535.1840, 17.57553
535.6661, 10.84268
536.1483, 10.78757
536.6304, 14.65277
537.1125, 25.11548
537.5946, 35.18164
538.0767, 35.57794
538.5588, 27.28232
539.0410, 18.37766
539.5231, 13.51208
540.0052, 12.17731
540.4873, 13.03021
540.9694, 19.42166
541.4515, 22.81308
541.9337, 21.17722
542.4158, 18.28226
542.8979, 15.48871
543.3800, 13.55228
543.8621, 13.60672
544.3442, 17.03226
544.8264, 21.31787
545.3085, 21.63736
545.7906, 18.45087
546.2727, 17.51541
546.7548, 21.53909
547.2369, 26.47632
547.7191, 26.28757
548.2012, 20.73871
548.6833, 18.45297
549.1654, 24.12469
549.6475, 29.61557
550.1296, 29.62476
550.6118, 26.20444
551.0939, 22.97241
551.5760, 21.29877
552.0581, 20.85864
552.5402, 21.56531
553.0223, 23.86258
553.5045, 24.50760
553.9866, 21.34897
554.4687, 19.43570
554.9508, 21.56277
555.4329, 26.04245
555.9150, 30.37213
556.3972, 34.25729
556.8793, 37.11584
557.3614, 39.29575
557.8435, 39.85950
558.3256, 34.83533
558.8077, 23.84082
559.2899, 16.50520
559.7720, 21.99805
560.2541, 37.78021
560.7362, 44.15211
561.2183, 29.13434
561.7004, 19.79335
562.1826, 22.42316
562.6647, 28.62514
563.1468, 32.31886
563.6289, 32.57780
564.1110, 30.72740
564.5931, 26.78891
565.0753, 21.98517
565.5574, 19.77359
566.0395, 20.36426
566.5216, 20.15857
567.0037, 17.47015
567.4858, 13.97919
567.9680, 12.28864
568.4501, 12.63811
568.9322, 12.04921
569.4143, 7.016678
569.8964, 3.984863
570.3785, 9.211929
570.8607, 19.02444
571.3428, 26.09233
571.8249, 27.36740
572.3070, 25.20656
572.7891, 22.49753
573.2712, 18.93596
573.7534, 17.46361
574.2355, 19.24222
574.7176, 21.33807
575.1997, 21.84592
575.6818, 21.91742
576.1639, 23.46419
576.6461, 27.29466
577.1282, 31.35249
577.6103, 36.95497
578.0924, 41.01175
578.5745, 36.10170
579.0566, 22.59001
579.5388, 12.03719
580.0209, 13.56985
580.5030, 24.10242
580.9851, 29.08626
581.4672, 23.22772
581.9493, 20.83055
582.4314, 27.74881
582.9135, 34.31737
583.3956, 32.70560
583.8777, 24.45383
584.3599, 17.38715
584.8420, 15.63104
585.3241, 17.16812
585.8062, 20.79402
586.2883, 25.84998
586.7704, 28.34770
587.2526, 26.74342
587.7347, 22.89272
588.2168, 18.39938
588.6989, 12.97525
589.1810, 10.72220
589.6631, 13.70401
590.1453, 17.04224
590.6274, 20.98973
591.1095, 23.60138
591.5916, 21.29813
592.0737, 13.80899
592.5558, 7.195374
593.0380, 9.359146
593.5201, 17.52701
594.0022, 19.01619
594.4843, 12.65326
594.9664, 7.577667
595.4485, 8.083099
595.9307, 11.66312
596.4128, 14.29884
596.8949, 16.32697
597.3770, 16.30731
597.8591, 10.96921
598.3412, 6.441895
598.8234, 6.703323
599.3055, 11.00920
599.7876, 18.61374
600.2697, 29.28017
600.7518, 38.25745
601.2339, 35.60320
601.7161, 20.42099
602.1982, 14.58582
602.6803, 24.71645
603.1624, 33.88622
603.6445, 28.99991
604.1266, 17.18051
604.6088, 11.89540
605.0909, 17.35226
605.5730, 22.24420
606.0551, 21.36252
606.5372, 18.15393
607.0193, 15.94473
607.5015, 15.16113
607.9836, 15.18130
608.4657, 15.60886
608.9478, 16.61145
609.4299, 18.94780
609.9120, 23.37813
610.3942, 26.29393
610.8763, 26.46164
611.3584, 25.91368
611.8405, 24.96768
612.3226, 24.32826
612.8047, 26.13318
613.2869, 33.16646
613.7690, 39.30994
614.2511, 40.62321
614.7332, 38.46277
615.2153, 34.07628
615.6974, 28.09613
616.1796, 23.20520
616.6617, 21.74495
617.1438, 23.22090
617.6259, 24.53876
618.1080, 25.59845
618.5901, 26.61411
619.0723, 28.20776
619.5544, 29.28339
620.0365, 28.45340
620.5186, 26.25323
621.0007, 25.16971
621.4828, 26.10094
621.9650, 28.62848
622.4471, 34.11801
622.9292, 40.77910
623.4113, 44.10342
623.8934, 42.97441
624.3755, 38.53117
624.8577, 30.69855
625.3398, 19.72932
625.8219, 17.04381
626.3040, 29.40843
626.7861, 39.98723
627.2682, 46.90060
627.7504, 50.09477
628.2325, 48.16457
628.7146, 41.86227
629.1967, 36.34076
629.6788, 34.55130
630.1609, 34.53288
630.6431, 33.63853
631.1252, 32.51921
631.6073, 34.22655
632.0894, 39.88530
632.5715, 45.46805
633.0536, 45.70613
633.5358, 40.11684
634.0179, 37.55756
634.5000, 42.88620
634.9821, 44.61005
635.4642, 34.50769
635.9464, 23.58937
636.4285, 24.70319
636.9106, 38.38463
637.3927, 50.44305
637.8748, 50.54509
638.3569, 45.36522
638.8391, 43.04015
639.3212, 43.22858
639.8033, 44.07420
640.2854, 45.06999
640.7675, 45.54356
641.2496, 44.50549
641.7318, 41.74028
642.2139, 39.00101
642.6960, 34.89761
643.1781, 32.36095
643.6602, 33.40009
644.1423, 35.63672
644.6245, 36.28134
645.1066, 35.44966
645.5887, 35.78864
646.0708, 41.10646
646.5529, 46.75627
647.0350, 44.73309
647.5172, 36.95914
647.9993, 31.77226
648.4814, 32.33430
648.9635, 37.06757
649.4456, 44.61848
649.9277, 55.99995
650.4099, 60.67462
650.8920, 51.02547
651.3741, 44.34180
651.8562, 47.06059
652.3383, 53.32777
652.8204, 57.25836
653.3026, 57.96478
653.7847, 58.08742
654.2668, 59.57840
654.7489, 61.30489
655.2310, 61.74362
655.7131, 61.03514
656.1953, 59.85359
656.6774, 58.38824
657.1595, 56.98224
657.6416, 56.00290
658.1237, 55.53696
658.6058, 56.31177
659.0880, 58.77638
659.5701, 61.31821
660.0522, 63.77892
660.5343, 66.01479
661.0164, 68.07755
661.4985, 70.05423
661.9807, 71.26315
662.4628, 69.63045
662.9449, 68.17816
663.4270, 71.23468
663.9091, 76.84683
664.3912, 79.64749
664.8734, 77.76157
665.3555, 73.29248
665.8376, 68.52090
666.3197, 63.99240
666.8018, 63.26587
667.2839, 67.83649
667.7661, 71.96881
668.2482, 74.30042
668.7303, 74.72794
669.2124, 72.86563
669.6945, 69.23700
670.1766, 67.14243
670.6588, 68.88712
671.1409, 70.92584
671.6230, 70.82407
672.1051, 69.20615
672.5872, 67.66379
673.0693, 66.60033
673.5515, 65.22223
674.0336, 62.31175
674.5157, 58.57877
674.9978, 58.58774
675.4799, 63.81976
675.9620, 66.84940
676.4442, 64.69028
676.9263, 60.76788
677.4084, 58.09956
677.8905, 56.61418
678.3726, 56.31256
678.8547, 58.05768
679.3369, 59.99420
679.8190, 62.85657
680.3011, 64.68036
680.7832, 61.55112
681.2653, 54.17496
681.7474, 48.66109
682.2296, 50.36249
682.7117, 55.79950
683.1938, 56.60628
683.6759, 52.74518
684.1580, 49.33348
684.6401, 47.54257
685.1223, 45.92679
685.6044, 42.67923
686.0865, 38.24084
686.5686, 36.86569
687.0507, 42.58350
687.5328, 45.57321
688.0150, 41.69812
688.4971, 36.75592
688.9792, 36.26529
689.4613, 38.98038
689.9434, 39.36853
690.4255, 33.75726
690.9077, 26.94913
691.3898, 25.21915
691.8719, 27.38116
692.3540, 29.95178
692.8361, 32.49365
693.3182, 32.79071
693.8004, 28.60635
694.2825, 21.97745
694.7646, 19.70560
695.2467, 25.22379
695.7288, 28.46594
696.2109, 28.27286
696.6931, 26.90118
697.1752, 25.09027
697.6573, 22.90530
698.1394, 20.19638
698.6215, 16.74512
699.1036, 13.62778
699.5858, 10.61685
700.0679, 8.864990
700.5500, 12.45816
701.0321, 19.48276
701.5142, 20.15024
701.9963, 9.386047
702.4785, 4.628876
702.9606, 6.843842
703.4427, 5.087311
703.9248, 8.054382
704.4069, 3.890656
704.8890, 12.92584
705.3712, 7.900787
705.8533, 1.917419
706.3354, 3.983826
706.8175, 2.923492
707.2996, 9.012634
707.7817, 11.92566
708.2639, 13.46506
708.7460, 14.25110
709.2281, 14.62799
709.7102, 15.30887
710.1923, 16.28171
710.6744, 16.04379
711.1566, 11.81241
711.6387, 5.876160
712.1208, 6.527191
712.6029, 13.92593
713.0850, 19.46899
713.5671, 20.53976
714.0493, 19.22348
714.5314, 17.09799
715.0135, 14.20212
715.4956, 13.32971
715.9777, 17.17081
716.4598, 19.34937
716.9420, 17.49393
717.4241, 14.78683
717.9062, 12.82291
718.3883, 12.25397
718.8704, 14.40198
719.3525, 21.40997
719.8347, 28.40417
720.3168, 30.09451
720.7989, 28.52750
721.2810, 28.68146
721.7631, 30.83557
722.2452, 30.13235
722.7274, 22.73700
723.2095, 12.63589
723.6915, 11.50107
724.1736, 22.80066
724.6558, 28.83557
725.1379, 27.46115
725.6200, 22.47025
726.1021, 10.90027
726.5842, 1.288544
727.0663, 3.148499
727.5485, 9.591736
728.0306, 18.77185
728.5127, 18.68930
728.9948, 13.84320
729.4769, 4.074524
729.9590, 7.156158
730.4412, 12.80417
730.9233, 11.11301
731.4054, 9.749084
731.8875, 17.71097
732.3696, 32.11163
732.8517, 44.68799
733.3339, 55.44659
733.8160, 62.23492
734.2981, 63.11484
734.7802, 63.88892
735.2623, 71.88474
735.7444, 87.35913
736.2266, 100.2150
736.7087, 105.9520
737.1908, 115.4448
737.6729, 133.5487
738.1550, 153.0552
738.6371, 171.2584
739.1193, 186.2227
739.6014, 192.2294
740.0835, 179.3462
740.5656, 170.4595
741.0477, 186.3022
741.5298, 213.9766
742.0120, 237.1099
742.4941, 252.9575
742.9762, 261.1957
743.4583, 260.6960
743.9404, 257.9806
744.4225, 267.9439
744.9047, 291.1685
745.3868, 305.7802
745.8689, 307.2160
746.3510, 309.5991
746.8331, 320.4755
747.3152, 336.6771
747.7974, 351.5590
748.2795, 362.2826
748.7616, 380.9418
749.2437, 422.3343
749.7258, 455.3987
750.2079, 461.9182
750.6901, 456.5067
751.1722, 456.1389
751.6543, 464.1190
752.1364, 476.4578
752.6185, 492.8103
753.1006, 510.9998
753.5828, 528.4089
754.0649, 545.1245
754.5470, 562.3465
755.0291, 579.9849
755.5112, 594.9575
755.9933, 604.0972
756.4755, 608.9706
756.9576, 614.9217
757.4397, 621.1778
757.9218, 632.7499
758.4039, 653.5387
758.8860, 674.9302
759.3682, 691.3688
759.8503, 703.0378
760.3324, 711.5882
760.8145, 715.5573
761.2966, 722.3951
761.7787, 735.3779
762.2609, 747.3454
762.7430, 755.8421
763.2251, 761.0262
763.7072, 759.1842
764.1893, 749.1359
764.6714, 745.8586
765.1536, 772.0010
765.6357, 807.6940
766.1178, 817.3376
766.5999, 806.1740
767.0820, 798.9279
767.5641, 803.2170
768.0463, 811.5676
768.5284, 816.7581
769.0105, 819.2374
769.4926, 819.4293
769.9747, 814.4577
770.4568, 815.5043
770.9390, 829.4428
771.4211, 844.0923
771.9032, 848.3596
772.3853, 845.2392
772.8674, 845.5193
773.3495, 848.6860
773.8317, 856.2157
774.3138, 866.2367
774.7959, 883.1866
775.2780, 914.8115
775.7601, 954.2863
776.2422, 985.7990
776.7244, 1003.499
777.2065, 1027.428
777.6886, 1081.199
778.1707, 1148.642
778.6528, 1202.022
779.1349, 1244.314
779.6171, 1293.097
780.0992, 1354.433
780.5813, 1423.083
781.0634, 1492.898
781.5455, 1563.879
782.0276, 1634.772
782.5098, 1702.562
782.9919, 1787.109
783.4740, 1900.989
783.9561, 2020.485
784.4382, 2123.202
784.9203, 2213.711
785.4025, 2316.838
785.8846, 2439.321
786.3667, 2563.397
786.8488, 2696.224
787.3309, 2821.616
787.8130, 2922.834
788.2952, 3010.821
788.7773, 3108.057
789.2594, 3221.118
789.7415, 3331.866
790.2236, 3432.406
790.7057, 3519.312
791.1879, 3585.407
791.6700, 3634.093
792.1521, 3675.448
792.6342, 3712.044
793.1163, 3734.710
793.5984, 3733.254
794.0806, 3711.393
794.5627, 3683.226
795.0448, 3649.042
795.5269, 3603.426
796.0090, 3546.076
796.4911, 3473.727
796.9733, 3379.488
797.4554, 3269.623
797.9375, 3170.615
798.4196, 3089.733
798.9017, 3007.722
799.3839, 2911.293
799.8660, 2827.854
800.3481, 2776.600
800.8302, 2741.997
801.3123, 2697.705
801.7944, 2638.353
802.2766, 2594.178
802.7587, 2580.373
803.2408, 2583.877
803.7229, 2594.843
804.2050, 2616.825
804.6871, 2652.349
805.1693, 2704.265
805.6514, 2781.435
806.1335, 2891.002
806.6156, 3028.512
807.0977, 3186.344
807.5798, 3364.943
808.0620, 3567.261
808.5441, 3794.447
809.0262, 4054.420
809.5083, 4355.757
809.9904, 4689.466
810.4725, 5031.638
810.9547, 5375.594
811.4368, 5767.610
811.9189, 6225.893
812.4010, 6697.775
812.8831, 7168.318
813.3652, 7641.526
813.8474, 8127.437
814.3295, 8629.353
814.8116, 9114.201
815.2937, 9598.050
815.7758, 10040.22
816.2579, 10445.54
816.7401, 10791.60
817.2222, 11060.37
817.7043, 11250.72
818.1864, 11367.19
818.6685, 11412.18
819.1506, 11381.88
819.6328, 11273.17
820.1149, 11087.40
820.5970, 10808.56
821.0791, 10454.38
821.5612, 10071.63
822.0433, 9678.561
822.5255, 9262.655
823.0076, 8806.832
823.4897, 8317.812
823.9718, 7827.586
824.4539, 7334.390
824.9360, 6844.389
825.4182, 6353.445
825.9003, 5883.567
826.3824, 5454.594
826.8645, 5060.686
827.3466, 4680.847
827.8287, 4304.871
828.3109, 3968.585
828.7930, 3688.808
829.2751, 3430.134
829.7572, 3178.729
830.2393, 2935.740
830.7214, 2698.096
831.2036, 2462.492
831.6857, 2261.339
832.1678, 2122.297
832.6499, 1995.794
833.1320, 1860.018
833.6141, 1725.693
834.0963, 1605.282
834.5784, 1500.236
835.0605, 1404.848
835.5426, 1318.903
836.0247, 1237.591
836.5068, 1154.364
836.9890, 1074.688
837.4711, 1008.520
837.9532, 954.6863
838.4353, 905.2659
838.9174, 856.3952
839.3995, 809.6720
839.8817, 767.3985
840.3638, 729.1482
840.8459, 691.5243
841.3280, 654.3580
841.8101, 621.6270
842.2922, 594.6945
842.7744, 570.0107
843.2565, 543.3320
843.7386, 516.1276
844.2207, 498.5001
844.7028, 496.7734
845.1849, 486.0222
845.6671, 458.0886
846.1492, 428.9744
846.6313, 409.9845
847.1134, 395.5559
847.5955, 372.5446
848.0776, 335.5315
848.5598, 313.5981
849.0419, 327.5134
849.5240, 335.1816
850.0061, 315.8892
850.4882, 286.8207
850.9703, 264.2021
851.4525, 248.9041
851.9346, 235.0568
852.4167, 222.0771
852.8988, 207.9787
853.3809, 190.0455
853.8630, 171.1541
854.3452, 153.1223
854.8273, 137.6244
855.3094, 129.2720
855.7915, 129.6169
856.2736, 128.8941
856.7557, 113.6552
857.2379, 90.99353
857.7200, 77.15033
858.2021, 70.82141
858.6842, 64.59314
859.1663, 56.46710
859.6484, 49.62616
860.1306, 47.38776
860.6127, 47.09973
861.0948, 39.54919
861.5769, 23.61664
862.0590, 12.74377
862.5411, 10.02222
863.0233, 5.606079
863.5054, 7.863037
863.9875, 23.62140
864.4696, 29.06836
864.9517, 22.22028
865.4338, 20.29553
865.9159, 26.91089
866.3980, 33.11542
866.8801, 37.23828
867.3622, 39.87653
867.8444, 40.67365
868.3265, 40.10889
868.8086, 40.58539
869.2907, 44.71808
869.7728, 46.62762
870.2549, 43.07806
870.7371, 38.41681
871.2192, 34.85327
871.7013, 32.09491
872.1834, 29.94824
872.6655, 28.21710
873.1476, 25.10846
873.6298, 18.34937
874.1119, 11.02979
874.5940, 5.720337
875.0761, 1.353577
875.5582, 3.856873
876.0403, 9.687073
876.5225, 14.33276
877.0046, 16.86859
877.4867, 18.99017
877.9688, 20.94373
878.4509, 24.41199
878.9330, 35.00049
879.4152, 51.31372
879.8973, 65.83014
880.3794, 76.10944
880.8615, 84.08905
881.3436, 91.09589
881.8257, 98.33044
882.3079, 109.9772
882.7900, 125.9660
883.2721, 141.2296
883.7542, 156.0582
884.2363, 164.4794
884.7184, 161.1607
885.2006, 154.4636
885.6827, 159.5994
886.1648, 178.0231
886.6469, 190.3049
887.1290, 194.5242
887.6111, 197.0844
888.0933, 199.6194
888.5754, 200.5624
889.0575, 197.7940
889.5396, 192.3307
890.0217, 188.6810
890.5038, 190.0764
890.9860, 186.9722
891.4681, 177.7891
891.9502, 165.5687
892.4323, 148.8097
892.9144, 131.1153
893.3965, 116.6621
893.8787, 105.7875
894.3608, 97.02405
894.8429, 92.78259
895.3250, 86.61038
895.8071, 73.02740
896.2892, 58.81232
896.7714, 50.36072
897.2535, 46.25375
897.7356, 41.76031
898.2177, 35.18637
898.6998, 30.57446
899.1819, 34.43918
899.6641, 38.06918
900.1462, 30.93665
900.6283, 18.03793
901.1104, 7.677399
901.5925, 1.579376
902.0746, 1.722565
902.5568, 3.164215
903.0389, 2.032928
903.5210, 6.395264
904.0031, 16.81546
904.4852, 14.24649
904.9673, 1.025116
905.4495, 6.733032
905.9316, 3.439331
906.4137, 2.147064
906.8958, 1.289154
907.3779, 4.394257
907.8600, 11.94717
908.3422, 20.77185
908.8243, 21.26315
909.3064, 11.62207
909.7885, 2.551910
910.2706, 0.3351440
910.7527, 1.412231
911.2349, 0.7583920
911.7170, 6.293213
912.1991, 8.774231
912.6812, 7.749481
913.1633, 5.150330
913.6454, 0.4392700
914.1276, 2.999725
914.6097, 1.589081
915.0918, 2.999847
915.5739, 4.038757
916.0560, 0.7951050
916.5381, 3.164703
917.0203, 1.595764
917.5024, 9.0363003E-02
917.9845, 0.4082030
918.4666, 0.6892700
918.9487, 3.611786
919.4308, 12.10767
919.9130, 14.31729
920.3951, 1.917938
920.8772, 4.659515
921.3593, 1.290985
921.8414, 8.191315
922.3235, 9.605530
922.8057, 8.602631
923.2878, 10.22797
923.7699, 15.15933
924.2520, 17.39090
924.7341, 14.83466
925.2162, 10.35223
925.6984, 1.881775
926.1805, 5.125702
926.6626, 4.448303
927.1447, 1.488983
927.6268, 5.548889
928.1089, 5.640076
928.5911, 5.395905
929.0732, 6.060242
929.5553, 7.597839
930.0374, 11.20343
930.5195, 14.96512
931.0016, 15.75134
931.4838, 13.90277
931.9659, 12.68884
932.4480, 13.85074
932.9301, 15.57959
933.4122, 16.54904
933.8943, 16.98972
934.3765, 16.42615
934.8586, 15.81943
935.3407, 18.17621
935.8228, 23.76190
936.3049, 27.72760
936.7870, 24.38501
937.2692, 20.68018
937.7513, 30.93390
938.2334, 46.98428
938.7155, 48.01062
939.1976, 35.33542
939.6797, 25.45676
940.1619, 25.32635
940.6440, 28.23657
941.1261, 25.93820
941.6082, 21.56476
942.0903, 24.77753
942.5724, 33.63541
943.0546, 38.53128
943.5367, 38.03687
944.0188, 36.05380
944.5009, 34.78615
944.9830, 34.43068
945.4651, 35.65971
945.9473, 38.21591
946.4294, 40.11617
946.9115, 41.36526
947.3936, 42.07336
947.8757, 42.23515
948.3578, 42.07274
948.8400, 41.44814
949.3221, 41.47620
949.8042, 46.30688
950.2863, 56.50763
950.7684, 58.86929
951.2505, 51.56677
951.7327, 46.89931
952.2148, 49.43190
952.6969, 54.30290
953.1790, 57.20575
953.6611, 58.08829
954.1432, 55.95015
954.6254, 49.56461
955.1075, 45.84567
955.5896, 45.63725
956.0717, 46.75073
956.5538, 47.90785
957.0359, 50.83617
957.5181, 58.82578
958.0002, 71.13115
958.4823, 76.83923
958.9644, 73.10165
959.4465, 69.77194
959.9286, 67.57983
960.4108, 66.47247
960.8929, 67.09940
961.3750, 68.60242
961.8571, 68.97369
962.3392, 68.01659
962.8214, 66.96585
963.3035, 66.89798
963.7856, 65.03812
964.2677, 57.14229
964.7498, 51.94040
965.2319, 57.59207
965.7141, 67.99768
966.1962, 71.03566
966.6783, 65.71405
967.1604, 61.57327
967.6425, 59.54572
968.1246, 56.62596
968.6068, 49.20055
969.0889, 43.62680
969.5710, 46.78333
970.0531, 54.51608
970.5352, 55.70297
971.0173, 45.86859
971.4995, 43.37735
971.9816, 59.86992
972.4637, 71.21706
972.9458, 64.65250
973.4279, 54.76404
973.9100, 55.72186
974.3922, 63.78604
974.8743, 64.26614
975.3564, 50.71317
975.8385, 42.92117
976.3206, 50.26520
976.8027, 57.03282
977.2849, 55.57956
977.7670, 51.17361
978.2491, 49.95956
978.7312, 50.79358
979.2133, 46.63916
979.6954, 31.06677
980.1776, 22.04411
980.6597, 28.44379
981.1418, 37.48701
981.6239, 46.55991
982.1060, 51.94258
982.5881, 46.44669
983.0703, 32.48933
983.5524, 24.83286
984.0345, 30.09706
984.5166, 36.79097
984.9987, 44.73151
985.4808, 49.43007
985.9630, 44.62868
986.4451, 36.76495
986.9272, 35.65530
987.4093, 41.05612
987.8914, 42.72813
988.3735, 34.78973
988.8557, 27.17264
989.3378, 23.04474
989.8199, 21.08206
990.3020, 22.01042
990.7841, 23.68852
991.2662, 23.13742
991.7484, 20.05917
992.2305, 16.18130
992.7126, 10.06993
993.1947, 6.677505
993.6768, 9.104126
994.1589, 14.19681
994.6411, 21.29294
995.1232, 28.32178
995.6053, 32.91269
996.0874, 34.54721
996.5695, 34.16327
997.0516, 29.77753
997.5338, 26.63837
998.0159, 28.22784
998.4980, 31.43146
998.9801, 35.20320
999.4622, 37.80133
999.9443, 35.53848
1000.426, 28.49803
1000.909, 24.80690
1001.391, 31.03781
1001.873, 37.19693
1002.355, 38.68785
1002.837, 37.97926
1003.319, 36.20987
1003.801, 34.20987
1004.283, 32.13219
1004.766, 30.28809
1005.248, 32.06143
1005.730, 44.99860
1006.212, 53.98691
1006.694, 49.55112
1007.176, 40.25500
1007.658, 29.99141
1008.140, 21.65276
1008.622, 20.06381
1009.104, 25.63202
1009.587, 29.74986
1010.069, 29.53917
1010.551, 26.38974
1011.033, 16.90427
1011.515, 8.475372
1011.997, 7.283188
1012.479, 11.67540
1012.961, 19.98561
1013.444, 31.73991
1013.926, 38.08690
1014.408, 30.02423
1014.890, 22.43204
1015.372, 23.94238
1015.854, 27.03697
1016.336, 25.55038
1016.818, 21.16177
1017.300, 16.55096
1017.783, 12.41660
1018.265, 12.00363
1018.747, 21.77170
1019.229, 28.65416
1019.711, 24.73262
1020.193, 18.89514
1020.675, 18.57550
1021.157, 20.67558
1021.640, 18.98332
1022.122, 12.72537
1022.604, 7.535782
1023.086, 6.646393
1023.568, 5.064240
1024.050, 0.4900670
1024.532, 3.715622
1025.014, 1.952469
1025.496, 11.24313
1025.979, 15.75342
1026.461, 14.66866
1026.943, 13.56345
1027.425, 12.64665
1027.907, 13.63054
1028.389, 19.13530
1028.871, 24.14006
1029.353, 25.81749
1029.836, 25.23466
1030.318, 23.48317
1030.800, 20.74898
1031.282, 17.90080
1031.764, 15.17891
1032.246, 12.27666
1032.728, 6.744278
1033.210, 3.718369
1033.693, 8.624054
1034.175, 15.77687
1034.657, 16.96388
1035.139, 12.50272
1035.621, 11.25151
1036.103, 14.76541
1036.585, 20.12358
1037.067, 31.95039
1037.549, 39.68446
1038.031, 35.99757
1038.514, 28.41466
1038.996, 24.76518
1039.478, 24.66626
1039.960, 24.94704
1040.442, 23.55579
1040.924, 26.37761
1041.406, 38.68221
1041.888, 47.37892
1042.371, 45.89798
1042.853, 41.11613
1043.335, 39.88206
1043.817, 41.14572
1044.299, 39.47498
1044.781, 32.20871
1045.263, 29.24466
1045.745, 33.67874
1046.228, 35.60141
1046.710, 30.54138
1047.192, 24.52002
1047.674, 23.09352
1048.156, 24.52934
1048.638, 22.69499
1049.120, 15.97875
1049.602, 14.16373
1050.084, 18.93694
1050.567, 22.49501
1051.049, 22.37491
1051.531, 22.37930
1052.013, 26.01736
1052.495, 30.45908
1052.977, 27.68974
1053.459, 16.97163
1053.941, 17.36238
1054.423, 30.78717
1054.906, 38.47107
1055.388, 35.94373
1055.870, 30.52383
1056.352, 26.44279
1056.834, 23.60951
1057.316, 21.96745
1057.798, 21.42101
1058.280, 21.24670
1058.763, 21.44818
1059.245, 22.68265
1059.727, 24.99097
1060.209, 26.28174
1060.691, 25.49532
1061.173, 22.85202
1061.655, 17.56548
1062.137, 11.53835
1062.620, 12.81819
1063.102, 18.85704
1063.584, 15.90536
1064.066, 4.477249
1064.548, 0.9159550
1065.030, 5.279297
1065.512, 14.00348
1065.994, 17.14471
1066.476, 16.30746
1066.958, 11.98335
1067.441, 6.664383
1067.923, 7.089828
1068.405, 11.73758
1068.887, 14.87944
1069.369, 14.52658
1069.851, 9.941086
1070.333, 1.287781
1070.815, 11.81688
1071.298, 13.85219
1071.780, 10.51097
1072.262, 3.078323
1072.744, 5.267776
1073.226, 9.059082
1073.708, 7.790787
1074.190, 4.138351
1074.672, 2.170242
1075.155, 4.625626
1075.637, 5.776505
1076.119, 16.96046
1076.601, 18.28876
1077.083, 15.00688
1077.565, 13.91191
1078.047, 15.16457
1078.529, 17.06418
1079.011, 20.34402
1079.494, 17.05507
1079.976, 7.685486
1080.458, 24.51932
1080.940, 11.71806
1081.422, 7.010468
1081.904, 10.60497
1082.386, 4.430801
1082.868, 3.165848
1083.350, 9.115891
1083.833, 13.28258
1084.315, 14.53941
1084.797, 13.50819
1085.279, 7.801025
1085.761, 2.650970
1086.243, 0.7497250
1086.725, 1.156387
1087.207, 3.407440
1087.689, 7.341476
1088.172, 8.514053
1088.654, 4.670715
1089.136, 3.714966
1089.618, 8.426529
1090.100, 11.23105
1090.582, 8.275757
1091.064, 4.071320
1091.546, 3.048218
1092.029, 4.563721
1092.511, 6.495041
1092.993, 9.025711
1093.475, 9.921494
1093.957, 8.911728
1094.439, 8.544098
1094.921, 9.514740
1095.403, 11.21674
1095.885, 13.46204
1096.368, 15.00772
1096.850, 12.50357
1097.332, 7.215927
1097.814, 6.831421
1098.296, 10.52354
1098.778, 13.68007
1099.260, 15.35040
1099.742, 14.66254
1100.224, 11.20999
1100.707, 6.850159
1101.189, 2.503998
1101.671, 0.1950070
1102.153, 3.303223
1102.635, 9.730148
1103.117, 12.79385
1103.599, 12.66426
1104.081, 11.37770
1104.564, 9.754715
1105.046, 8.750870
1105.528, 9.516830
1106.010, 9.840073
1106.492, 5.939560
1106.974, 2.625992
1107.456, 6.426117
1107.938, 12.89841
1108.421, 15.50035
1108.903, 13.81366
1109.385, 10.08546
1109.867, 3.735291
1110.349, 0.3334500
1110.831, 4.266968
1111.313, 8.457458
1111.795, 10.36049
1112.277, 10.60814
1112.760, 9.173233
1113.242, 6.764313
1113.724, 4.505249
1114.206, 2.268661
1114.688, 1.833191
1115.170, 4.152924
1115.652, 6.575287
1116.134, 7.999435
1116.616, 11.21361
1117.099, 20.26224
1117.581, 27.66829
1118.063, 22.60069
1118.545, 8.130234
1119.027, 3.730515
1119.509, 11.35112
1119.991, 16.97826
1120.473, 20.32565
1120.956, 18.54387
1121.438, 9.957901
1121.920, 3.868790
1122.402, 8.117920
1122.884, 16.30736
1123.366, 14.28180
1123.848, 5.377060
1124.330, 7.232193
1124.813, 16.84122
1125.295, 19.10143
1125.777, 12.81604
1126.259, 6.545883
1126.741, 4.213531
1127.223, 5.524719
1127.705, 12.63356
1128.187, 20.03650
1128.669, 20.53293
1129.151, 16.62958
1129.634, 8.869110
1130.116, 0.8912810
1130.598, 0.4836120
1131.080, 7.668106
1131.562, 12.12016
1132.044, 7.370972
1132.526, 4.092331
1133.008, 11.34662
1133.491, 17.59485
1133.973, 13.20850
1134.455, 5.932678
1134.937, 4.318893
1135.419, 6.956024
1135.901, 7.463135
1136.383, 3.848495
1136.865, 5.182831
1137.348, 17.53836
1137.830, 24.72615
1138.312, 22.08066
1138.794, 17.76378
1139.276, 14.04567
1139.758, 10.10651
1140.240, 5.097015
1140.722, 0.4597780
1141.204, 2.925629
1141.687, 1.939651
1142.169, 1.091766
1142.651, 0.5734100
1143.133, 0.1864620
1143.615, 1.384735
1144.097, 2.273682
1144.579, 2.396378
1145.061, 1.420303
1145.543, 3.450500
1146.026, 9.098038
1146.508, 3.224228
1146.990, 9.783157
1147.472, 14.76320
1147.954, 11.03261
1148.436, 7.452072
1148.918, 7.334930
1149.400, 8.601944
1149.883, 10.08246
1150.365, 10.42772
1150.847, 6.591904
1151.329, 2.711960
1151.811, 3.403580
1152.293, 6.622833
1152.775, 9.614288
1153.257, 11.71832
1153.740, 12.32088
1154.222, 10.64026
1154.704, 9.711487
1155.186, 8.874252
1155.668, 10.61771
1156.150, 21.78314
1156.632, 29.32942
1157.114, 20.67419
1157.596, 6.210968
1158.078, 3.937973
1158.561, 13.18092
1159.043, 14.72360
1159.525, 5.970993
1160.007, 1.417725
1160.489, 2.799942
1160.971, 3.730515
1161.453, 1.727646
1161.935, 1.533142
1162.418, 7.603851
1162.900, 15.78690
1163.382, 17.81075
1163.864, 15.27415
1164.346, 13.69388
1164.828, 12.75806
1165.310, 10.10274
1165.792, 6.555374
1166.275, 8.314011
1166.757, 17.24190
1167.239, 23.19751
1167.721, 15.87125
1168.203, 6.954758
1168.685, 7.442368
1169.167, 10.19049
1169.649, 7.374771
1170.131, 2.756561
1170.614, 2.446198
1171.096, 6.385864
1171.578, 11.39388
1172.060, 18.39240
1172.542, 20.76520
1173.024, 12.46965
1173.506, 6.655914
1173.988, 7.780884
1174.470, 10.17760
1174.953, 11.13983
1175.435, 11.19244
1175.917, 11.02040
1176.399, 10.62251
1176.881, 10.02908
1177.363, 9.261414
1177.845, 7.465515
1178.327, 4.488373
1178.810, 5.130493
1179.292, 10.67221
1179.774, 14.27559
1180.256, 11.21568
1180.738, 5.947922
1181.220, 4.198929
1181.702, 4.699234
1182.184, 5.435532
1182.667, 6.400177
1183.149, 7.041855
1183.631, 8.207443
1184.113, 12.60570
1184.595, 20.22440
1185.077, 24.00710
1185.559, 18.61800
1186.041, 13.43228
1186.523, 14.33754
1187.005, 15.05463
1187.488, 10.70055
1187.970, 5.707016
1188.452, 3.440521
1188.934, 4.305389
1189.416, 10.08665
1189.898, 21.61719
1190.380, 24.69307
1190.862, 14.27284
1191.345, 11.53970
1191.827, 20.71581
1192.309, 28.95723
1192.791, 32.14967
1193.273, 27.94257
1193.755, 12.28125
1194.237, 4.902603
1194.719, 0.4094850
1195.202, 20.10411
1195.684, 24.67696
1196.166, 17.99879
1196.648, 12.22488
1197.130, 9.070084
1197.612, 5.708481
1198.094, 1.500839
1198.576, 1.311310
1199.058, 11.25243
1199.541, 20.46031
1200.023, 19.95854
1200.505, 17.33604
1200.987, 19.61292
1201.469, 21.98921
1201.951, 17.13608
1202.433, 7.380341
1202.915, 1.464371
1203.397, 0.9480440
1203.880, 1.538986
1204.362, 8.245361
1204.844, 9.378906
1205.326, 1.250900
1205.808, 4.031647
1206.290, 0.6049040
1206.772, 3.500824
1207.254, 2.2629000E-02
1207.737, 7.777634
1208.219, 12.95065
1208.701, 15.78969
1209.183, 17.48767
1209.665, 18.09001
1210.147, 17.27925
1210.629, 15.05409
1211.111, 10.85156
1211.594, 4.794373
1212.076, 0.4416500
1212.558, 0.3645020
1213.040, 2.370956
1213.522, 12.89182
1214.004, 22.23315
1214.486, 21.35297
1214.968, 17.46729
1215.450, 19.70982
1215.932, 26.07874
1216.415, 28.72173
1216.897, 26.67082
1217.379, 24.83720
1217.861, 23.13544
1218.343, 21.82884
1218.825, 20.76930
1219.307, 20.81766
1219.789, 22.44907
1220.271, 24.44942
1220.754, 25.78459
1221.236, 26.88713
1221.718, 29.45515
1222.200, 32.16170
1222.682, 29.56462
1223.164, 23.94983
1223.646, 21.58192
1224.128, 22.19839
1224.611, 22.27594
1225.093, 20.90987
1225.575, 19.75604
1226.057, 19.21092
1226.539, 20.23318
1227.021, 26.49374
1227.503, 30.48784
1227.985, 24.96609
1228.468, 18.38795
1228.950, 19.32352
1229.432, 23.94193
1229.914, 24.83453
1230.396, 22.19685
1230.878, 19.23138
1231.360, 16.80486
1231.842, 17.52751
1232.324, 22.08493
1232.807, 23.15550
1233.289, 18.88907
1233.771, 14.23605
1234.253, 12.34007
1234.735, 11.31427
1235.217, 8.282532
1235.699, 4.045105
1236.181, 3.012634
1236.663, 4.974594
1237.146, 6.377777
1237.628, 7.772690
1238.110, 5.657837
1238.592, 1.929352
1239.074, 8.142349
1239.556, 32.98079
1240.038, 43.24258
1240.520, 14.77057
1241.003, 2.132721
1241.485, 11.63567
1241.967, 22.79243
1242.449, 12.82336
1242.931, 3.1403001E-02
1243.413, 5.017349
1243.895, 20.47629
1244.377, 25.11183
1244.859, 20.42534
1245.342, 19.11659
1245.824, 20.54172
1246.306, 20.83139
1246.788, 19.61328
1247.270, 18.22144
1247.752, 17.13211
1248.234, 15.94864
1248.716, 14.28595
1249.198, 12.81032
1249.681, 10.44638
1250.163, 10.19086
1250.645, 16.93581
1251.127, 24.13110
1251.609, 25.88213
1252.091, 23.17819
1252.573, 17.35237
1253.055, 8.852722
1253.538, 7.200378
1254.020, 14.22552
1254.502, 15.51953
1254.984, 8.596497
1255.466, 6.339096
1255.948, 11.74165
1256.430, 15.62152
1256.912, 12.63707
1257.395, 8.959290
1257.877, 12.01373
1258.359, 17.31552
1258.841, 18.62270
1259.323, 18.40680
1259.805, 20.27626
1260.287, 22.66054
1260.769, 22.37585
1261.251, 19.97986
1261.734, 19.45006
1262.216, 22.40027
1262.698, 20.42291
1263.180, 5.519196
1263.662, 0.7494050
1264.144, 6.900864
1264.626, 14.50447
1265.108, 17.38873
1265.590, 10.93190
1266.073, 5.050873
1266.555, 0.0000000E+00
##END=



