##NAMES=Artinite
##RRUFFID=R060166
##IDEAL CHEMISTRY=Mg_2_CO_3_(OH)_2_&#183;3H_2_O
##LOCALITY=San Benito County, California, USA
##OWNER=RRUFF
##SOURCE=Marcus Origlieri
##DESCRIPTION=Spherical aggregates of divergent colorless acicular crystals
##STATUS=The identification of this mineral has been confirmed by X-ray diffraction and chemical analysis
##URL=rruff.info/R060166
##MEASURED CHEMISTRY=Mg_2.00_CO_3_(OH)_2_Â·3H_2_O ; C and H not measured but estimated by charge balance
149.8793, 0.0000000E+00
150.3615, 0.6541900
150.8436, 1.272812
151.3257, 1.577209
151.8078, 1.083862
152.2899, 0.3597410
152.7720, 0.1199950
153.2542, 0.1200870
153.7363, 0.2328190
154.2184, 0.9254610
154.7005, 1.967911
155.1826, 3.451538
155.6647, 5.322403
156.1469, 6.992004
156.6290, 8.345993
157.1111, 9.564178
157.5932, 10.54852
158.0753, 11.41818
158.5574, 12.40178
159.0396, 13.72003
159.5217, 15.43593
160.0038, 16.84863
160.4859, 17.69475
160.9680, 18.55571
161.4501, 19.65068
161.9323, 21.00298
162.4144, 22.55452
162.8965, 24.27249
163.3786, 26.18214
163.8607, 27.99368
164.3428, 29.29965
164.8250, 30.76978
165.3071, 32.95120
165.7892, 35.95769
166.2713, 39.46716
166.7534, 43.17769
167.2355, 47.09886
167.7177, 51.17433
168.1998, 55.25560
168.6819, 59.59999
169.1640, 64.61050
169.6461, 70.55230
170.1282, 76.84883
170.6104, 83.04090
171.0925, 89.21609
171.5746, 94.39648
172.0567, 98.46507
172.5388, 101.5334
173.0209, 103.0130
173.5031, 102.8198
173.9852, 100.4688
174.4673, 95.59268
174.9494, 88.67686
175.4315, 80.90994
175.9136, 72.89779
176.3958, 64.77792
176.8779, 56.91992
177.3600, 49.26294
177.8421, 42.22781
178.3242, 36.03481
178.8063, 30.73618
179.2885, 26.32383
179.7706, 22.93282
180.2527, 20.78461
180.7348, 18.93379
181.2169, 17.30669
181.6990, 15.94993
182.1812, 14.98782
182.6633, 14.41157
183.1454, 14.04153
183.6275, 13.62994
184.1096, 13.06515
184.5917, 12.78593
185.0738, 13.05205
185.5560, 13.36313
186.0381, 13.37584
186.5202, 13.00632
187.0023, 12.40572
187.4844, 11.83625
187.9665, 11.54967
188.4487, 10.82540
188.9308, 9.280563
189.4129, 7.514130
189.8950, 6.106300
190.3771, 5.250916
190.8592, 4.698387
191.3414, 3.967712
191.8235, 2.867287
192.3056, 1.958237
192.7877, 1.445801
193.2698, 1.122040
193.7519, 0.6760710
194.2341, 2.6001001E-02
194.7162, 0.8040470
195.1983, 1.265404
195.6804, 1.386185
196.1625, 1.425018
196.6446, 1.454742
197.1268, 1.459518
197.6089, 1.374855
198.0910, 1.119415
198.5731, 0.8639450
199.0552, 0.9345250
199.5373, 1.410187
200.0195, 1.765533
200.5016, 1.631950
200.9837, 1.100220
201.4658, 0.6434710
201.9479, 0.4598390
202.4300, 0.3445280
202.9122, 7.9620004E-02
203.3943, 0.3479690
203.8764, 0.8542330
204.3585, 1.421997
204.8406, 2.052528
205.3227, 2.595535
205.8048, 3.062157
206.2870, 3.375679
206.7691, 3.372162
207.2512, 3.043785
207.7333, 3.095146
208.2154, 3.670532
208.6975, 4.896461
209.1797, 5.890297
209.6618, 6.383026
210.1439, 6.679161
210.6260, 6.868858
211.1081, 6.998596
211.5902, 7.134842
212.0724, 7.386200
212.5545, 7.841805
213.0366, 8.136528
213.5187, 8.206612
214.0008, 8.145355
214.4829, 7.866562
214.9651, 7.415287
215.4472, 7.068233
215.9293, 7.299885
216.4114, 8.578247
216.8935, 9.468788
217.3756, 9.808636
217.8578, 9.946251
218.3399, 10.06142
218.8220, 10.21918
219.3041, 10.43922
219.7862, 10.75434
220.2683, 11.19548
220.7505, 11.69051
221.2326, 12.29508
221.7147, 12.91347
222.1968, 13.49274
222.6789, 14.01385
223.1610, 14.45551
223.6432, 14.77008
224.1253, 14.80152
224.6074, 15.04917
225.0895, 15.73301
225.5716, 16.50858
226.0537, 17.04248
226.5358, 17.26142
227.0180, 17.35548
227.5001, 17.58278
227.9822, 17.98231
228.4643, 18.40722
228.9464, 18.79963
229.4285, 19.23549
229.9107, 19.79453
230.3928, 20.49288
230.8749, 21.29623
231.3570, 22.18612
231.8391, 23.17078
232.3212, 24.14391
232.8034, 25.11757
233.2855, 26.05808
233.7676, 26.90901
234.2497, 27.65195
234.7318, 28.35743
235.2139, 29.06982
235.6961, 29.79149
236.1782, 30.62849
236.6603, 31.68452
237.1424, 32.84847
237.6245, 33.96173
238.1066, 35.00517
238.5888, 35.99860
239.0709, 37.10770
239.5530, 38.23746
240.0351, 38.98899
240.5172, 38.98785
240.9993, 38.56967
241.4815, 38.39453
241.9636, 38.58683
242.4457, 38.79002
242.9278, 38.75305
243.4099, 38.54156
243.8920, 38.25948
244.3742, 37.90445
244.8563, 37.51195
245.3384, 37.17161
245.8205, 36.90596
246.3026, 36.64863
246.7847, 36.23501
247.2668, 35.40704
247.7490, 35.35352
248.2311, 35.07617
248.7132, 34.58785
249.1953, 33.27304
249.6774, 32.99673
250.1595, 32.28030
250.6417, 31.53483
251.1238, 31.37008
251.6059, 30.10647
252.0880, 29.88518
252.5701, 29.18534
253.0522, 28.65263
253.5344, 27.68629
254.0165, 27.06886
254.4986, 26.87054
254.9807, 26.68693
255.4628, 26.09945
255.9449, 24.88198
256.4271, 23.37803
256.9092, 22.36684
257.3913, 22.01442
257.8734, 21.82248
258.3555, 21.95943
258.8376, 22.11208
259.3198, 21.85354
259.8019, 20.99495
260.2840, 19.92336
260.7661, 19.50424
261.2482, 20.13986
261.7303, 20.69454
262.2125, 21.17239
262.6946, 21.45560
263.1767, 21.33492
263.6588, 20.77064
264.1409, 20.06806
264.6230, 19.79016
265.1052, 20.22911
265.5873, 20.52672
266.0694, 20.54626
266.5515, 20.51077
267.0336, 20.59496
267.5157, 20.82656
267.9979, 21.09256
268.4800, 21.21681
268.9621, 21.09612
269.4442, 21.05410
269.9263, 21.13596
270.4084, 21.24862
270.8906, 21.29894
271.3727, 21.29213
271.8548, 21.33601
272.3369, 21.57578
272.8190, 22.09180
273.3011, 22.53373
273.7833, 22.96868
274.2654, 23.30374
274.7475, 23.43997
275.2296, 23.40084
275.7117, 23.31848
276.1938, 23.33878
276.6760, 23.51361
277.1581, 23.46453
277.6402, 23.07580
278.1223, 22.62991
278.6044, 22.19985
279.0865, 21.81773
279.5686, 21.55585
280.0508, 21.51189
280.5329, 21.69960
281.0150, 21.45944
281.4971, 20.36344
281.9792, 19.36287
282.4613, 18.90374
282.9435, 18.83004
283.4256, 18.73155
283.9077, 18.34627
284.3898, 17.69688
284.8719, 17.01398
285.3540, 16.38914
285.8362, 15.64272
286.3183, 14.56690
286.8004, 13.33990
287.2825, 12.30920
287.7646, 11.66330
288.2467, 11.29609
288.7289, 10.82553
289.2110, 10.25130
289.6931, 9.599133
290.1752, 8.723232
290.6573, 7.815628
291.1394, 7.187981
291.6216, 6.968296
292.1037, 6.973740
292.5858, 6.818596
293.0679, 6.351368
293.5500, 6.017124
294.0321, 6.024601
294.5143, 6.122139
294.9964, 5.993259
295.4785, 5.551704
295.9606, 5.006500
296.4427, 4.658813
296.9248, 4.601715
297.4070, 4.471848
297.8891, 4.131065
298.3712, 3.804802
298.8533, 3.759686
299.3354, 4.011494
299.8175, 4.257034
300.2997, 4.176949
300.7818, 3.649376
301.2639, 3.285877
301.7460, 3.256737
302.2281, 3.306046
302.7102, 3.162529
303.1924, 2.863991
303.6745, 2.654339
304.1566, 2.755524
304.6387, 3.147549
305.1208, 3.313915
305.6029, 3.076767
306.0851, 2.814178
306.5672, 2.711575
307.0493, 2.741608
307.5314, 2.792866
308.0135, 2.798687
308.4956, 2.781696
308.9778, 2.842026
309.4599, 3.011311
309.9420, 3.202061
310.4241, 3.414982
310.9062, 3.628193
311.3883, 3.805031
311.8705, 3.935783
312.3526, 4.004349
312.8347, 3.947136
313.3168, 3.682220
313.7989, 3.503597
314.2810, 3.501598
314.7632, 3.606899
315.2453, 3.726418
315.7274, 3.834194
316.2095, 3.969166
316.6916, 4.206013
317.1737, 4.588802
317.6559, 4.872730
318.1380, 4.937752
318.6201, 4.955482
319.1022, 5.115940
319.5843, 5.435249
320.0664, 5.744835
320.5485, 5.894627
321.0306, 5.699320
321.5128, 5.938892
321.9949, 6.082997
322.4770, 6.136767
322.9591, 5.829643
323.4412, 5.988539
323.9233, 5.960676
324.4055, 5.925157
324.8876, 6.149644
325.3697, 5.603909
325.8518, 5.369728
326.3339, 5.153034
326.8160, 4.885231
327.2982, 4.584503
327.7803, 4.277569
328.2624, 3.966946
328.7445, 3.682018
329.2266, 3.520466
329.7087, 3.619408
330.1909, 3.580647
330.6730, 3.247925
331.1551, 2.766258
331.6372, 2.275002
332.1193, 1.812023
332.6014, 1.466053
333.0836, 1.399395
333.5657, 1.771381
334.0478, 1.945839
334.5299, 1.811398
335.0120, 1.532166
335.4941, 1.174015
335.9763, 0.7735020
336.4584, 0.4545100
336.9405, 0.3622470
337.4226, 0.5256840
337.9047, 0.5259970
338.3868, 0.1734730
338.8690, 0.1459310
339.3511, 0.2129210
339.8332, 7.3059000E-02
340.3153, 0.1247140
340.7974, 0.3072400
341.2795, 0.4536250
341.7617, 0.4105760
342.2438, 7.3425002E-02
342.7259, 0.4212990
343.2080, 0.4795610
343.6901, 0.3278960
344.1722, 2.3166999E-02
344.6544, 0.4180340
345.1365, 0.8546680
345.6186, 0.9900700
346.1007, 0.6261600
346.5828, 0.2264100
347.0649, 0.3398210
347.5471, 0.8613470
348.0292, 1.128239
348.5113, 1.111160
348.9934, 0.9554210
349.4755, 0.8270260
349.9576, 0.7341380
350.4398, 0.6350940
350.9219, 0.4781720
351.4040, 0.3422660
351.8861, 0.3134570
352.3682, 0.3695720
352.8503, 0.4191130
353.3325, 0.3925440
353.8146, 0.2962530
354.2967, 0.2172050
354.7788, 5.7597999E-02
355.2609, 5.8439998E-03
355.7430, 0.2088360
356.2252, 0.5400350
356.7073, 0.7955320
357.1894, 0.8817790
357.6715, 1.122387
358.1536, 0.4538230
358.6357, 5.5080000E-03
359.1179, 0.2365720
359.5999, 0.3384170
360.0821, 0.1422810
360.5642, 0.1996880
361.0463, 0.2388110
361.5284, 0.8661770
362.0105, 0.4093320
362.4926, 0.9076610
362.9748, 1.060268
363.4569, 1.192291
363.9390, 1.394691
364.4211, 1.803276
364.9032, 2.330887
365.3853, 2.737804
365.8675, 2.816509
366.3496, 2.612793
366.8317, 2.571163
367.3138, 2.819008
367.7959, 3.079498
368.2780, 3.265549
368.7602, 3.437553
369.2423, 3.718750
369.7244, 4.169453
370.2065, 4.621979
370.6886, 4.681141
371.1707, 4.091240
371.6529, 3.758213
372.1350, 3.892483
372.6171, 4.244614
373.0992, 4.754742
373.5813, 5.369579
374.0634, 5.918709
374.5456, 6.193760
375.0277, 6.181091
375.5098, 6.179356
375.9919, 6.092129
376.4740, 6.146587
376.9561, 6.621803
377.4383, 7.314598
377.9204, 7.750671
378.4025, 7.574059
378.8846, 7.004971
379.3667, 6.683586
379.8488, 6.731594
380.3310, 6.711441
380.8131, 6.372936
381.2952, 5.910416
381.7773, 5.513584
382.2594, 5.235191
382.7415, 5.005802
383.2237, 4.790646
383.7058, 4.588631
384.1879, 4.257671
384.6700, 3.635326
385.1521, 3.005985
385.6342, 2.630325
386.1164, 2.498432
386.5985, 2.407352
387.0806, 2.226353
387.5627, 2.009964
388.0448, 1.912876
388.5269, 1.987072
389.0091, 2.047596
389.4912, 1.909058
389.9733, 1.652653
390.4554, 1.457584
390.9375, 1.334366
391.4196, 1.312912
391.9018, 1.475090
392.3839, 1.797474
392.8660, 2.061932
393.3481, 2.143456
393.8302, 2.139645
394.3123, 2.277702
394.7945, 2.648567
395.2766, 2.868908
395.7587, 2.676571
396.2408, 2.260616
396.7229, 1.917461
397.2050, 1.706703
397.6872, 1.625675
398.1693, 1.683884
398.6514, 1.893875
399.1335, 2.126472
399.6156, 2.513283
400.0977, 2.807999
400.5798, 2.764103
401.0620, 2.446888
401.5441, 2.144295
402.0262, 2.038979
402.5083, 2.077660
402.9904, 2.021969
403.4725, 1.720936
403.9547, 1.521549
404.4368, 1.618423
404.9189, 1.794247
405.4010, 1.749439
405.8831, 1.410748
406.3652, 0.9662090
406.8474, 0.6853640
407.3295, 0.6601100
407.8116, 0.5285030
408.2937, 0.1533510
408.7758, 0.1904870
409.2579, 0.3689540
409.7401, 0.3851590
410.2222, 0.2744980
410.7043, 3.1261001E-02
411.1864, 0.3089450
411.6685, 0.4088250
412.1506, 7.2581999E-02
412.6328, 0.3783150
413.1149, 0.2924960
413.5970, 4.1457999E-02
414.0791, 0.1346740
414.5612, 0.1574750
415.0433, 0.1062240
415.5255, 8.5341997E-02
416.0076, 0.1601790
416.4897, 0.2268030
416.9718, 0.2030260
417.4539, 0.1847720
417.9360, 0.2907980
418.4182, 0.4782300
418.9003, 0.6486820
419.3824, 0.7216720
419.8645, 0.7201310
420.3466, 0.7793500
420.8287, 0.9327010
421.3109, 1.071373
421.7930, 1.112865
422.2751, 1.132492
422.7572, 1.235252
423.2393, 1.469379
423.7214, 1.696781
424.2036, 1.730236
424.6857, 1.579605
425.1678, 1.518299
425.6499, 1.685574
426.1320, 1.859192
426.6141, 1.745052
427.0963, 1.396450
427.5784, 1.246643
428.0605, 1.661495
428.5426, 2.311478
429.0247, 2.681702
429.5068, 2.737637
429.9890, 2.696857
430.4711, 2.646999
430.9532, 2.614170
431.4353, 2.662796
431.9174, 2.820885
432.3995, 3.019295
432.8817, 3.265076
433.3638, 3.521603
433.8459, 3.709129
434.3280, 3.799774
434.8101, 3.829414
435.2922, 3.838322
435.7744, 3.815910
436.2565, 3.816963
436.7386, 3.644853
437.2207, 3.947324
437.7028, 4.154325
438.1849, 4.270998
438.6671, 4.026792
439.1492, 4.248585
439.6313, 4.283619
440.1134, 4.310999
440.5955, 4.598382
441.0776, 4.406652
441.5598, 4.689933
442.0418, 4.783568
442.5240, 4.964014
443.0061, 4.956536
443.4882, 5.007093
443.9703, 5.245629
444.4524, 5.380077
444.9345, 5.350967
445.4167, 5.536929
445.8988, 5.338634
446.3809, 5.477515
446.8630, 5.761880
447.3451, 5.742213
447.8272, 5.931600
448.3094, 6.041380
448.7915, 5.789323
449.2736, 6.166514
449.7557, 6.271578
450.2378, 6.097218
450.7199, 6.663326
451.2021, 7.070404
451.6842, 7.387096
452.1663, 7.699368
452.6484, 8.103970
453.1305, 8.569969
453.6126, 8.942074
454.0948, 9.204384
454.5769, 9.387756
455.0590, 9.438869
455.5411, 9.427544
456.0232, 9.469242
456.5053, 9.522976
456.9875, 9.748032
457.4696, 10.42086
457.9517, 11.41081
458.4338, 12.10655
458.9159, 12.23571
459.3980, 12.11971
459.8802, 12.22565
460.3623, 12.55542
460.8444, 12.95619
461.3265, 13.41895
461.8086, 13.92178
462.2907, 14.48308
462.7729, 15.08268
463.2550, 15.62244
463.7371, 16.03937
464.2192, 16.36783
464.7013, 16.67155
465.1834, 16.84261
465.6656, 17.08814
466.1477, 17.46167
466.6298, 17.91431
467.1119, 18.42637
467.5940, 18.96445
468.0761, 19.45430
468.5583, 19.81527
469.0404, 20.04020
469.5225, 20.22207
470.0046, 20.48511
470.4867, 20.54564
470.9688, 20.21238
471.4510, 19.67210
471.9331, 19.21337
472.4152, 18.97368
472.8973, 18.82811
473.3794, 18.55433
473.8615, 18.14325
474.3437, 17.65887
474.8258, 17.19534
475.3079, 16.58327
475.7900, 15.55573
476.2721, 14.21481
476.7542, 13.07054
477.2364, 12.60648
477.7185, 12.53044
478.2006, 12.13448
478.6827, 11.36097
479.1648, 10.61919
479.6469, 10.21262
480.1291, 9.925205
480.6112, 9.320435
481.0933, 8.213821
481.5754, 7.270416
482.0575, 7.013172
482.5396, 7.104191
483.0217, 6.888622
483.5038, 6.228539
483.9860, 5.445301
484.4681, 4.824615
484.9502, 4.377750
485.4323, 3.950813
485.9144, 3.493328
486.3965, 3.107777
486.8787, 2.871269
487.3608, 2.729153
487.8429, 2.561352
488.3250, 2.319077
488.8071, 2.098961
489.2892, 2.098373
489.7714, 2.506195
490.2535, 2.662132
490.7356, 2.425121
491.2177, 2.112007
491.6998, 1.886036
492.1819, 1.719933
492.6641, 1.484974
493.1462, 1.073620
493.6283, 0.5989040
494.1104, 0.4384880
494.5925, 0.7597730
495.0746, 0.9412730
495.5568, 0.6318440
496.0389, 0.2749250
496.5210, 0.2113720
497.0031, 0.4503360
497.4852, 0.7126730
497.9673, 0.7998540
498.4495, 0.7614400
498.9316, 0.7288700
499.4137, 0.7073630
499.8958, 0.6904300
500.3779, 0.7147830
500.8600, 0.7237700
501.3422, 0.5805590
501.8243, 0.1549070
502.3064, 0.1538090
502.7885, 4.0123001E-02
503.2706, 0.2964320
503.7527, 0.4916690
504.2349, 0.4657550
504.7170, 0.3728260
505.1991, 0.3818550
505.6812, 0.5034870
506.1633, 0.4280090
506.6454, 0.1264230
507.1276, 0.5435520
507.6097, 0.5158270
508.0918, 0.2281150
508.5739, 5.4489002E-02
509.0560, 0.2286680
509.5381, 0.3083530
510.0203, 0.3044890
510.5024, 0.1861950
510.9845, 8.9905001E-02
511.4666, 2.5899999E-04
511.9487, 4.8767000E-02
512.4308, 4.9599999E-04
512.9130, 9.3131997E-02
513.3951, 0.1085550
513.8772, 4.7286998E-02
514.3593, 0.2145810
514.8414, 3.0113000E-02
515.3235, 0.5767780
515.8057, 0.9987450
516.2878, 1.042572
516.7699, 0.9029960
517.2520, 0.6842420
517.7341, 0.4128420
518.2162, 0.2543070
518.6984, 0.3687670
519.1805, 0.5805470
519.6626, 0.7009850
520.1447, 0.7231480
520.6268, 0.5843280
521.1089, 0.1636200
521.5911, 0.3297770
522.0732, 0.3254930
522.5553, 0.4319500
523.0374, 0.8539200
523.5195, 0.4578020
524.0016, 0.1360590
524.4838, 0.4013370
524.9659, 0.3178830
525.4480, 0.1148910
525.9301, 5.7948999E-02
526.4122, 0.1970410
526.8943, 0.2845420
527.3765, 0.3034520
527.8586, 0.2892880
528.3407, 0.1823270
528.8228, 8.8744998E-02
529.3049, 8.9394003E-02
529.7870, 0.1950300
530.2692, 0.3798710
530.7513, 0.6803590
531.2334, 1.047966
531.7155, 1.163612
532.1976, 0.9146230
532.6797, 0.6758040
533.1619, 0.6198920
533.6440, 0.6477470
534.1261, 0.6715430
534.6082, 0.6789930
535.0903, 0.6708070
535.5724, 0.6564030
536.0546, 0.6245610
536.5367, 0.4980160
537.0188, 0.2521130
537.5009, 0.1421130
537.9830, 0.4099880
538.4651, 0.9763790
538.9473, 1.372513
539.4294, 1.609180
539.9115, 1.682018
540.3936, 1.356583
540.8757, 0.9765890
541.3578, 1.045273
541.8400, 1.619019
542.3221, 2.281670
542.8042, 2.617882
543.2863, 2.624676
543.7684, 2.508461
544.2505, 2.058193
544.7326, 1.742874
545.2147, 1.702118
545.6968, 1.812374
546.1790, 1.976551
546.6611, 2.158627
547.1432, 2.292721
547.6253, 2.241718
548.1074, 2.034946
548.5895, 2.050625
549.0717, 2.425400
549.5538, 2.772495
550.0359, 2.776218
550.5180, 2.589584
551.0001, 2.491405
551.4822, 2.587009
551.9644, 2.622929
552.4465, 2.292889
552.9286, 1.819290
553.4107, 1.735168
553.8928, 2.149773
554.3749, 2.600220
554.8571, 2.663876
555.3392, 2.350830
555.8213, 2.128838
556.3034, 1.995762
556.7855, 1.938801
557.2676, 2.025700
557.7498, 2.152615
558.2319, 2.193176
558.7140, 2.121078
559.1961, 2.003891
559.6782, 1.914242
560.1603, 1.843769
560.6425, 1.730873
561.1246, 1.518021
561.6067, 1.350132
562.0888, 1.271950
562.5709, 1.255981
563.0530, 1.279945
563.5352, 1.340553
564.0173, 1.413166
564.4994, 1.464520
564.9815, 1.485573
565.4636, 1.541676
565.9457, 1.685635
566.4279, 1.690159
566.9100, 1.266991
567.3921, 0.5893140
567.8742, 0.2873760
568.3563, 0.6085590
568.8384, 0.8845790
569.3206, 0.8008190
569.8027, 0.5936360
570.2848, 0.5809860
570.7669, 0.7936210
571.2490, 1.004715
571.7311, 0.9995040
572.2133, 0.8019070
572.6954, 0.7349550
573.1775, 0.9262350
573.6596, 1.064220
574.1417, 1.129967
574.6238, 1.131794
575.1060, 0.9775620
575.5881, 0.7063870
576.0702, 0.5545540
576.5523, 0.8399160
577.0344, 1.390617
577.5165, 1.501732
577.9987, 1.076767
578.4808, 0.7416950
578.9629, 0.8159290
579.4450, 1.036716
579.9271, 1.039932
580.4092, 0.8186230
580.8914, 0.5995750
581.3735, 0.4024010
581.8556, 0.2814450
582.3377, 0.3929060
582.8198, 0.7132070
583.3019, 0.9691930
583.7841, 0.9861790
584.2662, 0.8451920
584.7483, 0.7874030
585.2304, 0.8992840
585.7125, 0.9589580
586.1946, 0.9343300
586.6768, 0.8767550
587.1589, 0.7701230
587.6410, 0.6591150
588.1231, 0.6499060
588.6052, 0.8278430
589.0873, 1.073128
589.5695, 1.118027
590.0516, 0.9337650
590.5337, 0.7450790
591.0158, 0.5273320
591.4979, 0.4030300
591.9800, 0.5598600
592.4622, 0.9109230
592.9443, 1.094173
593.4264, 0.8803630
593.9085, 0.5662310
594.3906, 0.3557130
594.8727, 0.2372550
595.3549, 0.1957440
595.8370, 0.2358060
596.3191, 0.3298720
596.8012, 0.4642300
597.2833, 0.6677090
597.7654, 0.6988640
598.2476, 0.3871120
598.7297, 0.1276860
599.2118, 7.1990997E-02
599.6939, 0.1305270
600.1760, 0.1933400
600.6581, 0.2387390
601.1403, 0.2616650
601.6224, 0.2169190
602.1045, 0.1130030
602.5866, 0.1907200
603.0687, 0.5688550
603.5508, 0.8646240
604.0330, 0.7806020
604.5151, 0.5503080
604.9972, 0.5010490
605.4793, 0.7287330
605.9614, 0.8336910
606.4435, 0.3963390
606.9257, 0.1759380
607.4078, 0.2398870
607.8899, 0.2099040
608.3720, 0.6963730
608.8541, 0.9328730
609.3362, 0.9642790
609.8184, 0.9300040
610.3005, 0.7477150
610.7826, 0.6232150
611.2647, 0.6246340
611.7468, 0.6224520
612.2289, 0.4981920
612.7111, 0.2981340
613.1932, 0.1566700
613.6753, 0.1497990
614.1574, 0.2428020
614.6395, 0.4021870
615.1216, 0.6394200
615.6038, 0.7958600
616.0859, 0.8280220
616.5680, 0.7925800
617.0501, 0.6969150
617.5322, 0.5672070
618.0143, 0.4994890
618.4965, 0.5718120
618.9786, 0.6449170
619.4607, 0.6396520
619.9428, 0.5757410
620.4249, 0.4583700
620.9070, 0.2963980
621.3892, 0.1952100
621.8713, 0.2841190
622.3534, 0.5588950
622.8355, 0.6717680
623.3176, 0.4545860
623.7997, 0.2874370
624.2819, 0.2747880
624.7640, 0.3036420
625.2461, 0.2644690
625.7282, 0.1488570
626.2103, 3.4522999E-02
626.6924, 5.3932000E-02
627.1745, 9.0880997E-02
627.6566, 4.6737999E-02
628.1387, 0.3814930
628.6208, 0.5770490
629.1030, 0.4542500
629.5851, 0.1938630
630.0672, 7.0712999E-02
630.5493, 9.2479996E-02
631.0314, 6.5165997E-02
631.5135, 0.1772580
631.9957, 0.3466110
632.4778, 0.1639370
632.9599, 0.2143210
633.4420, 0.4701690
633.9241, 0.4806180
634.4063, 0.3231930
634.8884, 4.6195999E-02
635.3705, 0.4040300
635.8526, 0.5149040
636.3347, 1.8673001E-02
636.8168, 0.4482460
637.2990, 0.7026670
637.7811, 0.7921370
638.2632, 0.7302250
638.7453, 0.5097960
639.2274, 0.3190230
639.7095, 0.3344310
640.1917, 0.4512140
640.6738, 0.4869160
641.1559, 0.4281620
641.6380, 0.3000760
642.1201, 8.3480999E-02
642.6022, 0.1370200
643.0844, 0.1560130
643.5665, 0.2078970
644.0486, 0.3957060
644.5307, 0.1636620
645.0128, 8.1940005E-03
645.4949, 0.2475810
645.9771, 0.7473750
646.4592, 1.112556
646.9413, 1.175282
647.4234, 1.048401
647.9055, 0.8057400
648.3876, 0.4541130
648.8698, 0.3919260
649.3519, 0.8036770
649.8340, 1.152336
650.3161, 0.9642520
650.7982, 0.5217630
651.2803, 0.4195210
651.7625, 0.8526880
652.2446, 1.222115
652.7267, 1.198032
653.2088, 1.053474
653.6909, 1.175526
654.1730, 1.508129
654.6552, 1.622414
655.1373, 1.237232
655.6194, 0.5575980
656.1015, 8.8408999E-02
656.5836, 0.1823310
657.0657, 0.2088510
657.5479, 0.3309170
658.0300, 0.8162420
658.5121, 0.9052700
658.9942, 0.7572630
659.4763, 0.7313190
659.9584, 0.9972500
660.4406, 1.241642
660.9227, 1.089241
661.4048, 0.7060320
661.8869, 0.5603870
662.3690, 0.7248650
662.8511, 0.8897510
663.3333, 0.8177830
663.8154, 0.5856170
664.2975, 0.5152740
664.7796, 0.6798100
665.2617, 0.8885350
665.7438, 1.261353
666.2260, 1.592930
666.7081, 1.751156
667.1902, 1.756226
667.6723, 1.665092
668.1544, 1.482574
668.6365, 1.330208
669.1187, 1.458733
669.6008, 1.850731
670.0829, 2.089520
670.5650, 2.077419
671.0471, 2.008087
671.5292, 2.012047
672.0114, 2.072628
672.4935, 2.122589
672.9756, 2.150105
673.4577, 2.183552
673.9398, 2.205223
674.4219, 2.253864
674.9041, 2.401096
675.3862, 2.619251
675.8683, 2.793385
676.3504, 2.850166
676.8325, 2.833912
677.3146, 2.825569
677.7968, 2.797756
678.2789, 2.922569
678.7610, 3.347561
679.2431, 3.763439
679.7252, 3.987312
680.2073, 4.072544
680.6895, 4.125412
681.1716, 4.179962
681.6537, 4.180248
682.1358, 3.948086
682.6179, 3.693893
683.1000, 3.747242
683.5822, 4.109375
684.0643, 4.541878
684.5464, 4.873734
685.0285, 5.130199
685.5106, 5.402897
685.9927, 5.717049
686.4749, 5.974827
686.9570, 6.326897
687.4391, 6.469429
687.9212, 5.992607
688.4033, 5.273384
688.8854, 5.033131
689.3676, 5.565662
689.8497, 6.272461
690.3318, 6.689075
690.8139, 6.929859
691.2960, 7.253662
691.7781, 7.684769
692.2603, 8.026089
692.7424, 8.126606
693.2245, 8.093941
693.7066, 8.303848
694.1887, 9.036480
694.6708, 9.528770
695.1530, 9.584457
695.6351, 9.612278
696.1172, 9.798351
696.5993, 10.09413
697.0814, 10.40826
697.5635, 10.73421
698.0457, 11.01971
698.5278, 11.19741
699.0099, 11.29948
699.4920, 11.41958
699.9741, 11.56179
700.4562, 11.74303
700.9384, 12.03155
701.4205, 12.31417
701.9026, 12.29841
702.3847, 11.78992
702.8668, 11.52764
703.3489, 11.74201
703.8311, 11.95107
704.3132, 11.99481
704.7953, 11.86506
705.2774, 11.49029
705.7595, 10.87009
706.2416, 10.26291
706.7238, 10.06485
707.2059, 10.14220
707.6880, 9.864613
708.1701, 9.171406
708.6522, 8.477711
709.1343, 7.916058
709.6164, 7.492874
710.0985, 7.301247
710.5806, 7.417366
711.0627, 7.200565
711.5449, 6.277248
712.0270, 5.368542
712.5091, 4.782600
712.9912, 4.440067
713.4733, 4.266033
713.9554, 4.210667
714.4376, 4.137585
714.9197, 3.941643
715.4018, 3.647785
715.8839, 3.242504
716.3660, 2.693001
716.8481, 2.296799
717.3303, 2.187412
717.8124, 2.214714
718.2945, 2.223198
718.7766, 2.215698
719.2587, 2.238831
719.7408, 2.451630
720.2230, 2.512604
720.7051, 2.133644
721.1872, 1.618183
721.6693, 1.299992
722.1514, 1.231922
722.6335, 1.314186
723.1157, 1.508900
723.5978, 1.733757
724.0799, 1.733006
724.5620, 1.477928
725.0441, 1.290794
725.5262, 1.234959
726.0084, 1.258156
726.4905, 1.386497
726.9726, 1.566174
727.4547, 1.580612
727.9368, 1.295551
728.4189, 1.038036
728.9011, 0.8962630
729.3832, 0.8308030
729.8653, 0.8122250
730.3474, 0.8368870
730.8295, 0.9254880
731.3116, 1.096008
731.7938, 1.279903
732.2759, 1.371468
732.7580, 1.370361
733.2401, 1.248421
733.7222, 0.9488600
734.2043, 0.6657070
734.6865, 0.4554820
735.1686, 0.3639830
735.6507, 0.5125960
736.1328, 1.014420
736.6149, 1.360714
737.0970, 1.475376
737.5792, 1.377155
738.0613, 0.8394970
738.5434, 0.1567420
739.0255, 3.6757998E-02
739.5076, 0.4477960
739.9897, 1.022980
740.4719, 0.9131430
740.9540, 0.2403680
741.4361, 9.6667998E-02
741.9182, 3.7524998E-02
742.4003, 5.4892998E-02
742.8824, 3.9303001E-02
743.3646, 5.7529998E-03
743.8467, 9.1816001E-02
744.3288, 0.2988400
744.8109, 0.4600720
745.2930, 0.5913050
745.7751, 0.6404000
746.2573, 0.5263630
746.7394, 0.3525390
747.2215, 0.2319830
747.7036, 0.1844410
748.1857, 0.1748310
748.6678, 0.1849370
749.1500, 0.2041630
749.6321, 0.2163200
750.1142, 0.2214200
750.5963, 0.1752170
751.0784, 4.0886000E-02
751.5605, 6.2171999E-02
752.0427, 2.5356000E-02
752.5248, 0.1266630
753.0069, 0.2565990
753.4890, 0.4693790
753.9711, 0.5009270
754.4532, 8.7540001E-02
754.9354, 0.3148160
755.4175, 0.3383180
755.8996, 8.8123001E-02
756.3817, 0.1478690
756.8638, 0.2510490
757.3459, 0.2817040
757.8281, 0.3270680
758.3102, 0.3608250
758.7923, 0.2436030
759.2744, 4.2877000E-02
759.7565, 0.2797160
760.2386, 0.3758090
760.7208, 0.3347360
761.2029, 0.1338880
761.6850, 0.3102300
762.1671, 0.5707590
762.6492, 0.6154820
763.1313, 0.5299220
763.6135, 0.1903840
764.0956, 0.1753540
764.5777, 0.3166540
765.0598, 0.2081910
765.5419, 1.2924000E-02
766.0240, 0.1983220
766.5062, 0.4061010
766.9883, 0.6095850
767.4704, 0.7905430
767.9525, 0.8246310
768.4346, 0.6753310
768.9167, 0.5840450
769.3989, 0.7984310
769.8810, 1.240005
770.3631, 1.417831
770.8452, 1.220409
771.3273, 0.9573970
771.8094, 0.4357260
772.2916, 6.6109002E-02
772.7737, 0.1551020
773.2558, 0.5471610
773.7379, 0.9396250
774.2200, 1.285007
774.7021, 1.467976
775.1843, 1.260006
775.6664, 0.9322470
776.1485, 0.8701320
776.6306, 1.050056
777.1127, 1.257721
777.5948, 1.399624
778.0770, 1.493359
778.5591, 1.564236
779.0412, 1.612782
779.5233, 1.621838
780.0054, 1.543335
780.4875, 1.528732
780.9697, 1.705448
781.4518, 1.908066
781.9339, 1.948364
782.4160, 1.843395
782.8981, 1.797283
783.3802, 1.891167
783.8624, 2.021999
784.3445, 2.180504
784.8266, 2.322311
785.3087, 2.381001
785.7908, 2.359425
786.2729, 2.308159
786.7551, 2.253071
787.2372, 2.224529
787.7193, 2.279522
788.2014, 2.412418
788.6835, 2.583225
789.1656, 2.814056
789.6478, 2.977741
790.1299, 2.972160
790.6120, 2.856659
791.0941, 2.765274
791.5762, 2.685921
792.0583, 2.664272
792.5404, 2.838375
793.0225, 2.923988
793.5046, 2.667336
793.9868, 2.299751
794.4689, 2.134186
794.9510, 2.231426
795.4331, 2.424477
795.9152, 2.668999
796.3973, 2.875061
796.8795, 2.865551
797.3616, 2.682343
797.8437, 2.422550
798.3258, 2.105488
798.8079, 1.837490
799.2900, 1.691959
799.7722, 1.685047
800.2543, 1.857544
800.7364, 2.442631
801.2185, 2.711342
801.7006, 2.354038
802.1827, 1.927765
802.6649, 1.635101
803.1470, 1.469109
803.6291, 1.413593
804.1112, 1.478016
804.5933, 1.583416
805.0754, 1.705093
805.5576, 1.837677
806.0397, 2.030346
806.5218, 2.222389
807.0039, 2.250061
807.4860, 2.066334
807.9681, 1.825954
808.4503, 1.710194
808.9324, 1.681477
809.4145, 1.524624
809.8966, 1.214573
810.3787, 0.9822580
810.8608, 0.8576280
811.3430, 0.8600270
811.8251, 1.069817
812.3072, 1.442123
812.7893, 1.646542
813.2714, 1.646687
813.7535, 1.607597
814.2357, 1.466389
814.7178, 1.347652
815.1999, 1.374680
815.6820, 1.490730
816.1641, 1.574348
816.6462, 1.583485
817.1284, 1.544083
817.6105, 1.494995
818.0926, 1.412334
818.5747, 1.197338
819.0568, 0.8887250
819.5389, 0.6727140
820.0211, 0.6018100
820.5032, 0.6289250
820.9853, 0.7154540
821.4674, 0.8537220
821.9495, 0.9046860
822.4316, 0.8382230
822.9138, 0.7864490
823.3959, 0.7914580
823.8780, 0.7973520
824.3601, 0.7485430
824.8422, 0.6725500
825.3243, 0.6456490
825.8065, 0.6994550
826.2886, 0.7567060
826.7707, 0.7725260
827.2528, 0.7925570
827.7349, 0.9067920
828.2170, 1.049038
828.6992, 1.051525
829.1813, 0.8630490
829.6634, 0.6337890
830.1455, 0.5175060
830.6276, 0.4917560
831.1097, 0.4902730
831.5919, 0.5123830
832.0740, 0.5031320
832.5561, 0.4311560
833.0382, 0.3990210
833.5203, 0.5432170
834.0024, 0.8164370
834.4846, 0.8527720
834.9667, 0.4035840
835.4488, 0.1246910
835.9309, 0.1803930
836.4130, 0.2663230
836.8951, 0.1816180
837.3773, 3.1075001E-02
837.8594, 4.8831999E-02
838.3415, 0.3158530
838.8236, 0.4888570
839.3057, 0.2261540
839.7878, 7.2006002E-02
840.2700, 9.2743002E-02
840.7521, 0.5039940
841.2342, 0.6200450
841.7163, 0.3272400
842.1984, 7.0880000E-03
842.6805, 3.2504998E-02
843.1627, 0.2628860
843.6448, 0.2592010
844.1269, 1.4755000E-02
844.6090, 0.2254490
845.0911, 0.4514050
845.5732, 0.5481700
846.0554, 0.4081540
846.5375, 9.7545996E-02
847.0196, 0.2056160
847.5017, 0.5600660
847.9838, 0.7636070
848.4659, 0.7971120
848.9481, 0.7083660
849.4302, 0.3313060
849.9123, 5.2990001E-02
850.3944, 7.7983998E-02
850.8765, 0.2790220
851.3586, 0.6785580
851.8408, 1.092113
852.3229, 1.340683
852.8050, 1.145084
853.2871, 0.7341080
853.7692, 0.5088580
854.2513, 0.5036850
854.7335, 0.4929500
855.2156, 0.3286630
855.6977, 0.1322210
856.1798, 0.1788020
856.6619, 0.4558980
857.1440, 0.5203670
857.6262, 0.2887230
858.1083, 0.1964230
858.5904, 0.5169830
859.0725, 0.9312100
859.5546, 0.9760170
860.0367, 0.6127550
860.5189, 0.3327560
861.0010, 0.1094020
861.4831, 2.8500000E-03
861.9652, 6.2599999E-04
862.4473, 0.1357920
862.9294, 0.5681380
863.4116, 1.156815
863.8937, 1.535389
864.3758, 1.585861
864.8579, 1.442646
865.3400, 1.065819
865.8221, 0.6305620
866.3043, 0.2375300
866.7864, 2.9899999E-02
867.2685, 0.1044730
867.7506, 0.6906590
868.2327, 1.245476
868.7148, 1.223145
869.1970, 0.7989880
869.6791, 0.5207100
870.1612, 0.3891830
870.6433, 0.4458540
871.1254, 0.7400210
871.6075, 1.038589
872.0897, 1.173229
872.5718, 1.168633
873.0539, 1.090450
873.5360, 0.8370510
874.0181, 0.7438850
874.5002, 0.8990970
874.9823, 1.117390
875.4644, 1.444500
875.9465, 1.740967
876.4286, 1.831127
876.9108, 1.709003
877.3929, 1.563568
877.8750, 1.408194
878.3571, 1.304993
878.8392, 1.305132
879.3214, 1.366472
879.8035, 1.478626
880.2856, 1.604092
880.7677, 1.622824
881.2498, 1.461494
881.7319, 1.326973
882.2141, 1.602957
882.6962, 2.093973
883.1783, 2.123344
883.6604, 1.716738
884.1425, 1.441797
884.6246, 1.505314
885.1068, 1.717995
885.5889, 1.892679
886.0710, 2.022463
886.5531, 2.033501
887.0352, 1.861732
887.5173, 1.768774
887.9995, 1.902540
888.4816, 1.956970
888.9637, 1.626469
889.4458, 1.119989
889.9279, 0.8522110
890.4100, 0.8596800
890.8922, 0.9885790
891.3743, 1.363749
891.8564, 1.685877
892.3385, 1.844952
892.8206, 1.861015
893.3027, 1.691753
893.7849, 1.392960
894.2670, 1.186857
894.7491, 1.203434
895.2312, 1.308891
895.7133, 1.424994
896.1954, 1.526121
896.6776, 1.556213
897.1597, 1.526596
897.6418, 1.517279
898.1239, 1.563904
898.6060, 1.555521
899.0881, 1.287790
899.5703, 0.8535000
900.0524, 0.8041460
900.5345, 1.166504
901.0166, 1.379419
901.4987, 1.286469
901.9808, 1.117176
902.4630, 1.035284
902.9451, 1.020809
903.4272, 1.026762
903.9093, 1.108698
904.3914, 1.123072
904.8735, 0.9380740
905.3557, 0.8274770
905.8378, 1.021139
906.3199, 1.246151
906.8020, 1.129284
907.2841, 0.6883340
907.7662, 0.4735640
908.2484, 0.8377900
908.7305, 1.171793
909.2126, 1.188986
909.6947, 1.097513
910.1768, 1.068520
910.6589, 1.111517
911.1411, 1.206232
911.6232, 1.347343
912.1053, 1.450712
912.5874, 1.441418
913.0695, 1.350950
913.5516, 1.171181
914.0338, 0.9592820
914.5159, 0.8731580
914.9980, 0.9500730
915.4801, 1.102890
915.9622, 1.281715
916.4443, 1.431509
916.9265, 1.395863
917.4086, 1.175282
917.8907, 0.9754490
918.3728, 0.7894950
918.8549, 0.7692450
919.3370, 1.051443
919.8192, 1.380112
920.3013, 1.369009
920.7834, 1.004263
921.2655, 0.8707290
921.7476, 1.122313
922.2297, 1.381035
922.7119, 1.583546
923.1940, 1.699028
923.6761, 1.732306
924.1582, 1.695030
924.6403, 1.546888
925.1224, 1.244293
925.6046, 1.016245
926.0867, 0.9325200
926.5688, 0.9257850
927.0509, 1.038960
927.5330, 1.168285
928.0151, 1.195843
928.4973, 1.122074
928.9794, 1.027773
929.4615, 0.9485570
929.9436, 0.9068090
930.4257, 0.8946480
930.9078, 0.9610670
931.3900, 1.269981
931.8721, 1.679173
932.3542, 1.732038
932.8363, 1.323780
933.3184, 0.9209860
933.8005, 1.020201
934.2827, 1.417362
934.7648, 1.596033
935.2469, 1.568861
935.7290, 1.409609
936.2111, 1.121613
936.6932, 0.9270040
937.1754, 0.9375780
937.6575, 1.052151
938.1396, 1.126308
938.6217, 1.159784
939.1038, 1.124596
939.5859, 0.9646740
940.0681, 0.8915480
940.5502, 0.9801010
941.0323, 1.130350
941.5144, 1.308533
941.9965, 1.478886
942.4786, 1.475502
942.9608, 1.163853
943.4429, 0.9877930
943.9250, 1.111259
944.4071, 1.175980
944.8892, 0.9162370
945.3713, 0.5941980
945.8535, 0.5222870
946.3356, 0.7040600
946.8177, 0.9225690
947.2998, 1.235218
947.7819, 1.377096
948.2640, 1.032660
948.7462, 0.6167410
949.2283, 0.4989110
949.7104, 0.6287480
950.1925, 0.9019620
950.6746, 1.260004
951.1567, 1.431841
951.6389, 1.005501
952.1210, 0.4578900
952.6031, 0.4241810
953.0852, 0.7340490
953.5673, 1.088539
954.0494, 1.403475
954.5316, 1.570236
955.0137, 1.528717
955.4958, 1.360933
955.9779, 1.160379
956.4600, 0.9347710
956.9421, 0.7112690
957.4242, 0.4905410
957.9063, 0.3211750
958.3884, 0.2151030
958.8705, 0.1573700
959.3527, 0.1332490
959.8348, 0.1544080
960.3169, 0.2893070
960.7990, 0.5973220
961.2811, 0.6791610
961.7632, 0.4446160
962.2454, 0.2099150
962.7275, 4.8921999E-02
963.2096, 1.0470001E-03
963.6917, 0.1540600
964.1738, 0.4813960
964.6559, 0.6881580
965.1381, 0.7878090
965.6202, 0.7417450
966.1023, 0.3322930
966.5844, 2.8664000E-02
967.0665, 0.1465630
967.5486, 0.4260480
968.0308, 0.4913310
968.5129, 0.3213630
968.9950, 0.2546690
969.4771, 0.5445230
969.9592, 0.7047270
970.4413, 0.4174940
970.9235, 7.4960999E-02
971.4056, 5.3199998E-04
971.8877, 0.1177330
972.3698, 0.2358570
972.8519, 0.3043380
973.3340, 0.3341870
973.8162, 0.3087620
974.2983, 0.2704940
974.7804, 0.2496340
975.2625, 0.2404380
975.7446, 0.2317010
976.2267, 0.2253680
976.7089, 0.2360000
977.1910, 0.2715020
977.6731, 0.3080580
978.1552, 0.3971270
978.6373, 0.4269430
979.1194, 4.9566001E-02
979.6016, 0.5487820
980.0837, 0.7179110
980.5658, 0.3665830
981.0479, 3.0931000E-02
981.5300, 0.1529880
982.0121, 0.1402210
982.4943, 0.2861390
982.9764, 0.5281310
983.4585, 0.4461480
983.9406, 4.1813001E-02
984.4227, 0.2579310
984.9048, 0.3177800
985.3870, 0.2451950
985.8691, 0.1174770
986.3512, 2.8793000E-02
986.8333, 7.2979003E-02
987.3154, 7.9589998E-03
987.7975, 0.1356950
988.2797, 0.4138870
988.7618, 0.5266020
989.2439, 0.2956640
989.7260, 2.5415000E-02
990.2081, 0.1391720
990.6902, 7.0657998E-02
991.1724, 6.0472000E-02
991.6545, 0.1273820
992.1366, 0.2187610
992.6187, 0.4437180
993.1008, 0.5186420
993.5829, 0.1676350
994.0651, 0.3042850
994.5472, 0.4764980
995.0293, 0.3452400
995.5114, 0.1560900
995.9935, 0.2631170
996.4756, 0.4844860
996.9578, 0.2455650
997.4399, 1.3004000E-02
997.9220, 0.1218590
998.4041, 0.3730580
998.8862, 0.4339290
999.3683, 0.2642860
999.8505, 9.7070999E-02
1000.333, 0.1113070
1000.815, 0.1746600
1001.297, 9.1790996E-02
1001.779, 0.4287260
1002.261, 0.6253280
1002.743, 0.7228010
1003.225, 0.8728810
1003.707, 1.114454
1004.190, 1.212673
1004.672, 0.9268860
1005.154, 0.5997640
1005.636, 0.3807810
1006.118, 0.3024600
1006.600, 0.5123270
1007.082, 0.8769040
1007.564, 1.020494
1008.046, 0.8037050
1008.529, 0.5425530
1009.011, 0.4709970
1009.493, 0.4940200
1009.975, 0.5332530
1010.457, 0.5794350
1010.939, 0.6177960
1011.421, 0.6496490
1011.903, 0.6946330
1012.385, 0.7630350
1012.868, 0.8208390
1013.350, 0.8639350
1013.832, 0.8522510
1014.314, 0.5885930
1014.796, 0.2199060
1015.278, 0.2767790
1015.760, 0.7752380
1016.242, 1.134323
1016.725, 1.002008
1017.207, 0.7020110
1017.689, 0.7174680
1018.171, 0.9536400
1018.653, 1.079395
1019.135, 1.102537
1019.617, 1.103260
1020.099, 1.099836
1020.581, 1.068705
1021.064, 0.9839550
1021.546, 0.9150540
1022.028, 1.019230
1022.510, 1.270687
1022.992, 1.345711
1023.474, 1.239540
1023.956, 1.140850
1024.438, 1.096418
1024.921, 1.055458
1025.403, 0.9734400
1025.885, 0.8658050
1026.367, 0.7453560
1026.849, 0.6018140
1027.331, 0.6410620
1027.813, 0.8976500
1028.295, 1.150293
1028.777, 1.352741
1029.260, 1.485865
1029.742, 1.545536
1030.224, 1.525980
1030.706, 1.385170
1031.188, 1.043339
1031.670, 1.056475
1032.152, 1.621803
1032.634, 1.940002
1033.116, 1.648989
1033.599, 1.317732
1034.081, 1.457901
1034.563, 1.899158
1035.045, 2.097961
1035.527, 1.958515
1036.009, 1.913828
1036.491, 2.028297
1036.973, 2.104918
1037.456, 1.966951
1037.938, 1.880861
1038.420, 2.154135
1038.902, 2.660990
1039.384, 2.942524
1039.866, 2.923210
1040.348, 2.871298
1040.830, 2.727470
1041.313, 2.635729
1041.795, 2.623089
1042.277, 2.664061
1042.759, 2.771725
1043.241, 2.948799
1043.723, 3.191990
1044.205, 3.556387
1044.687, 3.829935
1045.169, 3.987843
1045.651, 4.058050
1046.134, 4.037624
1046.616, 3.937033
1047.098, 3.703186
1047.580, 3.422459
1048.062, 3.312857
1048.544, 3.432974
1049.026, 3.232069
1049.508, 3.794561
1049.991, 4.141472
1050.473, 4.283739
1050.955, 3.608770
1051.437, 3.989027
1051.919, 3.922752
1052.401, 3.828444
1052.883, 4.331255
1053.365, 3.761106
1053.848, 4.281052
1054.330, 4.371565
1054.812, 4.658707
1055.294, 4.517107
1055.776, 4.509943
1056.258, 4.928766
1056.740, 5.111906
1057.222, 4.924700
1057.704, 5.224056
1058.187, 4.863482
1058.669, 4.951912
1059.151, 5.076229
1059.633, 5.131821
1060.115, 4.961243
1060.597, 4.677320
1061.079, 4.529119
1061.561, 4.570557
1062.043, 4.697523
1062.526, 4.953243
1063.008, 5.186493
1063.490, 5.330967
1063.972, 5.424028
1064.454, 5.503387
1064.936, 5.557009
1065.418, 5.556658
1065.900, 5.496674
1066.383, 5.380404
1066.865, 5.037891
1067.347, 4.860397
1067.829, 5.156673
1068.311, 5.580173
1068.793, 5.918602
1069.275, 6.121359
1069.757, 6.092512
1070.240, 5.831230
1070.722, 5.684818
1071.204, 5.891674
1071.686, 6.121208
1072.168, 6.167704
1072.650, 6.222097
1073.132, 6.463341
1073.614, 6.819595
1074.096, 7.129711
1074.578, 7.389811
1075.061, 7.758068
1075.543, 8.461082
1076.025, 9.097012
1076.507, 9.363770
1076.989, 9.597645
1077.471, 10.00263
1077.953, 10.58239
1078.435, 11.34694
1078.918, 12.26235
1079.400, 13.17084
1079.882, 13.94173
1080.364, 14.87705
1080.846, 16.28979
1081.328, 17.74907
1081.810, 18.86078
1082.292, 19.87902
1082.774, 21.20342
1083.257, 22.81519
1083.739, 24.36865
1084.221, 25.66296
1084.703, 27.09991
1085.185, 28.94894
1085.667, 30.92276
1086.149, 32.80807
1086.631, 34.72219
1087.114, 36.73927
1087.596, 38.92325
1088.078, 41.42430
1088.560, 44.29356
1089.042, 47.46825
1089.524, 50.96909
1090.006, 54.75589
1090.488, 58.82662
1090.970, 63.14458
1091.453, 67.97051
1091.935, 72.95287
1092.417, 77.24251
1092.899, 80.68646
1093.381, 83.18952
1093.863, 85.02961
1094.345, 85.52277
1094.827, 84.41015
1095.309, 81.74132
1095.792, 77.12583
1096.274, 71.16496
1096.756, 64.62354
1097.238, 57.66409
1097.720, 51.30294
1098.202, 45.98309
1098.684, 41.09399
1099.166, 36.36410
1099.649, 32.02199
1100.131, 28.28090
1100.613, 24.99319
1101.095, 21.86384
1101.577, 18.89002
1102.059, 16.40075
1102.541, 14.69767
1103.023, 13.13352
1103.505, 11.46358
1103.988, 9.992657
1104.470, 9.016148
1104.952, 8.240875
1105.434, 7.266785
1105.916, 6.155354
1106.398, 5.357788
1106.880, 5.078962
1107.362, 4.790981
1107.844, 4.390308
1108.327, 3.996199
1108.809, 3.628326
1109.291, 3.296318
1109.773, 2.521439
1110.255, 2.853920
1110.737, 2.979240
1111.219, 2.907297
1111.701, 2.018129
1112.184, 2.180052
1112.666, 1.911633
1113.148, 1.621582
1113.630, 1.919600
1114.112, 1.132765
1114.594, 1.421762
1115.076, 1.281393
1115.558, 1.337595
1116.041, 0.9679240
1116.523, 1.043833
1117.005, 1.038717
1117.487, 0.5982170
1117.969, 0.2260950
1118.451, 0.1495020
1118.933, 0.2841700
1119.415, 0.5998080
1119.897, 1.056480
1120.380, 1.228613
1120.862, 0.9886860
1121.344, 0.7724900
1121.826, 0.5833190
1122.308, 0.4425050
1122.790, 0.3610290
1123.272, 0.3252030
1123.754, 0.3332770
1124.236, 0.3696880
1124.719, 0.3852810
1125.201, 0.3853870
1125.683, 0.3181440
1126.165, 0.1366670
1126.647, 8.9988999E-02
1127.129, 0.2873780
1127.611, 0.4519580
1128.093, 0.3678230
1128.576, 0.1890010
1129.058, 0.2211340
1129.540, 0.4498500
1130.022, 0.5794390
1130.504, 0.6152040
1130.986, 0.4015180
1131.468, 0.1349450
1131.950, 0.3509560
1132.432, 0.1145340
1132.915, 0.6810280
1133.397, 0.6163770
1133.879, 0.1201420
1134.361, 8.9754000E-02
1134.843, 4.0670000E-02
1135.325, 5.7342999E-02
1135.807, 0.1547780
1136.289, 0.1194730
1136.771, 0.1137520
1137.254, 0.3221550
1137.736, 0.3227840
1138.218, 0.2062400
1138.700, 0.1093440
1139.182, 3.8105000E-02
1139.664, 5.2570000E-02
1140.146, 0.1142580
1140.628, 6.3930000E-03
1141.111, 0.2678050
1141.593, 0.3967440
1142.075, 0.2174660
1142.557, 2.6644001E-02
1143.039, 6.0602002E-02
1143.521, 2.4134001E-02
1144.003, 0.1191690
1144.485, 0.1966820
1144.968, 0.1874010
1145.450, 0.1064070
1145.932, 2.4914000E-02
1146.414, 3.6781002E-02
1146.896, 0.1298790
1147.378, 0.3460290
1147.860, 0.4922850
1148.342, 0.2836950
1148.824, 1.4767000E-02
1149.307, 0.1243420
1149.789, 7.3863998E-02
1150.271, 0.1052930
1150.753, 0.3581540
1151.235, 0.5126610
1151.717, 0.4977740
1152.199, 0.4208390
1152.681, 0.2839050
1153.163, 0.1755810
1153.646, 0.2208750
1154.128, 0.2677750
1154.610, 8.2748003E-02
1155.092, 0.2118950
1155.574, 0.3024330
1156.056, 0.1254480
1156.538, 7.7278003E-02
1157.020, 0.3012580
1157.503, 0.4478660
1157.985, 0.4808650
1158.467, 0.4374870
1158.949, 0.2386280
1159.431, 4.2038001E-02
1159.913, 9.8807998E-02
1160.395, 0.3746050
1160.877, 0.5122800
1161.359, 0.3849260
1161.842, 0.3347840
1162.324, 0.4099120
1162.806, 0.4975830
1163.288, 0.6248590
1163.770, 0.6776450
1164.252, 0.5331040
1164.734, 0.2811760
1165.216, 0.1108060
1165.698, 2.0625999E-02
1166.181, 8.2813002E-02
1166.663, 0.3934610
1167.145, 0.4768850
1167.627, 0.2028330
1168.109, 6.9697998E-02
1168.591, 0.1821960
1169.073, 0.1815970
1169.555, 0.1174470
1170.037, 7.4419999E-03
1170.520, 0.2129780
1171.002, 0.4959980
1171.484, 0.6534860
1171.966, 0.6654280
1172.448, 0.7484510
1172.930, 0.9879530
1173.412, 1.150175
1173.894, 1.066847
1174.377, 0.8985860
1174.859, 0.9402100
1175.341, 1.063852
1175.823, 0.8326420
1176.305, 0.4019300
1176.787, 0.2240520
1177.269, 0.2980380
1177.751, 0.4025860
1178.234, 0.4625380
1178.716, 0.5316600
1179.198, 0.6682010
1179.680, 0.7936340
1180.162, 0.7515110
1180.644, 0.7057910
1181.126, 0.9750440
1181.608, 1.342274
1182.090, 1.350843
1182.573, 1.034397
1183.055, 0.8278500
1183.537, 0.9162220
1184.019, 0.9525470
1184.501, 0.6276720
1184.983, 0.3595940
1185.465, 0.4230460
1185.947, 0.6059250
1186.429, 0.8109040
1186.912, 0.9579260
1187.394, 0.8636970
1187.876, 0.5331780
1188.358, 0.4277860
1188.840, 0.9156890
1189.322, 1.156479
1189.804, 0.8185010
1190.286, 0.5554450
1190.769, 0.5334660
1191.251, 0.6930390
1191.733, 1.123581
1192.215, 1.624681
1192.697, 1.640146
1193.179, 1.080429
1193.661, 0.7854100
1194.143, 0.8196300
1194.625, 0.9262980
1195.108, 1.082172
1195.590, 1.224678
1196.072, 1.328276
1196.554, 1.394833
1197.036, 1.446335
1197.518, 1.426170
1198.000, 1.026152
1198.482, 0.3359780
1198.964, 0.2294960
1199.447, 0.6632670
1199.929, 0.9222580
1200.411, 0.8515680
1200.893, 0.7275640
1201.375, 0.6941780
1201.857, 0.7189160
1202.339, 0.7693750
1202.821, 0.8679410
1203.304, 1.161865
1203.786, 1.462669
1204.268, 1.337337
1204.750, 0.9364700
1205.232, 0.7318500
1205.714, 0.8107830
1206.196, 0.9020820
1206.678, 0.8916720
1207.161, 0.7775500
1207.643, 0.3564260
1208.125, 9.1735996E-02
1208.607, 0.5440240
1209.089, 1.109203
1209.571, 1.057329
1210.053, 0.6128140
1210.535, 0.3984280
1211.017, 0.5075660
1211.500, 0.7515530
1211.982, 1.406712
1212.464, 1.722488
1212.946, 1.307610
1213.428, 0.8954850
1213.910, 0.7598550
1214.392, 0.7701640
1214.874, 0.8418880
1215.356, 0.9261380
1215.839, 0.8588010
1216.321, 0.6113530
1216.803, 0.4959890
1217.285, 0.5324900
1217.767, 0.5607700
1218.249, 0.5501170
1218.731, 0.5864720
1219.213, 0.7185460
1219.696, 0.8426230
1220.178, 0.8468860
1220.660, 0.7568780
1221.142, 0.5660550
1221.624, 0.3445890
1222.106, 0.3867050
1222.588, 0.6125530
1223.070, 0.6932700
1223.552, 0.6063350
1224.035, 0.5027180
1224.517, 0.4795040
1224.999, 0.4965400
1225.481, 0.5279010
1225.963, 0.5668010
1226.445, 0.6702230
1226.927, 0.7406290
1227.409, 0.6740460
1227.891, 0.4951460
1228.374, 0.1451420
1228.856, 0.2950420
1229.338, 0.4129520
1229.820, 1.5059000E-02
1230.302, 0.3350750
1230.784, 0.3008800
1231.266, 0.2718370
1231.748, 0.4480800
1232.231, 0.5598600
1232.713, 0.3802190
1233.195, 8.6553998E-02
1233.677, 9.8931998E-02
1234.159, 0.1688350
1234.641, 3.0447001E-02
1235.123, 0.3882220
1235.605, 0.6786840
1236.088, 0.8186050
1236.570, 0.8630410
1237.052, 0.8117750
1237.534, 0.7887520
1238.016, 0.8835410
1238.498, 0.9927440
1238.980, 0.9570310
1239.462, 0.8419190
1239.944, 0.8595390
1240.427, 0.9351430
1240.909, 0.7646220
1241.391, 0.4488720
1241.873, 0.4375270
1242.355, 0.7723370
1242.837, 1.017954
1243.319, 0.9515610
1243.801, 0.8058430
1244.283, 0.6744380
1244.766, 0.6350040
1245.248, 0.8376030
1245.730, 1.078230
1246.212, 1.157721
1246.694, 1.125250
1247.176, 1.082924
1247.658, 1.038731
1248.140, 0.9760740
1248.622, 0.8282390
1249.105, 0.7736630
1249.587, 0.9405650
1250.069, 0.9964500
1250.551, 0.7574010
1251.033, 0.5887170
1251.515, 0.7620330
1251.997, 1.054085
1252.479, 1.125990
1252.962, 1.024157
1253.444, 1.031084
1253.926, 1.142479
1254.408, 1.136871
1254.890, 1.012634
1255.372, 0.7740710
1255.854, 0.4533310
1256.336, 0.4057310
1256.818, 0.8462680
1257.301, 1.225161
1257.783, 0.6948780
1258.265, 4.4381998E-02
1258.747, 7.1501002E-02
1259.229, 0.5371420
1259.711, 0.8762510
1260.193, 0.9978140
1260.675, 0.8495430
1261.157, 0.5826380
1261.640, 0.4588660
1262.122, 0.6159060
1262.604, 0.7001420
1263.086, 0.5131030
1263.568, 0.3596690
1264.050, 0.2565960
1264.532, 0.3109280
1265.014, 0.7676930
1265.497, 1.237316
1265.979, 1.226160
1266.461, 0.8607900
1266.943, 0.6180500
1267.425, 0.4500540
1267.907, 1.011326
1268.389, 1.356129
1268.871, 1.495535
1269.354, 0.8178860
1269.836, 1.194979
1270.318, 1.148657
1270.800, 1.084583
1271.282, 1.605719
1271.764, 1.040310
1272.246, 1.554581
1272.728, 1.336973
1273.210, 1.151724
1273.693, 0.7214570
1274.175, 0.4502410
1274.657, 0.3903060
1275.139, 0.5077400
1275.621, 0.7774470
1276.103, 0.9926850
1276.585, 1.047316
1277.067, 1.033075
##END=



