##NAMES=Augelite
##RRUFFID=R050100
##IDEAL CHEMISTRY=Al_2_PO_4_(OH)_3_
##LOCALITY=Rapid Creek, Yukon Territory, Canada
##OWNER=RRUFF
##SOURCE=Rock Currier
##DESCRIPTION=Pale green thick tabular crystals
##STATUS=The identification of this mineral has been confirmed by X-ray diffraction and chemical analysis
##URL=rruff.info/R050100
##MEASURED CHEMISTRY=Al_2.00_(P_1.00_O_4_)(OH_0.98_F_0.02_)_3_
138.7542, 0.0000000E+00
139.2363, 0.2111820
139.7184, 1.523071
140.2005, 2.998901
140.6826, 9.060547
141.1647, 16.45447
141.6469, 27.15112
142.1290, 42.98682
142.6111, 58.74097
143.0932, 73.71606
143.5753, 87.87927
144.0574, 101.2749
144.5396, 113.9045
145.0217, 125.6638
145.5038, 136.8186
145.9859, 145.6438
146.4680, 155.7418
146.9502, 168.7010
147.4323, 184.2583
147.9144, 201.0383
148.3965, 217.4871
148.8786, 234.1395
149.3607, 254.7483
149.8429, 277.8199
150.3250, 305.8425
150.8071, 345.0024
151.2892, 397.9390
151.7713, 449.3539
152.2534, 477.4192
152.7356, 489.2719
153.2177, 510.0000
153.6998, 553.8103
154.1819, 611.7993
154.6640, 663.4771
155.1461, 703.2277
155.6283, 740.2034
156.1104, 778.4314
156.5925, 818.7073
157.0746, 866.7931
157.5567, 936.1792
158.0388, 1025.759
158.5210, 1093.454
159.0031, 1112.846
159.4852, 1122.211
159.9673, 1146.075
160.4494, 1186.761
160.9315, 1226.753
161.4137, 1247.453
161.8958, 1245.254
162.3779, 1237.253
162.8600, 1225.228
163.3421, 1208.152
163.8242, 1186.520
164.3064, 1159.844
164.7885, 1130.084
165.2706, 1095.824
165.7527, 1054.449
166.2348, 1009.312
166.7169, 955.5179
167.1991, 899.6573
167.6812, 851.3367
168.1633, 821.9110
168.6454, 801.0385
169.1275, 764.1398
169.6096, 698.0057
170.0918, 637.6464
170.5739, 580.5128
171.0560, 529.8752
171.5381, 489.0868
172.0202, 459.0668
172.5023, 439.0221
172.9845, 412.6949
173.4666, 372.4391
173.9487, 335.3275
174.4308, 308.0844
174.9129, 289.3505
175.3951, 273.8119
175.8772, 257.6863
176.3593, 240.8359
176.8414, 222.6097
177.3235, 200.7910
177.8056, 179.1602
178.2878, 160.7548
178.7699, 145.7667
179.2520, 131.1532
179.7341, 113.4927
180.2162, 92.81848
180.6983, 74.30200
181.1805, 54.34253
181.6626, 38.55994
182.1447, 36.72241
182.6268, 52.86401
183.1089, 71.60559
183.5910, 75.60156
184.0732, 67.42419
184.5553, 56.77112
185.0374, 43.71887
185.5195, 30.62146
186.0016, 24.18921
186.4837, 29.22046
186.9659, 35.26770
187.4480, 31.74792
187.9301, 19.54224
188.4122, 6.840820
188.8943, 1.290161
189.3764, 5.329102
189.8586, 9.665710
190.3407, 16.92706
190.8228, 22.60162
191.3049, 22.43671
191.7870, 16.38153
192.2691, 9.862671
192.7513, 7.993835
193.2334, 11.20422
193.7155, 14.89514
194.1976, 20.90051
194.6797, 25.41803
195.1618, 24.83917
195.6440, 18.66516
196.1261, 11.72284
196.6082, 10.48712
197.0903, 19.57153
197.5724, 23.79883
198.0546, 16.75500
198.5367, 7.090942
199.0188, 0.4539790
199.5009, 1.384399
199.9830, 0.1192020
200.4651, 1.849609
200.9473, 7.873108
201.4294, 7.833008
201.9115, 4.931580
202.3936, 20.49622
202.8757, 29.26868
203.3578, 27.18060
203.8400, 18.61169
204.3221, 15.17145
204.8042, 20.66632
205.2863, 27.02325
205.7684, 32.74164
206.2505, 39.01508
206.7327, 48.33319
207.2148, 62.19165
207.6969, 78.35718
208.1790, 87.45929
208.6611, 79.03021
209.1432, 74.38519
209.6254, 77.70630
210.1075, 86.40515
210.5896, 96.59705
211.0717, 106.1166
211.5538, 115.0704
212.0359, 124.6865
212.5181, 134.8531
213.0002, 145.8319
213.4823, 157.0051
213.9644, 169.0761
214.4465, 183.3198
214.9286, 200.7117
215.4108, 220.9816
215.8929, 242.3573
216.3750, 265.1351
216.8571, 288.5150
217.3392, 310.2952
217.8214, 331.9360
218.3035, 358.2205
218.7856, 393.3116
219.2677, 436.8315
219.7498, 479.4634
220.2319, 521.0018
220.7141, 561.8723
221.1962, 598.8275
221.6783, 633.5422
222.1604, 676.5316
222.6425, 739.4905
223.1246, 819.8836
223.6068, 883.3546
224.0889, 930.9692
224.5710, 961.5506
225.0531, 972.6218
225.5352, 964.4973
226.0173, 941.8555
226.4995, 906.2957
226.9816, 857.2753
227.4637, 801.0168
227.9458, 728.4343
228.4279, 654.3181
228.9100, 592.5835
229.3922, 544.1363
229.8743, 501.1662
230.3564, 456.9871
230.8385, 412.9296
231.3206, 375.2792
231.8027, 344.5729
232.2849, 321.0120
232.7670, 307.1848
233.2491, 304.8033
233.7312, 302.4836
234.2133, 290.1088
234.6954, 271.0292
235.1776, 252.8671
235.6597, 236.3782
236.1418, 222.3249
236.6239, 211.8430
237.1060, 204.9355
237.5881, 201.5967
238.0703, 204.2632
238.5524, 210.5191
239.0345, 215.7599
239.5166, 216.7157
239.9987, 216.1658
240.4808, 220.0880
240.9630, 230.5317
241.4451, 240.1549
241.9272, 243.0712
242.4093, 241.8021
242.8914, 240.9700
243.3735, 242.7349
243.8557, 246.1415
244.3378, 248.8082
244.8199, 249.9525
245.3020, 252.1309
245.7841, 253.3958
246.2662, 256.3312
246.7484, 266.9707
247.2305, 292.5172
247.7126, 327.5557
248.1947, 356.9977
248.6768, 379.2323
249.1589, 398.9666
249.6411, 419.4246
250.1232, 439.6033
250.6053, 457.5388
251.0874, 472.5634
251.5695, 484.2396
252.0517, 491.4426
252.5338, 495.9254
253.0159, 492.5679
253.4980, 482.7299
253.9801, 464.9534
254.4622, 434.8400
254.9444, 383.8236
255.4265, 319.5826
255.9086, 268.8871
256.3907, 237.6791
256.8728, 212.0193
257.3549, 184.9611
257.8370, 158.0339
258.3192, 133.8878
258.8013, 113.4987
259.2834, 97.21991
259.7655, 86.01392
260.2476, 82.68372
260.7297, 78.81714
261.2119, 70.47333
261.6940, 59.58417
262.1761, 49.15375
262.6582, 40.67200
263.1403, 34.13153
263.6224, 30.44952
264.1046, 33.21887
264.5867, 32.94861
265.0688, 21.19592
265.5509, 5.888672
266.0330, 0.4674070
266.5151, 11.45044
266.9973, 34.69440
267.4794, 43.88293
267.9615, 27.94177
268.4436, 15.61957
268.9258, 20.09399
269.4079, 31.73163
269.8900, 37.26276
270.3721, 28.80988
270.8542, 11.55109
271.3363, 1.468445
271.8185, 0.6602170
272.3006, 4.357727
272.7827, 16.29840
273.2648, 29.58820
273.7469, 34.45935
274.2290, 24.62006
274.7112, 7.489502
275.1933, 4.517761
275.6754, 26.99023
276.1575, 43.37762
276.6396, 43.72156
277.1217, 36.07745
277.6039, 28.20508
278.0860, 23.16919
278.5681, 20.83154
279.0502, 21.92706
279.5323, 31.06909
280.0144, 34.23450
280.4966, 23.90070
280.9787, 9.408264
281.4608, 0.5870970
281.9429, 2.645264
282.4250, 0.2824100
282.9071, 2.973450
283.3893, 6.240295
283.8714, 7.286011
284.3535, 4.132935
284.8356, 0.2996830
285.3177, 3.456238
285.7998, 4.498169
286.2820, 4.864502
286.7641, 7.607178
287.2462, 15.06104
287.7283, 18.60529
288.2104, 16.79749
288.6925, 11.16541
289.1747, 0.7984620
289.6568, 14.21875
290.1389, 29.14490
290.6210, 36.94006
291.1031, 35.45776
291.5852, 33.77826
292.0674, 31.42535
292.5495, 30.30487
293.0316, 31.20721
293.5137, 34.42267
293.9958, 40.53595
294.4779, 52.63611
294.9601, 73.67566
295.4422, 86.19244
295.9243, 82.25372
296.4064, 73.83307
296.8885, 65.74622
297.3706, 58.77667
297.8528, 51.87012
298.3349, 43.73065
298.8170, 34.19257
299.2991, 25.21594
299.7812, 14.44891
300.2633, 6.657776
300.7455, 5.814941
301.2276, 10.71332
301.7097, 15.96228
302.1918, 16.69897
302.6739, 12.85065
303.1560, 9.641357
303.6382, 5.335632
304.1203, 3.813477
304.6024, 9.065552
305.0845, 18.74384
305.5666, 26.41943
306.0487, 26.05029
306.5309, 19.05127
307.0130, 16.86774
307.4951, 23.26508
307.9772, 29.51172
308.4593, 30.75439
308.9414, 29.23950
309.4236, 29.40729
309.9057, 34.47675
310.3878, 42.87000
310.8699, 49.65692
311.3520, 55.46399
311.8341, 58.14514
312.3163, 53.51306
312.7984, 46.36243
313.2805, 43.64343
313.7626, 49.12451
314.2447, 59.71295
314.7268, 70.04852
315.2090, 80.96210
315.6911, 89.20734
316.1732, 90.21216
316.6553, 89.24420
317.1374, 92.08313
317.6195, 101.1937
318.1017, 112.9337
318.5838, 121.5767
319.0659, 126.1044
319.5480, 133.7827
320.0301, 154.4171
320.5122, 175.4305
320.9944, 183.6293
321.4765, 174.6529
321.9586, 163.0530
322.4407, 163.8597
322.9228, 177.0046
323.4049, 189.8283
323.8871, 201.2182
324.3692, 208.7604
324.8513, 209.1545
325.3334, 201.9307
325.8155, 194.3517
326.2976, 191.5281
326.7798, 192.8730
327.2619, 195.0753
327.7440, 197.8846
328.2261, 200.9708
328.7082, 205.0006
329.1903, 209.8645
329.6725, 212.4561
330.1546, 209.6242
330.6367, 203.4054
331.1188, 198.4958
331.6009, 195.2485
332.0830, 193.4294
332.5652, 195.7397
333.0473, 200.3909
333.5294, 199.2008
334.0115, 184.8900
334.4936, 165.7133
334.9757, 152.3250
335.4579, 145.7446
335.9400, 142.1742
336.4221, 139.1658
336.9042, 137.0815
337.3863, 137.2403
337.8684, 145.0501
338.3506, 151.2493
338.8327, 144.8946
339.3148, 127.2231
339.7969, 112.9684
340.2791, 112.9807
340.7612, 122.5678
341.2433, 123.7485
341.7254, 106.5717
342.2075, 92.47760
342.6896, 96.80743
343.1718, 113.3192
343.6539, 123.5862
344.1360, 118.4171
344.6181, 103.7263
345.1002, 94.89270
345.5823, 92.23444
346.0645, 93.62360
346.5466, 103.7887
347.0287, 116.7037
347.5108, 121.3193
347.9929, 113.8593
348.4750, 101.4509
348.9572, 95.38965
349.4393, 97.57605
349.9214, 101.9983
350.4035, 114.6440
350.8856, 125.7213
351.3677, 121.7533
351.8499, 102.3809
352.3320, 84.77582
352.8141, 89.27441
353.2962, 123.0981
353.7783, 145.6719
354.2604, 153.8079
354.7426, 155.1411
355.2247, 149.9777
355.7068, 140.8926
356.1889, 133.4635
356.6710, 131.5907
357.1531, 135.2875
357.6353, 146.8735
358.1174, 177.1852
358.5995, 203.3427
359.0816, 216.4734
359.5637, 221.6952
360.0458, 226.8838
360.5280, 236.1363
361.0101, 249.7473
361.4922, 269.1163
361.9743, 296.6398
362.4564, 327.1821
362.9385, 359.8359
363.4207, 395.3474
363.9028, 437.3512
364.3849, 486.5629
364.8670, 535.1798
365.3491, 569.8264
365.8312, 586.9873
366.3134, 599.1294
366.7955, 613.2872
367.2776, 618.6874
367.7597, 608.5184
368.2418, 582.1584
368.7239, 543.5102
369.2061, 490.3933
369.6882, 420.9972
370.1703, 366.9568
370.6524, 341.2123
371.1345, 318.7186
371.6166, 287.2673
372.0988, 249.4451
372.5809, 213.2086
373.0630, 183.4726
373.5451, 159.1132
374.0272, 136.2253
374.5093, 114.1431
374.9915, 95.17926
375.4736, 80.65668
375.9557, 69.54260
376.4378, 60.87402
376.9199, 54.60144
377.4020, 50.23889
377.8842, 48.76721
378.3663, 50.61224
378.8484, 48.48529
379.3305, 36.86383
379.8126, 21.25909
380.2947, 8.425354
380.7769, 1.597900
381.2590, 7.668274
381.7411, 6.806824
382.2232, 0.9694210
382.7053, 2.900452
383.1874, 2.722412
383.6696, 0.7090450
384.1517, 0.2887570
384.6338, 0.2240600
385.1159, 0.8603520
385.5980, 2.712341
386.0801, 5.496521
386.5623, 9.414795
387.0444, 14.49683
387.5265, 19.04675
388.0086, 21.74969
388.4907, 22.40833
388.9728, 21.51703
389.4550, 18.76453
389.9371, 14.78674
390.4192, 9.433899
390.9013, 3.057312
391.3834, 3.592163
391.8655, 10.36957
392.3477, 16.79657
392.8298, 20.27362
393.3119, 17.25952
393.7940, 15.85577
394.2761, 17.48907
394.7582, 21.37622
395.2404, 26.72302
395.7225, 33.24146
396.2046, 40.57501
396.6867, 47.82770
397.1688, 52.14020
397.6509, 62.49731
398.1331, 85.47113
398.6152, 108.5063
399.0973, 121.3555
399.5794, 125.0080
400.0615, 129.2750
400.5436, 144.0886
401.0258, 170.0509
401.5079, 194.3604
401.9900, 215.6432
402.4721, 236.5557
402.9542, 259.1390
403.4363, 281.7758
403.9185, 302.3457
404.4006, 320.3384
404.8827, 334.4655
405.3648, 339.6843
405.8469, 331.1587
406.3290, 326.3287
406.8112, 339.0931
407.2933, 353.6132
407.7754, 353.9248
408.2575, 335.4380
408.7396, 311.9988
409.2217, 296.7161
409.7039, 289.1671
410.1860, 282.4236
410.6681, 276.1527
411.1502, 268.9065
411.6324, 259.2628
412.1145, 247.3970
412.5966, 234.9529
413.0787, 220.2015
413.5608, 206.0889
414.0429, 197.9158
414.5251, 196.3986
415.0072, 198.2871
415.4893, 202.5408
415.9714, 208.4993
416.4535, 212.3492
416.9356, 208.8351
417.4178, 207.8151
417.8999, 216.6171
418.3820, 232.9152
418.8641, 250.3604
419.3462, 266.6129
419.8283, 280.8585
420.3105, 290.5834
420.7926, 294.4584
421.2747, 296.3555
421.7568, 294.9578
422.2389, 292.7305
422.7210, 293.3314
423.2032, 297.1237
423.6853, 299.3998
424.1674, 294.2458
424.6495, 279.9213
425.1316, 265.8176
425.6137, 248.1509
426.0959, 234.2920
426.5780, 231.0116
427.0601, 234.1163
427.5422, 233.2945
428.0243, 220.6929
428.5064, 200.4601
428.9886, 191.7170
429.4707, 200.7355
429.9528, 210.6768
430.4349, 220.3206
430.9170, 227.9277
431.3991, 230.3889
431.8813, 226.7535
432.3634, 222.3902
432.8455, 223.3785
433.3276, 229.8230
433.8097, 240.4994
434.2918, 260.9049
434.7740, 279.1074
435.2561, 284.6926
435.7382, 279.5509
436.2203, 275.5784
436.7024, 280.1198
437.1845, 289.3344
437.6667, 296.4371
438.1488, 301.0824
438.6309, 304.4518
439.1130, 308.6249
439.5951, 311.8419
440.0772, 308.8347
440.5594, 294.4236
441.0415, 278.9214
441.5236, 265.9376
442.0057, 256.1938
442.4878, 253.4508
442.9699, 260.3555
443.4521, 269.3406
443.9342, 266.2745
444.4163, 242.9028
444.8984, 226.9217
445.3805, 223.4538
445.8626, 225.2976
446.3448, 228.5737
446.8269, 231.9752
447.3090, 233.6361
447.7911, 231.6097
448.2732, 225.9700
448.7553, 222.1292
449.2375, 219.5817
449.7196, 219.0129
450.2017, 221.7134
450.6838, 226.1899
451.1659, 230.1187
451.6480, 232.4377
452.1302, 234.8829
452.6123, 241.2443
453.0944, 253.0961
453.5765, 263.5520
454.0586, 274.1234
454.5407, 280.9431
455.0229, 279.8768
455.5050, 271.6979
455.9871, 262.7922
456.4692, 258.5919
456.9513, 257.4559
457.4334, 252.9492
457.9156, 243.4620
458.3977, 234.7589
458.8798, 233.2072
459.3619, 234.6237
459.8440, 230.5208
460.3261, 214.7101
460.8083, 199.0615
461.2904, 194.7645
461.7725, 198.5697
462.2546, 198.4402
462.7367, 189.9329
463.2188, 175.9059
463.7010, 159.9813
464.1831, 139.5321
464.6652, 125.4738
465.1473, 125.3671
465.6294, 127.9293
466.1115, 123.3981
466.5937, 111.4561
467.0758, 97.09583
467.5579, 83.71161
468.0400, 71.51947
468.5221, 64.46832
469.0042, 67.80109
469.4864, 70.43005
469.9685, 70.83380
470.4506, 69.24945
470.9327, 65.58813
471.4148, 59.87231
471.8969, 53.67200
472.3791, 49.99847
472.8612, 49.88489
473.3433, 47.64990
473.8254, 40.56482
474.3075, 33.13226
474.7896, 25.89264
475.2718, 19.93683
475.7539, 18.68768
476.2360, 29.04022
476.7181, 43.96899
477.2002, 46.71411
477.6823, 35.46429
478.1645, 22.03784
478.6466, 8.978516
479.1287, 0.9340210
479.6108, 2.485596
480.0929, 8.625305
480.5751, 19.16821
481.0572, 22.55688
481.5393, 20.67682
482.0214, 16.02295
482.5035, 8.952881
482.9857, 2.443848
483.4678, 0.5152590
483.9499, 4.677307
484.4320, 4.415466
484.9141, 4.963745
485.3962, 13.99731
485.8784, 18.35297
486.3605, 18.46082
486.8426, 15.46594
487.3247, 9.741272
487.8068, 2.749451
488.2889, 1.093750
488.7711, 0.2086790
489.2532, 1.086731
489.7353, 0.6822510
490.2174, 4.8219999E-03
490.6995, 7.1410999E-02
491.1816, 0.4421390
491.6638, 0.7022710
492.1459, 0.3162840
492.6280, 2.361145
493.1101, 3.739563
493.5922, 4.532166
494.0743, 4.448303
494.5565, 2.410095
495.0386, 0.3734130
495.5207, 2.349548
496.0028, 3.957764
496.4849, 3.234924
496.9670, 2.655701
497.4492, 12.40479
497.9313, 22.01282
498.4134, 31.06830
498.8955, 37.45642
499.3776, 36.73151
499.8597, 26.51501
500.3419, 23.31409
500.8240, 36.23975
501.3061, 49.63293
501.7882, 48.86084
502.2703, 38.56842
502.7524, 35.95776
503.2346, 52.25366
503.7167, 81.17761
504.1988, 98.90167
504.6809, 97.66895
505.1630, 96.67560
505.6451, 95.26147
506.1273, 96.11975
506.6094, 101.9258
507.0915, 112.6533
507.5736, 125.5282
508.0557, 138.6871
508.5378, 151.9768
509.0200, 164.1677
509.5021, 175.1945
509.9842, 185.1645
510.4663, 189.4990
510.9484, 194.1211
511.4305, 209.8047
511.9127, 244.9279
512.3948, 278.9656
512.8769, 291.9150
513.3590, 290.0439
513.8411, 293.4664
514.3232, 307.1304
514.8054, 328.5980
515.2875, 356.7091
515.7696, 392.8988
516.2517, 426.1940
516.7338, 456.7827
517.2159, 484.1479
517.6981, 505.0587
518.1802, 522.5891
518.6623, 545.2168
519.1444, 578.1342
519.6265, 614.4811
520.1086, 633.8994
520.5908, 620.2281
521.0729, 620.7966
521.5550, 651.4631
522.0371, 684.9053
522.5192, 705.1691
523.0013, 711.1561
523.4835, 708.9767
523.9656, 700.2788
524.4477, 687.5145
524.9298, 680.9006
525.4119, 683.6064
525.8940, 682.5028
526.3762, 670.9153
526.8583, 651.6241
527.3404, 626.9227
527.8225, 593.8912
528.3046, 565.9984
528.7867, 558.7352
529.2689, 558.8873
529.7510, 539.7567
530.2331, 496.6980
530.7152, 452.6548
531.1973, 429.2345
531.6794, 426.9009
532.1616, 418.2073
532.6437, 398.6230
533.1258, 378.4571
533.6079, 362.1387
534.0900, 346.5234
534.5721, 325.8026
535.0543, 298.2648
535.5364, 270.3788
536.0185, 252.5265
536.5006, 247.1826
536.9827, 239.0934
537.4648, 224.2631
537.9470, 210.6793
538.4291, 202.3739
538.9112, 197.8123
539.3933, 193.4987
539.8754, 188.1917
540.3575, 182.1741
540.8397, 176.4996
541.3218, 170.9018
541.8039, 161.3941
542.2860, 144.2837
542.7681, 126.7757
543.2502, 120.9329
543.7324, 127.9539
544.2145, 131.8563
544.6966, 130.8191
545.1787, 125.8988
545.6608, 113.2848
546.1429, 96.59357
546.6251, 88.09247
547.1072, 95.74744
547.5893, 112.5695
548.0714, 117.7922
548.5535, 102.0213
549.0356, 91.15570
549.5178, 89.09485
549.9999, 89.73096
550.4820, 88.51190
550.9641, 85.85852
551.4462, 85.74701
551.9283, 93.05621
552.4105, 104.1894
552.8926, 108.5850
553.3747, 105.3284
553.8568, 99.33923
554.3389, 90.00037
554.8210, 80.99463
555.3032, 77.89087
555.7853, 82.04791
556.2674, 86.27869
556.7495, 87.02527
557.2316, 86.69141
557.7137, 88.99548
558.1959, 93.91296
558.6780, 97.51465
559.1601, 96.42310
559.6422, 91.67310
560.1243, 90.44720
560.6064, 97.49927
561.0886, 102.2661
561.5707, 102.6182
562.0528, 101.0419
562.5349, 99.92621
563.0170, 99.56464
563.4991, 98.41058
563.9813, 94.39972
564.4634, 88.03143
564.9455, 83.24207
565.4276, 80.08240
565.9097, 78.40344
566.3918, 80.86292
566.8740, 83.70026
567.3561, 81.07251
567.8382, 70.23926
568.3203, 60.54950
568.8024, 58.80829
569.2845, 61.11377
569.7667, 60.50824
570.2488, 55.92383
570.7309, 50.51276
571.2130, 46.80914
571.6951, 44.75629
572.1772, 42.96381
572.6594, 42.21954
573.1415, 40.75330
573.6236, 37.41058
574.1057, 33.60468
574.5878, 30.86072
575.0699, 29.49792
575.5521, 28.76477
576.0342, 28.75128
576.5163, 29.26459
576.9984, 25.38385
577.4805, 13.86932
577.9626, 4.399231
578.4448, 4.197266
578.9269, 8.112366
579.4090, 8.824768
579.8911, 3.573914
580.3732, 0.3449100
580.8553, 4.608276
581.3375, 13.07562
581.8196, 13.98993
582.3017, 5.533813
582.7838, 4.354675
583.2659, 9.116211
583.7480, 8.907593
584.2302, 7.792358
584.7123, 4.372681
585.1944, 1.830750
585.6765, 1.206238
586.1587, 1.493286
586.6408, 1.566772
587.1229, 1.218689
587.6050, 1.137695
588.0872, 2.046631
588.5693, 3.893677
589.0514, 6.510559
589.5335, 11.12842
590.0156, 13.69403
590.4977, 10.63062
590.9799, 4.823181
591.4620, 0.1471560
591.9441, 4.403870
592.4262, 6.391724
592.9083, 3.377319
593.3904, 1.576355
593.8726, 3.928040
594.3547, 3.093506
594.8368, 0.8905030
595.3189, 1.372925
595.8010, 3.718567
596.2831, 6.333984
596.7653, 8.889404
597.2474, 12.18835
597.7295, 16.91925
598.2116, 22.01404
598.6937, 27.60400
599.1758, 33.07141
599.6580, 35.69373
600.1401, 29.83710
600.6222, 19.34833
601.1043, 20.95056
601.5864, 37.52051
602.0685, 52.35712
602.5507, 57.56128
603.0328, 56.93713
603.5149, 56.81171
603.9970, 56.58411
604.4791, 59.15411
604.9612, 66.40448
605.4434, 76.22681
605.9255, 88.33795
606.4076, 101.5182
606.8897, 111.2693
607.3718, 114.3800
607.8539, 112.9890
608.3361, 114.2601
608.8182, 118.8594
609.3003, 124.9202
609.7824, 131.5886
610.2645, 140.1257
610.7466, 152.0494
611.2288, 166.7468
611.7109, 181.7438
612.1930, 195.1766
612.6751, 208.4073
613.1572, 223.8160
613.6393, 241.2264
614.1215, 259.3900
614.6036, 278.3705
615.0857, 296.3827
615.5678, 310.4333
616.0499, 319.6637
616.5320, 329.6681
617.0142, 339.7379
617.4963, 351.5535
617.9784, 364.4639
618.4605, 380.0981
618.9426, 402.1550
619.4247, 432.2416
619.9069, 466.1129
620.3890, 496.9120
620.8711, 523.4695
621.3532, 553.5679
621.8353, 585.3973
622.3174, 624.1094
622.7996, 678.9883
623.2817, 741.6575
623.7638, 793.6309
624.2459, 824.2700
624.7280, 855.3098
625.2101, 898.8721
625.6923, 954.1838
626.1744, 1022.489
626.6565, 1103.945
627.1386, 1187.272
627.6207, 1262.619
628.1028, 1330.292
628.5850, 1397.283
629.0671, 1457.562
629.5492, 1525.014
630.0313, 1606.929
630.5134, 1693.547
630.9955, 1776.747
631.4777, 1854.720
631.9598, 1926.487
632.4419, 1994.003
632.9240, 2054.320
633.4061, 2099.681
633.8882, 2129.955
634.3704, 2145.163
634.8525, 2144.892
635.3346, 2130.112
635.8167, 2103.886
636.2988, 2071.785
636.7809, 2012.762
637.2631, 1908.511
637.7452, 1789.819
638.2273, 1670.610
638.7094, 1555.247
639.1915, 1446.579
639.6736, 1347.517
640.1558, 1255.438
640.6379, 1164.839
641.1200, 1074.571
641.6021, 989.1072
642.0842, 909.1669
642.5663, 833.8033
643.0485, 759.0006
643.5306, 687.2235
644.0127, 626.3357
644.4948, 583.1652
644.9769, 546.0770
645.4590, 506.8903
645.9412, 467.9656
646.4233, 435.1237
646.9054, 409.3584
647.3875, 386.9841
647.8696, 364.9352
648.3517, 343.5155
648.8339, 324.3971
649.3160, 310.8211
649.7981, 294.7626
650.2802, 269.8488
650.7623, 245.4055
651.2444, 231.4996
651.7266, 228.3304
652.2087, 224.8209
652.6908, 211.5430
653.1729, 193.5004
653.6550, 181.2646
654.1371, 174.6284
654.6193, 165.6208
655.1014, 149.6084
655.5835, 132.1371
656.0656, 123.3829
656.5477, 128.5551
657.0298, 127.3029
657.5120, 112.6042
657.9941, 98.43469
658.4762, 93.08588
658.9583, 93.14001
659.4404, 91.70490
659.9225, 85.95105
660.4047, 78.68805
660.8868, 73.95691
661.3689, 71.61407
661.8510, 68.77728
662.3331, 64.84662
662.8152, 61.46747
663.2974, 60.03278
663.7795, 59.89893
664.2616, 59.11499
664.7437, 57.17596
665.2258, 55.47632
665.7079, 55.00079
666.1901, 54.58600
666.6722, 53.19946
667.1543, 50.74841
667.6364, 47.18250
668.1185, 42.07977
668.6006, 36.78333
669.0828, 36.69202
669.5649, 45.24597
670.0470, 45.96503
670.5291, 28.78461
671.0112, 10.54834
671.4933, 3.444946
671.9755, 5.717468
672.4576, 9.906067
672.9397, 15.79065
673.4218, 20.99323
673.9039, 24.50928
674.3860, 26.07690
674.8682, 23.71692
675.3503, 17.38245
675.8324, 12.77826
676.3145, 16.71393
676.7966, 28.60876
677.2787, 32.67310
677.7609, 24.10205
678.2430, 15.44751
678.7251, 6.710083
679.2072, 0.9360960
679.6893, 2.124329
680.1714, 10.08905
680.6536, 18.20465
681.1357, 24.16699
681.6178, 27.68030
682.0999, 27.92267
682.5820, 25.26459
683.0641, 20.77936
683.5463, 14.65143
684.0284, 8.595947
684.5105, 4.888672
684.9926, 3.494507
685.4747, 4.807434
685.9568, 15.20667
686.4390, 21.02435
686.9211, 12.96710
687.4032, 0.8293460
687.8853, 2.007935
688.3674, 7.675842
688.8495, 18.35193
689.3317, 21.36810
689.8138, 19.05884
690.2959, 14.75336
690.7780, 8.902222
691.2601, 6.270813
691.7422, 10.17548
692.2244, 16.81439
692.7065, 17.85394
693.1886, 9.970337
693.6707, 4.171204
694.1528, 1.950195
694.6349, 9.0271004E-02
695.1171, 4.829407
695.5992, 9.874146
696.0813, 8.769348
696.5634, 1.397888
697.0455, 11.92657
697.5276, 13.01990
698.0098, 6.973633
698.4919, 0.7374270
698.9740, 5.148193
699.4561, 9.257568
699.9382, 10.84283
700.4203, 9.908691
700.9025, 6.411926
701.3846, 2.353699
701.8667, 9.367249
702.3488, 15.10583
702.8309, 18.59601
703.3130, 18.00757
703.7952, 14.80939
704.2773, 11.76978
704.7594, 9.768433
705.2415, 9.983093
705.7236, 16.58826
706.2057, 27.81366
706.6879, 31.43695
707.1700, 24.73279
707.6521, 15.66260
708.1342, 8.414673
708.6163, 3.575195
709.0984, 3.925781
709.5806, 15.81769
710.0627, 23.73077
710.5448, 23.80042
711.0269, 22.18536
711.5090, 22.77655
711.9911, 25.64185
712.4733, 29.05157
712.9554, 32.69867
713.4375, 34.59174
713.9196, 29.55371
714.4017, 19.66913
714.8839, 16.64117
715.3660, 24.25507
715.8481, 31.10352
716.3302, 26.82806
716.8123, 13.85718
717.2944, 8.040955
717.7766, 14.72821
718.2587, 21.34015
718.7408, 25.67627
719.2229, 29.62292
719.7050, 36.12012
720.1871, 43.92938
720.6693, 48.19287
721.1514, 45.80981
721.6335, 39.48090
722.1156, 31.29688
722.5977, 22.19598
723.0798, 17.96765
723.5620, 20.81372
724.0441, 25.22260
724.5262, 26.33441
725.0083, 24.93726
725.4904, 26.97699
725.9725, 38.18317
726.4547, 44.81976
726.9368, 40.98010
727.4189, 35.93530
727.9011, 37.60681
728.3832, 44.64264
728.8653, 50.06348
729.3474, 49.84943
729.8295, 46.90314
730.3116, 43.86609
730.7938, 41.08636
731.2759, 40.57837
731.7580, 43.33661
732.2401, 46.77191
732.7222, 49.02643
733.2043, 50.12750
733.6865, 49.95087
734.1686, 43.50598
734.6507, 43.19427
735.1328, 55.60944
735.6149, 69.09796
736.0970, 75.69391
736.5792, 76.32898
737.0613, 75.91364
737.5434, 76.24103
738.0255, 77.90619
738.5076, 82.49951
738.9897, 88.75391
739.4719, 93.23401
739.9540, 95.33600
740.4361, 95.84558
740.9182, 95.37360
741.4003, 93.75269
741.8824, 89.98108
742.3646, 80.72424
742.8467, 75.39050
743.3288, 76.46454
743.8109, 79.69006
744.2930, 84.49896
744.7751, 89.27643
745.2573, 90.32837
745.7394, 85.31042
746.2215, 79.38885
746.7036, 77.15344
747.1857, 76.00238
747.6678, 69.51428
748.1500, 57.84235
748.6321, 49.56219
749.1142, 50.99530
749.5963, 58.45044
750.0784, 61.13177
750.5605, 57.83582
751.0427, 52.92639
751.5248, 44.41394
752.0069, 36.88049
752.4890, 33.74017
752.9711, 32.69910
753.4532, 29.38733
753.9354, 22.21021
754.4175, 16.71149
754.8996, 15.34308
755.3817, 16.09534
755.8638, 17.88770
756.3459, 19.76123
756.8281, 19.07739
757.3102, 14.53809
757.7923, 8.272522
758.2744, 3.507874
758.7565, 0.2250370
759.2386, 1.434753
759.7208, 9.345154
760.2029, 16.05603
760.6850, 16.29095
761.1671, 12.82556
761.6492, 11.66388
762.1313, 14.47302
762.6135, 14.40753
763.0956, 5.327271
763.5777, 2.963684
764.0598, 2.567810
764.5419, 3.829712
765.0240, 10.92102
765.5062, 16.48981
765.9883, 19.19232
766.4704, 16.09961
766.9525, 8.467285
767.4346, 2.025330
767.9167, 3.523865
768.3989, 4.603027
768.8810, 1.991394
769.3631, 11.54999
769.8452, 16.77386
770.3273, 17.34406
770.8094, 14.18286
771.2916, 0.1939700
771.7737, 9.542664
772.2558, 3.521423
772.7379, 8.400391
773.2200, 15.27234
773.7021, 14.75775
774.1843, 10.57123
774.6664, 2.560303
775.1485, 5.972717
775.6306, 9.548767
776.1127, 8.696289
776.5948, 5.514221
777.0770, 0.5115360
777.5591, 4.469421
778.0412, 7.561401
778.5233, 8.753418
779.0054, 6.862427
779.4875, 2.664734
779.9697, 7.397217
780.4518, 0.7139280
780.9339, 8.293884
781.4160, 13.42468
781.8981, 14.65686
782.3802, 14.24231
782.8624, 11.59326
783.3445, 8.991150
783.8266, 8.678528
784.3087, 8.982666
784.7908, 6.690247
785.2729, 1.902405
785.7551, 1.979797
786.2372, 2.389526
786.7193, 0.2485350
787.2014, 3.120483
787.6835, 8.291565
788.1656, 7.915344
788.6478, 1.920105
789.1299, 11.33942
789.6120, 12.87848
790.0941, 8.268982
790.5762, 4.481140
791.0583, 1.811707
791.5405, 0.5972290
792.0226, 3.051575
792.5047, 5.124390
792.9868, 6.895569
793.4689, 7.989197
793.9510, 7.156799
794.4332, 3.659546
794.9153, 0.8677980
795.3974, 3.175354
795.8795, 8.649536
796.3616, 13.03156
796.8438, 15.92419
797.3259, 15.72522
797.8080, 11.16461
798.2901, 5.150330
798.7722, 2.751587
799.2543, 4.740784
799.7365, 6.239075
800.2186, 4.812683
800.7007, 6.354675
801.1828, 18.72833
801.6649, 31.00299
802.1470, 28.49365
802.6292, 10.41754
803.1113, 2.101624
803.5934, 4.002258
804.0755, 13.52124
804.5576, 14.35071
805.0397, 11.16241
805.5219, 13.58832
806.0040, 22.99994
806.4861, 31.94257
806.9682, 34.06219
807.4503, 30.66986
807.9324, 24.29724
808.4146, 14.47931
808.8967, 9.265442
809.3788, 11.32111
809.8609, 15.76361
810.3430, 19.16492
810.8251, 21.46808
811.3073, 22.23669
811.7894, 20.69684
812.2715, 18.77734
812.7536, 15.46307
813.2357, 12.88690
813.7178, 12.50543
814.2000, 13.97937
814.6821, 17.03534
815.1642, 22.45935
815.6463, 25.26251
816.1284, 18.41455
816.6105, 7.632935
817.0927, 2.461792
817.5748, 2.995911
818.0569, 5.290100
818.5390, 7.486023
819.0211, 10.70203
819.5032, 17.56396
819.9854, 28.48431
820.4675, 35.31219
820.9496, 36.70917
821.4317, 36.87146
821.9138, 37.89233
822.3959, 38.97614
822.8781, 37.95203
823.3602, 34.66235
823.8423, 33.28149
824.3244, 34.34308
824.8065, 37.27948
825.2886, 45.29883
825.7708, 52.69348
826.2529, 52.21899
826.7350, 44.96997
827.2171, 38.74548
827.6992, 38.69629
828.1813, 41.76892
828.6635, 44.25885
829.1456, 46.26459
829.6277, 48.13635
830.1098, 50.94873
830.5919, 53.79034
831.0740, 55.43005
831.5562, 57.08923
832.0383, 63.01282
832.5204, 75.31232
833.0025, 83.87402
833.4846, 86.68396
833.9667, 88.63074
834.4489, 92.85150
834.9310, 97.69812
835.4131, 99.86005
835.8952, 98.31085
836.3773, 97.63879
836.8594, 97.79877
837.3416, 100.1067
837.8237, 108.0367
838.3058, 118.2702
838.7879, 124.2098
839.2700, 124.4243
839.7521, 122.4151
840.2343, 119.2548
840.7164, 116.9776
841.1985, 120.8469
841.6806, 129.5796
842.1627, 135.8684
842.6448, 137.8515
843.1270, 139.0084
843.6091, 141.9725
844.0912, 147.0809
844.5733, 156.6225
845.0554, 174.2416
845.5375, 186.2087
846.0197, 187.4146
846.5018, 186.8000
846.9839, 189.8918
847.4660, 195.1365
847.9481, 198.6783
848.4302, 199.7680
848.9124, 199.7783
849.3945, 197.8126
849.8766, 195.9678
850.3587, 195.6807
850.8408, 196.6306
851.3229, 198.0880
851.8051, 199.8117
852.2872, 201.9208
852.7693, 204.8774
853.2514, 208.1460
853.7335, 210.0402
854.2156, 211.0562
854.6978, 215.2050
855.1799, 223.8055
855.6620, 229.3676
856.1441, 223.5481
856.6262, 208.3022
857.1083, 196.8408
857.5905, 189.3745
858.0726, 184.9817
858.5547, 184.2615
859.0368, 185.6299
859.5189, 191.1223
860.0010, 197.6943
860.4832, 195.8047
860.9653, 179.8269
861.4474, 166.0663
861.9295, 156.1439
862.4116, 150.4491
862.8937, 154.9022
863.3759, 161.9346
863.8580, 156.5563
864.3401, 134.7241
864.8222, 114.1929
865.3043, 111.1299
865.7864, 115.9070
866.2686, 116.2327
866.7507, 112.5876
867.2328, 107.0609
867.7149, 100.3912
868.1971, 94.18518
868.6792, 89.78247
869.1613, 87.23999
869.6434, 88.15460
870.1255, 93.82623
870.6077, 92.33215
871.0898, 78.46094
871.5719, 64.87463
872.0540, 61.48260
872.5361, 65.27625
873.0182, 65.51501
873.5004, 58.52948
873.9825, 54.55084
874.4646, 55.96179
874.9467, 57.79016
875.4288, 57.93982
875.9109, 57.00037
876.3931, 55.51782
876.8752, 53.58997
877.3573, 53.12457
877.8394, 57.96198
878.3215, 61.88580
878.8036, 57.95911
879.2858, 50.14789
879.7679, 44.90234
880.2500, 43.66461
880.7321, 44.96051
881.2142, 47.77344
881.6964, 52.22742
882.1785, 59.98322
882.6606, 70.47192
883.1427, 77.26581
883.6248, 78.84351
884.1069, 77.36572
884.5891, 73.43958
885.0712, 68.19165
885.5533, 63.64191
886.0354, 58.63739
886.5175, 59.28857
886.9996, 69.38098
887.4818, 78.91833
887.9639, 83.95813
888.4460, 86.80835
888.9281, 88.77356
889.4102, 89.94714
889.8923, 92.59973
890.3745, 101.3353
890.8566, 106.2205
891.3387, 98.91870
891.8208, 89.77173
892.3029, 90.84955
892.7850, 99.71527
893.2672, 103.3013
893.7493, 93.43542
894.2314, 83.50964
894.7135, 89.27563
895.1956, 100.7441
895.6777, 102.1295
896.1599, 93.66412
896.6420, 80.99231
897.1241, 66.64636
897.6062, 54.18329
898.0883, 48.54034
898.5704, 49.05951
899.0526, 53.05737
899.5347, 60.89771
900.0168, 65.50665
900.4989, 64.25165
900.9810, 61.54907
901.4631, 62.18994
901.9453, 65.20288
902.4274, 62.78766
902.9095, 50.01471
903.3916, 42.21765
903.8737, 47.06262
904.3558, 49.78394
904.8380, 37.27051
905.3201, 19.23383
905.8022, 14.29449
906.2843, 27.79510
906.7664, 37.83966
907.2485, 37.72296
907.7307, 34.30322
908.2128, 30.49634
908.6949, 26.23328
909.1770, 20.06891
909.6591, 12.50702
910.1412, 7.469971
910.6234, 8.241516
911.1055, 11.97858
911.5876, 16.76392
912.0697, 21.27386
912.5518, 22.88666
913.0339, 21.67804
913.5161, 19.57263
913.9982, 17.48047
914.4803, 15.33820
914.9624, 13.70490
915.4445, 12.83228
915.9266, 13.38580
916.4088, 15.81891
916.8909, 17.54224
917.3730, 17.49445
917.8551, 16.80566
918.3372, 16.77502
918.8193, 17.23700
919.3015, 16.37024
919.7836, 12.98877
920.2657, 11.55737
920.7478, 14.35516
921.2299, 17.34439
921.7120, 17.80255
922.1942, 16.38205
922.6763, 14.82434
923.1584, 12.67081
923.6405, 11.76111
924.1226, 14.20740
924.6047, 15.24182
925.0869, 11.01746
925.5690, 5.323944
926.0511, 3.446564
926.5332, 6.230286
927.0153, 9.621704
927.4974, 12.28723
927.9796, 14.04846
928.4617, 14.89984
928.9438, 14.58109
929.4259, 11.38937
929.9080, 6.572845
930.3901, 5.085815
930.8723, 9.739594
931.3544, 15.06833
931.8365, 13.22964
932.3186, 7.450592
932.8007, 6.685303
933.2828, 10.55197
933.7650, 12.85495
934.2471, 11.36844
934.7292, 8.698853
935.2113, 7.782501
935.6934, 8.197510
936.1755, 7.304474
936.6577, 3.884979
937.1398, 2.908051
937.6219, 7.112549
938.1040, 11.36578
938.5861, 12.57855
939.0682, 11.05759
939.5504, 6.964264
940.0325, 3.071472
940.5146, 5.652374
940.9967, 7.447083
941.4788, 17.07440
941.9609, 13.25122
942.4431, 6.001312
942.9252, 6.073120
943.4073, 13.16675
943.8894, 18.31836
944.3715, 21.56177
944.8536, 20.68494
945.3358, 8.631348
945.8179, 2.116791
946.3000, 1.417145
946.7821, 13.57391
947.2642, 20.21613
947.7463, 16.65878
948.2285, 11.25748
948.7106, 8.696625
949.1927, 7.143616
949.6748, 4.326233
950.1569, 1.380981
950.6390, 1.7242000E-02
951.1212, 0.8778380
951.6033, 5.239532
952.0854, 15.75934
952.5675, 26.30914
953.0496, 26.12183
953.5317, 18.68759
954.0139, 13.94528
954.4960, 12.68668
954.9781, 11.69446
955.4602, 9.449341
955.9423, 6.695953
956.4244, 4.358337
956.9066, 2.457153
957.3887, 1.086212
957.8708, 0.1983640
958.3529, 0.8449710
958.8350, 3.801208
959.3171, 6.106659
959.7993, 5.109192
960.2814, 1.642242
960.7635, 1.569214
961.2456, 5.575439
961.7277, 5.694336
962.2098, 0.9459840
962.6920, 6.478241
963.1741, 6.578918
963.6562, 4.505615
964.1383, 4.280518
964.6204, 5.884399
965.1025, 10.08173
965.5847, 22.72931
966.0668, 29.86792
966.5489, 26.88556
967.0310, 19.65082
967.5131, 9.253174
967.9952, 1.633362
968.4774, 6.947266
968.9595, 4.219818
969.4416, 1.023926
969.9237, 1.072021
970.4058, 2.064636
970.8879, 0.6694030
971.3701, 3.649506
971.8522, 0.7943730
972.3343, 11.61703
972.8164, 17.31461
973.2985, 8.600861
973.7806, 1.294952
974.2628, 0.3017580
974.7449, 4.932495
975.2270, 4.712311
975.7091, 0.5033260
976.1912, 0.7528990
976.6733, 3.418793
977.1555, 8.845154
977.6376, 11.85391
978.1197, 13.15918
978.6018, 15.28632
979.0839, 16.83191
979.5660, 11.13168
980.0482, 1.791687
980.5303, 11.39230
981.0124, 10.30756
981.4945, 2.984192
981.9766, 4.626465
982.4587, 11.73792
982.9409, 11.24643
983.4230, 2.854004
983.9051, 3.891907
984.3872, 5.520050
984.8693, 5.010956
985.3514, 5.542175
985.8336, 6.739838
986.3157, 6.218140
986.7978, 3.481964
987.2799, 2.305237
987.7620, 3.980988
988.2441, 4.393707
988.7263, 0.5079960
989.2084, 4.982117
989.6905, 7.036652
990.1726, 5.097168
990.6547, 3.983978
991.1368, 3.863922
991.6190, 4.366486
992.1011, 7.183441
992.5832, 8.558350
993.0653, 2.372192
993.5474, 7.868713
994.0295, 8.312561
994.5117, 7.151215
994.9938, 19.23999
995.4759, 22.26776
995.9580, 27.76114
996.4401, 47.17749
996.9222, 66.67108
997.4044, 68.05383
997.8865, 52.04907
998.3686, 40.24005
998.8507, 40.36188
999.3328, 42.01526
999.8149, 42.11493
1000.297, 42.98352
1000.779, 47.44263
1001.261, 53.54437
1001.743, 57.08087
1002.226, 57.07031
1002.708, 58.63562
1003.190, 65.09741
1003.672, 72.58630
1004.154, 81.01031
1004.636, 88.30426
1005.118, 91.38367
1005.600, 91.06616
1006.082, 90.70746
1006.565, 91.67194
1007.047, 92.93713
1007.529, 95.81274
1008.011, 96.76947
1008.493, 88.56982
1008.975, 76.52576
1009.457, 71.81061
1009.939, 75.80719
1010.422, 81.82904
1010.904, 86.78326
1011.386, 87.82794
1011.868, 77.51086
1012.350, 62.35547
1012.832, 56.77209
1013.314, 59.11377
1013.796, 58.57935
1014.279, 51.58618
1014.761, 44.13666
1015.243, 42.65216
1015.725, 44.07141
1016.207, 42.42944
1016.689, 38.33264
1017.171, 33.57458
1017.653, 28.35760
1018.135, 21.90735
1018.618, 13.67377
1019.100, 6.224609
1019.582, 4.421814
1020.064, 7.414063
1020.546, 7.531677
1021.028, 4.852234
1021.510, 5.146484
1021.992, 9.901184
1022.474, 13.70221
1022.957, 12.48315
1023.439, 8.751526
1023.921, 8.653564
1024.403, 12.40973
1024.885, 11.36572
1025.367, 4.333191
1025.849, 1.844360
1026.331, 8.806641
1026.813, 14.94727
1027.296, 8.934082
1027.778, 4.789429
1028.260, 7.447266
1028.742, 4.027771
1029.224, 9.758179
1029.706, 8.014099
1030.188, 4.755066
1030.670, 1.630493
1031.153, 1.257019
1031.635, 5.129211
1032.117, 9.005859
1032.599, 3.421570
1033.081, 17.87323
1033.563, 29.99023
1034.045, 25.84546
1034.527, 21.26453
1035.010, 24.88354
1035.492, 31.92664
1035.974, 34.97430
1036.456, 33.67590
1036.938, 31.85425
1037.420, 28.62329
1037.902, 26.06226
1038.384, 24.24023
1038.866, 23.75110
1039.349, 25.29669
1039.831, 28.35181
1040.313, 31.65399
1040.795, 35.46838
1041.277, 38.21765
1041.759, 40.69769
1042.241, 40.70306
1042.723, 35.04730
1043.205, 29.31671
1043.688, 28.73480
1044.170, 31.61810
1044.652, 32.08734
1045.134, 28.42194
1045.616, 25.53418
1046.098, 25.16162
1046.580, 24.41302
1047.062, 21.92706
1047.545, 18.52069
1048.027, 13.51349
1048.509, 8.139709
1048.991, 8.355774
1049.473, 18.95905
1049.955, 27.27045
1050.437, 29.71582
1050.919, 30.96637
1051.401, 32.61090
1051.884, 34.42017
1052.366, 35.93555
1052.848, 36.48749
1053.330, 37.08417
1053.812, 37.67700
1054.294, 38.75732
1054.776, 39.67706
1055.258, 41.94354
1055.740, 49.26532
1056.223, 57.08191
1056.705, 57.43774
1057.187, 49.93457
1057.669, 45.33075
1058.151, 52.00201
1058.633, 54.84082
1059.115, 42.01221
1059.597, 29.98035
1060.080, 33.52051
1060.562, 45.58893
1061.044, 53.37756
1061.526, 54.53778
1062.008, 52.48627
1062.490, 48.50305
1062.972, 41.40375
1063.454, 25.63403
1063.937, 11.05035
1064.419, 7.634216
1064.901, 11.47144
1065.383, 13.66272
1065.865, 12.22540
1066.347, 9.008301
1066.829, 3.020264
1067.311, 2.470581
1067.793, 6.745056
1068.276, 8.968018
1068.758, 8.123779
1069.240, 4.637085
1069.722, 1.330872
1070.204, 10.36621
1070.686, 15.95386
1071.168, 14.25464
1071.650, 9.457886
1072.132, 0.5336300
1072.615, 8.961975
1073.097, 6.334229
1073.579, 3.905090
1074.061, 9.693787
1074.543, 6.445984
1075.025, 4.749695
1075.507, 10.51068
1075.989, 18.06396
1076.472, 25.30286
1076.954, 31.47443
1077.436, 34.26465
1077.918, 35.38593
1078.400, 41.35962
1078.882, 56.21356
1079.364, 67.35193
1079.846, 64.93768
1080.328, 61.25665
1080.811, 63.89215
1081.293, 70.01947
1081.775, 74.97443
1082.257, 79.62695
1082.739, 89.78979
1083.221, 109.4003
1083.703, 127.2859
1084.185, 139.9381
1084.668, 147.4451
1085.150, 144.4870
1085.632, 139.8256
1086.114, 145.3892
1086.596, 160.4474
1087.078, 174.2245
1087.560, 182.7709
1088.042, 191.4515
1088.525, 200.9074
1089.007, 212.8726
1089.489, 229.6341
1089.971, 248.6037
1090.453, 268.1163
1090.935, 287.2288
1091.417, 304.4427
1091.899, 318.2635
1092.381, 332.6526
1092.864, 346.4968
1093.346, 364.4218
1093.828, 392.0903
1094.310, 423.6191
1094.792, 449.8205
1095.274, 472.3090
1095.756, 502.9990
1096.238, 549.0652
1096.720, 594.4185
1097.203, 634.7103
1097.685, 671.9656
1098.167, 702.2401
1098.649, 733.3212
1099.131, 775.9530
1099.613, 828.6549
1100.095, 880.6969
1100.577, 932.8721
1101.060, 977.1918
1101.542, 1007.329
1102.024, 1034.141
1102.506, 1063.089
1102.988, 1091.570
1103.470, 1119.610
1103.952, 1145.027
1104.434, 1157.801
1104.917, 1151.129
1105.399, 1142.369
1105.881, 1134.137
1106.363, 1124.860
1106.845, 1119.626
1107.327, 1108.732
1107.809, 1079.703
1108.291, 1034.853
1108.773, 989.6224
1109.255, 945.9404
1109.738, 901.3842
1110.220, 858.3801
1110.702, 811.6115
1111.184, 752.0559
1111.666, 693.5762
1112.148, 653.4684
1112.630, 627.8895
1113.112, 592.9770
1113.595, 537.6610
1114.077, 494.6554
1114.559, 471.2366
1115.041, 449.8376
1115.523, 424.2734
1116.005, 399.5281
1116.487, 381.7135
1116.969, 368.5220
1117.452, 349.7162
1117.934, 320.6025
1118.416, 298.7930
1118.898, 288.8243
1119.380, 277.2418
1119.862, 256.9901
1120.344, 238.4948
1120.826, 231.5317
1121.308, 232.9753
1121.791, 232.8518
1122.273, 231.9858
1122.755, 225.7698
1123.237, 212.4360
1123.719, 198.5367
1124.201, 184.5959
1124.683, 173.5814
1125.165, 168.0110
1125.647, 166.9116
1126.130, 168.8727
1126.612, 174.9696
1127.094, 174.5923
1127.576, 166.2459
1128.058, 160.2054
1128.540, 159.4045
1129.022, 159.6409
1129.504, 157.2612
1129.987, 152.5439
1130.469, 147.5377
1130.951, 142.4320
1131.433, 137.4727
1131.915, 132.6246
1132.397, 124.1201
1132.879, 110.9780
1133.361, 99.20142
1133.844, 92.40997
1134.326, 90.42035
1134.808, 94.03253
1135.290, 100.1268
1135.772, 97.26404
1136.254, 86.91785
1136.736, 78.03772
1137.218, 71.82452
1137.700, 64.42999
1138.182, 53.91504
1138.665, 46.68542
1139.147, 53.37610
1139.629, 66.30652
1140.111, 66.46149
1140.593, 58.53943
1141.075, 57.20483
1141.557, 62.42999
1142.039, 63.21130
1142.522, 55.26587
1143.004, 47.03943
1143.486, 45.39777
1143.968, 49.78845
1144.450, 63.03333
1144.932, 77.94751
1145.414, 80.44232
1145.896, 74.40326
1146.379, 72.82520
1146.861, 79.44330
1147.343, 89.14862
1147.825, 101.6410
1148.307, 111.4203
1148.789, 111.6512
1149.271, 107.5146
1149.753, 102.9432
1150.235, 99.76166
1150.718, 100.8859
1151.200, 105.8585
1151.682, 109.0791
1152.164, 107.1255
1152.646, 105.0605
1153.128, 104.1408
1153.610, 105.2872
1154.092, 114.0966
1154.574, 122.3292
1155.057, 114.9625
1155.539, 94.65973
1156.021, 85.63806
1156.503, 99.83728
1156.985, 110.4750
1157.467, 108.8564
1157.949, 105.2137
1158.431, 101.5459
1158.914, 99.72467
1159.396, 102.2918
1159.878, 107.8054
1160.360, 111.1683
1160.842, 110.9166
1161.324, 112.8486
1161.806, 120.3853
1162.288, 124.6034
1162.771, 120.3740
1163.253, 116.3499
1163.735, 119.0456
1164.217, 125.9793
1164.699, 132.1155
1165.181, 138.2013
1165.663, 138.1093
1166.145, 129.8986
1166.627, 122.3280
1167.109, 116.7300
1167.592, 112.5950
1168.074, 110.3080
1168.556, 106.9851
1169.038, 97.37622
1169.520, 83.52783
1170.002, 78.46783
1170.484, 81.82910
1170.966, 82.21613
1171.449, 78.43243
1171.931, 73.30066
1172.413, 67.95221
1172.895, 61.20300
1173.377, 51.40759
1173.859, 40.41949
1174.341, 30.35333
1174.823, 22.66656
1175.306, 24.42529
1175.788, 32.75781
1176.270, 34.47467
1176.752, 27.27271
1177.234, 21.81604
1177.716, 25.79016
1178.198, 30.56036
1178.680, 25.57672
1179.162, 16.92188
1179.645, 11.87018
1180.127, 9.088928
1180.609, 5.116089
1181.091, 0.4537960
1181.573, 0.7593990
1182.055, 3.644165
1182.537, 7.630615
1183.019, 6.317566
1183.501, 5.261780
1183.984, 9.978821
1184.466, 14.78265
1184.948, 13.91492
1185.430, 8.739746
1185.912, 1.327881
1186.394, 8.686066
1186.876, 9.600708
1187.358, 12.28522
1187.841, 26.75769
1188.323, 23.17957
1188.805, 15.15396
1189.287, 7.099365
1189.769, 1.042816
1190.251, 1.261566
1190.733, 6.834686
1191.215, 5.562103
1191.698, 8.074829
1192.180, 12.54099
1192.662, 2.762634
1193.144, 4.196869
1193.626, 1.795746
1194.108, 3.077637
1194.590, 4.335571
1195.072, 3.468475
1195.554, 5.081177
1196.036, 9.131226
1196.519, 9.517761
1197.001, 6.273621
1197.483, 3.108063
1197.965, 0.7985840
1198.447, 3.121429
1198.929, 10.32101
1199.411, 16.49973
1199.893, 15.35242
1200.376, 9.165527
1200.858, 0.3890990
1201.340, 8.374451
1201.822, 9.709076
1202.304, 4.438660
1202.786, 2.453888
1203.268, 8.856598
1203.750, 12.48941
1204.233, 11.08804
1204.715, 7.295990
1205.197, 0.8420100
1205.679, 4.549469
1206.161, 3.667633
1206.643, 0.2518920
1207.125, 1.356598
1207.607, 0.4775090
1208.089, 0.6319270
1208.572, 2.785400
1209.054, 6.607574
1209.536, 10.01971
1210.018, 13.50061
1210.500, 20.62289
1210.982, 24.96307
1211.464, 16.88724
1211.946, 2.554077
1212.428, 1.265625
1212.911, 7.948639
1213.393, 10.24152
1213.875, 0.6908260
1214.357, 2.807678
1214.839, 5.191254
1215.321, 11.40747
1215.803, 8.570374
1216.285, 2.433807
1216.768, 2.7771000E-02
1217.250, 0.7460630
1217.732, 3.982452
1218.214, 9.373871
1218.696, 9.290192
1219.178, 3.749298
1219.660, 0.5626830
1220.142, 1.305481
1220.625, 1.773132
1221.107, 9.923523
1221.589, 16.94357
1222.071, 10.37875
1222.553, 0.6640010
1223.035, 0.6279300
1223.517, 9.734955
1223.999, 18.78159
1224.481, 25.42206
1224.964, 26.37048
1225.446, 20.44025
1225.928, 16.42828
1226.410, 22.88388
1226.892, 28.52667
1227.374, 24.96368
1227.856, 19.73123
1228.338, 19.30508
1228.821, 21.25800
1229.303, 20.57748
1229.785, 17.32233
1230.267, 17.59903
1230.749, 26.04337
1231.231, 30.68402
1231.713, 30.31827
1232.195, 25.97870
1232.677, 17.86636
1233.160, 12.26648
1233.642, 16.05432
1234.124, 25.12347
1234.606, 29.86444
1235.088, 30.28922
1235.570, 31.85721
1236.052, 32.51456
1236.534, 29.61862
1237.016, 21.89984
1237.499, 14.22568
1237.981, 8.075684
1238.463, 5.301849
1238.945, 8.515717
1239.427, 14.67297
1239.909, 24.75232
1240.391, 36.13257
1240.873, 34.42169
1241.356, 23.97928
1241.838, 15.79523
1242.320, 14.33441
1242.802, 15.71527
1243.284, 20.65128
1243.766, 23.33972
1244.248, 18.19891
1244.730, 12.20035
1245.213, 7.805450
1245.695, 6.640564
1246.177, 10.44443
1246.659, 18.20425
1247.141, 23.95020
1247.623, 28.31290
1248.105, 30.71066
1248.587, 28.30539
1249.069, 25.02292
1249.552, 22.47992
1250.034, 18.69043
1250.516, 13.83121
1250.998, 11.20187
1251.480, 12.44971
1251.962, 16.54535
1252.444, 21.65820
1252.926, 27.62964
1253.408, 29.59262
1253.891, 27.87656
1254.373, 26.77985
1254.855, 26.71713
1255.337, 22.46158
1255.819, 12.25793
1256.301, 6.720734
1256.783, 20.40558
1257.265, 36.95398
1257.748, 33.06793
1258.230, 19.78122
1258.712, 11.30945
1259.194, 6.889435
1259.676, 3.789734
1260.158, 2.103943
1260.640, 5.071075
1261.122, 15.96863
1261.604, 22.94901
1262.087, 18.88715
1262.569, 16.32941
1263.051, 25.45782
1263.533, 31.82404
1264.015, 19.52448
1264.497, 2.163635
1264.979, 2.722992
1265.461, 19.63101
1265.943, 25.66226
1266.426, 18.81396
1266.908, 11.23685
1267.390, 3.260925
1267.872, 1.466736
1268.354, 1.800171
1268.836, 0.7185970
1269.318, 5.411346
1269.800, 10.55179
1270.283, 13.16953
1270.765, 14.33005
1271.247, 17.11337
1271.729, 20.09311
1272.211, 19.05984
1272.693, 14.42606
1273.175, 11.86362
1273.657, 14.15854
1274.140, 15.95581
1274.622, 15.15665
1275.104, 13.00058
1275.586, 9.777618
1276.068, 6.343719
1276.550, 2.176270
1277.032, 0.0000000E+00
##END=



