##NAMES=Augelite
##RRUFFID=R050316
##IDEAL CHEMISTRY=Al_2_PO_4_(OH)_3_
##LOCALITY=Rapid Creek, Yukon Territory, Canada
##OWNER=RRUFF
##SOURCE=Eugene Schlepp
##DESCRIPTION=Pale green thick prismatic crystals
##STATUS=The identification of this mineral has been confirmed by X-ray diffraction and chemical analysis
##URL=rruff.info/R050316
##MEASURED CHEMISTRY=Al_2.00_(P_1.00_O_4_)(OH)_3_
100.340, 0.000
101.732, 326.336
103.124, 14.951
104.516, 45.546
105.908, 160.666
107.300, 64.672
108.691, 67.824
110.082, 48.347
111.473, 156.873
112.864, 146.037
114.254, 456.064
115.644, 685.298
117.034, 868.877
118.424, 1064.076
119.813, 1200.300
121.203, 1700.100
122.592, 1911.593
123.981, 2310.171
125.369, 2782.671
126.758, 3188.471
128.146, 3522.071
129.534, 3795.092
130.922, 4091.244
132.309, 3889.306
133.696, 3853.102
135.083, 3557.496
136.470, 3586.381
137.857, 3286.668
139.243, 3298.289
140.630, 3008.188
142.016, 3095.212
143.401, 3131.574
144.787, 3461.607
146.172, 3809.173
147.557, 4295.380
148.942, 4857.891
150.327, 5596.355
151.711, 6627.883
153.096, 7778.562
154.480, 9568.480
155.863, 10434.708
157.247, 11694.311
158.630, 13006.348
160.013, 13825.872
161.396, 14335.929
162.779, 14285.562
164.161, 14063.805
165.544, 12915.693
166.926, 11793.252
168.308, 10298.512
169.689, 8901.491
171.070, 7552.212
172.452, 6440.528
173.833, 5377.965
175.213, 4562.031
176.594, 3778.916
177.974, 3228.631
179.354, 2711.609
180.734, 2413.614
182.114, 2033.175
183.493, 1846.828
184.872, 1756.012
186.251, 1532.895
187.630, 1444.610
189.008, 1445.412
190.387, 1293.755
191.765, 1223.985
193.143, 1158.429
194.520, 1271.815
195.898, 1142.894
197.275, 1160.496
198.652, 1169.287
200.029, 1133.262
201.405, 1056.417
202.782, 1071.749
204.158, 1114.252
205.534, 1268.923
206.909, 1459.755
208.285, 1357.742
209.660, 1648.877
211.035, 1808.153
212.410, 2077.568
213.784, 2613.115
215.159, 3186.792
216.533, 3830.593
217.907, 4617.519
219.281, 5338.562
220.654, 5870.721
222.027, 6156.995
223.400, 6476.381
224.773, 6374.875
226.146, 6049.466
227.518, 5251.142
228.891, 4369.889
230.263, 3492.694
231.634, 2810.555
233.006, 2282.470
234.377, 1776.442
235.748, 1594.471
237.119, 1291.560
238.490, 1151.708
239.860, 1260.917
241.231, 1167.187
242.601, 1347.522
243.970, 1493.920
245.340, 1713.384
246.709, 1876.912
248.079, 1974.507
249.448, 2159.170
250.816, 1991.900
252.185, 1853.700
253.553, 1479.569
254.921, 1037.510
256.289, 889.521
257.657, 551.605
259.024, 324.762
260.391, 171.993
261.758, 58.297
263.125, 11.325
264.492, 126.890
265.858, 146.626
267.224, 229.721
268.590, 168.195
269.956, 299.994
271.321, 205.353
272.687, 196.331
274.052, 325.990
275.416, 344.410
276.781, 216.637
278.146, 291.672
279.510, 284.565
280.874, 239.338
282.237, 430.000
283.601, 240.617
284.964, 316.154
286.327, 275.644
287.690, 78.087
289.053, 195.453
290.416, 12.781
291.778, 235.958
293.140, 149.768
294.502, 313.644
295.863, 325.581
297.225, 379.573
298.586, 295.620
299.947, 282.716
301.308, 261.861
302.668, 269.528
304.029, 273.288
305.389, 334.567
306.749, 369.887
308.108, 409.229
309.468, 505.579
310.827, 555.921
312.186, 741.244
313.545, 830.545
314.903, 1140.831
316.262, 1365.104
317.620, 1569.370
318.978, 1912.632
320.336, 2167.894
321.693, 2562.158
323.051, 2856.427
324.408, 3194.704
325.765, 3164.990
327.121, 3541.289
328.478, 3405.602
329.834, 3383.931
331.190, 3385.276
332.546, 3265.642
333.902, 2773.028
335.257, 2721.437
336.612, 2379.869
337.967, 2225.324
339.322, 2007.806
340.677, 1702.313
342.031, 1617.850
343.385, 1466.414
344.739, 1393.007
346.093, 1286.598
347.446, 1219.097
348.799, 1154.333
350.153, 1151.387
351.505, 1133.222
352.858, 1184.828
354.210, 1272.208
355.563, 1402.327
356.915, 1584.246
358.267, 2070.055
359.618, 2620.814
360.969, 3164.642
362.321, 3992.534
363.672, 4573.492
365.022, 5241.516
366.373, 5357.604
367.723, 5396.756
369.073, 5031.973
370.423, 4319.249
371.773, 3572.590
373.122, 2636.993
374.471, 2092.457
375.821, 1692.981
377.169, 1193.567
378.518, 1117.253
379.866, 839.998
381.215, 720.804
382.563, 666.382
383.910, 813.593
385.258, 628.575
386.605, 656.615
387.952, 710.716
389.299, 646.874
390.646, 661.098
391.992, 553.378
393.339, 642.716
394.685, 880.146
396.031, 890.634
397.376, 1232.189
398.722, 1214.802
400.067, 1687.479
401.412, 1883.213
402.757, 2249.009
404.101, 2781.904
405.446, 3065.854
406.790, 3119.862
408.134, 3542.939
409.478, 3666.074
410.821, 3875.279
412.165, 3877.568
413.508, 3992.482
414.851, 4081.330
416.193, 4099.802
417.536, 4025.328
418.878, 4061.909
420.220, 3976.545
421.562, 3706.234
422.904, 3379.978
424.245, 3204.761
425.586, 2834.052
426.927, 2531.467
428.268, 2338.908
429.609, 1994.870
430.949, 1708.396
432.289, 1636.507
433.629, 1649.188
434.969, 1362.438
436.309, 1423.286
437.648, 1187.152
438.987, 1437.525
440.326, 1254.646
441.665, 1311.251
443.003, 1245.595
444.342, 1505.883
445.680, 1380.362
447.018, 1539.555
448.355, 1491.235
449.693, 1479.840
451.030, 1497.247
452.367, 1437.257
453.704, 1509.678
455.041, 1386.170
456.377, 1541.768
457.713, 1238.423
459.049, 1317.154
460.385, 1158.977
461.721, 1333.879
463.056, 1275.896
464.391, 1275.987
465.726, 1011.129
467.061, 1174.352
468.395, 1044.674
469.730, 923.074
471.064, 957.558
472.398, 654.107
473.731, 716.711
475.065, 492.396
476.398, 542.187
477.731, 430.046
479.064, 460.969
480.397, 460.954
481.729, 395.992
483.062, 467.100
484.394, 367.258
485.725, 481.480
487.057, 399.782
488.389, 411.149
489.720, 498.575
491.051, 473.074
492.382, 381.645
493.712, 672.265
495.043, 559.961
496.373, 804.706
497.703, 839.504
499.032, 1060.356
500.362, 1171.257
501.691, 1369.204
503.020, 1656.203
504.349, 1840.249
505.678, 2169.344
507.007, 2420.484
508.335, 2873.673
509.663, 3302.908
510.991, 3753.192
512.319, 4323.768
513.646, 4836.910
514.973, 5563.347
516.300, 6124.835
517.627, 6877.378
518.954, 7391.971
520.280, 7760.621
521.607, 8219.323
522.933, 8575.077
524.259, 8747.885
525.584, 8812.748
526.910, 8286.658
528.235, 8323.621
529.560, 7734.637
530.885, 7377.701
532.209, 6740.818
533.534, 6058.982
534.858, 5859.197
536.182, 5159.459
537.506, 4771.688
538.829, 4089.047
540.152, 3965.453
541.476, 3501.998
542.799, 3386.498
544.121, 2878.044
545.444, 2859.636
546.766, 2638.568
548.088, 2406.250
549.410, 2329.244
550.732, 2164.016
552.053, 2063.877
553.375, 1946.452
554.696, 1891.353
556.017, 1756.411
557.337, 1657.713
558.658, 1604.646
559.978, 1450.871
561.298, 1386.766
562.618, 1326.208
563.938, 1133.387
565.257, 1191.785
566.576, 954.810
567.895, 866.358
569.214, 770.674
570.533, 819.213
571.851, 499.611
573.170, 478.818
574.488, 461.284
575.805, 270.784
577.123, 246.317
578.440, 204.883
579.758, 239.479
581.075, 258.107
582.391, 0.768
583.708, 202.458
585.024, 29.193
586.341, 122.999
587.657, 195.878
588.972, 72.849
590.288, 302.896
591.603, 204.051
592.918, 90.375
594.233, 261.695
595.548, 465.786
596.863, 439.352
598.177, 515.521
599.491, 673.612
600.805, 914.872
602.119, 940.727
603.432, 954.434
604.746, 1153.011
606.059, 1439.790
607.372, 1602.062
608.685, 1661.219
609.997, 2008.233
611.309, 2240.179
612.621, 2402.766
613.933, 2790.618
615.245, 3129.503
616.557, 3698.872
617.868, 4383.000
619.179, 5001.181
620.490, 5807.835
621.801, 6733.397
623.111, 8265.776
624.421, 9966.188
625.731, 12591.513
627.041, 15353.019
628.351, 18787.145
629.660, 22322.141
630.970, 26528.053
632.279, 30926.834
633.588, 32882.809
634.896, 34354.562
636.205, 33209.035
637.513, 30871.582
638.821, 26401.289
640.129, 22529.211
641.437, 18782.217
642.744, 15179.242
644.051, 12228.680
645.358, 10068.724
646.665, 8321.747
647.972, 6879.414
649.278, 5765.086
650.584, 4925.220
651.890, 4167.078
653.196, 3816.825
654.502, 3026.491
655.807, 2900.470
657.113, 2270.148
658.418, 2106.710
659.722, 1870.938
661.027, 1680.871
662.331, 1386.664
663.636, 1359.115
664.940, 1093.552
666.244, 1033.974
667.547, 940.381
668.851, 687.772
670.154, 805.149
671.457, 631.509
672.760, 653.852
674.062, 670.177
675.365, 478.484
676.667, 533.773
677.969, 461.044
679.271, 251.296
680.572, 355.527
681.874, 154.740
683.175, 249.930
684.476, 279.099
685.777, 148.247
687.077, 343.372
688.378, 124.476
689.678, 197.556
690.978, 186.611
692.278, 48.645
693.577, 172.347
694.877, 269.557
696.176, 17.435
697.475, 2.713
698.774, 85.110
700.072, 36.907
701.371, 50.678
702.669, 10.579
703.967, 34.705
705.265, 32.188
706.562, 53.449
707.860, 8.058
709.157, 130.366
710.454, 43.110
711.751, 37.443
713.047, 135.949
714.344, 19.689
715.640, 13.624
716.936, 9.096
718.232, 142.859
719.527, 102.262
720.823, 30.348
722.118, 33.600
723.413, 22.390
724.708, 33.657
726.002, 82.770
727.297, 175.027
728.591, 41.213
729.885, 203.477
731.179, 232.129
732.472, 186.745
733.766, 159.326
735.059, 269.868
736.352, 394.374
737.645, 493.843
738.937, 558.023
740.230, 737.615
741.522, 636.968
742.814, 551.281
744.106, 525.555
745.397, 575.788
746.689, 325.981
747.980, 156.132
749.271, 191.240
750.562, 28.694
751.853, 186.284
753.143, 23.780
754.433, 114.067
755.723, 19.134
757.013, 121.421
758.303, 51.852
759.592, 206.388
760.881, 111.112
762.170, 195.979
763.459, 1.031
764.748, 92.169
766.036, 105.439
767.325, 2.852
768.613, 133.354
769.901, 64.989
771.188, 27.733
772.476, 86.559
773.763, 38.520
775.050, 172.589
776.337, 10.841
777.624, 112.812
778.910, 38.595
780.196, 116.113
781.482, 30.784
782.768, 55.565
784.054, 20.532
785.339, 87.546
786.625, 40.504
787.910, 138.668
789.195, 9.000
790.479, 35.578
791.764, 34.079
793.048, 107.500
794.332, 7.859
795.616, 196.128
796.900, 25.341
798.183, 31.530
799.467, 25.487
800.750, 51.421
802.033, 2.722
803.316, 1.920
804.598, 171.742
805.880, 20.652
807.163, 258.845
808.445, 117.288
809.726, 96.669
811.008, 270.985
812.289, 297.248
813.570, 157.458
814.851, 204.611
816.132, 235.710
817.413, 325.752
818.693, 381.744
819.973, 317.685
821.253, 373.574
822.533, 417.413
823.813, 504.200
825.092, 410.937
826.371, 621.623
827.650, 574.258
828.929, 586.841
830.208, 764.373
831.486, 774.856
832.764, 710.290
834.042, 768.672
835.320, 918.004
836.598, 947.285
837.875, 1090.518
839.152, 1179.699
840.429, 1329.831
841.706, 1452.913
842.983, 1387.944
844.259, 1486.927
845.536, 1837.859
846.812, 1799.743
848.088, 2166.662
849.363, 1986.447
850.639, 2436.186
851.914, 2614.783
853.189, 2611.424
854.464, 2860.015
855.739, 3055.560
857.013, 3187.762
858.288, 3153.209
859.562, 3051.343
860.836, 3140.697
862.110, 3222.956
863.383, 2831.495
864.656, 2884.709
865.930, 2814.758
867.203, 2561.880
868.475, 2618.723
869.748, 2281.592
871.020, 2189.784
872.292, 2190.425
873.564, 1901.322
874.836, 1813.993
876.108, 1679.034
877.379, 1541.542
878.650, 1635.276
879.922, 1635.781
881.192, 1495.420
882.463, 1510.241
883.733, 1378.797
885.004, 1406.311
886.274, 1504.782
887.544, 1483.214
888.813, 1626.604
890.083, 1649.954
891.352, 1677.264
892.621, 1753.924
893.890, 1749.764
895.159, 1807.955
896.427, 1799.105
897.695, 1745.217
898.964, 1695.289
900.232, 1303.323
901.499, 1258.232
902.767, 1131.189
904.034, 1052.449
905.301, 896.314
906.568, 768.624
907.835, 700.529
909.102, 702.470
910.368, 574.298
911.634, 560.371
912.900, 563.636
914.166, 373.769
915.432, 497.467
916.697, 432.297
917.962, 338.307
919.227, 424.389
920.492, 301.813
921.757, 351.966
923.021, 247.071
924.285, 307.680
925.550, 280.516
926.813, 325.289
928.077, 258.616
929.341, 119.023
930.604, 175.597
931.867, 195.124
933.130, 131.757
934.393, 165.682
935.655, 294.998
936.918, 65.924
938.180, 216.925
939.442, 115.042
940.703, 76.976
941.965, 124.136
943.226, 68.570
944.488, 97.342
945.749, 67.055
947.009, 119.981
948.270, 171.812
949.530, 176.761
950.791, 92.978
952.051, 114.717
953.311, 56.458
954.570, 56.453
955.830, 115.608
957.089, 45.202
958.348, 9.056
959.607, 67.999
960.866, 29.885
962.124, 6.680
963.383, 26.661
964.641, 132.760
965.899, 100.183
967.156, 182.898
968.414, 89.732
969.671, 26.887
970.928, 60.031
972.185, 65.188
973.442, 191.340
974.699, 88.492
975.955, 147.638
977.211, 205.796
978.468, 169.948
979.723, 263.095
980.979, 272.245
982.234, 161.412
983.490, 446.575
984.745, 47.734
986.000, 367.888
987.254, 389.037
988.509, 231.182
989.763, 419.323
991.017, 486.461
992.271, 406.597
993.525, 418.729
994.779, 480.859
996.032, 551.984
997.285, 652.110
998.538, 657.232
999.791, 605.394
1001.044, 950.550
1002.296, 829.706
1003.548, 963.865
1004.800, 1215.024
1006.052, 1302.191
1007.304, 1439.363
1008.555, 1426.539
1009.807, 1755.715
1011.058, 1761.899
1012.309, 1926.082
1013.559, 2168.283
1014.810, 2184.521
1016.060, 2185.756
1017.310, 2429.016
1018.560, 2211.277
1019.810, 2120.552
1021.060, 2028.830
1022.309, 2213.137
1023.558, 1800.485
1024.807, 1845.835
1026.056, 1716.188
1027.305, 1516.557
1028.553, 1391.932
1029.801, 1336.182
1031.049, 1469.741
1032.297, 1266.164
1033.545, 1321.614
1034.793, 1285.906
1036.040, 1302.522
1037.287, 1351.984
1038.534, 1471.451
1039.781, 1505.918
1041.027, 1569.480
1042.274, 1594.337
1043.520, 1634.348
1044.766, 1650.832
1046.012, 1612.320
1047.257, 1731.812
1048.503, 1803.797
1049.748, 2168.891
1050.993, 2142.397
1052.238, 2479.924
1053.483, 2852.441
1054.727, 2895.303
1055.971, 3162.852
1057.216, 3559.858
1058.459, 3460.438
1059.703, 3544.351
1060.947, 3255.008
1062.190, 3261.529
1063.433, 3055.595
1064.676, 2634.460
1065.919, 2524.350
1067.162, 2264.525
1068.404, 2313.852
1069.646, 1952.968
1070.888, 1994.679
1072.130, 2113.771
1073.372, 1876.335
1074.613, 2112.423
1075.855, 2128.904
1077.096, 2075.038
1078.337, 2195.617
1079.578, 2518.258
1080.818, 2508.723
1082.059, 2721.840
1083.299, 2758.252
1084.539, 3010.863
1085.779, 3206.649
1087.018, 3568.655
1088.258, 3938.367
1089.497, 4154.832
1090.736, 4617.961
1091.975, 5028.715
1093.213, 5630.844
1094.452, 6154.790
1095.690, 7055.791
1096.928, 7709.247
1098.166, 8885.340
1099.404, 10110.507
1100.642, 11644.517
1101.879, 12968.287
1103.116, 15132.239
1104.353, 17087.586
1105.590, 19323.697
1106.827, 21008.812
1108.063, 22936.084
1109.299, 23567.482
1110.536, 24058.869
1111.771, 23594.768
1113.007, 21873.258
1114.243, 20335.621
1115.478, 18207.295
1116.713, 16178.576
1117.948, 14133.720
1119.183, 12286.649
1120.418, 10686.382
1121.652, 9749.714
1122.886, 8674.396
1124.120, 7821.645
1125.354, 7044.227
1126.588, 6246.531
1127.821, 5830.816
1129.055, 5364.900
1130.288, 5158.324
1131.521, 4854.623
1132.753, 4503.229
1133.986, 4061.154
1135.218, 3969.375
1136.450, 3928.614
1137.682, 3353.901
1138.914, 3473.205
1140.146, 3061.500
1141.377, 2858.906
1142.609, 2708.122
1143.840, 2499.201
1145.071, 2487.794
1146.301, 2365.875
1147.532, 2252.062
1148.762, 2129.044
1149.992, 1949.180
1151.222, 1843.215
1152.452, 1882.553
1153.682, 1862.894
1154.911, 1616.125
1156.140, 1757.886
1157.369, 1673.229
1158.598, 1660.395
1159.827, 1707.273
1161.055, 1656.713
1162.284, 1614.479
1163.512, 1444.338
1164.740, 1425.438
1165.967, 1326.594
1167.195, 1122.830
1168.422, 1137.830
1169.650, 1012.097
1170.877, 980.865
1172.103, 813.718
1173.330, 805.822
1174.557, 638.122
1175.783, 723.492
1177.009, 730.223
1178.235, 323.945
1179.461, 621.979
1180.686, 402.374
1181.912, 316.136
1183.137, 455.421
1184.362, 374.831
1185.587, 315.965
1186.811, 257.909
1188.036, 427.558
1189.260, 326.526
1190.484, 311.934
1191.708, 177.551
1192.932, 188.446
1194.155, 133.140
1195.378, 79.829
1196.602, 159.552
1197.825, 146.114
1199.047, 98.926
1200.270, 224.831
1201.492, 29.575
1202.715, 214.091
1203.937, 91.378
1205.159, 114.065
1206.380, 37.498
1207.602, 123.914
1208.823, 30.551
1210.044, 44.822
1211.265, 106.179
1212.486, 161.667
1213.707, 57.998
1214.927, 34.312
1216.147, 98.646
1217.367, 23.070
1218.587, 157.386
1219.807, 18.624
1221.027, 7.158
1222.246, 60.101
1223.465, 166.726
1224.684, 64.339
1225.903, 57.386
1227.121, 103.412
1228.340, 129.580
1229.558, 146.336
1230.776, 6.765
1231.994, 70.104
1233.212, 59.041
1234.429, 97.755
1235.646, 96.208
1236.864, 57.388
1238.081, 120.243
1239.297, 35.861
1240.514, 84.462
1241.730, 75.033
1242.947, 26.411
1244.163, 62.108
1245.378, 49.589
1246.594, 96.052
1247.810, 167.495
1249.025, 14.131
1250.240, 26.182
1251.455, 46.521
1252.670, 97.719
1253.885, 66.929
1255.099, 40.095
1256.313, 45.238
1257.527, 87.669
1258.741, 48.648
1259.955, 30.479
1261.168, 34.697
1262.382, 79.214
1263.595, 113.101
1264.808, 166.397
1266.021, 49.765
1267.233, 71.031
1268.446, 0.112
1269.658, 94.825
1270.870, 45.250
1272.082, 83.389
1273.294, 88.154
1274.505, 4.299
1275.716, 56.967
1276.928, 87.455
1278.139, 33.853
1279.349, 177.217
1280.560, 106.555
1281.770, 102.865
1282.981, 91.138
1284.191, 87.618
1285.401, 89.859
1286.610, 63.130
1287.820, 108.444
1289.029, 141.560
1290.239, 39.641
1291.448, 140.688
1292.656, 114.705
1293.865, 163.693
1295.073, 126.654
1296.282, 21.586
1297.490, 77.484
1298.698, 2.646
1299.906, 17.723
1301.113, 31.157
1302.320, 73.918
1303.528, 115.647
1304.735, 183.346
1305.942, 34.982
1307.148, 205.641
1308.355, 236.235
1309.561, 13.201
1310.767, 112.321
1311.973, 19.813
1313.179, 147.271
1314.384, 47.302
1315.590, 252.075
1316.795, 178.423
1318.000, 116.744
1319.205, 72.036
1320.410, 63.301
1321.614, 218.534
1322.819, 351.741
1324.023, 124.918
1325.227, 17.064
1326.431, 186.166
1327.634, 69.232
1328.838, 53.270
1330.041, 91.267
1331.244, 134.234
1332.447, 311.175
1333.650, 124.087
1334.852, 50.972
1336.055, 220.823
1337.257, 134.651
1338.459, 180.453
1339.661, 35.229
1340.862, 168.900
1342.064, 218.620
1343.265, 142.313
1344.466, 116.967
1345.667, 152.969
1346.868, 206.909
1348.068, 197.503
1349.269, 230.640
1350.469, 234.299
1351.669, 295.515
1352.869, 169.015
1354.069, 280.664
1355.268, 424.822
1356.468, 164.516
1357.667, 244.934
1358.866, 237.068
1360.065, 190.080
1361.263, 278.002
1362.462, 149.832
1363.660, 258.160
1364.858, 342.016
1366.056, 182.408
1367.254, 288.391
1368.451, 368.824
1369.649, 360.805
1370.846, 233.713
1372.043, 245.756
1373.240, 195.156
1374.436, 333.635
1375.633, 260.588
1376.829, 212.678
1378.025, 215.262
1379.221, 116.070
1380.417, 142.535
1381.613, 215.207
1382.808, 195.336
1384.003, 193.412
1385.199, 269.830
1386.393, 181.686
1387.588, 196.961
1388.783, 202.336
1389.977, 191.012
1391.171, 243.260
1392.365, 209.123
1393.559, 239.246
1394.753, 234.596
1395.946, 166.184
1397.140, 276.600
1398.333, 192.738
1399.526, 305.572
1400.719, 132.357
1401.911, 238.611
1403.104, 168.686
1404.296, 147.248
1405.488, 147.652
1406.680, 136.949
1407.872, 33.107
1409.063, 181.686
1410.255, 220.375
1411.446, 8.596
1412.637, 165.510
1413.828, 71.631
1415.018, 320.025
1416.209, 81.775
1417.399, 201.111
1418.589, 5.686
1419.779, 159.088
1420.969, 208.393
1422.159, 139.504
1423.348, 234.922
1424.537, 175.711
1425.726, 167.355
1426.915, 49.508
1428.104, 98.420
1429.293, 83.881
1430.481, 64.592
1431.669, 169.824
1432.857, 123.629
1434.045, 253.898
1435.233, 129.578
1436.420, 317.074
1437.608, 222.629
1438.795, 143.910
1439.982, 121.373
1441.169, 321.525
1442.355, 137.795
1443.542, 50.711
1444.728, 346.930
1445.914, 180.057
1447.100, 334.248
1448.286, 126.457
1449.472, 219.738
1450.657, 97.965
1451.842, 206.678
1453.027, 217.758
1454.212, 228.039
1455.397, 434.262
1456.581, 213.457
1457.766, 242.598
1458.950, 326.943
1460.134, 82.318
1461.318, 330.752
1462.501, 228.229
1463.685, 199.762
1464.868, 383.236
1466.051, 150.596
1467.234, 338.951
1468.417, 72.951
1469.600, 274.646
1470.782, 354.615
1471.965, 386.910
1473.147, 326.490
1474.329, 278.070
1475.510, 134.992
1476.692, 172.254
1477.873, 166.393
1479.055, 286.094
1480.236, 166.824
1481.416, 335.559
1482.597, 223.303
1483.778, 166.430
1484.958, 293.213
1486.138, 264.021
1487.318, 139.855
1488.498, 437.738
1489.678, 100.654
1490.857, 137.613
1492.037, 43.607
1493.216, 249.631
1494.395, 278.680
1495.574, 99.811
1496.752, 312.146
1497.931, 6.666
1499.109, 449.320
1500.287, 86.104
1501.465, 279.021
1502.643, 9.955
1503.820, 41.215
1504.998, 157.551
1506.175, 152.057
1507.352, 73.760
1508.529, 174.623
1509.706, 70.729
1510.882, 85.658
1512.059, 131.961
1513.235, 316.160
1514.411, 158.156
1515.587, 35.303
1516.762, 333.094
1517.938, 2.797
1519.113, 201.219
1520.288, 166.803
1521.463, 52.125
1522.638, 0.000
##END=



