##NAMES=Augelite
##RRUFFID=R050316
##IDEAL CHEMISTRY=Al_2_PO_4_(OH)_3_
##LOCALITY=Rapid Creek, Yukon Territory, Canada
##OWNER=RRUFF
##SOURCE=Eugene Schlepp
##DESCRIPTION=Pale green thick prismatic crystals
##STATUS=The identification of this mineral has been confirmed by X-ray diffraction and chemical analysis
##URL=rruff.info/R050316
##MEASURED CHEMISTRY=Al_2.00_(P_1.00_O_4_)(OH)_3_
106.8170, 0.0000000E+00
107.2991, 1.121330
107.7813, 2.174366
108.2634, 2.786598
108.7455, 2.748653
109.2276, 2.242878
109.7097, 1.063683
110.1918, 7.8277998E-02
110.6740, 0.5543210
111.1561, 0.9974980
111.6382, 0.9999470
112.1203, 0.6939930
112.6024, 1.7227000E-02
113.0845, 1.335091
113.5667, 3.327881
114.0488, 6.005646
114.5309, 9.453110
115.0130, 14.32101
115.4951, 19.28713
115.9772, 23.82871
116.4594, 28.01055
116.9415, 32.61806
117.4236, 38.09120
117.9057, 44.09087
118.3878, 50.22200
118.8699, 55.72112
119.3521, 61.85173
119.8342, 69.41488
120.3163, 78.48795
120.7984, 88.63715
121.2805, 99.96132
121.7626, 112.1560
122.2448, 124.7027
122.7269, 138.4639
123.2090, 151.9202
123.6911, 163.4868
124.1732, 172.8306
124.6553, 180.9712
125.1375, 188.8143
125.6196, 196.2255
126.1017, 202.7811
126.5838, 207.9887
127.0659, 212.2057
127.5480, 216.0389
128.0302, 219.5091
128.5123, 222.8370
128.9944, 226.7038
129.4765, 230.9820
129.9586, 234.4617
130.4407, 236.5438
130.9229, 237.1725
131.4050, 235.9749
131.8871, 232.4887
132.3692, 227.5099
132.8513, 222.6682
133.3334, 217.4070
133.8156, 210.7424
134.2977, 203.1437
134.7798, 195.8410
135.2619, 189.2143
135.7440, 182.9657
136.2261, 177.4597
136.7083, 174.2097
137.1904, 173.3497
137.6725, 174.1406
138.1546, 176.0254
138.6367, 179.1238
139.1188, 182.6030
139.6010, 185.8911
140.0831, 188.9516
140.5652, 194.6802
141.0473, 203.7249
141.5294, 214.5430
142.0115, 225.0388
142.4937, 235.1129
142.9758, 245.3131
143.4579, 255.8092
143.9400, 266.4178
144.4221, 277.8718
144.9042, 290.1147
145.3864, 303.2151
145.8685, 317.0387
146.3506, 332.0408
146.8327, 347.2812
147.3148, 362.6527
147.7969, 378.1090
148.2791, 393.5493
148.7612, 408.3379
149.2433, 423.0923
149.7254, 439.5497
150.2075, 457.7968
150.6896, 477.5727
151.1718, 498.7299
151.6539, 522.4710
152.1360, 545.7202
152.6181, 567.5930
153.1002, 588.8277
153.5823, 611.4928
154.0645, 636.1973
154.5466, 662.2707
155.0287, 689.3285
155.5108, 718.4224
155.9929, 747.6928
156.4750, 776.4229
156.9572, 804.9099
157.4393, 833.7631
157.9214, 865.4312
158.4035, 896.4089
158.8856, 924.6100
159.3677, 949.8442
159.8499, 972.1459
160.3320, 991.8081
160.8141, 1008.669
161.2962, 1021.461
161.7783, 1031.346
162.2604, 1036.134
162.7426, 1034.014
163.2247, 1024.490
163.7068, 1008.026
164.1889, 983.4281
164.6710, 950.7524
165.1531, 914.6256
165.6353, 875.5250
166.1174, 834.6016
166.5995, 793.0926
167.0816, 750.6505
167.5637, 708.3340
168.0458, 666.2454
168.5280, 624.7525
169.0101, 584.5131
169.4922, 546.3462
169.9743, 510.0243
170.4564, 475.4760
170.9385, 442.5074
171.4207, 411.3676
171.9028, 382.1942
172.3849, 355.1366
172.8670, 330.0496
173.3491, 306.7548
173.8312, 285.1608
174.3134, 265.0154
174.7955, 246.5404
175.2776, 229.4887
175.7597, 213.9287
176.2418, 199.8411
176.7239, 186.5210
177.2061, 172.5372
177.6882, 158.3593
178.1703, 145.5292
178.6524, 135.1204
179.1345, 126.2804
179.6166, 117.8916
180.0988, 109.8704
180.5809, 101.9497
181.0630, 93.40210
181.5451, 84.46521
182.0272, 76.46452
182.5093, 70.16870
182.9915, 65.21107
183.4736, 61.03915
183.9557, 57.74994
184.4378, 54.58832
184.9199, 50.28246
185.4020, 45.04974
185.8842, 39.85712
186.3663, 35.23935
186.8484, 31.10730
187.3305, 27.31850
187.8126, 23.81792
188.2947, 20.66267
188.7769, 18.12250
189.2590, 16.16365
189.7411, 14.08083
190.2232, 11.04530
190.7053, 7.334854
191.1874, 4.756989
191.6696, 3.616760
192.1517, 3.297333
192.6338, 2.781372
193.1159, 2.070129
193.5980, 1.147903
194.0801, 0.2013700
194.5623, 1.914398
195.0444, 3.140091
195.5265, 3.744720
196.0086, 3.896576
196.4907, 3.872284
196.9728, 3.652969
197.4550, 3.426392
197.9371, 3.363876
198.4192, 3.471741
198.9013, 3.414368
199.3834, 3.215805
199.8655, 2.786758
200.3477, 1.808701
200.8298, 0.1852870
201.3119, 1.551056
201.7940, 2.780441
202.2761, 3.340393
202.7582, 5.384567
203.2404, 9.561905
203.7225, 14.99826
204.2046, 19.06985
204.6867, 21.35066
205.1688, 23.74944
205.6509, 27.50018
206.1331, 32.80698
206.6152, 38.25478
207.0973, 43.81659
207.5794, 49.39833
208.0615, 54.66084
208.5436, 59.49960
209.0258, 64.31804
209.5079, 69.34731
209.9900, 74.62982
210.4721, 80.01302
210.9542, 85.26637
211.4363, 90.61655
211.9185, 97.07259
212.4006, 105.0528
212.8827, 113.2911
213.3648, 120.5884
213.8469, 126.3723
214.3290, 133.5596
214.8112, 142.6477
215.2933, 153.1393
215.7754, 163.6323
216.2575, 173.8486
216.7396, 184.9835
217.2217, 197.6046
217.7038, 211.8584
218.1860, 226.3555
218.6681, 240.8914
219.1502, 255.7283
219.6323, 271.5015
220.1144, 288.5911
220.5965, 305.7126
221.0787, 321.8005
221.5608, 336.0364
222.0429, 351.4203
222.5250, 368.7652
223.0071, 387.3362
223.4892, 404.1529
223.9714, 420.7062
224.4535, 433.3728
224.9356, 441.1131
225.4177, 446.2192
225.8998, 440.4570
226.3819, 421.3644
226.8641, 391.2646
227.3462, 358.2308
227.8283, 320.1105
228.3104, 282.3535
228.7925, 247.8978
229.2746, 215.6179
229.7568, 188.4416
230.2389, 166.8686
230.7210, 150.0445
231.2031, 136.2402
231.6852, 126.2054
232.1673, 118.1374
232.6495, 111.3032
233.1316, 105.6842
233.6137, 101.4187
234.0958, 98.89799
234.5779, 97.70364
235.0600, 96.68700
235.5422, 95.71846
236.0243, 95.09702
236.5064, 94.97289
236.9885, 95.48592
237.4706, 96.14165
237.9527, 96.63770
238.4349, 97.35429
238.9170, 99.27895
239.3991, 102.7414
239.8812, 106.9181
240.3633, 111.5230
240.8454, 116.6675
241.3276, 121.8980
241.8097, 126.7791
242.2918, 131.8429
242.7739, 138.3220
243.2560, 146.9677
243.7381, 155.9044
244.2203, 164.1828
244.7024, 170.8098
245.1845, 179.6057
245.6666, 191.1888
246.1487, 204.5986
246.6308, 218.1627
247.1130, 231.2197
247.5951, 245.6310
248.0772, 262.4951
248.5593, 283.3717
249.0414, 301.3815
249.5235, 316.5170
250.0057, 328.7690
250.4878, 338.8417
250.9699, 348.8427
251.4520, 352.8972
251.9341, 349.0018
252.4162, 336.6138
252.8984, 318.5630
253.3805, 292.8471
253.8626, 262.7946
254.3447, 233.6398
254.8268, 204.1960
255.3089, 177.1812
255.7911, 153.8389
256.2732, 134.3257
256.7553, 116.0158
257.2374, 98.47771
257.7195, 82.52111
258.2017, 69.18613
258.6838, 58.81836
259.1659, 50.02620
259.6480, 42.51497
260.1301, 36.36793
260.6122, 31.00247
261.0944, 26.50165
261.5765, 22.65964
262.0586, 19.33422
262.5407, 16.75016
263.0228, 14.05475
263.5049, 10.90355
263.9871, 7.321648
264.4692, 4.747902
264.9513, 3.397903
265.4334, 2.667923
265.9155, 2.079437
266.3976, 1.757492
266.8798, 1.182434
267.3619, 0.1539760
267.8440, 1.247253
268.3261, 2.247566
268.8082, 2.756569
269.2903, 3.054504
269.7725, 3.361488
270.2546, 3.701614
270.7367, 3.919350
271.2188, 4.006744
271.7009, 3.950623
272.1830, 3.546455
272.6652, 2.551308
273.1473, 1.880486
273.6294, 2.551147
274.1115, 4.988533
274.5936, 5.972603
275.0757, 4.737900
275.5579, 2.176826
276.0400, 0.9259490
276.5221, 1.207886
277.0042, 1.901161
277.4863, 2.449776
277.9684, 2.859093
278.4506, 3.032158
278.9327, 2.900230
279.4148, 2.606789
279.8969, 2.478645
280.3790, 2.545067
280.8611, 2.565559
281.3433, 2.323784
281.8254, 1.823074
282.3075, 1.686531
282.7896, 2.048309
283.2717, 2.517563
283.7538, 2.462585
284.2360, 1.870300
284.7181, 1.088127
285.2002, 9.7511001E-02
285.6823, 1.038139
286.1644, 1.584953
286.6465, 1.387642
287.1287, 1.147591
287.6108, 1.856049
288.0929, 3.466393
288.5750, 5.151596
289.0571, 6.711205
289.5392, 8.109329
290.0214, 8.933189
290.5035, 9.074837
290.9856, 9.488380
291.4677, 11.36704
291.9498, 14.52287
292.4319, 17.71591
292.9141, 20.58868
293.3962, 23.27366
293.8783, 26.25183
294.3604, 29.51991
294.8425, 32.42255
295.3246, 34.44991
295.8068, 35.68591
296.2889, 36.46021
296.7710, 37.13907
297.2531, 37.07249
297.7352, 34.81896
298.2173, 30.56979
298.6995, 25.81836
299.1816, 21.17419
299.6637, 16.86134
300.1458, 13.49804
300.6279, 11.24542
301.1100, 9.777992
301.5922, 8.776276
302.0743, 8.245422
302.5564, 8.209831
303.0385, 9.023193
303.5206, 10.22581
304.0027, 11.13917
304.4849, 11.60763
304.9670, 12.02846
305.4491, 12.78208
305.9312, 13.77605
306.4133, 14.78864
306.8954, 15.65263
307.3776, 16.51614
307.8597, 17.49137
308.3418, 18.59383
308.8239, 19.85011
309.3060, 21.52505
309.7881, 23.34686
310.2703, 24.82949
310.7524, 25.02729
311.2345, 25.38796
311.7166, 27.19442
312.1987, 30.41207
312.6808, 33.57774
313.1630, 35.82408
313.6451, 37.62796
314.1272, 39.51782
314.6093, 41.36784
315.0914, 43.59217
315.5735, 46.61783
316.0557, 50.28616
316.5378, 53.76131
317.0199, 56.36298
317.5020, 58.81006
317.9841, 61.69715
318.4662, 65.41789
318.9484, 69.10861
319.4305, 72.47488
319.9126, 75.59393
320.3947, 78.66805
320.8768, 82.00218
321.3589, 85.12121
321.8411, 87.70905
322.3232, 89.36713
322.8053, 91.30880
323.2874, 94.02444
323.7695, 97.11430
324.2516, 99.94370
324.7338, 102.4994
325.2159, 104.6360
325.6980, 106.2931
326.1801, 107.4442
326.6622, 108.4212
327.1443, 109.1503
327.6265, 109.7419
328.1086, 110.3245
328.5907, 111.8070
329.0728, 112.3148
329.5549, 111.2944
330.0370, 108.7262
330.5192, 106.3192
331.0013, 104.0430
331.4834, 101.7749
331.9655, 99.40108
332.4476, 97.36088
332.9297, 94.81933
333.4119, 91.42501
333.8940, 87.47030
334.3761, 84.56684
334.8582, 83.38169
335.3403, 82.20803
335.8224, 80.09938
336.3046, 76.59449
336.7867, 73.60695
337.2688, 71.29486
337.7509, 69.41522
338.2330, 67.39855
338.7151, 65.12981
339.1973, 63.15575
339.6794, 61.84514
340.1615, 61.23410
340.6436, 59.95630
341.1257, 57.73594
341.6078, 55.48349
342.0899, 54.40485
342.5721, 54.57791
343.0542, 55.18648
343.5363, 56.11097
344.0184, 57.22981
344.5005, 58.08572
344.9826, 58.61476
345.4648, 59.30751
345.9469, 60.70598
346.4290, 62.72795
346.9111, 64.57951
347.3932, 65.99869
347.8753, 67.30339
348.3575, 69.16017
348.8396, 71.51717
349.3217, 73.91562
349.8038, 76.00549
350.2859, 77.85838
350.7680, 79.62923
351.2502, 81.30615
351.7323, 83.00545
352.2144, 84.89494
352.6965, 86.93468
353.1786, 88.94127
353.6607, 90.60802
354.1429, 92.29907
354.6250, 94.47891
355.1071, 97.17577
355.5892, 100.1756
356.0713, 103.1018
356.5534, 106.2739
357.0356, 110.1608
357.5177, 114.8737
357.9998, 120.4383
358.4819, 126.8785
358.9640, 134.1520
359.4461, 141.8799
359.9283, 149.3132
360.4104, 157.4274
360.8925, 167.1051
361.3746, 178.9851
361.8567, 191.6776
362.3388, 204.6761
362.8210, 218.0091
363.3031, 232.0503
363.7852, 248.1666
364.2673, 263.9936
364.7494, 278.6305
365.2315, 292.1631
365.7137, 303.8712
366.1958, 314.5976
366.6779, 322.9593
367.1600, 327.4251
367.6421, 329.1518
368.1242, 325.6013
368.6064, 315.6428
369.0885, 299.0018
369.5706, 279.4142
370.0527, 254.1507
370.5348, 227.9585
371.0169, 203.5182
371.4991, 181.3479
371.9812, 160.4478
372.4633, 140.4449
372.9454, 121.6098
373.4275, 105.4138
373.9096, 92.47433
374.3918, 80.79260
374.8739, 69.66191
375.3560, 58.78543
375.8381, 49.22099
376.3202, 41.14624
376.8023, 34.27911
377.2845, 28.30571
377.7666, 23.31540
378.2487, 18.98170
378.7308, 15.38855
379.2129, 12.42183
379.6950, 9.591827
380.1772, 6.826080
380.6593, 4.450348
381.1414, 2.928574
381.6235, 2.175064
382.1056, 1.253571
382.5877, 0.1031340
383.0699, 1.607330
383.5520, 2.764389
384.0341, 3.588638
384.5162, 4.142212
384.9983, 4.316055
385.4804, 4.271332
385.9626, 4.406708
386.4447, 4.805725
386.9268, 5.147903
387.4089, 5.154022
387.8910, 4.855530
388.3731, 4.325775
388.8553, 3.501480
389.3374, 2.521301
389.8195, 1.603546
390.3016, 0.7436220
390.7837, 0.4055330
391.2658, 2.309006
391.7480, 4.492630
392.2301, 6.425735
392.7122, 7.524536
393.1943, 8.951660
393.6764, 11.54893
394.1585, 14.95222
394.6407, 18.06540
395.1228, 19.75957
395.6049, 21.68469
396.0870, 24.92563
396.5691, 30.19418
397.0512, 34.78485
397.5334, 37.09770
398.0155, 38.82063
398.4976, 42.02676
398.9797, 48.16911
399.4618, 54.49863
399.9439, 60.27914
400.4261, 65.51050
400.9082, 71.83214
401.3903, 79.96960
401.8724, 88.50012
402.3545, 96.51486
402.8366, 103.4933
403.3188, 110.9011
403.8009, 118.8622
404.2830, 127.2764
404.7651, 136.1888
405.2472, 146.0316
405.7293, 154.8972
406.2115, 162.0165
406.6936, 167.3147
407.1757, 171.5009
407.6578, 174.5794
408.1399, 176.5592
408.6220, 177.4301
409.1042, 177.1996
409.5863, 176.0923
410.0684, 174.0420
410.5505, 171.2504
411.0326, 167.8062
411.5147, 163.7254
411.9969, 159.9250
412.4790, 157.2016
412.9611, 155.1950
413.4432, 152.9136
413.9253, 150.0097
414.4074, 147.5905
414.8896, 146.9376
415.3717, 147.6813
415.8538, 148.9762
416.3359, 150.8579
416.8180, 152.8210
417.3001, 154.3602
417.7823, 155.4926
418.2644, 156.4889
418.7465, 157.9019
419.2286, 159.1026
419.7107, 159.4578
420.1928, 158.5673
420.6750, 157.1300
421.1571, 155.3143
421.6392, 153.1625
422.1213, 150.7656
422.6034, 148.4248
423.0855, 145.6349
423.5677, 142.1548
424.0498, 137.8548
424.5319, 133.1974
425.0140, 127.3805
425.4961, 121.5467
425.9782, 116.8560
426.4604, 114.0201
426.9425, 111.3562
427.4246, 108.5902
427.9067, 105.7844
428.3888, 103.5284
428.8709, 101.7745
429.3531, 100.5642
429.8352, 99.97438
430.3173, 100.2163
430.7994, 100.1967
431.2815, 99.68503
431.7636, 99.22238
432.2458, 99.76105
432.7279, 101.3342
433.2100, 103.2421
433.6921, 105.4334
434.1742, 107.7577
434.6563, 109.5039
435.1385, 110.6753
435.6206, 111.7406
436.1027, 113.0880
436.5848, 114.6358
437.0669, 116.2349
437.5490, 117.9763
438.0312, 119.5883
438.5133, 120.4772
438.9954, 120.9493
439.4775, 121.8505
439.9596, 124.2799
440.4417, 126.9094
440.9239, 128.3690
441.4060, 128.5784
441.8881, 128.6877
442.3702, 129.3468
442.8523, 130.2553
443.3344, 131.1409
443.8166, 132.4860
444.2987, 133.0973
444.7808, 132.2174
445.2629, 130.2944
445.7450, 128.5963
446.2271, 127.6259
446.7093, 126.7723
447.1914, 125.6914
447.6735, 124.0504
448.1556, 123.2433
448.6377, 123.7314
449.1198, 124.6924
449.6020, 125.3755
450.0841, 125.8499
450.5662, 125.8690
451.0483, 125.3438
451.5304, 124.3342
452.0125, 123.0153
452.4947, 121.2082
452.9768, 119.6146
453.4589, 118.7201
453.9410, 118.5388
454.4231, 118.2545
454.9052, 117.9050
455.3874, 117.2482
455.8695, 115.9391
456.3516, 114.0065
456.8337, 111.7144
457.3158, 108.9912
457.7979, 106.0600
458.2801, 103.2216
458.7622, 100.5011
459.2443, 97.97696
459.7264, 95.81412
460.2085, 93.86554
460.6906, 92.06985
461.1728, 90.51743
461.6549, 88.67908
462.1370, 86.09462
462.6191, 83.02765
463.1012, 79.91356
463.5833, 76.56136
464.0655, 73.51863
464.5476, 71.18053
465.0297, 69.48352
465.5118, 67.78111
465.9939, 66.00233
466.4760, 64.12857
466.9582, 62.19951
467.4403, 60.54630
467.9224, 58.18422
468.4045, 54.67006
468.8866, 50.64075
469.3687, 46.90450
469.8509, 43.45651
470.3330, 40.44865
470.8151, 38.07477
471.2972, 36.25096
471.7793, 34.01924
472.2614, 31.19279
472.7436, 28.41632
473.2257, 26.24985
473.7078, 24.69997
474.1899, 22.82120
474.6720, 20.49142
475.1541, 17.92848
475.6363, 15.26418
476.1184, 12.56691
476.6005, 10.29811
477.0826, 8.902084
477.5647, 7.892349
478.0468, 6.312103
478.5290, 4.237503
479.0111, 2.360687
479.4932, 1.363495
479.9753, 0.7542880
480.4574, 0.1358490
480.9395, 1.605621
481.4217, 2.765366
481.9038, 2.801773
482.3859, 2.228302
482.8680, 1.796463
483.3501, 1.644684
483.8322, 1.784180
484.3144, 2.301025
484.7965, 3.171814
485.2786, 4.094818
485.7607, 5.456238
486.2428, 6.510925
486.7249, 6.826889
487.2071, 5.832657
487.6892, 5.353943
488.1713, 5.734558
488.6534, 6.388000
489.1355, 6.433136
489.6176, 5.676697
490.0998, 4.844833
490.5819, 4.047867
491.0640, 3.299530
491.5461, 2.755753
492.0282, 2.441467
492.5103, 2.092926
492.9925, 1.549042
493.4746, 0.8130340
493.9567, 6.3156001E-02
494.4388, 1.111465
494.9209, 2.181900
495.4030, 2.878052
495.8852, 3.455841
496.3673, 4.617218
496.8494, 7.011353
497.3315, 9.707169
497.8136, 11.88647
498.2957, 13.62347
498.7779, 15.13213
499.2600, 15.87637
499.7421, 16.90686
500.2242, 19.06403
500.7063, 22.68353
501.1884, 26.47694
501.6706, 30.00133
502.1527, 33.51750
502.6348, 37.22803
503.1169, 41.74063
503.5990, 45.73238
504.0811, 48.37318
504.5633, 50.28499
505.0454, 53.99390
505.5275, 60.27571
506.0096, 66.90829
506.4917, 72.94350
506.9738, 78.35274
507.4560, 84.21066
507.9381, 90.62833
508.4202, 97.19122
508.9023, 103.3994
509.3844, 109.2848
509.8665, 115.3174
510.3487, 121.3999
510.8308, 128.0081
511.3129, 136.4807
511.7950, 146.4053
512.2772, 155.8509
512.7593, 162.9983
513.2414, 169.5181
513.7235, 177.7183
514.2056, 187.5811
514.6877, 197.5838
515.1699, 206.8170
515.6520, 215.7082
516.1341, 224.6666
516.6162, 233.9420
517.0983, 242.9988
517.5804, 251.6068
518.0626, 259.9546
518.5447, 268.3528
519.0268, 277.5752
519.5089, 286.0851
519.9910, 293.4293
520.4731, 299.6778
520.9553, 305.4736
521.4374, 310.8250
521.9195, 315.6234
522.4016, 319.8488
522.8837, 323.5121
523.3658, 326.4324
523.8480, 328.6889
524.3301, 330.0559
524.8122, 330.2682
525.2943, 329.3365
525.7764, 327.1420
526.2585, 323.3628
526.7407, 318.6422
527.2228, 314.0028
527.7049, 309.3848
528.1870, 304.5883
528.6691, 299.8969
529.1512, 294.6820
529.6334, 287.9581
530.1155, 279.5562
530.5976, 270.9733
531.0797, 262.8672
531.5618, 255.0058
532.0439, 247.2218
532.5261, 238.8553
533.0082, 231.4201
533.4903, 225.4665
533.9724, 220.5134
534.4545, 215.4368
534.9366, 209.9481
535.4188, 204.6751
535.9009, 200.0023
536.3830, 195.8908
536.8651, 190.6164
537.3472, 183.1841
537.8293, 176.5661
538.3115, 173.4233
538.7936, 174.1010
539.2757, 172.7686
539.7578, 168.8594
540.2399, 164.0204
540.7220, 159.9182
541.2042, 156.6762
541.6863, 154.5987
542.1684, 154.2210
542.6505, 154.4384
543.1326, 153.4719
543.6147, 151.6393
544.0969, 150.2716
544.5790, 150.5758
545.0611, 151.5354
545.5432, 152.2597
546.0253, 152.6098
546.5074, 152.8930
546.9896, 152.9560
547.4717, 153.2667
547.9538, 154.1707
548.4359, 155.8855
548.9180, 157.9882
549.4001, 160.7938
549.8823, 163.8483
550.3644, 166.3540
550.8465, 167.9722
551.3286, 169.7881
551.8107, 172.1625
552.2928, 175.0068
552.7750, 177.3428
553.2571, 178.9506
553.7392, 181.0458
554.2213, 185.0076
554.7034, 190.3354
555.1855, 194.1555
555.6677, 196.2055
556.1498, 197.6861
556.6319, 199.8789
557.1140, 202.4217
557.5961, 204.4735
558.0782, 205.4095
558.5604, 206.4344
559.0425, 208.9692
559.5246, 212.3224
560.0067, 214.9402
560.4888, 216.2112
560.9709, 216.5572
561.4531, 215.9007
561.9352, 214.2592
562.4173, 212.6407
562.8994, 210.9586
563.3815, 209.5240
563.8636, 208.5930
564.3458, 208.6913
564.8279, 207.9054
565.3100, 206.1538
565.7921, 203.6173
566.2742, 200.4812
566.7563, 196.7033
567.2385, 192.5684
567.7206, 188.0328
568.2027, 183.3370
568.6848, 179.1858
569.1669, 175.4922
569.6490, 172.0459
570.1312, 169.1071
570.6133, 166.1215
571.0954, 162.2465
571.5775, 157.4519
572.0596, 152.4129
572.5417, 147.3502
573.0239, 142.2851
573.5060, 137.3191
573.9881, 132.4359
574.4702, 127.6118
574.9523, 122.8983
575.4344, 118.1536
575.9166, 113.2573
576.3987, 107.7902
576.8808, 102.6089
577.3629, 97.84076
577.8450, 93.38930
578.3271, 88.82654
578.8093, 84.05026
579.2914, 79.50639
579.7735, 75.55164
580.2556, 72.10889
580.7377, 68.04356
581.2198, 63.31639
581.7020, 58.55649
582.1841, 54.53607
582.6662, 50.87250
583.1483, 46.35715
583.6304, 40.72433
584.1125, 35.23495
584.5947, 31.27246
585.0768, 28.11909
585.5589, 24.71074
586.0410, 19.99144
586.5231, 15.73636
587.0052, 12.98471
587.4873, 11.30182
587.9694, 9.567780
588.4515, 7.914246
588.9337, 5.782562
589.4158, 2.519714
589.8979, 1.892044
590.3800, 4.237717
590.8621, 3.623688
591.3442, 2.531128
591.8264, 2.614655
592.3085, 3.982407
592.7906, 4.863617
593.2727, 5.169067
593.7548, 5.132874
594.2369, 4.941696
594.7191, 4.633224
595.2012, 4.361053
595.6833, 4.211868
596.1654, 4.018845
596.6475, 3.888901
597.1296, 3.574463
597.6118, 2.507217
598.0939, 0.4834750
598.5760, 3.488510
599.0581, 5.164413
599.5402, 5.666977
600.0223, 6.839630
600.5045, 9.865540
600.9866, 12.98459
601.4687, 15.27747
601.9508, 16.35164
602.4329, 18.38635
602.9150, 21.77225
603.3972, 25.56355
603.8793, 28.72600
604.3614, 31.12549
604.8435, 34.55423
605.3256, 39.37891
605.8077, 44.85429
606.2899, 49.82867
606.7720, 54.39635
607.2541, 58.77995
607.7362, 62.75597
608.2183, 66.91031
608.7004, 71.87840
609.1826, 77.58989
609.6647, 83.63489
610.1468, 89.85059
610.6289, 96.40880
611.1110, 103.3464
611.5931, 110.7519
612.0753, 118.4502
612.5574, 126.6627
613.0395, 135.0574
613.5216, 143.2980
614.0037, 150.8517
614.4858, 159.8314
614.9680, 170.3330
615.4501, 182.1248
615.9322, 195.1578
616.4143, 209.4286
616.8964, 223.8181
617.3785, 237.7842
617.8607, 252.1800
618.3428, 268.5752
618.8249, 286.7345
619.3070, 305.6835
619.7891, 324.8208
620.2712, 344.6336
620.7534, 365.3211
621.2355, 387.1306
621.7176, 410.3622
622.1997, 436.0545
622.6818, 462.5324
623.1639, 488.6127
623.6461, 513.7689
624.1282, 541.6678
624.6103, 573.6794
625.0924, 607.7821
625.5745, 642.6431
626.0566, 678.5422
626.5388, 715.0131
627.0209, 751.4437
627.5030, 789.0309
627.9851, 829.7208
628.4672, 872.9257
628.9493, 916.2963
629.4315, 959.3851
629.9136, 1002.379
630.3957, 1045.745
630.8778, 1089.007
631.3599, 1130.048
631.8420, 1169.495
632.3242, 1204.911
632.8063, 1235.099
633.2884, 1259.700
633.7705, 1278.431
634.2526, 1294.857
634.7347, 1302.293
635.2169, 1297.634
635.6990, 1280.533
636.1811, 1252.347
636.6632, 1210.311
637.1453, 1160.409
637.6274, 1107.090
638.1096, 1049.964
638.5917, 988.3205
639.0738, 920.4327
639.5559, 851.2202
640.0380, 784.8557
640.5201, 721.2402
641.0023, 661.2220
641.4844, 603.6116
641.9665, 550.9721
642.4486, 505.2616
642.9307, 465.1197
643.4128, 428.3626
643.8950, 393.8209
644.3771, 362.2074
644.8592, 333.6373
645.3413, 308.2441
645.8234, 285.0109
646.3055, 264.8131
646.7877, 246.1931
647.2698, 229.0197
647.7519, 213.1295
648.2340, 198.5101
648.7161, 185.3869
649.1982, 173.3589
649.6804, 162.4384
650.1625, 152.5051
650.6446, 142.6474
651.1267, 132.7992
651.6088, 123.6755
652.0909, 116.5593
652.5731, 110.7079
653.0552, 104.6638
653.5373, 97.90722
654.0194, 91.42831
654.5015, 85.45965
654.9836, 80.14687
655.4658, 75.66898
655.9479, 73.25550
656.4300, 70.32619
656.9121, 65.82940
657.3942, 60.44396
657.8763, 56.07510
658.3585, 53.04391
658.8406, 50.18931
659.3227, 47.06348
659.8048, 43.80207
660.2869, 41.43738
660.7690, 39.99846
661.2512, 38.57697
661.7333, 36.50331
662.2154, 34.08478
662.6975, 31.91502
663.1796, 30.01190
663.6617, 28.21938
664.1439, 26.47903
664.6260, 24.77327
665.1081, 23.02827
665.5902, 21.15475
666.0723, 19.60477
666.5544, 18.80862
667.0366, 18.21233
667.5187, 17.28220
668.0008, 15.74500
668.4829, 14.49640
668.9650, 13.80142
669.4471, 13.18752
669.9293, 11.60252
670.4114, 9.026947
670.8935, 7.274300
671.3756, 6.995033
671.8577, 7.517868
672.3398, 8.077568
672.8220, 8.543221
673.3041, 8.475433
673.7862, 7.020363
674.2683, 5.490173
674.7504, 5.028214
675.2325, 5.405075
675.7147, 5.442719
676.1968, 4.400215
676.6789, 3.275856
677.1610, 2.470627
677.6431, 1.974808
678.1252, 1.766663
678.6074, 1.965736
679.0895, 2.239410
679.5716, 2.388977
680.0537, 2.412422
680.5358, 2.533791
681.0179, 2.813492
681.5001, 2.783569
681.9822, 1.551125
682.4643, 0.2535170
682.9464, 1.181084
683.4285, 0.7805710
683.9106, 0.3578190
684.3928, 1.237198
684.8749, 2.473808
685.3570, 2.943321
685.8391, 1.461128
686.3212, 0.3104550
686.8033, 0.1361470
687.2855, 5.5801000E-02
687.7676, 0.3867340
688.2497, 1.507080
688.7318, 2.200539
689.2139, 2.182289
689.6960, 1.660622
690.1782, 1.025871
690.6603, 0.2984470
691.1424, 0.1010890
691.6245, 0.2051090
692.1066, 0.8391420
692.5887, 1.301872
693.0709, 1.591484
693.5530, 1.693611
694.0351, 1.398102
694.5172, 1.071701
694.9993, 1.050804
695.4814, 1.366402
695.9636, 1.307785
696.4457, 0.2598570
696.9278, 0.6851430
697.4099, 0.9865040
697.8920, 0.5323030
698.3741, 0.1358030
698.8563, 0.2500610
699.3384, 0.4417720
699.8205, 0.1252820
700.3026, 0.5657040
700.7847, 1.021698
701.2668, 1.184380
701.7490, 1.099625
702.2311, 0.4501190
702.7132, 0.2949140
703.1953, 0.4540250
703.6774, 0.3394320
704.1595, 1.319099
704.6417, 2.444504
705.1238, 3.508049
705.6059, 4.177063
706.0880, 3.997055
706.5701, 4.198280
707.0522, 5.143250
707.5344, 6.356926
708.0165, 6.696243
708.4986, 6.085091
708.9807, 5.789566
709.4628, 6.277710
709.9449, 7.207268
710.4271, 8.014977
710.9092, 8.690727
711.3913, 9.338669
711.8734, 10.02011
712.3555, 10.73196
712.8376, 11.58772
713.3198, 12.54443
713.8019, 13.27455
714.2840, 13.30938
714.7661, 13.37557
715.2482, 13.77538
715.7303, 14.52393
716.2125, 15.33433
716.6946, 16.28605
717.1767, 17.09983
717.6588, 17.58632
718.1409, 17.77610
718.6230, 17.87478
719.1052, 17.88549
719.5873, 17.88178
720.0694, 17.47372
720.5515, 17.16398
721.0336, 17.94421
721.5157, 20.13088
721.9979, 21.90276
722.4800, 22.16756
722.9621, 21.77959
723.4442, 21.41468
723.9263, 21.06382
724.4084, 20.96783
724.8906, 21.17319
725.3727, 21.57751
725.8548, 22.17081
726.3369, 22.99237
726.8190, 23.46555
727.3011, 23.44576
727.7833, 23.32243
728.2654, 23.46724
728.7475, 23.88029
729.2296, 24.67441
729.7117, 26.12350
730.1938, 27.50516
730.6760, 28.22663
731.1581, 28.55995
731.6402, 28.94939
732.1223, 29.29429
732.6044, 29.97878
733.0865, 31.15227
733.5687, 32.64527
734.0508, 34.13309
734.5329, 35.64255
735.0150, 37.06303
735.4971, 38.39526
735.9792, 39.60583
736.4614, 40.50227
736.9435, 41.16496
737.4256, 42.00472
737.9077, 43.46410
738.3898, 45.01404
738.8719, 46.32006
739.3541, 47.30788
739.8362, 47.78387
740.3183, 47.29732
740.8004, 46.57124
741.2825, 45.93613
741.7646, 45.36333
742.2468, 44.70042
742.7289, 44.14195
743.2110, 42.98768
743.6931, 40.73464
744.1752, 37.65030
744.6573, 35.39638
745.1395, 33.94063
745.6216, 32.62812
746.1037, 31.11402
746.5858, 29.38435
747.0679, 27.34549
747.5500, 25.04050
748.0322, 22.95506
748.5143, 21.43625
748.9964, 20.09502
749.4785, 18.59486
749.9606, 16.78284
750.4427, 15.43893
750.9249, 14.87498
751.4070, 14.26388
751.8891, 12.82262
752.3712, 10.57101
752.8533, 9.360664
753.3354, 9.297997
753.8176, 9.451309
754.2997, 9.009758
754.7818, 8.239166
755.2639, 7.439919
755.7460, 6.588081
756.2281, 5.990570
756.7103, 6.020531
757.1924, 6.266983
757.6745, 6.423851
758.1566, 6.632339
758.6387, 6.385895
759.1208, 5.443565
759.6030, 4.292091
760.0851, 3.337311
760.5672, 2.554054
761.0493, 2.249207
761.5314, 2.621864
762.0135, 3.056358
762.4957, 2.625633
762.9778, 1.751083
763.4599, 1.271011
763.9420, 1.552757
764.4241, 1.830467
764.9063, 1.617401
765.3884, 1.202614
765.8705, 0.9326170
766.3526, 1.222397
766.8347, 1.061172
767.3168, 0.1160580
767.7990, 1.011520
768.2811, 1.349602
768.7632, 0.8579480
769.2453, 0.4078450
769.7274, 0.1387860
770.2095, 7.9360999E-02
770.6917, 0.5241470
771.1738, 1.192085
771.6559, 1.449852
772.1380, 0.8188320
772.6201, 8.0871999E-02
773.1022, 0.4565660
773.5844, 0.7964100
774.0665, 0.9300000
774.5486, 0.6907880
775.0307, 0.5086670
775.5128, 0.5413890
775.9949, 0.5907520
776.4771, 3.6139999E-02
776.9592, 1.163521
777.4413, 1.784286
777.9234, 1.245224
778.4055, 0.3132020
778.8876, 0.2513500
779.3698, 0.7552950
779.8519, 1.043251
780.3340, 0.5319440
780.8161, 3.7726998E-02
781.2982, 0.3689120
781.7803, 0.4985580
782.2625, 0.5288700
782.7446, 0.5000460
783.2267, 0.3182910
783.7088, 0.1023940
784.1909, 0.6537090
784.6730, 1.083237
785.1552, 1.392410
785.6373, 1.410408
786.1194, 0.8943410
786.6015, 0.2491530
787.0836, 0.1397780
787.5657, 0.4031450
788.0479, 0.5905300
788.5300, 0.4302750
789.0121, 0.2147980
789.4942, 8.3038002E-02
789.9763, 3.8379999E-03
790.4584, 0.1722950
790.9406, 0.5916900
791.4227, 0.8043820
791.9048, 0.5988850
792.3869, 0.1460490
792.8690, 1.0887000E-02
793.3511, 0.1168820
793.8333, 0.3712620
794.3154, 0.9255370
794.7975, 1.357452
795.2796, 0.8558650
795.7617, 0.2534790
796.2438, 0.9141690
796.7260, 6.0203999E-02
797.2081, 0.6541440
797.6902, 0.3620680
798.1723, 0.6287080
798.6544, 1.072289
799.1365, 0.7563100
799.6187, 0.4602890
800.1008, 0.4930570
800.5829, 0.6889110
801.0650, 0.4116360
801.5471, 0.2369160
802.0292, 0.6100850
802.5114, 0.1431270
802.9935, 0.9347460
803.4756, 0.4799350
803.9577, 0.8231810
804.4398, 1.627266
804.9219, 1.048355
805.4041, 0.4424670
805.8862, 0.1889720
806.3683, 0.2234730
806.8504, 0.2677540
807.3325, 0.2962270
807.8146, 0.4766010
808.2968, 0.9353710
808.7789, 1.535744
809.2610, 1.993683
809.7431, 2.324623
810.2252, 2.591064
810.7073, 2.886307
811.1895, 3.071655
811.6716, 2.857811
812.1537, 2.426315
812.6358, 2.452988
813.1179, 3.482460
813.6000, 4.364540
814.0822, 4.781883
814.5643, 4.892197
815.0464, 5.238777
815.5285, 5.821487
816.0106, 6.503601
816.4927, 7.326645
816.9749, 8.108124
817.4570, 8.528633
817.9391, 8.673241
818.4212, 8.801468
818.9033, 8.855904
819.3854, 9.100845
819.8676, 9.735207
820.3497, 10.65076
820.8318, 11.50158
821.3139, 12.37783
821.7960, 12.91350
822.2781, 12.83395
822.7603, 12.52311
823.2424, 13.06129
823.7245, 14.31907
824.2066, 15.43887
824.6887, 16.03225
825.1708, 16.38402
825.6530, 16.47242
826.1351, 16.55637
826.6172, 17.14014
827.0993, 18.70711
827.5814, 20.37543
828.0635, 22.20272
828.5457, 23.89008
829.0278, 24.76079
829.5099, 24.69147
829.9920, 24.84303
830.4741, 25.46128
830.9562, 26.43389
831.4384, 27.81049
831.9205, 29.42599
832.4026, 30.87225
832.8847, 32.02604
833.3668, 32.96556
833.8489, 33.44261
834.3311, 33.80037
834.8132, 34.61039
835.2953, 36.02768
835.7774, 37.74156
836.2595, 39.76746
836.7416, 41.96741
837.2238, 44.24727
837.7059, 46.60710
838.1880, 48.68893
838.6701, 50.32060
839.1522, 51.94696
839.6343, 54.06820
840.1165, 56.47617
840.5986, 58.83230
841.0807, 60.88223
841.5628, 63.16100
842.0449, 66.05987
842.5270, 68.99966
843.0092, 71.32190
843.4913, 72.88764
843.9734, 74.64976
844.4555, 76.62017
844.9376, 79.04176
845.4197, 82.69553
845.9019, 86.92280
846.3840, 90.34087
846.8661, 92.55031
847.3482, 94.61162
847.8303, 97.09329
848.3124, 99.71665
848.7946, 102.2026
849.2767, 104.2910
849.7588, 106.8757
850.2409, 110.1695
850.7230, 113.5558
851.2051, 116.6421
851.6873, 119.3664
852.1694, 121.2981
852.6515, 122.3782
853.1336, 123.5674
853.6157, 126.0778
854.0978, 128.8160
854.5800, 130.7369
855.0621, 131.6185
855.5442, 132.3862
856.0263, 133.6264
856.5084, 134.3326
856.9905, 133.8654
857.4727, 132.2286
857.9548, 130.8035
858.4369, 129.5552
858.9190, 128.8862
859.4011, 129.8055
859.8832, 131.1223
860.3654, 131.0812
860.8475, 129.6459
861.3296, 127.1863
861.8117, 122.8157
862.2938, 118.4257
862.7759, 114.8918
863.2581, 112.1583
863.7402, 109.7480
864.2223, 107.8001
864.7044, 105.7342
865.1865, 103.2825
865.6686, 100.5586
866.1508, 97.97902
866.6329, 95.45351
867.1150, 92.69569
867.5971, 89.29187
868.0792, 85.85615
868.5613, 82.69897
869.0435, 79.78422
869.5256, 77.09441
870.0077, 74.58942
870.4898, 72.34361
870.9719, 70.42432
871.4540, 68.69238
871.9362, 66.83343
872.4183, 64.86115
872.9004, 62.86098
873.3825, 60.81596
873.8646, 58.84861
874.3467, 57.00596
874.8289, 55.33582
875.3110, 53.93533
875.7931, 53.19920
876.2752, 52.24381
876.7573, 50.80629
877.2394, 49.30789
877.7216, 48.34039
878.2037, 47.95833
878.6858, 47.02079
879.1679, 45.25079
879.6500, 43.64099
880.1321, 43.49787
880.6143, 44.09581
881.0964, 44.31528
881.5785, 43.81202
882.0606, 43.57106
882.5427, 44.25577
883.0248, 45.09149
883.5070, 45.52675
883.9891, 45.48431
884.4712, 45.52086
884.9533, 45.61205
885.4354, 45.82658
885.9175, 46.27884
886.3997, 46.89183
886.8818, 47.41191
887.3639, 47.84744
887.8460, 48.52333
888.3281, 49.81029
888.8102, 51.21843
889.2924, 52.53758
889.7745, 53.74423
890.2566, 54.65685
890.7387, 55.17625
891.2208, 55.72019
891.7029, 56.52266
892.1851, 57.45100
892.6672, 58.24418
893.1493, 58.85866
893.6314, 59.14029
894.1135, 59.07130
894.5956, 58.59531
895.0778, 57.51248
895.5599, 56.01407
896.0420, 54.61954
896.5241, 53.51717
897.0062, 52.09241
897.4883, 50.02742
897.9705, 47.91673
898.4526, 47.52010
898.9347, 48.25029
899.4168, 47.13686
899.8989, 42.87096
900.3810, 38.31706
900.8632, 35.57274
901.3453, 33.86188
901.8274, 32.24245
902.3095, 30.56284
902.7916, 29.07129
903.2737, 27.92854
903.7559, 26.74419
904.2380, 25.07475
904.7201, 22.96431
905.2022, 20.74236
905.6843, 18.43820
906.1664, 16.94858
906.6486, 18.12177
907.1307, 19.73010
907.6128, 19.46307
908.0949, 16.98006
908.5770, 15.19462
909.0591, 14.92627
909.5413, 14.80135
910.0234, 14.32873
910.5055, 13.53790
910.9876, 12.43610
911.4697, 11.04594
911.9518, 9.951851
912.4340, 9.807922
912.9161, 9.870972
913.3982, 9.398956
913.8803, 8.542023
914.3624, 7.713058
914.8445, 6.794395
915.3267, 6.220009
915.8088, 6.150208
916.2909, 6.355125
916.7730, 6.339897
917.2551, 6.109169
917.7372, 6.198570
918.2194, 6.924370
918.7015, 7.401291
919.1836, 6.001122
919.6657, 3.996071
920.1478, 3.247078
920.6299, 5.090271
921.1121, 6.334183
921.5942, 6.266525
922.0763, 5.733871
922.5584, 5.352127
923.0405, 5.145332
923.5226, 4.766075
924.0048, 4.174370
924.4869, 3.895233
924.9690, 4.868950
925.4511, 6.021622
925.9332, 5.884995
926.4153, 4.507820
926.8975, 3.788628
927.3796, 4.834885
927.8617, 5.872261
928.3438, 6.272881
928.8259, 6.172401
929.3080, 6.271400
929.7902, 6.547646
930.2723, 6.751053
930.7544, 6.769630
931.2365, 6.768692
931.7186, 6.949806
932.2007, 7.224831
932.6829, 7.425697
933.1650, 7.655991
933.6471, 7.478287
934.1292, 6.703033
934.6113, 5.762947
935.0934, 5.298912
935.5756, 5.293854
936.0577, 5.097527
936.5398, 4.594742
937.0219, 4.087921
937.5040, 3.750656
937.9861, 3.648788
938.4683, 3.988579
938.9504, 4.964325
939.4325, 5.491646
939.9146, 5.226624
940.3967, 4.684601
940.8788, 3.936501
941.3610, 3.056511
941.8431, 3.232185
942.3252, 4.419891
942.8073, 5.316185
943.2894, 4.680077
943.7715, 3.699875
944.2537, 3.539299
944.7358, 3.983826
945.2179, 4.155777
945.7000, 3.364799
946.1821, 3.017632
946.6642, 3.551727
947.1464, 4.478592
947.6285, 4.810127
948.1106, 4.589417
948.5927, 4.025246
949.0748, 3.018799
949.5569, 2.181870
950.0391, 2.117378
950.5212, 2.495972
951.0033, 2.986366
951.4854, 3.758751
951.9675, 4.057686
952.4496, 3.698326
952.9318, 3.175491
953.4139, 2.797005
953.8960, 2.572556
954.3781, 2.646042
954.8602, 2.995667
955.3423, 3.284004
955.8245, 3.344925
956.3066, 3.211617
956.7887, 2.801773
957.2708, 2.169479
957.7529, 1.701767
958.2350, 1.342140
958.7172, 1.347092
959.1993, 1.954926
959.6814, 2.747803
960.1635, 2.646843
960.6456, 1.944908
961.1277, 1.599113
961.6099, 2.095016
962.0920, 2.665794
962.5741, 2.989075
963.0562, 3.093842
963.5383, 3.011436
964.0204, 2.754738
964.5026, 2.245728
964.9847, 1.395790
965.4668, 0.6133500
965.9489, 0.3347550
966.4310, 0.3802640
966.9131, 0.4187390
967.3953, 0.4204180
967.8774, 0.3308110
968.3595, 0.1621020
968.8416, 0.4623640
969.3237, 0.1176910
969.8058, 0.6744380
970.2880, 1.044212
970.7701, 0.9790190
971.2522, 0.5942840
971.7343, 0.1993030
972.2164, 1.073914
972.6985, 1.621880
973.1807, 1.897263
973.6628, 2.001625
974.1449, 1.892654
974.6270, 1.700813
975.1091, 1.392342
975.5912, 1.135185
976.0734, 1.130295
976.5555, 1.387177
977.0376, 1.317024
977.5197, 0.8623730
978.0018, 0.6311040
978.4839, 1.520645
978.9661, 2.588570
979.4482, 2.798378
979.9303, 2.157379
980.4124, 1.768013
980.8945, 1.952339
981.3766, 2.047142
981.8588, 1.943604
982.3409, 1.662560
982.8230, 0.8675460
983.3051, 0.2358470
983.7872, 0.4787140
984.2693, 1.062553
984.7515, 2.574821
985.2336, 2.697189
985.7157, 2.083450
986.1978, 1.572594
986.6799, 1.380280
987.1620, 0.8954850
987.6442, 6.2447000E-02
988.1263, 0.8229980
988.6084, 0.5249100
989.0905, 0.3838580
989.5726, 0.9136050
990.0547, 1.006325
990.5369, 0.6616130
991.0190, 0.7658080
991.5011, 1.973190
991.9832, 2.047958
992.4653, 1.402756
992.9474, 1.573967
993.4296, 2.653465
993.9117, 3.668449
994.3938, 4.318275
994.8759, 4.799294
995.3580, 5.293167
995.8401, 5.824356
996.3223, 6.475082
996.8044, 7.365547
997.2865, 8.139877
997.7686, 8.413864
998.2507, 8.947243
998.7328, 10.51649
999.2150, 13.03377
999.6971, 14.84127
1000.179, 15.93633
1000.661, 17.25467
1001.143, 19.93370
1001.626, 22.62791
1002.108, 24.22691
1002.590, 24.90556
1003.072, 25.73254
1003.554, 26.52209
1004.036, 28.04713
1004.518, 30.69711
1005.000, 33.73111
1005.482, 35.84473
1005.965, 37.26815
1006.447, 38.49806
1006.929, 39.56998
1007.411, 40.74010
1007.893, 42.23576
1008.375, 43.86548
1008.857, 45.49358
1009.339, 47.14314
1009.822, 48.80768
1010.304, 50.51196
1010.786, 51.77213
1011.268, 51.95694
1011.750, 51.71481
1012.232, 51.96744
1012.714, 52.49881
1013.196, 52.66695
1013.678, 52.41496
1014.161, 51.50536
1014.643, 49.73929
1015.125, 47.51837
1015.607, 45.39854
1016.089, 43.36765
1016.571, 41.35036
1017.053, 39.38250
1017.535, 37.22641
1018.018, 34.35985
1018.500, 31.43823
1018.982, 29.01485
1019.464, 27.16191
1019.946, 25.31750
1020.428, 23.43765
1020.910, 21.71129
1021.392, 20.33131
1021.874, 19.01782
1022.357, 17.14116
1022.839, 14.90135
1023.321, 12.80133
1023.803, 10.85971
1024.285, 9.398026
1024.767, 8.926773
1025.249, 8.588409
1025.731, 7.355850
1026.214, 5.181290
1026.696, 4.302521
1027.178, 4.905838
1027.660, 5.290833
1028.142, 3.350021
1028.624, 1.141495
1029.106, 0.7225340
1029.588, 1.889359
1030.070, 2.372757
1030.553, 1.909164
1031.035, 1.069214
1031.517, 0.2776490
1031.999, 1.450333
1032.481, 0.7310640
1032.963, 1.087357
1033.445, 1.883163
1033.927, 0.8855590
1034.410, 0.2682800
1034.892, 0.9306490
1035.374, 1.354568
1035.856, 1.822769
1036.338, 2.420883
1036.820, 2.205627
1037.302, 1.108063
1037.784, 0.5088650
1038.266, 2.075851
1038.749, 3.980209
1039.231, 4.276291
1039.713, 3.420792
1040.195, 2.514343
1040.677, 1.449066
1041.159, 0.8453370
1041.641, 0.9491120
1042.123, 1.380219
1042.605, 1.628357
1043.088, 1.634094
1043.570, 1.459091
1044.052, 1.121231
1044.534, 0.4814150
1045.016, 0.6952670
1045.498, 2.107010
1045.980, 3.449677
1046.462, 4.795120
1046.945, 6.929230
1047.427, 9.940979
1047.909, 12.25349
1048.391, 13.05150
1048.873, 13.69771
1049.355, 15.27846
1049.837, 17.63626
1050.319, 20.71184
1050.802, 25.24443
1051.284, 28.61061
1051.766, 30.28641
1052.248, 31.81985
1052.730, 34.23708
1053.212, 37.35786
1053.694, 40.69249
1054.176, 44.22740
1054.658, 47.91725
1055.141, 52.52377
1055.623, 56.34415
1056.105, 58.22858
1056.587, 59.31895
1057.069, 61.43625
1057.551, 64.63147
1058.033, 67.05733
1058.515, 68.50037
1058.997, 69.08607
1059.480, 68.75475
1059.962, 67.77512
1060.444, 66.31975
1060.926, 64.40254
1061.408, 62.27078
1061.890, 59.98376
1062.372, 57.37300
1062.854, 54.40378
1063.337, 51.08125
1063.819, 47.26788
1064.301, 43.18512
1064.783, 39.32994
1065.265, 35.80020
1065.747, 32.61095
1066.229, 29.94736
1066.711, 27.41772
1067.193, 24.62700
1067.676, 21.64040
1068.158, 19.53604
1068.640, 18.25121
1069.122, 16.96922
1069.604, 14.78822
1070.086, 12.82445
1070.568, 11.94997
1071.050, 11.79224
1071.532, 11.39098
1072.015, 10.36449
1072.497, 10.59576
1072.979, 12.60400
1073.461, 14.44504
1073.943, 13.32947
1074.425, 11.14536
1074.907, 10.56848
1075.389, 11.78572
1075.872, 13.25720
1076.354, 14.67822
1076.836, 16.19348
1077.318, 17.85646
1077.800, 19.59731
1078.282, 21.37517
1078.764, 23.15132
1079.246, 24.66301
1079.729, 25.57654
1080.211, 27.25500
1080.693, 31.26968
1081.175, 35.67789
1081.657, 38.86461
1082.139, 40.84071
1082.621, 43.19405
1083.103, 45.94421
1083.585, 49.08354
1084.068, 52.56424
1084.550, 56.50410
1085.032, 61.13179
1085.514, 66.24173
1085.996, 71.36615
1086.478, 76.47375
1086.960, 81.40247
1087.442, 85.90132
1087.924, 90.99910
1088.406, 98.02170
1088.889, 106.1421
1089.371, 113.8121
1089.853, 121.1149
1090.335, 129.2037
1090.817, 138.8040
1091.299, 148.8796
1091.781, 159.1773
1092.263, 169.8290
1092.746, 180.6945
1093.228, 191.9726
1093.710, 204.4641
1094.192, 218.3372
1094.674, 233.1077
1095.156, 248.6573
1095.638, 264.8969
1096.120, 281.6344
1096.603, 298.7639
1097.085, 316.4405
1097.567, 334.6662
1098.049, 354.0966
1098.531, 375.1906
1099.013, 397.1823
1099.495, 419.7322
1099.977, 442.7194
1100.459, 466.4486
1100.942, 490.9863
1101.424, 515.6569
1101.906, 540.7117
1102.388, 565.2998
1102.870, 588.8751
1103.352, 611.9460
1103.834, 636.5829
1104.316, 661.8239
1104.798, 684.2359
1105.281, 700.6509
1105.763, 717.4111
1106.245, 736.4775
1106.727, 754.4596
1107.209, 768.1209
1107.691, 777.2822
1108.173, 779.9791
1108.655, 776.2730
1109.138, 768.2042
1109.620, 755.9173
1110.102, 740.4917
1110.584, 721.5051
1111.066, 700.0822
1111.548, 677.9764
1112.030, 654.9844
1112.512, 629.7926
1112.995, 601.7405
1113.477, 572.6503
1113.959, 543.4784
1114.441, 514.3318
1114.923, 485.1107
1115.405, 455.8388
1115.887, 427.5228
1116.369, 399.7583
1116.851, 373.9167
1117.333, 350.5342
1117.816, 329.0948
1118.298, 309.1899
1118.780, 290.6686
1119.262, 273.2581
1119.744, 256.7741
1120.226, 242.2933
1120.708, 230.4605
1121.190, 219.0536
1121.673, 205.9267
1122.155, 192.6745
1122.637, 183.1203
1123.119, 176.3072
1123.601, 169.5938
1124.083, 161.4020
1124.565, 154.0718
1125.047, 148.2593
1125.530, 142.9307
1126.012, 136.7216
1126.494, 130.0145
1126.976, 125.2458
1127.458, 122.2765
1127.940, 119.2974
1128.422, 115.3343
1128.904, 111.0818
1129.386, 106.5792
1129.869, 102.1076
1130.351, 97.99515
1130.833, 94.25592
1131.315, 91.66046
1131.797, 90.37817
1132.279, 88.53647
1132.761, 83.74086
1133.243, 78.63483
1133.725, 75.36905
1134.208, 73.62617
1134.690, 71.23660
1135.172, 67.98497
1135.654, 65.20786
1136.136, 63.28351
1136.618, 61.67931
1137.100, 59.66658
1137.582, 57.72922
1138.065, 56.40834
1138.547, 55.88292
1139.029, 55.36386
1139.511, 54.94305
1139.993, 54.20096
1140.475, 52.80945
1140.957, 51.26659
1141.439, 50.44331
1141.922, 50.01060
1142.404, 49.32462
1142.886, 47.93556
1143.368, 47.11473
1143.850, 47.16743
1144.332, 47.38890
1144.814, 47.40041
1145.296, 47.21909
1145.778, 46.77951
1146.260, 46.21280
1146.743, 45.88528
1147.225, 46.57445
1147.707, 46.76340
1148.189, 45.91702
1148.671, 44.89293
1149.153, 44.40105
1149.635, 44.35742
1150.117, 44.51466
1150.600, 44.88263
1151.082, 45.33884
1151.564, 45.98991
1152.046, 46.43268
1152.528, 46.44778
1153.010, 46.25087
1153.492, 46.02484
1153.974, 45.82104
1154.457, 45.95721
1154.939, 46.44534
1155.421, 47.24805
1155.903, 48.97371
1156.385, 50.48061
1156.867, 50.67030
1157.349, 50.21822
1157.831, 50.87096
1158.313, 52.68292
1158.796, 53.48294
1159.278, 52.75395
1159.760, 52.08673
1160.242, 53.30608
1160.724, 54.87894
1161.206, 55.58974
1161.688, 55.45419
1162.170, 54.91856
1162.652, 53.88455
1163.135, 53.37822
1163.617, 53.96324
1164.099, 54.29028
1164.581, 52.46037
1165.063, 49.87399
1165.545, 48.14306
1166.027, 47.56364
1166.509, 46.40415
1166.992, 44.60764
1167.474, 42.47882
1167.956, 40.06470
1168.438, 37.50687
1168.920, 34.63174
1169.402, 31.83863
1169.884, 29.70502
1170.366, 28.63964
1170.849, 27.38412
1171.331, 25.98839
1171.813, 24.25074
1172.295, 21.70927
1172.777, 19.03303
1173.259, 17.43376
1173.741, 16.47690
1174.223, 15.36220
1174.705, 13.50979
1175.188, 12.21141
1175.670, 11.63293
1176.152, 11.17033
1176.634, 10.36836
1177.116, 9.348289
1177.598, 8.169365
1178.080, 6.948524
1178.562, 6.006546
1179.044, 5.441589
1179.527, 5.251884
1180.009, 5.699364
1180.491, 5.946587
1180.973, 4.788887
1181.455, 2.946632
1181.937, 2.285507
1182.419, 2.629166
1182.901, 2.744827
1183.384, 1.876915
1183.866, 1.180496
1184.348, 0.9294590
1184.830, 0.7623520
1185.312, 2.0979999E-03
1185.794, 0.9929960
1186.276, 1.077972
1186.758, 0.2702260
1187.240, 0.3266830
1187.723, 2.2774000E-02
1188.205, 0.2648700
1188.687, 0.2947770
1189.169, 0.2250900
1189.651, 0.3484730
1190.133, 0.6060410
1190.615, 0.6834110
1191.097, 0.5417020
1191.579, 0.6968990
1192.062, 2.258522
1192.544, 2.958435
1193.026, 1.569397
1193.508, 0.5864030
1193.990, 0.2987820
1194.472, 1.713951
1194.954, 2.899574
1195.436, 2.740471
1195.919, 2.363274
1196.401, 2.062248
1196.883, 1.921753
1197.365, 2.031013
1197.847, 2.277466
1198.329, 2.299713
1198.811, 2.167427
1199.293, 2.186928
1199.776, 2.492142
1200.258, 2.690750
1200.740, 2.405067
1201.222, 2.193810
1201.704, 2.430885
1202.186, 2.923683
1202.668, 2.870064
1203.150, 2.361740
1203.632, 1.691620
1204.115, 0.7463610
1204.597, 0.2528990
1205.079, 1.099503
1205.561, 1.957932
1206.043, 2.062332
1206.525, 1.524208
1207.007, 0.6106030
1207.489, 0.5117720
1207.971, 1.070396
1208.454, 0.4284590
1208.936, 0.1519550
1209.418, 4.9988002E-02
1209.900, 0.2381210
1210.382, 0.4486850
1210.864, 0.5585630
1211.346, 0.2896040
1211.828, 0.2393650
1212.311, 0.4111630
1212.793, 0.3557740
1213.275, 1.050430
1213.757, 1.165863
1214.239, 1.202530
1214.721, 1.634537
1215.203, 2.354347
1215.685, 2.314804
1216.167, 1.697144
1216.650, 1.459908
1217.132, 2.702469
1217.614, 3.581833
1218.096, 3.274323
1218.578, 2.637711
1219.060, 2.293053
1219.542, 2.251961
1220.024, 2.743996
1220.506, 3.657539
1220.989, 4.360474
1221.471, 4.172119
1221.953, 4.240501
1222.435, 5.173119
1222.917, 6.158775
1223.399, 6.268951
1223.881, 5.692581
1224.363, 5.326805
1224.846, 5.171272
1225.328, 5.253006
1225.810, 5.193405
1226.292, 5.259796
1226.774, 5.490265
1227.256, 5.883995
1227.738, 6.645386
1228.220, 7.557884
1228.703, 7.674545
1229.185, 7.076897
1229.667, 6.667915
1230.149, 6.794624
1230.631, 7.311684
1231.113, 8.376541
1231.595, 9.477898
1232.077, 9.878029
1232.559, 9.807617
1233.042, 9.835503
1233.524, 10.01474
1234.006, 10.39563
1234.488, 11.25681
1234.970, 11.90909
1235.452, 12.05032
1235.934, 11.97314
1236.416, 12.06600
1236.898, 12.24133
1237.381, 12.11633
1237.863, 11.71246
1238.345, 11.89789
1238.827, 12.26087
1239.309, 12.63708
1239.791, 13.21910
1240.273, 13.49524
1240.755, 12.69708
1241.238, 11.32700
1241.720, 10.21840
1242.202, 9.532410
1242.684, 9.103394
1243.166, 9.443497
1243.648, 9.880310
1244.130, 9.798950
1244.612, 9.419136
1245.094, 9.228737
1245.577, 9.007507
1246.059, 8.255783
1246.541, 7.240097
1247.023, 6.811195
1247.505, 7.127708
1247.987, 7.431786
1248.469, 7.374458
1248.951, 7.175682
1249.433, 6.743858
1249.916, 6.352577
1250.398, 6.640877
1250.880, 7.321030
1251.362, 7.345955
1251.844, 6.602356
1252.326, 6.343224
1252.808, 7.052780
1253.290, 7.942154
1253.773, 8.364243
1254.255, 8.397308
1254.737, 7.870338
1255.219, 6.967285
1255.701, 6.869843
1256.183, 7.553429
1256.665, 7.964401
1257.147, 7.944252
1257.630, 7.746094
1258.112, 7.520004
1258.594, 7.324661
1259.076, 7.236137
1259.558, 7.158012
1260.040, 6.856125
1260.522, 6.325813
1261.004, 5.784447
1261.486, 5.229958
1261.969, 4.914459
1262.451, 5.334305
1262.933, 5.810448
1263.415, 5.906525
1263.897, 5.646866
1264.379, 4.961700
1264.861, 3.928291
1265.343, 3.660728
1265.825, 4.483223
1266.308, 4.878525
1266.790, 3.253387
1267.272, 1.857071
1267.754, 1.871307
1268.236, 2.760292
1268.718, 3.229042
1269.200, 3.333939
1269.682, 3.184540
1270.165, 2.756416
1270.647, 2.550087
1271.129, 3.201790
1271.611, 3.549309
1272.093, 3.120384
1272.575, 2.312950
1273.057, 1.926659
1273.539, 1.776001
1274.021, 1.348991
1274.504, 0.4882050
1274.986, 0.2231220
1275.468, 1.245781
1275.950, 1.917603
1276.432, 1.561363
1276.914, 0.9007720
1277.396, 1.186974
1277.878, 1.855705
1278.360, 1.986496
1278.843, 1.288956
1279.325, 1.038239
1279.807, 1.305687
1280.289, 1.270996
1280.771, 0.6071240
1281.253, 3.1868000E-02
1281.735, 0.2897260
1282.217, 0.0000000E+00
##END=



