##NAMES=Augelite
##RRUFFID=R050100
##IDEAL CHEMISTRY=Al_2_PO_4_(OH)_3_
##LOCALITY=Rapid Creek, Yukon Territory, Canada
##OWNER=RRUFF
##SOURCE=Rock Currier
##DESCRIPTION=Pale green thick tabular crystals
##STATUS=The identification of this mineral has been confirmed by X-ray diffraction and chemical analysis
##URL=rruff.info/R050100
##MEASURED CHEMISTRY=Al_2.00_(P_1.00_O_4_)(OH_0.98_F_0.02_)_3_
78.031, 0.000
79.427, 14.418
80.823, 58.560
82.218, 248.712
83.614, 267.271
85.009, 46.266
86.404, 27.458
87.798, 86.080
89.193, 11.238
90.587, 160.135
91.981, 135.284
93.375, 151.616
94.768, 155.785
96.161, 217.185
97.554, 277.540
98.947, 390.963
100.340, 455.052
101.732, 588.291
103.124, 701.418
104.516, 995.215
105.908, 1238.541
107.300, 1498.350
108.691, 1633.891
110.082, 1936.304
111.473, 2266.411
112.864, 2828.936
114.254, 3464.651
115.644, 4261.370
117.034, 5069.938
118.424, 5964.228
119.813, 6887.133
121.203, 8457.567
122.592, 9865.447
123.981, 11233.713
125.369, 12787.317
126.758, 13617.228
128.146, 14240.412
129.534, 13844.847
130.922, 13293.649
132.309, 11784.955
133.696, 10250.425
135.083, 8420.889
136.470, 7487.616
137.857, 6695.099
139.243, 6467.938
140.630, 6707.449
142.016, 7240.615
143.401, 7965.410
144.787, 9175.689
146.172, 10538.493
147.557, 12162.857
148.942, 13948.812
150.327, 16368.378
151.711, 19318.594
153.096, 22841.463
154.480, 27337.023
155.863, 31488.277
157.247, 36073.258
158.630, 41040.969
160.013, 44497.438
161.396, 47327.676
162.779, 48198.719
164.161, 47447.539
165.544, 44838.160
166.926, 41246.512
168.308, 36309.746
169.689, 31836.883
171.070, 27249.922
172.452, 23560.895
173.833, 20092.809
175.213, 16954.666
176.594, 14744.487
177.974, 12539.275
179.354, 11002.036
180.734, 9625.773
182.114, 8263.493
183.493, 7375.501
184.872, 6815.168
186.251, 6079.705
187.630, 5587.234
189.008, 4869.762
190.387, 4637.215
191.765, 4366.608
193.143, 4051.267
194.520, 3972.018
195.898, 3610.621
197.275, 3568.095
198.652, 3360.972
200.029, 3421.921
201.405, 3378.617
202.782, 3310.015
204.158, 3238.581
205.534, 3271.154
206.909, 3263.555
208.285, 3262.026
209.660, 3246.567
211.035, 3170.177
212.410, 3216.852
213.784, 3505.592
215.159, 3728.394
216.533, 4459.256
217.907, 5468.179
219.281, 6972.150
220.654, 8452.161
222.027, 10141.205
223.400, 11842.269
224.773, 13057.346
226.146, 13094.446
227.518, 11450.561
228.891, 8939.696
230.263, 6557.854
231.634, 5030.034
233.006, 3945.237
234.377, 3235.466
235.748, 2977.723
237.119, 3044.005
238.490, 3223.318
239.860, 3791.660
241.231, 4468.034
242.601, 5592.439
243.970, 7189.338
245.340, 9251.507
246.709, 11888.632
248.079, 14406.729
249.448, 17545.436
250.816, 19329.525
252.185, 20344.814
253.553, 19183.365
254.921, 16331.203
256.289, 13088.514
257.657, 9793.063
259.024, 7305.824
260.391, 5338.783
261.758, 3953.919
263.125, 2845.217
264.492, 2247.665
265.858, 1707.249
267.224, 1377.958
268.590, 1128.785
269.956, 816.721
271.321, 743.757
272.687, 644.886
274.052, 517.100
275.416, 356.390
276.781, 285.295
278.146, 194.500
279.510, 144.643
280.874, 92.169
282.237, 90.743
283.601, 81.359
284.964, 58.185
286.327, 42.289
287.690, 19.421
289.053, 35.159
290.416, 14.074
291.778, 170.710
293.140, 166.525
294.502, 202.370
295.863, 210.243
297.225, 241.141
298.586, 167.064
299.947, 46.992
301.308, 76.060
302.668, 160.160
304.029, 146.320
305.389, 198.547
306.749, 249.855
308.108, 321.257
309.468, 322.571
310.827, 350.386
312.186, 331.116
313.545, 291.950
314.903, 301.877
316.262, 289.896
317.620, 336.003
318.978, 340.208
320.336, 338.511
321.693, 248.907
323.051, 253.375
324.408, 195.910
325.765, 200.499
327.121, 178.141
328.478, 114.828
329.834, 141.543
331.190, 8.708
332.546, 121.962
333.902, 48.228
335.257, 192.506
336.612, 264.797
337.967, 349.102
339.322, 469.421
340.677, 622.755
342.031, 785.104
343.385, 952.469
344.739, 1218.849
346.093, 1322.245
347.446, 1471.613
348.799, 1691.970
350.153, 1742.345
351.505, 1909.737
352.858, 1927.148
354.210, 1996.502
355.563, 2292.734
356.915, 2709.798
358.267, 3398.627
359.618, 4211.213
360.969, 5290.592
362.321, 7248.764
363.672, 8768.715
365.022, 10783.511
366.373, 12133.194
367.723, 12699.804
369.073, 12245.388
370.423, 10682.019
371.773, 8670.691
373.122, 6651.412
374.471, 5233.175
375.821, 4043.982
377.169, 2913.834
378.518, 2430.736
379.866, 1775.683
381.215, 1497.676
382.563, 1291.714
383.910, 980.797
385.258, 830.929
386.605, 628.106
387.952, 662.330
389.299, 592.607
390.646, 571.929
391.992, 527.296
393.339, 559.709
394.685, 568.168
396.031, 691.673
397.376, 843.224
398.722, 845.820
400.067, 1122.464
401.412, 1304.153
402.757, 1688.889
404.101, 1968.671
405.446, 2156.500
406.790, 2163.372
408.134, 2195.290
409.478, 2053.255
410.821, 1940.266
412.165, 1746.326
413.508, 1590.438
414.851, 1667.597
416.193, 1657.822
417.536, 1563.091
418.878, 1543.402
420.220, 1597.754
421.562, 1600.147
422.904, 1367.578
424.245, 1432.048
425.586, 1418.555
426.927, 1354.100
428.268, 1368.682
429.609, 1228.301
430.949, 1289.956
432.289, 1436.646
433.629, 1644.373
434.969, 1745.134
436.309, 1894.931
437.648, 1937.775
438.987, 2057.292
440.326, 2202.595
441.665, 2256.571
443.003, 2250.598
444.342, 2372.693
445.680, 2349.830
447.018, 2347.047
448.355, 2414.360
449.693, 2145.987
451.030, 2211.183
452.367, 2185.203
453.704, 2182.740
455.041, 1885.344
456.377, 1964.033
457.713, 1688.779
459.049, 1535.614
460.385, 1466.553
461.721, 1305.280
463.056, 1273.505
464.391, 1077.928
465.726, 969.214
467.061, 959.525
468.395, 847.839
469.730, 784.770
471.064, 867.714
472.398, 725.028
473.731, 870.646
475.065, 626.822
476.398, 699.468
477.731, 641.982
479.064, 759.717
480.397, 688.308
481.729, 644.125
483.062, 707.690
484.394, 557.094
485.725, 578.988
487.057, 628.727
488.389, 643.924
489.720, 632.940
491.051, 569.538
492.382, 633.407
493.712, 684.311
495.043, 683.281
496.373, 748.311
497.703, 804.402
499.032, 910.557
500.362, 956.771
501.691, 1117.039
503.020, 1292.362
504.349, 1236.740
505.678, 1547.172
507.007, 1562.657
508.335, 1801.196
509.663, 1963.789
510.991, 2228.436
512.319, 2697.134
513.646, 2764.887
514.973, 3301.693
516.300, 3653.554
517.627, 4230.469
518.954, 4810.439
520.280, 5140.467
521.607, 5889.552
522.933, 6483.697
524.259, 6901.902
525.584, 7451.167
526.910, 7582.492
528.235, 8112.882
529.560, 8297.330
530.885, 8583.843
532.209, 8548.412
533.534, 8648.048
534.858, 8971.741
536.182, 9024.497
537.506, 9532.148
538.829, 9708.023
540.152, 10214.351
541.476, 10536.393
542.799, 11332.530
544.121, 11656.113
545.444, 12634.562
546.766, 13345.835
548.088, 14467.650
549.410, 15401.995
550.732, 16768.396
552.053, 17787.857
553.375, 19408.373
554.696, 20511.945
556.017, 21741.578
557.337, 23456.266
558.658, 24634.002
559.978, 25785.801
561.298, 26459.658
562.618, 27765.562
563.938, 27855.527
565.257, 28093.545
566.576, 28223.615
567.895, 27372.744
569.214, 27371.920
570.533, 26729.158
571.851, 25565.443
573.170, 24182.777
574.488, 23704.172
575.805, 22259.613
577.123, 21221.105
578.440, 19743.658
579.758, 18638.248
581.075, 17400.902
582.391, 15659.601
583.708, 14790.349
585.024, 12835.146
586.341, 11447.995
587.657, 10458.895
588.972, 8965.843
590.288, 7972.839
591.603, 7091.883
592.918, 5963.977
594.233, 5504.118
595.548, 5151.775
596.863, 4601.029
598.177, 4344.436
599.491, 4036.000
600.805, 4226.700
602.119, 4009.322
603.432, 4005.951
604.746, 4214.214
606.059, 4321.734
607.372, 4494.607
608.685, 4711.855
609.997, 5046.619
611.309, 5338.392
612.621, 5667.207
613.933, 6065.411
615.245, 6638.454
616.557, 7353.718
617.868, 8409.313
619.179, 9123.144
620.490, 10489.021
621.801, 11929.378
623.111, 14112.271
624.421, 16145.519
625.731, 19446.520
627.041, 21748.213
628.351, 26134.455
629.660, 29563.660
630.970, 34029.355
632.279, 38294.145
633.588, 40885.543
634.896, 42616.797
636.205, 41160.480
637.513, 39235.090
638.821, 33574.723
640.129, 28501.781
641.437, 23204.402
642.744, 18609.865
644.051, 14847.963
645.358, 12116.663
646.665, 10000.164
647.972, 8172.868
649.278, 6929.323
650.584, 5970.298
651.890, 5096.267
653.196, 4678.153
654.502, 3938.916
655.807, 3727.338
657.113, 3178.974
658.418, 2869.570
659.722, 2781.324
661.027, 2398.891
662.331, 2150.543
663.636, 2025.988
664.940, 1857.566
666.244, 1650.953
667.547, 1542.355
668.851, 1340.766
670.154, 1446.184
671.457, 1113.608
672.760, 1082.039
674.062, 1078.475
675.365, 887.916
676.667, 836.362
677.969, 731.811
679.271, 615.263
680.572, 554.718
681.874, 450.176
683.175, 511.636
684.476, 449.097
685.777, 388.559
687.077, 346.021
688.378, 129.482
689.678, 166.944
690.978, 189.403
692.278, 184.862
693.577, 55.682
694.877, 86.761
696.176, 30.799
697.475, 0.369
698.774, 3.943
700.072, 34.525
701.371, 22.118
702.669, 1.280
703.967, 76.331
705.265, 28.035
706.562, 67.394
707.860, 85.745
709.157, 27.088
710.454, 238.421
711.751, 211.747
713.047, 388.061
714.344, 418.366
715.640, 550.660
716.936, 534.942
718.232, 542.213
719.527, 720.472
720.823, 654.718
722.118, 638.951
723.413, 664.170
724.708, 585.375
726.002, 526.565
727.297, 645.741
728.591, 540.251
729.885, 559.044
731.179, 469.171
732.472, 363.282
733.766, 336.375
735.059, 359.450
736.352, 203.506
737.645, 364.544
738.937, 354.562
740.230, 336.561
741.522, 194.539
742.814, 227.497
744.106, 218.434
745.397, 208.349
746.689, 109.242
747.980, 78.113
749.271, 96.960
750.562, 32.215
751.853, 59.559
753.143, 69.693
754.433, 23.981
755.723, 36.372
757.013, 95.785
758.303, 2.709
759.592, 131.838
760.881, 5.501
762.170, 183.213
763.459, 28.929
764.748, 79.963
766.036, 108.950
767.325, 75.046
768.613, 142.237
769.901, 25.559
771.188, 153.951
772.476, 204.482
773.763, 126.181
775.050, 140.007
776.337, 144.969
777.624, 7.071
778.910, 121.242
780.196, 34.542
781.482, 121.927
782.768, 95.446
784.054, 139.085
785.339, 47.869
786.625, 45.751
787.910, 4.732
789.195, 62.792
790.479, 50.961
791.764, 46.236
793.048, 27.615
794.332, 95.090
795.616, 53.304
796.900, 32.362
798.183, 25.870
799.467, 110.971
800.750, 76.043
802.033, 75.000
803.316, 37.171
804.598, 118.550
805.880, 43.457
807.163, 76.511
808.445, 83.699
809.726, 63.178
811.008, 98.815
812.289, 192.773
813.570, 173.472
814.851, 213.014
816.132, 199.402
817.413, 253.585
818.693, 235.491
819.973, 378.432
821.253, 340.200
822.533, 374.176
823.813, 518.255
825.092, 413.307
826.371, 560.176
827.650, 513.965
828.929, 622.708
830.208, 776.402
831.486, 819.077
832.764, 758.678
834.042, 741.230
835.320, 950.737
836.598, 1025.195
837.875, 1165.606
839.152, 1247.970
840.429, 1413.285
841.706, 1610.553
842.983, 1652.772
844.259, 1784.943
845.536, 1985.067
846.812, 1989.143
848.088, 2268.332
849.363, 2360.312
850.639, 2606.853
851.914, 2826.686
853.189, 2838.439
854.464, 3029.756
855.739, 3003.215
857.013, 3185.864
858.288, 3160.981
859.562, 2981.576
860.836, 3110.125
862.110, 2945.625
863.383, 2679.077
864.656, 2703.481
865.930, 2435.838
867.203, 2320.146
868.475, 2202.406
869.748, 1938.619
871.020, 1787.784
872.292, 1699.900
873.564, 1646.970
874.836, 1531.991
876.108, 1371.965
877.379, 1302.891
878.650, 1295.768
879.922, 1191.598
881.192, 1176.381
882.463, 1102.117
883.733, 1158.804
885.004, 1103.899
886.274, 1124.036
887.544, 1043.581
888.813, 1178.079
890.083, 1133.529
891.352, 1053.507
892.621, 1157.865
893.890, 1217.408
895.159, 1234.541
896.427, 1082.379
897.695, 1148.711
898.964, 1127.421
900.232, 1149.438
901.499, 1143.467
902.767, 1077.447
904.034, 1024.729
905.301, 1173.785
906.568, 917.508
907.835, 1001.080
909.102, 853.518
910.368, 744.034
911.634, 715.543
912.900, 676.423
914.166, 634.048
915.432, 609.337
916.697, 567.261
917.962, 505.673
919.227, 493.089
920.492, 472.460
921.757, 487.455
923.021, 508.615
924.285, 413.554
925.550, 445.180
926.813, 412.583
928.077, 338.998
929.341, 399.989
930.604, 469.519
931.867, 514.770
933.130, 476.340
934.393, 389.292
935.655, 601.773
936.918, 413.397
938.180, 669.647
939.442, 551.907
940.703, 659.632
941.965, 731.610
943.226, 800.217
944.488, 619.016
945.749, 618.875
947.009, 536.392
948.270, 519.418
949.530, 464.669
950.791, 371.340
952.051, 320.462
953.311, 182.827
954.570, 176.024
955.830, 148.507
957.089, 13.473
958.348, 119.436
959.607, 53.474
960.866, 74.626
962.124, 87.886
963.383, 30.645
964.641, 3.381
965.899, 26.286
967.156, 24.675
968.414, 58.172
969.671, 83.452
970.928, 19.240
972.185, 35.851
973.442, 79.505
974.699, 21.842
975.955, 16.159
977.211, 47.466
978.468, 117.755
979.723, 166.027
980.979, 70.284
982.234, 44.526
983.490, 168.752
984.745, 93.961
986.000, 235.155
987.254, 274.334
988.509, 213.497
989.763, 364.650
991.017, 343.789
992.271, 429.913
993.525, 442.023
994.779, 544.121
996.032, 626.204
997.285, 652.288
998.538, 936.360
999.791, 998.426
1001.044, 1188.479
1002.296, 1242.524
1003.548, 1663.560
1004.800, 1949.585
1006.052, 2270.604
1007.304, 2804.612
1008.555, 2864.609
1009.807, 3349.605
1011.058, 3645.596
1012.309, 4212.575
1013.559, 3769.546
1014.810, 3594.505
1016.060, 3190.457
1017.310, 3151.398
1018.560, 2832.332
1019.810, 2391.255
1021.060, 2230.171
1022.309, 2191.089
1023.558, 1957.458
1024.807, 1978.898
1026.056, 1756.792
1027.305, 1688.679
1028.553, 1608.557
1029.801, 1657.429
1031.049, 1569.293
1032.297, 1613.071
1033.545, 1593.002
1034.793, 1682.849
1036.040, 1661.689
1037.287, 1689.522
1038.534, 1754.353
1039.781, 1676.175
1041.027, 1809.074
1042.274, 1837.809
1043.520, 2052.618
1044.766, 2221.424
1046.012, 2438.226
1047.257, 2573.022
1048.503, 2684.818
1049.748, 3264.610
1050.993, 3541.398
1052.238, 4346.184
1053.483, 4871.967
1054.727, 5615.762
1055.971, 6373.555
1057.216, 7536.494
1058.459, 8212.310
1059.703, 8775.141
1060.947, 9059.005
1062.190, 9016.606
1063.433, 8540.580
1064.676, 7992.560
1065.919, 7339.639
1067.162, 6579.624
1068.404, 6342.643
1069.646, 5674.701
1070.888, 5287.972
1072.130, 5117.911
1073.372, 4790.085
1074.613, 4756.539
1075.855, 4589.117
1077.096, 4360.314
1078.337, 4445.683
1079.578, 4666.521
1080.818, 4542.906
1082.059, 4787.335
1083.299, 4783.922
1084.539, 5121.619
1085.779, 5317.366
1087.018, 5630.314
1088.258, 6053.027
1089.497, 6531.855
1090.736, 7029.779
1091.975, 7562.582
1093.213, 8410.773
1094.452, 9308.673
1095.690, 10635.596
1096.928, 11516.541
1098.166, 13332.550
1099.404, 15145.539
1100.642, 17362.537
1101.879, 19575.592
1103.116, 22478.354
1104.353, 24931.455
1105.590, 27101.596
1106.827, 28452.473
1108.063, 29731.744
1109.299, 28882.832
1110.536, 29195.012
1111.771, 25630.977
1113.007, 22481.572
1114.243, 19792.381
1115.478, 17382.082
1116.713, 14701.240
1117.948, 12741.457
1119.183, 11024.004
1120.418, 9621.575
1121.652, 8549.093
1122.886, 7859.318
1124.120, 6944.394
1125.354, 6329.908
1126.588, 5682.172
1127.821, 5349.406
1129.055, 4785.645
1130.288, 4638.074
1131.521, 4310.293
1132.753, 4000.578
1133.986, 3518.830
1135.218, 3303.084
1136.450, 3238.342
1137.682, 2723.227
1138.914, 2672.491
1140.146, 2340.759
1141.377, 2058.214
1142.609, 1949.570
1143.840, 2032.849
1145.071, 1968.193
1146.301, 1925.479
1147.532, 1960.100
1148.762, 1987.570
1149.992, 1896.960
1151.222, 1844.744
1152.452, 1934.271
1153.682, 2005.578
1154.911, 1936.889
1156.140, 2082.201
1157.369, 2137.519
1158.598, 2226.957
1159.827, 2385.282
1161.055, 2458.686
1162.284, 2486.017
1163.512, 2580.352
1164.740, 2555.875
1165.967, 2575.218
1167.195, 2461.563
1168.422, 2357.912
1169.650, 2101.621
1170.877, 1994.979
1172.103, 1696.338
1173.330, 1645.702
1174.557, 1260.070
1175.783, 1330.441
1177.009, 1136.816
1178.235, 872.196
1179.461, 924.578
1180.686, 793.964
1181.912, 671.354
1183.137, 695.747
1184.362, 582.146
1185.587, 490.548
1186.811, 472.953
1188.036, 548.363
1189.260, 480.775
1190.484, 330.193
1191.708, 371.614
1192.932, 221.039
1194.155, 229.468
1195.378, 249.900
1196.602, 174.338
1197.825, 160.778
1199.047, 160.223
1200.270, 221.672
1201.492, 69.124
1202.715, 166.582
1203.937, 36.958
1205.159, 154.486
1206.380, 80.935
1207.602, 66.387
1208.823, 12.159
1210.044, 20.292
1211.265, 21.747
1212.486, 13.203
1213.707, 54.662
1214.927, 42.135
1216.147, 131.610
1217.367, 33.910
1218.587, 27.448
1219.807, 37.999
1221.027, 65.551
1222.246, 66.136
1223.465, 106.758
1224.684, 124.227
1225.903, 98.732
1227.121, 90.983
1228.340, 58.835
1229.558, 32.278
1230.776, 18.393
1231.994, 29.494
1233.212, 79.396
1234.429, 84.651
1235.646, 28.301
1236.864, 45.276
1238.081, 101.718
1239.297, 16.294
1240.514, 40.687
1241.730, 42.667
1242.947, 112.646
1244.163, 34.621
1245.378, 58.595
1246.594, 90.564
1247.810, 165.535
1249.025, 4.495
1250.240, 108.453
1251.455, 52.397
1252.670, 134.339
1253.885, 24.279
1255.099, 120.209
1256.313, 93.135
1257.527, 67.058
1258.741, 159.001
1259.955, 51.951
1261.168, 36.105
1262.382, 22.830
1263.595, 47.767
1264.808, 24.683
1266.021, 6.613
1267.233, 44.540
1268.446, 89.471
1269.658, 69.396
1270.870, 13.688
1272.082, 40.216
1273.294, 101.117
1274.505, 160.012
1275.716, 11.903
1276.928, 69.773
1278.139, 48.641
1279.349, 113.501
1280.560, 93.357
1281.770, 58.208
1282.981, 1.054
1284.191, 63.890
1285.401, 89.722
1286.610, 15.548
1287.820, 40.366
1289.029, 86.180
1290.239, 37.014
1291.448, 62.772
1292.656, 7.555
1293.865, 18.328
1295.073, 39.094
1296.282, 4.853
1297.490, 11.604
1298.698, 100.345
1299.906, 148.080
1301.113, 107.809
1302.320, 144.530
1303.528, 4.755
1304.735, 97.949
1305.942, 45.647
1307.148, 75.342
1308.355, 137.031
1309.561, 19.717
1310.767, 200.396
1311.973, 89.074
1313.179, 126.748
1314.384, 23.584
1315.590, 219.070
1316.795, 70.721
1318.000, 143.368
1319.205, 113.011
1320.410, 117.650
1321.614, 160.286
1322.819, 104.918
1324.023, 285.546
1325.227, 205.171
1326.431, 399.794
1327.634, 237.413
1328.838, 183.030
1330.041, 227.645
1331.244, 375.284
1332.447, 361.894
1333.650, 242.501
1334.852, 358.107
1336.055, 326.710
1337.257, 247.312
1338.459, 463.914
1339.661, 461.515
1340.862, 430.114
1342.064, 325.714
1343.265, 450.312
1344.466, 374.913
1345.667, 456.513
1346.868, 357.114
1348.068, 535.717
1349.269, 404.196
1350.469, 442.803
1351.669, 531.411
1352.869, 466.022
1354.069, 465.906
1355.268, 441.464
1356.468, 359.111
1357.667, 587.642
1358.866, 570.623
1360.065, 558.312
1361.263, 596.121
1362.462, 560.963
1363.660, 549.481
1364.858, 522.353
1366.056, 522.802
1367.254, 486.203
1368.451, 527.048
1369.649, 534.965
1370.846, 435.160
1372.043, 465.809
1373.240, 366.441
1374.436, 480.180
1375.633, 443.554
1376.829, 517.602
1378.025, 356.729
1379.221, 299.835
1380.417, 437.594
1381.613, 253.178
1382.808, 268.500
1384.003, 397.188
1385.199, 398.829
1386.393, 315.522
1387.588, 241.470
1388.783, 400.138
1389.977, 276.677
1391.171, 292.325
1392.365, 241.959
1393.559, 140.386
1394.753, 261.810
1395.946, 272.081
1397.140, 159.642
1398.333, 69.343
1399.526, 176.482
1400.719, 235.872
1401.911, 250.472
1403.104, 85.492
1404.296, 151.672
1405.488, 125.419
1406.680, 95.452
1407.872, 191.177
1409.063, 137.826
1410.255, 101.443
1411.446, 55.481
1412.637, 203.789
1413.828, 89.622
1415.018, 81.786
1416.209, 169.034
1417.399, 157.015
1418.589, 130.228
1419.779, 118.170
1420.969, 87.313
1422.159, 67.439
1423.348, 150.548
1424.537, 29.639
1425.726, 230.710
1426.915, 39.761
1428.104, 148.793
1429.293, 131.804
1430.481, 109.793
1431.669, 20.762
1432.857, 39.708
1434.045, 93.629
1435.233, 67.525
1436.420, 95.413
1437.608, 105.281
1438.795, 68.149
1439.982, 111.985
1441.169, 144.775
1442.355, 131.514
1443.542, 154.268
1444.728, 114.036
1445.914, 153.928
1447.100, 131.023
1448.286, 156.282
1449.472, 162.555
1450.657, 134.889
1451.842, 237.287
1453.027, 246.766
1454.212, 146.242
1455.397, 318.713
1456.581, 68.176
1457.766, 162.625
1458.950, 316.125
1460.134, 122.626
1461.318, 148.153
1462.501, 131.678
1463.685, 87.205
1464.868, 246.743
1466.051, 274.373
1467.234, 327.038
1468.417, 97.734
1469.600, 132.462
1470.782, 150.209
1471.965, 269.057
1473.147, 18.930
1474.329, 226.833
1475.510, 175.770
1476.692, 47.745
1477.873, 168.764
1479.055, 208.835
1480.236, 89.962
1481.416, 230.153
1482.597, 92.418
1483.778, 125.765
1484.958, 332.193
1486.138, 40.688
1487.318, 80.250
1488.498, 229.873
1489.678, 52.566
1490.857, 141.339
1492.037, 129.193
1493.216, 143.140
1494.395, 212.186
1495.574, 70.332
1496.752, 217.589
1497.931, 34.799
1499.109, 177.288
1500.287, 32.089
1501.465, 49.680
1502.643, 26.605
1503.820, 46.697
1504.998, 64.967
1506.175, 45.430
1507.352, 161.109
1508.529, 186.027
1509.706, 125.208
1510.882, 49.670
1512.059, 71.645
1513.235, 154.203
1514.411, 114.524
1515.587, 21.060
1516.762, 231.352
1517.938, 0.938
1519.113, 144.577
1520.288, 175.403
1521.463, 0.000
##END=



