##NAMES=Augite
##RRUFFID=R061108
##IDEAL CHEMISTRY=(Ca,Mg,Fe)_2_(Si,Al)_2_O_6_
##LOCALITY=Monti Rossi, near Mt. Etna, Sicily, Italy
##OWNER=RRUFF
##SOURCE=Michael Scott
##DESCRIPTION=Euhedral, short prismatic, black crystals in vesicular basalt.
##STATUS=The identification of this mineral is confirmed by single-crystal X-ray diffraction and chemical analysis.
##URL=rruff.info/R061108
##MEASURED CHEMISTRY=(Ca_0.86_Mg_0.74_Fe^2+^_0.18_Fe^3+^_0.08_Al_0.05_Ti_0.04_Na_0.04_Mn_0.01_)_Σ=2_(Si_1.83_Al_0.17_)_Σ=2_O_6_
113.3688, 0.0000000E+00
113.8509, 22.80307
114.3330, 33.33850
114.8152, 6.891602
115.2973, 8.213745
115.7794, 5.966187
116.2615, 13.25574
116.7436, 44.27545
117.2257, 90.63861
117.7079, 145.2130
118.1900, 197.2328
118.6721, 242.7999
119.1542, 283.2303
119.6363, 317.3998
120.1184, 339.0531
120.6006, 367.6390
121.0827, 421.1314
121.5648, 493.4793
122.0469, 564.6633
122.5290, 619.5499
123.0111, 667.1567
123.4933, 718.5984
123.9754, 775.5648
124.4575, 837.5698
124.9396, 881.7053
125.4217, 914.6261
125.9038, 947.6854
126.3860, 969.0369
126.8681, 984.2041
127.3502, 1006.075
127.8323, 1043.032
128.3144, 1088.793
128.7965, 1133.941
129.2787, 1179.597
129.7608, 1216.579
130.2429, 1228.605
130.7250, 1218.235
131.2071, 1208.235
131.6892, 1215.470
132.1714, 1235.312
132.6535, 1240.117
133.1356, 1225.941
133.6177, 1198.514
134.0998, 1167.417
134.5819, 1131.984
135.0640, 1098.961
135.5462, 1074.175
136.0283, 1057.993
136.5104, 1041.953
136.9925, 1024.413
137.4746, 1006.000
137.9567, 993.5320
138.4389, 992.4426
138.9210, 985.6006
139.4031, 951.6168
139.8852, 881.0380
140.3673, 818.2295
140.8494, 774.8871
141.3316, 752.6843
141.8137, 730.7058
142.2958, 708.7672
142.7779, 686.9446
143.2600, 663.1188
143.7421, 628.3899
144.2243, 606.5913
144.7064, 609.9888
145.1885, 661.9133
145.6706, 686.5920
146.1527, 672.4996
146.6348, 631.6058
147.1170, 600.6962
147.5991, 582.8383
148.0812, 571.8566
148.5633, 564.9858
149.0454, 569.4297
149.5275, 568.6533
150.0097, 561.4933
150.4918, 548.0237
150.9739, 530.1508
151.4560, 497.8739
151.9381, 466.7365
152.4202, 447.1549
152.9024, 453.5696
153.3845, 457.7263
153.8666, 454.4728
154.3487, 442.9922
154.8308, 429.1503
155.3129, 412.0234
155.7950, 393.5452
156.2772, 376.0925
156.7593, 349.6641
157.2414, 333.2079
157.7235, 336.8728
158.2056, 368.7449
158.6877, 397.1290
159.1699, 415.3896
159.6520, 424.5369
160.1341, 426.2512
160.6162, 410.7369
161.0983, 394.8517
161.5804, 388.3439
162.0626, 395.5396
162.5447, 408.0140
163.0268, 428.1184
163.5089, 452.2627
163.9910, 468.5027
164.4731, 464.7145
164.9553, 453.8754
165.4374, 446.8275
165.9195, 445.9779
166.4016, 450.2115
166.8837, 462.9103
167.3658, 482.7433
167.8480, 497.8855
168.3301, 494.5096
168.8122, 483.8698
169.2943, 480.3397
169.7764, 502.6556
170.2585, 526.1350
170.7407, 525.8538
171.2228, 496.8007
171.7049, 467.3918
172.1870, 456.0819
172.6691, 458.2806
173.1512, 464.6362
173.6334, 477.6509
174.1155, 490.1488
174.5976, 491.0587
175.0797, 477.4272
175.5618, 462.9126
176.0439, 460.3856
176.5260, 467.9910
177.0082, 479.3516
177.4903, 498.5144
177.9724, 517.9952
178.4545, 520.8152
178.9366, 499.2767
179.4187, 473.3138
179.9009, 472.3346
180.3830, 493.0493
180.8651, 513.5032
181.3472, 517.8538
181.8293, 510.3408
182.3114, 502.1106
182.7936, 494.2888
183.2757, 488.0203
183.7578, 487.2817
184.2399, 491.9312
184.7220, 494.5022
185.2041, 487.6265
185.6863, 472.7224
186.1684, 456.0579
186.6505, 436.1147
187.1326, 416.7263
187.6147, 409.7788
188.0968, 416.4070
188.5790, 425.3103
189.0611, 423.3464
189.5432, 411.5625
190.0253, 401.9518
190.5074, 400.7545
190.9895, 405.6226
191.4717, 405.2141
191.9538, 399.3909
192.4359, 388.9774
192.9180, 372.0566
193.4001, 348.2898
193.8822, 329.0531
194.3644, 322.2133
194.8465, 326.7522
195.3286, 325.1879
195.8107, 317.7406
196.2928, 305.9377
196.7749, 290.9675
197.2570, 273.0591
197.7392, 250.7932
198.2213, 217.8658
198.7034, 173.0619
199.1855, 149.5436
199.6676, 155.3436
200.1497, 176.0557
200.6319, 177.5206
201.1140, 155.4536
201.5961, 131.5266
202.0782, 120.5468
202.5603, 124.3140
203.0424, 121.5378
203.5246, 109.8711
204.0067, 92.26416
204.4888, 73.21704
204.9709, 49.73840
205.4530, 34.22778
205.9352, 39.45935
206.4173, 70.80945
206.8994, 93.48193
207.3815, 99.46387
207.8636, 92.84961
208.3457, 95.62024
208.8279, 112.0103
209.3100, 127.7046
209.7921, 127.4286
210.2742, 104.8677
210.7563, 90.71057
211.2384, 93.02075
211.7206, 110.3547
212.2027, 124.5903
212.6848, 136.0568
213.1669, 142.4084
213.6490, 140.2776
214.1311, 127.9792
214.6133, 115.9620
215.0954, 106.0487
215.5775, 98.44910
216.0596, 97.05933
216.5417, 103.0364
217.0238, 111.6233
217.5059, 118.0125
217.9881, 123.8173
218.4702, 126.1366
218.9523, 123.6686
219.4344, 115.7063
219.9165, 107.2866
220.3986, 97.13708
220.8808, 87.76416
221.3629, 83.03333
221.8450, 81.24609
222.3271, 85.28479
222.8092, 100.0293
223.2913, 133.3101
223.7735, 147.9778
224.2556, 135.6432
224.7377, 109.5970
225.2198, 95.70544
225.7019, 99.36279
226.1840, 105.7710
226.6662, 109.0503
227.1483, 106.5123
227.6304, 109.0306
228.1125, 123.0327
228.5946, 139.6199
229.0767, 135.9296
229.5589, 96.21790
230.0410, 60.24036
230.5231, 46.56946
231.0052, 70.02783
231.4873, 82.81458
231.9694, 80.48486
232.4516, 68.14734
232.9337, 61.06531
233.4158, 60.65100
233.8979, 63.52588
234.3800, 68.99414
234.8621, 81.18970
235.3443, 87.13269
235.8264, 84.53381
236.3085, 75.37256
236.7906, 66.90955
237.2727, 58.14331
237.7548, 51.41663
238.2369, 47.99304
238.7191, 48.55212
239.2012, 51.09753
239.6833, 55.68896
240.1654, 62.11816
240.6475, 69.97876
241.1296, 81.96838
241.6118, 91.83801
242.0939, 95.19128
242.5760, 88.37476
243.0581, 82.17834
243.5402, 77.09778
244.0223, 73.28357
244.5045, 72.32483
244.9866, 78.85938
245.4687, 82.65063
245.9508, 74.58752
246.4329, 42.67786
246.9150, 24.47949
247.3972, 30.68921
247.8793, 57.46765
248.3614, 68.30103
248.8435, 54.80066
249.3256, 35.56360
249.8077, 24.28381
250.2899, 22.96570
250.7720, 25.74463
251.2541, 36.52917
251.7362, 53.42090
252.2183, 50.91919
252.7004, 15.82544
253.1826, 22.23621
253.6647, 38.48413
254.1468, 23.32861
254.6289, 6.978638
255.1110, 8.215942
255.5931, 21.97400
256.0753, 27.59814
256.5574, 24.19641
257.0395, 14.11572
257.5216, 2.551880
258.0037, 32.10400
258.4858, 53.13037
258.9680, 61.38733
259.4501, 57.20483
259.9322, 44.93835
260.4143, 17.26965
260.8964, 8.155396
261.3785, 12.95422
261.8607, 11.41003
262.3428, 33.30322
262.8249, 47.91870
263.3070, 55.23242
263.7891, 55.41736
264.2712, 44.52454
264.7534, 32.73645
265.2355, 31.34607
265.7176, 45.06982
266.1997, 54.06848
266.6818, 52.38220
267.1639, 40.95996
267.6461, 36.89404
268.1282, 43.14233
268.6103, 51.46875
269.0924, 54.72229
269.5745, 53.00305
270.0566, 44.99512
270.5387, 26.55188
271.0208, 0.5930180
271.5030, 13.43579
271.9851, 9.025269
272.4672, 3.475830
272.9493, 18.42151
273.4314, 38.19360
273.9135, 46.74585
274.3957, 36.60425
274.8778, 10.51453
275.3599, 6.612061
275.8420, 12.99609
276.3241, 15.13391
276.8062, 20.95898
277.2884, 31.74268
277.7705, 34.63623
278.2526, 22.35339
278.7347, 0.8598630
279.2168, 8.030396
279.6989, 3.775269
280.1811, 21.68359
280.6632, 33.57227
281.1453, 39.19177
281.6274, 45.22522
282.1095, 53.96533
282.5916, 64.32422
283.0738, 70.29822
283.5559, 70.88293
284.0380, 72.03052
284.5201, 83.68982
285.0022, 105.1561
285.4843, 114.2281
285.9665, 98.71216
286.4486, 69.04822
286.9307, 62.57983
287.4128, 81.16821
287.8949, 106.9393
288.3770, 123.4270
288.8592, 117.5981
289.3413, 141.4169
289.8234, 157.8438
290.3055, 167.2802
290.7876, 148.7719
291.2697, 166.3546
291.7519, 169.4797
292.2340, 172.0139
292.7161, 194.6863
293.1982, 180.2577
293.6803, 202.6172
294.1624, 210.2955
294.6446, 224.6982
295.1267, 207.7795
295.6088, 238.5848
296.0909, 262.0011
296.5730, 278.4243
297.0551, 266.9034
297.5373, 291.4762
298.0194, 301.5869
298.5015, 311.1064
298.9836, 340.7646
299.4657, 333.3218
299.9478, 362.6666
300.4300, 377.3322
300.9121, 398.7196
301.3942, 405.5566
301.8763, 416.8914
302.3584, 433.0060
302.8405, 443.6200
303.3227, 452.6718
303.8048, 460.1584
304.2869, 468.8368
304.7690, 483.2786
305.2511, 505.5603
305.7332, 531.4564
306.2154, 560.7845
306.6975, 591.5066
307.1796, 617.5378
307.6617, 628.1692
308.1438, 634.9843
308.6259, 651.8740
309.1081, 685.7606
309.5901, 719.6997
310.0723, 738.7406
310.5544, 748.1558
311.0365, 761.1194
311.5186, 786.0985
312.0007, 818.7357
312.4828, 856.0786
312.9650, 900.9360
313.4471, 939.3118
313.9292, 957.4973
314.4113, 963.6360
314.8934, 974.1375
315.3755, 996.4155
315.8577, 1023.056
316.3398, 1052.547
316.8219, 1088.412
317.3040, 1117.792
317.7861, 1130.728
318.2682, 1136.037
318.7504, 1145.824
319.2325, 1168.437
319.7146, 1189.940
320.1967, 1201.396
320.6788, 1198.814
321.1609, 1204.857
321.6431, 1237.607
322.1252, 1279.245
322.6073, 1306.768
323.0894, 1306.262
323.5715, 1298.228
324.0536, 1286.042
324.5358, 1268.781
325.0179, 1259.811
325.5000, 1270.847
325.9821, 1285.184
326.4642, 1286.850
326.9464, 1265.103
327.4285, 1241.792
327.9106, 1221.364
328.3927, 1204.990
328.8748, 1186.028
329.3569, 1159.376
329.8391, 1131.613
330.3212, 1107.879
330.8033, 1087.586
331.2854, 1071.817
331.7675, 1065.402
332.2496, 1068.155
332.7318, 1060.818
333.2139, 1036.063
333.6960, 1008.016
334.1781, 986.1270
334.6602, 970.9988
335.1423, 961.0349
335.6245, 957.9885
336.1066, 959.7903
336.5887, 956.8137
337.0708, 949.7700
337.5529, 938.7921
338.0350, 920.4200
338.5172, 890.2307
338.9993, 872.0684
339.4814, 870.5613
339.9635, 879.8062
340.4456, 885.4041
340.9277, 887.1694
341.4099, 886.6526
341.8920, 883.5909
342.3741, 878.0410
342.8562, 875.2837
343.3383, 876.5454
343.8204, 878.9148
344.3026, 877.7078
344.7847, 872.9463
345.2668, 865.8157
345.7489, 853.4609
346.2310, 838.2036
346.7131, 832.5847
347.1953, 837.9089
347.6774, 847.8165
348.1595, 856.3114
348.6416, 863.0254
349.1237, 866.8123
349.6058, 868.1277
350.0880, 865.9521
350.5700, 856.3307
351.0522, 838.9628
351.5343, 821.3416
352.0164, 812.2891
352.4985, 808.1478
352.9806, 801.0269
353.4627, 785.7079
353.9449, 767.8921
354.4270, 752.9875
354.9091, 741.0287
355.3912, 731.5028
355.8733, 730.6731
356.3554, 730.0446
356.8376, 717.7578
357.3197, 675.9812
357.8018, 639.4310
358.2839, 641.0000
358.7660, 670.4874
359.2481, 687.7512
359.7303, 658.2913
360.2124, 617.8206
360.6945, 592.3162
361.1766, 591.9481
361.6587, 598.3821
362.1408, 612.6163
362.6230, 628.7131
363.1051, 633.4666
363.5872, 611.7334
364.0693, 586.5991
364.5514, 568.4283
365.0335, 559.0920
365.5157, 553.6091
365.9978, 557.8063
366.4799, 564.0007
366.9620, 560.8378
367.4441, 529.8501
367.9262, 506.4735
368.4084, 501.6746
368.8905, 517.4940
369.3726, 533.3896
369.8547, 553.7266
370.3368, 571.7504
370.8189, 581.8477
371.3011, 580.2729
371.7832, 574.6366
372.2653, 561.9924
372.7474, 542.8584
373.2295, 536.9016
373.7116, 550.9210
374.1938, 570.7751
374.6759, 585.1182
375.1580, 591.0829
375.6401, 597.8907
376.1222, 606.5957
376.6043, 617.8989
377.0865, 636.4976
377.5686, 664.5557
378.0507, 690.3289
378.5328, 703.7208
379.0149, 704.7001
379.4970, 712.1858
379.9792, 728.3777
380.4613, 748.9634
380.9434, 765.8297
381.4255, 779.6497
381.9076, 795.5635
382.3897, 817.1908
382.8719, 841.2997
383.3540, 858.1243
383.8361, 866.8250
384.3182, 875.2612
384.8003, 894.0181
385.2824, 919.3384
385.7646, 941.3306
386.2467, 959.7351
386.7288, 971.1757
387.2109, 968.0155
387.6930, 951.2651
388.1751, 933.8625
388.6573, 922.6648
389.1394, 915.3342
389.6215, 911.7478
390.1036, 920.6908
390.5857, 923.7754
391.0678, 903.2129
391.5499, 864.9194
392.0320, 830.4792
392.5142, 816.7979
392.9963, 807.5413
393.4784, 790.4231
393.9605, 759.6174
394.4426, 728.4088
394.9247, 702.1637
395.4069, 677.0444
395.8890, 648.0950
396.3711, 609.5762
396.8532, 571.9027
397.3353, 539.6842
397.8174, 515.0299
398.2996, 486.5133
398.7817, 441.3175
399.2638, 436.8518
399.7459, 424.9785
400.2280, 406.0974
400.7101, 359.2645
401.1923, 348.5195
401.6744, 323.3149
402.1565, 297.5204
402.6386, 291.8606
403.1207, 249.0997
403.6028, 243.1226
404.0850, 222.4700
404.5671, 208.5905
405.0492, 180.2122
405.5313, 156.3688
406.0134, 147.0813
406.4955, 129.6426
406.9777, 99.47791
407.4598, 74.00989
407.9419, 88.06909
408.4240, 94.73438
408.9061, 94.40564
409.3882, 66.12793
409.8704, 73.93811
410.3525, 67.28589
410.8346, 60.04175
411.3167, 72.94043
411.7988, 48.85449
412.2809, 61.55627
412.7631, 59.44141
413.2452, 64.04700
413.7273, 54.09985
414.2094, 48.64600
414.6915, 57.74951
415.1736, 58.79114
415.6558, 47.16479
416.1379, 52.19263
416.6200, 27.46326
417.1021, 28.84485
417.5842, 41.49036
418.0663, 30.59033
418.5485, 35.87830
419.0306, 34.99988
419.5127, 6.098755
419.9948, 25.92639
420.4769, 24.67932
420.9590, 3.550659
421.4412, 1.669678
421.9233, 3.743042
422.4054, 1.372314
422.8875, 6.365967
423.3696, 12.18054
423.8517, 16.45032
424.3339, 17.65186
424.8160, 14.19836
425.2981, 3.559204
425.7802, 12.48474
426.2623, 3.845581
426.7444, 17.72192
427.2266, 22.88733
427.7087, 2.318237
428.1908, 20.50806
428.6729, 33.63049
429.1550, 35.97058
429.6371, 31.63428
430.1193, 17.32361
430.6014, 0.3121340
431.0835, 3.718262
431.5656, 7.049683
432.0477, 15.21008
432.5298, 11.82532
433.0119, 0.7794190
433.4940, 9.166748
433.9762, 13.28662
434.4583, 13.59131
434.9404, 7.986450
435.4225, 1.659912
435.9046, 8.462646
436.3867, 10.28381
436.8689, 8.528931
437.3510, 1.482178
437.8331, 9.120972
438.3152, 14.00757
438.7973, 0.3588870
439.2794, 19.30969
439.7616, 30.22534
440.2437, 27.99573
440.7258, 23.25366
441.2079, 22.41736
441.6900, 23.60693
442.1721, 23.64465
442.6543, 19.38318
443.1364, 15.38708
443.6185, 13.64612
444.1006, 14.32349
444.5827, 16.33179
445.0648, 24.41284
445.5470, 30.89636
446.0291, 29.96289
446.5112, 11.59558
446.9933, 3.106812
447.4754, 12.68774
447.9576, 17.51245
448.4397, 18.97327
448.9218, 16.55225
449.4039, 11.56018
449.8860, 3.567627
450.3681, 9.144653
450.8503, 17.80908
451.3324, 22.91736
451.8145, 23.34619
452.2966, 14.68787
452.7787, 5.161865
453.2608, 18.21167
453.7430, 16.44006
454.2251, 4.391846
454.7072, 0.4633790
455.1893, 5.078125
455.6714, 12.22473
456.1535, 17.47815
456.6357, 21.25623
457.1178, 24.88586
457.5999, 28.47644
458.0820, 32.22998
458.5641, 37.62549
459.0462, 43.66406
459.5284, 47.08447
460.0105, 45.35510
460.4926, 40.73657
460.9747, 34.50208
461.4568, 26.57959
461.9389, 19.70374
462.4211, 14.03259
462.9032, 10.73315
463.3853, 11.13611
463.8674, 20.26270
464.3495, 28.28455
464.8316, 30.69531
465.3138, 28.98804
465.7959, 30.08960
466.2780, 40.27014
466.7601, 49.29639
467.2422, 52.60876
467.7243, 48.61694
468.2065, 41.92993
468.6886, 27.40698
469.1707, 13.39233
469.6528, 12.87183
470.1349, 33.03992
470.6170, 50.05261
471.0992, 58.29846
471.5813, 58.39221
472.0634, 54.07068
472.5455, 43.85217
473.0276, 35.03052
473.5097, 34.18677
473.9918, 40.76086
474.4739, 47.87366
474.9561, 55.27551
475.4382, 61.46838
475.9203, 63.44714
476.4024, 61.80469
476.8845, 59.38721
477.3666, 55.92773
477.8488, 53.24731
478.3309, 55.23083
478.8130, 61.98669
479.2951, 67.57520
479.7772, 68.30969
480.2593, 65.44470
480.7415, 59.74402
481.2236, 46.30786
481.7057, 36.84619
482.1878, 39.76685
482.6699, 51.23523
483.1520, 60.18982
483.6342, 56.95947
484.1163, 56.56409
484.5984, 66.33423
485.0805, 91.31384
485.5626, 109.8126
486.0447, 119.2966
486.5269, 121.8650
487.0090, 119.2203
487.4911, 108.4900
487.9732, 99.65686
488.4553, 92.89624
488.9374, 88.29285
489.4196, 89.75171
489.9017, 98.07129
490.3838, 110.6660
490.8659, 129.0082
491.3480, 152.0872
491.8301, 167.1875
492.3123, 172.7346
492.7944, 174.4030
493.2765, 178.5493
493.7586, 184.6627
494.2407, 191.4709
494.7228, 197.9331
495.2050, 205.8325
495.6871, 216.5525
496.1692, 230.0276
496.6513, 246.5227
497.1334, 271.7517
497.6155, 296.6129
498.0977, 311.9340
498.5798, 313.5575
499.0619, 312.9930
499.5440, 312.7205
500.0261, 314.4484
500.5082, 320.8717
500.9904, 336.2252
501.4725, 352.4509
501.9546, 366.2649
502.4367, 377.4542
502.9188, 392.5839
503.4009, 420.3979
503.8831, 444.6772
504.3652, 456.5400
504.8473, 449.1036
505.3294, 444.4078
505.8115, 443.2356
506.2936, 444.4083
506.7758, 447.6121
507.2579, 454.1489
507.7400, 454.2201
508.2221, 441.1111
508.7042, 418.7977
509.1863, 402.5466
509.6685, 392.7045
510.1506, 388.9399
510.6327, 395.5988
511.1148, 407.1870
511.5969, 411.4969
512.0790, 404.2822
512.5612, 395.5016
513.0433, 395.2568
513.5254, 401.1791
514.0075, 408.3842
514.4896, 414.8781
514.9717, 421.6873
515.4539, 430.3119
515.9360, 440.5969
516.4181, 449.0273
516.9002, 456.1761
517.3823, 459.9124
517.8644, 458.5892
518.3466, 445.9144
518.8287, 437.3131
519.3108, 432.6726
519.7929, 432.6986
520.2750, 424.7681
520.7571, 445.0388
521.2393, 457.9197
521.7214, 463.8929
522.2035, 441.9731
522.6856, 456.1447
523.1677, 455.8518
523.6498, 454.9636
524.1320, 474.2112
524.6141, 456.3524
525.0962, 475.2776
525.5783, 479.5176
526.0604, 490.4773
526.5425, 486.8739
527.0247, 487.6470
527.5068, 502.9694
527.9889, 510.3633
528.4710, 505.0896
528.9531, 516.4695
529.4352, 498.0913
529.9174, 505.8242
530.3995, 524.8219
530.8816, 504.1938
531.3637, 498.8268
531.8458, 499.0565
532.3279, 501.5846
532.8101, 506.9916
533.2922, 513.8586
533.7743, 519.9717
534.2564, 528.6849
534.7385, 532.2887
535.2206, 527.6641
535.7027, 515.7183
536.1848, 505.7061
536.6669, 495.6088
537.1490, 491.2322
537.6312, 500.4756
538.1133, 525.9639
538.5954, 535.6787
539.0775, 523.9016
539.5596, 505.3450
540.0417, 502.8834
540.5239, 513.9917
541.0060, 519.8284
541.4881, 508.8629
541.9702, 492.7842
542.4523, 490.7065
542.9344, 500.4690
543.4166, 509.7262
543.8987, 509.3969
544.3808, 506.0698
544.8629, 505.3655
545.3450, 508.5607
545.8271, 514.8229
546.3093, 526.8010
546.7914, 538.6041
547.2735, 544.5819
547.7556, 538.6781
548.2377, 533.6172
548.7198, 530.3588
549.2020, 529.9733
549.6841, 534.1974
550.1662, 547.1798
550.6483, 556.1595
551.1304, 555.3293
551.6125, 544.3978
552.0947, 535.4706
552.5768, 529.2695
553.0589, 523.1528
553.5410, 512.3649
554.0231, 498.3577
554.5052, 491.7611
554.9874, 495.1826
555.4695, 503.1831
555.9516, 508.0836
556.4337, 510.6665
556.9158, 513.3037
557.3979, 520.3706
557.8801, 525.7305
558.3622, 522.2002
558.8443, 510.2521
559.3264, 499.0273
559.8085, 495.7419
560.2906, 493.0773
560.7728, 484.9398
561.2549, 463.1162
561.7370, 449.2006
562.2191, 454.0375
562.7012, 465.4277
563.1833, 466.6399
563.6655, 451.7065
564.1476, 437.4418
564.6297, 427.0947
565.1118, 420.1835
565.5939, 413.1434
566.0760, 405.5548
566.5582, 399.4637
567.0403, 395.1770
567.5224, 393.0894
568.0045, 398.2867
568.4866, 412.5137
568.9688, 422.7756
569.4509, 409.7845
569.9330, 383.1881
570.4151, 362.9619
570.8972, 358.8094
571.3793, 357.6820
571.8615, 350.5715
572.3436, 338.6310
572.8257, 324.9249
573.3078, 302.2993
573.7899, 285.4762
574.2720, 285.0596
574.7542, 303.2334
575.2363, 315.4036
575.7184, 320.6292
576.2005, 318.0902
576.6826, 305.0916
577.1647, 272.0143
577.6469, 254.1426
578.1290, 259.5078
578.6111, 272.7090
579.0932, 265.3280
579.5753, 235.3588
580.0574, 215.3915
580.5396, 222.0314
581.0217, 240.9525
581.5038, 232.8018
581.9859, 200.4801
582.4680, 170.5914
582.9501, 165.1580
583.4323, 170.1436
583.9144, 167.6630
584.3965, 155.3834
584.8786, 142.4755
585.3607, 133.7529
585.8428, 127.5315
586.3250, 121.9949
586.8071, 117.9249
587.2892, 113.0729
587.7713, 105.9097
588.2534, 97.76208
588.7355, 91.94519
589.2177, 90.65125
589.6998, 88.28455
590.1819, 83.24072
590.6640, 75.63062
591.1461, 66.73999
591.6282, 55.84790
592.1104, 46.29028
592.5925, 42.58698
593.0746, 43.25415
593.5567, 37.77124
594.0388, 24.64154
594.5209, 9.264099
595.0031, 5.724304
595.4852, 18.14569
595.9673, 23.24518
596.4494, 13.50275
596.9315, 3.299316
597.4136, 5.552917
597.8958, 15.66681
598.3779, 21.24158
598.8600, 12.38110
599.3421, 3.130737
599.8242, 0.6199950
600.3063, 1.921204
600.7885, 5.138489
601.2706, 7.035706
601.7527, 11.47382
602.2348, 23.14471
602.7169, 46.79407
603.1990, 57.72516
603.6812, 53.05109
604.1633, 39.05829
604.6454, 19.72211
605.1275, 3.723022
605.6096, 15.50916
606.0917, 6.193359
606.5739, 11.39771
607.0560, 18.43073
607.5381, 16.27521
608.0202, 10.76093
608.5023, 3.457397
608.9844, 4.569702
609.4666, 14.67310
609.9487, 27.09644
610.4308, 32.19830
610.9129, 15.59833
611.3950, 2.446533
611.8771, 7.076843
612.3593, 18.65106
612.8414, 31.70056
613.3235, 26.00763
613.8056, 12.06573
614.2877, 3.662659
614.7698, 0.9981080
615.2520, 3.701172
615.7341, 13.71936
616.2162, 27.51276
616.6983, 33.86224
617.1804, 33.28827
617.6625, 35.15082
618.1446, 48.74628
618.6267, 66.54584
619.1088, 76.99524
619.5909, 79.74060
620.0731, 77.67059
620.5552, 66.51270
621.0373, 54.91998
621.5194, 51.39996
622.0015, 61.02252
622.4836, 69.95258
622.9658, 73.55505
623.4479, 74.77545
623.9300, 77.54504
624.4121, 84.55347
624.8942, 88.57416
625.3763, 86.77142
625.8585, 82.05566
626.3406, 83.50848
626.8227, 91.91626
627.3048, 102.1926
627.7869, 112.9316
628.2690, 123.8115
628.7512, 133.1212
629.2333, 140.9863
629.7154, 148.6011
630.1975, 156.8864
630.6796, 165.6109
631.1617, 174.1548
631.6439, 182.3484
632.1260, 191.4600
632.6081, 204.1759
633.0902, 217.3232
633.5723, 227.4498
634.0544, 226.6186
634.5366, 231.2427
635.0187, 248.0037
635.5008, 270.7120
635.9829, 285.0074
636.4650, 283.7279
636.9471, 290.0353
637.4293, 313.4080
637.9114, 349.7264
638.3935, 378.9400
638.8756, 400.7444
639.3577, 418.8077
639.8398, 429.9390
640.3220, 440.2271
640.8041, 467.2280
641.2862, 512.6866
641.7683, 557.5162
642.2504, 584.1583
642.7325, 602.6421
643.2147, 623.2455
643.6968, 647.7588
644.1789, 676.3880
644.6610, 709.1083
645.1431, 746.3104
645.6252, 789.7421
646.1074, 844.2100
646.5895, 896.6739
647.0716, 942.2889
647.5537, 985.0465
648.0358, 1037.371
648.5179, 1100.562
649.0001, 1166.374
649.4822, 1231.755
649.9643, 1296.499
650.4464, 1354.716
650.9285, 1406.555
651.4106, 1463.713
651.8928, 1541.958
652.3749, 1626.065
652.8570, 1694.189
653.3391, 1738.899
653.8212, 1789.714
654.3033, 1868.266
654.7855, 1958.550
655.2676, 2043.550
655.7497, 2104.930
656.2318, 2179.248
656.7139, 2279.202
657.1960, 2389.775
657.6782, 2480.761
658.1603, 2547.056
658.6424, 2608.509
659.1245, 2668.805
659.6066, 2728.814
660.0887, 2791.438
660.5709, 2855.517
661.0530, 2916.125
661.5351, 2976.690
662.0172, 3029.956
662.4993, 3065.283
662.9814, 3082.318
663.4636, 3081.072
663.9457, 3057.323
664.4278, 3017.911
664.9099, 2967.335
665.3920, 2903.150
665.8741, 2838.844
666.3563, 2786.608
666.8384, 2729.085
667.3205, 2651.223
667.8026, 2546.719
668.2847, 2437.321
668.7668, 2322.960
669.2490, 2207.062
669.7311, 2093.601
670.2132, 1984.852
670.6953, 1888.085
671.1774, 1814.455
671.6595, 1745.451
672.1417, 1639.979
672.6238, 1510.176
673.1059, 1398.349
673.5880, 1343.344
674.0701, 1300.879
674.5522, 1240.127
675.0344, 1160.643
675.5165, 1087.908
675.9986, 1028.975
676.4807, 976.6382
676.9628, 927.2407
677.4449, 881.3734
677.9271, 839.9561
678.4092, 806.3027
678.8913, 773.1921
679.3734, 727.7257
679.8555, 672.7880
680.3376, 636.4128
680.8198, 626.2274
681.3019, 624.3152
681.7840, 611.9055
682.2661, 590.2693
682.7482, 562.8766
683.2303, 529.0898
683.7125, 493.3855
684.1946, 451.3806
684.6767, 410.3011
685.1588, 383.7051
685.6409, 396.0593
686.1230, 398.2240
686.6052, 367.6886
687.0873, 311.5421
687.5694, 289.6156
688.0515, 314.3190
688.5336, 339.9163
689.0157, 342.2405
689.4979, 324.2346
689.9800, 307.5646
690.4621, 292.2786
690.9442, 277.9446
691.4263, 260.8452
691.9084, 245.3879
692.3906, 240.4867
692.8727, 249.4532
693.3548, 255.6516
693.8369, 247.6061
694.3190, 233.2405
694.8011, 220.2738
695.2833, 207.8461
695.7654, 200.3442
696.2475, 201.1172
696.7296, 204.8254
697.2117, 203.0875
697.6938, 194.2136
698.1760, 186.2286
698.6581, 179.9148
699.1402, 176.6099
699.6223, 181.4967
700.1044, 193.2919
700.5865, 203.6469
701.0686, 210.7151
701.5507, 212.7852
702.0328, 206.8834
702.5150, 193.8887
702.9971, 178.0570
703.4792, 151.6844
703.9613, 131.2272
704.4434, 128.3608
704.9255, 146.5945
705.4077, 156.0782
705.8898, 152.3743
706.3719, 145.3656
706.8540, 141.6770
707.3361, 126.6926
707.8182, 140.0225
708.3004, 145.9507
708.7825, 144.8761
709.2646, 115.8442
709.7467, 122.8929
710.2288, 115.4708
710.7109, 107.4507
711.1931, 119.5619
711.6752, 94.56860
712.1573, 106.3566
712.6394, 103.4532
713.1215, 107.2649
713.6036, 96.52271
714.0858, 90.27185
714.5679, 98.57410
715.0500, 98.81116
715.5321, 86.37317
716.0142, 76.66992
716.4963, 70.50305
716.9785, 63.73938
717.4606, 61.76160
717.9427, 64.13879
718.4248, 64.08765
718.9069, 55.76465
719.3890, 44.48181
719.8712, 37.46472
720.3533, 34.10388
720.8354, 30.87451
721.3175, 25.31055
721.7996, 19.93933
722.2817, 15.81189
722.7639, 12.97961
723.2460, 12.49854
723.7281, 16.50342
724.2102, 20.18762
724.6923, 20.71704
725.1744, 17.63452
725.6566, 15.07471
726.1387, 13.22107
726.6208, 11.02954
727.1029, 7.527710
727.5850, 2.911377
728.0671, 2.865845
728.5493, 10.24023
729.0314, 16.52527
729.5135, 20.60425
729.9956, 22.07666
730.4777, 20.13098
730.9598, 6.578369
731.4420, 0.9631350
731.9241, 15.64270
732.4062, 36.55957
732.8883, 44.81189
733.3704, 36.98083
733.8525, 26.31665
734.3347, 12.40454
734.8168, 3.5399999E-02
735.2989, 5.481445
735.7810, 25.30371
736.2631, 32.20593
736.7452, 2.626099
737.2274, 33.15088
737.7095, 38.30151
738.1916, 20.61169
738.6737, 4.037720
739.1558, 6.582886
739.6379, 8.633057
740.1201, 7.210938
740.6022, 38.15759
741.0843, 45.39368
741.5664, 12.31909
742.0485, 15.14087
742.5306, 15.34241
743.0128, 9.343628
743.4949, 31.19995
743.9770, 50.54004
744.4591, 63.53577
744.9412, 64.50476
745.4233, 58.17139
745.9055, 50.13452
746.3876, 40.77405
746.8697, 36.13635
747.3518, 42.45642
747.8339, 53.16028
748.3160, 64.66479
748.7982, 80.84729
749.2803, 84.73560
749.7624, 68.28369
750.2445, 47.84912
750.7266, 35.10425
751.2087, 29.54675
751.6909, 39.29138
752.1730, 68.29419
752.6551, 99.75916
753.1372, 112.5204
753.6193, 112.4281
754.1014, 113.5764
754.5836, 119.8461
755.0657, 127.0452
755.5478, 134.2271
756.0299, 139.9965
756.5120, 142.6167
756.9941, 140.3746
757.4763, 136.2435
757.9584, 125.0830
758.4405, 115.0859
758.9226, 124.4478
759.4047, 158.5010
759.8868, 183.5698
760.3690, 190.7740
760.8511, 186.5626
761.3332, 180.2993
761.8153, 173.0013
762.2974, 168.7498
762.7795, 172.4935
763.2617, 177.3939
763.7438, 178.6927
764.2259, 176.9506
764.7080, 173.8308
765.1901, 163.8112
765.6722, 159.3685
766.1544, 167.2705
766.6365, 184.4843
767.1186, 191.2532
767.6007, 185.5072
768.0828, 177.8887
768.5649, 172.8013
769.0471, 169.7749
769.5292, 166.3861
770.0113, 163.0542
770.4934, 163.6096
770.9755, 178.5184
771.4576, 192.5197
771.9398, 189.0331
772.4219, 167.6840
772.9040, 153.1594
773.3861, 161.8932
773.8682, 169.5764
774.3503, 162.4891
774.8325, 137.9093
775.3146, 129.4707
775.7967, 140.4423
776.2788, 155.4380
776.7609, 164.6505
777.2430, 168.3687
777.7252, 165.7256
778.2073, 156.5131
778.6894, 148.5339
779.1715, 151.1260
779.6536, 155.7678
780.1357, 154.6249
780.6179, 146.1167
781.1000, 133.3668
781.5821, 108.0278
782.0642, 85.62683
782.5463, 78.53271
783.0284, 92.08118
783.5105, 98.00317
783.9926, 93.58655
784.4747, 88.04614
784.9568, 92.58459
785.4390, 104.3572
785.9211, 115.1323
786.4032, 124.1987
786.8853, 127.9906
787.3674, 121.6932
787.8495, 109.6141
788.3317, 96.15955
788.8138, 77.11316
789.2959, 67.15320
789.7780, 73.39124
790.2601, 82.77954
790.7422, 80.82874
791.2244, 65.84912
791.7065, 57.64819
792.1886, 60.64087
792.6707, 66.46899
793.1528, 56.09131
793.6349, 36.93115
794.1171, 35.62195
794.5992, 73.05237
795.0813, 107.4152
795.5634, 103.8260
796.0455, 81.18799
796.5276, 68.22681
797.0098, 84.88855
797.4919, 92.00183
797.9740, 81.64685
798.4561, 64.16138
798.9382, 58.92896
799.4203, 66.47302
799.9025, 73.53796
800.3846, 78.92065
800.8667, 84.38635
801.3488, 90.12012
801.8309, 95.41516
802.3130, 99.29883
802.7952, 98.64404
803.2773, 99.62610
803.7594, 107.0227
804.2415, 118.0023
804.7236, 126.2927
805.2057, 132.4448
805.6879, 133.7250
806.1700, 126.2932
806.6521, 116.2997
807.1342, 122.3993
807.6163, 143.7151
808.0984, 156.2223
808.5806, 146.0126
809.0627, 129.9144
809.5448, 128.8486
810.0269, 139.1195
810.5090, 151.8749
810.9911, 171.3048
811.4733, 184.2054
811.9554, 181.0458
812.4375, 167.5250
812.9196, 162.1321
813.4017, 170.0140
813.8839, 171.1602
814.3660, 155.7382
814.8481, 134.3802
815.3302, 139.1526
815.8123, 165.9276
816.2944, 187.8163
816.7766, 189.2914
817.2587, 183.5869
817.7408, 177.0537
818.2229, 172.3550
818.7050, 176.8920
819.1871, 209.5344
819.6693, 232.2135
820.1514, 233.6554
820.6335, 218.6670
821.1156, 200.4445
821.5977, 176.9078
822.0798, 163.9709
822.5620, 170.2465
823.0441, 188.2550
823.5262, 208.2239
824.0083, 227.1888
824.4904, 234.9614
824.9725, 219.2954
825.4547, 197.2626
825.9368, 172.8313
826.4189, 149.6063
826.9010, 138.9545
827.3831, 151.6169
827.8652, 160.4219
828.3474, 158.0219
828.8295, 147.2517
829.3116, 136.6509
829.7937, 126.2596
830.2758, 117.7588
830.7579, 112.2632
831.2401, 108.1561
831.7222, 103.1375
832.2043, 98.83130
832.6864, 98.10632
833.1685, 110.2172
833.6506, 117.3490
834.1328, 109.1477
834.6149, 91.00000
835.0970, 79.41870
835.5791, 76.66699
836.0612, 72.09229
836.5433, 59.63416
837.0255, 46.32605
837.5076, 53.59338
837.9897, 75.91333
838.4718, 88.94006
838.9539, 69.19373
839.4360, 46.74243
839.9182, 44.13000
840.4003, 55.27368
840.8824, 63.74524
841.3645, 63.85278
841.8466, 61.56921
842.3287, 57.31763
842.8109, 52.25049
843.2930, 48.29968
843.7751, 45.47778
844.2572, 41.96155
844.7393, 35.58325
845.2214, 30.08911
845.7036, 33.20178
846.1857, 41.68567
846.6678, 47.58264
847.1499, 43.87524
847.6320, 41.18347
848.1141, 44.37476
848.5963, 51.15051
849.0784, 56.05713
849.5605, 56.03333
850.0426, 57.06482
850.5247, 62.85364
851.0068, 69.00635
851.4890, 62.79199
851.9711, 48.91357
852.4532, 44.52014
852.9353, 61.16833
853.4174, 80.89087
853.8995, 95.49561
854.3817, 104.0948
854.8638, 105.0132
855.3459, 87.59790
855.8280, 78.64001
856.3101, 84.42542
856.7922, 95.73840
857.2744, 95.06201
857.7565, 83.19409
858.2386, 78.07336
858.7207, 86.01562
859.2028, 95.80493
859.6849, 93.71252
860.1671, 85.36084
860.6492, 79.44666
861.1313, 79.04138
861.6134, 80.50977
862.0955, 87.61963
862.5776, 93.39160
863.0598, 90.27332
863.5419, 77.19165
864.0240, 57.97302
864.5061, 29.78613
864.9882, 5.900269
865.4703, 8.747314
865.9524, 27.24329
866.4345, 36.55725
866.9166, 29.85522
867.3987, 20.46631
867.8809, 13.30115
868.3630, 8.202515
868.8451, 5.193970
869.3272, 4.811401
869.8093, 4.991089
870.2914, 5.859985
870.7736, 6.979126
871.2557, 8.515625
871.7378, 10.00330
872.2199, 8.048218
872.7020, 1.961426
873.1841, 1.823730
873.6663, 3.103516
874.1484, 11.93030
874.6305, 21.89343
875.1126, 34.62390
875.5947, 38.16602
876.0768, 25.17261
876.5590, 11.82495
877.0411, 8.647583
877.5232, 15.63281
878.0053, 20.65283
878.4874, 23.83643
878.9695, 22.87891
879.4517, 12.25671
879.9338, 1.164551
880.4159, 9.286987
880.8980, 11.79895
881.3801, 13.19556
881.8622, 17.88037
882.3444, 18.47424
882.8265, 10.63635
883.3086, 4.788330
883.7907, 17.49170
884.2728, 27.97229
884.7549, 31.74072
885.2371, 20.99622
885.7192, 4.851685
886.2013, 2.466187
886.6834, 10.10083
887.1655, 12.48352
887.6476, 8.476563
888.1298, 25.12146
888.6119, 21.22107
889.0940, 3.219971
889.5761, 7.075928
890.0582, 7.555908
890.5403, 8.253540
891.0225, 10.63708
891.5046, 15.39050
891.9867, 30.29919
892.4688, 49.81616
892.9509, 56.53528
893.4330, 32.08118
893.9152, 8.080688
894.3973, 1.082031
894.8794, 5.431641
895.3615, 10.62000
895.8436, 18.57788
896.3257, 22.53638
896.8079, 21.25842
897.2900, 15.31201
897.7721, 0.3183590
898.2542, 21.43384
898.7363, 29.09546
899.2184, 16.36768
899.7006, 1.5381000E-02
900.1827, 10.14441
900.6648, 14.83777
901.1469, 14.10364
901.6290, 2.288818
902.1111, 3.362061
902.5933, 0.6329350
903.0754, 5.179810
903.5575, 10.01562
904.0396, 13.80469
904.5217, 17.18420
905.0038, 20.33203
905.4860, 18.76221
905.9681, 4.343018
906.4502, 25.44800
906.9323, 13.61877
907.4144, 39.05481
907.8965, 65.92566
908.3787, 38.03088
908.8608, 9.830322
909.3429, 9.128052
909.8250, 31.93518
910.3071, 36.24365
910.7892, 22.27747
911.2714, 9.916504
911.7535, 11.53198
912.2356, 20.74768
912.7177, 34.54492
913.1998, 50.97644
913.6819, 62.53040
914.1641, 62.26270
914.6462, 62.58655
915.1283, 67.50696
915.6104, 74.69971
916.0925, 75.93713
916.5746, 71.16992
917.0568, 70.71423
917.5389, 78.96021
918.0210, 91.30457
918.5031, 105.1245
918.9852, 118.3964
919.4673, 127.8037
919.9495, 134.2976
920.4316, 133.6444
920.9137, 120.0638
921.3958, 103.3610
921.8779, 96.32996
922.3600, 99.75977
922.8422, 101.0322
923.3243, 98.63977
923.8064, 94.17212
924.2885, 84.44824
924.7706, 75.89539
925.2527, 81.61548
925.7349, 109.8546
926.2170, 121.5468
926.6991, 80.19067
927.1812, 41.25391
927.6633, 39.93921
928.1454, 78.95642
928.6276, 94.75012
929.1097, 85.75562
929.5918, 72.48938
930.0739, 67.71533
930.5560, 68.49951
931.0381, 74.23022
931.5203, 83.30200
932.0024, 85.60815
932.4845, 71.69043
932.9666, 48.77612
933.4487, 63.25928
933.9308, 70.35974
934.4130, 70.47449
934.8951, 42.65173
935.3772, 50.92932
935.8593, 44.75354
936.3414, 37.99634
936.8235, 51.38452
937.3057, 27.67932
937.7878, 40.70544
938.2699, 38.66516
938.7520, 43.22607
939.2341, 33.17358
939.7162, 27.38782
940.1984, 36.13611
940.6805, 18.65356
941.1626, 19.69226
941.6447, 20.50012
942.1268, 20.24890
942.6089, 15.67676
943.0911, 10.66553
943.5732, 12.12061
944.0553, 23.40369
944.5374, 27.71277
945.0195, 12.04724
945.5016, 3.288818
945.9838, 6.558350
946.4659, 2.684326
946.9480, 2.719482
947.4301, 7.307739
947.9122, 16.45728
948.3943, 16.05859
948.8764, 11.75537
949.3585, 8.181641
949.8406, 5.898315
950.3228, 6.719482
950.8049, 20.55933
951.2870, 24.78540
951.7691, 8.797485
952.2512, 16.15271
952.7333, 17.24756
953.2155, 3.405762
953.6976, 11.19556
954.1797, 9.741211
954.6618, 33.75378
955.1439, 30.17407
955.6260, 15.07385
956.1082, 10.68921
956.5903, 35.33691
957.0724, 51.05872
957.5545, 54.17004
958.0366, 50.89172
958.5187, 44.78625
959.0009, 36.82178
959.4830, 35.57361
959.9651, 41.55945
960.4472, 51.17773
960.9293, 66.54846
961.4114, 80.46497
961.8936, 84.83154
962.3757, 78.85681
962.8578, 80.31750
963.3399, 94.57764
963.8220, 106.5729
964.3041, 108.9305
964.7863, 106.6825
965.2684, 112.6224
965.7505, 123.4918
966.2326, 128.2628
966.7147, 109.8066
967.1968, 97.18579
967.6790, 112.3330
968.1611, 143.4659
968.6432, 169.3134
969.1253, 192.8446
969.6074, 199.3427
970.0895, 182.1385
970.5717, 161.6305
971.0538, 169.3044
971.5359, 193.3904
972.0180, 203.3900
972.5001, 193.2758
972.9822, 184.4723
973.4644, 184.2609
973.9465, 193.1133
974.4286, 215.0179
974.9107, 250.6313
975.3928, 272.2168
975.8749, 278.0452
976.3571, 279.2777
976.8392, 276.3884
977.3213, 276.3512
977.8034, 296.7690
978.2855, 331.3672
978.7676, 359.8046
979.2498, 368.0750
979.7319, 374.7787
980.2140, 384.6658
980.6961, 396.4370
981.1782, 405.4933
981.6603, 411.4215
982.1425, 431.1565
982.6246, 471.4427
983.1067, 512.3396
983.5888, 530.4954
984.0709, 537.7628
984.5530, 546.0254
985.0352, 552.2749
985.5173, 581.1686
985.9994, 653.1539
986.4815, 721.6306
986.9636, 754.0518
987.4457, 755.1731
987.9279, 762.8679
988.4100, 777.4651
988.8921, 803.4395
989.3742, 854.9437
989.8563, 908.8179
990.3384, 943.0427
990.8206, 964.3346
991.3027, 999.1389
991.7848, 1052.412
992.2669, 1110.690
992.7490, 1174.406
993.2311, 1236.839
993.7133, 1282.808
994.1954, 1318.035
994.6775, 1360.339
995.1596, 1414.530
995.6417, 1473.761
996.1238, 1542.066
996.6060, 1607.379
997.0881, 1656.866
997.5702, 1685.472
998.0523, 1736.654
998.5344, 1814.698
999.0165, 1889.214
999.4987, 1931.862
999.9808, 1963.106
1000.463, 2018.831
1000.945, 2093.172
1001.427, 2154.638
1001.909, 2180.140
1002.391, 2207.808
1002.873, 2248.901
1003.356, 2295.664
1003.838, 2333.389
1004.320, 2362.488
1004.802, 2379.098
1005.284, 2380.595
1005.766, 2375.223
1006.248, 2372.767
1006.730, 2367.042
1007.213, 2351.119
1007.695, 2321.637
1008.177, 2288.326
1008.659, 2252.812
1009.141, 2210.128
1009.623, 2158.505
1010.105, 2096.963
1010.587, 2017.977
1011.069, 1924.645
1011.552, 1832.879
1012.034, 1752.481
1012.516, 1673.937
1012.998, 1599.877
1013.480, 1522.866
1013.962, 1424.318
1014.444, 1296.700
1014.926, 1185.084
1015.409, 1097.839
1015.891, 1026.328
1016.373, 968.6536
1016.855, 918.7382
1017.337, 863.8450
1017.819, 801.0872
1018.301, 741.4869
1018.783, 679.5107
1019.265, 631.0562
1019.748, 610.1025
1020.230, 612.0364
1020.712, 596.9019
1021.194, 566.2028
1021.676, 536.6370
1022.158, 518.1416
1022.640, 503.1058
1023.122, 488.9342
1023.604, 473.7307
1024.087, 453.0413
1024.569, 423.2849
1025.051, 395.3953
1025.533, 368.2351
1026.015, 348.8259
1026.497, 353.4451
1026.979, 370.1443
1027.461, 372.0574
1027.943, 355.2360
1028.426, 340.7888
1028.908, 342.2389
1029.390, 343.9674
1029.872, 338.4806
1030.354, 326.8942
1030.836, 311.8110
1031.318, 293.5288
1031.800, 284.0015
1032.283, 292.7778
1032.765, 306.4943
1033.247, 315.7091
1033.729, 319.8153
1034.211, 317.7847
1034.693, 310.2223
1035.175, 292.5868
1035.657, 258.1029
1036.140, 227.3278
1036.622, 226.5651
1037.104, 244.7758
1037.586, 247.7977
1038.068, 234.3363
1038.550, 223.3986
1039.032, 228.1738
1039.514, 234.8936
1039.996, 235.9983
1040.479, 233.7410
1040.961, 237.9062
1041.443, 249.2084
1041.925, 255.3999
1042.407, 252.5624
1042.889, 244.3815
1043.371, 229.2067
1043.853, 213.9818
1044.335, 209.4762
1044.818, 228.1149
1045.300, 229.5161
1045.782, 203.7422
1046.264, 176.7732
1046.746, 166.9062
1047.228, 170.1593
1047.710, 174.3821
1048.192, 178.5891
1048.675, 177.4761
1049.157, 166.0353
1049.639, 150.9122
1050.121, 129.1279
1050.603, 108.0819
1051.085, 104.5188
1051.567, 121.0945
1052.049, 125.5094
1052.531, 111.1868
1053.014, 93.99463
1053.496, 94.76294
1053.978, 99.17957
1054.460, 87.91858
1054.942, 56.04590
1055.424, 37.13464
1055.906, 38.34644
1056.388, 43.23682
1056.870, 47.28442
1057.353, 48.62061
1057.835, 39.31360
1058.317, 22.69006
1058.799, 9.014160
1059.281, 0.3498540
1059.763, 1.664063
1060.245, 9.803711
1060.727, 24.17798
1061.210, 31.73657
1061.692, 32.40039
1062.174, 25.05737
1062.656, 9.224854
1063.138, 4.716919
1063.620, 8.162109
1064.102, 6.164063
1064.584, 0.1947020
1065.067, 7.890991
1065.549, 8.005005
1066.031, 5.556030
1066.513, 14.30859
1066.995, 13.61816
1067.477, 8.340698
1067.959, 6.630737
1068.441, 6.405518
1068.923, 3.583862
1069.406, 2.227295
1069.888, 12.88928
1070.370, 36.54602
1070.852, 57.93433
1071.334, 70.35437
1071.816, 73.85938
1072.298, 65.26843
1072.780, 44.90771
1073.262, 20.93457
1073.745, 13.75378
1074.227, 36.67957
1074.709, 18.91321
1075.191, 16.90894
1075.673, 33.07971
1076.155, 22.14062
1076.637, 7.874756
1077.119, 10.96277
1077.601, 23.35583
1078.084, 14.26038
1078.566, 5.505127
1079.048, 17.77405
1079.530, 21.15723
1080.012, 27.45703
1080.494, 51.58521
1080.976, 65.15186
1081.458, 58.23999
1081.941, 39.11292
1082.423, 24.95471
1082.905, 16.65894
1083.387, 18.95874
1083.869, 36.21631
1084.351, 45.81616
1084.833, 19.59070
1085.315, 6.789917
1085.797, 3.525269
1086.280, 28.18079
1086.762, 33.64551
1087.244, 12.01782
1087.726, 0.6695560
1088.208, 19.01575
1088.690, 45.29114
1089.172, 52.60352
1089.654, 48.16821
1090.136, 44.38599
1090.619, 43.95166
1091.101, 46.79358
1091.583, 51.37744
1092.065, 53.96216
1092.547, 52.92578
1093.029, 50.14722
1093.511, 47.51050
1093.993, 46.79590
1094.476, 52.24316
1094.958, 69.65906
1095.440, 79.63013
1095.922, 77.02515
1096.404, 68.59692
1096.886, 64.34521
1097.368, 64.62036
1097.850, 72.15125
1098.333, 88.12878
1098.815, 103.4053
1099.297, 116.6976
1099.779, 122.5531
1100.261, 112.1158
1100.743, 88.51282
1101.225, 82.35291
1101.707, 94.60852
1102.189, 105.5281
1102.672, 108.1868
1103.154, 104.8993
1103.636, 90.58484
1104.118, 75.15393
1104.600, 73.91846
1105.082, 100.1218
1105.564, 111.1246
1106.046, 102.9117
1106.528, 92.64893
1107.011, 92.70447
1107.493, 98.85181
1107.975, 104.9247
1108.457, 110.1453
1108.939, 111.9343
1109.421, 104.5054
1109.903, 100.7701
1110.385, 104.8506
1110.868, 110.3130
1111.350, 108.9648
1111.832, 101.9279
1112.314, 93.73358
1112.796, 85.06720
1113.278, 76.64575
1113.760, 62.97455
1114.242, 56.28723
1114.724, 67.26196
1115.207, 88.12994
1115.689, 95.10327
1116.171, 88.59009
1116.653, 88.74707
1117.135, 103.0591
1117.617, 112.6785
1118.099, 93.15833
1118.581, 66.67035
1119.063, 55.03632
1119.546, 60.71478
1120.028, 64.10535
1120.510, 64.56213
1120.992, 67.00793
1121.474, 77.39990
1121.956, 86.04108
1122.438, 73.32739
1122.920, 51.18512
1123.403, 39.91217
1123.885, 52.88190
1124.367, 61.38641
1124.849, 64.97278
1125.331, 66.34277
1125.813, 64.64301
1126.295, 62.77399
1126.777, 73.57874
1127.260, 91.97150
1127.742, 97.45239
1128.224, 68.63196
1128.706, 43.12689
1129.188, 25.86804
1129.670, 17.72400
1130.152, 24.16980
1130.634, 41.51331
1131.116, 51.65240
1131.599, 52.64062
1132.081, 50.46924
1132.563, 50.68274
1133.045, 51.36066
1133.527, 51.82977
1134.009, 50.92438
1134.491, 44.77997
1134.973, 33.14093
1135.455, 17.84583
1135.938, 1.486084
1136.420, 11.65131
1136.902, 12.40131
1137.384, 38.51947
1137.866, 31.63818
1138.348, 6.483276
1138.830, 18.68372
1139.312, 2.519897
1139.795, 14.36945
1140.277, 22.48456
1140.759, 24.64362
1141.241, 18.74548
1141.723, 11.46863
1142.205, 13.56610
1142.687, 33.20599
1143.169, 38.80011
1143.651, 28.40491
1144.134, 14.27203
1144.616, 0.6024780
1145.098, 9.781860
1145.580, 11.36768
1146.062, 5.791138
1146.544, 2.013062
1147.026, 22.48358
1147.508, 23.92651
1147.990, 4.139648
1148.473, 31.80286
1148.955, 25.36902
1149.437, 2.405884
1149.919, 28.88123
1150.401, 50.21869
1150.883, 52.34387
1151.365, 2.451050
1151.847, 33.14893
1152.330, 14.57660
1152.812, 25.18237
1153.294, 46.17572
1153.776, 51.12103
1154.258, 47.01678
1154.740, 34.67914
1155.222, 23.57501
1155.704, 18.80994
1156.186, 16.35095
1156.669, 14.32922
1157.151, 13.09180
1157.633, 14.26422
1158.115, 17.34717
1158.597, 18.58801
1159.079, 16.67169
1159.561, 15.56146
1160.043, 16.46448
1160.526, 20.71210
1161.008, 31.24011
1161.490, 46.30896
1161.972, 52.59790
1162.454, 50.36267
1162.936, 45.87732
1163.418, 39.73572
1163.900, 35.97913
1164.382, 37.78662
1164.865, 43.70190
1165.347, 53.23242
1165.829, 67.00452
1166.311, 76.04163
1166.793, 80.31537
1167.275, 80.12006
1167.757, 72.50958
1168.239, 64.11829
1168.721, 63.72522
1169.204, 65.97693
1169.686, 60.86481
1170.168, 42.76605
1170.650, 34.87665
1171.132, 38.39722
1171.614, 46.13409
1172.096, 57.28442
1172.578, 66.21057
1173.061, 63.35925
1173.543, 52.83154
1174.025, 47.54572
1174.507, 52.27423
1174.989, 52.99249
1175.471, 48.06830
1175.953, 40.95636
1176.435, 28.24652
1176.917, 19.58136
1177.400, 35.12396
1177.882, 70.56329
1178.364, 90.33405
1178.846, 83.43060
1179.328, 72.77179
1179.810, 59.52954
1180.292, 50.56226
1180.774, 60.59106
1181.256, 78.18964
1181.739, 83.07721
1182.221, 73.27228
1182.703, 66.51959
1183.185, 66.89490
1183.667, 69.57996
1184.149, 74.61469
1184.631, 79.17053
1185.113, 76.43011
1185.596, 69.99719
1186.078, 67.13538
1186.560, 69.32941
1187.042, 73.12061
1187.524, 82.26312
1188.006, 85.09241
1188.488, 73.99738
1188.970, 57.21045
1189.453, 52.11554
1189.935, 57.25507
1190.417, 71.38672
1190.899, 99.21295
1191.381, 118.4549
1191.863, 122.5847
1192.345, 119.8544
1192.827, 114.0674
1193.309, 104.3368
1193.792, 82.52069
1194.274, 54.33325
1194.756, 38.64520
1195.238, 45.00281
1195.720, 54.51562
1196.202, 63.83893
1196.684, 71.47668
1197.166, 79.84497
1197.648, 86.52087
1198.131, 75.70410
1198.613, 53.67535
1199.095, 44.35883
1199.577, 71.36072
1200.059, 95.27283
1200.541, 110.5228
1201.023, 116.2037
1201.505, 107.5831
1201.988, 87.96613
1202.470, 72.06927
1202.952, 59.94940
1203.434, 52.10449
1203.916, 50.42334
1204.398, 51.69427
1204.880, 54.74054
1205.362, 59.91034
1205.844, 70.47479
1206.327, 82.63251
1206.809, 82.02692
1207.291, 70.82684
1207.773, 62.44421
1208.255, 67.43427
1208.737, 71.37909
1209.219, 69.39386
1209.701, 61.90918
1210.183, 51.70050
1210.666, 40.79639
1211.148, 34.12805
1211.630, 32.29559
1212.112, 38.03607
1212.594, 67.70825
1213.076, 85.66705
1213.558, 76.87219
1214.040, 54.96564
1214.523, 41.19275
1215.005, 35.33740
1215.487, 39.60980
1215.969, 54.45044
1216.451, 64.63617
1216.933, 56.84283
1217.415, 48.39752
1217.897, 45.23688
1218.380, 45.63312
1218.862, 44.69977
1219.344, 44.07922
1219.826, 51.34875
1220.308, 68.61212
1220.790, 82.37628
1221.272, 86.33319
1221.754, 84.87250
1222.236, 77.98987
1222.719, 69.02606
1223.201, 65.80463
1223.683, 66.21265
1224.165, 61.57208
1224.647, 48.89142
1225.129, 38.01941
1225.611, 32.55518
1226.093, 30.50793
1226.575, 31.47522
1227.058, 35.09918
1227.540, 42.87805
1228.022, 52.23993
1228.504, 54.05988
1228.986, 42.33868
1229.468, 39.69971
1229.950, 62.56915
1230.432, 82.52704
1230.915, 85.63019
1231.397, 78.57434
1231.879, 81.03400
1232.361, 88.54553
1232.843, 87.66699
1233.325, 70.84839
1233.807, 57.55719
1234.289, 53.10010
1234.771, 50.18042
1235.254, 44.98779
1235.736, 39.36963
1236.218, 40.29034
1236.700, 44.03406
1237.182, 41.12091
1237.664, 23.18292
1238.146, 12.82922
1238.628, 15.11749
1239.110, 19.48376
1239.593, 18.78027
1240.075, 16.72406
1240.557, 24.35138
1241.039, 37.29791
1241.521, 45.93829
1242.003, 45.34387
1242.485, 43.87616
1242.967, 39.95691
1243.449, 41.03571
1243.932, 58.35284
1244.414, 79.34479
1244.896, 79.01605
1245.378, 64.81714
1245.860, 52.46497
1246.342, 44.84100
1246.824, 41.13934
1247.306, 42.54535
1247.789, 44.16675
1248.271, 40.99170
1248.753, 36.83453
1249.235, 39.17773
1249.717, 44.32123
1250.199, 44.38824
1250.681, 32.54443
1251.163, 31.46948
1251.646, 43.41656
1252.128, 54.01544
1252.610, 49.81616
1253.092, 41.55615
1253.574, 43.25586
1254.056, 49.12018
1254.538, 45.25122
1255.020, 25.71716
1255.502, 21.68298
1255.984, 34.96863
1256.467, 47.72430
1256.949, 44.03174
1257.431, 37.81525
1257.913, 43.96265
1258.395, 54.43103
1258.877, 53.02533
1259.359, 37.16766
1259.841, 30.20306
1260.324, 32.92871
1260.806, 36.49817
1261.288, 32.87811
1261.770, 30.09430
1262.252, 37.53613
1262.734, 46.85980
1263.216, 44.35736
1263.698, 30.05939
1264.181, 21.80212
1264.663, 20.17682
1265.145, 22.50958
1265.627, 31.56683
1266.109, 38.99353
1266.591, 40.52325
1267.073, 38.81281
1267.555, 34.18640
1268.037, 27.86584
1268.520, 35.33398
1269.002, 54.53137
1269.484, 64.36200
1269.966, 43.20453
1270.448, 25.07086
1270.930, 18.29694
1271.412, 18.10126
1271.894, 23.00439
1272.376, 29.42126
1272.859, 19.67188
1273.341, 2.010498
1273.823, 9.444092
1274.305, 24.77643
1274.787, 48.66003
1275.269, 54.67816
1275.751, 50.81458
1276.233, 40.23859
1276.716, 28.48651
1277.198, 28.44214
1277.680, 37.38855
1278.162, 41.68903
1278.644, 38.74609
1279.126, 28.30560
1279.608, 7.162964
1280.090, 8.719543
1280.573, 3.819336
1281.055, 24.28754
1281.537, 24.30414
1282.019, 10.83716
1282.501, 12.59851
1282.983, 37.18884
1283.465, 50.85870
1283.947, 50.37683
1284.429, 42.10382
1284.911, 22.25104
1285.394, 5.366943
1285.876, 5.084290
1286.358, 18.39313
1286.840, 26.12067
1287.322, 28.22058
1287.804, 20.60712
1288.286, 3.292847
1288.768, 1.509521
1289.251, 39.43445
1289.733, 77.45984
1290.215, 73.50641
1290.697, 50.37756
1291.179, 31.26489
1291.661, 16.57208
1292.143, 15.64087
1292.625, 27.36542
1293.108, 34.33069
1293.590, 19.84540
1294.072, 12.84937
1294.554, 21.98511
1295.036, 32.50208
1295.518, 21.19678
1296.000, 0.3599240
1296.482, 3.856506
1296.964, 15.76001
1297.447, 0.0000000E+00
##END=



