##NAMES=Augite
##RRUFFID=R070231
##IDEAL CHEMISTRY=(Ca,Mg,Fe)_2_(Si,Al)_2_O_6_
##LOCALITY=Old Goose Creek Quarry, Leesburg, Loudoun County, Virginia, USA
##OWNER=RRUFF
##SOURCE=Michael Scott
##DESCRIPTION=Very dark grey-green prismatic crystals frozen in quartz
##STATUS=The identification of this mineral is confirmed by single-crystal X-ray diffraction and chemical analysis.
##URL=rruff.info/R070231
##MEASURED CHEMISTRY=(Mg_0.44_Fe_0.37_Ca_0.17_Ti_0.01_Mn_0.01_)_Σ=1_(Si_0.98_Al_0.02_)_Σ=1_O_3_
167.7847, 0.0000000E+00
168.2668, 2.269531
168.7490, 1.212646
169.2311, 8.409180
169.7132, 19.08521
170.1953, 22.69556
170.6774, 22.96045
171.1595, 26.05762
171.6417, 36.04395
172.1238, 49.93262
172.6059, 60.53882
173.0880, 67.25122
173.5701, 71.29834
174.0522, 73.72388
174.5344, 74.20435
175.0165, 71.28369
175.4986, 61.44897
175.9807, 49.41211
176.4628, 48.90112
176.9449, 64.82495
177.4271, 83.85913
177.9092, 103.3691
178.3913, 121.7490
178.8734, 137.1030
179.3555, 149.3220
179.8376, 157.2974
180.3197, 155.5681
180.8019, 132.3860
181.2840, 121.0574
181.7661, 139.7156
182.2482, 171.8853
182.7303, 197.7305
183.2124, 207.8059
183.6946, 205.2524
184.1767, 196.9905
184.6588, 174.1838
185.1409, 161.9604
185.6230, 171.9795
186.1051, 192.5383
186.5873, 211.0527
187.0694, 222.0190
187.5515, 226.6531
188.0336, 228.1943
188.5157, 226.4600
188.9978, 221.3896
189.4800, 210.3694
189.9621, 197.5601
190.4442, 187.7778
190.9263, 183.0027
191.4084, 182.9834
191.8905, 188.2190
192.3727, 205.8518
192.8548, 215.7573
193.3369, 214.2312
193.8190, 205.0903
194.3011, 189.1401
194.7832, 166.4883
195.2654, 143.4851
195.7475, 134.8928
196.2296, 149.6262
196.7117, 162.5220
197.1938, 170.3577
197.6759, 175.2595
198.1581, 179.8567
198.6402, 184.9414
199.1223, 187.7793
199.6044, 182.2795
200.0865, 162.0962
200.5686, 146.1350
201.0508, 136.7048
201.5329, 130.8123
202.0150, 127.6118
202.4971, 126.4431
202.9792, 125.0710
203.4613, 119.5344
203.9435, 107.4775
204.4256, 96.49341
204.9077, 86.12036
205.3898, 77.25342
205.8719, 70.38550
206.3540, 65.66064
206.8362, 63.05273
207.3183, 63.34644
207.8004, 69.42456
208.2825, 70.86206
208.7646, 68.78223
209.2467, 61.90625
209.7289, 44.35596
210.2110, 18.35620
210.6931, 4.343506
211.1752, 8.372070
211.6573, 13.97388
212.1395, 31.67480
212.6216, 43.15137
213.1037, 50.73120
213.5858, 53.09253
214.0679, 51.11450
214.5500, 51.53149
215.0322, 58.09473
215.5143, 71.16333
215.9964, 84.12256
216.4785, 94.62476
216.9606, 99.82715
217.4427, 100.6040
217.9249, 105.9976
218.4070, 112.4966
218.8891, 128.0969
219.3712, 156.4539
219.8533, 175.8474
220.3354, 170.2056
220.8176, 165.0396
221.2997, 171.5505
221.7818, 186.6069
222.2639, 197.8215
222.7460, 199.8767
223.2281, 193.4658
223.7103, 189.3425
224.1924, 193.3882
224.6745, 194.3306
225.1566, 187.1926
225.6387, 176.6267
226.1208, 169.1487
226.6030, 169.0120
227.0851, 174.4263
227.5672, 178.0818
228.0493, 182.2188
228.5314, 180.8782
229.0135, 166.0972
229.4957, 148.2329
229.9778, 139.8972
230.4599, 146.9854
230.9420, 163.5728
231.4241, 175.5217
231.9062, 182.2725
232.3884, 184.5110
232.8705, 179.1123
233.3526, 171.7566
233.8347, 168.4304
234.3168, 170.9146
234.7989, 174.3960
235.2811, 169.3279
235.7632, 149.1372
236.2453, 136.1404
236.7274, 135.5586
237.2095, 139.3523
237.6916, 144.0105
238.1738, 148.1177
238.6559, 149.7498
239.1380, 145.2097
239.6201, 131.6841
240.1022, 122.4329
240.5843, 117.5129
241.0665, 117.2793
241.5486, 124.6240
242.0307, 138.1111
242.5128, 151.7683
242.9949, 160.0281
243.4770, 162.5850
243.9592, 163.4951
244.4413, 166.0681
244.9234, 163.3176
245.4055, 149.0806
245.8876, 126.8965
246.3697, 105.8770
246.8519, 92.93945
247.3340, 87.04858
247.8161, 79.45630
248.2982, 67.35107
248.7803, 57.38428
249.2624, 53.69580
249.7446, 53.11353
250.2267, 50.13037
250.7088, 40.76367
251.1909, 28.17041
251.6730, 21.56104
252.1551, 22.72632
252.6373, 26.53540
253.1194, 37.06714
253.6015, 46.80713
254.0836, 45.65625
254.5657, 28.25293
255.0478, 5.352295
255.5300, 5.976318
256.0121, 3.598389
256.4942, 2.504883
256.9763, 16.97754
257.4584, 29.81714
257.9406, 31.80566
258.4227, 20.70044
258.9048, 6.525391
259.3869, 0.3571780
259.8690, 2.617432
260.3511, 2.559326
260.8333, 5.281982
261.3154, 12.93481
261.7975, 12.93921
262.2796, 5.691650
262.7617, 0.3427730
263.2438, 4.942871
263.7260, 17.74805
264.2081, 29.71191
264.6902, 44.20142
265.1723, 50.46216
265.6544, 33.41162
266.1365, 0.7226560
266.6187, 21.43604
267.1008, 9.899658
267.5829, 18.54956
268.0650, 25.19653
268.5471, 2.481689
269.0292, 20.04419
269.5114, 19.19800
269.9935, 4.491455
270.4756, 9.138184
270.9577, 19.67700
271.4398, 26.10059
271.9219, 25.36157
272.4041, 17.22949
272.8862, 9.851807
273.3683, 6.408691
273.8504, 6.924316
274.3325, 11.45166
274.8146, 23.49121
275.2968, 33.13062
275.7789, 31.90210
276.2610, 22.13452
276.7431, 13.65503
277.2252, 10.54248
277.7073, 9.395996
278.1895, 3.271484
278.6716, 9.764648
279.1537, 18.25977
279.6358, 13.56494
280.1179, 2.633789
280.6000, 2.288818
281.0822, 1.841064
281.5643, 9.856934
282.0464, 16.03589
282.5285, 20.14648
283.0106, 25.01123
283.4927, 31.71948
283.9749, 38.81567
284.4570, 45.15430
284.9391, 50.61011
285.4212, 55.26245
285.9033, 58.65430
286.3854, 60.92896
286.8676, 66.11401
287.3497, 76.95410
287.8318, 87.76074
288.3139, 94.83569
288.7960, 99.55835
289.2781, 106.1599
289.7603, 117.3889
290.2424, 131.6008
290.7245, 141.5872
291.2066, 143.3833
291.6887, 146.1833
292.1708, 150.4912
292.6530, 156.8521
293.1351, 167.6289
293.6172, 183.4692
294.0993, 199.5291
294.5814, 206.8215
295.0635, 198.7439
295.5457, 193.9946
296.0278, 193.5769
296.5099, 195.4980
296.9920, 196.0671
297.4741, 196.2903
297.9562, 202.7798
298.4384, 223.8408
298.9205, 262.5642
299.4026, 294.6965
299.8847, 319.3518
300.3668, 338.5566
300.8489, 349.4548
301.3311, 355.4785
301.8131, 362.8186
302.2953, 375.4187
302.7774, 392.7832
303.2595, 412.3479
303.7416, 433.4685
304.2237, 458.1875
304.7058, 490.4729
305.1880, 524.5833
305.6701, 555.4321
306.1522, 581.2461
306.6343, 600.9756
307.1164, 609.1536
307.5985, 599.2434
308.0807, 602.1465
308.5628, 628.5415
309.0449, 666.3013
309.5270, 714.4226
310.0091, 770.8394
310.4912, 822.5635
310.9734, 852.5933
311.4555, 863.9072
311.9376, 890.7454
312.4197, 946.6035
312.9018, 1001.838
313.3839, 1033.577
313.8661, 1050.494
314.3482, 1072.979
314.8303, 1112.867
315.3124, 1162.273
315.7945, 1207.994
316.2766, 1249.354
316.7588, 1290.387
317.2409, 1331.479
317.7230, 1374.208
318.2051, 1421.696
318.6872, 1479.803
319.1693, 1531.247
319.6515, 1557.463
320.1336, 1564.571
320.6157, 1579.615
321.0978, 1613.833
321.5799, 1654.229
322.0620, 1682.071
322.5442, 1697.370
323.0263, 1705.162
323.5084, 1707.476
323.9905, 1705.777
324.4726, 1699.472
324.9547, 1688.156
325.4369, 1669.028
325.9190, 1641.743
326.4011, 1607.323
326.8832, 1567.754
327.3653, 1523.090
327.8474, 1472.196
328.3296, 1409.633
328.8117, 1339.095
329.2938, 1271.401
329.7759, 1213.312
330.2580, 1162.819
330.7401, 1110.500
331.2223, 1044.253
331.7044, 990.1707
332.1865, 964.4319
332.6686, 945.0679
333.1507, 905.3025
333.6328, 838.9714
334.1150, 765.8667
334.5971, 715.1372
335.0792, 696.4402
335.5613, 673.6143
336.0434, 642.5574
336.5255, 612.1482
337.0077, 584.9617
337.4898, 562.0410
337.9719, 544.7126
338.4540, 535.7114
338.9361, 533.9292
339.4182, 524.6345
339.9004, 500.7393
340.3825, 479.7192
340.8646, 469.0916
341.3467, 463.0027
341.8288, 453.8564
342.3109, 438.4568
342.7931, 420.5652
343.2752, 402.1589
343.7573, 381.0166
344.2394, 376.4104
344.7215, 413.3494
345.2036, 452.1709
345.6858, 458.4824
346.1679, 431.3054
346.6500, 400.3315
347.1321, 381.3279
347.6142, 372.8354
348.0963, 370.7766
348.5785, 374.6741
349.0606, 385.5576
349.5427, 412.0715
350.0248, 447.2981
350.5069, 469.5457
350.9890, 470.2566
351.4712, 460.4575
351.9533, 442.4170
352.4354, 419.1807
352.9175, 407.0444
353.3996, 415.6355
353.8817, 437.8013
354.3639, 456.4050
354.8460, 475.8528
355.3281, 484.2078
355.8102, 469.8594
356.2923, 447.0105
356.7744, 431.5901
357.2566, 427.1191
357.7387, 429.8547
358.2208, 436.0679
358.7029, 446.3252
359.1850, 457.3228
359.6671, 476.3425
360.1493, 488.8882
360.6314, 482.1902
361.1135, 464.1389
361.5956, 452.1262
362.0777, 456.7388
362.5598, 473.6106
363.0420, 487.8147
363.5241, 496.6074
364.0062, 503.4331
364.4883, 507.5984
364.9704, 512.1084
365.4525, 522.3220
365.9347, 538.1169
366.4168, 551.4680
366.8989, 551.4556
367.3810, 536.9973
367.8631, 536.7473
368.3452, 562.4006
368.8274, 590.0854
369.3095, 606.3975
369.7916, 615.0918
370.2737, 626.0310
370.7558, 644.5779
371.2379, 668.4727
371.7201, 692.1304
372.2022, 713.8215
372.6843, 733.2356
373.1664, 750.1125
373.6485, 766.7012
374.1306, 785.5945
374.6128, 806.8916
375.0949, 829.4431
375.5770, 850.2363
376.0591, 872.8540
376.5412, 905.3237
377.0233, 949.8479
377.5055, 997.4871
377.9876, 1040.278
378.4697, 1076.878
378.9518, 1107.085
379.4339, 1123.765
379.9160, 1141.835
380.3982, 1171.337
380.8803, 1209.260
381.3624, 1246.541
381.8445, 1278.645
382.3266, 1306.833
382.8087, 1335.411
383.2909, 1363.741
383.7730, 1393.184
384.2551, 1424.665
384.7372, 1457.960
385.2193, 1492.806
385.7014, 1528.103
386.1836, 1562.506
386.6657, 1596.308
387.1478, 1630.060
387.6299, 1658.337
388.1120, 1684.559
388.5941, 1700.372
389.0763, 1700.721
389.5584, 1689.902
390.0405, 1673.960
390.5226, 1654.956
391.0047, 1632.910
391.4868, 1609.073
391.9690, 1584.311
392.4511, 1550.482
392.9332, 1506.052
393.4153, 1450.528
393.8974, 1382.462
394.3795, 1300.629
394.8617, 1217.786
395.3438, 1137.263
395.8259, 1060.410
396.3080, 989.5356
396.7901, 925.2290
397.2722, 864.3455
397.7544, 805.6536
398.2365, 749.0088
398.7186, 692.0391
399.2007, 629.8970
399.6828, 573.4014
400.1649, 528.7026
400.6471, 492.0664
401.1292, 457.8042
401.6113, 423.8633
402.0934, 389.6218
402.5755, 352.7402
403.0576, 308.5566
403.5398, 277.4961
404.0219, 270.3137
404.5040, 264.0576
404.9861, 246.2129
405.4682, 219.2139
405.9503, 191.5938
406.4325, 168.5583
406.9146, 149.3076
407.3967, 131.0254
407.8788, 111.6750
408.3609, 97.79517
408.8430, 94.94214
409.3252, 94.66431
409.8073, 89.57544
410.2894, 78.82959
410.7715, 68.50122
411.2536, 63.98022
411.7357, 64.42700
412.2179, 66.90161
412.7000, 73.54468
413.1821, 76.58301
413.6642, 65.17554
414.1463, 46.62915
414.6284, 36.11597
415.1106, 40.63892
415.5927, 48.71094
416.0748, 55.02466
416.5569, 58.41772
417.0390, 53.22339
417.5211, 35.78516
418.0033, 15.58569
418.4854, 8.043457
418.9675, 19.51343
419.4496, 21.80176
419.9317, 1.171143
420.4138, 18.37524
420.8960, 15.54663
421.3781, 3.783691
421.8602, 16.55615
422.3423, 6.806641
422.8244, 18.71362
423.3065, 30.41528
423.7887, 17.07007
424.2708, 7.012451
424.7529, 4.921875
425.2350, 5.803955
425.7171, 6.244873
426.1992, 5.440918
426.6814, 3.665039
427.1635, 1.368652
427.6456, 8.737061
428.1277, 4.774902
428.6098, 19.45996
429.0919, 37.72754
429.5741, 29.82593
430.0562, 9.355225
430.5383, 3.612061
431.0204, 2.482422
431.5025, 2.941162
431.9846, 4.309814
432.4668, 3.191650
432.9489, 5.959717
433.4310, 15.14111
433.9131, 25.62817
434.3952, 32.22388
434.8773, 34.81641
435.3595, 32.26929
435.8416, 18.18823
436.3237, 4.595215
436.8058, 3.9795000E-02
437.2879, 2.061768
437.7701, 3.783691
438.2522, 1.774902
438.7343, 3.263916
439.2164, 10.19507
439.6985, 25.11401
440.1806, 30.54175
440.6628, 21.83203
441.1449, 8.418945
441.6270, 7.444824
442.1091, 23.02466
442.5912, 32.34888
443.0733, 29.03906
443.5555, 16.62158
444.0376, 8.901611
444.5197, 7.305664
445.0018, 6.406982
445.4839, 5.767822
445.9660, 3.919922
446.4482, 2.103027
446.9303, 13.52490
447.4124, 22.08374
447.8945, 18.80225
448.3766, 9.829346
448.8587, 10.43799
449.3409, 23.50415
449.8230, 33.28809
450.3051, 23.99634
450.7872, 1.053955
451.2693, 8.794678
451.7514, 20.34692
452.2336, 42.66284
452.7157, 37.79761
453.1978, 19.64648
453.6799, 5.974609
454.1620, 2.411133
454.6441, 7.138184
455.1263, 19.80029
455.6084, 43.75220
456.0905, 56.54810
456.5726, 45.66113
457.0547, 35.93579
457.5368, 35.78174
458.0190, 41.51514
458.5011, 46.96973
458.9832, 49.75366
459.4653, 50.40283
459.9474, 48.20142
460.4295, 43.05762
460.9117, 43.05981
461.3938, 55.22803
461.8759, 65.36182
462.3580, 55.79224
462.8401, 31.08667
463.3222, 15.88232
463.8044, 24.03735
464.2865, 38.77368
464.7686, 47.78687
465.2507, 50.87378
465.7328, 46.63086
466.2149, 32.74658
466.6971, 17.35181
467.1792, 17.18311
467.6613, 44.35449
468.1434, 61.45166
468.6255, 61.47461
469.1076, 57.74341
469.5898, 59.14331
470.0719, 64.16064
470.5540, 65.82617
471.0361, 59.26880
471.5182, 47.70190
472.0003, 41.21289
472.4825, 43.30737
472.9646, 41.01392
473.4467, 22.67114
473.9288, 5.567139
474.4109, 2.274414
474.8930, 12.50586
475.3752, 25.46411
475.8573, 38.45874
476.3394, 48.86719
476.8215, 50.35376
477.3036, 42.71216
477.7857, 35.58521
478.2679, 32.70361
478.7500, 33.67627
479.2321, 36.51025
479.7142, 43.57471
480.1963, 44.15283
480.6784, 23.10815
481.1606, 2.063965
481.6427, 8.466553
482.1248, 38.73853
482.6069, 64.50171
483.0890, 63.83496
483.5711, 42.17700
484.0533, 29.84644
484.5354, 32.98730
485.0175, 35.91846
485.4996, 36.69971
485.9817, 35.84497
486.4638, 29.05542
486.9460, 17.85034
487.4281, 14.41602
487.9102, 38.13525
488.3923, 75.61060
488.8744, 81.40967
489.3565, 48.29590
489.8387, 22.38550
490.3208, 30.52734
490.8029, 58.97192
491.2850, 78.26685
491.7671, 87.33838
492.2492, 90.72754
492.7314, 83.97217
493.2135, 76.19507
493.6956, 80.18311
494.1777, 95.70776
494.6598, 111.3755
495.1419, 118.5156
495.6241, 118.3801
496.1062, 119.2749
496.5883, 119.0520
497.0704, 123.2815
497.5525, 140.3730
498.0346, 156.5613
498.5168, 156.0916
498.9989, 140.0518
499.4810, 126.7366
499.9631, 132.9763
500.4452, 154.3967
500.9273, 175.3025
501.4095, 197.4761
501.8916, 213.9214
502.3737, 216.3635
502.8558, 213.8674
503.3379, 220.7043
503.8200, 238.6553
504.3022, 259.9976
504.7843, 286.0149
505.2664, 310.9043
505.7485, 323.6287
506.2306, 325.9802
506.7127, 334.9526
507.1949, 363.5847
507.6770, 405.6633
508.1591, 433.6804
508.6412, 437.9421
509.1233, 440.8201
509.6054, 446.2957
510.0876, 450.1941
510.5697, 446.7578
511.0518, 438.2307
511.5339, 434.9080
512.0161, 446.1816
512.4982, 466.6941
512.9803, 480.5220
513.4624, 485.9841
513.9445, 495.3076
514.4266, 519.3684
514.9088, 543.3528
515.3909, 545.4092
515.8730, 523.4792
516.3551, 507.2847
516.8372, 506.2056
517.3193, 514.4197
517.8015, 531.7043
518.2836, 554.3889
518.7657, 570.7239
519.2478, 574.0950
519.7299, 568.8054
520.2120, 564.6492
520.6942, 559.6667
521.1763, 559.8018
521.6584, 569.2825
522.1405, 579.2722
522.6226, 584.6255
523.1047, 586.5549
523.5869, 588.3318
524.0690, 590.4888
524.5511, 595.9954
525.0332, 613.7432
525.5153, 643.5974
525.9974, 662.6768
526.4796, 661.9077
526.9617, 654.6819
527.4438, 654.0142
527.9259, 659.2498
528.4080, 666.8452
528.8901, 679.1807
529.3723, 690.9353
529.8544, 704.1526
530.3365, 713.5630
530.8186, 704.5161
531.3007, 672.6970
531.7828, 638.2036
532.2650, 631.5078
532.7471, 659.9250
533.2292, 670.1416
533.7113, 643.0667
534.1934, 619.2168
534.6755, 615.6208
535.1577, 620.6777
535.6398, 616.9165
536.1219, 598.5054
536.6040, 579.5417
537.0861, 575.2769
537.5682, 580.4797
538.0504, 578.3943
538.5325, 567.3767
539.0146, 553.4500
539.4967, 538.8318
539.9788, 525.5332
540.4609, 521.5837
540.9431, 538.5588
541.4252, 545.8215
541.9073, 525.8970
542.3894, 501.3237
542.8715, 495.5227
543.3536, 508.3713
543.8358, 520.9971
544.3179, 517.8413
544.8000, 502.5059
545.2821, 490.2534
545.7642, 480.4993
546.2463, 471.6335
546.7285, 465.1631
547.2106, 459.1543
547.6927, 450.7600
548.1748, 440.5312
548.6569, 434.1633
549.1390, 434.2048
549.6211, 435.4922
550.1032, 433.9338
550.5853, 432.4734
551.0674, 433.9099
551.5496, 440.3511
552.0317, 450.4814
552.5138, 461.6228
552.9959, 477.2068
553.4780, 483.4810
553.9601, 475.8352
554.4423, 465.5195
554.9244, 452.9026
555.4065, 441.7847
555.8886, 439.1367
556.3707, 447.6570
556.8528, 457.1436
557.3350, 454.6238
557.8171, 441.5901
558.2992, 429.4492
558.7813, 418.4336
559.2634, 410.9785
559.7455, 410.5417
560.2277, 414.7886
560.7098, 416.0120
561.1919, 413.4954
561.6740, 409.2009
562.1561, 399.2209
562.6382, 390.1101
563.1204, 395.5583
563.6025, 413.5347
564.0846, 427.3936
564.5667, 424.8772
565.0488, 409.0769
565.5309, 390.3767
566.0131, 363.2590
566.4952, 347.2458
566.9773, 356.2598
567.4594, 369.0845
567.9415, 375.2134
568.4236, 373.8660
568.9058, 365.1565
569.3879, 342.6843
569.8700, 318.6055
570.3521, 304.7632
570.8342, 299.5569
571.3163, 299.3342
571.7985, 303.5789
572.2806, 306.3525
572.7627, 299.7935
573.2448, 282.4705
573.7269, 269.1035
574.2090, 265.3486
574.6912, 258.4067
575.1733, 239.5447
575.6554, 218.7534
576.1375, 209.4395
576.6196, 213.5610
577.1017, 217.7200
577.5839, 206.8347
578.0660, 186.2893
578.5481, 175.5000
579.0302, 175.9241
579.5123, 176.0525
579.9944, 172.0620
580.4766, 163.5181
580.9587, 146.3467
581.4408, 115.0911
581.9229, 98.27734
582.4050, 113.1912
582.8871, 131.7654
583.3693, 136.3740
583.8514, 129.6411
584.3335, 119.7996
584.8156, 110.5969
585.2977, 102.0881
585.7798, 94.15210
586.2620, 86.73511
586.7441, 80.58984
587.2262, 74.69116
587.7083, 71.76074
588.1904, 79.42358
588.6725, 89.45776
589.1547, 86.84204
589.6368, 64.93726
590.1189, 42.67358
590.6010, 26.55664
591.0831, 16.57422
591.5652, 16.26245
592.0474, 23.55908
592.5295, 27.44995
593.0116, 20.15918
593.4937, 5.697754
593.9758, 4.172119
594.4579, 10.13013
594.9401, 9.758057
595.4222, 7.741455
595.9043, 21.97339
596.3864, 20.78418
596.8685, 8.137695
597.3506, 5.997803
597.8328, 21.40186
598.3149, 30.30371
598.7970, 19.12744
599.2791, 3.482178
599.7612, 14.11816
600.2433, 8.272461
600.7255, 2.111084
601.2076, 7.058594
601.6897, 7.510254
602.1718, 11.25879
602.6539, 28.09814
603.1360, 34.49707
603.6182, 18.75171
604.1003, 3.9306998E-02
604.5824, 9.874756
605.0645, 9.429688
605.5466, 0.5642090
606.0287, 28.40259
606.5109, 53.76782
606.9930, 33.98804
607.4751, 23.07617
607.9572, 50.63110
608.4393, 27.05981
608.9214, 9.705078
609.4036, 22.11206
609.8857, 10.01709
610.3678, 2.292725
610.8499, 0.9428710
611.3320, 0.9785160
611.8141, 2.529053
612.2963, 4.121338
612.7784, 4.849854
613.2605, 4.279053
613.7426, 1.576660
614.2247, 4.334961
614.7068, 12.45483
615.1890, 21.88428
615.6711, 32.93921
616.1532, 37.28174
616.6353, 29.79956
617.1174, 19.66992
617.5995, 19.03540
618.0817, 28.12280
618.5638, 28.44458
619.0459, 3.857178
619.5280, 11.76880
620.0101, 0.7211910
620.4922, 26.53638
620.9744, 50.76440
621.4565, 68.37915
621.9386, 75.70923
622.4207, 66.15283
622.9028, 45.07935
623.3849, 32.94849
623.8671, 30.02173
624.3492, 35.26831
624.8313, 52.28296
625.3134, 72.96655
625.7955, 88.51465
626.2776, 99.25854
626.7598, 105.8525
627.2419, 109.0417
627.7240, 107.3508
628.2061, 94.43140
628.6882, 78.39136
629.1703, 71.35181
629.6525, 75.75659
630.1346, 85.09937
630.6167, 93.44629
631.0988, 101.2029
631.5809, 112.0300
632.0630, 128.3691
632.5452, 137.6729
633.0273, 129.5083
633.5094, 119.1504
633.9915, 125.1909
634.4736, 146.6462
634.9557, 165.9553
635.4379, 182.6421
635.9200, 193.0645
636.4021, 189.9807
636.8842, 181.1860
637.3663, 177.2078
637.8484, 181.1956
638.3306, 193.3215
638.8127, 216.3901
639.2948, 247.2839
639.7769, 265.2292
640.2590, 266.7698
640.7411, 267.6047
641.2233, 270.5845
641.7054, 276.2080
642.1875, 282.8015
642.6696, 290.9141
643.1517, 308.8628
643.6339, 348.1953
644.1160, 387.2808
644.5981, 413.1047
645.0802, 431.4851
645.5623, 450.7996
646.0444, 473.0999
646.5266, 496.1582
647.0087, 517.3616
647.4908, 537.7273
647.9729, 561.4958
648.4550, 587.5417
648.9371, 621.5098
649.4193, 669.7075
649.9014, 721.0356
650.3835, 764.5840
650.8656, 801.4780
651.3477, 840.7898
651.8298, 879.4260
652.3120, 925.4836
652.7941, 993.6538
653.2762, 1067.824
653.7583, 1119.539
654.2404, 1148.225
654.7225, 1180.221
655.2047, 1236.189
655.6868, 1310.903
656.1689, 1390.342
656.6510, 1477.092
657.1331, 1561.626
657.6152, 1635.761
658.0974, 1711.967
658.5795, 1805.044
659.0616, 1910.543
659.5437, 2007.214
660.0258, 2092.350
660.5079, 2168.532
660.9901, 2235.714
661.4722, 2297.675
661.9543, 2357.800
662.4364, 2414.883
662.9185, 2468.796
663.4006, 2521.702
663.8828, 2562.749
664.3649, 2568.651
664.8470, 2541.343
665.3291, 2512.691
665.8112, 2486.364
666.2933, 2453.577
666.7755, 2409.036
667.2576, 2351.548
667.7397, 2279.050
668.2218, 2185.600
668.7039, 2086.410
669.1860, 1977.850
669.6682, 1870.022
670.1503, 1769.821
670.6324, 1676.622
671.1145, 1585.784
671.5966, 1494.119
672.0787, 1407.623
672.5609, 1337.429
673.0430, 1280.608
673.5251, 1216.020
674.0072, 1139.830
674.4893, 1064.823
674.9714, 997.9475
675.4536, 937.6838
675.9357, 881.4360
676.4178, 828.1357
676.8999, 780.7383
677.3820, 741.8274
677.8641, 706.2793
678.3463, 668.3765
678.8284, 631.4709
679.3105, 604.3220
679.7926, 589.6621
680.2747, 572.5410
680.7568, 532.4412
681.2390, 481.2463
681.7211, 449.0398
682.2032, 436.3262
682.6853, 427.1355
683.1674, 415.5654
683.6495, 401.0869
684.1317, 382.2803
684.6138, 358.0671
685.0959, 335.5208
685.5780, 310.5540
686.0601, 292.0291
686.5422, 287.2153
687.0244, 286.6768
687.5065, 279.9294
687.9886, 266.1133
688.4707, 253.5232
688.9528, 250.0720
689.4349, 247.7759
689.9171, 234.8179
690.3992, 215.4072
690.8813, 202.9971
691.3634, 201.1475
691.8455, 202.5107
692.3276, 200.0720
692.8098, 194.0786
693.2919, 186.2097
693.7740, 174.0112
694.2561, 166.1846
694.7382, 167.6201
695.2203, 169.9048
695.7025, 166.1462
696.1846, 157.8369
696.6667, 152.2251
697.1488, 152.2537
697.6309, 153.7729
698.1130, 156.9644
698.5952, 159.0635
699.0773, 154.7195
699.5594, 145.2251
700.0415, 139.1096
700.5236, 141.7666
701.0057, 146.9060
701.4879, 139.6335
701.9700, 119.6509
702.4521, 107.5654
702.9342, 106.8689
703.4163, 110.0393
703.8984, 115.1716
704.3806, 120.2058
704.8627, 119.7402
705.3448, 111.4419
705.8269, 104.3899
706.3090, 102.1147
706.7911, 100.7385
707.2733, 90.86157
707.7554, 78.74487
708.2375, 82.09717
708.7196, 104.9553
709.2017, 123.5105
709.6838, 107.3074
710.1660, 73.10010
710.6481, 59.55420
711.1302, 64.22754
711.6123, 72.18481
712.0944, 78.89551
712.5765, 81.18140
713.0587, 73.54419
713.5408, 56.87354
714.0229, 48.85083
714.5050, 46.11670
714.9871, 54.05420
715.4692, 94.13818
715.9514, 128.7305
716.4335, 118.2188
716.9156, 71.12720
717.3977, 35.65601
717.8798, 36.70874
718.3619, 47.90039
718.8441, 50.66187
719.3262, 48.18359
719.8083, 45.13916
720.2904, 42.51245
720.7725, 40.45508
721.2546, 39.37524
721.7368, 39.35742
722.2189, 40.63599
722.7010, 44.39282
723.1831, 45.53394
723.6652, 41.85059
724.1473, 39.16187
724.6295, 40.98413
725.1116, 46.25586
725.5937, 53.09009
726.0758, 64.25391
726.5579, 69.01245
727.0400, 63.08569
727.5222, 52.59595
728.0043, 37.33960
728.4864, 21.41382
728.9685, 10.05933
729.4506, 4.891846
729.9327, 5.515137
730.4149, 17.39380
730.8970, 33.07886
731.3791, 28.82837
731.8612, 7.757324
732.3433, 2.869385
732.8254, 6.024658
733.3076, 19.47070
733.7897, 22.19116
734.2718, 15.04248
734.7539, 9.340820
735.2360, 5.218750
735.7181, 2.334229
736.2003, 1.270020
736.6824, 1.976807
737.1645, 3.957031
737.6466, 14.55469
738.1287, 24.46045
738.6108, 32.50952
739.0930, 39.12402
739.5751, 47.33838
740.0572, 52.40576
740.5393, 45.85034
741.0214, 30.72803
741.5035, 17.92896
741.9857, 12.65283
742.4678, 11.11475
742.9499, 6.734619
743.4320, 0.2104490
743.9141, 2.140869
744.3962, 14.01880
744.8784, 27.91577
745.3605, 44.56299
745.8426, 56.05835
746.3247, 48.53760
746.8068, 18.51123
747.2889, 2.440674
747.7711, 8.848633
748.2532, 17.13452
748.7353, 26.13428
749.2174, 32.24854
749.6995, 32.11572
750.1816, 26.12671
750.6638, 16.63452
751.1459, 2.306885
751.6280, 10.44263
752.1101, 15.86475
752.5922, 15.46655
753.0743, 10.39453
753.5565, 1.741211
754.0386, 6.145264
754.5207, 10.70117
755.0028, 12.98584
755.4849, 15.75977
755.9670, 19.64453
756.4492, 16.96924
756.9313, 4.045898
757.4134, 6.719482
757.8955, 11.93335
758.3776, 10.65845
758.8597, 1.726074
759.3419, 26.89624
759.8240, 43.68848
760.3061, 50.38208
760.7882, 48.46802
761.2703, 29.22412
761.7524, 7.737549
762.2346, 3.551270
762.7167, 14.76562
763.1988, 19.38110
763.6809, 0.3811040
764.1630, 22.61841
764.6451, 19.57544
765.1273, 0.2548830
765.6094, 19.97705
766.0915, 35.63745
766.5736, 36.12524
767.0557, 12.23706
767.5378, 20.25073
768.0200, 24.22314
768.5021, 6.678467
768.9842, 28.63770
769.4663, 42.99170
769.9484, 43.31396
770.4305, 12.62769
770.9127, 24.11230
771.3948, 27.39160
771.8769, 5.619629
772.3590, 30.95557
772.8411, 41.19019
773.3232, 45.78540
773.8054, 47.96167
774.2875, 46.60718
774.7696, 37.15356
775.2517, 22.02905
775.7338, 12.23755
776.2159, 15.64185
776.6981, 22.92041
777.1802, 25.18335
777.6623, 22.96509
778.1444, 13.55835
778.6265, 1.222412
779.1086, 5.069336
779.5908, 12.37720
780.0729, 37.19238
780.5550, 42.21411
781.0371, 25.03687
781.5192, 11.12231
782.0013, 1.219971
782.4835, 5.457031
782.9656, 4.982910
783.4477, 20.85327
783.9298, 31.09619
784.4119, 35.68896
784.8940, 37.28027
785.3762, 29.91333
785.8583, 27.71094
786.3404, 46.33691
786.8225, 62.23047
787.3046, 49.24609
787.7867, 16.45435
788.2689, 1.599609
788.7510, 12.45776
789.2331, 34.59302
789.7152, 49.85400
790.1973, 57.26538
790.6794, 50.52612
791.1616, 33.78345
791.6437, 25.03784
792.1258, 32.00659
792.6079, 44.98706
793.0900, 50.02271
793.5721, 48.52954
794.0543, 57.76147
794.5364, 81.28125
795.0185, 92.02344
795.5006, 77.64868
795.9827, 57.69800
796.4648, 51.86255
796.9470, 58.43237
797.4291, 59.23047
797.9112, 49.12085
798.3933, 40.52539
798.8754, 30.79199
799.3575, 25.86182
799.8397, 34.14575
800.3218, 48.24927
800.8039, 52.81470
801.2860, 42.54028
801.7681, 35.50586
802.2502, 44.59961
802.7324, 57.51001
803.2145, 63.55347
803.6966, 64.84326
804.1787, 65.64600
804.6608, 67.47900
805.1429, 71.74658
805.6251, 81.60864
806.1072, 92.17700
806.5893, 90.84570
807.0714, 79.43896
807.5535, 71.98535
808.0356, 70.99292
808.5178, 71.82153
808.9999, 71.56006
809.4820, 69.90747
809.9641, 67.65820
810.4462, 64.45898
810.9283, 64.17310
811.4105, 69.48364
811.8926, 73.52783
812.3747, 72.45386
812.8568, 69.51416
813.3389, 67.25903
813.8210, 65.77686
814.3032, 68.99658
814.7853, 85.56958
815.2674, 96.08789
815.7495, 87.08569
816.2316, 76.22021
816.7137, 81.04248
817.1959, 96.82764
817.6780, 103.0513
818.1601, 88.65625
818.6422, 74.99878
819.1243, 83.34937
819.6064, 101.7517
820.0886, 113.7285
820.5707, 118.7646
821.0528, 118.7241
821.5349, 114.2317
822.0170, 106.2166
822.4991, 97.87378
822.9813, 91.00806
823.4634, 87.38135
823.9455, 86.92627
824.4276, 87.71948
824.9097, 89.72827
825.3918, 89.99658
825.8740, 89.06152
826.3561, 88.42969
826.8382, 84.26465
827.3203, 72.32910
827.8024, 70.31006
828.2845, 88.15576
828.7667, 99.60229
829.2488, 92.79785
829.7309, 81.97339
830.2130, 81.85083
830.6951, 93.14282
831.1772, 96.73926
831.6594, 80.15210
832.1415, 64.68823
832.6236, 59.88062
833.1057, 60.40283
833.5878, 63.47461
834.0699, 66.58398
834.5521, 64.20459
835.0342, 53.03760
835.5163, 40.48291
835.9984, 32.22461
836.4805, 27.21216
836.9626, 25.78271
837.4448, 27.65649
837.9269, 28.80322
838.4090, 27.95703
838.8911, 25.07812
839.3732, 18.67285
839.8553, 11.00439
840.3375, 12.22534
840.8196, 23.29028
841.3017, 41.44385
841.7838, 70.56250
842.2659, 82.52686
842.7480, 52.30371
843.2302, 0.4350590
843.7123, 25.67529
844.1944, 15.36206
844.6765, 4.220947
845.1586, 8.901855
845.6407, 21.08081
846.1229, 33.49316
846.6050, 43.25220
847.0871, 44.89990
847.5692, 38.85010
848.0513, 32.20557
848.5334, 22.53857
849.0156, 16.94580
849.4977, 16.74194
849.9798, 21.86475
850.4619, 39.99780
850.9440, 61.63379
851.4261, 64.15137
851.9083, 39.24219
852.3904, 17.37256
852.8725, 22.96240
853.3546, 37.72632
853.8367, 44.40747
854.3188, 44.53467
854.8010, 40.88428
855.2831, 35.27979
855.7652, 32.97241
856.2473, 38.71191
856.7294, 47.29224
857.2115, 49.07593
857.6937, 45.55396
858.1758, 42.90161
858.6579, 41.77417
859.1400, 42.52832
859.6221, 45.48877
860.1042, 49.33838
860.5864, 52.60181
861.0685, 55.17407
861.5506, 54.64844
862.0327, 50.77930
862.5148, 43.89844
862.9969, 30.53979
863.4791, 21.15430
863.9612, 26.37256
864.4433, 41.42188
864.9254, 48.66162
865.4075, 41.63501
865.8896, 40.33813
866.3718, 54.51196
866.8539, 62.55396
867.3360, 48.62988
867.8181, 29.95117
868.3002, 28.24878
868.7823, 43.48169
869.2645, 53.99902
869.7466, 50.64331
870.2287, 46.32520
870.7108, 45.62427
871.1929, 46.31470
871.6750, 50.35229
872.1572, 53.30737
872.6393, 42.28467
873.1214, 12.08887
873.6035, 10.09155
874.0856, 6.483643
874.5677, 32.03564
875.0499, 30.04102
875.5320, 11.79517
876.0141, 2.298828
876.4962, 5.792969
876.9783, 11.58105
877.4604, 12.15698
877.9426, 12.38647
878.4247, 24.96704
878.9068, 43.84985
879.3889, 41.62817
879.8710, 18.79541
880.3531, 3.730713
880.8353, 8.114258
881.3174, 21.59009
881.7995, 32.73975
882.2816, 41.55811
882.7637, 49.72241
883.2458, 59.30688
883.7280, 50.72412
884.2101, 11.89233
884.6922, 21.00415
885.1743, 23.36523
885.6564, 3.990234
886.1385, 20.15698
886.6207, 54.48975
887.1028, 67.95386
887.5849, 45.38818
888.0670, 26.50073
888.5491, 24.97559
889.0313, 29.28296
889.5134, 27.34106
889.9955, 21.22925
890.4776, 23.61841
890.9597, 46.32227
891.4418, 57.94409
891.9240, 42.65967
892.4061, 27.88379
892.8882, 29.01025
893.3703, 39.44653
893.8524, 52.51514
894.3345, 66.54565
894.8167, 72.15356
895.2988, 51.85669
895.7809, 37.04736
896.2630, 54.61206
896.7451, 79.50708
897.2272, 84.61865
897.7094, 73.71533
898.1915, 63.12573
898.6736, 58.64917
899.1557, 56.31812
899.6378, 53.82495
900.1199, 51.10229
900.6021, 45.91211
901.0842, 40.76172
901.5663, 43.24146
902.0484, 54.59302
902.5305, 61.18335
903.0126, 53.68042
903.4948, 40.50830
903.9769, 31.21338
904.4590, 27.33911
904.9411, 38.10229
905.4232, 61.20435
905.9053, 78.71729
906.3875, 84.75391
906.8696, 80.19604
907.3517, 62.86084
907.8338, 40.63452
908.3159, 43.72534
908.7980, 72.40576
909.2802, 83.85474
909.7623, 70.96753
910.2444, 61.41431
910.7265, 68.95630
911.2086, 85.65967
911.6907, 101.9580
912.1729, 117.6687
912.6550, 120.2092
913.1371, 104.6963
913.6192, 91.22168
914.1013, 82.16699
914.5834, 77.68994
915.0656, 78.14819
915.5477, 83.11963
916.0298, 92.58154
916.5119, 109.5559
916.9940, 119.7139
917.4761, 121.8000
917.9583, 118.8071
918.4404, 102.3501
918.9225, 88.88306
919.4046, 95.34570
919.8867, 115.9988
920.3688, 129.0925
920.8510, 130.1306
921.3331, 130.0859
921.8152, 132.6865
922.2973, 132.0139
922.7794, 117.0298
923.2615, 102.6582
923.7437, 112.0032
924.2258, 142.0552
924.7079, 159.5984
925.1900, 148.0771
925.6721, 133.5110
926.1542, 124.8877
926.6364, 118.8516
927.1185, 111.5286
927.6006, 105.4038
928.0827, 108.0747
928.5648, 119.7749
929.0469, 124.4324
929.5291, 108.1719
930.0112, 87.33105
930.4933, 66.71973
930.9754, 53.50708
931.4575, 64.50269
931.9396, 91.02759
932.4218, 99.36890
932.9039, 78.01147
933.3860, 57.58252
933.8681, 72.54102
934.3502, 96.69678
934.8323, 94.11035
935.3145, 75.01855
935.7966, 59.78687
936.2787, 51.20312
936.7608, 43.27515
937.2429, 32.85864
937.7250, 22.22778
938.2072, 11.92871
938.6893, 4.372803
939.1714, 9.201416
939.6535, 21.70459
940.1356, 20.31128
940.6177, 1.836914
941.0999, 13.77197
941.5820, 12.19409
942.0641, 1.229248
942.5462, 4.017090
943.0283, 6.003906
943.5104, 13.93286
943.9926, 26.47510
944.4747, 28.90308
944.9568, 16.67188
945.4389, 0.7031250
945.9210, 15.74951
946.4031, 26.99414
946.8853, 28.96729
947.3674, 21.71851
947.8495, 15.79248
948.3316, 11.94922
948.8137, 7.956299
949.2958, 2.559814
949.7780, 1.377197
950.2601, 0.6811520
950.7422, 4.295166
951.2243, 13.63184
951.7064, 29.70972
952.1885, 33.26367
952.6707, 19.26611
953.1528, 4.404297
953.6349, 4.477783
954.1170, 8.332764
954.5991, 7.305420
955.0812, 1.866943
955.5634, 2.852295
956.0455, 12.90112
956.5276, 21.70947
957.0097, 30.10596
957.4918, 32.45459
957.9739, 22.40088
958.4561, 8.098877
958.9382, 3.054199
959.4203, 7.916260
959.9024, 12.69482
960.3845, 16.44629
960.8666, 22.32227
961.3488, 35.31250
961.8309, 44.21924
962.3130, 39.64844
962.7951, 27.67871
963.2772, 20.17432
963.7593, 18.02881
964.2415, 15.49390
964.7236, 5.783447
965.2057, 5.566895
965.6878, 28.51172
966.1699, 51.22241
966.6520, 57.27319
967.1342, 52.51245
967.6163, 49.10278
968.0984, 45.77295
968.5805, 50.13623
969.0626, 73.47314
969.5447, 89.93701
970.0269, 87.81421
970.5090, 81.26807
970.9911, 82.04517
971.4732, 86.90918
971.9553, 83.72559
972.4374, 63.48218
972.9196, 63.65381
973.4017, 115.2656
973.8838, 155.0349
974.3659, 151.7959
974.8480, 134.7747
975.3301, 124.8298
975.8123, 123.7200
976.2944, 133.1252
976.7765, 159.0530
977.2586, 176.1152
977.7407, 168.0205
978.2228, 162.8167
978.7050, 175.0588
979.1871, 194.2629
979.6692, 213.3643
980.1513, 229.6882
980.6334, 236.9893
981.1155, 229.5513
981.5977, 226.7715
982.0798, 235.3538
982.5619, 248.8643
983.0440, 271.0225
983.5261, 291.3967
984.0082, 294.1672
984.4904, 284.3823
984.9725, 285.3462
985.4546, 307.5366
985.9367, 327.7466
986.4188, 329.2144
986.9009, 335.9243
987.3831, 368.4958
987.8652, 409.6235
988.3473, 440.9927
988.8294, 460.6580
989.3115, 470.5674
989.7936, 464.9612
990.2758, 468.4827
990.7579, 496.4075
991.2400, 531.0356
991.7221, 562.8074
992.2042, 593.4329
992.6863, 628.6335
993.1685, 666.2783
993.6506, 694.9224
994.1327, 705.6379
994.6148, 721.8206
995.0969, 757.6514
995.5790, 798.4299
996.0612, 836.4709
996.5433, 871.7825
997.0254, 904.0103
997.5075, 934.4309
997.9896, 966.8792
998.4717, 1000.710
998.9539, 1041.387
999.4360, 1101.394
999.9181, 1161.770
1000.400, 1201.071
1000.882, 1236.422
1001.364, 1292.996
1001.847, 1368.627
1002.329, 1440.241
1002.811, 1498.862
1003.293, 1556.184
1003.775, 1613.298
1004.257, 1675.100
1004.739, 1748.888
1005.221, 1827.537
1005.703, 1897.867
1006.186, 1962.326
1006.668, 2041.150
1007.150, 2151.171
1007.632, 2239.931
1008.114, 2256.717
1008.596, 2273.309
1009.078, 2355.019
1009.560, 2449.987
1010.043, 2495.014
1010.525, 2492.906
1011.007, 2483.125
1011.489, 2480.434
1011.971, 2457.742
1012.453, 2396.523
1012.935, 2319.665
1013.417, 2239.776
1013.899, 2153.137
1014.382, 2053.263
1014.864, 1942.731
1015.346, 1829.653
1015.828, 1716.571
1016.310, 1601.837
1016.792, 1479.979
1017.274, 1361.913
1017.756, 1248.001
1018.239, 1145.203
1018.721, 1067.512
1019.203, 1006.536
1019.685, 934.5994
1020.167, 841.2837
1020.649, 758.8748
1021.131, 699.9207
1021.613, 650.5215
1022.095, 604.7637
1022.578, 564.9924
1023.060, 537.8096
1023.542, 517.6738
1024.024, 488.9746
1024.506, 446.3113
1024.988, 412.9802
1025.470, 400.1299
1025.952, 391.2278
1026.435, 380.4502
1026.917, 371.1780
1027.399, 372.4492
1027.881, 375.6731
1028.363, 358.4749
1028.845, 313.8909
1029.327, 285.3831
1029.809, 285.8296
1030.292, 296.3096
1030.774, 324.9573
1031.256, 348.8110
1031.738, 350.9607
1032.220, 338.2346
1032.702, 322.0854
1033.184, 303.0061
1033.666, 286.0015
1034.148, 264.0737
1034.630, 254.1133
1035.113, 275.0525
1035.595, 292.0586
1036.077, 278.1582
1036.559, 252.5461
1037.041, 245.5940
1037.523, 258.4827
1038.005, 265.7136
1038.487, 259.9463
1038.970, 258.6550
1039.452, 269.6318
1039.934, 275.6602
1040.416, 266.8391
1040.898, 251.7207
1041.380, 236.9214
1041.862, 223.4924
1042.344, 224.3938
1042.826, 254.7964
1043.309, 264.9014
1043.791, 239.2737
1044.273, 219.3755
1044.755, 224.2112
1045.237, 235.5471
1045.719, 235.6973
1046.201, 226.3198
1046.683, 214.0913
1047.166, 195.1011
1047.648, 187.8689
1048.130, 198.7805
1048.612, 201.9871
1049.094, 186.7119
1049.576, 169.4426
1050.058, 164.7188
1050.540, 167.5181
1051.022, 163.8079
1051.505, 152.6357
1051.987, 145.7275
1052.469, 144.7866
1052.951, 134.4536
1053.433, 107.3118
1053.915, 93.42041
1054.397, 116.2351
1054.879, 153.4539
1055.361, 163.0005
1055.844, 147.5361
1056.326, 139.4551
1056.808, 138.6550
1057.290, 134.0139
1057.772, 123.5803
1058.254, 114.4126
1058.736, 109.5457
1059.218, 106.4692
1059.701, 101.7190
1060.183, 95.65283
1060.665, 89.36353
1061.147, 82.84351
1061.629, 75.54932
1062.111, 67.81152
1062.593, 61.76660
1063.075, 58.37891
1063.557, 61.51440
1064.040, 79.43823
1064.522, 96.87476
1065.004, 76.19263
1065.486, 36.41040
1065.968, 27.72437
1066.450, 44.37939
1066.932, 52.94214
1067.414, 45.10913
1067.896, 34.28711
1068.379, 28.47900
1068.861, 27.74927
1069.343, 34.39136
1069.825, 44.47363
1070.307, 55.56177
1070.789, 64.53882
1071.271, 66.19043
1071.753, 60.05249
1072.236, 46.34863
1072.718, 23.36426
1073.200, 8.598877
1073.682, 20.06128
1074.164, 38.20874
1074.646, 50.32007
1075.128, 56.32520
1075.610, 57.35938
1076.093, 52.79126
1076.575, 38.29932
1077.057, 12.25488
1077.539, 8.009766
1078.021, 13.90405
1078.503, 13.57153
1078.985, 8.531494
1079.467, 1.055664
1079.949, 11.85034
1080.432, 23.81714
1080.914, 21.88745
1081.396, 5.750244
1081.878, 2.727295
1082.360, 2.785156
1082.842, 13.07812
1083.324, 31.52124
1083.806, 46.76904
1084.288, 54.35083
1084.771, 55.42822
1085.253, 49.62305
1085.735, 38.30762
1086.217, 26.98047
1086.699, 12.77124
1087.181, 7.743408
1087.663, 18.50366
1088.145, 25.04785
1088.628, 20.77344
1089.110, 14.48389
1089.592, 12.62622
1090.074, 11.62158
1090.556, 3.484375
1091.038, 11.43579
1091.520, 13.63965
1092.002, 0.1040040
1092.484, 7.295166
1092.967, 4.004395
1093.449, 0.9763180
1093.931, 4.448975
1094.413, 6.615479
1094.895, 3.911377
1095.377, 22.15308
1095.859, 30.05566
1096.341, 28.38477
1096.823, 22.47656
1097.306, 12.53564
1097.788, 5.102051
1098.270, 30.82056
1098.752, 46.90381
1099.234, 37.52417
1099.716, 18.19849
1100.198, 11.12769
1100.680, 12.54785
1101.163, 16.43188
1101.645, 21.30615
1102.127, 23.57251
1102.609, 24.33130
1103.091, 32.22925
1103.573, 52.08740
1104.055, 65.03613
1104.537, 46.28540
1105.020, 22.95239
1105.502, 20.34131
1105.984, 28.04858
1106.466, 35.85400
1106.948, 41.59058
1107.430, 46.01172
1107.912, 49.29736
1108.394, 48.26611
1108.876, 34.05640
1109.359, 27.93140
1109.841, 49.35742
1110.323, 67.87378
1110.805, 59.53076
1111.287, 40.67554
1111.769, 31.17285
1112.251, 31.23438
1112.733, 34.78467
1113.215, 45.45947
1113.698, 49.20801
1114.180, 44.38965
1114.662, 34.34644
1115.144, 10.21533
1115.626, 4.439453
1116.108, 12.49060
1116.590, 42.27795
1117.072, 49.73694
1117.555, 34.90161
1118.037, 27.77795
1118.519, 29.75537
1119.001, 31.66431
1119.483, 32.06799
1119.965, 36.27734
1120.447, 47.62024
1120.929, 55.43347
1121.411, 47.56860
1121.894, 31.80957
1122.376, 31.27039
1122.858, 41.44312
1123.340, 34.58203
1123.822, 14.33203
1124.304, 6.792847
1124.786, 17.16943
1125.268, 37.03149
1125.750, 62.65955
1126.233, 77.95618
1126.715, 52.30994
1127.197, 15.67212
1127.679, 12.94971
1128.161, 26.38025
1128.643, 28.94275
1129.125, 20.79077
1129.607, 9.822021
1130.090, 0.8417970
1130.572, 4.405396
1131.054, 6.671143
1131.536, 18.24622
1132.018, 24.47388
1132.500, 27.11499
1132.982, 26.38000
1133.464, 23.47644
1133.947, 18.89978
1134.429, 13.37695
1134.911, 8.871826
1135.393, 4.951660
1135.875, 3.696533
1136.357, 6.614380
1136.839, 10.83386
1137.321, 14.84009
1137.803, 22.16016
1138.286, 40.65845
1138.768, 56.21887
1139.250, 44.30432
1139.732, 9.514648
1140.214, 2.370117
1140.696, 12.43408
1141.178, 20.21484
1141.660, 18.41882
1142.142, 12.70703
1142.625, 4.456177
1143.107, 0.9125980
1143.589, 8.552612
1144.071, 19.86572
1144.553, 21.93616
1145.035, 17.01758
1145.517, 10.56433
1145.999, 3.273438
1146.482, 5.695435
1146.964, 13.81238
1147.446, 8.671143
1147.928, 13.08020
1148.410, 29.89099
1148.892, 21.81165
1149.374, 8.531250
1149.856, 5.879761
1150.339, 8.340210
1150.821, 12.28955
1151.303, 17.04504
1151.785, 23.56262
1152.267, 30.64661
1152.749, 33.84363
1153.231, 31.30151
1153.713, 24.89929
1154.195, 9.257935
1154.677, 0.7758790
1155.160, 4.792847
1155.642, 11.30615
1156.124, 7.588013
1156.606, 0.4094240
1157.088, 6.3965000E-02
1157.570, 5.723633
1158.052, 6.900635
1158.534, 1.356079
1159.017, 2.828125
1159.499, 13.92102
1159.981, 20.01099
1160.463, 16.30933
1160.945, 9.702271
1161.427, 4.546143
1161.909, 2.645142
1162.391, 10.42480
1162.874, 22.78259
1163.356, 17.06323
1163.838, 1.033447
1164.320, 6.583862
1164.802, 29.22241
1165.284, 34.56006
1165.766, 13.51416
1166.248, 7.361450
1166.730, 10.77869
1167.213, 7.378174
1167.695, 6.059937
1168.177, 0.9910890
1168.659, 19.42383
1169.141, 40.01440
1169.623, 37.54980
1170.105, 19.09583
1170.587, 10.29333
1171.069, 17.78455
1171.552, 22.58740
1172.034, 21.88330
1172.516, 17.65625
1172.998, 4.833496
1173.480, 3.702637
1173.962, 1.597290
1174.444, 6.056763
1174.926, 14.51025
1175.409, 23.79016
1175.891, 36.06873
1176.373, 52.67944
1176.855, 48.95227
1177.337, 24.15857
1177.819, 11.75293
1178.301, 17.96082
1178.783, 30.26392
1179.266, 41.31030
1179.748, 47.62671
1180.230, 43.54773
1180.712, 35.64758
1181.194, 36.85400
1181.676, 42.09558
1182.158, 44.47388
1182.640, 43.26697
1183.122, 34.07263
1183.604, 21.93701
1184.087, 21.01550
1184.569, 39.04468
1185.051, 53.31580
1185.533, 44.70923
1186.015, 37.42419
1186.497, 45.33301
1186.979, 60.04517
1187.461, 73.97168
1187.944, 80.83545
1188.426, 69.72522
1188.908, 44.56409
1189.390, 30.51501
1189.872, 28.96875
1190.354, 32.82715
1190.836, 45.67969
1191.318, 56.05017
1191.801, 64.37427
1192.283, 63.33875
1192.765, 49.83716
1193.247, 35.00598
1193.729, 33.98865
1194.211, 43.39929
1194.693, 53.16138
1195.175, 62.07092
1195.657, 61.58459
1196.140, 50.62549
1196.622, 43.90491
1197.104, 44.58655
1197.586, 45.16516
1198.068, 40.30798
1198.550, 40.31628
1199.032, 55.58679
1199.514, 68.66565
1199.996, 77.43799
1200.479, 80.56323
1200.961, 70.50061
1201.443, 53.99561
1201.925, 39.05371
1202.407, 28.58777
1202.889, 25.82007
1203.371, 32.72461
1203.853, 41.29724
1204.336, 54.65002
1204.818, 56.72034
1205.300, 43.14514
1205.782, 29.71448
1206.264, 24.88879
1206.746, 28.09985
1207.228, 41.05737
1207.710, 57.13660
1208.193, 61.36218
1208.675, 56.22522
1209.157, 45.64062
1209.639, 32.70959
1210.121, 27.45837
1210.603, 29.05969
1211.085, 27.25012
1211.567, 17.69666
1212.049, 9.059692
1212.531, 3.246338
1213.014, 4.669434
1213.496, 24.14600
1213.978, 41.96851
1214.460, 41.03125
1214.942, 32.92114
1215.424, 33.29443
1215.906, 39.37878
1216.388, 38.36011
1216.871, 28.17407
1217.353, 23.61902
1217.835, 24.67017
1218.317, 34.78699
1218.799, 57.36487
1219.281, 59.80237
1219.763, 30.13538
1220.245, 0.3510740
1220.728, 1.687012
1221.210, 13.96179
1221.692, 32.52979
1222.174, 47.89856
1222.656, 42.90283
1223.138, 16.48157
1223.620, 6.345581
1224.102, 3.083008
1224.584, 2.105591
1225.067, 0.0000000E+00
##END=



