##NAMES=Augite
##RRUFFID=R061108
##IDEAL CHEMISTRY=(Ca,Mg,Fe)_2_(Si,Al)_2_O_6_
##LOCALITY=Monti Rossi, near Mt. Etna, Sicily, Italy
##OWNER=RRUFF
##SOURCE=Michael Scott
##DESCRIPTION=Euhedral, short prismatic, black crystals in vesicular basalt.
##STATUS=The identification of this mineral is confirmed by single-crystal X-ray diffraction and chemical analysis.
##URL=rruff.info/R061108
##MEASURED CHEMISTRY=(Ca_0.86_Mg_0.74_Fe^2+^_0.18_Fe^3+^_0.08_Al_0.05_Ti_0.04_Na_0.04_Mn_0.01_)_Σ=2_(Si_1.83_Al_0.17_)_Σ=2_O_6_
138.5035, 0.0000000E+00
138.9856, 31.21802
139.4677, 18.60876
139.9498, 12.76978
140.4319, 16.70422
140.9140, 95.56372
141.3961, 171.4355
141.8783, 241.7849
142.3604, 308.2756
142.8425, 367.9155
143.3246, 420.3760
143.8067, 479.8877
144.2888, 556.7900
144.7710, 647.7568
145.2531, 744.0630
145.7352, 830.9058
146.2173, 881.0171
146.6994, 891.1365
147.1815, 885.9692
147.6637, 867.6113
148.1458, 816.9438
148.6279, 758.1243
149.1100, 730.0598
149.5921, 761.7637
150.0742, 815.8645
150.5564, 836.5942
151.0385, 817.7202
151.5206, 789.6584
152.0027, 762.1270
152.4848, 736.8896
152.9669, 718.3020
153.4491, 711.7827
153.9312, 710.1084
154.4133, 699.5068
154.8954, 678.4028
155.3775, 649.6758
155.8596, 608.3367
156.3418, 561.3799
156.8239, 519.6248
157.3060, 487.0291
157.7881, 462.7971
158.2702, 445.4648
158.7523, 436.6758
159.2345, 431.8860
159.7166, 428.0769
160.1987, 426.4373
160.6808, 428.9766
161.1629, 437.1077
161.6451, 450.3152
162.1272, 467.7349
162.6093, 497.5388
163.0914, 519.0603
163.5735, 528.1189
164.0556, 525.7729
164.5378, 511.3452
165.0199, 477.8025
165.5020, 433.0164
165.9841, 418.3777
166.4662, 455.6960
166.9483, 495.0686
167.4305, 525.7681
167.9126, 546.8789
168.3947, 557.0664
168.8768, 552.7717
169.3589, 536.8862
169.8410, 529.6206
170.3232, 534.7473
170.8053, 544.4736
171.2874, 562.6865
171.7695, 583.0071
172.2516, 594.6306
172.7337, 588.5955
173.2159, 567.1538
173.6980, 552.2288
174.1801, 550.1294
174.6622, 547.5830
175.1443, 538.8572
175.6264, 527.2722
176.1085, 518.7786
176.5907, 517.5491
177.0728, 523.0591
177.5549, 530.1028
178.0370, 548.0969
178.5191, 556.8938
179.0012, 542.0876
179.4834, 515.6179
179.9655, 498.9219
180.4476, 508.1277
180.9297, 539.9268
181.4118, 557.4983
181.8939, 544.5486
182.3761, 532.8003
182.8582, 529.3354
183.3403, 531.3787
183.8224, 533.5801
184.3045, 532.5667
184.7866, 528.5708
185.2688, 523.1995
185.7509, 510.7610
186.2330, 503.0320
186.7151, 509.6628
187.1972, 521.7102
187.6793, 523.4829
188.1615, 503.8960
188.6436, 466.6892
189.1257, 442.5188
189.6078, 453.8428
190.0899, 454.8464
190.5720, 424.1348
191.0542, 380.1350
191.5363, 353.7742
192.0184, 365.5498
192.5005, 406.8982
192.9826, 425.5894
193.4647, 397.0154
193.9469, 371.1243
194.4290, 355.7925
194.9111, 347.5227
195.3932, 340.0447
195.8753, 330.1384
196.3574, 315.9475
196.8396, 307.1458
197.3217, 314.2690
197.8038, 315.7043
198.2859, 303.4988
198.7680, 287.4409
199.2501, 282.0178
199.7323, 294.1665
200.2144, 316.4197
200.6965, 322.0869
201.1786, 300.4492
201.6607, 272.4102
202.1428, 217.7703
202.6250, 164.6208
203.1071, 157.2053
203.5892, 217.8528
204.0713, 314.8833
204.5534, 351.8865
205.0355, 253.4146
205.5177, 179.2786
205.9998, 149.4934
206.4819, 143.6833
206.9640, 140.7336
207.4461, 131.8381
207.9282, 118.4182
208.4104, 100.4304
208.8925, 62.71753
209.3746, 39.93481
209.8567, 40.54688
210.3388, 52.42554
210.8209, 64.12451
211.3030, 71.96826
211.7852, 79.53809
212.2673, 94.59351
212.7494, 135.6353
213.2315, 155.6785
213.7136, 140.9011
214.1957, 115.9534
214.6779, 101.2429
215.1600, 102.4858
215.6421, 111.3066
216.1242, 114.6614
216.6063, 109.0828
217.0884, 103.5171
217.5706, 98.03564
218.0527, 92.80029
218.5348, 87.06079
219.0169, 81.23706
219.4990, 77.72925
219.9811, 80.28662
220.4633, 92.83716
220.9454, 57.29248
221.4275, 112.0317
221.9096, 142.1379
222.3917, 148.8350
222.8738, 62.39771
223.3560, 96.24048
223.8381, 83.19019
224.3202, 69.97144
224.8023, 123.3184
225.2844, 50.82349
225.7665, 100.5625
226.2487, 101.3730
226.7308, 124.6272
227.2129, 99.78979
227.6950, 90.86060
228.1771, 131.0125
228.6592, 144.1001
229.1414, 114.1450
229.6235, 138.9580
230.1056, 64.45825
230.5877, 76.98364
231.0698, 127.0583
231.5519, 98.67041
232.0341, 102.0906
232.5162, 105.0732
232.9983, 65.41211
233.4804, 34.37524
233.9625, 28.56030
234.4446, 39.21484
234.9268, 50.36865
235.4089, 52.24414
235.8910, 46.09839
236.3731, 38.81177
236.8552, 22.23267
237.3373, 14.83691
237.8195, 30.29736
238.3016, 53.38696
238.7837, 63.13745
239.2658, 48.39062
239.7479, 18.84570
240.2300, 3.588379
240.7122, 10.87061
241.1943, 21.05176
241.6764, 36.61646
242.1585, 50.99536
242.6406, 55.70752
243.1227, 47.73584
243.6049, 35.30103
244.0870, 36.45825
244.5691, 64.68604
245.0512, 76.29053
245.5333, 51.42688
246.0154, 20.47461
246.4975, 7.653931
246.9797, 17.70850
247.4618, 35.44714
247.9439, 39.56531
248.4260, 24.83643
248.9081, 15.07068
249.3902, 16.04419
249.8724, 19.17737
250.3545, 21.48267
250.8366, 22.01489
251.3187, 19.78076
251.8008, 11.77759
252.2829, 3.054077
252.7651, 12.01135
253.2472, 11.70715
253.7293, 7.820313
254.2114, 2.394531
254.6935, 15.16748
255.1756, 20.07935
255.6578, 3.917480
256.1399, 29.84949
256.6220, 48.80066
257.1041, 46.21460
257.5862, 36.92969
258.0684, 24.65686
258.5505, 11.49097
259.0326, 0.8933110
259.5147, 6.331787
259.9968, 9.198975
260.4789, 2.948608
260.9611, 18.25684
261.4432, 35.06348
261.9253, 40.66907
262.4074, 37.08948
262.8895, 23.52515
263.3716, 6.053223
263.8537, 35.84375
264.3358, 39.04749
264.8180, 10.61511
265.3001, 14.78650
265.7822, 22.10339
266.2643, 20.59961
266.7464, 18.05981
267.2285, 15.06519
267.7107, 13.57251
268.1928, 18.07654
268.6749, 27.84180
269.1570, 30.50684
269.6391, 17.31824
270.1212, 0.5638430
270.6034, 6.402466
271.0855, 3.162598
271.5676, 5.346313
272.0497, 21.73853
272.5318, 41.76794
273.0139, 51.27649
273.4961, 45.36414
273.9782, 33.30127
274.4603, 23.14404
274.9424, 14.76721
275.4245, 8.748657
275.9066, 7.937378
276.3888, 8.533569
276.8709, 3.972534
277.3530, 7.009033
277.8351, 17.45898
278.3172, 20.10669
278.7993, 16.39417
279.2815, 17.07568
279.7636, 34.67627
280.2457, 48.40430
280.7278, 33.18555
281.2099, 6.674927
281.6920, 35.07129
282.1742, 26.12073
282.6563, 11.70337
283.1384, 33.54065
283.6205, 32.78320
284.1026, 25.18872
284.5847, 10.80652
285.0669, 5.652100
285.5490, 14.38953
286.0311, 10.87842
286.5132, 2.660889
286.9953, 22.04944
287.4774, 61.14990
287.9596, 83.44543
288.4417, 67.19348
288.9238, 38.76453
289.4059, 29.13745
289.8880, 46.50708
290.3701, 76.82983
290.8523, 100.8231
291.3344, 116.6100
291.8165, 129.3389
292.2986, 143.8922
292.7807, 151.9225
293.2628, 141.5283
293.7450, 116.2140
294.2271, 94.37622
294.7092, 93.94434
295.1913, 116.7012
295.6734, 138.7627
296.1555, 164.1570
296.6377, 184.6689
297.1198, 195.3207
297.6019, 199.0931
298.0840, 200.8835
298.5661, 203.1298
299.0482, 206.9305
299.5304, 218.5383
300.0125, 253.4890
300.4946, 273.8115
300.9767, 262.2507
301.4588, 239.3269
301.9409, 227.1309
302.4231, 233.8724
302.9052, 250.2676
303.3873, 259.4541
303.8694, 256.5353
304.3515, 261.9576
304.8336, 287.5762
305.3158, 315.7562
305.7979, 335.6228
306.2800, 346.1653
306.7621, 353.9336
307.2442, 365.3578
307.7263, 380.2484
308.2085, 392.2471
308.6906, 398.0621
309.1727, 404.5422
309.6548, 416.1660
310.1369, 431.5884
310.6190, 446.7588
311.1012, 460.3657
311.5833, 472.5725
312.0654, 481.8486
312.5475, 485.5007
313.0296, 494.8851
313.5117, 524.1978
313.9939, 560.5437
314.4760, 586.5305
314.9581, 598.3154
315.4402, 602.4226
315.9223, 600.9788
316.4044, 594.9868
316.8866, 593.1189
317.3687, 598.7053
317.8508, 609.8704
318.3329, 624.3804
318.8150, 643.9055
319.2971, 657.0862
319.7793, 655.2241
320.2614, 646.6345
320.7435, 645.4480
321.2256, 655.5957
321.7077, 670.7332
322.1898, 684.8008
322.6720, 697.1752
323.1541, 713.1974
323.6362, 744.7418
324.1183, 772.8401
324.6004, 779.7963
325.0826, 767.7097
325.5647, 752.9872
326.0468, 747.3000
326.5289, 749.8724
327.0110, 752.5979
327.4931, 761.6984
327.9753, 766.2712
328.4574, 758.5869
328.9395, 744.2209
329.4216, 733.8596
329.9037, 732.1201
330.3858, 731.8147
330.8680, 716.0159
331.3501, 667.6030
331.8322, 635.1653
332.3143, 629.1392
332.7964, 631.7584
333.2785, 633.2317
333.7606, 630.0200
334.2427, 620.0151
334.7249, 598.4741
335.2070, 562.9333
335.6891, 537.1360
336.1712, 525.5217
336.6533, 519.2894
337.1354, 516.3923
337.6176, 516.4568
338.0997, 519.2942
338.5818, 526.0493
339.0639, 533.3657
339.5460, 534.3658
340.0281, 529.7241
340.5103, 527.2520
340.9924, 530.5392
341.4745, 533.7837
341.9566, 529.9636
342.4387, 515.5487
342.9208, 499.1425
343.4030, 487.1587
343.8851, 480.7584
344.3672, 487.0271
344.8493, 515.4304
345.3314, 545.5962
345.8135, 552.2979
346.2957, 536.1388
346.7778, 521.6185
347.2599, 515.9320
347.7420, 517.7100
348.2241, 526.4374
348.7062, 542.0906
349.1884, 560.5013
349.6705, 581.9050
350.1526, 604.3024
350.6347, 610.0210
351.1168, 578.4757
351.5989, 551.2168
352.0811, 555.5496
352.5632, 579.8674
353.0453, 596.1161
353.5274, 590.7008
354.0095, 570.8804
354.4916, 554.4062
354.9738, 539.7520
355.4559, 531.2411
355.9380, 529.9027
356.4201, 534.0344
356.9022, 546.9983
357.3843, 566.7771
357.8665, 581.1807
358.3486, 574.1582
358.8307, 540.6603
359.3128, 521.9980
359.7949, 539.8546
360.2770, 551.1351
360.7592, 535.3436
361.2413, 503.7231
361.7234, 478.8517
362.2055, 473.9843
362.6876, 483.0806
363.1697, 490.4424
363.6519, 497.7335
364.1340, 499.1746
364.6161, 484.3088
365.0982, 466.1694
365.5803, 457.4768
366.0624, 461.0801
366.5446, 469.9020
367.0267, 483.6619
367.5088, 499.5117
367.9909, 497.9653
368.4730, 466.5758
368.9551, 435.0829
369.4373, 436.2783
369.9194, 461.3528
370.4015, 480.7906
370.8836, 482.5585
371.3657, 479.9282
371.8478, 486.9478
372.3300, 501.7589
372.8121, 511.1719
373.2942, 508.2416
373.7763, 498.2114
374.2584, 499.9146
374.7405, 520.2728
375.2227, 539.4944
375.7048, 551.3308
376.1869, 559.7717
376.6690, 569.7329
377.1511, 582.6248
377.6332, 597.8196
378.1154, 619.4502
378.5975, 643.9714
379.0796, 656.2804
379.5617, 643.7958
380.0438, 636.7815
380.5259, 645.8994
381.0081, 669.0573
381.4902, 690.9021
381.9723, 697.1196
382.4544, 698.8237
382.9365, 710.0363
383.4186, 744.7026
383.9008, 771.5530
384.3829, 778.6769
384.8650, 780.7561
385.3471, 789.7678
385.8292, 809.4861
386.3113, 831.5222
386.7935, 848.4906
387.2756, 862.7050
387.7577, 870.6895
388.2398, 869.0925
388.7219, 866.5106
389.2040, 871.6016
389.6862, 880.7793
390.1683, 882.1560
390.6504, 869.4919
391.1325, 849.5951
391.6146, 825.8281
392.0967, 797.6252
392.5789, 772.5483
393.0610, 756.8696
393.5431, 746.2173
394.0252, 727.3835
394.5073, 697.2235
394.9894, 667.4282
395.4716, 642.7020
395.9537, 618.9670
396.4358, 589.4341
396.9179, 553.3167
397.4000, 519.0295
397.8821, 496.9753
398.3643, 490.3027
398.8464, 469.7687
399.3285, 427.8054
399.8106, 381.6891
400.2927, 326.4126
400.7748, 273.0802
401.2570, 242.7971
401.7391, 246.9895
402.2212, 267.9998
402.7033, 265.1167
403.1854, 228.5262
403.6675, 194.7295
404.1497, 168.7152
404.6317, 147.3496
405.1139, 128.9772
405.5960, 113.6471
406.0781, 102.9690
406.5602, 101.1104
407.0423, 104.9792
407.5244, 104.2297
408.0066, 98.37476
408.4887, 88.51453
408.9708, 70.71289
409.4529, 50.28088
409.9350, 38.03442
410.4171, 39.67566
410.8993, 43.06946
411.3814, 38.57788
411.8635, 29.95593
412.3456, 27.57141
412.8277, 35.19275
413.3098, 46.18555
413.7920, 51.60779
414.2741, 49.34583
414.7562, 48.25745
415.2383, 54.32336
415.7204, 56.41211
416.2025, 40.93347
416.6847, 14.76538
417.1668, 0.6551510
417.6489, 9.445923
418.1310, 36.49792
418.6131, 45.55725
419.0952, 22.54419
419.5774, 4.022705
420.0595, 4.261841
420.5416, 8.028564
421.0237, 13.63855
421.5058, 21.16272
421.9879, 22.84607
422.4701, 4.316406
422.9522, 31.06799
423.4343, 44.84888
423.9164, 25.16516
424.3985, 4.773071
424.8806, 8.297241
425.3628, 22.84888
425.8449, 25.55994
426.3270, 3.109863
426.8091, 20.54272
427.2912, 21.23010
427.7733, 5.189575
428.2555, 1.534546
428.7376, 11.60657
429.2197, 29.05579
429.7018, 26.86902
430.1839, 0.9627690
430.6660, 17.79419
431.1482, 10.45239
431.6303, 0.2945560
432.1124, 2.743896
432.5945, 15.84692
433.0766, 30.96387
433.5587, 43.80969
434.0409, 52.19666
434.5230, 46.78748
435.0051, 11.88013
435.4872, 58.27026
435.9693, 1.855103
436.4514, 29.91846
436.9336, 38.37598
437.4157, 46.30957
437.8978, 10.74915
438.3799, 23.39783
438.8620, 38.03955
439.3441, 14.40051
439.8263, 56.81555
440.3084, 5.473755
440.7905, 3.074463
441.2726, 21.71594
441.7547, 1.991821
442.2368, 10.72510
442.7190, 29.04602
443.2011, 41.95483
443.6832, 12.64722
444.1653, 38.84436
444.6474, 34.12952
445.1295, 20.10254
445.6117, 31.45801
446.0938, 13.40137
446.5759, 27.99927
447.0580, 30.40393
447.5401, 25.09106
448.0222, 6.880859
448.5044, 16.56091
448.9865, 29.79431
449.4686, 25.08679
449.9507, 9.611206
450.4328, 0.2167970
450.9149, 0.4786380
451.3971, 4.466064
451.8792, 26.15259
452.3613, 44.59534
452.8434, 44.71899
453.3255, 30.42725
453.8076, 18.46704
454.2898, 20.61438
454.7719, 31.91064
455.2540, 41.54041
455.7361, 50.05371
456.2182, 53.12866
456.7003, 44.31909
457.1825, 32.22107
457.6646, 30.95081
458.1467, 43.80029
458.6288, 53.47046
459.1109, 48.78503
459.5930, 38.85547
460.0752, 37.14026
460.5573, 44.69165
461.0394, 52.03687
461.5215, 51.48376
462.0036, 43.96423
462.4857, 39.77441
462.9679, 41.99329
463.4500, 43.55383
463.9321, 41.19934
464.4142, 38.68945
464.8963, 41.10144
465.3784, 49.11316
465.8606, 57.70386
466.3427, 61.61829
466.8248, 60.81677
467.3069, 55.74597
467.7890, 40.13208
468.2711, 29.73730
468.7533, 35.43152
469.2354, 49.16467
469.7175, 58.68762
470.1996, 60.41675
470.6817, 57.90588
471.1638, 50.83618
471.6460, 41.58252
472.1281, 40.39502
472.6102, 50.92737
473.0923, 64.70020
473.5744, 73.15405
474.0565, 75.71399
474.5387, 77.14832
475.0208, 80.75610
475.5029, 79.94592
475.9850, 66.93408
476.4671, 47.49744
476.9492, 31.78931
477.4313, 24.02710
477.9135, 22.07690
478.3956, 24.49414
478.8777, 34.86731
479.3598, 38.53345
479.8419, 25.25098
480.3240, 16.65564
480.8062, 23.69348
481.2883, 41.03162
481.7704, 56.41589
482.2525, 64.03015
482.7346, 66.80969
483.2167, 67.78857
483.6989, 67.04614
484.1810, 68.36047
484.6631, 72.29395
485.1452, 77.48999
485.6273, 82.49280
486.1094, 87.02710
486.5916, 86.06665
487.0737, 72.17725
487.5558, 58.83020
488.0379, 57.32471
488.5200, 64.57886
489.0021, 75.04016
489.4843, 86.13586
489.9664, 96.57153
490.4485, 102.0670
490.9306, 92.19861
491.4127, 107.3834
491.8948, 117.8810
492.3770, 123.9508
492.8591, 112.2848
493.3412, 119.6848
493.8233, 121.4470
494.3054, 123.1373
494.7875, 137.6129
495.2697, 125.4545
495.7518, 138.8822
496.2339, 142.2004
496.7160, 148.8748
497.1981, 148.8717
497.6802, 148.0009
498.1624, 159.6011
498.6445, 166.2416
499.1266, 165.1838
499.6087, 174.4399
500.0908, 164.2683
500.5729, 178.8016
501.0551, 191.8672
501.5372, 211.2471
502.0193, 232.3252
502.5014, 240.3302
502.9835, 231.6382
503.4656, 224.8241
503.9478, 211.8594
504.4299, 205.4615
504.9120, 219.1536
505.3941, 247.3035
505.8762, 270.6660
506.3583, 274.4175
506.8405, 266.8918
507.3226, 266.3014
507.8047, 273.7079
508.2868, 285.1018
508.7689, 303.0522
509.2510, 319.4119
509.7332, 320.7981
510.2153, 306.3463
510.6974, 299.2334
511.1795, 307.8153
511.6616, 324.4031
512.1437, 346.1737
512.6259, 370.5532
513.1080, 390.6327
513.5901, 402.5416
514.0722, 409.1598
514.5543, 417.9299
515.0364, 436.0647
515.5186, 441.6105
516.0007, 417.8481
516.4828, 397.9518
516.9649, 404.4200
517.4470, 430.0675
517.9291, 452.0546
518.4113, 456.7399
518.8934, 453.4667
519.3755, 455.9437
519.8576, 464.1897
520.3397, 482.4895
520.8218, 520.0184
521.3040, 556.1613
521.7861, 560.2377
522.2682, 533.8794
522.7503, 515.5801
523.2324, 518.2434
523.7145, 524.0089
524.1967, 517.1610
524.6788, 504.7214
525.1609, 506.3777
525.6430, 530.6169
526.1251, 561.9120
526.6072, 572.6929
527.0894, 554.7869
527.5715, 543.5729
528.0536, 547.6907
528.5357, 549.9258
529.0178, 542.0166
529.4999, 527.9922
529.9821, 514.2560
530.4642, 501.0403
530.9463, 495.1948
531.4284, 514.2584
531.9105, 549.7495
532.3926, 558.5884
532.8748, 527.0221
533.3569, 488.0885
533.8390, 469.7460
534.3211, 472.8048
534.8032, 487.8171
535.2853, 535.1449
535.7675, 570.2219
536.2496, 566.7703
536.7317, 547.2502
537.2138, 544.2192
537.6959, 564.2576
538.1780, 583.6390
538.6602, 572.5885
539.1423, 531.8770
539.6244, 504.1566
540.1065, 493.0845
540.5886, 489.8805
541.0707, 496.1949
541.5529, 505.6437
542.0350, 509.7001
542.5171, 505.8727
542.9992, 501.7209
543.4813, 503.6946
543.9634, 507.7539
544.4456, 505.6506
544.9277, 497.2649
545.4098, 492.1831
545.8919, 497.9171
546.3740, 510.6073
546.8561, 513.7897
547.3383, 494.7119
547.8204, 482.0265
548.3025, 480.7587
548.7846, 483.9991
549.2667, 489.1735
549.7488, 495.3304
550.2310, 499.2539
550.7131, 500.9817
551.1952, 499.3820
551.6773, 485.0583
552.1594, 457.1023
552.6415, 440.0740
553.1237, 444.4934
553.6058, 458.5253
554.0879, 470.8812
554.5700, 481.5277
555.0521, 484.8446
555.5342, 475.5450
556.0164, 464.6876
556.4985, 459.8494
556.9806, 458.3884
557.4627, 453.2563
557.9448, 442.0031
558.4269, 430.8713
558.9091, 431.5209
559.3912, 447.8429
559.8733, 450.2466
560.3554, 425.2352
560.8375, 404.2196
561.3196, 405.8329
561.8018, 417.0312
562.2839, 418.6584
562.7660, 405.5045
563.2481, 386.1653
563.7302, 358.5085
564.2123, 331.1947
564.6945, 327.4231
565.1766, 348.9675
565.6587, 365.6619
566.1408, 353.6219
566.6229, 319.8492
567.1050, 299.7782
567.5872, 299.8329
568.0693, 306.0824
568.5514, 330.3041
569.0335, 350.9785
569.5156, 348.2582
569.9977, 325.6509
570.4799, 302.4586
570.9620, 289.8969
571.4441, 286.0967
571.9262, 291.5145
572.4083, 306.4358
572.8904, 309.8424
573.3726, 289.7552
573.8547, 266.2743
574.3368, 268.5435
574.8189, 297.4048
575.3010, 305.3402
575.7831, 264.3798
576.2653, 227.1373
576.7474, 229.2928
577.2295, 249.5854
577.7116, 250.1520
578.1937, 220.4766
578.6758, 184.0791
579.1580, 171.4314
579.6401, 182.6497
580.1222, 185.7334
580.6042, 175.5842
581.0864, 167.3038
581.5685, 174.9348
582.0506, 184.6725
582.5327, 176.2791
583.0148, 143.0780
583.4969, 119.4025
583.9791, 131.8336
584.4612, 155.2472
584.9433, 160.3832
585.4254, 147.7145
585.9075, 131.8014
586.3896, 120.4224
586.8718, 111.4989
587.3539, 99.43945
587.8360, 81.48767
588.3181, 67.13428
588.8002, 54.33020
589.2823, 47.36401
589.7645, 55.69287
590.2466, 70.48181
590.7287, 71.87158
591.2108, 47.99133
591.6929, 20.76404
592.1750, 11.79932
592.6572, 15.66406
593.1393, 17.15332
593.6214, 13.50598
594.1035, 10.52161
594.5856, 13.87256
595.0677, 22.17896
595.5499, 24.23303
596.0320, 14.60046
596.5141, 5.558960
596.9962, 4.9927000E-02
597.4783, 5.956909
597.9604, 19.22217
598.4426, 37.09949
598.9247, 47.55676
599.4068, 39.74121
599.8889, 23.32507
600.3710, 15.10242
600.8531, 14.80933
601.3353, 17.59180
601.8174, 23.69434
602.2995, 28.41455
602.7816, 25.15967
603.2637, 12.95850
603.7458, 7.075317
604.2280, 16.76855
604.7101, 21.76697
605.1922, 6.377319
605.6743, 13.26416
606.1564, 12.28333
606.6385, 11.65112
607.1207, 32.10596
607.6028, 18.08118
608.0849, 19.88672
608.5670, 32.24451
609.0491, 13.91663
609.5313, 1.385986
610.0134, 1.114258
610.4955, 10.70642
610.9776, 9.416504
611.4597, 4.705444
611.9418, 8.302002
612.4240, 12.09460
612.9061, 34.32056
613.3882, 46.64417
613.8703, 50.74048
614.3524, 49.86646
614.8345, 45.47290
615.3167, 40.05566
615.7988, 37.12000
616.2809, 36.61682
616.7630, 34.45361
617.2451, 30.46277
617.7272, 25.01086
618.2094, 15.05798
618.6915, 5.448486
619.1736, 4.027100
619.6557, 12.91479
620.1378, 21.34155
620.6199, 27.09717
621.1021, 30.29773
621.5842, 27.92090
622.0663, 23.14197
622.5484, 25.52344
623.0305, 39.62634
623.5126, 56.65088
623.9948, 60.18958
624.4769, 47.71826
624.9590, 42.38037
625.4411, 44.94275
625.9232, 54.38501
626.4053, 79.28186
626.8875, 107.8076
627.3696, 120.6393
627.8517, 111.5458
628.3338, 101.3269
628.8159, 97.28308
629.2980, 97.29700
629.7802, 103.3934
630.2623, 112.1597
630.7444, 109.5565
631.2265, 86.63782
631.7086, 59.78357
632.1907, 66.63306
632.6729, 117.3591
633.1550, 151.9327
633.6371, 163.0348
634.1192, 163.0710
634.6013, 149.2078
635.0834, 131.5598
635.5656, 130.1469
636.0477, 154.3833
636.5298, 177.3362
637.0119, 184.8285
637.4940, 184.9231
637.9761, 186.1110
638.4583, 189.3582
638.9404, 192.2969
639.4225, 193.0106
639.9046, 195.7037
640.3867, 213.2253
640.8688, 252.3391
641.3510, 276.4612
641.8331, 271.7942
642.3152, 266.2595
642.7973, 275.6870
643.2794, 295.0583
643.7615, 315.9730
644.2437, 340.2228
644.7258, 357.6715
645.2079, 355.3153
645.6900, 348.2390
646.1721, 353.5442
646.6542, 372.2490
647.1364, 398.1259
647.6185, 427.8365
648.1006, 460.1141
648.5827, 493.4055
649.0648, 529.3840
649.5469, 556.1256
650.0291, 559.1414
650.5112, 571.2329
650.9933, 623.3485
651.4754, 695.1527
651.9575, 746.6339
652.4396, 765.5752
652.9218, 779.6328
653.4039, 788.0493
653.8860, 806.0660
654.3681, 858.9207
654.8502, 939.8438
655.3323, 1017.644
655.8145, 1074.408
656.2966, 1115.290
656.7787, 1150.523
657.2608, 1180.828
657.7429, 1210.001
658.2250, 1233.231
658.7072, 1262.281
659.1893, 1307.541
659.6714, 1362.801
660.1535, 1418.255
660.6356, 1477.499
661.1177, 1528.426
661.5999, 1567.712
662.0820, 1594.777
662.5641, 1609.149
663.0462, 1612.879
663.5283, 1606.237
664.0104, 1588.720
664.4926, 1567.229
664.9747, 1561.806
665.4568, 1574.784
665.9389, 1551.285
666.4210, 1472.153
666.9031, 1393.719
667.3853, 1349.575
667.8674, 1328.899
668.3495, 1297.156
668.8316, 1252.581
669.3137, 1207.137
669.7958, 1169.612
670.2780, 1127.902
670.7601, 1070.480
671.2422, 1005.256
671.7243, 946.9299
672.2064, 905.8469
672.6885, 865.4111
673.1707, 806.9702
673.6528, 735.6671
674.1349, 692.0570
674.6170, 682.8818
675.0991, 669.5956
675.5812, 631.2775
676.0634, 580.4357
676.5455, 542.3934
677.0276, 527.6033
677.5097, 500.2998
677.9918, 437.5479
678.4739, 385.6812
678.9561, 375.5048
679.4382, 388.1268
679.9203, 389.4357
680.4024, 372.3022
680.8845, 349.0906
681.3666, 326.8073
681.8488, 306.6355
682.3309, 303.5425
682.8130, 316.7825
683.2951, 317.0061
683.7772, 293.6689
684.2593, 258.7181
684.7415, 237.0796
685.2236, 231.0377
685.7057, 224.4357
686.1878, 215.4712
686.6699, 208.1897
687.1520, 205.8866
687.6342, 204.4003
688.1163, 200.2273
688.5984, 193.7241
689.0805, 182.7684
689.5626, 163.5641
690.0447, 143.7903
690.5269, 132.3890
691.0090, 127.6382
691.4911, 126.0129
691.9732, 121.4780
692.4553, 119.5326
692.9374, 125.9243
693.4196, 136.7629
693.9017, 142.2065
694.3838, 141.2548
694.8659, 137.0664
695.3480, 128.8674
695.8301, 118.7731
696.3123, 105.3949
696.7944, 91.05298
697.2765, 84.88025
697.7586, 97.07568
698.2407, 108.9160
698.7228, 111.0359
699.2050, 106.3053
699.6871, 95.55005
700.1692, 80.96729
700.6513, 70.78601
701.1334, 72.26807
701.6155, 77.50879
702.0977, 61.49280
702.5798, 21.24146
703.0619, 9.108521
703.5440, 42.07397
704.0261, 81.82080
704.5082, 105.8622
704.9904, 114.6423
705.4725, 109.6141
705.9546, 79.11853
706.4367, 56.65540
706.9188, 50.63892
707.4009, 50.55029
707.8831, 53.09460
708.3652, 55.25781
708.8473, 51.25586
709.3294, 38.23193
709.8115, 25.55371
710.2936, 24.11487
710.7758, 30.67822
711.2579, 38.50989
711.7400, 46.81946
712.2221, 48.58948
712.7042, 39.33325
713.1863, 25.07532
713.6685, 15.80212
714.1506, 11.29114
714.6327, 12.88000
715.1148, 26.47632
715.5969, 39.01929
716.0790, 49.05859
716.5612, 55.01746
717.0433, 54.72913
717.5254, 48.04272
718.0075, 38.66016
718.4896, 25.49402
718.9717, 12.74426
719.4539, 2.925781
719.9360, 3.454712
720.4181, 3.857666
720.9002, 1.599731
721.3823, 6.276978
721.8644, 2.472900
722.3465, 6.265137
722.8286, 2.081421
723.3107, 18.46692
723.7928, 32.79102
724.2750, 34.77673
724.7571, 31.16064
725.2392, 19.01782
725.7213, 35.62634
726.2034, 65.62866
726.6855, 72.31287
727.1677, 14.14612
727.6498, 19.65723
728.1319, 5.255859
728.6140, 11.12891
729.0961, 39.57690
729.5782, 33.37646
730.0604, 16.23401
730.5425, 16.90540
731.0246, 39.96667
731.5067, 14.52808
731.9888, 4.063843
732.4709, 42.10620
732.9531, 53.28271
733.4352, 22.24255
733.9173, 46.70203
734.3994, 28.00916
734.8815, 15.72095
735.3636, 2.576660
735.8458, 23.16919
736.3279, 34.99658
736.8100, 20.61182
737.2921, 34.96753
737.7742, 65.90503
738.2563, 73.52515
738.7385, 12.00024
739.2206, 22.73450
739.7027, 9.263916
740.1848, 6.187378
740.6669, 45.45569
741.1490, 26.55981
741.6312, 23.99451
742.1133, 25.60901
742.5954, 49.61584
743.0775, 25.12219
743.5596, 15.60376
744.0417, 54.59424
744.5239, 66.71948
745.0060, 36.62830
745.4881, 62.03748
745.9702, 11.72571
746.4523, 1.521362
746.9344, 52.30798
747.4166, 24.62622
747.8987, 50.89417
748.3808, 56.60999
748.8629, 31.05859
749.3450, 43.65051
749.8271, 48.12451
750.3093, 19.52075
750.7914, 49.60291
751.2735, 29.97766
751.7556, 41.23730
752.2377, 41.74182
752.7198, 31.20361
753.2020, 14.09937
753.6841, 0.2720950
754.1662, 6.303223
754.6483, 4.297119
755.1304, 12.58887
755.6125, 40.63879
756.0947, 47.75195
756.5768, 29.89758
757.0589, 16.54053
757.5410, 17.72986
758.0231, 24.61047
758.5052, 28.00354
758.9874, 27.93811
759.4695, 29.69128
759.9516, 34.76672
760.4337, 39.33618
760.9158, 44.76294
761.3979, 35.60620
761.8801, 52.71130
762.3622, 62.77417
762.8443, 66.17383
763.3264, 42.96045
763.8085, 54.10767
764.2906, 51.48108
764.7728, 48.28918
765.2549, 64.26624
765.7370, 44.91235
766.2191, 60.58240
766.7012, 62.26843
767.1833, 70.32825
767.6655, 64.47815
768.1476, 62.89819
768.6297, 75.20862
769.1118, 79.87512
769.5939, 72.49817
770.0760, 80.97668
770.5582, 61.10950
771.0403, 66.04578
771.5224, 81.63977
772.0045, 74.76709
772.4866, 83.33020
772.9688, 86.12988
773.4509, 62.29944
773.9330, 84.87585
774.4151, 87.38477
774.8972, 34.05042
775.3793, 13.81213
775.8615, 40.30237
776.3436, 75.62573
776.8257, 93.30212
777.3078, 98.18518
777.7899, 93.73950
778.2720, 83.65112
778.7542, 79.25293
779.2363, 86.29346
779.7184, 96.12878
780.2005, 93.70410
780.6826, 80.30188
781.1647, 68.38159
781.6469, 56.06201
782.1290, 56.33997
782.6111, 81.85645
783.0932, 108.3291
783.5753, 102.7770
784.0574, 57.19336
784.5396, 42.83740
785.0217, 94.48694
785.5038, 129.6436
785.9859, 115.8513
786.4680, 90.09705
786.9501, 85.41895
787.4323, 95.61621
787.9144, 105.7039
788.3965, 105.6504
788.8786, 102.9064
789.3607, 98.56580
789.8428, 95.38000
790.3250, 98.11926
790.8071, 105.7445
791.2892, 115.7015
791.7713, 126.9507
792.2534, 133.2450
792.7355, 129.3478
793.2177, 105.0670
793.6998, 123.8041
794.1819, 135.5334
794.6640, 138.9116
795.1461, 117.3695
795.6282, 130.1959
796.1104, 129.2551
796.5925, 126.6135
797.0746, 144.2568
797.5567, 126.4608
798.0388, 143.0681
798.5209, 146.4520
799.0031, 154.2103
799.4852, 150.1278
799.9673, 150.3339
800.4494, 164.4056
800.9315, 170.8010
801.4136, 165.0896
801.8958, 175.2878
802.3779, 157.1522
802.8600, 163.8809
803.3421, 181.3396
803.8242, 175.3339
804.3063, 185.5681
804.7885, 190.1571
805.2706, 168.0653
805.7527, 192.3751
806.2348, 196.6195
806.7169, 178.0354
807.1990, 200.7599
807.6812, 187.2472
808.1633, 185.1863
808.6454, 194.3461
809.1275, 193.3597
809.6096, 208.3762
810.0917, 212.8965
810.5739, 218.3419
811.0560, 208.1821
811.5381, 197.5515
812.0202, 194.2440
812.5023, 198.5970
812.9844, 211.9603
813.4666, 242.4091
813.9487, 259.7073
814.4308, 255.9805
814.9129, 247.1440
815.3950, 234.0039
815.8771, 222.6173
816.3593, 223.3099
816.8414, 235.7828
817.3235, 240.9011
817.8056, 224.6608
818.2877, 203.2177
818.7698, 182.3337
819.2520, 166.8488
819.7341, 168.7771
820.2162, 184.6343
820.6983, 193.3116
821.1804, 181.2198
821.6625, 163.1605
822.1447, 163.4739
822.6268, 177.2849
823.1089, 184.6456
823.5910, 184.1840
824.0731, 178.3792
824.5552, 168.0690
825.0374, 153.8429
825.5195, 134.0648
826.0016, 108.4908
826.4837, 106.9010
826.9658, 146.7491
827.4479, 165.3632
827.9301, 133.9812
828.4122, 93.94702
828.8943, 79.65601
829.3764, 86.75073
829.8585, 94.06201
830.3406, 106.8069
830.8228, 111.4573
831.3049, 100.5970
831.7870, 86.95752
832.2691, 77.49512
832.7512, 70.73157
833.2333, 62.88904
833.7155, 53.03552
834.1976, 44.72510
834.6797, 42.60303
835.1618, 41.59070
835.6439, 32.27783
836.1260, 21.09705
836.6082, 23.20483
837.0903, 38.02612
837.5724, 45.74585
838.0545, 30.33105
838.5366, 5.753906
839.0187, 5.989868
839.5009, 6.040771
839.9830, 3.852661
840.4651, 23.23511
840.9472, 36.22095
841.4293, 33.13928
841.9114, 21.50940
842.3936, 15.51733
842.8757, 17.15149
843.3578, 17.77136
843.8399, 17.10010
844.3220, 16.38940
844.8041, 16.96777
845.2863, 15.99780
845.7684, 6.741455
846.2505, 8.382690
846.7326, 6.707642
847.2147, 34.68738
847.6968, 57.91846
848.1790, 41.78662
848.6611, 24.87305
849.1432, 30.56653
849.6253, 49.10925
850.1074, 63.99048
850.5895, 72.48376
851.0717, 73.88855
851.5538, 63.30481
852.0359, 50.27197
852.5180, 37.28833
853.0001, 28.97766
853.4822, 31.42590
853.9644, 43.35400
854.4465, 54.56897
854.9286, 57.78833
855.4107, 60.19043
855.8928, 71.87097
856.3749, 88.78674
856.8571, 105.1505
857.3392, 118.6941
857.8213, 119.5012
858.3034, 102.9023
858.7855, 83.60876
859.2676, 83.33667
859.7498, 97.86450
860.2319, 97.17773
860.7140, 79.87598
861.1961, 71.54456
861.6782, 79.96375
862.1603, 92.99036
862.6425, 101.9375
863.1245, 106.1465
863.6066, 101.7948
864.0887, 83.61243
864.5709, 70.71802
865.0530, 62.74268
865.5351, 61.62964
866.0172, 76.34619
866.4993, 93.77405
866.9814, 92.33313
867.4636, 70.00061
867.9457, 56.95129
868.4278, 68.98425
868.9099, 73.16968
869.3920, 46.55945
869.8741, 20.22107
870.3563, 23.16858
870.8384, 48.40527
871.3205, 71.18213
871.8026, 85.44263
872.2847, 91.57825
872.7668, 84.02307
873.2490, 73.56152
873.7311, 69.27197
874.2132, 69.48279
874.6953, 71.69287
875.1774, 74.31445
875.6595, 72.32532
876.1417, 59.66943
876.6238, 43.57678
877.1059, 32.04663
877.5880, 25.30591
878.0701, 24.69836
878.5522, 29.79712
879.0344, 39.27917
879.5165, 52.94385
879.9986, 62.83069
880.4807, 52.34082
880.9628, 25.87134
881.4449, 13.54431
881.9271, 15.59253
882.4092, 20.66699
882.8913, 25.92297
883.3734, 30.69128
883.8555, 35.19800
884.3376, 37.88403
884.8198, 30.06934
885.3019, 7.143311
885.7840, 7.829712
886.2661, 10.98755
886.7482, 9.283936
887.2303, 1.859497
887.7125, 7.367676
888.1946, 11.94092
888.6767, 9.263672
889.1588, 10.68896
889.6409, 20.97034
890.1230, 28.14844
890.6052, 35.83276
891.0873, 36.26843
891.5694, 18.12402
892.0515, 9.578979
892.5336, 20.28125
893.0157, 4.127441
893.4979, 12.38110
893.9800, 26.15186
894.4621, 35.18140
894.9442, 36.48938
895.4263, 33.92334
895.9084, 31.19910
896.3906, 28.47302
896.8727, 22.75635
897.3548, 11.60034
897.8369, 1.592407
898.3190, 22.76221
898.8011, 39.29956
899.2833, 26.72595
899.7654, 6.259888
900.2475, 28.96936
900.7296, 31.76611
901.2117, 29.90295
901.6938, 39.04065
902.1760, 50.73364
902.6581, 50.38159
903.1402, 42.21228
903.6223, 37.12976
904.1044, 37.13391
904.5865, 40.07288
905.0687, 44.45984
905.5508, 50.83167
906.0329, 65.00427
906.5150, 82.81299
906.9971, 78.65149
907.4792, 52.90674
907.9614, 38.42200
908.4435, 47.72205
908.9256, 57.23291
909.4077, 39.79370
909.8898, 3.816162
910.3719, 11.36975
910.8541, 4.100708
911.3362, 10.25244
911.8183, 33.71851
912.3004, 46.71240
912.7825, 32.90405
913.2646, 13.08276
913.7468, 26.71826
914.2289, 79.17664
914.7110, 103.9829
915.1931, 88.00598
915.6752, 73.79492
916.1573, 71.35474
916.6395, 71.73059
917.1216, 67.56018
917.6037, 60.86694
918.0858, 58.80237
918.5679, 65.12085
919.0500, 67.68823
919.5322, 59.09241
920.0143, 55.88684
920.4964, 69.97510
920.9785, 87.26929
921.4606, 91.11572
921.9427, 83.21167
922.4249, 82.27112
922.9070, 101.1230
923.3891, 112.5894
923.8712, 106.4474
924.3533, 95.35852
924.8354, 83.41260
925.3176, 73.83179
925.7997, 71.32690
926.2818, 76.55896
926.7639, 83.62024
927.2460, 95.57141
927.7281, 102.1418
928.2103, 92.30139
928.6924, 78.18591
929.1745, 71.56860
929.6566, 72.33435
930.1387, 78.10010
930.6208, 88.92920
931.1030, 92.77356
931.5851, 74.75195
932.0672, 51.44873
932.5493, 37.14746
933.0314, 30.67859
933.5135, 31.36182
933.9957, 37.18237
934.4778, 42.08411
934.9599, 42.88135
935.4420, 40.39172
935.9241, 28.95435
936.4063, 18.39746
936.8884, 35.56372
937.3705, 68.47351
937.8526, 72.89563
938.3347, 39.81409
938.8168, 9.279785
939.2990, 17.50793
939.7811, 41.75977
940.2632, 38.35474
940.7453, 16.76611
941.2274, 9.868164
941.7095, 18.69849
942.1917, 27.07239
942.6738, 28.13672
943.1559, 20.49548
943.6380, 14.72009
944.1201, 0.7478030
944.6022, 9.266479
945.0844, 11.50879
945.5665, 12.70166
946.0486, 2.550171
946.5307, 6.169556
947.0128, 10.35413
947.4949, 4.632202
947.9771, 15.70752
948.4592, 1.025757
948.9413, 0.3226320
949.4234, 6.780884
949.9055, 0.6373290
950.3876, 4.360474
950.8698, 6.647705
951.3519, 10.37903
951.8340, 2.056641
952.3161, 9.596802
952.7982, 11.19299
953.2803, 7.119751
953.7625, 7.680786
954.2446, 6.6650003E-02
954.7267, 7.872437
955.2088, 9.811157
955.6909, 15.21704
956.1730, 4.978882
956.6552, 4.148804
957.1373, 16.54382
957.6194, 3.507080
958.1015, 12.64954
958.5836, 15.87231
959.0657, 9.359985
959.5479, 24.74268
960.0300, 48.36414
960.5121, 60.44751
960.9942, 61.24536
961.4763, 40.27014
961.9584, 29.75598
962.4406, 38.50903
962.9227, 48.42224
963.4048, 51.88123
963.8869, 51.05310
964.3690, 49.04590
964.8511, 45.92468
965.3333, 40.01965
965.8154, 17.70435
966.2975, 13.03430
966.7796, 52.59314
967.2617, 86.14526
967.7438, 78.66064
968.2260, 49.07764
968.7081, 31.31152
969.1902, 26.62622
969.6723, 31.87927
970.1544, 64.33252
970.6365, 82.78796
971.1187, 61.60876
971.6008, 39.65369
972.0829, 46.20984
972.5650, 71.84045
973.0471, 95.46143
973.5292, 118.1697
974.0114, 125.1163
974.4935, 93.82349
974.9756, 72.62122
975.4577, 82.71021
975.9398, 105.1768
976.4219, 133.2549
976.9041, 159.0914
977.3862, 160.4915
977.8683, 123.4700
978.3504, 98.49072
978.8325, 101.6189
979.3146, 113.8307
979.7968, 139.5233
980.2789, 160.4413
980.7610, 150.7659
981.2431, 119.2913
981.7252, 104.2671
982.2073, 119.7808
982.6895, 137.3950
983.1716, 153.0229
983.6537, 163.4260
984.1358, 160.4016
984.6179, 155.3979
985.1000, 163.5862
985.5822, 183.3381
986.0643, 199.7438
986.5464, 208.0653
987.0285, 213.3173
987.5106, 216.2140
987.9927, 217.7694
988.4749, 218.6097
988.9570, 218.5239
989.4391, 217.1293
989.9212, 214.4314
990.4033, 209.7957
990.8854, 193.3190
991.3676, 193.2521
991.8497, 235.6224
992.3318, 284.3998
992.8139, 315.1150
993.2960, 334.3782
993.7781, 349.8237
994.2603, 364.8495
994.7424, 391.5542
995.2245, 448.4144
995.7066, 494.7561
996.1887, 505.5223
996.6708, 504.2626
997.1530, 497.9020
997.6351, 497.8157
998.1172, 524.0552
998.5993, 576.8521
999.0814, 625.0931
999.5635, 658.3143
1000.046, 680.6637
1000.528, 686.6042
1001.010, 689.6945
1001.492, 697.9988
1001.974, 713.4465
1002.456, 734.4705
1002.938, 760.6543
1003.420, 788.8922
1003.903, 825.3989
1004.385, 856.6873
1004.867, 879.6333
1005.349, 892.5823
1005.831, 885.7126
1006.313, 869.5754
1006.795, 859.1011
1007.277, 857.0342
1007.759, 853.3938
1008.242, 838.3677
1008.724, 829.5536
1009.206, 849.2148
1009.688, 862.0388
1010.170, 825.9219
1010.652, 765.8650
1011.134, 736.7977
1011.616, 747.7709
1012.099, 745.4106
1012.581, 698.6763
1013.063, 646.7064
1013.545, 601.8234
1014.027, 564.2373
1014.509, 533.8516
1014.991, 507.4246
1015.473, 483.9504
1015.955, 461.5444
1016.438, 433.5466
1016.920, 397.6267
1017.402, 356.5375
1017.884, 299.1958
1018.366, 248.4528
1018.848, 225.6512
1019.330, 221.0850
1019.812, 219.6582
1020.294, 218.3545
1020.777, 207.2701
1021.259, 174.1396
1021.741, 143.1577
1022.223, 117.8411
1022.705, 103.0104
1023.187, 107.6995
1023.669, 122.7959
1024.151, 133.4269
1024.634, 137.5081
1025.116, 142.7008
1025.598, 156.1631
1026.080, 163.7838
1026.562, 155.6379
1027.044, 146.3655
1027.526, 145.3866
1028.008, 149.9883
1028.490, 155.5529
1028.973, 162.3774
1029.455, 168.8142
1029.937, 188.0663
1030.419, 189.7979
1030.901, 146.1106
1031.383, 106.0865
1031.865, 98.66211
1032.347, 112.8054
1032.830, 134.8264
1033.312, 163.3993
1033.794, 186.7714
1034.276, 203.7675
1034.758, 215.2712
1035.240, 227.7502
1035.722, 227.7469
1036.204, 192.6674
1036.687, 150.2966
1037.169, 142.5387
1037.651, 169.2118
1038.133, 184.9126
1038.615, 185.6422
1039.097, 180.2063
1039.579, 162.5293
1040.061, 146.9406
1040.543, 139.0320
1041.026, 137.0339
1041.508, 139.3654
1041.990, 145.0657
1042.472, 146.6144
1042.954, 144.0546
1043.436, 137.2500
1043.918, 118.1627
1044.400, 109.8792
1044.882, 128.7034
1045.365, 152.6285
1045.847, 158.5455
1046.329, 150.3807
1046.811, 150.1646
1047.293, 164.9137
1047.775, 163.5049
1048.257, 137.3256
1048.739, 116.1564
1049.222, 111.0055
1049.704, 112.1987
1050.186, 109.6456
1050.668, 106.8510
1051.150, 119.5701
1051.632, 152.8547
1052.114, 168.0823
1052.596, 162.0740
1053.078, 150.3793
1053.561, 136.0189
1054.043, 124.9790
1054.525, 123.6195
1055.007, 125.5698
1055.489, 111.9923
1055.971, 82.95667
1056.453, 69.60034
1056.935, 72.69910
1057.417, 71.61707
1057.900, 59.77002
1058.382, 53.63147
1058.864, 66.44397
1059.346, 86.07861
1059.828, 86.61682
1060.310, 71.58093
1060.792, 67.78577
1061.274, 73.74072
1061.757, 79.08618
1062.239, 81.69434
1062.721, 82.13513
1063.203, 80.75378
1063.685, 77.07983
1064.167, 73.52759
1064.649, 65.70728
1065.131, 33.85742
1065.614, 10.28674
1066.096, 30.06165
1066.578, 23.38293
1067.060, 5.837891
1067.542, 15.50903
1068.024, 37.34375
1068.506, 62.85498
1068.988, 80.55493
1069.470, 64.84253
1069.953, 34.11450
1070.435, 22.19568
1070.917, 26.36621
1071.399, 28.01367
1071.881, 21.56177
1072.363, 14.53125
1072.845, 5.289063
1073.327, 2.644653
1073.809, 18.13745
1074.292, 39.80115
1074.774, 60.59143
1075.256, 74.72485
1075.738, 69.94031
1076.220, 47.33313
1076.702, 28.95557
1077.184, 23.82605
1077.666, 26.05701
1078.148, 39.83362
1078.631, 51.79187
1079.113, 48.05518
1079.595, 40.64136
1080.077, 45.71277
1080.559, 59.70874
1081.041, 63.17493
1081.523, 46.08130
1082.005, 33.44666
1082.488, 31.09558
1082.970, 33.59998
1083.452, 40.87378
1083.934, 50.28479
1084.416, 67.80396
1084.898, 84.95776
1085.380, 71.37708
1085.862, 9.355835
1086.344, 19.91211
1086.827, 3.208618
1087.309, 26.20898
1087.791, 43.37939
1088.273, 51.88977
1088.755, 44.38196
1089.237, 33.07812
1089.719, 41.69788
1090.201, 70.94519
1090.683, 88.46387
1091.166, 95.13464
1091.648, 83.83862
1092.130, 48.56677
1092.612, 15.99243
1093.094, 3.133545
1093.576, 6.635132
1094.058, 12.11084
1094.540, 44.10095
1095.023, 46.65723
1095.505, 21.66626
1095.987, 24.17639
1096.469, 56.61646
1096.951, 66.56799
1097.433, 37.32275
1097.915, 2.145752
1098.397, 12.06921
1098.880, 11.90857
1099.362, 6.292969
1099.844, 3.022705
1100.326, 15.28308
1100.808, 27.03320
1101.290, 20.68579
1101.772, 1.927124
1102.254, 15.38403
1102.736, 6.879150
1103.219, 10.22070
1103.701, 29.70142
1104.183, 45.27429
1104.665, 45.67249
1105.147, 38.54358
1105.629, 35.29553
1106.111, 35.68738
1106.593, 34.78894
1107.075, 31.08081
1107.558, 25.17078
1108.040, 11.53381
1108.522, 3.178711
1109.004, 11.38916
1109.486, 24.44006
1109.968, 35.55518
1110.450, 43.17249
1110.932, 45.12769
1111.415, 41.69910
1111.897, 38.49146
1112.379, 36.03394
1112.861, 34.99133
1113.343, 42.16309
1113.825, 42.24878
1114.307, 17.57874
1114.789, 6.757202
1115.271, 2.953125
1115.754, 19.03064
1116.236, 21.26477
1116.718, 6.917847
1117.200, 7.662354
1117.682, 30.42542
1118.164, 56.84033
1118.646, 61.48755
1119.128, 53.20508
1119.610, 34.32861
1120.093, 14.74927
1120.575, 12.87402
1121.057, 25.47754
1121.539, 24.19043
1122.021, 9.992798
1122.503, 8.369141
1122.985, 21.68811
1123.467, 33.22577
1123.950, 35.57501
1124.432, 35.69745
1124.914, 40.61249
1125.396, 43.61340
1125.878, 27.84674
1126.360, 4.608521
1126.842, 1.036133
1127.324, 7.418457
1127.807, 21.85394
1128.289, 36.98737
1128.771, 37.09235
1129.253, 9.889893
1129.735, 10.06995
1130.217, 14.56744
1130.699, 46.24036
1131.181, 53.86438
1131.663, 49.53003
1132.146, 48.64691
1132.628, 49.69464
1133.110, 42.93756
1133.592, 25.40625
1134.074, 11.16095
1134.556, 0.9774780
1135.038, 0.2739260
1135.520, 23.16626
1136.002, 39.79620
1136.485, 19.66425
1136.967, 9.240417
1137.449, 7.849243
1137.931, 18.87543
1138.413, 33.20978
1138.895, 30.95959
1139.377, 27.35162
1139.859, 20.40717
1140.342, 19.48511
1140.824, 29.67169
1141.306, 37.60541
1141.788, 32.12628
1142.270, 21.15686
1142.752, 20.18036
1143.234, 14.99786
1143.716, 31.88110
1144.198, 41.40424
1144.681, 44.85846
1145.163, 21.06299
1145.645, 31.50555
1146.127, 28.18121
1146.609, 24.34686
1147.091, 39.63904
1147.573, 19.56415
1148.055, 34.50751
1148.537, 35.46307
1149.020, 42.81146
1149.502, 36.29877
1149.984, 34.05920
1150.466, 45.67426
1150.948, 49.52686
1151.430, 41.17719
1151.912, 48.89569
1152.394, 28.27344
1152.877, 32.50586
1153.359, 47.46002
1153.841, 39.98926
1154.323, 47.92627
1154.805, 50.02594
1155.287, 25.45380
1155.769, 47.24316
1156.251, 30.36163
1156.734, 3.500427
1157.216, 7.7575997E-02
1157.698, 43.02875
1158.180, 67.25519
1158.662, 38.74524
1159.144, 2.773315
1159.626, 19.72729
1160.108, 17.71790
1160.590, 7.220581
1161.073, 11.69013
1161.555, 23.09546
1162.037, 27.05463
1162.519, 28.75726
1163.001, 29.28992
1163.483, 28.83997
1163.965, 27.54926
1164.447, 22.96210
1164.929, 7.630798
1165.412, 7.049622
1165.894, 0.4028320
1166.376, 18.29608
1166.858, 37.79333
1167.340, 54.42194
1167.822, 64.21997
1168.304, 66.21747
1168.786, 60.10999
1169.269, 42.69373
1169.751, 26.64185
1170.233, 16.12164
1170.715, 11.17798
1171.197, 13.74463
1171.679, 20.12274
1172.161, 30.88660
1172.643, 41.08295
1173.125, 41.48724
1173.608, 31.20660
1174.090, 18.83221
1174.572, 6.934875
1175.054, 7.184631
1175.536, 33.08984
1176.018, 69.71350
1176.500, 86.73523
1176.982, 89.87927
1177.464, 83.37354
1177.947, 69.66138
1178.429, 50.88715
1178.911, 29.87677
1179.393, 30.04297
1179.875, 47.09460
1180.357, 54.13940
1180.839, 48.76514
1181.321, 48.18347
1181.804, 60.01770
1182.286, 71.30945
1182.768, 72.46967
1183.250, 65.33673
1183.732, 40.16101
1184.214, 17.86725
1184.696, 30.75555
1185.178, 58.82758
1185.661, 65.32849
1186.143, 49.46887
1186.625, 35.07153
1187.107, 24.20508
1187.589, 25.46625
1188.071, 61.46747
1188.553, 83.93909
1189.035, 75.32037
1189.517, 55.90643
1190.000, 30.28473
1190.482, 9.815552
1190.964, 14.18823
1191.446, 39.15112
1191.928, 49.64532
1192.410, 44.46356
1192.892, 42.57874
1193.374, 45.74365
1193.856, 49.65210
1194.339, 53.23120
1194.821, 58.71356
1195.303, 69.91632
1195.785, 81.33734
1196.267, 83.63354
1196.749, 80.00604
1197.231, 73.51776
1197.713, 65.97028
1198.196, 59.44684
1198.678, 54.84192
1199.160, 56.05933
1199.642, 61.95850
1200.124, 56.63629
1200.606, 25.30493
1201.088, 0.9332890
1201.570, 7.290283
1202.052, 3.822205
1202.535, 22.46637
1203.017, 46.77100
1203.499, 43.70990
1203.981, 28.98468
1204.463, 38.30652
1204.945, 71.66437
1205.427, 77.53375
1205.909, 49.92389
1206.391, 45.00140
1206.874, 69.63031
1207.356, 86.79565
1207.838, 84.39960
1208.320, 78.77051
1208.802, 83.01996
1209.284, 87.62909
1209.766, 74.41479
1210.248, 54.55743
1210.731, 50.10999
1211.213, 53.13336
1211.695, 46.88690
1212.177, 34.60748
1212.659, 30.75214
1213.141, 38.59448
1213.623, 45.15283
1214.105, 40.77313
1214.588, 44.98071
1215.070, 75.61023
1215.552, 95.53387
1216.034, 80.04303
1216.516, 55.35559
1216.998, 38.34924
1217.480, 33.57593
1217.962, 54.89832
1218.444, 103.8844
1218.927, 111.8632
1219.409, 73.02344
1219.891, 53.95648
1220.373, 60.71411
1220.855, 67.08539
1221.337, 64.78424
1221.819, 54.27728
1222.301, 33.69904
1222.783, 13.40362
1223.266, 18.35999
1223.748, 32.81885
1224.230, 37.93500
1224.712, 39.90015
1225.194, 52.42078
1225.676, 69.53497
1226.158, 71.33929
1226.640, 56.13721
1227.122, 51.41223
1227.605, 76.70966
1228.087, 91.23199
1228.569, 75.77887
1229.051, 64.44983
1229.533, 71.63043
1230.015, 80.09448
1230.497, 77.78790
1230.979, 69.89514
1231.462, 63.94427
1231.944, 59.26508
1232.426, 54.73615
1232.908, 50.14734
1233.390, 42.86340
1233.872, 33.31519
1234.354, 23.52490
1234.836, 15.18793
1235.318, 17.04980
1235.801, 34.46582
1236.283, 46.67657
1236.765, 36.43884
1237.247, 20.89844
1237.729, 12.25226
1238.211, 10.20001
1238.693, 17.87762
1239.175, 29.56696
1239.657, 37.27509
1240.140, 40.39240
1240.622, 40.13251
1241.104, 31.28632
1241.586, 37.43402
1242.068, 71.51038
1242.550, 79.40662
1243.032, 43.96472
1243.514, 15.25897
1243.997, 19.56689
1244.479, 38.28406
1244.961, 54.19879
1245.443, 61.24548
1245.925, 33.77777
1246.407, 5.420288
1246.889, 0.9979250
1247.371, 35.20996
1247.854, 54.12537
1248.336, 53.74774
1248.818, 46.85278
1249.300, 37.34387
1249.782, 32.71564
1250.264, 40.79163
1250.746, 46.99744
1251.228, 47.01215
1251.710, 44.13007
1252.193, 35.57568
1252.675, 30.42731
1253.157, 41.01520
1253.639, 55.44244
1254.121, 43.58051
1254.603, 9.706055
1255.085, 8.260803
1255.567, 35.59790
1256.049, 47.09198
1256.532, 40.73059
1257.014, 33.59711
1257.496, 31.10120
1257.978, 30.58960
1258.460, 28.90601
1258.942, 27.66907
1259.424, 25.36438
1259.906, 20.97162
1260.389, 4.555298
1260.871, 4.679260
1261.353, 21.81140
1261.835, 60.39191
1262.317, 72.87317
1262.799, 59.47748
1263.281, 38.63281
1263.763, 0.9235230
1264.245, 2.062805
1264.728, 39.33423
1265.210, 57.59875
1265.692, 34.16779
1266.174, 17.20422
1266.656, 18.52625
1267.138, 23.77728
1267.620, 19.84900
1268.102, 18.81226
1268.584, 19.28717
1269.067, 18.41107
1269.549, 9.773315
1270.031, 0.0000000E+00
##END=



