##NAMES=Axinite-(Fe)
##RRUFFID=R050026
##IDEAL CHEMISTRY=Ca_4_Fe^2+^_2_Al_4_[B_2_Si_8_O_30_](OH)_2_
##LOCALITY=Pouyva mine, Polar Urals, Western Siberian Region, Russia
##OWNER=RRUFF
##SOURCE=Rock Currier
##DESCRIPTION=Brown transparent flat crystal
##STATUS=The identification of this mineral has been confirmed by X-ray diffraction and chemical analysis
##URL=rruff.info/R050026
##MEASURED CHEMISTRY=Ca_2.00_(Fe^2+^_0.61_Mn_0.26_Mg_0.13_)Al_2.00_BSi_4_O_15_(OH)
72.445, 0.000
73.842, 153.356
75.239, 337.625
76.635, 365.591
78.031, 75.293
79.427, 33.529
80.823, 93.458
82.218, 49.334
83.614, 170.785
85.009, 57.620
86.404, 212.088
87.798, 441.109
89.193, 776.410
90.587, 1127.333
91.981, 1511.734
93.375, 2075.910
94.768, 2554.323
96.161, 3229.583
97.554, 4290.400
98.947, 5352.558
100.340, 6841.979
101.732, 9007.882
103.124, 12392.948
104.516, 16956.641
105.908, 22532.225
107.300, 28064.922
108.691, 31924.932
110.082, 32505.404
111.473, 28237.479
112.864, 22523.252
114.254, 17864.814
115.644, 14460.227
117.034, 12218.517
118.424, 10220.717
119.813, 8828.876
121.203, 8400.022
122.592, 7843.190
123.981, 7384.408
125.369, 7089.701
126.758, 6652.090
128.146, 6334.350
129.534, 6251.088
130.922, 6811.899
132.309, 7666.599
133.696, 9509.089
135.083, 11601.151
136.470, 14424.820
137.857, 15815.071
139.243, 16351.894
140.630, 15277.272
142.016, 13320.195
143.401, 11182.618
144.787, 9592.495
146.172, 8119.811
147.557, 7069.574
148.942, 6086.827
150.327, 4985.488
151.711, 4082.550
153.096, 3206.004
154.480, 2598.850
155.863, 2165.026
157.247, 1833.363
158.630, 1733.026
160.013, 1713.455
161.396, 2106.232
162.779, 2550.232
164.161, 3410.469
165.544, 4432.949
166.926, 5791.678
168.308, 6968.661
169.689, 8080.894
171.070, 8432.383
172.452, 8428.123
173.833, 7546.105
175.213, 6230.333
176.594, 5016.800
177.974, 3526.506
179.354, 2429.453
180.734, 1386.642
182.114, 527.071
183.493, 15.262
184.872, 438.377
186.251, 627.302
187.630, 702.038
189.008, 683.566
190.387, 421.591
191.765, 234.895
193.143, 15.469
194.520, 233.261
195.898, 425.235
197.275, 711.363
198.652, 1239.644
200.029, 2127.079
201.405, 3138.667
202.782, 4613.410
204.158, 6356.380
205.534, 8383.724
206.909, 10580.352
208.285, 12021.130
209.660, 13224.050
211.035, 13751.106
212.410, 13338.947
213.784, 12728.277
215.159, 12042.373
216.533, 11382.587
217.907, 10421.970
219.281, 8941.521
220.654, 7500.259
222.027, 5469.151
223.400, 4007.074
224.773, 2714.412
226.146, 1775.824
227.518, 1118.393
228.891, 634.120
230.263, 463.023
231.634, 379.138
233.006, 457.479
234.377, 603.068
235.748, 771.803
237.119, 892.679
238.490, 915.635
239.860, 874.643
241.231, 723.598
242.601, 660.381
243.970, 737.154
245.340, 1223.346
246.709, 1896.501
248.079, 3115.537
249.448, 5120.519
250.816, 7628.862
252.185, 10840.538
253.553, 14080.513
254.921, 16117.757
256.289, 16618.246
257.657, 15481.970
259.024, 14210.909
260.391, 13488.053
261.758, 13903.396
263.125, 14884.926
264.492, 16492.637
265.858, 18587.525
267.224, 20794.533
268.590, 23596.625
269.956, 25463.812
271.321, 28315.092
272.687, 30535.475
274.052, 31906.961
275.416, 32042.547
276.781, 31805.244
278.146, 29529.053
279.510, 26290.961
280.874, 23338.021
282.237, 20697.260
283.601, 18929.689
284.964, 17925.309
286.327, 17537.115
287.690, 17722.062
289.053, 17625.119
290.416, 17545.285
291.778, 18029.559
293.140, 17632.928
294.502, 17487.777
295.863, 16289.936
297.225, 15045.899
298.586, 13422.003
299.947, 11727.247
301.308, 10035.632
302.668, 8649.147
304.029, 7797.891
305.389, 7131.790
306.749, 6577.682
308.108, 6259.192
309.468, 6441.269
310.827, 6896.260
312.186, 8227.606
313.545, 10219.070
314.903, 13066.694
316.262, 16091.420
317.620, 18483.254
318.978, 20236.199
320.336, 19926.248
321.693, 18375.400
323.051, 16453.660
324.408, 14762.024
325.765, 13444.498
327.121, 13359.072
328.478, 13059.756
329.834, 12914.538
331.190, 12750.424
332.546, 12910.413
333.902, 12999.750
335.257, 14503.995
336.612, 16252.476
337.967, 19094.178
339.322, 21800.658
340.677, 24545.223
342.031, 26322.887
343.385, 25981.639
344.739, 23684.486
346.093, 20586.416
347.446, 16868.844
348.799, 14006.804
350.153, 11657.476
351.505, 9741.004
352.858, 7689.849
354.210, 6008.549
355.563, 4407.552
356.915, 3328.147
358.267, 2286.840
359.618, 1677.611
360.969, 1091.459
362.321, 763.382
363.672, 435.382
365.022, 276.456
366.373, 100.609
367.723, 30.169
369.073, 15.016
370.423, 76.093
371.773, 36.319
373.122, 6.800
374.471, 167.346
375.821, 442.961
377.169, 568.647
378.518, 1009.406
379.866, 1517.235
381.215, 2363.135
382.563, 3555.526
383.910, 4767.564
385.258, 6059.324
386.605, 7089.658
387.952, 7767.976
389.299, 7333.919
390.646, 6534.761
391.992, 5187.300
393.339, 4033.945
394.685, 3112.479
396.031, 2484.073
397.376, 2400.727
398.722, 2275.438
400.067, 2503.207
401.412, 2625.060
402.757, 2675.995
404.101, 3003.016
405.446, 3202.120
406.790, 3506.310
408.134, 4256.593
409.478, 5492.954
410.821, 7246.399
412.165, 9611.920
413.508, 12313.509
414.851, 16156.165
416.193, 18964.893
417.536, 20505.688
418.878, 21603.553
420.220, 22381.471
421.562, 22978.467
422.904, 22897.516
424.245, 22578.623
425.586, 20890.791
426.927, 18714.033
428.268, 16885.316
429.609, 14493.664
430.949, 12812.067
432.289, 11009.531
433.629, 9763.048
434.969, 8572.620
436.309, 8558.249
437.648, 9345.931
438.987, 11641.667
440.326, 14924.454
441.665, 19031.221
443.003, 22793.662
444.342, 25254.361
445.680, 23637.799
447.018, 19834.867
448.355, 15044.393
449.693, 10717.565
451.030, 8030.735
452.367, 5885.948
453.704, 4675.202
455.041, 3376.496
456.377, 2740.834
457.713, 2037.220
459.049, 1509.651
460.385, 1025.130
461.721, 563.655
463.056, 275.226
464.391, 33.159
465.726, 280.517
467.061, 293.956
468.395, 403.482
469.730, 478.148
471.064, 336.971
472.398, 305.850
473.731, 199.784
475.065, 67.722
476.398, 289.417
477.731, 931.663
479.064, 1672.045
480.397, 2390.547
481.729, 3186.166
483.062, 3769.902
484.394, 3810.741
485.725, 3346.688
487.057, 2524.724
488.389, 1621.855
489.720, 808.048
491.051, 346.308
492.382, 40.616
493.712, 207.045
495.043, 149.790
496.373, 114.592
497.703, 134.436
499.032, 138.668
500.362, 315.800
501.691, 344.959
503.020, 730.144
504.349, 1035.354
505.678, 1774.588
507.007, 2449.849
508.335, 3518.138
509.663, 4539.538
510.991, 5331.110
512.319, 5759.886
513.646, 5561.844
514.973, 5101.936
516.300, 4191.136
517.627, 3220.396
518.954, 2363.718
520.280, 1439.064
521.607, 967.433
522.933, 529.823
524.259, 198.232
525.584, 14.341
526.910, 207.068
528.235, 30.452
529.560, 15.040
530.885, 121.798
532.209, 179.229
533.534, 304.598
534.858, 428.058
536.182, 444.530
537.506, 374.014
538.829, 305.511
540.152, 218.020
541.476, 58.538
542.799, 156.059
544.121, 6.590
545.444, 39.099
546.766, 33.400
548.088, 30.058
549.410, 37.500
550.732, 64.104
552.053, 84.229
553.375, 239.565
554.696, 631.906
556.017, 1198.253
557.337, 1834.605
558.658, 2345.963
559.978, 2809.325
561.298, 2685.691
562.618, 2378.061
563.938, 1874.433
565.257, 1532.808
566.576, 1240.184
567.895, 1053.561
569.214, 1159.938
570.533, 1174.316
571.851, 1226.694
573.170, 1239.070
574.488, 1268.445
575.805, 1076.817
577.123, 981.188
578.440, 1020.555
579.758, 1134.919
581.075, 1456.279
582.391, 1714.635
583.708, 2359.985
585.024, 2696.332
586.341, 3440.672
587.657, 3957.005
588.972, 3904.333
590.288, 3750.653
591.603, 2989.966
592.918, 2211.271
594.233, 1507.568
595.548, 985.856
596.863, 469.136
598.177, 181.406
599.491, 36.334
600.805, 162.159
602.119, 212.136
603.432, 174.290
604.746, 214.604
606.059, 9.901
607.372, 176.341
608.685, 394.766
609.997, 774.177
611.309, 1108.576
612.621, 1429.962
613.933, 1902.334
615.245, 2192.692
616.557, 2295.035
617.868, 2532.365
619.179, 2376.679
620.490, 2197.978
621.801, 1787.636
623.111, 1471.441
624.421, 1103.130
625.731, 939.959
627.041, 796.221
628.351, 819.640
629.660, 894.257
630.970, 1201.208
632.279, 1629.814
633.588, 2111.423
634.896, 2823.690
636.205, 3567.658
637.513, 4812.722
638.821, 5658.900
640.129, 7013.453
641.437, 8116.872
642.744, 8687.304
644.051, 8613.670
645.358, 8275.501
646.665, 7444.380
647.972, 6192.542
649.278, 5185.966
650.584, 4076.033
651.890, 3220.609
653.196, 2569.822
654.502, 1994.136
655.807, 1658.329
657.113, 1368.042
658.418, 1234.727
659.722, 1208.385
661.027, 1116.015
662.331, 1172.617
663.636, 1413.191
664.940, 1620.766
666.244, 1875.564
667.547, 2306.769
668.851, 2982.024
670.154, 3856.994
671.457, 4867.706
672.760, 6073.729
674.062, 7613.600
675.365, 8886.278
676.667, 9645.584
677.969, 9672.476
679.271, 8829.388
680.572, 7588.963
681.874, 6270.159
683.175, 5215.227
684.476, 4185.261
685.777, 3485.397
687.077, 2945.796
688.378, 2573.739
689.678, 2554.646
690.978, 2569.516
692.278, 2707.350
693.577, 2802.146
694.877, 3319.906
696.176, 3752.629
697.475, 4407.314
698.774, 5296.542
700.072, 6588.153
701.371, 7997.066
702.669, 10097.423
703.967, 12475.824
705.265, 15925.629
706.562, 20703.564
707.860, 26180.826
709.157, 32329.012
710.454, 40144.332
711.751, 46441.613
713.047, 51914.867
714.344, 52434.086
715.640, 49768.262
716.936, 43762.406
718.232, 36382.516
719.527, 30556.592
720.823, 24223.629
722.118, 19089.631
723.413, 15239.602
724.708, 12191.534
726.002, 9856.432
727.297, 8308.298
728.591, 6510.126
729.885, 5810.920
731.179, 4834.681
732.472, 4027.407
733.766, 3410.098
735.059, 3005.755
736.352, 2629.378
737.645, 2271.968
738.937, 1997.522
740.230, 1761.043
741.522, 1406.530
742.814, 1255.983
744.106, 1162.403
745.397, 1061.790
746.689, 874.142
747.980, 766.462
749.271, 638.748
750.562, 584.000
751.853, 566.220
753.143, 516.407
754.433, 556.560
755.723, 417.758
757.013, 425.297
758.303, 428.599
759.592, 365.182
760.881, 474.146
762.170, 449.676
763.459, 505.573
764.748, 503.490
766.036, 649.381
767.325, 660.245
768.613, 676.083
769.901, 697.894
771.188, 546.679
772.476, 420.438
773.763, 415.172
775.050, 268.880
776.337, 176.562
777.624, 59.216
778.910, 21.842
780.196, 20.482
781.482, 4.140
782.768, 70.164
784.054, 198.451
785.339, 144.821
786.625, 156.253
787.910, 237.779
789.195, 185.469
790.479, 309.318
791.764, 248.390
793.048, 235.651
794.332, 243.094
795.616, 194.724
796.900, 212.512
798.183, 149.468
799.467, 174.558
800.750, 49.794
802.033, 72.108
803.316, 14.513
804.598, 186.023
805.880, 323.540
807.163, 478.093
808.445, 707.669
809.726, 925.262
811.008, 1039.875
812.289, 1081.470
813.570, 1003.047
814.851, 840.605
816.132, 566.146
817.413, 456.670
818.693, 206.177
819.973, 143.666
821.253, 37.864
822.533, 88.450
823.813, 38.118
825.092, 83.841
826.371, 154.641
827.650, 106.553
828.929, 137.553
830.208, 17.346
831.486, 50.218
832.764, 41.070
834.042, 80.902
835.320, 159.721
836.598, 265.528
837.875, 392.340
839.152, 449.146
840.429, 625.947
841.706, 821.750
842.983, 1061.543
844.259, 1338.152
845.536, 1572.116
846.812, 1937.892
848.088, 2352.661
849.363, 2620.427
850.639, 3086.194
851.914, 3388.965
853.189, 3490.735
854.464, 3620.497
855.739, 3729.270
857.013, 3786.070
858.288, 3603.890
859.562, 3524.714
860.836, 3590.562
862.110, 3634.438
863.383, 3642.312
864.656, 3750.180
865.930, 3737.042
867.203, 3765.900
868.475, 3829.759
869.748, 3860.632
871.020, 3955.521
872.292, 4095.412
873.564, 4177.329
874.836, 4369.264
876.108, 4420.219
877.379, 4619.197
878.650, 4820.186
879.922, 4899.187
881.192, 4958.212
882.463, 4945.247
883.733, 5146.300
885.004, 5333.366
886.274, 5474.440
887.544, 5633.517
888.813, 6423.603
890.083, 6783.699
891.352, 7465.805
892.621, 8434.920
893.890, 9260.043
895.159, 10458.173
896.427, 11455.314
897.695, 12404.467
898.964, 13429.627
900.232, 13868.798
901.499, 14029.980
902.767, 14182.171
904.034, 13846.367
905.301, 12943.575
906.568, 12128.787
907.835, 11102.005
909.102, 9975.263
910.368, 8974.600
911.634, 8031.025
912.900, 7079.536
914.166, 6331.144
915.432, 5696.416
916.697, 5155.462
917.962, 4764.143
919.227, 4492.460
920.492, 4347.556
921.757, 4334.293
923.021, 4408.053
924.285, 4655.831
925.550, 4812.635
926.813, 5274.460
928.077, 5486.310
929.341, 5792.812
930.604, 5882.086
931.867, 5737.467
933.130, 5559.854
934.393, 5389.337
935.655, 5314.231
936.918, 4933.155
938.180, 5046.522
939.442, 5092.248
940.703, 5321.935
941.965, 5563.992
943.226, 5952.362
944.488, 6428.649
945.749, 7095.831
947.009, 8254.644
948.270, 8981.592
949.530, 10108.532
950.791, 11079.539
952.051, 12120.080
953.311, 13102.568
954.570, 14114.776
955.830, 15570.719
957.089, 17085.014
958.348, 19464.543
959.607, 21974.098
960.866, 25244.686
962.124, 27923.299
963.383, 29953.943
964.641, 30998.623
965.899, 30300.328
967.156, 28795.074
968.414, 27209.867
969.671, 26088.680
970.928, 26040.494
972.185, 27004.084
973.442, 29285.275
974.699, 31974.424
975.955, 36111.848
977.211, 39582.516
978.468, 41908.887
979.723, 42927.383
980.979, 41092.074
982.234, 38281.152
983.490, 35182.617
984.745, 30596.270
986.000, 27903.619
987.254, 25698.248
988.509, 23612.516
989.763, 22926.895
991.017, 22191.205
992.271, 21540.791
993.525, 21056.654
994.779, 20869.602
996.032, 20848.535
997.285, 20556.674
998.538, 20206.738
999.791, 19504.592
1001.044, 18743.691
1002.296, 17834.656
1003.548, 16682.879
1004.800, 15379.574
1006.052, 14033.848
1007.304, 12512.291
1008.555, 10815.293
1009.807, 9632.175
1011.058, 8349.513
1012.309, 7197.356
1013.559, 6349.380
1014.810, 5442.322
1016.060, 4763.293
1017.310, 4310.677
1018.560, 3865.296
1019.810, 3512.494
1021.060, 3228.921
1022.309, 3047.643
1023.558, 2890.896
1024.807, 2804.894
1026.056, 2768.818
1027.305, 2565.166
1028.553, 2518.011
1029.801, 2213.543
1031.049, 2061.086
1032.297, 1765.043
1033.545, 1608.677
1034.793, 1583.337
1036.040, 1341.160
1037.287, 1310.691
1038.534, 1228.098
1039.781, 1159.053
1041.027, 1172.396
1042.274, 1038.657
1043.520, 1080.850
1044.766, 1041.081
1046.012, 1021.480
1047.257, 963.442
1048.503, 1046.375
1049.748, 1102.523
1050.993, 1034.900
1052.238, 1091.396
1053.483, 1139.799
1054.727, 1202.399
1055.971, 1220.431
1057.216, 1213.095
1058.459, 1207.350
1059.703, 1125.628
1060.947, 1008.927
1062.190, 953.213
1063.433, 849.045
1064.676, 760.274
1065.919, 680.738
1067.162, 622.880
1068.404, 619.312
1069.646, 593.920
1070.888, 623.525
1072.130, 701.036
1073.372, 713.049
1074.613, 841.771
1075.855, 978.280
1077.096, 1172.531
1078.337, 1314.528
1079.578, 1618.144
1080.818, 1850.611
1082.059, 2088.888
1083.299, 2132.555
1084.539, 2234.494
1085.779, 2008.846
1087.018, 1800.051
1088.258, 1510.497
1089.497, 1279.480
1090.736, 1167.615
1091.975, 1034.924
1093.213, 898.288
1094.452, 827.489
1095.690, 816.891
1096.928, 691.513
1098.166, 769.036
1099.404, 808.720
1100.642, 827.945
1101.879, 835.341
1103.116, 956.863
1104.353, 943.424
1105.590, 1008.077
1106.827, 977.788
1108.063, 967.400
1109.299, 870.998
1110.536, 877.705
1111.771, 719.423
1113.007, 667.628
1114.243, 630.280
1115.478, 518.764
1116.713, 480.772
1117.948, 398.701
1119.183, 354.021
1120.418, 378.085
1121.652, 373.330
1122.886, 554.266
1124.120, 484.828
1125.354, 339.779
1126.588, 132.556
1127.821, 84.131
1129.055, 63.516
1130.288, 94.007
1131.521, 32.776
1132.753, 7.387
1133.986, 18.017
1135.218, 12.335
1136.450, 39.099
1137.682, 36.657
1138.914, 46.403
1140.146, 10.892
1141.377, 5.568
1142.609, 49.882
1143.840, 3.777
1145.071, 11.265
1146.301, 5.629
1147.532, 37.836
1148.762, 64.358
1149.992, 74.113
1151.222, 3.309
1152.452, 47.860
1153.682, 0.539
1154.911, 123.556
1156.140, 27.604
1157.369, 48.146
1158.598, 16.011
1159.827, 117.577
1161.055, 70.388
1162.284, 108.521
1163.512, 115.463
1164.740, 60.981
1165.967, 49.814
1167.195, 62.467
1168.422, 57.007
1169.650, 10.948
1170.877, 80.707
1172.103, 52.777
1173.330, 43.633
1174.557, 62.375
1175.783, 9.230
1177.009, 5.028
1178.235, 35.925
1179.461, 24.269
1180.686, 11.982
1181.912, 10.983
1183.137, 97.033
1184.362, 118.833
1185.587, 79.549
1186.811, 61.783
1188.036, 95.347
1189.260, 106.635
1190.484, 114.631
1191.708, 118.677
1192.932, 118.767
1194.155, 145.871
1195.378, 108.047
1196.602, 150.627
1197.825, 146.174
1199.047, 145.582
1200.270, 226.289
1201.492, 213.932
1202.715, 316.986
1203.937, 231.547
1205.159, 306.920
1206.380, 295.000
1207.602, 279.354
1208.823, 187.599
1210.044, 158.580
1211.265, 142.991
1212.486, 181.105
1213.707, 146.896
1214.927, 135.321
1216.147, 129.944
1217.367, 97.670
1218.587, 100.609
1219.807, 115.401
1221.027, 94.597
1222.246, 100.819
1223.465, 80.380
1224.684, 86.732
1225.903, 72.341
1227.121, 53.712
1228.340, 58.121
1229.558, 28.815
1230.776, 68.911
1231.994, 36.716
1233.212, 63.934
1234.429, 59.220
1235.646, 71.853
1236.864, 69.445
1238.081, 66.000
1239.297, 94.576
1240.514, 101.087
1241.730, 129.223
1242.947, 159.760
1244.163, 164.986
1245.378, 159.900
1246.594, 180.400
1247.810, 172.859
1249.025, 167.305
1250.240, 258.684
1251.455, 222.014
1252.670, 215.292
1253.885, 222.501
1255.099, 159.665
1256.313, 116.768
1257.527, 150.814
1258.741, 98.812
1259.955, 150.756
1261.168, 61.654
1262.382, 72.501
1263.595, 135.293
1264.808, 159.038
1266.021, 126.743
1267.233, 86.398
1268.446, 95.000
1269.658, 200.553
1270.870, 127.064
1272.082, 181.528
1273.294, 203.941
1274.505, 111.280
1275.716, 143.497
1276.928, 181.628
1278.139, 199.666
1279.349, 199.400
1280.560, 178.658
1281.770, 134.859
1282.981, 141.438
1284.191, 146.833
1285.401, 190.226
1286.610, 120.288
1287.820, 157.018
1289.029, 131.587
1290.239, 112.113
1291.448, 148.356
1292.656, 135.613
1293.865, 150.328
1295.073, 174.223
1296.282, 84.425
1297.490, 186.990
1298.698, 87.289
1299.906, 107.376
1301.113, 61.624
1302.320, 21.595
1303.528, 12.289
1304.735, 104.671
1305.942, 11.969
1307.148, 39.917
1308.355, 57.232
1309.561, 8.673
1310.767, 4.696
1311.973, 37.330
1313.179, 15.249
1314.384, 68.420
1315.590, 14.813
1316.795, 95.542
1318.000, 143.929
1319.205, 68.860
1320.410, 15.856
1321.614, 43.211
1322.819, 32.480
1324.023, 6.984
1325.227, 75.882
1326.431, 33.464
1327.634, 68.397
1328.838, 3.607
1330.041, 45.112
1331.244, 36.476
1332.447, 47.542
1333.650, 67.947
1334.852, 16.170
1336.055, 44.491
1337.257, 92.820
1338.459, 56.281
1339.661, 81.394
1340.862, 70.674
1342.064, 73.253
1343.265, 49.520
1344.466, 34.876
1345.667, 36.097
1346.868, 23.548
1348.068, 13.375
1349.269, 11.538
1350.469, 33.424
1351.669, 17.271
1352.869, 17.301
1354.069, 19.190
1355.268, 1.020
1356.468, 49.564
1357.667, 69.001
1358.866, 24.909
1360.065, 12.685
1361.263, 53.454
1362.462, 33.416
1363.660, 35.683
1364.858, 12.678
1366.056, 29.216
1367.254, 9.243
1368.451, 40.834
1369.649, 49.979
1370.846, 47.028
1372.043, 38.507
1373.240, 43.273
1374.436, 16.893
1375.633, 69.841
1376.829, 8.890
1378.025, 1.943
1379.221, 43.724
1380.417, 42.092
1381.613, 89.653
1382.808, 27.633
1384.003, 48.560
1385.199, 5.801
1386.393, 107.150
1387.588, 115.507
1388.783, 82.063
1389.977, 38.401
1391.171, 84.397
1392.365, 26.170
1393.559, 37.028
1394.753, 65.503
1395.946, 120.427
1397.140, 69.351
1398.333, 94.762
1399.526, 63.844
1400.719, 66.876
1401.911, 93.784
1403.104, 67.535
1404.296, 63.142
1405.488, 89.900
1406.680, 167.555
1407.872, 93.906
1409.063, 27.492
1410.255, 175.263
1411.446, 125.507
1412.637, 160.705
1413.828, 123.824
1415.018, 195.166
1416.209, 256.653
1417.399, 245.572
1418.589, 166.317
1419.779, 219.736
1420.969, 178.572
1422.159, 200.378
1423.348, 177.485
1424.537, 130.793
1425.726, 187.520
1426.915, 93.127
1428.104, 133.467
1429.293, 133.030
1430.481, 99.896
1431.669, 72.494
1432.857, 53.765
1434.045, 19.446
1435.233, 2.420
1436.420, 25.508
1437.608, 39.066
1438.795, 27.430
1439.982, 52.106
1441.169, 68.917
1442.355, 93.507
1443.542, 55.624
1444.728, 73.816
1445.914, 51.466
1447.100, 39.329
1448.286, 52.772
1449.472, 85.619
1450.657, 144.164
1451.842, 91.991
1453.027, 75.008
1454.212, 126.640
1455.397, 56.162
1456.581, 98.774
1457.766, 165.663
1458.950, 65.779
1460.134, 71.934
1461.318, 24.009
1462.501, 53.875
1463.685, 65.438
1464.868, 47.699
1466.051, 26.688
1467.234, 34.443
1468.417, 23.000
1469.600, 3.678
1470.782, 1.379
1471.965, 3.042
1473.147, 28.634
1474.329, 9.025
1475.510, 13.293
1476.692, 23.201
1477.873, 41.263
1479.055, 29.900
1480.236, 17.670
1481.416, 98.701
1482.597, 104.147
1483.778, 134.501
1484.958, 134.579
1486.138, 173.688
1487.318, 159.662
1488.498, 202.277
1489.678, 250.522
1490.857, 258.436
1492.037, 265.007
1493.216, 280.604
1494.395, 295.004
1495.574, 300.720
1496.752, 314.066
1497.931, 363.757
1499.109, 428.572
1500.287, 444.077
1501.465, 520.429
1502.643, 574.266
1503.820, 536.435
1504.998, 685.319
1506.175, 764.205
1507.352, 779.700
1508.529, 897.746
1509.706, 920.904
1510.882, 999.751
1512.059, 1180.359
1513.235, 1258.765
1514.411, 1436.093
1515.587, 1491.761
1516.762, 1669.059
1517.938, 1820.683
1519.113, 1941.377
1520.288, 2189.056
1521.463, 2407.119
1522.638, 2766.735
1523.813, 3076.907
1524.987, 3449.091
1526.162, 3928.941
1527.336, 4863.022
1528.510, 0.000
##END=



