##NAMES=Axinite-(Mn)
##RRUFFID=R061121
##IDEAL CHEMISTRY=Ca_2_Mn^2+^Al_2_BSi_4_O_15_(OH)
##LOCALITY=Franklin, Sussex County, New Jersey, USA
##OWNER=RRUFF
##SOURCE=Michael Scott
##DESCRIPTION=Honey-yellow massive associated with pink rhodonite
##STATUS=The identification of this mineral has been confirmed by X-ray diffraction and chemical analysis
##URL=rruff.info/R061121
##MEASURED CHEMISTRY=(Ca_1.93_Mn_0.07_)_Σ=2_(Mn^2+^_0.87_Zn_0.08_Fe^2+^_0.05_)_Σ=1_(Al_1.95_Fe^3+^_0.05_)_Σ=2_BSi_4.00_O_15_(OH); OH and B assumed by stoichiometry
127.4148, 0.0000000E+00
127.8969, 42.37659
128.3790, 112.4213
128.8611, 194.3268
129.3432, 278.1031
129.8254, 353.7139
130.3075, 427.7517
130.7896, 479.4427
131.2717, 494.6195
131.7538, 487.0548
132.2359, 479.3470
132.7181, 495.0397
133.2002, 491.2125
133.6823, 481.5964
134.1644, 471.8602
134.6465, 438.9202
135.1286, 356.0723
135.6108, 242.1699
136.0929, 139.3676
136.5750, 54.92810
137.0571, 5.599243
137.5392, 34.08972
138.0213, 28.95801
138.5035, 15.83716
138.9856, 11.90918
139.4677, 13.45801
139.9498, 2.096680
140.4319, 26.31396
140.9140, 72.91187
141.3961, 132.5559
141.8783, 204.6376
142.3604, 294.6300
142.8425, 410.6337
143.3246, 551.8623
143.8067, 701.0389
144.2888, 863.2498
144.7710, 1025.230
145.2531, 1180.481
145.7352, 1308.817
146.2173, 1385.695
146.6994, 1402.006
147.1815, 1376.881
147.6637, 1352.672
148.1458, 1344.610
148.6279, 1337.704
149.1100, 1325.499
149.5921, 1307.400
150.0742, 1276.087
150.5564, 1218.839
151.0385, 1129.768
151.5206, 1041.099
152.0027, 942.4885
152.4848, 856.4465
152.9669, 801.5146
153.4491, 782.5741
153.9312, 784.9404
154.4133, 787.9891
154.8954, 788.1940
155.3775, 797.9763
155.8596, 836.1676
156.3418, 873.8599
156.8239, 891.5154
157.3060, 883.0962
157.7881, 850.9427
158.2702, 795.4230
158.7523, 703.7670
159.2345, 618.1377
159.7166, 535.5260
160.1987, 465.2115
160.6808, 414.7155
161.1629, 386.4630
161.6451, 377.4550
162.1272, 382.1748
162.6093, 399.5297
163.0914, 434.3787
163.5735, 484.2812
164.0556, 549.0323
164.5378, 629.2317
165.0199, 724.7408
165.5020, 833.2449
165.9841, 949.8137
166.4662, 1076.129
166.9483, 1210.128
167.4305, 1366.045
167.9126, 1521.856
168.3947, 1657.384
168.8768, 1765.110
169.3589, 1853.456
169.8410, 1942.446
170.3232, 2037.272
170.8053, 2124.688
171.2874, 2229.890
171.7695, 2317.059
172.2516, 2355.091
172.7337, 2331.138
173.2159, 2249.024
173.6980, 2115.475
174.1801, 1865.091
174.6622, 1645.197
175.1443, 1464.844
175.6264, 1321.218
176.1085, 1211.584
176.5907, 1132.810
177.0728, 1078.974
177.5549, 1037.893
178.0370, 1031.451
178.5191, 1004.861
179.0012, 941.9366
179.4834, 861.8909
179.9655, 786.3524
180.4476, 723.2832
180.9297, 664.7302
181.4118, 597.3698
181.8939, 497.2262
182.3761, 420.4740
182.8582, 371.4008
183.3403, 344.7371
183.8224, 337.8691
184.3045, 349.7034
184.7866, 374.5641
185.2688, 400.6566
185.7509, 427.1605
186.2330, 457.0077
186.7151, 480.6332
187.1972, 511.3416
187.6793, 566.1351
188.1615, 651.1578
188.6436, 754.0419
189.1257, 849.6603
189.6078, 932.1932
190.0899, 1015.044
190.5720, 1120.099
191.0542, 1216.259
191.5363, 1273.766
192.0184, 1282.587
192.5005, 1248.267
192.9826, 1178.363
193.4647, 1039.758
193.9469, 917.1876
194.4290, 803.5701
194.9111, 709.8911
195.3932, 648.8224
195.8753, 624.9518
196.3574, 629.5985
196.8396, 648.8478
197.3217, 685.1771
197.8038, 734.6742
198.2859, 793.7218
198.7680, 867.0228
199.2501, 959.1528
199.7323, 1070.821
200.2144, 1200.530
200.6965, 1346.156
201.1786, 1517.616
201.6607, 1686.874
202.1428, 1862.664
202.6250, 2031.651
203.1071, 2186.298
203.5892, 2324.493
204.0713, 2439.796
204.5534, 2522.668
205.0355, 2563.379
205.5177, 2589.432
205.9998, 2598.767
206.4819, 2594.988
206.9640, 2576.475
207.4461, 2544.408
207.9282, 2509.841
208.4104, 2487.725
208.8925, 2486.988
209.3746, 2456.701
209.8567, 2394.610
210.3388, 2306.340
210.8209, 2190.607
211.3030, 2049.251
211.7852, 1893.158
212.2673, 1727.885
212.7494, 1551.501
213.2315, 1389.446
213.7136, 1236.553
214.1957, 1101.393
214.6779, 993.9570
215.1600, 912.2437
215.6421, 842.1693
216.1242, 773.8490
216.6063, 707.5974
217.0884, 637.1832
217.5706, 558.0497
218.0527, 479.1982
218.5348, 402.8031
219.0169, 330.3491
219.4990, 265.3727
219.9811, 210.7693
220.4633, 166.5441
220.9454, 127.1737
221.4275, 87.34860
221.9096, 79.68340
222.3917, 70.53082
222.8738, 60.01965
223.3560, 41.31559
223.8381, 35.30542
224.3202, 25.50202
224.8023, 16.42825
225.2844, 14.84372
225.7665, 2.082721
226.2487, 2.238913
226.7308, -1.468933
227.2129, -2.062295
227.6950, -6.478031
228.1771, -8.505018
228.6592, -4.862113
229.1414, -2.924341
229.6235, -4.194077
230.1056, 0.8901836
230.5877, -2.805961
231.0698, 2.935660
231.5519, 13.27422
232.0341, 16.85965
232.5162, 26.64597
232.9983, 35.34472
233.4804, 35.82893
233.9625, 53.12707
234.4446, 64.47605
234.9268, 69.69453
235.4089, 89.21746
235.8910, 97.25227
236.3731, 133.4047
236.8552, 192.0322
237.3373, 247.2755
237.8195, 298.5759
238.3016, 346.7800
238.7837, 391.6184
239.2658, 433.3121
239.7479, 474.8071
240.2300, 520.6287
240.7122, 574.7533
241.1943, 622.3831
241.6764, 671.3518
242.1585, 709.1791
242.6406, 723.8242
243.1227, 716.6515
243.6049, 700.9628
244.0870, 691.1960
244.5691, 690.5739
245.0512, 679.3075
245.5333, 647.0873
246.0154, 615.3595
246.4975, 592.1915
246.9797, 578.1136
247.4618, 571.4960
247.9439, 571.9220
248.4260, 579.6208
248.9081, 584.2452
249.3902, 568.5176
249.8724, 567.4380
250.3545, 600.4736
250.8366, 654.9069
251.3187, 708.0396
251.8008, 745.6244
252.2829, 768.7240
252.7651, 784.6178
253.2472, 803.3218
253.7293, 800.5062
254.2114, 761.0392
254.6935, 701.9443
255.1756, 642.9541
255.6578, 593.6191
256.1399, 551.3523
256.6220, 508.9022
257.1041, 462.7588
257.5862, 423.1096
258.0684, 388.5532
258.5505, 361.0646
259.0326, 341.8599
259.5147, 331.4592
259.9968, 330.3037
260.4789, 341.5294
260.9611, 371.5051
261.4432, 395.7362
261.9253, 408.4265
262.4074, 417.2993
262.8895, 427.4670
263.3716, 439.4711
263.8537, 449.6893
264.3358, 451.5278
264.8180, 442.8567
265.3001, 443.7369
265.7822, 464.3064
266.2643, 487.1941
266.7464, 505.4694
267.2285, 518.7657
267.7107, 528.5496
268.1928, 531.2118
268.6749, 528.7178
269.1570, 540.6360
269.6391, 573.8369
270.1212, 612.8004
270.6034, 648.6599
271.0855, 683.5060
271.5676, 722.4612
272.0497, 772.0203
272.5318, 825.4452
273.0139, 866.4222
273.4961, 894.2245
273.9782, 911.5879
274.4603, 923.7734
274.9424, 925.6245
275.4245, 907.6125
275.9066, 862.6074
276.3888, 803.8536
276.8709, 744.9211
277.3530, 685.4434
277.8351, 628.1483
278.3172, 573.2756
278.7993, 521.9528
279.2815, 474.8549
279.7636, 430.8486
280.2457, 394.1731
280.7278, 369.1273
281.2099, 353.6649
281.6920, 340.2490
282.1742, 327.4825
282.6563, 315.7190
283.1384, 303.8379
283.6205, 291.0952
284.1026, 284.8319
284.5847, 294.6685
285.0669, 311.1917
285.5490, 316.7888
286.0311, 307.0170
286.5132, 294.1952
286.9953, 289.3306
287.4774, 292.4335
287.9596, 303.6359
288.4417, 326.3209
288.9238, 355.1787
289.4059, 385.7561
289.8880, 417.9415
290.3701, 451.9899
290.8523, 485.7937
291.3344, 521.5883
291.8165, 575.9672
292.2986, 658.7472
292.7807, 746.6348
293.2628, 825.6686
293.7450, 901.5786
294.2271, 990.0259
294.7092, 1098.877
295.1913, 1224.478
295.6734, 1356.401
296.1555, 1503.735
296.6377, 1644.504
297.1198, 1782.186
297.6019, 1908.864
298.0840, 2012.859
298.5661, 2090.899
299.0482, 2151.650
299.5304, 2208.292
300.0125, 2256.464
300.4946, 2310.492
300.9767, 2375.897
301.4588, 2442.632
301.9409, 2506.367
302.4231, 2565.449
302.9052, 2619.283
303.3873, 2670.209
303.8694, 2722.468
304.3515, 2740.145
304.8336, 2731.818
305.3158, 2678.861
305.7979, 2562.782
306.2800, 2398.854
306.7621, 2210.489
307.2442, 2007.631
307.7263, 1796.080
308.2085, 1596.988
308.6906, 1406.901
309.1727, 1237.066
309.6548, 1080.748
310.1369, 945.9065
310.6190, 844.4834
311.1012, 781.2244
311.5833, 740.3623
312.0654, 697.3372
312.5475, 649.8492
313.0296, 612.1211
313.5117, 589.8982
313.9939, 578.4742
314.4760, 578.3584
314.9581, 588.3878
315.4402, 598.7729
315.9223, 598.1140
316.4044, 589.6122
316.8866, 593.9678
317.3687, 618.2684
317.8508, 647.7274
318.3329, 677.2048
318.8150, 704.0743
319.2971, 718.6454
319.7793, 710.7058
320.2614, 691.4846
320.7435, 676.8867
321.2256, 667.5481
321.7077, 658.5172
322.1898, 649.5414
322.6720, 637.8481
323.1541, 617.7640
323.6362, 586.1348
324.1183, 550.0298
324.6004, 507.9521
325.0826, 463.9652
325.5647, 429.6024
326.0468, 409.1964
326.5289, 400.8431
327.0110, 404.0880
327.4931, 424.2894
327.9753, 438.2374
328.4574, 432.9401
328.9395, 423.7863
329.4216, 427.9579
329.9037, 448.2502
330.3858, 476.1631
330.8680, 502.4368
331.3501, 525.5236
331.8322, 558.6414
332.3143, 602.9375
332.7964, 654.4402
333.2785, 713.2438
333.7606, 777.9138
334.2427, 845.7524
334.7249, 915.2727
335.2070, 986.2146
335.6891, 1055.536
336.1712, 1121.581
336.6533, 1188.386
337.1354, 1263.759
337.6176, 1336.425
338.0997, 1395.252
338.5818, 1436.282
339.0639, 1464.292
339.5460, 1485.788
340.0281, 1501.009
340.5103, 1508.836
340.9924, 1504.752
341.4745, 1496.638
341.9566, 1486.062
342.4387, 1474.362
342.9208, 1464.733
343.4030, 1459.550
343.8851, 1458.554
344.3672, 1459.624
344.8493, 1459.901
345.3314, 1468.174
345.8135, 1495.185
346.2957, 1531.193
346.7778, 1559.955
347.2599, 1569.615
347.7420, 1579.452
348.2241, 1618.524
348.7062, 1685.890
349.1884, 1744.858
349.6705, 1790.000
350.1526, 1810.879
350.6347, 1796.940
351.1168, 1746.506
351.5989, 1672.448
352.0811, 1574.687
352.5632, 1458.318
353.0453, 1328.498
353.5274, 1184.916
354.0095, 1038.876
354.4916, 897.5356
354.9738, 761.0044
355.4559, 640.7322
355.9380, 538.8127
356.4201, 451.0757
356.9022, 376.0267
357.3843, 312.6561
357.8665, 258.7777
358.3486, 213.6305
358.8307, 175.4564
359.3128, 136.2814
359.7949, 85.21386
360.2770, 79.52122
360.7592, 72.08665
361.2413, 63.04236
361.7234, 45.55504
362.2055, 40.50571
362.6876, 31.41072
363.1697, 22.79193
363.6519, 21.40852
364.1340, 8.596822
364.6161, 8.450700
365.0982, 4.186110
365.5803, 2.783324
366.0624, -2.694999
366.5446, -6.037768
367.0267, -3.963138
367.5088, -3.846740
367.9909, -7.190797
368.4730, -4.433793
368.9551, -10.71010
369.4373, -7.801158
369.9194, -0.5484498
370.4015, -0.3034514
370.8836, 5.890967
371.3657, 10.74463
371.8478, 7.131396
372.3300, 20.07966
372.8121, 26.82521
373.2942, 27.18420
373.7763, 41.59766
374.2584, 44.26955
374.7405, 52.04208
375.2227, 63.81987
375.7048, 72.79116
376.1869, 87.91132
376.6690, 98.42351
377.1511, 109.1334
377.6332, 138.8088
378.1154, 161.9521
378.5975, 180.6750
379.0796, 211.2256
379.5617, 255.9268
380.0438, 307.1707
380.5259, 363.7629
381.0081, 425.7827
381.4902, 494.8680
381.9723, 571.5223
382.4544, 650.1908
382.9365, 722.0106
383.4186, 782.1370
383.9008, 848.7380
384.3829, 933.7874
384.8650, 1013.662
385.3471, 1077.196
385.8292, 1125.488
386.3113, 1164.134
386.7935, 1196.480
387.2756, 1222.577
387.7577, 1243.260
388.2398, 1262.535
388.7219, 1267.552
389.2040, 1254.661
389.6862, 1226.970
390.1683, 1182.742
390.6504, 1120.701
391.1325, 1056.597
391.6146, 1010.954
392.0967, 979.7410
392.5789, 933.2251
393.0610, 861.3983
393.5431, 782.9237
394.0252, 712.0236
394.5073, 648.3019
394.9894, 592.4235
395.4716, 544.9122
395.9537, 504.7599
396.4358, 473.9504
396.9179, 450.9098
397.4000, 426.5852
397.8821, 395.3121
398.3643, 360.0679
398.8464, 330.9409
399.3285, 308.3555
399.8106, 289.8564
400.2927, 275.4330
400.7748, 265.3273
401.2570, 258.6461
401.7391, 255.1825
402.2212, 257.3239
402.7033, 268.0735
403.1854, 287.7937
403.6675, 314.3701
404.1497, 354.0465
404.6317, 394.0981
405.1139, 425.2585
405.5960, 454.7234
406.0781, 495.1074
406.5602, 552.7462
407.0423, 622.2916
407.5244, 693.9426
408.0066, 766.2832
408.4887, 846.2837
408.9708, 934.9495
409.4529, 1032.746
409.9350, 1140.588
410.4171, 1258.215
410.8993, 1384.389
411.3814, 1523.283
411.8635, 1668.593
412.3456, 1812.363
412.8277, 1956.413
413.3098, 2079.754
413.7920, 2166.879
414.2741, 2220.396
414.7562, 2263.166
415.2383, 2298.962
415.7204, 2319.341
416.2025, 2315.393
416.6847, 2294.787
417.1668, 2269.975
417.6489, 2244.612
418.1310, 2215.846
418.6131, 2178.324
419.0952, 2125.148
419.5774, 2086.624
420.0595, 2077.399
420.5416, 2067.695
421.0237, 2044.672
421.5058, 2008.499
421.9879, 1963.549
422.4701, 1911.963
422.9522, 1857.545
423.4343, 1812.186
423.9164, 1783.259
424.3985, 1744.989
424.8806, 1693.494
425.3628, 1631.091
425.8449, 1556.272
426.3270, 1469.489
426.8091, 1378.400
427.2912, 1284.838
427.7733, 1191.504
428.2555, 1105.875
428.7376, 1027.559
429.2197, 954.2056
429.7018, 887.3600
430.1839, 824.7977
430.6660, 758.5343
431.1482, 678.1156
431.6303, 607.0044
432.1124, 561.0753
432.5945, 532.2686
433.0766, 504.6752
433.5587, 473.5372
434.0409, 445.1453
434.5230, 427.6726
435.0051, 423.2020
435.4872, 422.2456
435.9693, 425.7915
436.4514, 431.3835
436.9336, 436.9484
437.4157, 443.7725
437.8978, 454.4226
438.3799, 470.3008
438.8620, 490.7650
439.3441, 515.3672
439.8263, 547.7164
440.3084, 574.5404
440.7905, 593.9148
441.2726, 606.9266
441.7547, 614.0837
442.2368, 615.2384
442.7190, 609.5582
443.2011, 595.6926
443.6832, 574.8259
444.1653, 550.7070
444.6474, 524.2240
445.1295, 487.6505
445.6117, 432.4319
446.0938, 365.6980
446.5759, 303.8967
447.0580, 243.9041
447.5401, 196.0632
448.0222, 170.8999
448.5044, 157.6403
448.9865, 140.2152
449.4686, 115.9186
449.9507, 94.30566
450.4328, 85.70337
450.9149, 91.00330
451.3971, 92.84399
451.8792, 88.00586
452.3613, 83.54932
452.8434, 82.72437
453.3255, 82.82861
453.8076, 80.21826
454.2898, 73.54224
454.7719, 64.32471
455.2540, 54.99438
455.7361, 45.83032
456.2182, 33.58765
456.7003, 14.83313
457.1825, 3.242188
457.6646, 18.00574
458.1467, 28.90210
458.6288, 34.18518
459.1109, 30.26428
459.5930, 23.35156
460.0752, 20.09302
460.5573, 20.06653
461.0394, 21.02039
461.5215, 22.91357
462.0036, 22.80249
462.4857, 15.33350
462.9679, 0.5035400
463.4500, 16.79749
463.9321, 34.13928
464.4142, 52.63489
464.8963, 72.03809
465.3784, 91.82837
465.8606, 111.4000
466.3427, 130.2659
466.8248, 148.8688
467.3069, 170.5298
467.7890, 199.9909
468.2711, 225.1216
468.7533, 242.0959
469.2354, 256.0170
469.7175, 268.2141
470.1996, 280.5817
470.6817, 298.0076
471.1638, 322.7773
471.6460, 353.1890
472.1281, 388.0238
472.6102, 428.0597
473.0923, 471.0277
473.5744, 514.1655
474.0565, 560.6087
474.5387, 614.1957
475.0208, 674.2742
475.5029, 743.6406
475.9850, 828.6142
476.4671, 920.8110
476.9492, 1008.821
477.4313, 1091.279
477.9135, 1176.200
478.3956, 1271.990
478.8777, 1377.073
479.3598, 1464.224
479.8419, 1527.341
480.3240, 1578.257
480.8062, 1630.524
481.2883, 1664.561
481.7704, 1657.855
482.2525, 1606.510
482.7346, 1528.350
483.2167, 1436.304
483.6989, 1331.487
484.1810, 1222.086
484.6631, 1106.363
485.1452, 990.9088
485.6273, 874.5974
486.1094, 762.0693
486.5916, 661.2759
487.0737, 573.5280
487.5558, 496.6622
488.0379, 429.0413
488.5200, 370.9961
489.0021, 322.7770
489.4843, 284.4353
489.9664, 256.9036
490.4485, 243.1904
490.9306, 244.3585
491.4127, 238.1630
491.8948, 215.1609
492.3770, 196.8561
492.8591, 188.0128
493.3412, 187.8365
493.8233, 197.3405
494.3054, 216.1227
494.7875, 236.9251
495.2697, 249.5516
495.7518, 253.5394
496.2339, 259.7111
496.7160, 265.5581
497.1981, 278.2239
497.6802, 304.7987
498.1624, 339.5676
498.6445, 372.8134
499.1266, 401.2271
499.6087, 429.6357
500.0908, 465.4641
500.5729, 503.9514
501.0551, 530.6496
501.5372, 541.4486
502.0193, 550.4882
502.5014, 574.6853
502.9835, 616.4375
503.4656, 640.0270
503.9478, 633.9844
504.4299, 625.5953
504.9120, 623.1827
505.3941, 623.8208
505.8762, 623.4283
506.3583, 620.5613
506.8405, 615.3380
507.3226, 605.4308
507.8047, 590.1251
508.2868, 586.5209
508.7689, 607.8459
509.2510, 620.6072
509.7332, 603.0220
510.2153, 566.5991
510.6974, 530.3583
511.1795, 500.0117
511.6616, 467.7102
512.1437, 427.3020
512.6259, 380.9390
513.1080, 331.0640
513.5901, 278.1361
514.0722, 230.2843
514.5543, 196.6637
515.0364, 177.7925
515.5186, 152.1190
516.0007, 109.6678
516.4828, 73.16833
516.9649, 51.52423
517.4470, 38.08478
517.9291, 20.30097
518.4113, 22.19730
518.8934, 22.01118
519.3755, 19.87036
519.8576, 8.942770
520.3397, 10.11061
520.8218, 6.889369
521.3040, 3.801041
521.7861, 7.606297
522.2682, -0.3609473
522.7503, 3.993903
523.2324, 3.887466
523.7145, 6.299423
524.1967, 4.293035
524.6788, 4.079164
525.1609, 8.939226
525.6430, 11.49784
526.1251, 10.25291
526.6072, 14.76565
527.0894, 9.902757
527.5715, 13.88083
528.0536, 21.85995
528.5357, 22.48840
529.0178, 28.72293
529.4999, 33.27332
529.9821, 29.01498
530.4642, 32.53784
530.9463, 32.42407
531.4284, 41.57996
531.9105, 56.43286
532.3926, 62.81354
532.8748, 58.06055
533.3569, 60.34247
533.8390, 81.34186
534.3211, 110.9064
534.8032, 132.9380
535.2853, 147.3383
535.7675, 155.3602
536.2496, 152.4227
536.7317, 146.8339
537.2138, 144.3545
537.6959, 146.0400
538.1780, 153.2972
538.6602, 167.5085
539.1423, 185.5203
539.6244, 198.8281
540.1065, 205.7907
540.5886, 211.7725
541.0707, 216.3634
541.5529, 220.7639
542.0350, 226.4418
542.5171, 232.5701
542.9992, 236.6531
543.4813, 237.6478
543.9634, 235.8480
544.4456, 228.9077
544.9277, 218.3278
545.4098, 214.8464
545.8919, 223.2942
546.3740, 234.3344
546.8561, 235.7578
547.3383, 225.2314
547.8204, 222.3293
548.3025, 230.7236
548.7846, 242.5390
549.2667, 257.0855
549.7488, 272.0123
550.2310, 282.9583
550.7131, 288.7753
551.1952, 295.4856
551.6773, 312.3641
552.1594, 339.5076
552.6415, 362.3593
553.1237, 379.4902
553.6058, 394.7311
554.0879, 407.0723
554.5700, 419.8345
555.0521, 439.9866
555.5342, 473.5031
556.0164, 500.0855
556.4985, 502.9930
556.9806, 496.1606
557.4627, 500.0532
557.9448, 515.8801
558.4269, 531.4506
558.9091, 538.2854
559.3912, 536.9191
559.8733, 529.2979
560.3554, 506.6628
560.8375, 492.5975
561.3196, 494.7555
561.8018, 500.8121
562.2839, 501.4231
562.7660, 497.5289
563.2481, 496.8118
563.7302, 504.2997
564.2123, 517.0295
564.6945, 530.5333
565.1766, 544.8630
565.6587, 562.2186
566.1408, 584.7254
566.6229, 606.5961
567.1050, 618.1578
567.5872, 615.4156
568.0693, 626.7924
568.5514, 666.8929
569.0335, 705.4763
569.5156, 730.5510
569.9977, 744.9575
570.4799, 753.8629
570.9620, 759.0604
571.4441, 760.4058
571.9262, 754.9420
572.4083, 743.0581
572.8904, 740.3102
573.3726, 749.5107
573.8547, 761.9518
574.3368, 775.7471
574.8189, 789.0466
575.3010, 797.1515
575.7831, 795.2198
576.2653, 801.4661
576.7474, 828.2476
577.2295, 863.2719
577.7116, 892.7844
578.1937, 916.8782
578.6758, 943.5259
579.1580, 976.7188
579.6401, 1014.681
580.1222, 1056.393
580.6042, 1105.954
581.0864, 1151.790
581.5685, 1187.692
582.0506, 1225.181
582.5327, 1276.398
583.0148, 1333.856
583.4969, 1377.277
583.9791, 1393.642
584.4612, 1400.814
584.9433, 1422.396
585.4254, 1447.912
585.9075, 1444.532
586.3896, 1404.465
586.8718, 1350.736
587.3539, 1305.614
587.8360, 1268.439
588.3181, 1210.870
588.8002, 1106.838
589.2823, 1013.797
589.7645, 945.7349
590.2466, 889.2171
590.7287, 831.6136
591.2108, 771.0017
591.6929, 714.6057
592.1750, 668.6448
592.6572, 630.4156
593.1393, 591.7584
593.6214, 552.3359
594.1035, 519.3358
594.5856, 495.3041
595.0677, 480.1069
595.5499, 475.1948
596.0320, 484.4497
596.5141, 489.0720
596.9962, 483.3527
597.4783, 478.1317
597.9604, 478.5345
598.4426, 482.9153
598.9247, 487.2084
599.4068, 489.7292
599.8889, 493.7382
600.3710, 507.0091
600.8531, 528.4911
601.3353, 542.2432
601.8174, 545.1228
602.2995, 549.9960
602.7816, 565.9304
603.2637, 586.8171
603.7458, 600.0465
604.2280, 603.7848
604.7101, 606.2347
605.1922, 611.9657
605.6743, 615.1042
606.1564, 607.0867
606.6385, 592.1408
607.1207, 583.1548
607.6028, 586.9426
608.0849, 596.8912
608.5670, 601.1801
609.0491, 599.3756
609.5313, 595.1110
610.0134, 586.4945
610.4955, 578.7969
610.9776, 577.8522
611.4597, 579.6348
611.9418, 575.4841
612.4240, 559.5655
612.9061, 547.5749
613.3882, 550.8174
613.8703, 559.4650
614.3524, 562.4937
614.8345, 558.7054
615.3167, 551.2885
615.7988, 542.3116
616.2809, 531.3700
616.7630, 516.4553
617.2451, 495.2363
617.7272, 477.5113
618.2094, 468.8137
618.6915, 459.2294
619.1736, 442.9194
619.6557, 420.8978
620.1378, 396.2540
620.6199, 369.0322
621.1021, 340.4652
621.5842, 309.5676
622.0663, 278.3398
622.5484, 250.6757
623.0305, 226.9403
623.5126, 203.6043
623.9948, 177.4987
624.4769, 149.6492
624.9590, 126.1724
625.4411, 107.9868
625.9232, 92.24756
626.4053, 78.94952
626.8875, 67.58167
627.3696, 59.80450
627.8517, 54.22357
628.3338, 45.40704
628.8159, 26.86066
629.2980, 9.585205
629.7802, 3.512756
630.2623, 5.467041
630.7444, 10.01392
631.2265, 15.57281
631.7086, 18.45703
632.1907, 14.30682
632.6729, 4.282593
633.1550, 1.106567
633.6371, 11.10010
634.1192, 16.81543
634.6013, 8.894836
635.0834, 0.8386840
635.5656, 4.117859
636.0477, 17.33337
636.5298, 29.28174
637.0119, 35.01569
637.4940, 37.53400
637.9761, 37.21350
638.4583, 36.13416
638.9404, 40.82245
639.4225, 52.80554
639.9046, 65.90845
640.3867, 74.61841
640.8688, 78.74139
641.3510, 74.44836
641.8331, 52.25757
642.3152, 37.64038
642.7973, 39.80524
643.2794, 47.50299
643.7615, 55.85071
644.2437, 62.79352
644.7258, 61.28925
645.2079, 39.91180
645.6900, 15.64111
646.1721, 5.729431
646.6542, 5.590271
647.1364, 3.846619
647.6185, 2.535889
648.1006, 10.37250
648.5827, 16.37012
649.0648, 20.65430
649.5469, 26.38745
650.0291, 36.80743
650.5112, 42.80951
650.9933, 39.55548
651.4754, 33.59302
651.9575, 28.62128
652.4396, 25.19989
652.9218, 24.35010
653.4039, 28.60461
653.8860, 33.64130
654.3681, 36.09021
654.8502, 36.54004
655.3323, 37.33301
655.8145, 38.77271
656.2966, 36.47723
656.7787, 25.22211
657.2608, 6.255005
657.7429, 7.421631
658.2250, 14.49512
658.7072, 19.16956
659.1893, 19.99341
659.6714, 20.53870
660.1535, 22.64874
660.6356, 26.61511
661.1177, 33.35034
661.5999, 44.45245
662.0820, 57.09979
662.5641, 68.96405
663.0462, 81.21014
663.5283, 96.70007
664.0104, 115.6200
664.4926, 133.6650
664.9747, 146.0370
665.4568, 155.4833
665.9389, 176.3990
666.4210, 212.0941
666.9031, 248.4673
667.3853, 285.1575
667.8674, 319.2147
668.3495, 344.0625
668.8316, 363.1992
669.3137, 392.8737
669.7958, 441.2341
670.2780, 494.8984
670.7601, 549.8680
671.2422, 605.4836
671.7243, 660.6636
672.2064, 715.9671
672.6885, 773.2315
673.1707, 834.1999
673.6528, 897.4684
674.1349, 959.9277
674.6170, 1022.036
675.0991, 1077.681
675.5812, 1126.618
676.0634, 1166.749
676.5455, 1197.219
677.0276, 1217.121
677.5097, 1224.603
677.9918, 1219.950
678.4739, 1202.176
678.9561, 1169.635
679.4382, 1124.956
679.9203, 1065.644
680.4024, 995.7365
680.8845, 925.5811
681.3666, 860.3326
681.8488, 798.5376
682.3309, 738.4169
682.8130, 679.6760
683.2951, 623.0031
683.7772, 567.4662
684.2593, 518.3577
684.7415, 479.8911
685.2236, 449.7946
685.7057, 420.7312
686.1878, 392.6284
686.6699, 365.7678
687.1520, 337.9594
687.6342, 313.5577
688.1163, 295.7396
688.5984, 283.2012
689.0805, 273.6426
689.5626, 266.3848
690.0447, 260.0626
690.5269, 251.4974
691.0090, 243.3822
691.4911, 242.2541
691.9732, 248.2561
692.4553, 258.0659
692.9374, 270.3808
693.4196, 284.3776
693.9017, 298.6146
694.3838, 314.6790
694.8659, 324.8203
695.3480, 317.8824
695.8301, 318.4364
696.3123, 337.7642
696.7944, 366.8137
697.2765, 393.9497
697.7586, 417.0070
698.2407, 445.7341
698.7228, 485.2934
699.2050, 532.5023
699.6871, 586.8403
700.1692, 646.1566
700.6513, 704.5731
701.1334, 760.4672
701.6155, 818.8239
702.0977, 883.2051
702.5798, 954.9662
703.0619, 1051.917
703.5440, 1180.779
704.0261, 1312.898
704.5082, 1434.492
704.9904, 1560.611
705.4725, 1704.163
705.9546, 1864.723
706.4367, 2039.738
706.9188, 2236.372
707.4009, 2438.496
707.8831, 2632.014
708.3652, 2829.933
708.8473, 3056.142
709.3294, 3305.845
709.8115, 3546.082
710.2936, 3750.465
710.7758, 3935.023
711.2579, 4139.716
711.7400, 4359.081
712.2221, 4540.104
712.7042, 4676.938
713.1863, 4758.340
713.6685, 4774.604
714.1506, 4729.601
714.6327, 4642.640
715.1148, 4517.635
715.5969, 4340.923
716.0790, 4079.747
716.5612, 3799.123
717.0433, 3526.454
717.5254, 3262.465
718.0075, 3004.764
718.4896, 2751.802
718.9717, 2502.369
719.4539, 2241.754
719.9360, 1990.504
720.4181, 1787.602
720.9002, 1628.850
721.3823, 1479.720
721.8644, 1323.414
722.3465, 1174.012
722.8286, 1055.861
723.3107, 972.0314
723.7928, 888.8088
724.2750, 801.9084
724.7571, 724.4302
725.2392, 664.2225
725.7213, 614.5513
726.2034, 567.1320
726.6855, 521.7365
727.1677, 478.9299
727.6498, 439.8878
728.1319, 401.7606
728.6140, 359.6057
729.0961, 319.0613
729.5782, 289.2885
730.0604, 270.7166
730.5425, 255.0305
731.0246, 235.9225
731.5067, 215.2793
731.9888, 195.1431
732.4709, 176.1281
732.9531, 165.7803
733.4352, 167.2961
733.9173, 168.7187
734.3994, 157.6542
734.8815, 137.3081
735.3636, 129.0056
735.8458, 146.4749
736.3279, 152.4598
736.8100, 134.7610
737.2921, 115.9033
737.7742, 108.5972
738.2563, 108.4149
738.7385, 104.9476
739.2206, 94.24829
739.7027, 85.30609
740.1848, 75.07477
740.6669, 87.86469
741.1490, 94.03436
741.6312, 94.13098
742.1133, 70.29010
742.5954, 77.72925
743.0775, 73.14526
743.5596, 68.43018
744.0417, 80.94269
744.5239, 60.60846
745.0060, 71.60437
745.4881, 69.91724
745.9702, 73.97076
746.4523, 65.50433
746.9344, 60.89630
747.4166, 51.40424
747.8987, 52.91302
748.3808, 79.25037
748.8629, 97.40704
749.3450, 91.94476
749.8271, 80.67761
750.3093, 78.35632
750.7914, 85.93060
751.2735, 98.42310
751.7556, 116.6089
752.2377, 133.5452
752.7198, 140.7831
753.2020, 142.5235
753.6841, 146.4103
754.1662, 153.5013
754.6483, 162.2647
755.1304, 171.9122
755.6125, 181.9594
756.0947, 191.5844
756.5768, 200.8388
757.0589, 208.0026
757.5410, 210.3060
758.0231, 217.2068
758.5052, 235.4193
758.9874, 260.0753
759.4695, 282.1580
759.9516, 301.2760
760.4337, 321.7701
760.9158, 343.4529
761.3979, 366.8314
761.8801, 394.6990
762.3622, 422.7225
762.8443, 445.0975
763.3264, 461.4521
763.8085, 476.7527
764.2906, 496.5222
764.7728, 514.8738
765.2549, 522.7564
765.7370, 523.1762
766.2191, 522.7191
766.7012, 523.1821
767.1833, 529.8341
767.6655, 549.2396
768.1476, 572.3478
768.6297, 567.1178
769.1118, 526.7446
769.5939, 496.2457
770.0760, 485.9768
770.5582, 474.1564
771.0403, 444.7893
771.5224, 405.2981
772.0045, 374.8229
772.4866, 356.5630
772.9688, 338.8425
773.4509, 321.9257
773.9330, 301.2782
774.4151, 270.0478
774.8972, 237.6758
775.3793, 219.5309
775.8615, 217.4224
776.3436, 213.1015
776.8257, 187.3668
777.3078, 156.6286
777.7899, 144.3419
778.2720, 144.6494
778.7542, 140.6187
779.2363, 128.7547
779.7184, 116.6963
780.2005, 110.8760
780.6826, 109.4581
781.1647, 106.5083
781.6469, 101.8532
782.1290, 97.28448
782.6111, 93.98981
783.0932, 88.49310
783.5753, 77.64838
784.0574, 63.46368
784.5396, 50.86121
785.0217, 39.21173
785.5038, 30.70007
785.9859, 28.47589
786.4680, 26.00195
786.9501, 18.44330
787.4323, 9.908142
787.9144, 6.064209
788.3965, 7.797668
788.8786, 11.15869
789.3607, 18.14038
789.8428, 22.01849
790.3250, 12.37457
790.8071, 3.992432
791.2892, 13.93597
791.7713, 15.08691
792.2534, 11.89117
792.7355, 6.714783
793.2177, 2.087708
793.6998, 6.251587
794.1819, 18.90961
794.6640, 23.40656
795.1461, 16.14227
795.6282, 9.113770
796.1104, 9.999207
796.5925, 14.82581
797.0746, 14.75726
797.5567, 7.837524
798.0388, 2.104553
798.5209, 4.149048
799.0031, 7.133240
799.4852, 3.720764
799.9673, 2.175110
800.4494, 8.545166
800.9315, 14.53088
801.4136, 13.36804
801.8958, 3.056458
802.3779, 20.55420
802.8600, 31.30463
803.3421, 38.49286
803.8242, 44.84290
804.3063, 51.48810
804.7885, 60.13116
805.2706, 72.07983
805.7527, 84.76862
806.2348, 94.61682
806.7169, 102.3764
807.1990, 110.8484
807.6812, 120.0941
808.1633, 127.9427
808.6454, 133.4042
809.1275, 136.6985
809.6096, 138.6086
810.0917, 139.2732
810.5739, 133.0078
811.0560, 116.4431
811.5381, 101.8743
812.0202, 93.53021
812.5023, 87.42426
812.9844, 79.37811
813.4666, 69.88959
813.9487, 62.93683
814.4308, 64.03027
814.9129, 60.04779
815.3950, 42.72144
815.8771, 25.34436
816.3593, 19.27948
816.8414, 19.66602
817.3235, 13.98474
817.8056, 2.517334
818.2877, 16.31403
818.7698, 16.94843
819.2520, 11.65991
819.7341, 6.665100
820.2162, 2.814148
820.6983, 1.045898
821.1804, 1.541687
821.6625, 3.669556
822.1447, 7.362427
822.6268, 11.67725
823.1089, 14.28632
823.5910, 15.23096
824.0731, 14.75659
824.5552, 12.79999
825.0374, 10.41528
825.5195, 8.291931
826.0016, 6.335876
826.4837, 4.120178
826.9658, 1.025818
827.4479, 0.1211550
827.9301, 2.762268
828.4122, 4.240662
828.8943, 0.6658330
829.3764, 6.316101
829.8585, 3.476807
830.3406, 8.366577
830.8228, 11.93555
831.3049, 3.758484
831.7870, 16.73376
832.2691, 19.35016
832.7512, 16.47968
833.2333, 9.377930
833.7155, 1.014526
834.1976, 1.420166
834.6797, 6.149658
835.1618, 16.00470
835.6439, 23.04913
836.1260, 28.41418
836.6082, 33.34558
837.0903, 37.90015
837.5724, 41.87976
838.0545, 45.20874
838.5366, 47.82062
839.0187, 49.05109
839.5009, 49.82648
839.9830, 54.00055
840.4651, 61.16779
840.9472, 64.78003
841.4293, 62.87469
841.9114, 62.43335
842.3936, 68.74164
842.8757, 80.98370
843.3578, 98.22473
843.8399, 125.8839
844.3220, 138.3579
844.8041, 125.7006
845.2863, 114.3585
845.7684, 117.6365
846.2505, 128.4697
846.7326, 137.2278
847.2147, 144.3304
847.6968, 146.3109
848.1790, 136.1833
848.6611, 129.1794
849.1432, 131.7176
849.6253, 137.4745
850.1074, 141.0161
850.5895, 142.7629
851.0717, 145.8489
851.5538, 151.6604
852.0359, 155.2980
852.5180, 154.9191
853.0001, 152.3911
853.4822, 147.2681
853.9644, 140.7753
854.4465, 136.1457
854.9286, 134.6452
855.4107, 134.4277
855.8928, 132.6542
856.3749, 131.2896
856.8571, 135.3633
857.3392, 142.7271
857.8213, 145.5627
858.3034, 142.5605
858.7855, 138.5027
859.2676, 137.2334
859.7498, 137.9027
860.2319, 134.7940
860.7140, 127.5292
861.1961, 135.2516
861.6782, 141.2739
862.1603, 144.6787
862.6425, 145.6074
863.1245, 136.6463
863.6066, 140.4513
864.0887, 139.1382
864.5709, 137.6143
865.0530, 143.2118
865.5351, 135.8174
866.0172, 131.4440
866.4993, 136.8073
866.9814, 138.0441
867.4636, 136.2798
867.9457, 133.0927
868.4278, 126.3937
868.9099, 123.8735
869.3920, 131.5227
869.8741, 138.6544
870.3563, 138.2632
870.8384, 135.3851
871.3205, 136.8624
871.8026, 142.8022
872.2847, 147.5385
872.7668, 148.9627
873.2490, 147.8090
873.7311, 142.4942
874.2132, 136.7166
874.6953, 133.9247
875.1774, 134.3359
875.6595, 138.5153
876.1417, 146.9706
876.6238, 154.4267
877.1059, 153.3275
877.5880, 148.0238
878.0701, 145.0144
878.5522, 145.0029
879.0344, 151.9116
879.5165, 165.9861
879.9986, 178.4496
880.4807, 181.4713
880.9628, 180.5250
881.4449, 190.3288
881.9271, 210.4257
882.4092, 226.4598
882.8913, 236.6530
883.3734, 248.3677
883.8555, 264.9458
884.3376, 284.6753
884.8198, 303.6656
885.3019, 321.7490
885.7840, 355.0087
886.2661, 411.8425
886.7482, 461.4534
887.2303, 493.1632
887.7125, 522.6586
888.1946, 560.5990
888.6767, 605.6932
889.1588, 652.8011
889.6409, 697.8971
890.1230, 751.5659
890.6052, 819.1809
891.0873, 888.6652
891.5694, 959.8582
892.0515, 1028.057
892.5336, 1085.812
893.0157, 1133.885
893.4979, 1189.500
893.9800, 1261.042
894.4621, 1334.850
894.9442, 1417.988
895.4263, 1491.236
895.9084, 1531.791
896.3906, 1551.396
896.8727, 1576.725
897.3548, 1615.667
897.8369, 1652.221
898.3190, 1681.530
898.8011, 1699.299
899.2833, 1697.368
899.7654, 1683.267
900.2475, 1672.870
900.7296, 1664.662
901.2117, 1639.092
901.6938, 1582.642
902.1760, 1515.232
902.6581, 1463.456
903.1402, 1417.179
903.6223, 1350.729
904.1044, 1268.406
904.5865, 1194.446
905.0687, 1136.625
905.5508, 1083.953
906.0329, 1025.620
906.5150, 964.3882
906.9971, 907.8508
907.4792, 855.8260
907.9614, 805.3431
908.4435, 755.9568
908.9256, 710.5903
909.4077, 671.0574
909.8898, 633.1269
910.3719, 588.5437
910.8541, 537.3745
911.3362, 490.1530
911.8183, 446.9930
912.3004, 406.5057
912.7825, 369.0399
913.2646, 332.3813
913.7468, 293.3413
914.2289, 254.6195
914.7110, 226.8387
915.1931, 216.9946
915.6752, 198.9983
916.1573, 167.1930
916.6395, 137.0262
917.1216, 113.9955
917.6037, 95.53174
918.0858, 79.31519
918.5679, 65.34198
919.0500, 51.66504
919.5322, 33.46820
920.0143, 22.74396
920.4964, 28.24353
920.9785, 33.37915
921.4606, 28.53436
921.9427, 17.62659
922.4249, 6.507568
922.9070, 4.590454
923.3891, 11.58478
923.8712, 9.416321
924.3533, 8.237366
924.8354, 13.78259
925.3176, 20.58435
925.7997, 23.10797
926.2818, 22.50592
926.7639, 23.34363
927.2460, 27.30530
927.7281, 31.08472
928.2103, 34.63739
928.6924, 35.80768
929.1745, 31.94769
929.6566, 25.16156
930.1387, 16.99042
930.6208, 8.802917
931.1030, 4.667480
931.5851, 8.859558
932.0672, 12.49023
932.5493, 8.446777
933.0314, 0.7401730
933.5135, 16.14081
933.9957, 33.16022
934.4778, 39.52826
934.9599, 33.09607
935.4420, 29.23505
935.9241, 41.20892
936.4063, 61.27118
936.8884, 80.81067
937.3705, 99.18524
937.8526, 113.0488
938.3347, 123.8798
938.8168, 139.4788
939.2990, 163.3689
939.7811, 192.2750
940.2632, 224.4409
940.7453, 257.8088
941.2274, 284.8602
941.7095, 307.5024
942.1917, 335.2180
942.6738, 369.3573
943.1559, 404.9129
943.6380, 438.6705
944.1201, 471.3185
944.6022, 504.0848
945.0844, 536.8909
945.5665, 570.3115
946.0486, 604.2316
946.5307, 641.7313
947.0128, 684.0528
947.4949, 722.5424
947.9771, 749.3581
948.4592, 769.0011
948.9413, 794.1440
949.4234, 824.8414
949.9055, 860.9103
950.3876, 903.4242
950.8698, 943.3179
951.3519, 975.1801
951.8340, 1010.378
952.3161, 1062.179
952.7982, 1128.462
953.2803, 1196.209
953.7625, 1265.927
954.2446, 1333.692
954.7267, 1395.539
955.2088, 1467.673
955.6909, 1561.744
956.1730, 1664.265
956.6552, 1756.385
957.1373, 1837.714
957.6194, 1920.515
958.1015, 2009.600
958.5836, 2088.927
959.0657, 2160.321
959.5479, 2214.133
960.0300, 2242.256
960.5121, 2251.084
960.9942, 2254.689
961.4763, 2256.480
961.9584, 2232.190
962.4406, 2167.213
962.9227, 2100.595
963.4048, 2037.790
963.8869, 1977.469
964.3690, 1918.179
964.8511, 1860.817
965.3333, 1808.254
965.8154, 1758.311
966.2975, 1719.841
966.7796, 1696.447
967.2617, 1679.415
967.7438, 1665.156
968.2260, 1657.708
968.7081, 1661.019
969.1902, 1674.142
969.6723, 1693.434
970.1544, 1719.689
970.6365, 1749.964
971.1187, 1784.400
971.6008, 1822.334
972.0829, 1870.580
972.5650, 1917.355
973.0471, 1952.240
973.5292, 1974.719
974.0114, 1986.497
974.4935, 1982.924
974.9756, 1971.492
975.4577, 1954.304
975.9398, 1931.268
976.4219, 1902.183
976.9041, 1864.939
977.3862, 1816.340
977.8683, 1757.852
978.3504, 1699.309
978.8325, 1643.758
979.3146, 1585.553
979.7968, 1510.494
980.2789, 1447.590
980.7610, 1424.365
981.2431, 1421.167
981.7252, 1406.073
982.2073, 1373.064
982.6895, 1343.641
983.1716, 1325.542
983.6537, 1310.612
984.1358, 1297.275
984.6179, 1284.810
985.1000, 1270.477
985.5822, 1257.351
986.0643, 1251.772
986.5464, 1254.917
987.0285, 1256.754
987.5106, 1249.397
987.9927, 1245.840
988.4749, 1253.478
988.9570, 1265.268
989.4391, 1270.628
989.9212, 1276.701
990.4033, 1299.859
990.8854, 1344.074
991.3676, 1392.249
991.8497, 1442.925
992.3318, 1489.341
992.8139, 1518.226
993.2960, 1549.887
993.7781, 1604.893
994.2603, 1677.742
994.7424, 1756.235
995.2245, 1838.131
995.7066, 1908.026
996.1887, 1952.384
996.6708, 1990.184
997.1530, 2032.251
997.6351, 2072.320
998.1172, 2105.391
998.5993, 2130.826
999.0814, 2150.226
999.5635, 2164.599
1000.046, 2167.657
1000.528, 2151.760
1001.010, 2129.389
1001.492, 2113.675
1001.974, 2090.927
1002.456, 2041.657
1002.938, 1972.524
1003.420, 1908.353
1003.903, 1858.219
1004.385, 1798.235
1004.867, 1712.412
1005.349, 1620.129
1005.831, 1531.554
1006.313, 1444.376
1006.795, 1357.131
1007.277, 1268.406
1007.759, 1175.306
1008.242, 1075.589
1008.724, 979.9491
1009.206, 893.7910
1009.688, 814.5903
1010.170, 737.5085
1010.652, 669.7155
1011.134, 621.9894
1011.616, 588.8448
1012.099, 550.3019
1012.581, 498.1027
1013.063, 452.3942
1013.545, 426.4865
1014.027, 404.0184
1014.509, 373.6760
1014.991, 343.0226
1015.473, 322.7186
1015.955, 310.1870
1016.438, 292.1366
1016.920, 262.3125
1017.402, 239.3224
1017.884, 231.8895
1018.366, 231.4879
1018.848, 238.6041
1019.330, 246.4875
1019.812, 248.7972
1020.294, 245.8857
1020.777, 240.4477
1021.259, 231.8455
1021.741, 226.2175
1022.223, 233.3131
1022.705, 234.4426
1023.187, 214.2767
1023.669, 188.9799
1024.151, 175.4878
1024.634, 170.7183
1025.116, 160.6002
1025.598, 140.4793
1026.080, 122.4744
1026.562, 109.6611
1027.044, 99.22998
1027.526, 91.37860
1028.008, 84.18683
1028.490, 76.26208
1028.973, 67.57910
1029.455, 59.37622
1029.937, 53.87427
1030.419, 40.95630
1030.901, 3.761719
1031.383, 21.41577
1031.865, 9.518250
1032.347, 7.985779
1032.830, 2.109314
1033.312, 18.83313
1033.794, 29.34668
1034.276, 24.26843
1034.758, 20.73328
1035.240, 25.04956
1035.722, 24.58087
1036.204, 8.658142
1036.687, 6.109192
1037.169, 7.272156
1037.651, 1.932495
1038.133, 16.16937
1038.615, 41.85547
1039.097, 46.16473
1039.579, 6.482605
1040.061, 20.09100
1040.543, 13.68158
1041.026, 2.952209
1041.508, 7.461914
1041.990, 19.91339
1042.472, 24.97980
1042.954, 21.27716
1043.436, 19.31793
1043.918, 17.85620
1044.400, 21.07855
1044.882, 32.69293
1045.365, 43.82721
1045.847, 47.92920
1046.329, 49.37982
1046.811, 55.59088
1047.293, 66.58154
1047.775, 82.31873
1048.257, 104.5130
1048.739, 126.8100
1049.222, 149.4222
1049.704, 169.1179
1050.186, 184.4695
1050.668, 195.0957
1051.150, 199.1288
1051.632, 197.3835
1052.114, 202.8911
1052.596, 217.3416
1053.078, 227.2051
1053.561, 230.5449
1054.043, 230.8141
1054.525, 229.4724
1055.007, 226.5920
1055.489, 222.6940
1055.971, 216.9913
1056.453, 204.3829
1056.935, 184.9703
1057.417, 169.2148
1057.900, 158.1140
1058.382, 138.7034
1058.864, 105.1353
1059.346, 74.08551
1059.828, 64.21405
1060.310, 66.04816
1060.792, 53.42413
1061.274, 29.58228
1061.757, 11.79413
1062.239, 0.7884520
1062.721, 7.989136
1063.203, 15.89807
1063.685, 19.42426
1064.167, 14.87317
1064.649, 7.198059
1065.131, 7.440063
1065.614, 10.09149
1066.096, 4.609436
1066.578, 29.19415
1067.060, 32.46094
1067.542, 10.99243
1068.024, 5.453369
1068.506, 2.455383
1068.988, 17.04474
1069.470, 17.89020
1069.953, 13.28436
1070.435, 16.48627
1070.917, 22.95782
1071.399, 18.90887
1071.881, 7.145813
1072.363, 8.124268
1072.845, 32.25671
1073.327, 58.98779
1073.809, 71.37750
1074.292, 81.25140
1074.774, 100.0301
1075.256, 121.8429
1075.738, 141.2232
1076.220, 156.0784
1076.702, 161.7640
1077.184, 156.2833
1077.666, 153.6847
1078.148, 164.3032
1078.631, 174.3873
1079.113, 177.3364
1079.595, 176.4630
1080.077, 173.1786
1080.559, 168.9474
1081.041, 165.6096
1081.523, 163.3851
1082.005, 161.9238
1082.488, 164.1751
1082.970, 162.9128
1083.452, 157.3218
1083.934, 147.0584
1084.416, 127.6271
1084.898, 105.8719
1085.380, 90.02679
1085.862, 80.22803
1086.344, 76.99377
1086.827, 88.90863
1087.309, 90.69452
1087.791, 76.51288
1088.273, 60.50104
1088.755, 43.77997
1089.237, 32.09241
1089.719, 36.65765
1090.201, 52.49176
1090.683, 59.63544
1091.166, 55.33582
1091.648, 49.80627
1092.130, 43.74213
1092.612, 37.93793
1093.094, 31.49805
1093.576, 28.58698
1094.058, 33.41968
1094.540, 42.52655
1095.023, 49.70691
1095.505, 54.94580
1095.987, 58.98584
1096.469, 62.42462
1096.951, 67.64221
1097.433, 77.18195
1097.915, 84.90637
1098.397, 87.88074
1098.880, 87.19238
1099.362, 82.29272
1099.844, 77.02710
1100.326, 82.39117
1100.808, 93.53436
1101.290, 97.37555
1101.772, 94.70404
1102.254, 92.05951
1102.736, 91.94287
1103.219, 96.57794
1103.701, 111.5015
1104.183, 124.0324
1104.665, 117.2514
1105.147, 103.1513
1105.629, 96.19080
1106.111, 94.50519
1106.593, 92.80481
1107.075, 90.18372
1107.558, 88.04144
1108.040, 86.61426
1108.522, 86.82568
1109.004, 92.88959
1109.486, 96.37549
1109.968, 91.11444
1110.450, 81.47833
1110.932, 68.95007
1111.415, 56.68286
1111.897, 52.89276
1112.379, 60.88257
1112.861, 66.08002
1113.343, 65.88794
1113.825, 63.84460
1114.307, 59.99860
1114.789, 55.31848
1115.271, 49.40222
1115.754, 43.38983
1116.236, 38.51050
1116.718, 34.98959
1117.200, 39.51001
1117.682, 57.08493
1118.164, 64.45709
1118.646, 56.49423
1119.128, 50.43155
1119.610, 53.55060
1120.093, 58.32443
1120.575, 57.67181
1121.057, 52.80655
1121.539, 46.86075
1122.021, 40.49615
1122.503, 35.42587
1122.985, 31.19482
1123.467, 26.76511
1123.950, 23.15912
1124.432, 23.21536
1124.914, 28.89056
1125.396, 35.15002
1125.878, 35.22458
1126.360, 32.04642
1126.842, 27.29669
1127.324, 22.09680
1127.807, 19.20483
1128.289, 18.95352
1128.771, 20.77939
1129.253, 24.08716
1129.735, 27.31879
1130.217, 30.93927
1130.699, 33.52222
1131.181, 31.72488
1131.663, 29.76181
1132.146, 32.17340
1132.628, 36.64871
1133.110, 39.90057
1133.592, 41.37610
1134.074, 41.19977
1134.556, 39.57254
1135.038, 35.88953
1135.520, 25.01364
1136.002, 18.65326
1136.485, 28.22144
1136.967, 36.78098
1137.449, 28.25681
1137.931, 10.62274
1138.413, 0.7077030
1138.895, 1.317139
1139.377, 4.024658
1139.859, 21.53442
1140.342, 28.88419
1140.824, 20.33295
1141.306, 11.91632
1141.788, 10.84433
1142.270, 14.77090
1142.752, 22.44687
1143.234, 30.57938
1143.716, 25.84772
1144.198, 10.72156
1144.681, 2.357269
1145.163, 1.515045
1145.645, 8.598938
1146.127, 22.12024
1146.609, 28.86407
1147.091, 19.45877
1147.573, 8.827576
1148.055, 17.91098
1148.537, 32.74683
1149.020, 33.59628
1149.502, 27.41852
1149.984, 26.23901
1150.466, 28.86212
1150.948, 28.52841
1151.430, 23.26608
1151.912, 13.72928
1152.394, 11.42413
1152.877, 24.38718
1153.359, 0.8512880
1153.841, 25.98215
1154.323, 20.28909
1154.805, 4.020325
1155.287, 5.721405
1155.769, 22.51138
1156.251, 27.59113
1156.734, 14.73911
1157.216, 6.338348
1157.698, 4.709229
1158.180, 2.419342
1158.662, 2.139984
1159.144, 8.239532
1159.626, 16.76080
1160.108, 22.93491
1160.590, 18.01794
1161.073, 4.715363
1161.555, 1.615326
1162.037, 7.473083
1162.519, 1.844910
1163.001, 15.70837
1163.483, 27.79364
1163.965, 28.78171
1164.447, 27.10580
1164.929, 29.33023
1165.412, 31.59988
1165.894, 28.75681
1166.376, 22.79922
1166.858, 12.97406
1167.340, 4.224701
1167.822, 7.906464
1168.304, 20.53760
1168.786, 26.47122
1169.269, 20.51175
1169.751, 16.55579
1170.233, 26.30179
1170.715, 31.60959
1171.197, 20.74200
1171.679, 7.909637
1172.161, 0.5065310
1172.643, 1.946625
1173.125, 1.036377
1173.608, 8.272858
1174.090, 12.74020
1174.572, 14.57809
1175.054, 12.23929
1175.536, 1.855011
1176.018, 0.2973330
1176.500, 13.59119
1176.982, 28.85278
1177.464, 38.67892
1177.947, 42.44217
1178.429, 37.60818
1178.911, 27.22409
1179.393, 22.34479
1179.875, 22.70346
1180.357, 29.94876
1180.839, 41.58862
1181.321, 46.14865
1181.804, 41.03424
1182.286, 34.46814
1182.768, 31.50558
1183.250, 29.46890
1183.732, 25.46765
1184.214, 21.76413
1184.696, 22.43423
1185.178, 23.12158
1185.661, 14.75937
1186.143, 2.773499
1186.625, 3.289856
1187.107, 20.00110
1187.589, 30.61151
1188.071, 22.75916
1188.553, 21.76782
1189.035, 39.09354
1189.517, 51.51886
1190.000, 47.79257
1190.482, 39.85638
1190.964, 39.04922
1191.446, 42.64560
1191.928, 42.72638
1192.410, 39.25055
1192.892, 36.52054
1193.374, 34.54483
1193.856, 33.17102
1194.339, 32.35498
1194.821, 31.89389
1195.303, 31.69070
1195.785, 30.52466
1196.267, 26.89255
1196.749, 22.46780
1197.231, 18.07895
1197.713, 15.70560
1198.196, 20.03821
1198.678, 27.13776
1199.160, 30.68924
1199.642, 29.90469
1200.124, 25.60791
1200.606, 17.16653
1201.088, 11.06036
1201.570, 10.42795
1202.052, 10.55115
1202.535, 10.21191
1203.017, 10.61157
1203.499, 13.83829
1203.981, 16.70728
1204.463, 14.45996
1204.945, 8.673187
1205.427, 8.346222
1205.909, 14.36716
1206.391, 15.64276
1206.874, 11.72073
1207.356, 9.221039
1207.838, 6.986725
1208.320, 13.06760
1208.802, 26.64828
1209.284, 38.20728
1209.766, 35.74146
1210.248, 26.21301
1210.731, 19.24097
1211.213, 12.66971
1211.695, 5.433594
1212.177, 1.860687
1212.659, 1.708405
1213.141, 5.691895
1213.623, 8.471344
1214.105, 7.983673
1214.588, 8.913696
1215.070, 14.43176
1215.552, 18.94498
1216.034, 22.91476
1216.516, 22.16925
1216.998, 10.03809
1217.480, 3.341309
1217.962, 3.668579
1218.444, 7.120728
1218.927, 15.15234
1219.409, 20.07095
1219.891, 20.85046
1220.373, 17.19464
1220.855, 17.42090
1221.337, 22.91772
1221.819, 26.60837
1222.301, 24.62668
1222.783, 20.63474
1223.266, 18.38663
1223.748, 16.25348
1224.230, 9.763519
1224.712, 3.929138
1225.194, 10.42184
1225.676, 20.74960
1226.158, 18.13464
1226.640, 4.571533
1227.122, 1.275299
1227.605, 6.432129
1228.087, 15.77316
1228.569, 29.15747
1229.051, 37.11145
1229.533, 37.48834
1230.015, 32.78641
1230.497, 21.76953
1230.979, 11.52701
1231.462, 10.36319
1231.944, 15.27841
1232.426, 18.51535
1232.908, 19.87024
1233.390, 15.22415
1233.872, 5.899567
1234.354, 3.5399999E-03
1234.836, 1.135315
1235.318, 0.8999630
1235.801, 5.710907
1236.283, 10.28268
1236.765, 12.73441
1237.247, 13.43066
1237.729, 11.43613
1238.211, 9.471436
1238.693, 8.183533
1239.175, 8.862152
1239.657, 14.89032
1240.140, 23.05206
1240.622, 24.24329
1241.104, 17.78262
1241.586, 14.57697
1242.068, 16.68417
1242.550, 14.48151
1243.032, 5.455933
1243.514, 0.7900090
1243.997, 4.964294
1244.479, 10.83734
1244.961, 12.01355
1245.443, 10.69308
1245.925, 6.714325
1246.407, 3.075317
1246.889, 7.791626
1247.371, 16.53394
1247.854, 23.04404
1248.336, 25.67816
1248.818, 21.39108
1249.300, 11.52490
1249.782, 5.141113
1250.264, 6.543091
1250.746, 7.941345
1251.228, 5.354004
1251.710, 5.382050
1252.193, 11.98294
1252.675, 19.17325
1253.157, 24.22897
1253.639, 26.14066
1254.121, 21.63046
1254.603, 12.65930
1255.085, 10.14005
1255.567, 13.33932
1256.049, 17.90353
1256.532, 22.39783
1257.014, 20.90381
1257.496, 13.26764
1257.978, 5.451019
1258.460, 3.5828002E-02
1258.942, 0.8656010
1259.424, 9.150055
1259.906, 18.30472
1260.389, 15.40601
1260.871, 3.531555
1261.353, 7.528839
1261.835, 10.17599
1262.317, 0.0000000E+00
##END=



