##NAMES=Babingtonite
##RRUFFID=R060093
##IDEAL CHEMISTRY=Ca_2_Fe^2+^Fe^3+^Si_5_O_14_(OH)
##LOCALITY=Iron Cap mine, Aravaipa District, Graham County, Arizona, USA
##OWNER=RRUFF
##SOURCE=University of Arizona Mineral Museum
##DESCRIPTION=Dark prismatic striated crystals
##STATUS=The identification of this mineral has been confirmed by X-ray diffraction and chemical analysis
##URL=rruff.info/R060093
##MEASURED CHEMISTRY=Ca_2.00_(Fe^2+^_0.54_Mn_0.46_)(Fe^3+^_0.96_Al_0.04_)Si_5.00_O_14_(OH)
119.7804, 0.0000000E+00
120.2625, 6.0210999E-02
120.7446, 1.8494001E-02
121.2267, 0.6907540
121.7089, 1.450600
122.1910, 2.448971
122.6731, 3.948536
123.1552, 5.139320
123.6373, 7.573662
124.1194, 9.748348
124.6016, 11.58384
125.0837, 13.12340
125.5658, 14.15812
126.0479, 14.40856
126.5300, 13.91112
127.0121, 13.32812
127.4943, 12.06287
127.9764, 10.06705
128.4585, 8.207157
128.9406, 6.620098
129.4227, 5.274605
129.9048, 4.168335
130.3869, 3.305569
130.8691, 2.656071
131.3512, 2.252472
131.8333, 1.936058
132.3154, 1.458309
132.7975, 0.8512610
133.2796, 0.2203140
133.7618, 0.1969300
134.2439, 0.4053570
134.7260, 0.4011040
135.2081, 0.1098250
135.6902, 0.4757000
136.1723, 1.142521
136.6545, 1.818737
137.1366, 2.392628
137.6187, 3.082397
138.1008, 4.157177
138.5829, 5.609375
139.0650, 7.344196
139.5472, 9.455711
140.0293, 11.52328
140.5114, 13.18378
140.9935, 14.25155
141.4756, 15.89064
141.9577, 18.44332
142.4399, 21.65289
142.9220, 24.38483
143.4041, 26.99983
143.8862, 28.61680
144.3683, 28.55882
144.8504, 26.42902
145.3326, 23.52236
145.8147, 19.72480
146.2968, 15.06697
146.7789, 11.24186
147.2610, 8.385609
147.7431, 6.185116
148.2253, 4.347710
148.7074, 2.913826
149.1895, 1.795837
149.6716, 1.038960
150.1537, 0.6643100
150.6358, 0.3982010
151.1180, 0.3498690
151.6001, 0.3612560
152.0822, 0.2697180
152.5643, 7.9350002E-02
153.0464, 0.3753620
153.5285, 0.5959550
154.0107, 0.7837030
154.4928, 0.7185550
154.9749, 0.2675510
155.4570, 0.4035990
155.9391, 1.082897
156.4212, 1.662193
156.9034, 2.322842
157.3855, 3.140163
157.8676, 4.152386
158.3497, 5.197361
158.8318, 6.255280
159.3139, 7.332878
159.7961, 8.448349
160.2782, 9.656799
160.7603, 10.86855
161.2424, 12.04345
161.7245, 13.17386
162.2066, 14.27455
162.6888, 15.38545
163.1709, 16.47261
163.6530, 17.46009
164.1351, 18.20603
164.6172, 18.91088
165.0993, 19.69177
165.5815, 20.53822
166.0636, 21.52066
166.5457, 22.63377
167.0278, 23.90383
167.5099, 25.41493
167.9921, 27.28028
168.4742, 29.36873
168.9563, 31.56225
169.4384, 33.81989
169.9205, 36.20211
170.4026, 38.78099
170.8848, 41.53873
171.3669, 44.35729
171.8490, 47.13672
172.3311, 49.94780
172.8132, 52.88042
173.2953, 56.02901
173.7775, 59.25536
174.2596, 62.72785
174.7417, 66.35998
175.2238, 69.38427
175.7059, 71.42280
176.1880, 72.44849
176.6702, 72.38484
177.1523, 71.15676
177.6344, 68.86594
178.1165, 65.45532
178.5986, 60.92182
179.0807, 55.81332
179.5629, 50.10405
180.0450, 44.07065
180.5271, 38.45850
181.0092, 33.43824
181.4913, 28.95616
181.9734, 25.00493
182.4556, 21.58509
182.9377, 18.63486
183.4198, 16.09894
183.9019, 13.98880
184.3840, 12.30222
184.8661, 11.08350
185.3483, 10.25608
185.8304, 9.629131
186.3125, 9.203808
186.7946, 8.952908
187.2767, 8.874680
187.7588, 8.961380
188.2409, 9.166897
188.7231, 9.447121
189.2052, 9.812138
189.6873, 10.32792
190.1694, 11.00282
190.6515, 11.78949
191.1336, 12.70502
191.6158, 13.72236
192.0979, 14.63595
192.5800, 15.42936
193.0621, 16.08385
193.5442, 16.42910
194.0263, 16.46400
194.5085, 16.24624
194.9906, 15.76456
195.4727, 15.01392
195.9548, 14.27872
196.4369, 13.63118
196.9190, 13.07861
197.4012, 12.75602
197.8833, 12.66520
198.3654, 12.79712
198.8475, 13.18625
199.3296, 13.85111
199.8117, 14.57541
200.2939, 15.22836
200.7760, 15.80288
201.2581, 16.57162
201.7402, 17.55608
202.2223, 18.69616
202.7044, 19.94273
203.1866, 21.31693
203.6687, 22.61737
204.1508, 23.66937
204.6329, 24.42664
205.1150, 25.49284
205.5971, 26.96371
206.0793, 28.63630
206.5614, 30.05997
207.0435, 31.11060
207.5256, 32.34489
208.0077, 34.00595
208.4898, 36.11871
208.9720, 38.52095
209.4541, 41.28005
209.9362, 44.26255
210.4183, 47.22003
210.9004, 50.14949
211.3825, 52.97407
211.8647, 55.77889
212.3468, 58.71996
212.8289, 61.11264
213.3110, 63.16295
213.7931, 64.48042
214.2752, 64.15462
214.7574, 61.91612
215.2395, 58.68818
215.7216, 54.68368
216.2037, 49.69850
216.6858, 44.81160
217.1679, 39.92723
217.6501, 35.18631
218.1322, 30.98201
218.6143, 27.29104
219.0964, 24.09615
219.5785, 21.48000
220.0606, 19.48933
220.5428, 17.83339
221.0249, 16.61790
221.5070, 15.69114
221.9891, 14.72106
222.4712, 13.63843
222.9533, 12.62099
223.4355, 11.73972
223.9176, 10.92556
224.3997, 10.40838
224.8818, 10.21862
225.3639, 10.30703
225.8460, 10.50595
226.3282, 10.58496
226.8103, 11.17403
227.2924, 12.75852
227.7745, 16.24152
228.2566, 18.24972
228.7387, 18.11366
229.2209, 16.78643
229.7030, 16.49714
230.1851, 17.64827
230.6672, 19.18450
231.1493, 20.74532
231.6314, 22.45360
232.1136, 23.89001
232.5957, 25.20847
233.0778, 26.19448
233.5599, 26.32048
234.0420, 25.35275
234.5241, 23.90633
235.0063, 22.17961
235.4884, 20.13154
235.9705, 17.96794
236.4526, 15.54264
236.9347, 13.04150
237.4168, 10.84013
237.8990, 9.016594
238.3811, 7.356777
238.8632, 5.797752
239.3453, 4.315521
239.8274, 3.001194
240.3095, 1.826828
240.7917, 0.8204730
241.2738, 5.2189000E-02
241.7559, 0.3937070
242.2380, 0.7318610
242.7201, 1.030907
243.2022, 1.300003
243.6844, 1.494022
244.1665, 1.577267
244.6486, 1.607265
245.1307, 1.696579
245.6128, 1.927822
246.0949, 2.079483
246.5771, 2.071819
247.0592, 1.871803
247.5413, 1.637001
248.0234, 1.341007
248.5055, 1.029991
248.9876, 0.7964440
249.4697, 0.7185780
249.9519, 0.5694500
250.4340, 0.2430380
250.9161, 0.3275260
251.3982, 0.6866950
251.8803, 0.6055150
252.3624, 0.4975430
252.8446, 1.011459
253.3267, 2.581890
253.8088, 3.913784
254.2909, 4.578953
254.7730, 4.468369
255.2551, 4.573048
255.7373, 4.952888
256.2194, 5.486847
256.7015, 6.001530
257.1836, 6.409641
257.6657, 6.999107
258.1479, 7.875225
258.6300, 9.045521
259.1121, 10.21447
259.5942, 11.35360
260.0763, 12.52411
260.5584, 13.82074
261.0406, 15.22094
261.5227, 16.76983
262.0048, 18.50647
262.4869, 20.41254
262.9690, 22.37629
263.4511, 24.44247
263.9333, 26.48043
264.4154, 28.39371
264.8975, 30.25472
265.3796, 31.82941
265.8617, 33.09222
266.3438, 34.03831
266.8260, 34.75117
267.3081, 35.31123
267.7902, 35.48235
268.2723, 35.02774
268.7544, 33.85804
269.2365, 32.36943
269.7187, 30.54892
270.2008, 28.44493
270.6829, 26.36856
271.1650, 24.25124
271.6471, 22.32569
272.1292, 20.84209
272.6114, 19.85281
273.0935, 18.96497
273.5756, 18.09404
274.0577, 17.31241
274.5398, 16.89227
275.0219, 16.89135
275.5041, 17.07712
275.9862, 17.28797
276.4683, 17.50443
276.9504, 17.92927
277.4325, 18.63772
277.9146, 19.51355
278.3968, 20.26501
278.8788, 20.87241
279.3610, 21.44708
279.8431, 22.09378
280.3252, 22.81715
280.8073, 23.33903
281.2894, 23.61911
281.7715, 23.73416
282.2537, 23.88194
282.7358, 24.09063
283.2179, 24.06327
283.7000, 23.62263
284.1821, 22.77639
284.6642, 21.76643
285.1464, 20.57951
285.6285, 19.26353
286.1106, 17.89657
286.5927, 16.47769
287.0748, 14.94878
287.5569, 13.21220
288.0391, 11.30435
288.5212, 9.519821
289.0033, 7.843716
289.4854, 6.310413
289.9675, 4.957710
290.4496, 3.780853
290.9318, 2.787182
291.4139, 2.027584
291.8960, 1.439610
292.3781, 0.7992940
292.8602, 8.7337002E-02
293.3423, 0.5330730
293.8245, 0.8939820
294.3066, 1.022198
294.7887, 1.034832
295.2708, 0.9193460
295.7529, 0.7401500
296.2350, 0.6491700
296.7172, 0.6460270
297.1993, 0.6283910
297.6814, 0.5227390
298.1635, 0.3350030
298.6456, 9.2730999E-02
299.1277, 0.1827700
299.6099, 0.4879420
300.0920, 0.8074490
300.5741, 1.148499
301.0562, 1.502968
301.5383, 1.853500
302.0204, 2.233864
302.5026, 2.682232
302.9847, 3.197689
303.4668, 3.791451
303.9489, 4.559101
304.4310, 5.456680
304.9131, 6.367176
305.3953, 7.090202
305.8774, 7.821854
306.3595, 8.831013
306.8416, 10.18872
307.3237, 11.63466
307.8058, 12.93324
308.2880, 14.15384
308.7701, 15.43576
309.2522, 16.89182
309.7343, 18.37406
310.2164, 19.81036
310.6985, 21.23181
311.1807, 22.44004
311.6628, 23.19210
312.1449, 23.67591
312.6270, 24.15311
313.1091, 24.76020
313.5912, 25.37959
314.0734, 25.94035
314.5555, 26.43820
315.0376, 26.92819
315.5197, 27.35406
316.0018, 27.82238
316.4839, 28.43211
316.9661, 29.36002
317.4482, 30.30508
317.9303, 31.08149
318.4124, 31.72536
318.8945, 32.50301
319.3766, 33.60225
319.8588, 34.81950
320.3409, 35.99924
320.8230, 37.15855
321.3051, 38.22386
321.7872, 39.08294
322.2693, 39.81630
322.7515, 40.67060
323.2336, 41.86216
323.7157, 43.06997
324.1978, 44.13263
324.6799, 44.92444
325.1620, 45.75949
325.6442, 46.67616
326.1263, 47.66252
326.6084, 48.69732
327.0905, 49.78953
327.5726, 50.92013
328.0547, 52.15487
328.5369, 53.62545
329.0190, 54.73262
329.5011, 55.31260
329.9832, 55.59286
330.4653, 55.83433
330.9474, 56.35004
331.4296, 56.43957
331.9117, 55.89750
332.3938, 54.70003
332.8759, 53.42669
333.3580, 52.09312
333.8401, 50.65404
334.3223, 49.07312
334.8044, 47.24002
335.2865, 45.45193
335.7686, 43.72341
336.2507, 42.06181
336.7328, 40.60160
337.2150, 39.33451
337.6971, 38.25621
338.1792, 37.40393
338.6613, 36.87915
339.1434, 36.19081
339.6255, 35.26013
340.1077, 34.19156
340.5898, 33.18086
341.0719, 32.24708
341.5540, 31.36779
342.0361, 30.55903
342.5182, 29.82025
343.0004, 29.02120
343.4825, 28.08500
343.9646, 27.28835
344.4467, 27.09891
344.9288, 27.52102
345.4109, 28.07672
345.8931, 28.56116
346.3752, 29.04626
346.8573, 29.80401
347.3394, 30.84597
347.8215, 32.11702
348.3036, 33.69094
348.7858, 35.49325
349.2679, 37.18394
349.7500, 38.72598
350.2321, 40.05593
350.7142, 41.03192
351.1964, 41.64645
351.6785, 41.97100
352.1606, 42.16775
352.6427, 42.10333
353.1248, 41.47253
353.6069, 40.13219
354.0891, 38.45708
354.5712, 36.80974
355.0533, 35.14966
355.5354, 33.33797
356.0175, 31.00862
356.4996, 28.66587
356.9818, 26.80247
357.4639, 25.46892
357.9460, 24.46940
358.4281, 23.75307
358.9102, 23.24489
359.3923, 22.86410
359.8745, 22.58305
360.3566, 22.43722
360.8387, 22.45689
361.3208, 22.64909
361.8029, 22.95229
362.2850, 23.43308
362.7672, 23.95955
363.2493, 24.42186
363.7314, 24.74811
364.2135, 25.06131
364.6956, 25.47649
365.1777, 25.92180
365.6599, 26.16737
366.1420, 25.94937
366.6241, 25.67794
367.1062, 25.56799
367.5883, 25.75656
368.0704, 25.84293
368.5526, 25.66427
369.0347, 25.38495
369.5168, 25.25678
369.9989, 25.64718
370.4810, 25.81413
370.9631, 25.51637
371.4453, 24.67285
371.9274, 23.99898
372.4095, 23.63972
372.8916, 23.33512
373.3737, 22.84061
373.8558, 21.99722
374.3380, 21.28214
374.8201, 20.78056
375.3022, 20.45574
375.7843, 20.11601
376.2664, 19.74500
376.7485, 19.38710
377.2307, 19.06955
377.7128, 18.79422
378.1949, 18.52859
378.6770, 18.25011
379.1591, 18.01476
379.6412, 17.95551
380.1234, 18.08653
380.6055, 18.25589
381.0876, 18.39589
381.5697, 18.51582
382.0518, 18.69104
382.5339, 18.92818
383.0161, 19.17736
383.4982, 19.37137
383.9803, 19.52246
384.4624, 19.70554
384.9445, 20.00562
385.4266, 20.28855
385.9088, 20.32932
386.3909, 20.13209
386.8730, 19.75977
387.3551, 19.17130
387.8372, 18.45194
388.3193, 17.75168
388.8015, 17.11020
389.2836, 16.44847
389.7657, 15.65166
390.2478, 14.77206
390.7299, 13.95140
391.2120, 13.23759
391.6942, 12.62380
392.1763, 12.10550
392.6584, 11.68652
393.1405, 11.38936
393.6226, 11.29066
394.1047, 11.29926
394.5869, 11.32110
395.0690, 11.34982
395.5511, 11.37105
396.0332, 11.33969
396.5153, 11.27074
396.9974, 11.27370
397.4796, 11.40604
397.9617, 11.59604
398.4438, 11.82103
398.9259, 12.16513
399.4080, 12.39574
399.8901, 12.47431
400.3723, 12.42320
400.8544, 12.29555
401.3365, 12.11976
401.8186, 11.84942
402.3007, 11.48252
402.7828, 11.02440
403.2649, 10.37223
403.7470, 9.455765
404.2292, 8.409420
404.7113, 7.353043
405.1934, 6.255051
405.6755, 5.213757
406.1576, 4.247856
406.6397, 3.357841
407.1219, 2.568020
407.6040, 1.895683
408.0861, 1.254654
408.5682, 0.5659520
409.0503, 0.1560130
409.5324, 0.7641600
410.0146, 1.244991
410.4967, 1.633938
410.9788, 1.989714
411.4609, 2.303827
411.9430, 2.526672
412.4251, 2.617882
412.9073, 2.610975
413.3894, 2.589376
413.8715, 2.552170
414.3536, 2.467562
414.8357, 2.327578
415.3178, 2.118536
415.8000, 1.803108
416.2821, 1.328461
416.7642, 0.8266410
417.2463, 0.4913640
417.7284, 0.2359470
418.2105, 0.1604800
418.6927, 0.9143220
419.1748, 1.786366
419.6569, 2.620010
420.1390, 3.407021
420.6211, 4.141094
421.1032, 4.614098
421.5854, 5.127949
422.0675, 6.006512
422.5496, 7.934689
423.0317, 9.626244
423.5138, 10.49380
423.9959, 10.69331
424.4781, 11.29112
424.9602, 12.73587
425.4423, 14.38746
425.9244, 15.95119
426.4065, 17.29905
426.8886, 18.75965
427.3708, 20.30806
427.8529, 21.99047
428.3350, 23.91060
428.8171, 26.20744
429.2992, 28.48649
429.7813, 30.64314
430.2635, 32.67224
430.7456, 34.73649
431.2277, 36.87657
431.7098, 38.93428
432.1919, 40.80941
432.6740, 42.50805
433.1562, 43.97540
433.6383, 45.25142
434.1204, 46.22589
434.6025, 46.70555
435.0846, 46.69062
435.5667, 46.17090
436.0489, 45.06782
436.5310, 43.44358
437.0131, 41.49095
437.4952, 39.20365
437.9773, 36.64271
438.4594, 33.75929
438.9416, 30.65306
439.4237, 27.51202
439.9058, 24.25291
440.3879, 21.15563
440.8700, 18.44243
441.3521, 16.08211
441.8343, 13.96539
442.3164, 12.06827
442.7985, 10.36774
443.2806, 8.831470
443.7627, 7.458403
444.2448, 6.299271
444.7270, 5.486397
445.2091, 4.873013
445.6912, 4.290802
446.1733, 3.675880
446.6554, 3.108276
447.1375, 2.631306
447.6197, 2.235363
448.1018, 1.834780
448.5839, 1.340487
449.0660, 0.9132480
449.5481, 0.6426320
450.0302, 0.6222020
450.5124, 0.5609630
450.9945, 0.4488810
451.4766, 0.3046170
451.9587, 0.1467650
452.4408, 5.1934998E-02
452.9229, 0.1874980
453.4051, 0.2221810
453.8872, 0.1663130
454.3693, 0.1001930
454.8514, 1.7302001E-02
455.3335, 4.8677001E-02
455.8156, 5.3226002E-02
456.2978, 5.3519998E-03
456.7799, 2.6440001E-03
457.2620, 7.5057998E-02
457.7441, 0.1508920
458.2262, 9.8003000E-02
458.7083, 5.5803001E-02
459.1905, 0.1861210
459.6726, 0.2331200
460.1547, 0.2184510
460.6368, 0.1567330
461.1189, 5.0030001E-02
461.6010, 5.8518998E-02
462.0832, 0.1049420
462.5653, 0.1498620
463.0474, 0.2601390
463.5295, 0.4528960
464.0116, 0.7169280
464.4937, 1.086407
464.9759, 1.521948
465.4580, 1.932083
465.9401, 2.212486
466.4222, 2.530197
466.9043, 2.937357
467.3864, 3.430542
467.8686, 3.930040
468.3507, 4.419462
468.8328, 4.928814
469.3149, 5.481630
469.7970, 6.114534
470.2791, 6.750767
470.7613, 7.381552
471.2434, 8.016787
471.7255, 8.687531
472.2076, 9.416172
472.6897, 10.13735
473.1718, 10.83076
473.6540, 11.49951
474.1361, 12.28084
474.6182, 13.21139
475.1003, 14.11976
475.5824, 14.80194
476.0645, 15.29342
476.5467, 15.82541
477.0288, 16.49905
477.5109, 17.13066
477.9930, 17.34886
478.4751, 17.22731
478.9572, 17.11560
479.4394, 17.30497
479.9215, 17.57236
480.4036, 17.66034
480.8857, 17.55585
481.3678, 17.26698
481.8499, 16.63013
482.3321, 15.87540
482.8142, 15.27131
483.2963, 14.97586
483.7784, 14.72247
484.2605, 14.43046
484.7426, 14.10544
485.2248, 13.76262
485.7069, 13.33661
486.1890, 12.96149
486.6711, 12.66078
487.1532, 12.41490
487.6353, 12.36921
488.1175, 12.57501
488.5996, 12.93694
489.0817, 13.38841
489.5638, 13.93742
490.0459, 14.53276
490.5280, 15.12276
491.0102, 15.78345
491.4923, 16.77079
491.9744, 18.15288
492.4565, 19.54995
492.9386, 20.80330
493.4207, 21.94605
493.9029, 23.15414
494.3850, 24.43918
494.8671, 25.76980
495.3492, 27.23959
495.8313, 28.75031
496.3134, 30.05299
496.7956, 31.10908
497.2777, 31.90809
497.7598, 32.44663
498.2419, 32.71260
498.7240, 32.66033
499.2061, 32.17288
499.6883, 31.43149
500.1704, 30.58659
500.6525, 29.64072
501.1346, 28.44273
501.6167, 26.84656
502.0988, 25.01324
502.5810, 23.04969
503.0631, 20.79535
503.5452, 18.63996
504.0273, 16.61912
504.5094, 14.73480
504.9915, 13.05741
505.4737, 11.71152
505.9558, 10.38224
506.4379, 8.941086
506.9200, 7.411001
507.4021, 6.250496
507.8842, 5.538757
508.3664, 4.981005
508.8485, 4.368401
509.3306, 3.696960
509.8127, 3.066040
510.2948, 2.472458
510.7769, 1.935377
511.2591, 1.497463
511.7412, 1.157967
512.2233, 0.8947680
512.7054, 0.7280980
513.1875, 0.6066020
513.6696, 0.4251900
514.1517, 0.2010520
514.6339, 4.9598999E-02
515.1160, 8.3821997E-02
515.5981, 0.2079830
516.0802, 0.3334790
516.5623, 0.4448340
517.0444, 0.5407510
517.5266, 0.5889070
518.0087, 0.6449600
518.4908, 0.7683320
518.9729, 0.9243490
519.4550, 1.209169
519.9371, 1.696602
520.4193, 2.342117
520.9014, 2.936285
521.3835, 3.474838
521.8656, 3.966312
522.3477, 4.385902
522.8298, 4.708324
523.3120, 5.185457
523.7941, 5.855984
524.2762, 6.582632
524.7583, 7.233042
525.2404, 7.807243
525.7225, 8.371681
526.2047, 8.937246
526.6868, 9.503912
527.1689, 10.04623
527.6510, 10.57586
528.1331, 11.17628
528.6152, 11.96218
529.0974, 12.81044
529.5795, 13.53237
530.0616, 14.14200
530.5437, 14.77800
531.0258, 15.58815
531.5079, 16.44347
531.9901, 17.24508
532.4722, 17.97873
532.9543, 18.64849
533.4364, 19.21243
533.9185, 19.73115
534.4006, 20.29688
534.8828, 21.01592
535.3649, 21.68228
535.8470, 22.27086
536.3291, 22.77946
536.8112, 23.15227
537.2933, 23.41183
537.7755, 23.49791
538.2576, 23.33010
538.7397, 22.85699
539.2218, 22.55020
539.7039, 22.46213
540.1860, 22.40692
540.6682, 22.16901
541.1503, 21.76608
541.6324, 21.37332
542.1145, 21.02520
542.5966, 20.71127
543.0787, 20.45456
543.5609, 20.22902
544.0430, 19.93714
544.5251, 19.52846
545.0072, 19.03506
545.4893, 18.48747
545.9714, 17.88523
546.4536, 17.22128
546.9357, 16.48098
547.4178, 15.68284
547.8999, 14.82482
548.3820, 13.83869
548.8641, 12.95002
549.3463, 12.21219
549.8284, 11.59060
550.3105, 11.03748
550.7926, 10.49901
551.2747, 10.10202
551.7568, 9.880524
552.2390, 9.803787
552.7211, 9.759901
553.2032, 9.785070
553.6853, 9.740829
554.1674, 9.505367
554.6495, 9.101112
555.1317, 8.897991
555.6138, 8.919823
556.0959, 8.992907
556.5780, 8.922871
557.0601, 8.772850
557.5422, 8.718906
558.0244, 8.806892
558.5065, 8.975845
558.9886, 9.180620
559.4707, 9.419334
559.9528, 9.686293
560.4349, 9.921412
560.9171, 10.24134
561.3992, 10.76300
561.8813, 11.45749
562.3634, 12.09893
562.8455, 12.52303
563.3276, 12.96857
563.8098, 13.55422
564.2919, 14.28662
564.7740, 15.13295
565.2561, 16.15164
565.7382, 17.22464
566.2203, 18.23889
566.7025, 19.16887
567.1846, 20.18036
567.6667, 21.33063
568.1488, 22.55010
568.6309, 23.63056
569.1130, 24.59188
569.5952, 25.67528
570.0773, 27.02975
570.5594, 28.55692
571.0415, 30.18690
571.5236, 31.90992
572.0057, 33.55480
572.4879, 35.02855
572.9700, 36.37563
573.4521, 37.62135
573.9342, 38.76321
574.4163, 39.90713
574.8984, 41.27404
575.3806, 42.58691
575.8627, 43.57843
576.3448, 44.17534
576.8269, 44.45214
577.3090, 44.39897
577.7911, 44.04238
578.2733, 43.41270
578.7554, 42.48287
579.2375, 41.35112
579.7196, 40.03855
580.2017, 38.53979
580.6838, 36.91912
581.1660, 35.18713
581.6481, 33.31054
582.1302, 31.20455
582.6123, 28.92717
583.0944, 26.75039
583.5765, 24.68519
584.0587, 22.75566
584.5408, 21.07899
585.0229, 19.56215
585.5050, 18.03584
585.9871, 16.36830
586.4692, 14.80504
586.9514, 13.50446
587.4335, 12.39547
587.9156, 11.36045
588.3977, 10.31689
588.8798, 9.384876
589.3619, 8.645163
589.8441, 8.096405
590.3262, 7.506342
590.8083, 6.829500
591.2904, 6.179228
591.7725, 5.618820
592.2546, 5.163317
592.7368, 4.702063
593.2189, 4.222431
593.7010, 3.769608
594.1831, 3.397478
594.6652, 3.105827
595.1473, 2.840940
595.6295, 2.599964
596.1116, 2.365971
596.5937, 2.108217
597.0758, 1.838421
597.5579, 1.585171
598.0400, 1.386318
598.5222, 1.196157
599.0043, 0.9693580
599.4864, 0.7182710
599.9685, 0.5038720
600.4506, 0.3715460
600.9327, 0.2654900
601.4149, 0.1592790
601.8970, 4.9658000E-02
602.3791, 4.9943998E-02
602.8612, 0.1472110
603.3433, 0.2284410
603.8254, 0.2717840
604.3076, 0.2556690
604.7897, 0.2965220
605.2718, 0.4204920
605.7539, 0.5718460
606.2360, 0.6489140
606.7181, 0.6601790
607.2003, 0.6868920
607.6824, 0.7779430
608.1645, 0.8698750
608.6466, 0.8454610
609.1287, 0.7285230
609.6108, 0.6089120
610.0930, 0.5199550
610.5751, 0.4604890
611.0572, 0.4393880
611.5393, 0.4555990
612.0214, 0.4694330
612.5035, 0.4722940
612.9857, 0.4653170
613.4678, 0.4522000
613.9499, 0.4452480
614.4320, 0.3986320
614.9141, 0.2770500
615.3962, 0.1480430
615.8784, 9.6754000E-02
616.3605, 0.1524070
616.8426, 0.1444910
617.3247, 3.1376000E-02
617.8068, 0.1303160
618.2889, 0.2364010
618.7711, 0.2899480
619.2532, 0.3081820
619.7353, 0.2671910
620.2174, 0.2182560
620.6995, 0.2562290
621.1816, 0.3626840
621.6638, 0.4460560
622.1459, 0.4155100
622.6280, 0.3728470
623.1101, 0.4016440
623.5922, 0.5158810
624.0743, 0.6104810
624.5565, 0.6671180
625.0386, 0.6874500
625.5207, 0.6698490
626.0028, 0.5881480
626.4849, 0.5199620
626.9670, 0.4425050
627.4492, 0.4020500
627.9313, 0.4783780
628.4134, 0.6873250
628.8955, 0.8661610
629.3776, 0.9749680
629.8597, 1.046272
630.3419, 1.130470
630.8240, 1.228182
631.3061, 1.342773
631.7882, 1.481628
632.2703, 1.634319
632.7524, 1.800865
633.2346, 1.974928
633.7167, 2.130911
634.1988, 2.201630
634.6809, 2.292830
635.1630, 2.482372
635.6451, 2.797607
636.1273, 3.075125
636.6094, 3.228123
637.0915, 3.396894
637.5736, 3.678082
638.0557, 4.128750
638.5378, 4.515894
639.0200, 4.817511
639.5021, 5.092926
639.9842, 5.406252
640.4663, 5.755947
640.9484, 6.172741
641.4305, 6.675463
641.9127, 7.216808
642.3948, 7.706392
642.8769, 8.178320
643.3590, 8.740360
643.8411, 9.480145
644.3232, 10.29445
644.8054, 11.14094
645.2875, 12.00412
645.7696, 12.88933
646.2517, 13.78260
646.7338, 14.70185
647.2159, 15.63147
647.6981, 16.57021
648.1802, 17.61118
648.6623, 18.82067
649.1444, 20.04997
649.6265, 21.19659
650.1086, 22.26093
650.5908, 23.39469
651.0729, 24.62224
651.5550, 25.88653
652.0371, 27.15318
652.5192, 28.42057
653.0013, 29.59195
653.4835, 30.58682
653.9656, 31.66284
654.4477, 33.05089
654.9298, 34.66187
655.4119, 36.36898
655.8940, 38.15432
656.3762, 39.98786
656.8583, 41.86555
657.3404, 43.76916
657.8225, 45.65759
658.3046, 47.55536
658.7867, 49.37724
659.2689, 51.10587
659.7510, 52.73719
660.2331, 54.27071
660.7152, 55.72802
661.1973, 56.95901
661.6794, 57.89357
662.1616, 58.53107
662.6437, 58.89400
663.1258, 58.98082
663.6079, 58.63541
664.0900, 57.69497
664.5721, 56.27826
665.0543, 54.46731
665.5364, 52.21287
666.0185, 49.80579
666.5006, 47.40547
666.9827, 44.92033
667.4648, 42.24896
667.9470, 39.01229
668.4291, 36.06738
668.9112, 33.48216
669.3933, 31.14604
669.8754, 28.89419
670.3575, 26.69275
670.8397, 24.69551
671.3218, 22.95726
671.8039, 21.42897
672.2860, 20.00830
672.7681, 18.71896
673.2502, 17.53067
673.7324, 16.41871
674.2145, 15.39279
674.6966, 14.53262
675.1787, 13.81400
675.6608, 13.08535
676.1429, 12.20180
676.6251, 11.34394
677.1072, 10.61320
677.5893, 10.03113
678.0714, 9.473255
678.5535, 8.966326
679.0356, 8.445187
679.5178, 7.852455
679.9999, 7.142021
680.4820, 6.574368
680.9641, 6.170519
681.4462, 5.824104
681.9283, 5.393103
682.4105, 4.908688
682.8926, 4.520212
683.3747, 4.269899
683.8568, 4.049566
684.3389, 3.745890
684.8210, 3.397453
685.3032, 3.058142
685.7853, 2.736027
686.2674, 2.447222
686.7495, 2.204493
687.2316, 1.995369
687.7137, 1.787455
688.1959, 1.549007
688.6780, 1.358450
689.1601, 1.241116
689.6422, 1.180141
690.1243, 1.118248
690.6064, 1.058540
691.0886, 0.9641170
691.5707, 0.7772900
692.0528, 0.5582370
692.5349, 0.4828530
693.0170, 0.5342040
693.4991, 0.5604420
693.9813, 0.4128250
694.4634, 0.2268770
694.9455, 0.1370510
695.4276, 0.1583420
695.9097, 0.1677780
696.3918, 0.1020850
696.8740, 2.9213000E-02
697.3561, 6.8819998E-03
697.8382, 8.9339996E-03
698.3203, 1.3729000E-02
698.8024, 4.2299999E-04
699.2845, 1.3815000E-02
699.7667, 1.0769000E-02
700.2488, 9.1129998E-03
700.7309, 2.8259000E-02
701.2130, 4.6022002E-02
701.6951, 5.6958999E-02
702.1772, 4.8376001E-02
702.6594, 2.8608000E-02
703.1415, 1.6275000E-02
703.6236, 1.8061001E-02
704.1057, 2.6071999E-02
704.5878, 3.0665999E-02
705.0699, 3.9568000E-02
705.5521, 6.5063000E-02
706.0342, 0.1053850
706.5163, 0.1705420
706.9984, 0.2836480
707.4805, 0.4171390
707.9626, 0.4951100
708.4448, 0.4932440
708.9269, 0.5145470
709.4090, 0.5770340
709.8911, 0.6930100
710.3732, 0.9504030
710.8553, 1.331633
711.3374, 1.644205
711.8195, 1.693514
712.3016, 1.669210
712.7838, 1.798023
713.2659, 2.064009
713.7480, 2.327488
714.2301, 2.517860
714.7122, 2.692472
715.1943, 2.874372
715.6765, 3.061823
716.1586, 3.307568
716.6407, 3.660158
717.1228, 4.005825
717.6049, 4.258446
718.0870, 4.402597
718.5692, 4.644524
719.0513, 4.986473
719.5334, 5.410475
720.0155, 5.955860
720.4976, 6.563250
720.9797, 7.104856
721.4619, 7.548218
721.9440, 7.993067
722.4261, 8.469061
722.9082, 8.994196
723.3903, 9.600349
723.8724, 10.38236
724.3546, 11.08141
724.8367, 11.59791
725.3188, 12.04623
725.8009, 12.57678
726.2830, 13.25823
726.7651, 13.77983
727.2473, 14.09985
727.7294, 14.26545
728.2115, 14.37060
728.6936, 14.40231
729.1757, 14.28212
729.6578, 13.96210
730.1400, 13.51481
730.6221, 13.01505
731.1042, 12.44166
731.5863, 11.75934
732.0684, 10.88745
732.5505, 9.979404
733.0327, 9.064869
733.5148, 8.138874
733.9969, 7.235680
734.4790, 6.303360
734.9611, 5.526997
735.4432, 4.992435
735.9254, 4.644924
736.4075, 4.256550
736.8896, 3.827286
737.3717, 3.462078
737.8538, 3.264124
738.3359, 3.159317
738.8181, 3.054497
739.3002, 2.926504
739.7823, 2.725674
740.2644, 2.282574
740.7465, 1.896154
741.2286, 1.808207
741.7108, 2.052773
742.1929, 2.117283
742.6750, 1.812685
743.1571, 1.547518
743.6392, 1.536488
744.1213, 1.788359
744.6035, 1.943043
745.0856, 1.986509
745.5677, 2.003086
746.0498, 2.065811
746.5319, 2.161852
747.0140, 2.259998
747.4962, 2.345852
747.9783, 2.393618
748.4604, 2.335213
748.9425, 2.285414
749.4246, 2.353680
749.9067, 2.609360
750.3889, 2.802563
750.8710, 2.841543
751.3531, 2.858862
751.8352, 2.962257
752.3173, 3.179447
752.7994, 3.348892
753.2816, 3.456297
753.7637, 3.551256
754.2458, 3.707264
754.7279, 3.902811
755.2100, 4.053041
755.6921, 4.116045
756.1743, 4.200325
756.6564, 4.427662
757.1385, 4.717384
757.6206, 4.972342
758.1027, 5.197426
758.5848, 5.347727
759.0670, 5.382090
759.5491, 5.363283
760.0312, 5.357332
760.5133, 5.364563
760.9954, 5.392366
761.4775, 5.458952
761.9597, 5.516176
762.4418, 5.479204
762.9239, 5.361879
763.4060, 5.221531
763.8881, 5.073128
764.3702, 4.913309
764.8524, 4.741146
765.3345, 4.556816
765.8166, 4.363155
766.2987, 4.126347
766.7808, 3.917524
767.2629, 3.778383
767.7451, 3.670580
768.2272, 3.512609
768.7093, 3.290205
769.1914, 3.077372
769.6735, 2.893725
770.1556, 2.723477
770.6378, 2.501572
771.1199, 2.249447
771.6020, 2.079592
772.0841, 2.114595
772.5662, 2.176226
773.0483, 2.090924
773.5305, 1.904392
774.0126, 1.733542
774.4947, 1.601911
774.9768, 1.508713
775.4589, 1.472852
775.9410, 1.474954
776.4232, 1.450519
776.9053, 1.397173
777.3874, 1.321310
777.8695, 1.209726
778.3516, 1.087210
778.8337, 1.039600
779.3159, 1.052746
779.7980, 1.042875
780.2801, 0.9195710
780.7622, 0.7889420
781.2443, 0.7635650
781.7264, 0.8168580
782.2086, 0.8358630
782.6907, 0.7667790
783.1728, 0.6772980
783.6549, 0.5771900
784.1370, 0.4738480
784.6191, 0.4126320
785.1013, 0.4000030
785.5834, 0.4045330
786.0655, 0.4167730
786.5476, 0.4343660
787.0297, 0.4645940
787.5118, 0.5009020
787.9940, 0.4972990
788.4761, 0.4032730
788.9582, 0.2779160
789.4403, 0.1384660
789.9224, 4.1350001E-03
790.4045, 7.1699001E-02
790.8867, 4.4027001E-02
791.3688, 0.1407050
791.8509, 0.1384640
792.3330, 4.9191002E-02
792.8151, 4.4080000E-03
793.2972, 9.2320004E-03
793.7794, 2.4622001E-02
794.2615, 4.7579002E-02
794.7436, 6.0040001E-02
795.2257, 1.8600000E-02
795.7078, 0.1673010
796.1899, 0.2505000
796.6721, 0.1112250
797.1542, 5.6412000E-02
797.6363, 0.1148320
798.1184, 6.3020997E-02
798.6005, 3.0199001E-02
799.0826, 6.5369003E-02
799.5648, 7.4951001E-02
800.0469, 1.2028000E-02
800.5290, 0.1131880
801.0111, 0.1972290
801.4932, 0.2388290
801.9753, 0.2510640
802.4575, 0.2152670
802.9396, 0.1674350
803.4217, 0.1963880
803.9038, 0.2856580
804.3859, 0.3167740
804.8680, 0.1356300
805.3502, 3.8467001E-02
805.8323, 7.1406998E-02
806.3144, 4.7711998E-02
806.7965, 0.1311450
807.2786, 0.1701320
807.7607, 0.1872900
808.2429, 0.1884170
808.7250, 0.1756040
809.2071, 0.1555690
809.6892, 0.1289750
810.1713, 0.1162680
810.6534, 0.1295810
811.1356, 0.1645300
811.6177, 0.2405110
812.0998, 0.3455050
812.5819, 0.3980060
813.0640, 0.3274970
813.5461, 0.2344090
814.0283, 0.1582810
814.5104, 9.8224998E-02
814.9925, 4.1576002E-02
815.4746, 1.5188000E-02
815.9567, 5.8079001E-02
816.4388, 6.7616001E-02
816.9210, 6.1831001E-02
817.4031, 0.1112610
817.8852, 0.2079180
818.3673, 0.2926410
818.8494, 0.3191990
819.3315, 0.3276980
819.8137, 0.3507020
820.2958, 0.3852330
820.7779, 0.4014020
821.2600, 0.3715080
821.7421, 0.3469700
822.2242, 0.3427050
822.7064, 0.3560830
823.1885, 0.3725170
823.6706, 0.3919260
824.1527, 0.4142480
824.6348, 0.4564440
825.1169, 0.4909840
825.5991, 0.4326950
826.0812, 0.3161410
826.5633, 0.2705270
827.0454, 0.4085390
827.5275, 0.5845790
828.0096, 0.7708190
828.4918, 0.9440360
828.9739, 0.9996720
829.4560, 0.8454740
829.9381, 0.7786500
830.4202, 0.9327930
830.9023, 1.204750
831.3845, 1.249247
831.8666, 1.100035
832.3487, 1.018648
832.8308, 1.190403
833.3129, 1.429771
833.7950, 1.574863
834.2772, 1.648073
834.7593, 1.706728
835.2414, 1.722340
835.7235, 1.783028
836.2056, 1.914566
836.6877, 2.100006
837.1699, 2.301384
837.6520, 2.521219
838.1341, 2.714014
838.6162, 2.848486
839.0983, 2.982306
839.5804, 3.257717
840.0626, 3.614346
840.5447, 3.890715
841.0268, 3.891502
841.5089, 3.955080
841.9910, 4.305399
842.4731, 4.814871
842.9553, 5.234997
843.4374, 5.469288
843.9195, 5.794100
844.4016, 6.275137
844.8837, 6.822828
845.3658, 7.258053
845.8480, 7.604300
846.3301, 7.982374
846.8122, 8.403862
847.2943, 8.919512
847.7764, 9.641472
848.2585, 10.46699
848.7407, 11.25326
849.2228, 11.94201
849.7049, 12.60991
850.1870, 13.19838
850.6691, 13.82228
851.1512, 14.61915
851.6334, 15.60501
852.1155, 16.64017
852.5976, 17.70134
853.0797, 18.80905
853.5618, 20.02733
854.0439, 21.31033
854.5261, 22.58371
855.0082, 23.81012
855.4903, 25.05435
855.9724, 26.30629
856.4545, 27.61706
856.9366, 29.04113
857.4188, 30.60969
857.9009, 32.20749
858.3830, 33.82822
858.8651, 35.44186
859.3472, 37.02957
859.8293, 38.58729
860.3115, 40.09574
860.7936, 41.58122
861.2757, 43.11057
861.7578, 44.78151
862.2399, 46.48198
862.7220, 48.18606
863.2042, 49.89312
863.6863, 51.48935
864.1684, 52.86972
864.6505, 54.19761
865.1326, 55.53087
865.6147, 56.88633
866.0969, 58.34614
866.5790, 59.92023
867.0611, 61.21975
867.5432, 61.87401
868.0253, 62.18368
868.5074, 62.53714
868.9896, 62.93328
869.4717, 63.11573
869.9538, 63.07293
870.4359, 62.72267
870.9180, 62.03668
871.4001, 61.03360
871.8823, 59.91655
872.3644, 58.67587
872.8465, 57.39600
873.3286, 56.04298
873.8107, 54.71867
874.2928, 53.67616
874.7750, 52.80806
875.2571, 51.83747
875.7392, 50.46067
876.2213, 49.13102
876.7034, 48.04696
877.1855, 47.13676
877.6677, 46.23078
878.1498, 45.31690
878.6319, 44.44360
879.1140, 43.61221
879.5961, 42.84632
880.0782, 42.26883
880.5604, 41.78659
881.0425, 41.06997
881.5246, 39.96497
882.0067, 38.79671
882.4888, 37.77043
882.9709, 36.81686
883.4531, 35.84523
883.9352, 34.85188
884.4173, 33.81277
884.8994, 32.69987
885.3815, 31.58739
885.8636, 30.59018
886.3458, 29.68087
886.8279, 28.63347
887.3100, 27.42480
887.7921, 26.33540
888.2742, 25.65038
888.7563, 25.16635
889.2385, 24.69812
889.7206, 24.21277
890.2027, 23.80579
890.6848, 23.47159
891.1669, 23.24158
891.6490, 23.14926
892.1312, 23.18632
892.6133, 23.23584
893.0954, 23.29708
893.5775, 23.43299
894.0596, 23.76236
894.5417, 24.13417
895.0239, 24.37345
895.5060, 24.50381
895.9881, 24.65156
896.4702, 24.95825
896.9523, 25.17233
897.4344, 25.22980
897.9166, 25.14761
898.3987, 24.97222
898.8808, 24.69925
899.3629, 24.38221
899.8450, 24.02222
900.3271, 23.65092
900.8093, 23.33275
901.2914, 23.02964
901.7735, 22.66147
902.2556, 22.17930
902.7377, 21.65682
903.2198, 21.09840
903.7020, 20.52240
904.1841, 19.95179
904.6662, 19.40240
905.1483, 18.78737
905.6304, 18.08877
906.1125, 17.32849
906.5947, 16.50669
907.0768, 15.63404
907.5589, 14.75995
908.0410, 13.90767
908.5231, 12.95774
909.0052, 11.70022
909.4874, 10.46170
909.9695, 9.477909
910.4516, 8.791546
910.9337, 8.015650
911.4158, 7.140825
911.8979, 6.234932
912.3801, 5.277901
912.8622, 4.341562
913.3443, 3.632467
913.8264, 3.115427
914.3085, 2.622175
914.7906, 2.007624
915.2728, 1.450714
915.7549, 1.060984
916.2370, 0.8088130
916.7191, 0.5749800
917.2012, 0.3754770
917.6833, 0.1345010
918.1655, 0.1956270
918.6476, 0.5414260
919.1297, 0.7385120
919.6118, 0.8350140
920.0939, 0.9684350
920.5760, 1.256371
921.0582, 1.487539
921.5403, 1.517662
922.0224, 1.453718
922.5045, 1.447968
922.9866, 1.536270
923.4688, 1.600306
923.9509, 1.650143
924.4330, 1.627615
924.9151, 1.427225
925.3972, 1.111950
925.8793, 0.9038350
926.3615, 1.155899
926.8436, 0.9462260
927.3257, 0.7789340
927.8078, 0.6483290
928.2899, 0.8475820
928.7720, 0.4805760
929.2542, 0.2545200
929.7363, 2.4576001E-02
930.2184, 0.6469570
930.7005, 0.8116300
931.1826, 1.507490
931.6647, 1.865469
932.1469, 2.202774
932.6290, 2.562071
933.1111, 2.912907
933.5932, 3.349560
934.0753, 4.000328
934.5574, 4.771223
935.0396, 5.363224
935.5217, 5.679913
936.0038, 6.178232
936.4859, 7.010574
936.9680, 7.926498
937.4501, 8.535973
937.9323, 8.930500
938.4144, 9.294159
938.8965, 9.654099
939.3786, 10.06619
939.8607, 10.67497
940.3428, 11.26398
940.8250, 11.63520
941.3071, 11.75787
941.7892, 11.76999
942.2713, 11.64598
942.7534, 11.51447
943.2355, 11.48689
943.7177, 11.52125
944.1998, 11.42877
944.6819, 11.25385
945.1640, 11.39587
945.6461, 12.37004
946.1282, 13.39673
946.6104, 14.20901
947.0925, 14.77660
947.5746, 14.76229
948.0567, 13.94901
948.5388, 13.93369
949.0209, 15.52426
949.5031, 17.63736
949.9852, 18.71916
950.4673, 18.98531
950.9494, 18.83524
951.4315, 17.94836
951.9136, 17.42641
952.3958, 17.40331
952.8779, 18.04696
953.3600, 19.79124
953.8421, 22.92256
954.3242, 25.16226
954.8063, 26.38484
955.2885, 26.72444
955.7706, 25.73579
956.2527, 24.22783
956.7348, 23.31623
957.2169, 23.08561
957.6990, 22.89554
958.1811, 22.66780
958.6632, 22.27808
959.1453, 21.61007
959.6274, 20.74121
960.1096, 20.12307
960.5917, 19.75234
961.0738, 19.30855
961.5559, 18.56304
962.0380, 17.80260
962.5201, 17.31171
963.0023, 17.03747
963.4844, 16.87332
963.9665, 16.77207
964.4486, 16.82030
964.9307, 17.04818
965.4128, 17.39012
965.8950, 17.77769
966.3771, 18.20862
966.8592, 18.67093
967.3413, 19.15683
967.8234, 19.71926
968.3055, 20.21202
968.7877, 20.93005
969.2698, 22.35874
969.7519, 24.61176
970.2340, 26.04021
970.7161, 26.23471
971.1982, 26.32711
971.6804, 26.79692
972.1625, 27.49971
972.6446, 28.09713
973.1267, 28.54966
973.6088, 28.69075
974.0909, 28.35217
974.5731, 27.79326
975.0552, 27.12579
975.5373, 26.33326
976.0194, 25.36464
976.5015, 24.19981
976.9836, 22.91774
977.4658, 21.51925
977.9479, 20.08388
978.4300, 18.64999
978.9121, 17.28293
979.3942, 16.11847
979.8763, 15.18493
980.3585, 14.37254
980.8406, 13.62664
981.3227, 12.99733
981.8048, 12.50470
982.2869, 12.14929
982.7690, 11.91548
983.2512, 11.81398
983.7333, 11.77849
984.2154, 11.71544
984.6975, 11.75719
985.1796, 12.14450
985.6617, 12.73412
986.1439, 13.21212
986.6260, 13.32807
987.1081, 13.60161
987.5902, 14.16577
988.0723, 14.83877
988.5544, 15.45122
989.0366, 16.00439
989.5187, 16.38501
990.0008, 16.56940
990.4829, 16.86181
990.9650, 17.64850
991.4471, 18.56572
991.9293, 19.24900
992.4114, 19.66317
992.8935, 20.24972
993.3756, 21.00909
993.8577, 21.99525
994.3398, 23.27312
994.8220, 24.73431
995.3041, 26.03238
995.7862, 27.24106
996.2683, 28.68615
996.7504, 30.55745
997.2325, 32.54920
997.7147, 34.41678
998.1968, 36.36226
998.6789, 38.68710
999.1610, 41.56979
999.6431, 44.20080
1000.125, 46.47440
1000.607, 48.71053
1001.089, 51.27235
1001.572, 53.90546
1002.054, 56.26651
1002.536, 58.29954
1003.018, 59.92931
1003.500, 61.13348
1003.982, 61.83049
1004.464, 61.98317
1004.946, 61.64048
1005.429, 60.94753
1005.911, 59.89695
1006.393, 58.43168
1006.875, 56.41374
1007.357, 54.25212
1007.839, 52.24965
1008.321, 50.33124
1008.803, 48.33781
1009.285, 46.05294
1009.768, 44.25553
1010.250, 43.10660
1010.732, 42.10036
1011.214, 40.84377
1011.696, 39.41854
1012.178, 38.22689
1012.660, 37.24197
1013.142, 36.21989
1013.625, 34.93730
1014.107, 33.68196
1014.589, 32.67944
1015.071, 31.79572
1015.553, 30.76040
1016.035, 29.55083
1016.517, 28.30197
1016.999, 27.01475
1017.481, 25.80988
1017.964, 24.90161
1018.446, 24.16261
1018.928, 23.37352
1019.410, 22.47940
1019.892, 21.67795
1020.374, 21.04504
1020.856, 20.47508
1021.338, 19.90413
1021.820, 19.34973
1022.303, 18.98831
1022.785, 18.78628
1023.267, 18.52832
1023.749, 18.06040
1024.231, 17.54815
1024.713, 17.09649
1025.195, 16.67451
1025.677, 16.22093
1026.160, 15.71816
1026.642, 15.23636
1027.124, 14.78478
1027.606, 14.37180
1028.088, 14.02377
1028.570, 13.70996
1029.052, 13.41069
1029.534, 13.13229
1030.016, 12.94651
1030.499, 13.00114
1030.981, 13.06672
1031.463, 13.07561
1031.945, 13.04744
1032.427, 13.02779
1032.909, 13.02394
1033.391, 13.22884
1033.873, 13.76587
1034.356, 14.37061
1034.838, 14.82060
1035.320, 15.19937
1035.802, 15.60453
1036.284, 16.08007
1036.766, 16.50042
1037.248, 16.85289
1037.730, 17.18551
1038.213, 17.59503
1038.695, 17.99023
1039.177, 18.08142
1039.659, 17.92648
1040.141, 17.76586
1040.623, 17.99618
1041.105, 17.88619
1041.587, 17.05249
1042.069, 15.85026
1042.552, 14.73949
1043.034, 13.72429
1043.516, 12.86385
1043.998, 12.16805
1044.480, 11.51555
1044.962, 10.78288
1045.444, 10.02442
1045.926, 9.271881
1046.408, 8.522217
1046.891, 7.860989
1047.373, 7.275204
1047.855, 6.821516
1048.337, 6.561798
1048.819, 6.397530
1049.301, 6.104410
1049.783, 5.740368
1050.265, 5.443645
1050.748, 5.284086
1051.230, 5.158272
1051.712, 4.992933
1052.194, 4.882061
1052.676, 4.902899
1053.158, 5.059713
1053.640, 5.292799
1054.122, 5.600058
1054.604, 5.807302
1055.087, 5.748163
1055.569, 5.579870
1056.051, 5.426039
1056.533, 5.268581
1057.015, 5.033756
1057.497, 4.695133
1057.979, 4.345295
1058.461, 3.994305
1058.943, 3.645264
1059.426, 3.309765
1059.908, 2.978148
1060.390, 2.606482
1060.872, 2.184547
1061.354, 1.818943
1061.836, 1.613808
1062.318, 1.407576
1062.800, 1.105026
1063.283, 0.7599640
1063.765, 0.6128220
1064.247, 0.6407930
1064.729, 0.6494450
1065.211, 0.5606210
1065.693, 0.4481850
1066.175, 0.3841530
1066.657, 0.3182180
1067.140, 0.1688270
1067.622, 0.1172830
1068.104, 0.2588460
1068.586, 0.2300000
1069.068, 0.1802830
1069.550, 0.2218700
1070.032, 0.3043500
1070.514, 0.3570770
1070.996, 0.3829270
1071.479, 0.3969290
1071.961, 0.4033280
1072.443, 0.3952540
1072.925, 0.3632090
1073.407, 0.3294450
1073.889, 0.3073960
1074.371, 0.3081000
1074.853, 0.4212510
1075.335, 0.6563380
1075.818, 0.8095110
1076.300, 0.6499140
1076.782, 0.4690490
1077.264, 0.4477180
1077.746, 0.5502550
1078.228, 0.6291890
1078.710, 0.6856710
1079.192, 0.6960620
1079.675, 0.6397110
1080.157, 0.5706810
1080.639, 0.5590230
1081.121, 0.5626660
1081.603, 0.5224480
1082.085, 0.4039460
1082.567, 0.3429970
1083.049, 0.3770600
1083.531, 0.4857100
1084.014, 0.2799590
1084.496, 0.1670740
1084.978, 0.1412050
1085.460, 0.4944840
1085.942, 0.3304540
1086.424, 0.3568480
1086.906, 0.3800660
1087.388, 0.1106800
1087.870, 0.3504710
1088.353, 6.5245003E-02
1088.835, 2.4805000E-02
1089.317, 0.2197690
1089.799, 0.2236000
1090.281, 0.3027320
1090.763, 0.5930160
1091.245, 0.7791160
1091.727, 0.7984280
1092.209, 0.6377350
1092.692, 0.6796740
1093.174, 0.7506500
1093.656, 0.8786410
1094.138, 1.061958
1094.620, 1.288393
1095.102, 1.570393
1095.584, 1.873701
1096.066, 2.169167
1096.549, 2.452497
1097.031, 2.682028
1097.513, 2.820738
1097.995, 2.990532
1098.477, 3.237597
1098.959, 3.542187
1099.441, 3.866898
1099.923, 4.215080
1100.406, 4.605648
1100.888, 5.048809
1101.370, 5.523533
1101.852, 6.043018
1102.334, 6.568533
1102.816, 7.070799
1103.298, 7.551189
1103.780, 8.037827
1104.262, 8.548323
1104.745, 9.113146
1105.227, 9.822336
1105.709, 10.55019
1106.191, 11.21951
1106.673, 11.88438
1107.155, 12.64420
1107.637, 13.51081
1108.119, 14.37174
1108.601, 15.23768
1109.084, 16.09712
1109.566, 16.95867
1110.048, 17.82906
1110.530, 18.81124
1111.012, 19.83524
1111.494, 20.56425
1111.976, 20.86398
1112.458, 21.29219
1112.941, 22.02612
1113.423, 22.68163
1113.905, 22.71003
1114.387, 22.34373
1114.869, 21.93834
1115.351, 21.53710
1115.833, 21.06843
1116.315, 20.57043
1116.797, 19.91584
1117.280, 19.01845
1117.762, 17.97089
1118.244, 16.95456
1118.726, 15.98016
1119.208, 15.02255
1119.690, 14.05906
1120.172, 13.19113
1120.654, 12.51448
1121.136, 11.90315
1121.619, 11.29815
1122.101, 10.69499
1122.583, 10.03295
1123.065, 9.320832
1123.547, 8.636417
1124.029, 7.991402
1124.511, 7.420341
1124.993, 6.957910
1125.476, 6.574614
1125.958, 6.232164
1126.440, 5.937359
1126.922, 5.682398
1127.404, 5.467801
1127.886, 5.219759
1128.368, 4.854822
1128.850, 4.461666
1129.333, 4.104425
1129.815, 3.792463
1130.297, 3.523131
1130.779, 3.288979
1131.261, 3.123598
1131.743, 3.044103
1132.225, 2.975336
1132.707, 2.807529
1133.189, 2.601613
1133.672, 2.465563
1134.154, 2.415767
1134.636, 2.359441
1135.118, 2.296289
1135.600, 2.152906
1136.082, 1.890707
1136.564, 1.590080
1137.046, 1.364364
1137.528, 1.207422
1138.011, 1.107035
1138.493, 1.062032
1138.975, 1.007237
1139.457, 0.8943620
1139.939, 0.8080200
1140.421, 0.7789540
1140.903, 0.7848190
1141.385, 0.7942910
1141.868, 0.8108110
1142.350, 0.7606660
1142.832, 0.5929870
1143.314, 0.4104850
1143.796, 0.2950340
1144.278, 0.2203720
1144.760, 0.1818980
1145.242, 0.1926690
1145.724, 0.1852620
1146.207, 0.1891210
1146.689, 0.1732680
1147.171, 9.3226001E-02
1147.653, 4.6581998E-02
1148.135, 0.1710460
1148.617, 0.3324190
1149.099, 0.3675960
1149.581, 0.2533650
1150.063, 0.1399810
1150.546, 2.6440000E-02
1151.028, 3.2108001E-02
1151.510, 4.9922999E-02
1151.992, 0.1591860
1152.474, 0.2105880
1152.956, 0.2176280
1153.438, 0.2079000
1153.920, 0.1760640
1154.403, 0.1580160
1154.885, 0.1573660
1155.367, 0.1597750
1155.849, 0.1523160
1156.331, 0.1415660
1156.813, 0.1253400
1157.295, 0.1094480
1157.777, 0.1295440
1158.260, 0.2205860
1158.742, 0.2526230
1159.224, 0.1935780
1159.706, 0.1209940
1160.188, 0.1539310
1160.670, 0.2163310
1161.152, 0.1727510
1161.634, 0.1169030
1162.116, 0.1150050
1162.599, 0.2488130
1163.081, 0.2895320
1163.563, 4.0980000E-02
1164.045, 0.1090810
1164.527, 6.7474999E-02
1165.009, 1.8639000E-02
1165.491, 0.2381780
1165.973, 3.5243999E-02
1166.455, 0.1814340
1166.938, 0.2033800
1167.420, 0.3151920
1167.902, 0.2338700
1168.384, 0.2129740
1168.866, 0.3863330
1169.348, 0.4526830
1169.830, 0.3509100
1170.312, 0.4715720
1170.795, 0.1990740
1171.277, 0.2765250
1171.759, 0.1906980
1172.241, 0.1860790
1172.723, 0.2325220
1173.205, 0.2604230
1173.687, 0.2703810
1174.169, 0.2626630
1174.651, 0.2231010
1175.134, 0.1971980
1175.616, 0.1892760
1176.098, 0.2190170
1176.580, 0.3245070
1177.062, 0.4845410
1177.544, 0.5329930
1178.026, 0.4859810
1178.508, 0.4305300
1178.990, 0.4043790
1179.473, 0.3831210
1179.955, 0.3802340
1180.437, 0.3585760
1180.919, 0.2518640
1181.401, 6.3986003E-02
1181.883, 5.4905999E-02
1182.365, 0.2090250
1182.847, 0.3516070
1183.330, 0.3679640
1183.812, 0.3603810
1184.294, 0.3940210
1184.776, 0.4240860
1185.258, 0.3756340
1185.740, 0.2454840
1186.222, 0.2224900
1186.704, 0.3114120
1187.187, 0.3871230
1187.669, 0.3153130
1188.151, 0.2559940
1188.633, 0.3565710
1189.115, 0.5159990
1189.597, 0.5394310
1190.079, 0.4186430
1190.561, 0.3713870
1191.043, 0.4189600
1191.526, 0.4698240
1192.008, 0.4350910
1192.490, 0.3896930
1192.972, 0.3973750
1193.454, 0.4341170
1193.936, 0.4370910
1194.418, 0.4058270
1194.900, 0.3341990
1195.382, 0.2165040
1195.865, 0.1215550
1196.347, 0.1165000
1196.829, 0.1508420
1197.311, 0.1847680
1197.793, 0.2243520
1198.275, 0.3137030
1198.757, 0.4604780
1199.239, 0.5622510
1199.722, 0.5980040
1200.204, 0.5860550
1200.686, 0.4972180
1201.168, 0.4035370
1201.650, 0.3690120
1202.132, 0.3902740
1202.614, 0.4335330
1203.096, 0.5027620
1203.578, 0.5386430
1204.061, 0.5178630
1204.543, 0.4898850
1205.025, 0.5240740
1205.507, 0.5544800
1205.989, 0.4937120
1206.471, 0.3499320
1206.953, 0.3238070
1207.435, 0.4203890
1207.917, 0.5098430
1208.400, 0.5537280
1208.882, 0.5573430
1209.364, 0.5024460
1209.846, 0.4368600
1210.328, 0.4214210
1210.810, 0.4547700
1211.292, 0.4504290
1211.774, 0.4072720
1212.257, 0.3413890
1212.739, 0.2493290
1213.221, 0.1595540
1213.703, 6.3576996E-02
1214.185, 6.9260001E-03
1214.667, 5.8935001E-02
1215.149, 0.2228280
1215.631, 0.3485390
1216.114, 0.4375860
1216.596, 0.4623770
1217.078, 0.3779530
1217.560, 0.2808100
1218.042, 0.2591040
1218.524, 0.2704110
1219.006, 0.2518850
1219.488, 0.1812720
1219.970, 0.2402240
1220.453, 0.4241610
1220.935, 0.5417160
1221.417, 0.4474440
1221.899, 0.3216910
1222.381, 0.2839490
1222.863, 0.2842800
1223.345, 0.2606140
1223.827, 0.1939550
1224.309, 0.1754390
1224.792, 0.1983760
1225.274, 0.2204650
1225.756, 0.2024770
1226.238, 0.1931100
1226.720, 0.2782790
1227.202, 0.3514860
1227.684, 0.2511470
1228.166, 5.8391001E-02
1228.649, 0.1290180
1229.131, 3.1624999E-02
1229.613, 0.1955370
1230.095, 0.2131020
1230.577, 0.1949230
1231.059, 0.1825560
1231.541, 0.1847250
1232.023, 0.2255660
1232.505, 0.3120080
1232.988, 0.2672310
1233.470, 0.1002100
1233.952, 2.9243000E-02
1234.434, 1.1604000E-02
1234.916, 6.9294997E-02
1235.398, 3.5213001E-02
1235.880, 1.0173000E-02
1236.362, 4.2803001E-02
1236.844, 0.1903010
1237.327, 0.2265700
1237.809, 0.1598330
1238.291, 0.1180910
1238.773, 0.2289210
1239.255, 0.3177040
1239.737, 0.2929590
1240.219, 0.2241170
1240.701, 0.1677070
1241.184, 0.1278730
1241.666, 0.1211610
1242.148, 0.1440110
1242.630, 0.1743610
1243.112, 0.2094160
1243.594, 0.2405410
1244.076, 0.2861840
1244.558, 0.3071900
1245.041, 0.2322700
1245.523, 9.5169999E-02
1246.005, 6.7777999E-02
1246.487, 0.1444290
1246.969, 0.2257720
1247.451, 0.3277680
1247.933, 0.3314360
1248.415, 0.1534850
1248.897, 3.1992000E-02
1249.380, 8.6570000E-03
1249.862, 0.1918100
1250.344, 0.2641340
1250.826, 0.2328420
1251.308, 0.2021300
1251.790, 0.1886190
1252.272, 0.2224940
1252.754, 0.3288790
1253.236, 0.4342750
1253.719, 0.4421300
1254.201, 0.3868690
1254.683, 0.3228060
1255.165, 0.2607870
1255.647, 0.2316250
1256.129, 0.2760380
1256.611, 0.2932000
1257.093, 0.2641370
1257.576, 0.2489310
1258.058, 0.3548010
1258.540, 0.4863930
1259.022, 0.4778650
1259.504, 0.3596560
1259.986, 0.2999560
1260.468, 0.3443890
1260.950, 0.3644460
1261.432, 0.3372130
1261.915, 0.3269070
1262.397, 0.4550950
1262.879, 0.5867640
1263.361, 0.5212020
1263.843, 0.3160770
1264.325, 0.2335320
1264.807, 0.3061080
1265.289, 0.3534950
1265.771, 0.2021440
1266.254, 0.4137760
1266.736, 0.5276540
1267.218, 0.5478120
1267.700, 0.1978720
1268.182, 0.3292300
1268.664, 0.2679000
1269.146, 0.2003160
1269.628, 0.3996130
1270.111, 0.1041360
1270.593, 0.2986360
1271.075, 0.2989980
1271.557, 0.3890480
1272.039, 0.2841900
1272.521, 0.2380640
1273.003, 0.3878970
1273.485, 0.4299650
1273.968, 0.2990090
1274.450, 0.3944210
1274.932, 9.4136998E-02
1275.414, 0.1410500
1275.896, 0.3379710
1276.378, 0.2216340
1276.860, 0.3206250
1277.342, 0.3376200
1277.824, 1.8013000E-02
1278.307, 0.2745900
1278.789, 0.2868850
1279.271, 1.1324000E-02
1279.753, 0.2817210
1280.235, 4.5823999E-02
1280.717, 9.3540000E-03
1281.199, 7.1677998E-02
1281.681, 1.1075000E-02
1282.163, 0.1740440
1282.646, 0.1218140
1283.128, 5.0572000E-02
1283.610, 4.9984999E-02
1284.092, 0.2270170
1284.574, 0.3861160
1285.056, 0.3664940
1285.538, 0.2781340
1286.020, 0.1872050
1286.503, 0.1258270
1286.985, 5.1043000E-02
1287.467, 0.1851860
1287.949, 0.3231760
1288.431, 0.3628030
1288.913, 3.2543998E-02
1289.395, 0.1830430
1289.877, 0.1360360
1290.359, 8.4345996E-02
1290.842, 0.3003410
1291.324, 3.2440000E-03
1291.806, 0.2169800
1292.288, 0.2349200
1292.770, 0.2987690
1293.252, 0.2070310
1293.734, 0.1647010
1294.216, 0.3200160
1294.698, 0.3616770
1295.181, 0.2107850
1295.663, 0.3041430
1296.145, 4.4199999E-04
1296.627, 4.0043000E-02
1297.109, 0.2337640
1297.591, 2.1934001E-02
1298.073, 0.0000000E+00
##END=



