##NAMES=Babingtonite
##RRUFFID=R060084
##IDEAL CHEMISTRY=Ca_2_Fe^2+^Fe^3+^Si_5_O_14_(OH)
##LOCALITY=Winchester Highlands, Massachusetts, USA
##OWNER=RRUFF
##SOURCE=University of Arizona Mineral Museum
##DESCRIPTION=Black stubby prismatic crystals
##STATUS=The identification of this mineral has been confirmed by X-ray diffraction and chemical analysis
##URL=rruff.info/R060084
##MEASURED CHEMISTRY=Ca_2.00_(Fe^2+^_0.89_Mg_0.07_Mn_0.04_)(Fe^3+^_0.96_Al_0.04_)Si_5.00_O_14_(OH)
122.6731, 0.0000000E+00
123.1552, 0.1668340
123.6373, 0.6656910
124.1194, 1.329681
124.6016, 2.092657
125.0837, 2.848837
125.5658, 3.684870
126.0479, 4.884026
126.5300, 6.360834
127.0121, 7.559103
127.4943, 8.017086
127.9764, 7.840590
128.4585, 7.422802
128.9406, 6.617149
129.4227, 5.294966
129.9048, 4.036982
130.3869, 2.839659
130.8691, 1.851954
131.3512, 1.325796
131.8333, 1.141659
132.3154, 0.9272100
132.7975, 0.5995940
133.2796, 0.2193780
133.7618, 7.1448997E-02
134.2439, 0.2830120
134.7260, 0.3833450
135.2081, 0.3054710
135.6902, 4.9619999E-02
136.1723, 0.2956540
136.6545, 0.6848530
137.1366, 1.115793
137.6187, 1.632858
138.1008, 2.259815
138.5829, 2.959816
139.0650, 3.646717
139.5472, 4.294321
140.0293, 5.028282
140.5114, 5.909538
140.9935, 6.931787
141.4756, 8.176426
141.9577, 9.749817
142.4399, 11.56097
142.9220, 13.23098
143.4041, 15.02230
143.8862, 16.28030
144.3683, 16.51439
144.8504, 15.47026
145.3326, 13.97368
145.8147, 11.95675
146.2968, 9.440979
146.7789, 7.430336
147.2610, 5.960878
147.7431, 4.931551
148.2253, 4.254984
148.7074, 4.088814
149.1895, 4.058720
149.6716, 4.136982
150.1537, 4.335857
150.6358, 4.525616
151.1180, 4.879105
151.6001, 5.148258
152.0822, 5.068876
152.5643, 4.236244
153.0464, 3.543577
153.5285, 3.163813
154.0107, 3.016321
154.4928, 2.925863
154.9749, 2.909376
155.4570, 2.975019
155.9391, 3.131102
156.4212, 3.425179
156.9034, 3.768723
157.3855, 4.147379
157.8676, 4.579098
158.3497, 4.974031
158.8318, 5.380842
159.3139, 5.737406
159.7961, 5.941122
160.2782, 5.960892
160.7603, 5.828934
161.2424, 5.500734
161.7245, 4.787804
162.2066, 4.293953
162.6888, 4.391161
163.1709, 4.858759
163.6530, 5.209970
164.1351, 5.170630
164.6172, 5.006767
165.0993, 4.891422
165.5815, 4.882307
166.0636, 4.883154
166.5457, 4.885836
167.0278, 4.869057
167.5099, 4.767328
167.9921, 4.346796
168.4742, 3.919498
168.9563, 3.783733
169.4384, 4.173670
169.9205, 4.660265
170.4026, 4.999853
170.8848, 5.201992
171.3669, 5.294865
171.8490, 5.215775
172.3311, 5.063404
172.8132, 4.950499
173.2953, 4.884399
173.7775, 4.896242
174.2596, 5.036480
174.7417, 5.294371
175.2238, 5.591984
175.7059, 6.021879
176.1880, 6.431454
176.6702, 6.565767
177.1523, 6.252110
177.6344, 5.686310
178.1165, 5.082867
178.5986, 4.436268
179.0807, 3.743422
179.5629, 2.914082
180.0450, 2.021996
180.5271, 1.241583
181.0092, 0.6456430
181.4913, 0.2051110
181.9734, 9.5395997E-02
182.4556, 0.2544270
182.9377, 0.3449270
183.4198, 0.4840450
183.9019, 0.6272890
184.3840, 0.6140000
184.8661, 0.3283290
185.3483, 0.1443810
185.8304, 0.6402740
186.3125, 1.172918
186.7946, 1.698690
187.2767, 2.085604
187.7588, 2.373215
188.2409, 2.794268
188.7231, 3.486345
189.2052, 4.389936
189.6873, 5.321365
190.1694, 6.295877
190.6515, 7.252695
191.1336, 8.139137
191.6158, 8.952963
192.0979, 9.672894
192.5800, 10.40327
193.0621, 11.09677
193.5442, 11.35744
194.0263, 11.12773
194.5085, 10.61258
194.9906, 10.09945
195.4727, 9.589582
195.9548, 8.978888
196.4369, 8.152239
196.9190, 7.130514
197.4012, 6.274878
197.8833, 5.605293
198.3654, 5.056620
198.8475, 4.515354
199.3296, 3.962896
199.8117, 3.580349
200.2939, 3.512598
200.7760, 3.764355
201.2581, 3.929647
201.7402, 3.974974
202.2223, 3.980804
202.7044, 4.091934
203.1866, 4.320061
203.6687, 4.581636
204.1508, 4.870100
204.6329, 5.198212
205.1150, 5.403461
205.5971, 5.456242
206.0793, 5.420984
206.5614, 5.414816
207.0435, 5.440815
207.5256, 5.484255
208.0077, 5.540859
208.4898, 5.612000
208.9720, 5.654215
209.4541, 5.580885
209.9362, 5.557709
210.4183, 5.977411
210.9004, 6.948599
211.3825, 8.035709
211.8647, 9.038303
212.3468, 9.906693
212.8289, 10.96495
213.3110, 12.37534
213.7931, 13.86827
214.2752, 14.81985
214.7574, 15.17998
215.2395, 15.14244
215.7216, 14.78119
216.2037, 14.09175
216.6858, 13.09184
217.1679, 11.69515
217.6501, 10.03275
218.1322, 8.397484
218.6143, 6.700674
219.0964, 5.180279
219.5785, 3.978392
220.0606, 3.126911
220.5428, 2.446749
221.0249, 1.981472
221.5070, 1.668280
221.9891, 1.367645
222.4712, 1.049072
222.9533, 0.7936190
223.4355, 0.6477470
223.9176, 0.6396390
224.3997, 0.6488080
224.8818, 0.6534900
225.3639, 0.6847060
225.8460, 0.8346040
226.3282, 1.186548
226.8103, 1.512463
227.2924, 1.675514
227.7745, 1.534920
228.2566, 1.623018
228.7387, 1.983778
229.2209, 2.554943
229.7030, 3.177021
230.1851, 3.820763
230.6672, 4.575588
231.1493, 5.500898
231.6314, 6.682899
232.1136, 7.808187
232.5957, 8.886057
233.0778, 9.906801
233.5599, 10.84049
234.0420, 11.76519
234.5241, 12.50456
235.0063, 12.99950
235.4884, 13.26255
235.9705, 13.23459
236.4526, 12.82297
236.9347, 12.12957
237.4168, 11.37656
237.8990, 10.59995
238.3811, 9.726889
238.8632, 8.705820
239.3453, 7.459309
239.8274, 6.277876
240.3095, 5.134480
240.7917, 4.060886
241.2738, 3.109919
241.7559, 2.302868
242.2380, 1.593523
242.7201, 0.9835210
243.2022, 0.4698560
243.6844, 5.4644000E-02
244.1665, 0.2586990
244.6486, 0.4792710
245.1307, 0.6180690
245.6128, 0.6548160
246.0949, 0.6438160
246.5771, 0.6008470
247.0592, 0.5263900
247.5413, 0.4154070
248.0234, 0.2557950
248.5055, 6.8602003E-02
248.9876, 0.1079730
249.4697, 0.2587070
249.9519, 0.4288060
250.4340, 0.6354060
250.9161, 0.8861680
251.3982, 1.139532
251.8803, 1.417698
252.3624, 1.678703
252.8446, 1.858978
253.3267, 1.945156
253.8088, 1.978573
254.2909, 1.949823
254.7730, 1.842381
255.2551, 1.816391
255.7373, 1.928501
256.2194, 2.064760
256.7015, 2.070234
257.1836, 1.866230
257.6657, 1.703136
258.1479, 1.632036
258.6300, 1.653168
259.1121, 1.767820
259.5942, 1.999723
260.0763, 2.297672
260.5584, 2.613266
261.0406, 2.931679
261.5227, 3.296387
262.0048, 3.720417
262.4869, 4.199579
262.9690, 4.715052
263.4511, 5.259134
263.9333, 5.846163
264.4154, 6.501297
264.8975, 7.264977
265.3796, 7.992729
265.8617, 8.663649
266.3438, 9.276154
266.8260, 9.909151
267.3081, 10.64709
267.7902, 11.24443
268.2723, 11.46644
268.7544, 11.26451
269.2365, 10.88194
269.7187, 10.32058
270.2008, 9.603786
270.6829, 8.891888
271.1650, 8.198715
271.6471, 7.477337
272.1292, 6.665627
272.6114, 5.715240
273.0935, 4.937212
273.5756, 4.400394
274.0577, 4.057825
274.5398, 3.726017
275.0219, 3.379570
275.5041, 3.130116
275.9862, 3.074978
276.4683, 3.235489
276.9504, 3.405565
277.4325, 3.567282
277.9146, 3.726910
278.3968, 3.904352
278.8788, 4.103197
279.3610, 4.299519
279.8431, 4.469255
280.3252, 4.609442
280.8073, 4.791868
281.2894, 5.041018
281.7715, 5.304296
282.2537, 5.466921
282.7358, 5.519711
283.2179, 5.568954
283.7000, 5.727379
284.1821, 5.981461
284.6642, 5.998430
285.1464, 5.739302
285.6285, 5.320732
286.1106, 4.902996
286.5927, 4.485678
287.0748, 4.046785
287.5569, 3.565340
288.0391, 3.046427
288.5212, 2.545542
289.0033, 2.062092
289.4854, 1.588301
289.9675, 1.083061
290.4496, 0.5548630
290.9318, 0.1241720
291.4139, 0.1374590
291.8960, 0.2775250
292.3781, 0.4733540
292.8602, 0.7396680
293.3423, 0.9329850
293.8245, 0.9193310
294.3066, 0.7111000
294.7887, 0.3414690
295.2708, 0.3298850
295.7529, 1.064146
296.2350, 1.295124
296.7172, 1.024223
297.1993, 0.6291120
297.6814, 0.3631990
298.1635, 0.2144850
298.6456, 0.1641770
299.1277, 0.2486630
299.6099, 0.3784290
300.0920, 0.4057850
300.5741, 0.3434010
301.0562, 0.2755570
301.5383, 0.2185900
302.0204, 0.1838110
302.5026, 0.2106320
302.9847, 0.3134520
303.4668, 0.4846320
303.9489, 0.7375300
304.4310, 1.056339
304.9131, 1.400164
305.3953, 1.717852
305.8774, 2.057028
306.3595, 2.479546
306.8416, 3.000582
307.3237, 3.558657
307.8058, 4.109205
308.2880, 4.649775
308.7701, 5.179136
309.2522, 5.669180
309.7343, 6.169329
310.2164, 6.740311
310.6985, 7.400164
311.1807, 8.054556
311.6628, 8.710619
312.1449, 9.314329
312.6270, 9.763594
313.1091, 9.862762
313.5912, 9.920988
314.0734, 10.15560
314.5555, 10.57225
315.0376, 10.98347
315.5197, 11.30919
316.0018, 11.57530
316.4839, 11.80056
316.9661, 11.83889
317.4482, 11.98176
317.9303, 12.41668
318.4124, 13.09785
318.8945, 13.75098
319.3766, 14.35327
319.8588, 14.83688
320.3409, 15.13983
320.8230, 15.12098
321.3051, 15.09370
321.7872, 15.19185
322.2693, 15.35454
322.7515, 15.39567
323.2336, 15.26203
323.7157, 15.00327
324.1978, 14.62363
324.6799, 14.03931
325.1620, 13.51032
325.6442, 13.13400
326.1263, 12.82712
326.6084, 12.44208
327.0905, 11.84100
327.5726, 11.27277
328.0547, 10.80536
328.5369, 10.45394
329.0190, 10.17743
329.5011, 9.992487
329.9832, 9.875748
330.4653, 9.805410
330.9474, 9.850523
331.4296, 9.857233
331.9117, 9.794161
332.3938, 9.659523
332.8759, 9.500195
333.3580, 9.290340
333.8401, 9.078531
334.3223, 8.915211
334.8044, 8.860126
335.2865, 8.728231
335.7686, 8.482885
336.2507, 8.138908
336.7328, 7.790939
337.2150, 7.433081
337.6971, 7.074890
338.1792, 6.733248
338.6613, 6.440069
339.1434, 6.035435
339.6255, 5.465025
340.1077, 4.814503
340.5898, 4.259499
341.0719, 3.820721
341.5540, 3.432798
342.0361, 3.102507
342.5182, 2.834068
343.0004, 2.458088
343.4825, 1.947874
343.9646, 1.401669
344.4467, 0.9522060
344.9288, 0.6049310
345.4109, 0.3317170
345.8931, 0.1455100
346.3752, 2.7558999E-02
346.8573, 9.5402002E-02
347.3394, 0.2278920
347.8215, 0.3385050
348.3036, 0.4090190
348.7858, 0.4358040
349.2679, 0.4077220
349.7500, 0.2978230
350.2321, 0.1473480
350.7142, 1.9796001E-02
351.1964, 8.8065997E-02
351.6785, 0.1850640
352.1606, 0.2614500
352.6427, 0.3469280
353.1248, 0.4969200
353.6069, 0.7191810
354.0891, 0.9264200
354.5712, 1.017836
355.0533, 1.016392
355.5354, 0.9873410
356.0175, 0.9517670
356.4996, 0.9144550
356.9818, 0.8658180
357.4639, 0.7996030
357.9460, 0.7767940
358.4281, 0.8957960
358.9102, 1.074507
359.3923, 1.191845
359.8745, 1.062925
360.3566, 0.9675880
360.8387, 1.098391
361.3208, 1.444567
361.8029, 1.830074
362.2850, 2.232204
362.7672, 2.609034
363.2493, 2.923693
363.7314, 3.107611
364.2135, 3.300615
364.6956, 3.542006
365.1777, 3.824862
365.6599, 4.125576
366.1420, 4.466566
366.6241, 4.803780
367.1062, 5.111816
367.5883, 5.379583
368.0704, 5.642351
368.5526, 5.941561
369.0347, 6.228567
369.5168, 6.432640
369.9989, 6.453703
370.4810, 6.491888
370.9631, 6.595428
371.4453, 6.773014
371.9274, 6.948931
372.4095, 7.141867
372.8916, 7.315109
373.3737, 7.422665
373.8558, 7.373199
374.3380, 7.448885
374.8201, 7.737925
375.3022, 8.190960
375.7843, 8.516111
376.2664, 8.676727
376.7485, 8.794207
377.2307, 8.937746
377.7128, 9.112894
378.1949, 9.291786
378.6770, 9.483496
379.1591, 9.663839
379.6412, 9.738800
380.1234, 9.686497
380.6055, 9.747454
381.0876, 10.06784
381.5697, 10.60691
382.0518, 11.08935
382.5339, 11.49769
383.0161, 11.92741
383.4982, 12.47954
383.9803, 13.14495
384.4624, 13.86443
384.9445, 14.68704
385.4266, 15.49006
385.9088, 15.98759
386.3909, 16.21063
386.8730, 16.49043
387.3551, 17.16399
387.8372, 18.04023
388.3193, 18.78704
388.8015, 19.32508
389.2836, 19.76679
389.7657, 20.18191
390.2478, 20.58881
390.7299, 21.01066
391.2120, 21.48733
391.6942, 21.96153
392.1763, 22.39235
392.6584, 22.77234
393.1405, 23.09241
393.6226, 23.36716
394.1047, 23.57411
394.5869, 23.68457
395.0690, 23.60489
395.5511, 23.50890
396.0332, 23.41013
396.5153, 23.33202
396.9974, 23.38125
397.4796, 23.60644
397.9617, 23.94174
398.4438, 24.36520
398.9259, 24.92995
399.4080, 25.49560
399.8901, 26.08778
400.3723, 26.66796
400.8544, 27.16636
401.3365, 27.64608
401.8186, 27.97639
402.3007, 28.11298
402.7828, 28.04638
403.2649, 27.85216
403.7470, 27.59724
404.2292, 27.14502
404.7113, 26.36969
405.1934, 25.22275
405.6755, 23.85375
406.1576, 22.22518
406.6397, 20.41979
407.1219, 18.73850
407.6040, 17.18371
408.0861, 15.75543
408.5682, 14.45387
409.0503, 13.29817
409.5324, 12.21039
410.0146, 11.18157
410.4967, 10.23783
410.9788, 9.423100
411.4609, 8.738879
411.9430, 8.125832
412.4251, 7.530975
412.9073, 7.008850
413.3894, 6.683802
413.8715, 6.551911
414.3536, 6.477884
414.8357, 6.350327
415.3178, 6.200709
415.8000, 6.089862
416.2821, 6.032169
416.7642, 6.012743
417.2463, 6.043954
417.7284, 6.105096
418.2105, 6.140722
418.6927, 6.069176
419.1748, 5.997219
419.6569, 6.048008
420.1390, 6.257030
420.6211, 6.361878
421.1032, 6.180334
421.5854, 5.855669
422.0675, 5.544182
422.5496, 5.256384
423.0317, 5.016500
423.5138, 4.818213
423.9959, 4.668108
424.4781, 4.592165
424.9602, 4.669447
425.4423, 4.766619
425.9244, 4.804714
426.4065, 4.639599
426.8886, 4.689590
427.3708, 5.090582
427.8529, 5.649633
428.3350, 6.058810
428.8171, 6.214712
429.2992, 6.411299
429.7813, 6.742193
430.2635, 7.200310
430.7456, 7.591969
431.2277, 7.894833
431.7098, 8.174637
432.1919, 8.510662
432.6740, 8.916559
433.1562, 9.205685
433.6383, 9.346083
434.1204, 9.372322
434.6025, 9.362556
435.0846, 9.315412
435.5667, 9.170018
436.0489, 8.904591
436.5310, 8.513457
437.0131, 7.950518
437.4952, 7.203995
437.9773, 6.417507
438.4594, 5.719652
438.9416, 5.085472
439.4237, 4.459507
439.9058, 3.802286
440.3879, 3.174289
440.8700, 2.621983
441.3521, 2.140136
441.8343, 1.710268
442.3164, 1.331857
442.7985, 0.9952900
443.2806, 0.6915660
443.7627, 0.4213740
444.2448, 0.1881230
444.7270, 1.0402000E-02
445.2091, 0.1678110
445.6912, 0.2750410
446.1733, 0.2650160
446.6554, 0.2724610
447.1375, 0.3495950
447.6197, 0.4891940
448.1018, 0.5959330
448.5839, 0.6566390
449.0660, 0.6879930
449.5481, 0.6941530
450.0302, 0.6582300
450.5124, 0.6330180
450.9945, 0.6270400
451.4766, 0.6257930
451.9587, 0.6020960
452.4408, 0.5433760
452.9229, 0.4985700
453.4051, 0.4949660
453.8872, 0.5213670
454.3693, 0.4703880
454.8514, 0.3239030
455.3335, 0.1774490
455.8156, 0.1151000
456.2978, 0.1288210
456.7799, 0.1373180
457.2620, 0.1272030
457.7441, 0.1163890
458.2262, 0.1609970
458.7083, 0.2397410
459.1905, 0.2569990
459.6726, 0.1218360
460.1547, 8.3738998E-02
460.6368, 0.2510470
461.1189, 0.3804560
461.6010, 0.4926940
462.0832, 0.5977930
462.5653, 0.6966680
463.0474, 0.7865400
463.5295, 0.8576650
464.0116, 0.9385990
464.4937, 1.046708
464.9759, 1.175550
465.4580, 1.308720
465.9401, 1.434098
466.4222, 1.569543
466.9043, 1.722376
467.3864, 1.894403
467.8686, 2.074634
468.3507, 2.223090
468.8328, 2.404420
469.3149, 2.669157
469.7970, 3.092761
470.2791, 3.474081
470.7613, 3.789909
471.2434, 4.055550
471.7255, 4.304735
472.2076, 4.521654
472.6897, 4.760882
473.1718, 5.041694
473.6540, 5.363065
474.1361, 5.770533
474.6182, 6.294073
475.1003, 6.795190
475.5824, 7.104651
476.0645, 7.244610
476.5467, 7.415524
477.0288, 7.694307
477.5109, 7.962272
477.9930, 7.996124
478.4751, 7.833537
478.9572, 7.653293
479.4394, 7.564241
479.9215, 7.510744
480.4036, 7.447848
480.8857, 7.373890
481.3678, 7.219067
481.8499, 6.855241
482.3321, 6.415022
482.8142, 6.054814
483.2963, 5.892776
483.7784, 5.713627
484.2605, 5.404219
484.7426, 5.014596
485.2248, 4.670338
485.7069, 4.412331
486.1890, 4.198662
486.6711, 4.014248
487.1532, 3.856243
487.6353, 3.744416
488.1175, 3.695730
488.5996, 3.680993
489.0817, 3.677838
489.5638, 3.682206
490.0459, 3.709518
490.5280, 3.767455
491.0102, 3.845206
491.4923, 3.904135
491.9744, 3.930912
492.4565, 4.011728
492.9386, 4.211023
493.4207, 4.507353
493.9029, 4.745995
494.3850, 4.925262
494.8671, 5.084290
495.3492, 5.237724
495.8313, 5.401107
496.3134, 5.627548
496.7956, 5.944302
497.2777, 6.288507
497.7598, 6.641254
498.2419, 6.970055
498.7240, 7.182805
499.2061, 7.162715
499.6883, 7.067593
500.1704, 7.035057
500.6525, 7.066795
501.1346, 7.001714
501.6167, 6.734777
502.0988, 6.366592
502.5810, 5.961846
503.0631, 5.473255
503.5452, 5.032767
504.0273, 4.720659
504.5094, 4.461966
504.9915, 4.128775
505.4737, 3.642247
505.9558, 3.191305
506.4379, 2.831941
506.9200, 2.561509
507.4021, 2.298314
507.8842, 2.031258
508.3664, 1.800217
508.8485, 1.648867
509.3306, 1.579319
509.8127, 1.456876
510.2948, 1.255983
510.7769, 1.056182
511.2591, 0.9998850
511.7412, 1.058900
512.2233, 1.086153
512.7054, 0.9962910
513.1875, 0.8817880
513.6696, 0.8813020
514.1517, 0.9749260
514.6339, 1.079287
515.1160, 1.105881
515.5981, 1.140381
516.0802, 1.275669
516.5623, 1.541189
517.0444, 1.805569
517.5266, 2.007767
518.0087, 2.192501
518.4908, 2.396061
518.9729, 2.570194
519.4550, 2.824572
519.9371, 3.210023
520.4193, 3.703027
520.9014, 4.185816
521.3835, 4.689192
521.8656, 5.145279
522.3477, 5.502489
522.8298, 5.734129
523.3120, 6.097298
523.7941, 6.616055
524.2762, 7.200718
524.7583, 7.770636
525.2404, 8.327651
525.7225, 8.873472
526.2047, 9.397143
526.6868, 9.938726
527.1689, 10.58903
527.6510, 11.33171
528.1331, 12.07712
528.6152, 12.73822
529.0974, 13.40083
529.5795, 14.24356
530.0616, 15.25344
530.5437, 16.22356
531.0258, 16.98787
531.5079, 17.67029
531.9901, 18.41186
532.4722, 19.26540
532.9543, 20.10822
533.4364, 20.94228
533.9185, 21.72764
534.4006, 22.42619
534.8828, 23.07269
535.3649, 23.57646
535.8470, 23.88440
536.3291, 24.02278
536.8112, 24.11407
537.2933, 24.23553
537.7755, 24.18952
538.2576, 23.87881
538.7397, 23.28345
539.2218, 22.53594
539.7039, 21.62486
540.1860, 20.61941
540.6682, 19.59518
541.1503, 18.55733
541.6324, 17.48233
542.1145, 16.31968
542.5966, 15.22273
543.0787, 14.52095
543.5609, 14.11811
544.0430, 13.65499
544.5251, 12.88103
545.0072, 11.99948
545.4893, 11.19173
545.9714, 10.46402
546.4536, 9.822876
546.9357, 9.343743
547.4178, 8.907056
547.8999, 8.418651
548.3820, 7.834099
548.8641, 7.263903
549.3463, 6.695080
549.8284, 6.165683
550.3105, 5.722348
550.7926, 5.353879
551.2747, 5.097504
551.7568, 5.010333
552.2390, 5.038092
552.7211, 4.930162
553.2032, 4.640085
553.6853, 4.350398
554.1674, 4.132101
554.6495, 3.985952
555.1317, 3.946719
555.6138, 4.029981
556.0959, 4.110031
556.5780, 4.027124
557.0601, 3.845034
557.5422, 3.731520
558.0244, 3.716455
558.5065, 3.788723
558.9886, 3.974056
559.4707, 4.238005
559.9528, 4.506266
560.4349, 4.738751
560.9171, 4.976980
561.3992, 5.216660
561.8813, 5.469860
562.3634, 5.805565
562.8455, 6.334620
563.3276, 6.870309
563.8098, 7.314674
564.2919, 7.623539
564.7740, 7.986153
565.2561, 8.398254
565.7382, 8.869983
566.2203, 9.428146
566.7025, 10.09689
567.1846, 10.73574
567.6667, 11.33487
568.1488, 11.92848
568.6309, 12.56025
569.1130, 13.23690
569.5952, 13.98904
570.0773, 14.86695
570.5594, 15.81476
571.0415, 16.76903
571.5236, 17.73390
572.0057, 18.70136
572.4879, 19.68736
572.9700, 20.67608
573.4521, 21.64901
573.9342, 22.60947
574.4163, 23.57481
574.8984, 24.60350
575.3806, 25.61599
575.8627, 26.54346
576.3448, 27.40191
576.8269, 28.12325
577.3090, 28.76171
577.7911, 29.25485
578.2733, 29.45404
578.7554, 29.28041
579.2375, 28.96415
579.7196, 28.59161
580.2017, 28.14195
580.6838, 27.43752
581.1660, 26.46398
581.6481, 25.34586
582.1302, 24.17558
582.6123, 22.93920
583.0944, 21.58682
583.5765, 20.10456
584.0587, 18.59144
584.5408, 17.08228
585.0229, 15.64151
585.5050, 14.39352
585.9871, 13.46796
586.4692, 12.59440
586.9514, 11.55357
587.4335, 10.43656
587.9156, 9.454822
588.3977, 8.721499
588.8798, 8.083768
589.3619, 7.517477
589.8441, 7.019652
590.3262, 6.504721
590.8083, 5.944195
591.2904, 5.410518
591.7725, 4.935541
592.2546, 4.517527
592.7368, 4.176569
593.2189, 3.927273
593.7010, 3.716873
594.1831, 3.487432
594.6652, 3.245884
595.1473, 3.016136
595.6295, 2.808159
596.1116, 2.601508
596.5937, 2.344385
597.0758, 2.064358
597.5579, 1.832677
598.0400, 1.735100
598.5222, 1.660237
599.0043, 1.536886
599.4864, 1.369369
599.9685, 1.182812
600.4506, 0.9269870
600.9327, 0.7061890
601.4149, 0.5852830
601.8970, 0.6005050
602.3791, 0.5869250
602.8612, 0.5345900
603.3433, 0.4609420
603.8254, 0.3725900
604.3076, 0.2554110
604.7897, 0.1790650
605.2718, 0.1551540
605.7539, 0.1592730
606.2360, 0.1641540
606.7181, 0.1677650
607.2003, 0.1453660
607.6824, 8.2074001E-02
608.1645, 2.6980001E-03
608.6466, 8.0813996E-02
609.1287, 0.1541590
609.6108, 0.2267280
610.0930, 0.3238820
610.5751, 0.4040650
611.0572, 0.4249940
611.5393, 0.3867240
612.0214, 0.3550440
612.5035, 0.3667550
612.9857, 0.3823640
613.4678, 0.3772060
613.9499, 0.3399860
614.4320, 0.3032710
614.9141, 0.2658840
615.3962, 0.2298880
615.8784, 0.1933780
616.3605, 0.1502370
616.8426, 0.1366060
617.3247, 0.1652380
617.8068, 0.2138360
618.2889, 0.2375230
618.7711, 0.2388770
619.2532, 0.2392960
619.7353, 0.2622370
620.2174, 0.2782280
620.6995, 0.2214820
621.1816, 0.1092000
621.6638, 2.7659001E-02
622.1459, 5.4768998E-02
622.6280, 0.1072860
623.1101, 0.1406420
623.5922, 0.1535480
624.0743, 0.1050150
624.5565, 0.1076010
625.0386, 0.3217590
625.5207, 0.4219950
626.0028, 0.3416980
626.4849, 0.2883250
626.9670, 0.2650450
627.4492, 0.2643880
627.9313, 0.2762690
628.4134, 0.3000010
628.8955, 0.3438880
629.3776, 0.4140840
629.8597, 0.4971560
630.3419, 0.5774020
630.8240, 0.6519120
631.3061, 0.7072750
631.7882, 0.7020600
632.2703, 0.6974660
632.7524, 0.7833300
633.2346, 0.9393150
633.7167, 1.063476
634.1988, 1.025895
634.6809, 1.004539
635.1630, 1.131920
635.6451, 1.455236
636.1273, 1.689327
636.6094, 1.729972
637.0915, 1.735795
637.5736, 1.805586
638.0557, 1.954843
638.5378, 2.103761
639.0200, 2.250684
639.5021, 2.400674
639.9842, 2.557699
640.4663, 2.722395
640.9484, 2.908562
641.4305, 3.107653
641.9127, 3.326460
642.3948, 3.574228
642.8769, 3.849977
643.3590, 4.155610
643.8411, 4.521072
644.3232, 4.888011
644.8054, 5.219513
645.2875, 5.524793
645.7696, 5.840511
646.2517, 6.084803
646.7338, 6.405820
647.2159, 6.885713
647.6981, 7.541305
648.1802, 8.223511
648.6623, 8.980223
649.1444, 9.710984
649.6265, 10.33789
650.1086, 10.85620
650.5908, 11.35239
651.0729, 11.81498
651.5550, 12.35529
652.0371, 13.14891
652.5192, 14.13230
653.0013, 15.07912
653.4835, 15.93417
653.9656, 16.76657
654.4477, 17.57419
654.9298, 18.40066
655.4119, 19.33184
655.8940, 20.38345
656.3762, 21.55705
656.8583, 22.93724
657.3404, 24.44442
657.8225, 25.79964
658.3046, 26.84759
658.7867, 27.93373
659.2689, 29.14032
659.7510, 30.46579
660.2331, 31.92974
660.7152, 33.55642
661.1973, 35.18853
661.6794, 36.81518
662.1616, 38.37256
662.6437, 39.63717
663.1258, 40.60219
663.6079, 41.27849
664.0900, 41.71220
664.5721, 41.84568
665.0543, 41.58437
665.5364, 40.85868
666.0185, 39.94721
666.5006, 39.05572
666.9827, 37.99846
667.4648, 36.58253
667.9470, 34.49959
668.4291, 32.41177
668.9112, 30.33106
669.3933, 28.25237
669.8754, 26.16396
670.3575, 24.02170
670.8397, 22.02718
671.3218, 20.24670
671.8039, 18.63249
672.2860, 17.03237
672.7681, 15.49003
673.2502, 14.11252
673.7324, 13.02946
674.2145, 12.09778
674.6966, 11.14817
675.1787, 10.19634
675.6608, 9.374516
676.1429, 8.838284
676.6251, 8.390409
677.1072, 7.927188
677.5893, 7.434388
678.0714, 6.943089
678.5535, 6.416526
679.0356, 5.941717
679.5178, 5.595350
679.9999, 5.409241
680.4820, 5.106438
680.9641, 4.653597
681.4462, 4.182180
681.9283, 3.843310
682.4105, 3.615849
682.8926, 3.372535
683.3747, 3.080953
683.8568, 2.797556
684.3389, 2.566662
684.8210, 2.377232
685.3032, 2.207705
685.7853, 2.078881
686.2674, 1.938353
686.7495, 1.751513
687.2316, 1.540742
687.7137, 1.355986
688.1959, 1.209347
688.6780, 1.073632
689.1601, 0.9463740
689.6422, 0.8242510
690.1243, 0.6830810
690.6064, 0.5148930
691.0886, 0.3796590
691.5707, 0.3080410
692.0528, 0.2890400
692.5349, 0.3244240
693.0170, 0.4030640
693.4991, 0.4299290
693.9813, 0.2736720
694.4634, 8.2819998E-02
694.9455, 1.9180001E-03
695.4276, 3.4490999E-02
695.9097, 8.9235000E-02
696.3918, 0.1787080
696.8740, 0.2372970
697.3561, 0.2088470
697.8382, 3.9824001E-02
698.3203, 3.5654001E-02
698.8024, 2.3417000E-02
699.2845, 0.1122550
699.7667, 0.1208530
700.2488, 5.0104000E-02
700.7309, 2.2453999E-02
701.2130, 6.2505998E-02
701.6951, 0.1011760
702.1772, 1.9041000E-02
702.6594, 0.1252660
703.1415, 0.1975510
703.6236, 0.1344130
704.1057, 4.1937001E-02
704.5878, 4.6142001E-02
705.0699, 0.1116020
705.5521, 0.1248210
706.0342, 6.1479998E-03
706.5163, 7.7850997E-02
706.9984, 8.1532001E-02
707.4805, 3.6022998E-02
707.9626, 2.6430000E-02
708.4448, 7.3182002E-02
708.9269, 8.5206002E-02
709.4090, 2.5906000E-02
709.8911, 8.2610004E-02
710.3732, 0.1917340
710.8553, 0.2981210
711.3374, 0.3647460
711.8195, 0.3282170
712.3016, 0.2675340
712.7838, 0.2647800
713.2659, 0.3197550
713.7480, 0.4152260
714.2301, 0.6033840
714.7122, 0.7791540
715.1943, 0.8929200
715.6765, 0.9371360
716.1586, 0.9274460
716.6407, 0.8257300
717.1228, 0.7238030
717.6049, 0.6618850
718.0870, 0.6362080
718.5692, 0.7143700
719.0513, 0.9095220
719.5334, 1.128585
720.0155, 1.310978
720.4976, 1.448573
720.9797, 1.511818
721.4619, 1.484876
721.9440, 1.459645
722.4261, 1.482627
722.9082, 1.552388
723.3903, 1.672785
723.8724, 1.885867
724.3546, 2.076900
724.8367, 2.218442
725.3188, 2.335550
725.8009, 2.451244
726.2830, 2.556017
726.7651, 2.695454
727.2473, 2.889116
727.7294, 3.099279
728.2115, 3.274686
728.6936, 3.414553
729.1757, 3.506227
729.6578, 3.543925
730.1400, 3.534653
730.6221, 3.476549
731.1042, 3.378247
731.5863, 3.259094
732.0684, 3.126576
732.5505, 2.973436
733.0327, 2.789272
733.5148, 2.580451
733.9969, 2.380906
734.4790, 2.214450
734.9611, 2.009802
735.4432, 1.717157
735.9254, 1.378601
736.4075, 1.182892
736.8896, 1.128782
737.3717, 1.101997
737.8538, 1.045566
738.3359, 0.9752800
738.8181, 0.9175540
739.3002, 0.8739300
739.7823, 0.8270400
740.2644, 0.7391600
740.7465, 0.6519500
741.2286, 0.5864060
741.7108, 0.5438080
742.1929, 0.5688480
742.6750, 0.7231150
743.1571, 0.8643340
743.6392, 0.9090790
744.1213, 0.8523650
744.6035, 0.8954490
745.0856, 1.054576
745.5677, 1.195419
746.0498, 1.152365
746.5319, 1.017469
747.0140, 1.016468
747.4962, 1.172942
747.9783, 1.320432
748.4604, 1.316917
748.9425, 1.271896
749.4246, 1.277947
749.9067, 1.352934
750.3889, 1.466587
750.8710, 1.659033
751.3531, 1.853021
751.8352, 1.984045
752.3173, 2.027960
752.7994, 2.101310
753.2816, 2.214990
753.7637, 2.351265
754.2458, 2.521229
754.7279, 2.705153
755.2100, 2.823544
755.6921, 2.836308
756.1743, 2.858946
756.6564, 3.042084
757.1385, 3.278213
757.6206, 3.435324
758.1027, 3.416637
758.5848, 3.428885
759.0670, 3.519144
759.5491, 3.635740
760.0312, 3.733747
760.5133, 3.814240
760.9954, 3.851561
761.4775, 3.846536
761.9597, 3.813837
762.4418, 3.778080
762.9239, 3.729311
763.4060, 3.631379
763.8881, 3.435968
764.3702, 3.260547
764.8524, 3.239624
765.3345, 3.293820
765.8166, 3.303493
766.2987, 3.209015
766.7808, 3.085760
767.2629, 2.943011
767.7451, 2.789647
768.2272, 2.621017
768.7093, 2.407537
769.1914, 2.296916
769.6735, 2.359041
770.1556, 2.501409
770.6378, 2.514053
771.1199, 2.419049
771.6020, 2.329792
772.0841, 2.325854
772.5662, 2.317102
773.0483, 2.206091
773.5305, 2.026248
774.0126, 1.859833
774.4947, 1.729844
774.9768, 1.622540
775.4589, 1.547123
775.9410, 1.490741
776.4232, 1.401445
776.9053, 1.257635
777.3874, 1.157472
777.8695, 1.153624
778.3516, 1.201714
778.8337, 1.168449
779.3159, 1.067999
779.7980, 0.9836870
780.2801, 1.016841
780.7622, 1.042210
781.2443, 0.9059160
781.7264, 0.6554490
782.2086, 0.4921970
782.6907, 0.5774230
783.1728, 0.6522330
783.6549, 0.6199010
784.1370, 0.5013510
784.6191, 0.4204790
785.1013, 0.3815590
785.5834, 0.3659230
786.0655, 0.3746810
786.5476, 0.3973010
787.0297, 0.4105340
787.5118, 0.4122790
787.9940, 0.3877460
788.4761, 0.2723240
788.9582, 0.1720840
789.4403, 0.2034600
789.9224, 0.3471960
790.4045, 0.4280500
790.8867, 0.3355660
791.3688, 0.2488010
791.8509, 0.2420640
792.3330, 0.3026370
792.8151, 0.2779280
793.2972, 0.1500370
793.7794, 4.3630999E-02
794.2615, 5.2811000E-02
794.7436, 0.1263090
795.2257, 0.1381490
795.7078, 9.5151998E-02
796.1899, 3.6727000E-02
796.6721, 6.6004999E-02
797.1542, 0.1327660
797.6363, 7.9103000E-02
798.1184, 9.0930998E-02
798.6005, 0.1983250
799.0826, 0.1949830
799.5648, 0.1673660
800.0469, 0.1465320
800.5290, 0.1303810
801.0111, 8.6272001E-02
801.4932, 1.1653000E-02
801.9753, 5.2035000E-02
802.4575, 8.6359002E-02
802.9396, 8.9841001E-02
803.4217, 4.3896001E-02
803.9038, 4.3240000E-02
804.3859, 0.1169730
804.8680, 0.1563070
805.3502, 0.1669570
805.8323, 0.1364800
806.3144, 6.4456999E-02
806.7965, 3.4504000E-02
807.2786, 7.7294998E-02
807.7607, 0.1039920
808.2429, 6.6298999E-02
808.7250, 2.2190001E-02
809.2071, 8.0930002E-02
809.6892, 0.1101160
810.1713, 0.1176740
810.6534, 8.6062998E-02
811.1356, 4.9853999E-02
811.6177, 5.8495998E-02
812.0998, 0.1051120
812.5819, 0.1331530
813.0640, 0.1125180
813.5461, 7.5475998E-02
814.0283, 1.7975001E-02
814.5104, 5.4092001E-02
814.9925, 4.7761001E-02
815.4746, 6.8502001E-02
815.9567, 0.1558490
816.4388, 0.1295010
816.9210, 2.8798001E-02
817.4031, 1.6907999E-02
817.8852, 1.4142000E-02
818.3673, 1.0805000E-02
818.8494, 2.5474999E-02
819.3315, 5.9085999E-02
819.8137, 0.1517310
820.2958, 0.2831130
820.7779, 0.3100560
821.2600, 5.3698000E-02
821.7421, 0.1379360
822.2242, 0.1382910
822.7064, 1.3680000E-02
823.1885, 8.7718002E-02
823.6706, 7.6959997E-02
824.1527, 7.6798998E-02
824.6348, 0.1603770
825.1169, 0.2685810
825.5991, 0.2907190
826.0812, 0.2449150
826.5633, 0.2022970
827.0454, 0.2061390
827.5275, 0.2131460
828.0096, 0.1973620
828.4918, 0.1644240
828.9739, 0.1531930
829.4560, 0.1843890
829.9381, 0.1886330
830.4202, 0.1240720
830.9023, 3.2278001E-02
831.3845, 5.4129001E-02
831.8666, 0.1751180
832.3487, 0.2885670
832.8308, 0.3456420
833.3129, 0.3688340
833.7950, 0.3779150
834.2772, 0.3700820
834.7593, 0.3381360
835.2414, 0.1970590
835.7235, 0.1350180
836.2056, 0.2330130
836.6877, 0.4220260
837.1699, 0.5171660
837.6520, 0.5065940
838.1341, 0.4792670
838.6162, 0.4465090
839.0983, 0.4316390
839.5804, 0.5123470
840.0626, 0.6439010
840.5447, 0.7073830
841.0268, 0.5623440
841.5089, 0.4479610
841.9910, 0.5043250
842.4731, 0.6620470
842.9553, 0.7905180
843.4374, 0.8800860
843.9195, 0.9466630
844.4016, 0.9910350
844.8837, 1.015697
845.3658, 1.000457
845.8480, 0.9595760
846.3301, 0.9900020
846.8122, 1.136315
847.2943, 1.303843
847.7764, 1.412045
848.2585, 1.480644
848.7407, 1.534764
849.2228, 1.552995
849.7049, 1.601401
850.1870, 1.692548
850.6691, 1.812452
851.1512, 1.943830
851.6334, 2.083245
852.1155, 2.264680
852.5976, 2.497536
853.0797, 2.743195
853.5618, 2.964684
854.0439, 3.167477
854.5261, 3.349922
855.0082, 3.500426
855.4903, 3.687710
855.9724, 3.960433
856.4545, 4.269799
856.9366, 4.580891
857.4188, 4.898092
857.9009, 5.197664
858.3830, 5.463896
858.8651, 5.745573
859.3472, 6.105836
859.8293, 6.515977
860.3115, 6.863803
860.7936, 7.147344
861.2757, 7.451562
861.7578, 7.800936
862.2399, 8.224138
862.7220, 8.794353
863.2042, 9.541259
863.6863, 10.16499
864.1684, 10.55177
864.6505, 10.94278
865.1326, 11.44238
865.6147, 12.03383
866.0969, 12.64689
866.5790, 13.29065
867.0611, 13.86978
867.5432, 14.29422
868.0253, 14.63764
868.5074, 15.01356
868.9896, 15.41058
869.4717, 15.72127
869.9538, 15.85338
870.4359, 15.94700
870.9180, 16.07873
871.4001, 16.23201
871.8823, 16.29654
872.3644, 16.26731
872.8465, 16.11969
873.3286, 15.78220
873.8107, 15.37980
874.2928, 15.16216
874.7750, 15.07362
875.2571, 14.95331
875.7392, 14.66357
876.2213, 14.41542
876.7034, 14.32750
877.1855, 14.31518
877.6677, 14.20613
878.1498, 13.96867
878.6319, 13.75176
879.1140, 13.58701
879.5961, 13.43046
880.0782, 13.24807
880.5604, 13.04368
881.0425, 12.77701
881.5246, 12.40567
882.0067, 12.06223
882.4888, 11.87929
882.9709, 11.75644
883.4531, 11.58039
883.9352, 11.39053
884.4173, 11.02650
884.8994, 10.41405
885.3815, 9.744441
885.8636, 9.230216
886.3458, 8.844115
886.8279, 8.392085
887.3100, 7.857832
887.7921, 7.340460
888.2742, 6.907765
888.7563, 6.540358
889.2385, 6.244450
889.7206, 6.030767
890.2027, 5.780538
890.6848, 5.424728
891.1669, 5.100378
891.6490, 4.885697
892.1312, 4.771891
892.6133, 4.636992
893.0954, 4.481995
893.5775, 4.379604
894.0596, 4.445902
894.5417, 4.543652
895.0239, 4.483850
895.5060, 4.303217
895.9881, 4.196430
896.4702, 4.241209
896.9523, 4.357086
897.4344, 4.536175
897.9166, 4.763594
898.3987, 4.988733
898.8808, 5.216291
899.3629, 5.408211
899.8450, 5.535595
900.3271, 5.654044
900.8093, 5.839673
901.2914, 6.078390
901.7735, 6.343319
902.2556, 6.662425
902.7377, 6.957177
903.2198, 7.144554
903.7020, 7.327900
904.1841, 7.650083
904.6662, 8.149334
905.1483, 8.575921
905.6304, 8.908255
906.1125, 9.171603
906.5947, 9.353558
907.0768, 9.507208
907.5589, 9.766736
908.0410, 10.18695
908.5231, 10.46224
909.0052, 10.41218
909.4874, 10.18800
909.9695, 9.895545
910.4516, 9.540270
910.9337, 9.108321
911.4158, 8.597211
911.8979, 8.029299
912.3801, 7.392714
912.8622, 6.716967
913.3443, 6.062730
913.8264, 5.428630
914.3085, 4.847151
914.7906, 4.351149
915.2728, 3.894865
915.7549, 3.474078
916.2370, 3.077127
916.7191, 2.648787
917.2012, 2.168445
917.6833, 1.745444
918.1655, 1.407851
918.6476, 1.151982
919.1297, 1.015667
919.6118, 0.9560870
920.0939, 0.8549630
920.5760, 0.6508340
921.0582, 0.4232980
921.5403, 0.1443680
922.0224, 0.1065030
922.5045, 0.2176700
922.9866, 0.1154780
923.4688, 9.4015002E-02
923.9509, 0.1899600
924.4330, 0.3115730
924.9151, 0.3538220
925.3972, 0.3399220
925.8793, 0.3230090
926.3615, 0.3100220
926.8436, 0.2850630
927.3257, 0.1970150
927.8078, 0.1256580
928.2899, 0.1503280
928.7720, 0.2785020
929.2542, 0.3352740
929.7363, 0.3049710
930.2184, 0.2552600
930.7005, 0.2242860
931.1826, 0.1986940
931.6647, 0.1134300
932.1469, 6.1570001E-03
932.6290, 5.1125001E-02
933.1111, 0.1478450
933.5932, 0.3139840
934.0753, 0.3020810
934.5574, 0.1572070
935.0396, 1.4247000E-02
935.5217, 0.1407000
936.0038, 0.2465070
936.4859, 0.2782660
936.9680, 0.2924700
937.4501, 0.3813230
937.9323, 0.5216000
938.4144, 0.6544490
938.8965, 0.7611630
939.3786, 0.8785050
939.8607, 1.030057
940.3428, 1.196247
940.8250, 1.364803
941.3071, 1.550206
941.7892, 1.662717
942.2713, 1.686118
942.7534, 1.699610
943.2355, 1.803669
943.7177, 1.930222
944.1998, 1.912705
944.6819, 1.764773
945.1640, 1.644642
945.6461, 1.676954
946.1282, 1.711344
946.6104, 1.657464
947.0925, 1.545012
947.5746, 1.505225
948.0567, 1.560246
948.5388, 1.541195
949.0209, 1.345682
949.5031, 1.134584
949.9852, 1.212189
950.4673, 1.463345
950.9494, 1.639759
951.4315, 1.598633
951.9136, 1.580534
952.3958, 1.673584
952.8779, 1.811495
953.3600, 1.936615
953.8421, 2.047489
954.3242, 2.159657
954.8063, 2.274132
955.2885, 2.380636
955.7706, 2.500429
956.2527, 2.589809
956.7348, 2.548494
957.2169, 2.374409
957.6990, 2.282501
958.1811, 2.477745
958.6632, 2.620119
959.1453, 2.550573
959.6274, 2.324274
960.1096, 2.240343
960.5917, 2.298410
961.0738, 2.380133
961.5559, 2.437086
962.0380, 2.493896
962.5201, 2.608938
963.0023, 2.737785
963.4844, 2.801554
963.9665, 2.654213
964.4486, 2.621250
964.9307, 2.768877
965.4128, 2.986940
965.8950, 3.154505
966.3771, 3.274239
966.8592, 3.365162
967.3413, 3.425039
967.8234, 3.510538
968.3055, 3.659317
968.7877, 3.860809
969.2698, 4.129204
969.7519, 4.471933
970.2340, 4.737326
970.7161, 4.884892
971.1982, 5.030689
971.6804, 5.232803
972.1625, 5.463829
972.6446, 5.626404
973.1267, 5.738592
973.6088, 5.888689
974.0909, 6.213942
974.5731, 6.470320
975.0552, 6.490618
975.5373, 6.363873
976.0194, 6.250317
976.5015, 6.199179
976.9836, 6.033701
977.4658, 5.720089
977.9479, 5.361408
978.4300, 5.092686
978.9121, 4.868092
979.3942, 4.568340
979.8763, 4.168108
980.3585, 3.796926
980.8406, 3.561213
981.3227, 3.355196
981.8048, 3.089300
982.2869, 2.778959
982.7690, 2.645718
983.2512, 2.714663
983.7333, 2.741140
984.2154, 2.576265
984.6975, 2.363762
985.1796, 2.307869
985.6617, 2.357115
986.1439, 2.403936
986.6260, 2.381929
987.1081, 2.389196
987.5902, 2.429985
988.0723, 2.523438
988.5544, 2.713371
989.0366, 2.993896
989.5187, 3.209188
990.0008, 3.345533
990.4829, 3.469219
990.9650, 3.648592
991.4471, 3.819841
991.9293, 3.914299
992.4114, 3.933178
992.8935, 4.037745
993.3756, 4.255531
993.8577, 4.499380
994.3398, 4.747593
994.8220, 4.991020
995.3041, 5.165934
995.7862, 5.305971
996.2683, 5.548504
996.7504, 6.008768
997.2325, 6.471300
997.7147, 6.816799
998.1968, 7.103170
998.6789, 7.397018
999.1610, 7.667358
999.6431, 8.084600
1000.125, 8.674278
1000.607, 9.273666
1001.089, 9.712166
1001.572, 10.06481
1002.054, 10.46694
1002.536, 10.91163
1003.018, 11.28872
1003.500, 11.50342
1003.982, 11.68895
1004.464, 11.88760
1004.946, 12.08816
1005.429, 12.24816
1005.911, 12.36982
1006.393, 12.48164
1006.875, 12.60215
1007.357, 12.69206
1007.839, 12.69669
1008.321, 12.65972
1008.803, 12.64086
1009.285, 12.69416
1009.768, 12.64985
1010.250, 12.47743
1010.732, 12.26499
1011.214, 12.03542
1011.696, 11.82864
1012.178, 11.82468
1012.660, 11.99335
1013.142, 12.17201
1013.625, 12.23206
1014.107, 12.32133
1014.589, 12.51077
1015.071, 12.77309
1015.553, 13.03211
1016.035, 13.27386
1016.517, 13.63180
1016.999, 14.16460
1017.481, 14.68001
1017.964, 14.95335
1018.446, 15.04306
1018.928, 15.03854
1019.410, 14.96217
1019.892, 14.74214
1020.374, 14.37831
1020.856, 13.84581
1021.338, 13.06309
1021.820, 12.09333
1022.303, 11.36713
1022.785, 10.84891
1023.267, 10.27496
1023.749, 9.429792
1024.231, 8.577984
1024.713, 7.885956
1025.195, 7.309025
1025.677, 6.766624
1026.160, 6.248764
1026.642, 5.785652
1027.124, 5.379650
1027.606, 5.027662
1028.088, 4.750751
1028.570, 4.517553
1029.052, 4.230200
1029.534, 3.893045
1030.016, 3.671883
1030.499, 3.702318
1030.981, 3.794622
1031.463, 3.908928
1031.945, 4.018456
1032.427, 3.996490
1032.909, 3.854038
1033.391, 3.795933
1033.873, 3.911608
1034.356, 4.061260
1034.838, 4.118238
1035.320, 4.139458
1035.802, 4.201759
1036.284, 4.324736
1036.766, 4.415241
1037.248, 4.490282
1037.730, 4.528545
1038.213, 4.473820
1038.695, 4.382942
1039.177, 4.438383
1039.659, 4.600492
1040.141, 4.698994
1040.623, 4.665117
1041.105, 4.540743
1041.587, 4.302868
1042.069, 4.007832
1042.552, 3.714827
1043.034, 3.424109
1043.516, 3.220520
1043.998, 3.121168
1044.480, 3.036148
1044.962, 2.887350
1045.444, 2.707010
1045.926, 2.529627
1046.408, 2.357323
1046.891, 2.138710
1047.373, 1.832386
1047.855, 1.588280
1048.337, 1.489286
1048.819, 1.452414
1049.301, 1.267031
1049.783, 1.004738
1050.265, 0.8446870
1050.748, 0.8970340
1051.230, 0.9639170
1051.712, 0.9595220
1052.194, 0.9588680
1052.676, 1.020094
1053.158, 1.146074
1053.640, 1.285149
1054.122, 1.436872
1054.604, 1.586395
1055.087, 1.736322
1055.569, 1.867886
1056.051, 1.962633
1056.533, 2.026846
1057.015, 2.085512
1057.497, 2.157433
1057.979, 2.179499
1058.461, 2.135044
1058.943, 2.060772
1059.426, 2.026007
1059.908, 1.989666
1060.390, 1.854317
1060.872, 1.601446
1061.354, 1.361412
1061.836, 1.191154
1062.318, 1.041119
1062.800, 0.8943390
1063.283, 0.7518580
1063.765, 0.6035920
1064.247, 0.4530070
1064.729, 0.3418750
1065.211, 0.2985320
1065.693, 0.2661230
1066.175, 0.1957040
1066.657, 0.1159360
1067.140, 6.7850001E-02
1067.622, 8.0215000E-02
1068.104, 1.0962000E-02
1068.586, 0.2338980
1069.068, 0.4100000
1069.550, 0.3425850
1070.032, 0.1896820
1070.514, 0.2289140
1070.996, 0.3988390
1071.479, 0.4923290
1071.961, 0.3597210
1072.443, 0.2516270
1072.925, 0.2259620
1073.407, 0.2343830
1073.889, 0.1663820
1074.371, 4.3900002E-02
1074.853, 1.8919000E-02
1075.335, 8.7069999E-03
1075.818, 1.3020000E-02
1076.300, 9.8879999E-03
1076.782, 5.5709998E-03
1077.264, 1.3371000E-02
1077.746, 3.3440001E-02
1078.228, 6.6174999E-02
1078.710, 0.1139140
1079.192, 0.1001820
1079.675, 2.5436001E-02
1080.157, 0.1580510
1080.639, 0.1605380
1081.121, 9.9260002E-02
1081.603, 5.4028001E-02
1082.085, 1.5266000E-02
1082.567, 0.1320420
1083.049, 0.4738270
1083.531, 0.7793590
1084.014, 0.8533910
1084.496, 0.8135980
1084.978, 0.9515940
1085.460, 1.210811
1085.942, 1.430912
1086.424, 1.567348
1086.906, 1.625967
1087.388, 1.594853
1087.870, 1.513987
1088.353, 1.416317
1088.835, 1.291500
1089.317, 1.106089
1089.799, 0.8617530
1090.281, 0.6127720
1090.763, 0.3436120
1091.245, 0.1319780
1091.727, 6.5399997E-02
1092.209, 8.8808998E-02
1092.692, 2.3205999E-02
1093.174, 0.1624920
1093.656, 0.1639660
1094.138, 0.1079610
1094.620, 0.3990850
1095.102, 0.4149070
1095.584, 0.3092520
1096.066, 0.2470090
1096.549, 0.2528760
1097.031, 0.2758120
1097.513, 0.3251890
1097.995, 0.3495800
1098.477, 0.3063580
1098.959, 0.2577650
1099.441, 0.3581820
1099.923, 0.5500390
1100.406, 0.7051160
1100.888, 0.7716050
1101.370, 0.8356870
1101.852, 0.9229420
1102.334, 1.013950
1102.816, 1.079574
1103.298, 1.128498
1103.780, 1.235775
1104.262, 1.397264
1104.745, 1.569536
1105.227, 1.722027
1105.709, 1.873560
1106.191, 2.054063
1106.673, 2.234402
1107.155, 2.354623
1107.637, 2.397954
1108.119, 2.517149
1108.601, 2.725798
1109.084, 2.949152
1109.566, 3.178449
1110.048, 3.353999
1110.530, 3.389524
1111.012, 3.313869
1111.494, 3.293901
1111.976, 3.386179
1112.458, 3.387657
1112.941, 3.248217
1113.423, 3.055187
1113.905, 2.952359
1114.387, 2.853228
1114.869, 2.575407
1115.351, 2.079952
1115.833, 1.729082
1116.315, 1.668820
1116.797, 1.640860
1117.280, 1.577395
1117.762, 1.475023
1118.244, 1.294370
1118.726, 1.065820
1119.208, 0.8619380
1119.690, 0.6972110
1120.172, 0.5821230
1120.654, 0.5614830
1121.136, 0.5563740
1121.619, 0.5115390
1122.101, 0.4360590
1122.583, 0.4355640
1123.065, 0.4988900
1123.547, 0.5274510
1124.029, 0.4359570
1124.511, 0.3454950
1124.993, 0.3507440
1125.476, 0.3881310
1125.958, 0.3669610
1126.440, 0.2573710
1126.922, 0.2062930
1127.404, 0.2307330
1127.886, 0.2824510
1128.368, 0.3759460
1128.850, 0.4100810
1129.333, 0.2174220
1129.815, 8.7701000E-02
1130.297, 0.2012060
1130.779, 3.5638001E-02
1131.261, 8.4532000E-02
1131.743, 0.1270450
1132.225, 0.1425710
1132.707, 0.1878550
1133.189, 0.2288150
1133.672, 0.2020080
1134.154, 0.1143540
1134.636, 6.8494000E-02
1135.118, 0.1224070
1135.600, 0.1511160
1136.082, 0.1260740
1136.564, 6.4854003E-02
1137.046, 3.5252001E-02
1137.528, 0.1343140
1138.011, 0.1391910
1138.493, 2.4845000E-02
1138.975, 6.5748997E-02
1139.457, 6.3497998E-02
1139.939, 4.2931002E-02
1140.421, 1.8738000E-02
1140.903, 3.5049999E-03
1141.385, 5.9285000E-02
1141.868, 0.1611020
1142.350, 0.2010840
1142.832, 0.1185770
1143.314, 5.8099002E-02
1143.796, 0.1520950
1144.278, 0.2368550
1144.760, 0.1777940
1145.242, 3.6040000E-03
1145.724, 3.4198999E-02
1146.207, 7.2492003E-02
1146.689, 0.1910070
1147.171, 0.2934150
1147.653, 0.3439390
1148.135, 0.2607370
1148.617, 0.1471390
1149.099, 0.1345680
1149.581, 0.2527070
1150.063, 0.2620330
1150.546, 0.1583770
1151.028, 5.6935001E-02
1151.510, 6.8232998E-02
1151.992, 0.1232060
1152.474, 0.1608570
1152.956, 0.1777980
1153.438, 0.1641910
1153.920, 0.1040120
1154.403, 7.5498998E-02
1154.885, 8.4795997E-02
1155.367, 0.1119850
1155.849, 0.1539950
1156.331, 0.1931110
1156.813, 0.2069860
1157.295, 0.1988530
1157.777, 0.1883880
1158.260, 0.1870480
1158.742, 0.1515170
1159.224, 6.0729999E-02
1159.706, 1.4612000E-02
1160.188, 5.3989999E-02
1160.670, 0.1676390
1161.152, 0.1607950
1161.634, 2.9677000E-02
1162.116, 4.7304001E-02
1162.599, 4.2349999E-03
1163.081, 2.3891000E-02
1163.563, 1.9170000E-03
1164.045, 3.8492002E-02
1164.527, 1.2040000E-02
1165.009, 5.2418001E-02
1165.491, 0.1117230
1165.973, 0.1598680
1166.455, 0.1929040
1166.938, 0.2146580
1167.420, 0.2104590
1167.902, 0.1564340
1168.384, 9.4086997E-02
1168.866, 0.1550460
1169.348, 0.2843180
1169.830, 0.3212320
1170.312, 0.1938740
1170.795, 0.1026160
1171.277, 0.1748290
1171.759, 0.2302470
1172.241, 0.1722550
1172.723, 4.0233001E-02
1173.205, 3.4240000E-02
1173.687, 5.4014999E-02
1174.169, 2.7279999E-02
1174.651, 8.0234997E-02
1175.134, 0.1524410
1175.616, 9.5099002E-02
1176.098, 3.3815999E-02
1176.580, 4.7770999E-02
1177.062, 0.1290720
1177.544, 0.2467830
1178.026, 0.3838260
1178.508, 0.4460390
1178.990, 0.3114220
1179.473, 0.1940710
1179.955, 0.2244020
1180.437, 0.2853160
1180.919, 0.2569510
1181.401, 0.1417990
1181.883, 0.1187280
1182.365, 0.1799080
1182.847, 0.2385020
1183.330, 0.2373950
1183.812, 0.2278910
1184.294, 0.2238070
1184.776, 0.2348750
1185.258, 0.2894260
1185.740, 0.3884720
1186.222, 0.3928580
1186.704, 0.3003970
1187.187, 0.2289890
1187.669, 0.2605340
1188.151, 0.3175330
1188.633, 0.3941050
1189.115, 0.4624310
1189.597, 0.4594070
1190.079, 0.3789220
1190.561, 0.4111000
1191.043, 0.5640560
1191.526, 0.6580020
1192.008, 0.4489060
1192.490, 0.2209380
1192.972, 0.1978890
1193.454, 0.3107510
1193.936, 0.3751590
1194.418, 0.3889830
1194.900, 0.3529530
1195.382, 0.2599120
1195.865, 0.1875520
1196.347, 0.2535420
1196.829, 0.3265220
1197.311, 0.2720750
1197.793, 0.1315310
1198.275, 9.2813000E-02
1198.757, 0.1658680
1199.239, 0.2083000
1199.722, 0.1845580
1200.204, 0.1621870
1200.686, 0.2098180
1201.168, 0.2783040
1201.650, 0.3459200
1202.132, 0.4020010
1202.614, 0.3803140
1203.096, 0.2672190
1203.578, 0.2150840
1204.061, 0.2834000
1204.543, 0.3664160
1205.025, 0.3789510
1205.507, 0.3472600
1205.989, 0.2736870
1206.471, 0.1653860
1206.953, 0.1221830
1207.435, 0.1452990
1207.917, 0.2278700
1208.400, 0.3929500
1208.882, 0.5318170
1209.364, 0.5334150
1209.846, 0.4625960
1210.328, 0.3637500
1210.810, 0.2419590
1211.292, 0.1840330
1211.774, 0.1918960
1212.257, 0.2154910
1212.739, 0.2393450
1213.221, 0.2675230
1213.703, 0.3265850
1214.185, 0.3777040
1214.667, 0.3691620
1215.149, 0.2986210
1215.631, 0.2408750
1216.114, 0.1946510
1216.596, 0.2078870
1217.078, 0.3467890
1217.560, 0.4656510
1218.042, 0.4148050
1218.524, 0.2992740
1219.006, 0.2405320
1219.488, 0.2440510
1219.970, 0.2408620
1220.453, 0.2377930
1220.935, 0.2266960
1221.417, 0.1731250
1221.899, 0.1485310
1222.381, 0.2759370
1222.863, 0.4321460
1223.345, 0.4566060
1223.827, 0.3310330
1224.309, 0.2373990
1224.792, 0.1754460
1225.274, 0.1440380
1225.756, 0.1752990
1226.238, 0.1938080
1226.720, 0.1000420
1227.202, 3.4990001E-03
1227.684, 2.2203000E-02
1228.166, 0.1992410
1228.649, 0.2713090
1229.131, 0.2445220
1229.613, 0.1933730
1230.095, 0.1377660
1230.577, 9.5931001E-02
1231.059, 8.0123000E-02
1231.541, 8.5896000E-02
1232.023, 0.1135520
1232.505, 0.1750350
1232.988, 0.1866730
1233.470, 0.1529550
1233.952, 0.1399290
1234.434, 0.2461930
1234.916, 0.3194510
1235.398, 0.2218570
1235.880, 8.2681000E-02
1236.362, 5.1089998E-02
1236.844, 0.1242080
1237.327, 0.1846900
1237.809, 0.2290640
1238.291, 0.2406690
1238.773, 0.1708530
1239.255, 0.1105240
1239.737, 0.1045300
1240.219, 0.1281380
1240.701, 0.1753480
1241.184, 0.2359760
1241.666, 0.1996220
1242.148, 7.7262998E-02
1242.630, 7.2519998E-03
1243.112, 4.6792999E-02
1243.594, 0.1092370
1244.076, 0.1441730
1244.558, 0.1613110
1245.041, 0.1653890
1245.523, 0.1615990
1246.005, 0.1941150
1246.487, 0.2507010
1246.969, 0.2435150
1247.451, 1.6042000E-02
1247.933, 0.1266410
1248.415, 6.6532999E-02
1248.897, 0.3236070
1249.380, 0.3436090
1249.862, 0.2112660
1250.344, 0.1942970
1250.826, 0.2770610
1251.308, 0.3056320
1251.790, 0.1157550
1252.272, 1.6325001E-02
1252.754, 7.1015999E-02
1253.236, 0.1908560
1253.719, 0.2748800
1254.201, 0.3524170
1254.683, 0.5393340
1255.165, 0.7955470
1255.647, 0.9027400
1256.129, 0.6403630
1256.611, 0.5142770
1257.093, 0.6186330
1257.576, 0.7509760
1258.058, 0.6618080
1258.540, 0.4845830
1259.022, 0.4430890
1259.504, 0.5047270
1259.986, 0.4506370
1260.468, 0.1521650
1260.950, 4.8767000E-02
1261.432, 0.2234690
1261.915, 0.4250330
1262.397, 0.3848650
1262.879, 0.2592090
1263.361, 0.2052660
1263.843, 0.2185260
1264.325, 0.2508730
1264.807, 0.3026850
1265.289, 0.3564270
1265.771, 0.4130200
1266.254, 0.4447150
1266.736, 0.3943000
1267.218, 0.3385940
1267.700, 0.3590590
1268.182, 0.4104910
1268.664, 0.3521530
1269.146, 0.1712230
1269.628, 0.1032910
1270.111, 0.1720580
1270.593, 0.2759410
1271.075, 0.3530590
1271.557, 0.4278850
1272.039, 0.5647120
1272.521, 0.6776750
1273.003, 0.5749520
1273.485, 0.2858060
1273.968, 0.1969420
1274.450, 0.3271970
1274.932, 0.4273620
1275.414, 0.3013570
1275.896, 0.1630320
1276.378, 7.4669003E-02
1276.860, 1.6527001E-02
1277.342, 3.1005999E-02
1277.824, 8.9244001E-02
1278.307, 0.1438310
1278.789, 0.1901870
1279.271, 0.2240640
1279.753, 0.2317490
1280.235, 0.2537770
1280.717, 0.3101420
1281.199, 0.3603940
1281.681, 0.3298260
1282.163, 0.2688460
1282.646, 0.3202810
1283.128, 0.4573970
1283.610, 0.4942690
1284.092, 0.2838330
1284.574, 0.1777660
1285.056, 0.2393500
1285.538, 0.3163350
1286.020, 0.2020430
1286.503, 4.8432000E-02
1286.985, 9.2063002E-02
1287.467, 0.2755710
1287.949, 0.3643030
1288.431, 0.3319680
1288.913, 0.2221670
1289.395, 2.3197001E-02
1289.877, 0.1193980
1290.359, 3.5360001E-02
1290.842, 0.1163210
1291.324, 0.2263090
1291.806, 0.2946260
1292.288, 0.3384430
1292.770, 0.3596350
1293.252, 0.2967780
1293.734, 0.1497530
1294.216, 5.3353000E-02
1294.698, 0.1555790
1295.181, 0.2689970
1295.663, 0.2879710
1296.145, 0.2636870
1296.627, 0.2463410
1297.109, 0.2359040
1297.591, 0.2386550
1298.073, 0.1728650
1298.555, 0.1805690
1299.038, 0.1571620
1299.520, 0.1592220
1300.002, 0.2216420
1300.484, 0.2794720
1300.966, 0.2273730
1301.448, 0.1171990
1301.930, 0.1243190
1302.412, 0.2187750
1302.895, 0.2677460
1303.377, 0.1926360
1303.859, 0.1199130
1304.341, 3.5215002E-02
1304.823, 1.1230001E-03
1305.305, 0.0000000E+00
##END=



