##NAMES=Baddeleyite
##RRUFFID=R060016
##IDEAL CHEMISTRY=ZrO_2_
##LOCALITY=Wet Loo, Myanmar
##OWNER=RRUFF
##SOURCE=American Museum of Natural History
##DESCRIPTION=Brown crystal fragment
##STATUS=The identification of this mineral has been confirmed by X-ray diffraction and chemical analysis
##URL=rruff.info/R060016
##MEASURED CHEMISTRY=(Zr_0.99_Ti_0.01_)_Î£=1_O_2_
141.1358, 0.0000000E+00
141.6179, 5.0841998E-02
142.1000, 0.2576900
142.5821, 0.8793030
143.0643, 1.278076
143.5464, 2.554871
144.0285, 3.383423
144.5106, 2.658875
144.9927, 1.794769
145.4748, 0.4512940
145.9570, 1.004547
146.4391, 1.426849
146.9212, 6.9091998E-02
147.4033, 1.391541
147.8854, 2.161896
148.3675, 1.363556
148.8497, 1.224365
149.3318, 2.109009
149.8139, 3.771454
150.2960, 5.027496
150.7781, 5.229187
151.2602, 5.467926
151.7424, 6.316620
152.2245, 7.737579
152.7066, 9.770844
153.1887, 12.44525
153.6708, 15.72537
154.1529, 19.51013
154.6351, 23.70239
155.1172, 28.47012
155.5993, 33.90729
156.0814, 38.69458
156.5635, 45.55725
157.0456, 55.32260
157.5278, 67.90552
158.0099, 81.74872
158.4920, 97.78384
158.9741, 114.5137
159.4562, 130.6696
159.9383, 147.3317
160.4205, 162.1567
160.9026, 173.9992
161.3847, 182.7134
161.8668, 190.5314
162.3489, 197.5761
162.8310, 204.3422
163.3132, 211.4037
163.7953, 218.4504
164.2774, 226.2386
164.7595, 235.0863
165.2416, 245.0510
165.7237, 256.1518
166.2059, 268.6489
166.6880, 282.2884
167.1701, 296.6985
167.6522, 310.2728
168.1343, 325.4467
168.6164, 344.0079
169.0986, 366.4174
169.5807, 391.3365
170.0628, 417.0172
170.5449, 444.5584
171.0270, 475.9477
171.5091, 511.4112
171.9913, 551.5443
172.4734, 597.2331
172.9555, 649.2385
173.4376, 705.4089
173.9197, 762.5654
174.4018, 822.2599
174.8840, 888.4592
175.3661, 967.1509
175.8482, 1051.815
176.3303, 1138.185
176.8124, 1232.972
177.2945, 1311.854
177.7767, 1355.988
178.2588, 1364.856
178.7409, 1334.244
179.2230, 1240.636
179.7051, 1108.221
180.1872, 980.5129
180.6694, 859.9120
181.1515, 753.5193
181.6336, 673.1687
182.1157, 617.7442
182.5978, 579.7615
183.0799, 556.5403
183.5621, 546.5638
184.0442, 545.9928
184.5263, 554.0320
185.0084, 571.0026
185.4905, 597.2692
185.9726, 632.7953
186.4547, 678.8013
186.9369, 737.2405
187.4190, 807.6663
187.9011, 887.1024
188.3832, 980.3358
188.8653, 1078.509
189.3474, 1174.477
189.8296, 1270.410
190.3117, 1334.367
190.7938, 1340.912
191.2759, 1292.010
191.7580, 1199.167
192.2401, 1050.051
192.7223, 865.9561
193.2044, 703.5541
193.6865, 561.2835
194.1686, 441.5517
194.6507, 350.2197
195.1328, 286.2731
195.6150, 236.6794
196.0971, 201.5744
196.5792, 178.6811
197.0613, 158.4299
197.5434, 140.6685
198.0255, 125.6184
198.5077, 114.0935
198.9898, 106.1164
199.4719, 99.97318
199.9540, 95.54633
200.4361, 92.65485
200.9182, 90.46393
201.4004, 89.17566
201.8825, 87.99869
202.3646, 85.91116
202.8467, 82.74896
203.3288, 80.22910
203.8109, 78.86478
204.2931, 78.55096
204.7752, 78.22769
205.2573, 77.91183
205.7394, 77.35800
206.2215, 76.22778
206.7036, 74.42392
207.1858, 72.54391
207.6679, 70.46976
208.1500, 68.28784
208.6321, 67.55176
209.1142, 68.68716
209.5963, 70.46472
210.0785, 71.57468
210.5606, 71.84619
211.0427, 72.01636
211.5248, 72.06870
212.0069, 72.02676
212.4890, 73.09161
212.9712, 75.76035
213.4533, 78.78693
213.9354, 80.44839
214.4175, 79.91751
214.8996, 80.59732
215.3817, 83.44315
215.8639, 88.42679
216.3460, 93.80765
216.8281, 99.45465
217.3102, 105.6961
217.7923, 112.7303
218.2744, 120.4465
218.7566, 129.5125
219.2387, 140.5699
219.7208, 153.8178
220.2029, 165.0421
220.6850, 175.0274
221.1671, 181.9265
221.6493, 183.7056
222.1314, 180.4038
222.6135, 171.7487
223.0956, 156.6994
223.5777, 134.7756
224.0598, 113.7173
224.5420, 92.41681
225.0241, 72.99380
225.5062, 57.55759
225.9883, 47.31030
226.4704, 38.77750
226.9525, 31.55667
227.4347, 25.57159
227.9168, 20.47659
228.3989, 16.40945
228.8810, 13.08127
229.3631, 10.28635
229.8452, 8.108643
230.3274, 6.264496
230.8095, 4.790192
231.2916, 3.705475
231.7737, 2.432526
232.2558, 0.7643740
232.7379, 0.8766780
233.2201, 1.975677
233.7022, 2.086731
234.1843, 2.553925
234.6664, 3.888733
235.1485, 6.105804
235.6306, 7.370087
236.1128, 7.160248
236.5949, 6.543915
237.0770, 6.578400
237.5591, 7.762726
238.0412, 8.626556
238.5233, 8.816345
239.0055, 8.329559
239.4876, 8.002991
239.9697, 8.011536
240.4518, 7.981171
240.9339, 7.536224
241.4160, 6.373230
241.8982, 5.403473
242.3803, 4.881409
242.8624, 4.782928
243.3445, 4.376007
243.8266, 3.482300
244.3087, 2.477875
244.7909, 1.642853
245.2730, 0.9078980
245.7551, 0.5014340
246.2372, 0.5166630
246.7193, 0.9334720
247.2014, 1.484802
247.6836, 2.414093
248.1657, 3.194427
248.6478, 3.404663
249.1299, 2.857422
249.6120, 2.111389
250.0941, 0.9728390
250.5762, 0.4161990
251.0584, 0.7645260
251.5405, 0.6197510
252.0226, 2.116760
252.5047, 2.509949
252.9868, 1.188324
253.4689, 0.2066960
253.9511, 4.8340000E-02
254.4332, 0.2257690
254.9153, 9.7015001E-02
255.3974, 1.300140
255.8795, 2.678619
256.3617, 3.873535
256.8438, 5.114563
257.3259, 5.564941
257.8080, 4.843201
258.2901, 3.306274
258.7722, 2.395142
259.2544, 2.457062
259.7365, 2.548553
260.2186, 2.017456
260.7007, 0.4098510
261.1828, 0.4399410
261.6649, 0.2127690
262.1471, 0.7497560
262.6292, 1.466949
263.1113, 1.850159
263.5934, 2.130524
264.0755, 2.436035
264.5576, 2.824982
265.0398, 2.992950
265.5219, 2.779785
266.0040, 2.445160
266.4861, 2.623810
266.9682, 3.439911
267.4503, 4.470856
267.9325, 5.596405
268.4146, 6.950958
268.8967, 7.875183
269.3788, 8.244843
269.8609, 8.322968
270.3430, 8.564178
270.8252, 8.983185
271.3073, 9.515808
271.7894, 10.10297
272.2715, 10.72787
272.7536, 11.62085
273.2357, 12.93698
273.7179, 14.26367
274.2000, 14.81894
274.6821, 14.34457
275.1642, 14.21249
275.6463, 15.05112
276.1284, 16.86011
276.6106, 18.17917
277.0927, 18.79810
277.5748, 19.37988
278.0569, 20.78430
278.5390, 23.06424
279.0211, 25.69659
279.5032, 28.66214
279.9854, 31.87469
280.4675, 34.73840
280.9496, 37.19141
281.4317, 39.52078
281.9138, 41.92032
282.3959, 44.38092
282.8781, 47.26855
283.3602, 50.83112
283.8423, 54.89166
284.3244, 58.48331
284.8065, 61.53732
285.2886, 64.66837
285.7708, 68.44916
286.2529, 72.85358
286.7350, 77.45419
287.2171, 82.19318
287.6992, 87.06241
288.1813, 91.81778
288.6635, 96.44904
289.1456, 101.4464
289.6277, 107.5802
290.1098, 114.5898
290.5919, 120.6539
291.0740, 125.3806
291.5562, 129.4106
292.0383, 133.6933
292.5204, 138.2120
293.0025, 142.7013
293.4846, 147.0210
293.9667, 151.3596
294.4489, 156.1274
294.9310, 161.2931
295.4131, 166.7879
295.8952, 172.7175
296.3773, 179.0562
296.8594, 185.5414
297.3416, 191.8549
297.8237, 198.2671
298.3058, 205.2614
298.7879, 212.9238
299.2700, 221.3831
299.7521, 230.4756
300.2343, 240.3029
300.7164, 250.7850
301.1985, 262.4973
301.6806, 274.8383
302.1627, 286.6156
302.6448, 297.8546
303.1270, 308.8932
303.6091, 320.9312
304.0912, 332.9644
304.5733, 343.5126
305.0554, 352.6904
305.5375, 359.5338
306.0197, 362.9603
306.5018, 363.0102
306.9839, 359.9040
307.4660, 353.3065
307.9481, 343.7652
308.4302, 332.0089
308.9124, 317.3227
309.3945, 301.1728
309.8766, 284.0244
310.3587, 266.0615
310.8408, 248.9156
311.3229, 232.1354
311.8051, 217.0334
312.2872, 205.6236
312.7693, 199.6521
313.2514, 195.0914
313.7335, 188.8284
314.2156, 181.9269
314.6978, 177.3939
315.1799, 178.2399
315.6620, 180.9608
316.1441, 183.0120
316.6262, 183.5897
317.1083, 184.5468
317.5905, 186.7896
318.0726, 189.9081
318.5547, 193.2303
319.0368, 196.3433
319.5189, 199.7245
320.0010, 203.4350
320.4832, 207.3824
320.9653, 212.2407
321.4474, 218.3345
321.9295, 225.3976
322.4116, 233.1201
322.8937, 241.1649
323.3759, 250.1323
323.8580, 260.3330
324.3401, 271.7229
324.8222, 283.7655
325.3043, 295.5653
325.7864, 308.4313
326.2686, 323.3714
326.7507, 341.0111
327.2328, 360.1420
327.7149, 380.4197
328.1970, 401.7839
328.6791, 425.6109
329.1613, 454.4274
329.6434, 483.4704
330.1255, 510.3910
330.6076, 536.0013
331.0897, 558.4474
331.5718, 579.9324
332.0540, 598.1297
332.5361, 606.7050
333.0182, 604.6108
333.5003, 594.3501
333.9824, 576.1041
334.4645, 547.2294
334.9467, 517.7976
335.4288, 486.8316
335.9109, 456.1920
336.3930, 429.1732
336.8751, 404.8690
337.3572, 385.7801
337.8394, 372.7947
338.3215, 366.1356
338.8036, 362.7366
339.2857, 362.5551
339.7678, 365.7212
340.2499, 372.5592
340.7321, 383.0550
341.2142, 396.6573
341.6963, 413.4695
342.1784, 433.1701
342.6605, 454.2253
343.1426, 476.5065
343.6248, 499.9019
344.1069, 525.3729
344.5890, 552.3999
345.0711, 576.8522
345.5532, 598.7520
346.0353, 616.4848
346.5175, 627.0879
346.9996, 630.6171
347.4817, 625.4618
347.9638, 609.7298
348.4459, 584.4069
348.9280, 552.0264
349.4102, 512.1929
349.8923, 468.3979
350.3744, 423.6527
350.8565, 378.8532
351.3386, 336.4526
351.8207, 297.1515
352.3029, 261.8419
352.7850, 231.7129
353.2671, 206.4727
353.7492, 184.3519
354.2313, 163.7094
354.7134, 145.1164
355.1956, 129.3780
355.6777, 117.6032
356.1598, 108.4187
356.6419, 100.3501
357.1240, 93.44855
357.6061, 88.27142
358.0883, 85.84671
358.5704, 84.88708
359.0525, 84.21234
359.5346, 83.41418
360.0167, 83.58252
360.4988, 85.29071
360.9810, 88.33289
361.4631, 92.33835
361.9452, 97.64297
362.4273, 103.3766
362.9094, 108.8784
363.3915, 113.8648
363.8737, 120.0984
364.3558, 128.5076
364.8379, 138.1617
365.3200, 148.0565
365.8021, 158.9821
366.2842, 169.2957
366.7664, 177.7019
367.2485, 184.1476
367.7306, 192.2357
368.2127, 203.2404
368.6948, 215.5378
369.1769, 228.1300
369.6591, 240.8852
370.1412, 254.1108
370.6233, 267.8481
371.1054, 282.1110
371.5875, 296.9474
372.0696, 311.3000
372.5518, 327.3413
373.0339, 346.2465
373.5160, 368.9913
373.9981, 392.0851
374.4802, 415.7924
374.9623, 439.8750
375.4445, 463.7253
375.9266, 487.7195
376.4087, 511.1561
376.8908, 534.3474
377.3729, 557.2938
377.8550, 577.0339
378.3372, 593.7905
378.8193, 606.3095
379.3014, 612.4896
379.7835, 612.1956
380.2656, 609.5197
380.7477, 605.1666
381.2299, 599.0042
381.7120, 590.6262
382.1941, 580.1041
382.6762, 567.2572
383.1583, 552.5118
383.6404, 535.4468
384.1226, 514.9210
384.6047, 490.7246
385.0868, 463.5304
385.5689, 432.2838
386.0510, 398.0942
386.5331, 364.7595
387.0153, 333.6736
387.4974, 304.3653
387.9795, 275.5532
388.4616, 247.2379
388.9437, 221.1500
389.4258, 199.0868
389.9080, 179.9061
390.3901, 162.3774
390.8722, 146.2585
391.3543, 131.4648
391.8364, 118.1355
392.3185, 106.3209
392.8007, 95.71552
393.2828, 86.46500
393.7649, 78.18301
394.2470, 70.77722
394.7291, 64.37021
395.2112, 58.39948
395.6934, 52.46869
396.1755, 46.88220
396.6576, 42.09894
397.1397, 38.83752
397.6218, 35.81097
398.1039, 32.77362
398.5861, 29.74847
399.0682, 26.21439
399.5503, 20.69931
400.0324, 15.50507
400.5145, 12.39633
400.9966, 13.25305
401.4788, 13.53909
401.9609, 12.80917
402.4430, 11.28018
402.9251, 9.746887
403.4072, 8.080658
403.8893, 6.603729
404.3714, 5.542786
404.8535, 5.042786
405.3357, 4.278809
405.8178, 3.146759
406.2999, 1.902191
406.7820, 0.9021910
407.2641, 0.1560360
407.7462, 0.3726200
408.2284, 0.4862060
408.7105, 0.3816530
409.1926, 1.337921
409.6747, 3.496277
410.1568, 5.666473
410.6389, 6.819458
411.1211, 7.065247
411.6032, 7.018066
412.0853, 6.613403
412.5674, 6.287872
413.0495, 7.000519
413.5316, 8.527985
414.0138, 9.707916
414.4959, 9.912537
414.9780, 9.383575
415.4601, 8.146240
415.9422, 6.125671
416.4243, 4.584930
416.9065, 5.005005
417.3886, 6.466614
417.8707, 7.598938
418.3528, 8.013977
418.8349, 7.881561
419.3170, 6.955200
419.7992, 5.439240
420.2813, 4.315979
420.7634, 4.545715
421.2455, 4.945984
421.7276, 4.647797
422.2097, 3.108337
422.6919, 1.855347
423.1740, 1.556335
423.6561, 1.706177
424.1382, 1.528351
424.6203, 0.5430300
425.1024, 0.4204710
425.5846, 1.130646
426.0667, 1.565521
426.5488, 2.095428
427.0309, 2.611206
427.5130, 3.323151
427.9951, 4.439240
428.4773, 6.322845
428.9594, 7.832764
429.4415, 8.907867
429.9236, 9.558624
430.4057, 9.670441
430.8878, 8.990021
431.3700, 8.566711
431.8521, 8.927551
432.3342, 10.07495
432.8163, 11.25623
433.2984, 12.50955
433.7805, 13.67850
434.2627, 14.45007
434.7448, 14.88516
435.2269, 15.62823
435.7090, 17.00607
436.1911, 18.62915
436.6732, 19.62497
437.1554, 20.06616
437.6375, 20.52637
438.1196, 21.43134
438.6017, 22.58508
439.0838, 23.56934
439.5659, 24.25232
440.0481, 25.23801
440.5302, 27.61401
441.0123, 30.56531
441.4944, 32.72458
441.9765, 32.36279
442.4586, 32.01328
442.9408, 33.38611
443.4229, 36.31805
443.9050, 39.35416
444.3871, 42.41956
444.8692, 45.02158
445.3513, 46.69794
445.8335, 46.44800
446.3156, 46.95996
446.7977, 48.97504
447.2798, 52.00342
447.7619, 55.19400
448.2440, 58.30212
448.7262, 61.74625
449.2083, 65.56528
449.6904, 69.77213
450.1725, 74.39755
450.6546, 79.43652
451.1367, 84.83081
451.6189, 90.52066
452.1010, 96.54428
452.5831, 102.8017
453.0652, 109.1822
453.5473, 115.9973
454.0294, 124.1441
454.5116, 133.7256
454.9937, 144.1070
455.4758, 155.2043
455.9579, 166.9523
456.4400, 179.0081
456.9221, 191.4385
457.4043, 204.9573
457.8864, 220.6775
458.3685, 238.0444
458.8506, 256.2252
459.3327, 275.3598
459.8148, 294.1972
460.2970, 310.5286
460.7791, 325.3136
461.2612, 341.1448
461.7433, 359.8477
462.2254, 380.0359
462.7076, 400.3475
463.1897, 420.8430
463.6718, 441.5150
464.1539, 460.6270
464.6360, 480.5327
465.1181, 503.2689
465.6003, 531.1165
466.0824, 559.9844
466.5645, 588.4929
467.0466, 616.9525
467.5287, 646.7361
468.0108, 677.8111
468.4930, 710.5157
468.9751, 745.2534
469.4572, 782.5474
469.9393, 819.7403
470.4214, 857.5938
470.9035, 894.2341
471.3857, 928.0461
471.8678, 959.7902
472.3499, 986.8044
472.8320, 1009.990
473.3141, 1028.099
473.7962, 1038.094
474.2784, 1040.367
474.7605, 1031.513
475.2426, 1008.628
475.7247, 972.4095
476.2068, 927.0485
476.6889, 872.0886
477.1711, 811.2248
477.6532, 745.0701
478.1353, 675.9692
478.6174, 610.2431
479.0995, 549.3785
479.5816, 493.2260
480.0638, 442.2809
480.5459, 396.3208
481.0280, 355.4595
481.5101, 320.4522
481.9922, 289.9979
482.4743, 263.8444
482.9565, 242.0529
483.4386, 222.7017
483.9207, 205.6404
484.4028, 190.5283
484.8849, 177.0384
485.3670, 165.5117
485.8492, 155.3658
486.3313, 146.6849
486.8134, 139.3992
487.2955, 132.9897
487.7776, 127.8051
488.2597, 123.2474
488.7419, 119.0302
489.2240, 115.0691
489.7061, 112.1229
490.1882, 110.3940
490.6703, 109.4041
491.1524, 108.5091
491.6346, 107.6070
492.1167, 107.6367
492.5988, 108.9897
493.0809, 111.1597
493.5630, 112.6842
494.0451, 113.6009
494.5273, 114.9523
495.0094, 117.3492
495.4915, 120.6408
495.9736, 124.7201
496.4557, 129.5981
496.9378, 134.5436
497.4200, 139.1321
497.9021, 143.2783
498.3842, 146.7589
498.8663, 149.5708
499.3484, 151.6995
499.8305, 153.5094
500.3127, 154.6719
500.7948, 154.3442
501.2769, 152.7395
501.7590, 149.1389
502.2411, 142.8623
502.7232, 133.5194
503.2054, 123.6860
503.6875, 113.5725
504.1696, 103.2365
504.6517, 92.77808
505.1338, 81.39276
505.6159, 71.33704
506.0981, 63.06995
506.5802, 56.11319
507.0623, 49.39725
507.5444, 42.74615
508.0265, 36.64783
508.5086, 31.29614
508.9908, 26.62778
509.4729, 22.04095
509.9550, 17.49908
510.4371, 13.43298
510.9192, 10.42294
511.4013, 8.273315
511.8835, 6.302979
512.3655, 4.405853
512.8477, 2.643921
513.3298, 1.200500
513.8119, 4.2022999E-02
514.2940, 1.369873
514.7761, 3.382538
515.2582, 5.162720
515.7404, 6.094513
516.2225, 6.191101
516.7046, 5.601227
517.1867, 3.611328
517.6688, 1.471283
518.1509, 4.4799998E-02
518.6331, 0.2279660
519.1152, 0.4854430
519.5973, 0.3745120
520.0794, 0.5169980
520.5615, 1.708221
521.0436, 4.627258
521.5258, 7.634979
522.0079, 10.44366
522.4900, 13.05881
522.9721, 15.78040
523.4542, 18.70917
523.9363, 21.29095
524.4185, 22.97134
524.9006, 23.80313
525.3827, 25.51056
525.8648, 28.17728
526.3469, 31.35684
526.8290, 34.49020
527.3112, 37.71313
527.7933, 41.65576
528.2754, 46.80466
528.7575, 52.20032
529.2396, 56.53427
529.7217, 60.21304
530.2039, 64.32764
530.6860, 69.86044
531.1681, 75.75760
531.6502, 81.11246
532.1323, 85.93494
532.6144, 91.59421
533.0966, 99.98184
533.5787, 108.5675
534.0608, 115.5968
534.5429, 119.2385
535.0250, 123.7719
535.5071, 130.6773
535.9893, 138.1707
536.4714, 143.5947
536.9535, 146.7612
537.4356, 148.2108
537.9177, 147.9498
538.3998, 146.0444
538.8820, 142.5623
539.3641, 137.2416
539.8462, 131.7765
540.3283, 127.2122
540.8104, 123.4868
541.2925, 120.1627
541.7747, 117.3054
542.2568, 114.4149
542.7389, 110.2868
543.2210, 105.7310
543.7031, 102.6823
544.1852, 101.8993
544.6674, 102.4580
545.1495, 103.7845
545.6316, 105.8212
546.1137, 108.4216
546.5958, 111.7120
547.0779, 115.3882
547.5601, 119.0695
548.0422, 122.7198
548.5243, 127.4839
549.0064, 134.2234
549.4885, 141.7139
549.9706, 149.2149
550.4528, 156.6665
550.9349, 164.1659
551.4170, 171.7394
551.8991, 179.4629
552.3812, 187.6468
552.8633, 196.5410
553.3455, 204.8943
553.8276, 212.5295
554.3097, 219.3499
554.7918, 225.1234
555.2739, 229.7600
555.7560, 233.2745
556.2382, 236.4310
556.7203, 238.3154
557.2024, 236.5915
557.6845, 231.1160
558.1666, 223.6993
558.6487, 215.7983
559.1309, 206.8995
559.6130, 196.3621
560.0951, 183.3320
560.5772, 169.8679
561.0593, 156.6611
561.5414, 143.6707
562.0236, 131.0263
562.5057, 117.7894
562.9878, 105.7559
563.4699, 95.78424
563.9520, 87.71497
564.4341, 79.13187
564.9163, 69.12756
565.3984, 59.86755
565.8805, 52.42975
566.3626, 47.01434
566.8447, 41.99115
567.3268, 37.32800
567.8090, 32.96021
568.2911, 28.90088
568.7732, 25.10803
569.2553, 21.46149
569.7374, 17.76010
570.2195, 14.47681
570.7017, 12.49515
571.1838, 11.44724
571.6659, 10.17557
572.1480, 7.687805
572.6301, 4.927551
573.1122, 2.721161
573.5944, 1.072754
574.0765, 0.3663640
574.5586, 1.781342
575.0407, 2.888672
575.5228, 3.551849
576.0049, 3.729950
576.4871, 3.744873
576.9692, 3.345703
577.4513, 2.985809
577.9334, 3.146545
578.4155, 4.274994
578.8976, 4.807007
579.3798, 4.446075
579.8619, 3.468994
580.3440, 2.509583
580.8261, 1.572968
581.3082, 0.5975950
581.7903, 0.4802550
582.2725, 1.603577
582.7546, 2.742737
583.2367, 3.865479
583.7188, 4.487946
584.2009, 3.757904
584.6830, 2.509247
585.1652, 1.809143
585.6473, 1.816223
586.1294, 2.200806
586.6115, 2.912964
587.0936, 3.831207
587.5757, 4.818451
588.0579, 5.760834
588.5400, 6.853424
589.0221, 8.024475
589.5042, 9.378815
589.9863, 11.18594
590.4684, 13.86368
590.9506, 16.23792
591.4327, 17.69412
591.9148, 18.46216
592.3969, 20.68729
592.8790, 24.56082
593.3611, 29.07922
593.8433, 33.72580
594.3254, 38.44754
594.8075, 43.42654
595.2896, 48.68420
595.7717, 54.08347
596.2538, 59.07510
596.7360, 64.19928
597.2181, 70.54935
597.7002, 78.56201
598.1823, 87.21011
598.6644, 95.93658
599.1465, 104.7828
599.6287, 113.8550
600.1108, 122.7928
600.5929, 132.2422
601.0750, 142.5639
601.5571, 153.6481
602.0392, 164.7790
602.5214, 175.8954
603.0035, 187.2505
603.4856, 198.7537
603.9677, 210.4635
604.4498, 222.8982
604.9319, 236.2914
605.4141, 249.9638
605.8962, 262.6656
606.3783, 274.7925
606.8604, 288.0595
607.3425, 302.9416
607.8246, 318.2726
608.3068, 332.3948
608.7889, 345.8595
609.2710, 359.5785
609.7531, 374.4372
610.2352, 388.9735
610.7173, 402.5497
611.1995, 415.1613
611.6816, 426.8863
612.1637, 438.8593
612.6458, 449.0313
613.1279, 456.8019
613.6100, 461.9880
614.0922, 465.1814
614.5743, 467.0073
615.0564, 466.0584
615.5385, 461.1316
616.0206, 451.4939
616.5027, 442.2273
616.9849, 433.7745
617.4670, 424.4315
617.9491, 411.7910
618.4312, 396.4656
618.9133, 381.8702
619.3954, 368.4579
619.8776, 356.0187
620.3597, 343.7175
620.8418, 332.1783
621.3239, 323.0093
621.8060, 317.4470
622.2881, 313.6609
622.7703, 310.6386
623.2524, 308.4925
623.7345, 307.7446
624.2166, 308.8276
624.6987, 311.0693
625.1808, 314.0364
625.6630, 317.6327
626.1451, 323.0198
626.6272, 330.6527
627.1093, 339.4165
627.5914, 348.6499
628.0735, 358.3518
628.5557, 368.4287
629.0378, 378.7508
629.5199, 389.6805
630.0020, 401.9574
630.4841, 415.3103
630.9662, 429.0806
631.4484, 443.6120
631.9305, 457.4121
632.4126, 469.0633
632.8947, 478.8917
633.3768, 487.8179
633.8589, 497.7151
634.3411, 505.2303
634.8232, 508.6568
635.3053, 508.3431
635.7874, 506.4362
636.2695, 504.4668
636.7516, 499.4064
637.2338, 490.1390
637.7159, 476.5009
638.1980, 460.6974
638.6801, 442.5049
639.1622, 422.4612
639.6443, 400.2729
640.1265, 376.3293
640.6086, 352.6089
641.0907, 329.3597
641.5728, 306.5754
642.0549, 283.1353
642.5370, 260.2454
643.0192, 239.8693
643.5013, 223.3431
643.9834, 207.8400
644.4655, 190.9409
644.9476, 173.9344
645.4297, 158.3232
645.9119, 144.9193
646.3940, 132.7594
646.8761, 121.9539
647.3582, 112.2684
647.8403, 103.3635
648.3224, 95.17157
648.8046, 87.70242
649.2867, 81.00400
649.7688, 74.96774
650.2509, 69.19055
650.7330, 63.62973
651.2151, 58.22363
651.6973, 52.70029
652.1794, 47.27090
652.6615, 42.64651
653.1436, 38.86990
653.6257, 35.78036
654.1078, 33.81308
654.5900, 32.26395
655.0721, 30.27798
655.5542, 27.30539
656.0363, 24.66449
656.5184, 23.22037
657.0005, 22.19119
657.4827, 20.49432
657.9648, 17.33951
658.4469, 14.81674
658.9290, 13.27686
659.4111, 12.44836
659.8932, 11.88824
660.3754, 11.69589
660.8575, 10.81842
661.3396, 8.349457
661.8217, 5.255981
662.3038, 4.190674
662.7859, 4.897095
663.2681, 5.627991
663.7502, 5.314636
664.2323, 4.479828
664.7144, 3.466919
665.1965, 2.318085
665.6786, 1.438080
666.1608, 1.234344
666.6429, 1.186523
667.1250, 0.9736330
667.6071, 0.5029300
668.0892, 4.8553001E-02
668.5714, 0.3854680
669.0535, 0.8012390
669.5356, 1.214386
670.0177, 1.643829
670.4998, 1.924591
670.9819, 2.022827
671.4641, 2.010468
671.9462, 1.903351
672.4283, 1.756256
672.9104, 1.803650
673.3925, 2.179962
673.8746, 2.678925
674.3568, 3.252106
674.8389, 3.784302
675.3210, 4.015717
675.8031, 4.069000
676.2852, 3.572449
676.7673, 1.848114
677.2495, 0.7742920
677.7316, 2.222778
678.2137, 1.546967
678.6958, 0.9790650
679.1779, 1.469666
679.6600, 2.940735
680.1422, 3.226166
680.6243, 2.084381
681.1064, 1.188263
681.5885, 2.183929
682.0706, 4.355682
682.5527, 5.119751
683.0349, 4.315033
683.5170, 3.593597
683.9991, 4.518005
684.4812, 6.120911
684.9633, 7.257477
685.4454, 7.457550
685.9276, 8.000366
686.4097, 9.795746
686.8918, 11.93811
687.3739, 13.41647
687.8560, 13.59103
688.3381, 14.16827
688.8203, 15.28879
689.3024, 16.80020
689.7845, 18.50897
690.2666, 20.43726
690.7487, 22.35208
691.2308, 24.21710
691.7130, 25.98080
692.1951, 27.58661
692.6772, 29.04547
693.1593, 30.43655
693.6414, 31.69852
694.1235, 32.98666
694.6057, 34.57080
695.0878, 36.31589
695.5699, 37.70126
696.0520, 38.24481
696.5341, 38.70892
697.0162, 39.21756
697.4984, 39.78210
697.9805, 41.20993
698.4626, 43.86658
698.9447, 46.66907
699.4268, 49.10132
699.9089, 51.17151
700.3911, 52.59171
700.8732, 53.31104
701.3553, 54.04150
701.8374, 55.95807
702.3195, 58.14584
702.8016, 58.72415
703.2838, 57.20810
703.7659, 55.84045
704.2480, 56.14374
704.7301, 57.18085
705.2122, 58.08966
705.6943, 58.89014
706.1765, 59.22546
706.6586, 58.80917
707.1407, 58.12198
707.6228, 57.78830
708.1049, 57.99051
708.5870, 57.77054
709.0692, 56.93716
709.5513, 55.72925
710.0334, 54.61655
710.5155, 53.52390
710.9976, 52.08377
711.4797, 50.05789
711.9618, 47.78561
712.4439, 45.24036
712.9260, 42.73761
713.4081, 40.97046
713.8903, 41.44193
714.3724, 41.46249
714.8545, 39.52576
715.3366, 36.00348
715.8187, 33.56982
716.3008, 32.96713
716.7830, 32.14548
717.2651, 30.18802
717.7472, 27.32141
718.2293, 25.75894
718.7114, 25.60559
719.1935, 25.03244
719.6757, 22.22098
720.1578, 18.38931
720.6399, 15.86948
721.1220, 14.69498
721.6041, 13.71011
722.0862, 11.80020
722.5684, 10.08893
723.0505, 9.644714
723.5326, 10.98969
724.0147, 11.59805
724.4968, 10.55292
724.9789, 9.131683
725.4611, 8.102722
725.9432, 7.600586
726.4253, 6.954041
726.9074, 6.110962
727.3895, 5.225769
727.8716, 4.472626
728.3538, 3.825745
728.8359, 3.126373
729.3180, 2.293030
729.8001, 1.736908
730.2822, 2.150757
730.7643, 2.963074
731.2465, 3.376495
731.7286, 2.790100
732.2107, 2.393585
732.6928, 2.633972
733.1749, 3.149780
733.6570, 3.475922
734.1392, 3.659241
734.6213, 3.792023
735.1034, 3.641907
735.5855, 3.430573
736.0676, 4.001831
736.5497, 5.347900
737.0319, 6.742218
737.5140, 7.929047
737.9961, 8.934296
738.4782, 9.804901
738.9603, 10.57318
739.4424, 11.25574
739.9246, 11.68832
740.4067, 12.19638
740.8888, 13.01642
741.3709, 14.08621
741.8530, 15.09903
742.3351, 16.46628
742.8173, 17.27496
743.2994, 16.72382
743.7815, 15.14148
744.2636, 15.39108
744.7457, 17.70074
745.2278, 19.77554
745.7100, 19.81546
746.1921, 18.87524
746.6742, 18.97787
747.1563, 20.03296
747.6384, 21.34055
748.1205, 22.80081
748.6027, 24.11014
749.0848, 24.92972
749.5669, 25.22501
750.0490, 25.88318
750.5311, 27.88376
751.0132, 29.33759
751.4954, 29.15115
751.9775, 27.14417
752.4596, 25.62180
752.9417, 24.41602
753.4238, 24.13757
753.9059, 26.39084
754.3881, 29.81726
754.8702, 30.53015
755.3523, 28.21918
755.8344, 25.73065
756.3165, 25.37009
756.7986, 25.62961
757.2808, 25.09802
757.7629, 23.23825
758.2450, 21.82327
758.7271, 21.56671
759.2092, 21.51044
759.6913, 20.94846
760.1735, 19.69632
760.6556, 18.63046
761.1377, 17.71030
761.6198, 17.11301
762.1019, 17.27664
762.5840, 17.94565
763.0662, 18.31003
763.5483, 18.22400
764.0304, 17.78259
764.5125, 16.90219
764.9946, 15.81039
765.4767, 14.75055
765.9589, 13.75317
766.4410, 12.79343
766.9231, 11.74652
767.4052, 10.83624
767.8873, 10.37814
768.3694, 10.62894
768.8516, 10.27148
769.3337, 9.006134
769.8158, 7.522125
770.2979, 6.811707
770.7800, 6.718140
771.2621, 6.741089
771.7443, 6.852844
772.2264, 6.808319
772.7085, 6.297791
773.1906, 5.518402
773.6727, 4.769348
774.1548, 3.688049
774.6370, 3.230957
775.1191, 4.230988
775.6012, 5.640442
776.0833, 5.652191
776.5654, 3.822998
777.0475, 2.424286
777.5297, 1.871582
778.0118, 1.941925
778.4939, 2.528870
778.9760, 3.448639
779.4581, 3.984894
779.9402, 3.629700
780.4224, 3.145599
780.9045, 3.111572
781.3866, 3.382965
781.8687, 3.701416
782.3508, 4.106598
782.8329, 4.394623
783.3151, 4.433136
783.7972, 4.356628
784.2793, 4.607819
784.7614, 5.372864
785.2435, 5.363831
785.7256, 3.921997
786.2078, 1.925476
786.6899, 1.283539
787.1720, 1.668762
787.6541, 1.925232
788.1362, 1.431915
788.6183, 0.7379760
789.1005, 7.0739999E-02
789.5826, 0.5068970
790.0647, 0.8173520
790.5468, 0.3591610
791.0289, 0.2216490
791.5110, 0.8332210
791.9932, 1.842194
792.4753, 2.014862
792.9574, 1.244568
793.4395, 0.6532590
793.9216, 0.7641910
794.4037, 1.162903
794.8859, 1.035980
795.3680, 0.5231930
795.8501, 5.0384998E-02
796.3322, 4.2908002E-02
796.8143, 0.1604610
797.2964, 0.7150880
797.7786, 1.507965
798.2607, 1.810730
798.7428, 1.494324
799.2249, 0.7227170
799.7070, 0.8699040
800.1891, 2.729523
800.6713, 2.645355
801.1534, 0.5816040
801.6355, 1.101807
802.1176, 1.201202
802.5997, 0.5720520
803.0818, 0.3697200
803.5640, 0.4930110
804.0461, 0.6299130
804.5282, 0.5540160
805.0103, 0.5482790
805.4924, 0.8659060
805.9745, 1.380066
806.4567, 1.532867
806.9388, 1.220032
807.4209, 0.7405090
807.9030, 8.9478001E-02
808.3851, 0.6192930
808.8672, 1.126404
809.3494, 1.412811
809.8315, 1.273529
810.3136, 0.3099670
810.7957, 0.8471070
811.2778, 1.721802
811.7599, 2.272125
812.2421, 2.382080
812.7242, 1.407074
813.2063, 0.6547240
813.6884, 0.5863650
814.1705, 1.037994
814.6526, 1.608917
815.1348, 2.432190
815.6169, 2.821503
816.0990, 2.427673
816.5811, 1.627991
817.0632, 1.145142
817.5453, 0.9724430
818.0275, 1.086639
818.5096, 1.905884
818.9917, 2.599670
819.4738, 2.406982
819.9559, 1.658966
820.4380, 1.247803
820.9202, 1.767609
821.4023, 2.057098
821.8844, 1.726959
822.3665, 1.146759
822.8486, 1.496918
823.3307, 2.817535
823.8129, 3.629791
824.2950, 3.212677
824.7771, 2.368256
825.2592, 2.388184
825.7413, 2.922485
826.2234, 3.126587
826.7056, 1.831635
827.1877, 1.026672
827.6698, 1.995117
828.1519, 3.912994
828.6340, 4.846527
829.1161, 4.284180
829.5983, 3.913025
830.0804, 4.100098
830.5625, 4.556519
831.0446, 4.768219
831.5267, 4.746613
832.0089, 4.538666
832.4910, 4.048645
832.9731, 3.669617
833.4552, 3.841797
833.9373, 4.342072
834.4194, 4.807892
834.9016, 5.231873
835.3837, 5.488190
835.8658, 5.460236
836.3479, 5.340790
836.8300, 5.424530
837.3121, 5.725922
837.7943, 6.135376
838.2764, 6.730530
838.7585, 7.143463
839.2406, 6.381989
839.7227, 5.125549
840.2048, 4.912109
840.6870, 6.692627
841.1691, 8.394012
841.6512, 9.149658
842.1333, 9.239807
842.6154, 8.956696
843.0975, 8.052124
843.5797, 7.405792
844.0618, 7.103607
844.5439, 6.958527
845.0260, 6.709106
845.5081, 6.419617
845.9902, 6.499573
846.4724, 7.066925
846.9545, 7.589966
847.4366, 7.478851
847.9187, 7.148804
848.4008, 7.144318
848.8829, 7.802551
849.3651, 7.957031
849.8472, 7.018829
850.3293, 6.016205
850.8114, 5.815552
851.2935, 6.518707
851.7756, 6.842224
852.2578, 6.706268
852.7399, 6.412598
853.2220, 6.116852
853.7041, 5.889343
854.1862, 5.837860
854.6683, 5.980927
855.1505, 6.194305
855.6326, 6.465393
856.1147, 6.722046
856.5968, 6.965942
857.0789, 7.222504
857.5610, 6.950378
858.0432, 5.943512
858.5253, 5.016144
859.0074, 4.745026
859.4895, 4.990051
859.9716, 5.479797
860.4537, 6.163574
860.9359, 6.717102
861.4180, 6.743103
861.9001, 6.746063
862.3822, 7.349060
862.8643, 8.497223
863.3464, 8.651276
863.8286, 7.093231
864.3107, 5.610260
864.7928, 4.796783
865.2749, 4.545715
865.7570, 4.499054
866.2391, 4.623383
866.7213, 4.648743
867.2034, 4.237915
867.6855, 3.860901
868.1676, 4.230194
868.6497, 5.077057
869.1318, 5.606628
869.6140, 5.462616
870.0961, 5.028778
870.5782, 4.076233
871.0603, 3.004486
871.5424, 3.026337
872.0245, 4.312500
872.5067, 5.161377
872.9888, 4.958832
873.4709, 4.448425
873.9530, 5.051422
874.4351, 6.174622
874.9172, 6.507599
875.3994, 5.035553
875.8815, 3.604523
876.3636, 2.956818
876.8457, 2.744934
877.3278, 2.420044
877.8099, 1.777344
878.2921, 1.720276
878.7742, 2.532104
879.2563, 3.495483
879.7384, 3.783356
880.2205, 3.478699
880.7026, 2.691528
881.1848, 1.292511
881.6669, 0.2286380
882.1490, 0.4568480
882.6311, 1.108551
883.1132, 1.357819
883.5953, 0.8475950
884.0775, 0.8492740
884.5596, 1.682739
885.0417, 2.364349
885.5238, 1.902588
886.0059, 0.5673520
886.4880, 0.2101140
886.9702, 0.8505860
887.4523, 1.361389
887.9344, 0.5280760
888.4165, 0.5110170
888.8986, 0.6682130
889.3807, 0.1113280
889.8629, 0.6250310
890.3450, 0.5545350
890.8271, 0.4209590
891.3092, 0.3804320
891.7913, 0.4463810
892.2734, 0.6645810
892.7556, 1.033936
893.2377, 1.550385
893.7198, 2.604065
894.2019, 3.474548
894.6840, 3.245544
895.1661, 2.222717
895.6483, 1.265137
896.1304, 5.7434000E-02
896.6125, 0.3580320
897.0946, 1.151123
897.5767, 3.494476
898.0588, 4.504639
898.5410, 4.154175
899.0231, 3.745117
899.5052, 3.527466
899.9873, 3.496033
900.4694, 3.922791
900.9515, 4.451752
901.4337, 4.407593
901.9158, 3.029572
902.3979, 2.216614
902.8800, 3.256897
903.3621, 4.548706
903.8442, 4.573303
904.3264, 2.980530
904.8085, 2.356628
905.2906, 2.967590
905.7727, 3.620270
906.2548, 2.819763
906.7369, 1.427704
907.2191, 0.8982540
907.7012, 1.399170
908.1833, 2.091309
908.6654, 2.742371
909.1475, 3.366455
909.6296, 4.097137
910.1118, 4.924927
910.5939, 4.945801
911.0760, 3.999359
911.5581, 3.107635
912.0402, 3.026001
912.5223, 3.278137
913.0045, 2.590973
913.4866, 1.314117
913.9687, 0.7699580
914.4508, 2.549194
914.9329, 4.168884
915.4150, 4.433472
915.8972, 3.779785
916.3793, 3.284851
916.8614, 2.970459
917.3435, 2.747223
917.8256, 2.594177
918.3077, 2.545654
918.7899, 2.858093
919.2720, 3.305847
919.7541, 3.293976
920.2362, 2.496338
920.7183, 1.600708
921.2004, 0.4938660
921.6826, 0.2812500
922.1647, 0.1148680
922.6468, 1.524384
923.1289, 2.455109
923.6110, 2.554108
924.0931, 2.320984
924.5753, 2.178497
925.0574, 2.074951
925.5395, 1.813873
926.0216, 1.392151
926.5037, 1.211639
926.9858, 2.023560
927.4680, 2.681641
927.9501, 2.247894
928.4322, 0.8321840
928.9143, 5.0629001E-02
929.3964, 0.3859250
929.8785, 0.2102050
930.3607, 0.6838990
930.8428, 1.895782
931.3249, 2.472565
931.8070, 2.570557
932.2891, 2.704773
932.7712, 3.460938
933.2534, 3.911346
933.7355, 3.382416
934.2176, 2.364746
934.6997, 1.849152
935.1818, 2.006348
935.6639, 2.104218
936.1461, 2.098450
936.6282, 1.887726
937.1103, 1.103302
937.5924, 5.4138001E-02
938.0745, 0.5318910
938.5566, 0.4420780
939.0388, 0.3052370
939.5209, 0.6268920
940.0030, 0.8589480
940.4851, 0.5500180
940.9672, 0.3784480
941.4493, 1.182098
941.9315, 1.895996
942.4136, 2.275421
942.8957, 1.973755
943.3778, 1.278839
943.8599, 0.6134030
944.3420, 3.5521999E-02
944.8242, 0.2288820
945.3063, 3.8054999E-02
945.7884, 0.4607540
946.2705, 1.575928
946.7526, 2.908508
947.2347, 3.197601
947.7169, 2.200043
948.1990, 1.704254
948.6811, 2.285461
949.1632, 3.310394
949.6453, 3.728699
950.1274, 3.957275
950.6096, 4.818359
951.0917, 6.910522
951.5738, 8.807373
952.0559, 10.83234
952.5380, 11.87732
953.0201, 10.67874
953.5023, 6.783630
953.9844, 4.091614
954.4665, 2.723999
954.9486, 2.117126
955.4307, 2.138000
955.9128, 2.431183
956.3950, 2.565155
956.8771, 2.526337
957.3591, 2.458313
957.8412, 1.853516
958.3234, 1.980896
958.8055, 3.845978
959.2876, 6.575195
959.7697, 6.345123
960.2518, 3.226349
960.7339, 0.8471070
961.2161, 0.6502080
961.6982, 1.427032
962.1803, 2.405487
962.6624, 3.303253
963.1445, 3.688080
963.6266, 2.836304
964.1088, 2.386932
964.5909, 2.625153
965.0730, 3.009033
965.5551, 3.009888
966.0372, 2.650787
966.5193, 1.977631
967.0015, 0.9891050
967.4836, 0.3492430
967.9657, 1.094727
968.4478, 2.026611
968.9299, 1.924744
969.4120, 0.7356260
969.8942, 0.4133000
970.3763, 1.532166
970.8584, 2.472046
971.3405, 2.623749
971.8226, 2.238892
972.3047, 1.993256
972.7869, 1.826782
973.2690, 1.462006
973.7511, 0.4414370
974.2332, 0.2989500
974.7153, 0.1446840
975.1974, 1.015045
975.6796, 1.212738
976.1617, 0.1683960
976.6438, 0.3186040
977.1259, 0.1433110
977.6080, 0.5077510
978.0901, 1.800018
978.5723, 3.316620
979.0544, 4.164490
979.5365, 4.257721
980.0186, 4.208130
980.5007, 4.185547
980.9828, 4.214172
981.4650, 4.417175
981.9471, 4.708893
982.4292, 4.406372
982.9113, 3.438660
983.3934, 2.705658
983.8755, 2.535492
984.3577, 2.697510
984.8398, 3.143311
985.3219, 3.621033
985.8040, 3.643311
986.2861, 2.222839
986.7682, 1.589111
987.2504, 2.442657
987.7325, 3.732849
988.2146, 4.362549
988.6967, 4.293243
989.1788, 3.551605
989.6609, 2.104492
990.1431, 0.8614810
990.6252, 0.6566470
991.1073, 0.8780520
991.5894, 0.9728090
992.0715, 0.9265140
992.5536, 1.296417
993.0358, 2.482849
993.5179, 3.349579
994.0000, 3.372559
994.4821, 2.907349
994.9642, 2.805054
995.4464, 2.949860
995.9285, 2.888092
996.4106, 2.215729
996.8927, 1.815491
997.3748, 2.468170
997.8569, 3.435120
998.3391, 3.904327
998.8212, 3.749054
999.3033, 3.484650
999.7854, 3.115997
1000.268, 2.667755
1000.750, 1.840088
1001.232, 1.117126
1001.714, 1.734985
1002.196, 3.478394
1002.678, 4.299835
1003.160, 2.038574
1003.642, 0.3728030
1004.124, 0.6397090
1004.607, 2.166168
1005.089, 3.107330
1005.571, 3.413818
1006.053, 3.431061
1006.535, 3.178955
1007.017, 2.836395
1007.499, 2.400879
1007.981, 2.045502
1008.464, 1.948395
1008.946, 2.100159
1009.428, 2.766693
1009.910, 4.328125
1010.392, 5.620728
1010.874, 5.600616
1011.356, 4.682343
1011.838, 4.199860
1012.320, 4.144623
1012.803, 4.319763
1013.285, 4.882782
1013.767, 5.384705
1014.249, 5.652191
1014.731, 5.693634
1015.213, 5.475555
1015.695, 4.951202
1016.177, 4.481659
1016.659, 4.143097
1017.142, 3.815521
1017.624, 3.393463
1018.106, 2.877686
1018.588, 2.165771
1019.070, 1.148376
1019.552, 0.5613400
1020.034, 0.6856990
1020.516, 1.104919
1020.999, 1.774353
1021.481, 2.579498
1021.963, 2.871338
1022.445, 2.691376
1022.927, 2.314240
1023.409, 1.407318
1023.891, 0.8915710
1024.373, 1.993256
1024.855, 3.707062
1025.338, 4.166260
1025.820, 2.658112
1026.302, 1.757874
1026.784, 1.692261
1027.266, 2.003540
1027.748, 2.412781
1028.230, 2.785919
1028.712, 2.858154
1029.195, 2.617645
1029.677, 2.251740
1030.159, 1.426147
1030.641, 1.002899
1031.123, 1.601715
1031.605, 2.707123
1032.087, 2.178894
1032.569, 0.1616820
1033.052, 0.8910220
1033.534, 0.1405330
1034.016, 1.500092
1034.498, 1.483612
1034.980, 0.9450380
1035.462, 0.9263310
1035.944, 1.895172
1036.426, 2.455750
1036.908, 2.560913
1037.391, 2.398071
1037.873, 1.893860
1038.355, 1.280731
1038.837, 1.390778
1039.319, 2.013550
1039.801, 2.188416
1040.283, 0.5949710
1040.765, 0.4613650
1041.247, 3.1982001E-02
1041.730, 1.305450
1042.212, 2.328369
1042.694, 3.099854
1043.176, 3.096771
1043.658, 2.189880
1044.140, 1.024109
1044.622, 0.3708190
1045.104, 1.362061
1045.587, 1.108337
1046.069, 0.5731810
1046.551, 1.732819
1047.033, 2.192657
1047.515, 2.404877
1047.997, 2.559418
1048.479, 2.308594
1048.961, 2.096558
1049.443, 1.315094
1049.926, 0.5426640
1050.408, 0.3434450
1050.890, 0.7627260
1051.372, 0.2261960
1051.854, 0.6842040
1052.336, 1.652100
1052.818, 2.717590
1053.300, 2.768341
1053.782, 1.790466
1054.265, 0.9546200
1054.747, 1.361603
1055.229, 2.034515
1055.711, 2.169220
1056.193, 1.862915
1056.675, 1.543945
1057.157, 1.090240
1057.639, 1.112335
1058.122, 1.892700
1058.604, 2.703979
1059.086, 2.197571
1059.568, 1.168335
1060.050, 1.515442
1060.532, 3.680939
1061.014, 4.751221
1061.496, 2.224915
1061.979, 8.7952003E-02
1062.461, 0.4885250
1062.943, 0.6467290
1063.425, 1.732697
1063.907, 2.723877
1064.389, 3.171478
1064.871, 2.685333
1065.353, 2.026154
1065.835, 1.702148
1066.318, 1.582794
1066.800, 1.513519
1067.282, 1.565491
1067.764, 1.279755
1068.246, 0.5209350
1068.728, 6.4911000E-02
1069.210, 0.7958680
1069.692, 2.043945
1070.174, 2.701752
1070.657, 2.899017
1071.139, 3.260040
1071.621, 4.650696
1072.103, 5.244934
1072.585, 4.527740
1073.067, 3.201691
1073.549, 2.182068
1074.031, 1.474030
1074.514, 1.006439
1074.996, 0.7743230
1075.478, 0.8328860
1075.960, 1.567902
1076.442, 2.288635
1076.924, 2.569580
1077.406, 2.454376
1077.888, 2.062653
1078.370, 1.368011
1078.853, 0.8828740
1079.335, 0.7534790
1079.817, 0.9849850
1080.299, 2.058685
1080.781, 3.282013
1081.263, 3.618774
1081.745, 2.235718
1082.227, 1.871582
1082.709, 3.020081
1083.192, 3.948578
1083.674, 3.137573
1084.156, 1.436615
1084.638, 0.9708560
1085.120, 1.522003
1085.602, 2.317963
1086.084, 3.483185
1086.566, 4.275085
1087.048, 4.464020
1087.531, 4.287537
1088.013, 3.974915
1088.495, 3.529175
1088.977, 2.915192
1089.459, 2.131439
1089.941, 1.611969
1090.423, 1.924683
1090.905, 2.319214
1091.388, 2.417999
1091.870, 2.236664
1092.352, 2.037018
1092.834, 1.770782
1093.316, 1.917084
1093.798, 2.744415
1094.280, 3.448792
1094.762, 2.647980
1095.245, 1.397980
1095.727, 1.190399
1096.209, 2.532257
1096.691, 2.941528
1097.173, 1.857056
1097.655, 0.8315120
1098.137, 0.5677800
1098.619, 0.7859800
1099.101, 1.177032
1099.583, 1.579803
1100.066, 1.624329
1100.548, 0.6861270
1101.030, 4.6936002E-02
1101.512, 0.1227720
1101.994, 0.5286560
1102.476, 1.108337
1102.958, 1.786499
1103.440, 1.872314
1103.923, 1.482758
1104.405, 1.311859
1104.887, 2.187561
1105.369, 3.011505
1105.851, 3.079834
1106.333, 3.278412
1106.815, 3.153076
1107.297, 2.616180
1107.780, 2.233185
1108.262, 1.201813
1108.744, 0.1835330
1109.226, 0.2201230
1109.708, 0.2345890
1110.190, 0.1169130
1110.672, 0.1471860
1111.154, 0.8896480
1111.636, 2.527191
1112.119, 3.426758
1112.601, 3.073273
1113.083, 2.206207
1113.565, 1.749146
1114.047, 1.476410
1114.529, 0.9684140
1115.011, 6.1675999E-02
1115.493, 0.5038760
1115.975, 0.3392940
1116.458, 0.1701970
1116.940, 0.3990780
1117.422, 0.7807010
1117.904, 0.4414370
1118.386, 0.4439700
1118.868, 1.333649
1119.350, 2.261200
1119.832, 2.669098
1120.315, 1.511292
1120.797, 0.5076290
1121.279, 1.178864
1121.761, 3.492035
1122.243, 3.943970
1122.725, 2.660400
1123.207, 1.580200
1123.689, 1.931396
1124.172, 2.799225
1124.654, 4.062347
1125.136, 5.259857
1125.618, 5.581146
1126.100, 4.851471
1126.582, 4.238892
1127.064, 3.897797
1127.546, 3.418823
1128.028, 2.097992
1128.510, 0.7414550
1128.993, 0.2070920
1129.475, 0.4343570
1129.957, 0.8303830
1130.439, 1.421997
1130.921, 1.982880
1131.403, 2.537964
1131.885, 2.853577
1132.367, 2.250977
1132.850, 1.386719
1133.332, 1.489471
1133.814, 2.725250
1134.296, 3.294159
1134.778, 2.323761
1135.260, 1.514526
1135.742, 1.460480
1136.224, 1.761078
1136.707, 1.505524
1137.189, 0.9135740
1137.671, 0.5308530
1138.153, 0.4713750
1138.635, 0.6646420
1139.117, 1.360870
1139.599, 2.024139
1140.081, 2.383636
1140.563, 2.496185
1141.046, 2.701782
1141.528, 2.950470
1142.010, 2.961823
1142.492, 2.384827
1142.974, 1.977264
1143.456, 2.268341
1143.938, 2.812622
1144.420, 3.283630
1144.902, 3.700104
1145.385, 3.457916
1145.867, 2.599396
1146.349, 2.063049
1146.831, 2.740051
1147.313, 3.626282
1147.795, 4.263092
1148.277, 4.526428
1148.759, 4.146393
1149.242, 2.858856
1149.724, 2.472168
1150.206, 3.143341
1150.688, 3.833801
1151.170, 3.500275
1151.652, 2.941132
1152.134, 3.000702
1152.616, 2.801208
1153.099, 2.627777
1153.581, 2.899719
1154.063, 2.637665
1154.545, 2.933838
1155.027, 3.389496
1155.509, 3.955353
1155.991, 4.175720
1156.473, 2.993744
1156.955, 0.5099490
1157.438, 0.5164490
1157.920, 0.7922970
1158.402, 1.918274
1158.884, 2.228485
1159.366, 2.168091
1159.848, 2.323425
1160.330, 2.561127
1160.812, 2.627380
1161.294, 2.454498
1161.777, 2.417297
1162.259, 2.638947
1162.741, 2.909088
1163.223, 3.183563
1163.705, 3.419769
1164.187, 3.500549
1164.669, 3.467957
1165.151, 3.412872
1165.634, 3.323425
1166.116, 3.325378
1166.598, 3.586975
1167.080, 3.718140
1167.562, 3.528564
1168.044, 3.104065
1168.526, 2.789246
1169.008, 2.498352
1169.490, 1.878937
1169.973, 0.3871460
1170.455, 0.6235050
1170.937, 0.3793640
1171.419, 0.2356570
1171.901, 0.7291870
1172.383, 1.098267
1172.865, 1.288788
1173.347, 1.304169
1173.829, 1.316162
1174.312, 1.400055
1174.794, 1.451080
1175.276, 1.457336
1175.758, 1.420685
1176.240, 1.276215
1176.722, 0.9930110
1177.204, 0.8451230
1177.686, 0.8343810
1178.169, 0.9276430
1178.651, 1.277252
1179.133, 1.534546
1179.615, 1.424744
1180.097, 1.148102
1180.579, 0.9895320
1181.061, 0.9529720
1181.543, 0.9450680
1182.026, 0.9562380
1182.508, 0.8453980
1182.990, 8.2824998E-02
1183.472, 0.4176330
1183.954, 0.3058780
1184.436, 1.644165
1184.918, 2.248444
1185.400, 2.088867
1185.882, 1.907440
1186.365, 1.645996
1186.847, 1.372498
1187.329, 0.7531130
1187.811, 0.2294920
1188.293, 7.5286999E-02
1188.775, 0.2679750
1189.257, 0.7975770
1189.739, 1.714569
1190.221, 2.303070
1190.704, 2.414185
1191.186, 2.243164
1191.668, 1.569946
1192.150, 1.013977
1192.632, 1.436066
1193.114, 2.644684
1193.596, 2.698822
1194.078, 1.441620
1194.561, 0.5143740
1195.043, 0.3677980
1195.525, 0.6901550
1196.007, 1.583008
1196.489, 2.503357
1196.971, 2.874542
1197.453, 2.662811
1197.935, 2.300659
1198.417, 1.748688
1198.900, 1.415131
1199.382, 1.471985
1199.864, 1.755463
1200.346, 2.496979
1200.828, 3.134460
1201.310, 2.829559
1201.792, 1.389709
1202.274, 0.6142580
1202.756, 0.5587460
1203.239, 0.7248230
1203.721, 0.9941100
1204.203, 1.210144
1204.685, 1.126831
1205.167, 0.9142760
1205.649, 0.7800600
1206.131, 0.7108760
1206.613, 0.9661560
1207.096, 1.618744
1207.578, 1.952759
1208.060, 1.387390
1208.542, 0.5634770
1209.024, 4.4769000E-02
1209.506, 0.2031860
1209.988, 0.1562810
1210.470, 0.3043210
1210.953, 0.4365230
1211.435, 0.1800840
1211.917, 0.1359560
1212.399, 0.9552920
1212.881, 1.924927
1213.363, 2.379425
1213.845, 2.429932
1214.327, 2.245605
1214.809, 1.716492
1215.292, 1.293182
1215.774, 1.039215
1216.256, 1.163818
1216.738, 2.367401
1217.220, 3.541748
1217.702, 3.311310
1218.184, 2.341827
1218.666, 2.136169
1219.148, 3.051208
1219.631, 3.530304
1220.113, 3.489655
1220.595, 3.193298
1221.077, 2.431213
1221.559, 1.897369
1222.041, 2.564392
1222.523, 3.890198
1223.005, 4.532471
1223.488, 4.374969
1223.970, 3.904541
1224.452, 3.126404
1224.934, 2.347107
1225.416, 1.312103
1225.898, 0.8264160
1226.380, 2.351685
1226.862, 4.847656
1227.344, 5.296356
1227.827, 3.234253
1228.309, 1.996155
1228.791, 1.959290
1229.273, 2.450928
1229.755, 3.377045
1230.237, 4.116577
1230.719, 4.037384
1231.201, 3.384460
1231.683, 2.920197
1232.166, 2.668640
1232.648, 2.299103
1233.130, 1.755066
1233.612, 1.398743
1234.094, 1.611877
1234.576, 2.033661
1235.058, 2.393494
1235.540, 2.763153
1236.023, 3.601379
1236.505, 4.936554
1236.987, 4.766022
1237.469, 2.749146
1237.951, 0.8190000
1238.433, 0.3408810
1238.915, 0.5887760
1239.397, 1.477600
1239.880, 2.626282
1240.362, 3.283722
1240.844, 3.456787
1241.326, 3.302979
1241.808, 2.871368
1242.290, 2.089874
1242.772, 1.0010000E-02
1243.254, 1.362823
1243.736, 0.3775940
1244.219, 1.233490
1244.701, 1.866699
1245.183, 0.3971250
1245.665, 0.7807620
1246.147, 3.734558
1246.629, 5.961975
1247.111, 4.937439
1247.593, 3.472046
1248.075, 2.632568
1248.558, 2.378632
1249.040, 2.932373
1249.522, 4.043915
1250.004, 4.622162
1250.486, 4.470642
1250.968, 4.202209
1251.450, 4.173431
1251.932, 3.932861
1252.415, 3.217102
1252.897, 2.345337
1253.379, 1.968536
1253.861, 2.003723
1254.343, 2.327301
1254.825, 2.951660
1255.307, 3.362305
1255.789, 3.215881
1256.271, 3.091125
1256.754, 3.164795
1257.236, 3.303497
1257.718, 3.214478
1258.200, 3.077576
1258.682, 3.213043
1259.164, 3.726685
1259.646, 3.895111
1260.128, 3.480377
1260.610, 3.041962
1261.093, 2.733063
1261.575, 2.522034
1262.057, 2.261230
1262.539, 2.122772
1263.021, 2.509033
1263.503, 3.526062
1263.985, 3.931335
1264.467, 3.498749
1264.950, 3.084290
1265.432, 2.931671
1265.914, 2.920502
1266.396, 3.046692
1266.878, 3.142853
1267.360, 2.961273
1267.842, 2.474579
1268.324, 2.173676
1268.807, 2.087189
1269.289, 1.837067
1269.771, 1.138733
1270.253, 0.8914790
1270.735, 2.831848
1271.217, 4.992371
1271.699, 5.294434
1272.181, 4.003601
1272.663, 2.633331
1273.146, 1.196350
1273.628, 0.4294130
1274.110, 0.5853880
1274.592, 0.9475400
1275.074, 1.933838
1275.556, 2.724518
1276.038, 2.421478
1276.520, 1.407715
1277.002, 1.243896
1277.485, 1.782806
1277.967, 2.123230
1278.449, 2.028351
1278.931, 1.818665
1279.413, 1.465240
1279.895, 1.276001
1280.377, 1.434265
1280.859, 1.795898
1281.342, 2.059326
1281.824, 2.213623
1282.306, 2.168457
1282.788, 1.850220
1283.270, 1.777740
1283.752, 2.443695
1284.234, 2.797821
1284.716, 2.367584
1285.198, 1.654968
1285.681, 1.644745
1286.163, 1.989288
1286.645, 2.031738
1287.127, 1.636963
1287.609, 1.342926
1288.091, 1.146881
1288.573, 1.230133
1289.055, 1.707977
1289.537, 2.267792
1290.020, 2.679840
1290.502, 2.892548
1290.984, 2.585297
1291.466, 1.768463
1291.948, 1.945038
1292.430, 3.357330
1292.912, 3.847473
1293.394, 2.636566
1293.877, 1.407898
1294.359, 2.113251
1294.841, 3.214722
1295.323, 3.315063
1295.805, 2.641235
1296.287, 2.055237
1296.769, 1.549194
1297.251, 1.070496
1297.734, 0.5957030
1298.216, 0.2321780
1298.698, 0.1611630
1299.180, 0.1341550
1299.662, 0.6820070
1300.144, 1.879913
1300.626, 2.436523
1301.108, 2.542389
1301.590, 2.966644
1302.073, 3.420105
1302.555, 3.159760
1303.037, 1.445404
1303.519, 0.1530460
1304.001, 0.4059750
1304.483, 0.7771300
1304.965, 0.0000000E+00
##END=



