##NAMES=Bahianite
##RRUFFID=R060433
##IDEAL CHEMISTRY=Al_5_Sb^5+^_3_O_14_(OH)_2_
##LOCALITY=Paramirim Region, Bahia, Brazil
##OWNER=RRUFF
##SOURCE=Michael Scott
##DESCRIPTION=Tan colored water-worn polycrystalline pebble
##STATUS=The identification of this mineral is confirmed by single-crystal X-ray diffraction and chemical analysis.
##URL=rruff.info/R060433
##MEASURED CHEMISTRY=lighter phase: (Al_4.89_Fe^3+^_0.10_[box]_0.01_)_Σ=5_(Sb^5+^_2.97_W_0.03_)_Σ=3_O_14_(OH)_2_ ; darker phase: (Al_4.91_Fe^3+^_0.09_)_Σ=5_Sb^5+^_3.00_O_14_(OH)_2_
140.2111, 0.0000000E+00
140.6932, 0.2310590
141.1753, 0.3394930
141.6575, 0.3352000
142.1396, 0.6387610
142.6217, 0.6619620
143.1038, 0.3369620
143.5859, 2.5288999E-02
144.0681, 0.2394910
144.5502, 0.3060400
145.0323, 0.2397880
145.5144, 2.5976000E-02
145.9965, 0.3838420
146.4786, 0.8404010
146.9608, 1.277727
147.4429, 1.699841
147.9250, 2.155937
148.4071, 2.705713
148.8892, 3.265406
149.3713, 3.682920
149.8535, 3.815922
150.3356, 3.956532
150.8177, 4.167297
151.2998, 4.407146
151.7819, 4.801231
152.2640, 5.388498
152.7462, 6.128702
153.2283, 6.927654
153.7104, 7.405109
154.1925, 8.244015
154.6746, 9.755714
155.1567, 12.47534
155.6389, 14.91537
156.1210, 16.77432
156.6031, 18.22892
157.0852, 19.74440
157.5673, 21.40971
158.0495, 23.15046
158.5316, 24.93911
159.0137, 26.62593
159.4958, 28.54747
159.9779, 30.87772
160.4600, 33.54170
160.9422, 36.29467
161.4243, 39.04964
161.9064, 41.86843
162.3885, 44.75974
162.8706, 47.50631
163.3527, 50.63848
163.8349, 54.62082
164.3170, 59.29801
164.7991, 63.92764
165.2812, 68.96032
165.7633, 73.44374
166.2454, 76.52780
166.7276, 78.10162
167.2097, 78.06142
167.6918, 76.21138
168.1739, 72.61898
168.6560, 67.76263
169.1381, 60.85676
169.6203, 53.10648
170.1024, 45.40131
170.5845, 38.60436
171.0666, 32.85315
171.5487, 28.05415
172.0309, 24.18713
172.5130, 21.10865
172.9951, 19.10598
173.4772, 17.75634
173.9593, 16.40071
174.4414, 14.72660
174.9236, 12.95566
175.4057, 11.17290
175.8878, 9.355087
176.3699, 8.016171
176.8520, 7.859100
177.3341, 8.488071
177.8163, 9.051929
178.2984, 9.166679
178.7805, 9.005001
179.2626, 8.724518
179.7447, 8.304546
180.2268, 8.011925
180.7090, 8.175846
181.1911, 8.698177
181.6732, 9.280983
182.1553, 9.801582
182.6374, 10.28537
183.1195, 10.66217
183.6017, 10.88261
184.0838, 11.31539
184.5659, 12.62014
185.0480, 14.62189
185.5301, 16.51914
186.0123, 17.84805
186.4944, 18.76242
186.9765, 19.65039
187.4586, 20.51888
187.9407, 21.42787
188.4228, 22.50108
188.9050, 23.71713
189.3871, 24.93346
189.8692, 25.97333
190.3513, 26.90150
190.8334, 28.13943
191.3155, 29.75816
191.7977, 31.53045
192.2798, 32.97131
192.7619, 34.08158
193.2440, 35.49200
193.7261, 37.46487
194.2082, 39.99762
194.6904, 43.26756
195.1725, 47.40886
195.6546, 52.04566
196.1367, 56.18291
196.6188, 59.77129
197.1009, 63.76146
197.5831, 68.88933
198.0652, 75.06872
198.5473, 80.97927
199.0294, 86.83263
199.5115, 91.99527
199.9937, 95.22940
200.4758, 96.47591
200.9579, 96.05208
201.4400, 93.60732
201.9221, 88.97013
202.4042, 84.95580
202.8864, 82.19444
203.3685, 79.67239
203.8506, 74.64838
204.3327, 66.63856
204.8148, 58.29612
205.2969, 50.70282
205.7791, 43.70819
206.2612, 38.57496
206.7433, 35.60430
207.2254, 34.34409
207.7075, 33.79069
208.1896, 34.07247
208.6718, 34.68205
209.1539, 35.25658
209.6360, 35.63470
210.1181, 36.78060
210.6002, 38.89136
211.0823, 41.71658
211.5645, 44.55875
212.0466, 47.37646
212.5287, 50.34880
213.0108, 53.49472
213.4929, 56.72434
213.9750, 60.57301
214.4572, 65.20547
214.9393, 70.42465
215.4214, 75.82371
215.9035, 81.43657
216.3856, 87.18012
216.8678, 92.92973
217.3499, 98.82002
217.8320, 104.5980
218.3141, 110.4146
218.7962, 116.0165
219.2783, 120.5551
219.7605, 123.9224
220.2426, 126.3108
220.7247, 127.8520
221.2068, 128.7097
221.6889, 128.3031
222.1710, 126.6322
222.6532, 123.6754
223.1353, 119.5042
223.6174, 114.3529
224.0995, 107.5346
224.5816, 98.43767
225.0637, 85.80268
225.5459, 73.81389
226.0280, 62.49191
226.5101, 51.88098
226.9922, 42.41562
227.4743, 33.75941
227.9564, 26.63025
228.4386, 21.46169
228.9207, 19.16070
229.4028, 16.81237
229.8849, 14.19050
230.3670, 11.52555
230.8492, 9.401550
231.3313, 7.947929
231.8134, 6.863960
232.2955, 6.045822
232.7776, 5.653503
233.2597, 5.174080
233.7419, 4.532387
234.2240, 3.822105
234.7061, 3.298264
235.1882, 2.994949
235.6703, 2.827164
236.1524, 2.719879
236.6346, 2.482391
237.1167, 2.770905
237.5988, 3.742981
238.0809, 5.177971
238.5630, 6.598869
239.0451, 7.980553
239.5273, 9.365730
240.0094, 10.69567
240.4915, 11.70088
240.9736, 13.37850
241.4557, 15.88180
241.9378, 18.99307
242.4200, 22.31754
242.9021, 26.18451
243.3842, 29.80717
243.8663, 32.85700
244.3484, 35.13650
244.8306, 37.43246
245.3127, 39.70757
245.7948, 41.99691
246.2769, 44.34108
246.7590, 46.65303
247.2411, 49.15833
247.7233, 51.93463
248.2054, 55.04632
248.6875, 58.09122
249.1696, 60.84305
249.6517, 63.71411
250.1338, 67.31831
250.6160, 71.82449
251.0981, 76.69606
251.5802, 81.52945
252.0623, 86.06480
252.5444, 92.04391
253.0265, 99.56983
253.5087, 108.4146
253.9908, 118.0521
254.4729, 128.3292
254.9550, 139.8492
255.4371, 153.1491
255.9192, 168.3960
256.4014, 183.1375
256.8835, 197.5599
257.3656, 211.2946
257.8477, 224.8879
258.3298, 240.2541
258.8120, 251.3767
259.2941, 257.7849
259.7762, 259.7188
260.2583, 251.7474
260.7404, 230.9748
261.2225, 203.7937
261.7047, 175.3769
262.1868, 143.6849
262.6689, 115.9473
263.1510, 93.72870
263.6331, 77.11579
264.1152, 62.69601
264.5974, 50.64346
265.0795, 40.67381
265.5616, 33.04384
266.0437, 28.11647
266.5258, 23.96935
267.0079, 20.41189
267.4901, 17.36610
267.9722, 14.40343
268.4543, 11.44709
268.9364, 8.670998
269.4185, 6.188461
269.9006, 3.991943
270.3828, 2.131798
270.8649, 0.6144710
271.3470, 0.5707630
271.8291, 1.469841
272.3112, 2.071121
272.7933, 2.427231
273.2755, 2.505219
273.7576, 2.270081
274.2397, 2.086609
274.7218, 2.059090
275.2039, 2.125748
275.6860, 2.109100
276.1682, 2.036575
276.6503, 1.807838
277.1324, 1.292427
277.6145, 0.4763490
278.0966, 0.3767240
278.5787, 1.240509
279.0609, 2.061447
279.5430, 2.582092
280.0251, 2.712639
280.5072, 3.165497
280.9893, 4.600639
281.4715, 7.012337
281.9536, 8.602325
282.4357, 9.145004
282.9178, 9.173553
283.3999, 9.576889
283.8820, 10.38174
284.3642, 11.25587
284.8463, 11.97549
285.3284, 12.57730
285.8105, 13.49574
286.2926, 14.78402
286.7747, 16.22902
287.2569, 17.41698
287.7390, 18.36931
288.2211, 19.70547
288.7032, 21.93290
289.1853, 24.78825
289.6674, 26.99273
290.1496, 28.45602
290.6317, 29.93492
291.1138, 32.51650
291.5959, 36.02962
292.0780, 39.18128
292.5602, 41.53252
293.0423, 43.27203
293.5244, 44.87140
294.0065, 46.32750
294.4886, 47.54477
294.9707, 48.70755
295.4529, 49.63257
295.9350, 49.70540
296.4171, 48.99233
296.8992, 47.12837
297.3813, 42.95319
297.8634, 36.65371
298.3456, 30.06389
298.8277, 24.36145
299.3098, 19.45708
299.7919, 15.21134
300.2740, 11.64977
300.7561, 8.701706
301.2383, 6.509689
301.7204, 4.970284
302.2025, 3.766541
302.6846, 2.775749
303.1667, 1.958260
303.6488, 1.215942
304.1310, 0.5126800
304.6131, 2.5696000E-02
305.0952, 0.1190110
305.5773, 9.3070999E-02
306.0594, 0.2167510
306.5415, 0.3830570
307.0237, 0.9653930
307.5058, 0.5724410
307.9879, 1.014091
308.4700, 2.665802
308.9521, 3.443161
309.4343, 3.709122
309.9164, 4.123337
310.3985, 5.123116
310.8806, 6.279335
311.3627, 7.265221
311.8448, 8.073128
312.3270, 8.856354
312.8091, 9.664841
313.2912, 10.51570
313.7733, 11.42921
314.2554, 12.15277
314.7375, 13.16486
315.2197, 14.81436
315.7018, 17.05647
316.1839, 19.38390
316.6660, 21.85552
317.1481, 24.17923
317.6302, 26.07372
318.1124, 27.15562
318.5945, 28.21545
319.0766, 29.51508
319.5587, 31.00854
320.0408, 32.55489
320.5229, 34.58372
321.0051, 36.32148
321.4872, 37.36649
321.9693, 37.67963
322.4514, 37.23017
322.9335, 35.81663
323.4156, 33.65125
323.8978, 31.14226
324.3799, 28.12122
324.8620, 24.97663
325.3441, 21.76905
325.8262, 18.41869
326.3083, 15.37378
326.7905, 12.78123
327.2726, 10.46601
327.7547, 8.245171
328.2368, 5.814133
328.7189, 3.766838
329.2010, 2.286385
329.6832, 1.421280
330.1653, 0.5599670
330.6474, 0.4421390
331.1295, 1.319435
331.6116, 1.856361
332.0938, 1.932304
332.5759, 1.855972
333.0580, 1.540962
333.5401, 1.051842
334.0222, 0.9633940
334.5043, 1.575760
334.9865, 2.152199
335.4686, 2.202728
335.9507, 1.465485
336.4328, 1.001709
336.9149, 1.037254
337.3970, 1.292244
337.8792, 0.9732440
338.3613, 0.1118160
338.8434, 1.241814
339.3255, 2.064301
339.8076, 2.520233
340.2898, 3.196419
340.7719, 4.194397
341.2540, 5.252548
341.7361, 5.982040
342.2182, 6.341568
342.7003, 6.624489
343.1825, 6.745628
343.6646, 6.823868
344.1467, 7.814293
344.6288, 9.875923
345.1109, 12.09014
345.5930, 13.40213
346.0752, 13.90471
346.5573, 14.74947
347.0394, 16.33949
347.5215, 18.33641
348.0036, 19.91428
348.4857, 21.08191
348.9679, 22.48550
349.4500, 24.76037
349.9321, 27.68008
350.4142, 30.60085
350.8963, 33.47089
351.3784, 36.22505
351.8606, 38.84369
352.3427, 41.25864
352.8248, 43.27119
353.3069, 44.84222
353.7890, 45.88484
354.2711, 46.34949
354.7533, 46.24918
355.2354, 45.43877
355.7175, 43.85603
356.1996, 41.47101
356.6817, 38.23071
357.1638, 33.22155
357.6460, 27.99941
358.1281, 23.67360
358.6102, 20.23512
359.0923, 17.13297
359.5744, 13.94322
360.0565, 11.02672
360.5387, 8.753128
361.0208, 7.553261
361.5029, 6.598297
361.9850, 5.423981
362.4671, 4.163177
362.9492, 3.325211
363.4314, 3.351715
363.9135, 3.672554
364.3956, 3.950203
364.8777, 4.122116
365.3598, 4.356293
365.8419, 4.683998
366.3241, 5.077484
366.8062, 5.596077
367.2883, 5.998604
367.7704, 6.766777
368.2526, 8.157509
368.7347, 10.32428
369.2168, 12.26629
369.6989, 13.90264
370.1810, 15.35806
370.6631, 16.72571
371.1453, 17.66020
371.6274, 19.02785
372.1095, 20.99846
372.5916, 23.52471
373.0737, 26.26691
373.5558, 29.55026
374.0380, 32.60226
374.5201, 34.96022
375.0022, 36.34422
375.4843, 37.91921
375.9664, 39.86331
376.4485, 41.88542
376.9307, 43.50676
377.4128, 44.73364
377.8949, 45.69777
378.3770, 46.46211
378.8591, 46.97092
379.3412, 46.62602
379.8234, 45.26155
380.3055, 43.83322
380.7876, 43.39584
381.2697, 43.89731
381.7518, 44.72028
382.2339, 45.72769
382.7161, 46.93959
383.1982, 48.56870
383.6803, 50.56670
384.1624, 52.41158
384.6445, 53.38187
385.1266, 53.91225
385.6088, 55.18147
386.0909, 57.50945
386.5730, 60.04956
387.0551, 61.73784
387.5372, 62.79335
388.0193, 63.83044
388.5015, 65.67352
388.9836, 67.31876
389.4657, 67.55120
389.9478, 66.33104
390.4299, 64.80679
390.9120, 63.60853
391.3942, 62.60244
391.8763, 61.60812
392.3584, 59.86208
392.8405, 58.72192
393.3226, 59.16216
393.8047, 60.97972
394.2869, 62.99918
394.7690, 64.66209
395.2511, 66.39801
395.7332, 68.47940
396.2154, 70.89363
396.6975, 73.87453
397.1796, 77.77047
397.6617, 82.21395
398.1438, 86.56138
398.6259, 90.21040
399.1081, 94.28626
399.5902, 99.17090
400.0723, 104.9657
400.5544, 110.8881
401.0365, 116.9550
401.5186, 123.1573
402.0008, 129.4036
402.4829, 135.6512
402.9650, 142.0943
403.4471, 148.7986
403.9292, 155.7387
404.4113, 162.5945
404.8935, 169.2672
405.3756, 176.1689
405.8577, 183.6144
406.3398, 191.6187
406.8219, 199.4920
407.3040, 207.1429
407.7862, 214.8609
408.2683, 223.5165
408.7504, 233.1640
409.2325, 242.0935
409.7146, 249.7204
410.1967, 256.9675
410.6789, 262.4334
411.1610, 268.6096
411.6431, 273.7190
412.1252, 277.3323
412.6073, 279.2305
413.0894, 278.7619
413.5716, 275.9380
414.0537, 270.4329
414.5358, 261.3459
415.0179, 249.1479
415.5000, 235.0560
415.9821, 219.4840
416.4643, 202.6479
416.9464, 184.0444
417.4285, 163.5517
417.9106, 144.1028
418.3927, 127.3285
418.8748, 112.7111
419.3570, 99.93385
419.8391, 89.61597
420.3212, 80.23656
420.8033, 70.95481
421.2854, 61.98160
421.7675, 54.03627
422.2497, 47.56255
422.7318, 41.99550
423.2139, 37.17056
423.6960, 33.34676
424.1781, 29.66782
424.6602, 25.99374
425.1424, 22.44243
425.6245, 19.22528
426.1066, 16.42101
426.5887, 13.89262
427.0709, 11.59601
427.5530, 9.530418
428.0351, 7.936417
428.5172, 6.947029
428.9993, 6.223671
429.4814, 5.533936
429.9636, 4.866249
430.4457, 4.292511
430.9278, 3.872223
431.4099, 3.494606
431.8920, 2.841782
432.3741, 1.852524
432.8563, 1.031677
433.3384, 0.7660680
433.8205, 0.9274520
434.3026, 0.5248950
434.7847, 0.5168150
435.2668, 1.533417
435.7490, 1.650261
436.2311, 1.134491
436.7132, 0.9630970
437.1953, 1.517509
437.6774, 2.355827
438.1595, 2.928551
438.6417, 3.275696
439.1238, 3.563347
439.6059, 3.963768
440.0880, 4.318344
440.5701, 4.419121
441.0522, 4.211685
441.5344, 3.971336
442.0165, 3.937294
442.4986, 3.948700
442.9807, 3.809242
443.4628, 3.262108
443.9449, 2.739578
444.4271, 2.498871
444.9092, 2.470131
445.3913, 2.244667
445.8734, 1.349106
446.3555, 0.5269620
446.8376, 0.1935650
447.3198, 0.7609410
447.8019, 1.055954
448.2840, 0.8965070
448.7661, 0.5194930
449.2482, 0.2674790
449.7303, 0.3258130
450.2125, 0.1845400
450.6946, 0.3818440
451.1767, 1.324234
451.6588, 1.816971
452.1409, 1.711357
452.6230, 1.514633
453.1052, 1.674049
453.5873, 2.246964
454.0694, 2.327019
454.5515, 1.649490
455.0337, 0.8545070
455.5158, 1.085617
455.9979, 2.291573
456.4800, 3.675125
456.9621, 4.993164
457.4442, 6.236877
457.9264, 7.417320
458.4085, 8.528381
458.8906, 9.526657
459.3727, 10.12447
459.8548, 10.63913
460.3369, 11.55463
460.8191, 13.00040
461.3012, 14.84043
461.7833, 17.13223
462.2654, 19.73695
462.7475, 22.35315
463.2296, 24.58455
463.7118, 27.04547
464.1939, 30.21953
464.6760, 34.17132
465.1581, 37.99694
465.6402, 41.25281
466.1223, 44.34526
466.6045, 47.51345
467.0866, 50.71603
467.5687, 54.06880
468.0508, 57.81094
468.5329, 61.70069
469.0150, 65.16466
469.4972, 67.30764
469.9793, 70.30884
470.4614, 74.90250
470.9435, 81.14906
471.4256, 87.84942
471.9077, 95.14349
472.3899, 102.6162
472.8720, 109.6824
473.3541, 116.3349
473.8362, 123.8464
474.3183, 132.5324
474.8004, 142.0421
475.2826, 151.9312
475.7647, 162.1604
476.2468, 172.1746
476.7289, 182.2169
477.2110, 191.7751
477.6931, 199.9666
478.1753, 206.8190
478.6574, 211.2438
479.1395, 213.0666
479.6216, 211.6915
480.1037, 206.1942
480.5858, 196.0607
481.0680, 182.1832
481.5501, 163.1030
482.0322, 140.8033
482.5143, 119.5689
482.9964, 99.84953
483.4786, 82.63659
483.9607, 68.59446
484.4428, 57.98106
484.9249, 49.03441
485.4070, 41.81208
485.8892, 35.99821
486.3713, 31.42732
486.8534, 28.30545
487.3355, 26.12414
487.8176, 25.17693
488.2997, 25.06525
488.7819, 24.88513
489.2640, 24.39970
489.7461, 24.39512
490.2282, 25.21272
490.7103, 26.81026
491.1924, 28.33988
491.6746, 29.76903
492.1567, 31.33351
492.6388, 33.15442
493.1209, 35.25389
493.6030, 37.71814
494.0851, 40.71867
494.5673, 43.83157
495.0494, 46.39610
495.5315, 48.49956
496.0136, 50.43437
496.4957, 52.23468
496.9778, 54.03490
497.4600, 56.26572
497.9421, 58.83420
498.4242, 60.92824
498.9063, 62.06635
499.3884, 62.55695
499.8705, 62.66481
500.3527, 62.44194
500.8348, 61.82594
501.3169, 60.79478
501.7990, 59.38982
502.2811, 57.64409
502.7632, 55.50433
503.2454, 53.09740
503.7275, 50.11198
504.2096, 46.67915
504.6917, 44.25652
505.1738, 43.55219
505.6559, 42.86983
506.1381, 41.19115
506.6202, 38.04388
507.1023, 35.96324
507.5844, 35.26521
508.0665, 35.05110
508.5486, 33.93597
509.0308, 31.87657
509.5129, 30.44229
509.9950, 30.11238
510.4771, 30.55966
510.9592, 31.25972
511.4413, 32.17633
511.9235, 33.01349
512.4056, 33.45493
512.8877, 33.74210
513.3698, 34.29749
513.8519, 35.17088
514.3340, 35.99767
514.8162, 36.29976
515.2983, 36.47971
515.7804, 37.01337
516.2625, 38.00075
516.7446, 39.42882
517.2267, 41.44542
517.7089, 43.90057
518.1910, 46.40810
518.6731, 48.79617
519.1552, 51.32349
519.6373, 53.96844
520.1194, 56.69337
520.6016, 60.02722
521.0837, 64.16660
521.5658, 68.64662
522.0479, 73.18683
522.5300, 77.79227
523.0121, 82.25673
523.4943, 86.49924
523.9764, 90.67976
524.4585, 94.94943
524.9406, 99.22389
525.4227, 104.2035
525.9048, 110.3782
526.3870, 117.2887
526.8691, 123.8780
527.3513, 130.2096
527.8334, 136.7606
528.3155, 143.9689
528.7976, 151.6640
529.2797, 159.6832
529.7618, 168.0907
530.2440, 176.5748
530.7261, 184.8574
531.2082, 193.0585
531.6903, 201.1775
532.1724, 209.9445
532.6545, 217.9532
533.1367, 225.3904
533.6188, 231.8824
534.1009, 236.3910
534.5830, 238.8384
535.0651, 239.0889
535.5472, 237.1495
536.0294, 233.0051
536.5115, 226.5457
536.9936, 217.4342
537.4757, 206.4883
537.9578, 194.0104
538.4399, 179.5299
538.9221, 165.8565
539.4042, 153.2235
539.8863, 141.3251
540.3684, 129.4499
540.8505, 117.6439
541.3326, 106.4420
541.8148, 95.72395
542.2969, 85.98221
542.7790, 78.07764
543.2611, 71.96139
543.7432, 66.92311
544.2253, 63.24123
544.7075, 60.00514
545.1896, 56.05676
545.6717, 51.00182
546.1538, 46.57604
546.6359, 43.97758
547.1180, 42.30408
547.6002, 40.65154
548.0823, 38.34541
548.5644, 36.54943
549.0465, 35.72765
549.5286, 35.52299
550.0107, 34.87045
550.4929, 33.11279
550.9750, 31.96538
551.4571, 32.16457
551.9392, 33.70842
552.4213, 34.86256
552.9034, 35.55176
553.3856, 36.04143
553.8677, 36.37676
554.3498, 36.61172
554.8319, 37.43378
555.3140, 39.00693
555.7961, 40.83276
556.2783, 42.21566
556.7604, 43.30887
557.2425, 44.52150
557.7246, 45.86642
558.2067, 47.54179
558.6888, 49.87117
559.1710, 52.72636
559.6531, 55.63745
560.1352, 58.35933
560.6173, 61.08818
561.0994, 63.91065
561.5815, 66.82878
562.0637, 69.70779
562.5458, 72.51079
563.0279, 75.23733
563.5100, 77.94347
563.9921, 80.76596
564.4742, 83.41270
564.9564, 85.88722
565.4385, 88.17201
565.9206, 90.28516
566.4027, 92.27426
566.8848, 93.76757
567.3669, 94.61047
567.8491, 94.89122
568.3312, 95.03076
568.8133, 95.01136
569.2954, 94.18179
569.7775, 91.86301
570.2596, 88.51861
570.7418, 85.10293
571.2239, 81.65778
571.7060, 77.72974
572.1881, 72.42780
572.6702, 66.69460
573.1523, 61.51987
573.6345, 57.35530
574.1166, 53.53484
574.5987, 49.94722
575.0808, 46.56872
575.5629, 43.29033
576.0450, 40.14691
576.5272, 37.12547
577.0093, 34.12979
577.4914, 31.24149
577.9735, 28.94005
578.4556, 27.36079
578.9377, 26.14746
579.4199, 25.27206
579.9020, 24.76332
580.3841, 23.66848
580.8662, 21.90176
581.3483, 20.04210
581.8304, 18.58904
582.3126, 17.53238
582.7947, 16.91007
583.2768, 16.83852
583.7589, 16.86513
584.2410, 16.45065
584.7231, 15.78298
585.2053, 15.23512
585.6874, 14.77264
586.1696, 14.64583
586.6517, 15.25568
587.1338, 16.39886
587.6159, 17.18497
588.0980, 17.01840
588.5801, 16.76643
589.0623, 16.87964
589.5444, 17.48181
590.0265, 17.65585
590.5086, 17.35403
590.9907, 16.68772
591.4728, 15.60073
591.9550, 13.97334
592.4371, 12.85593
592.9192, 12.47338
593.4013, 12.30540
593.8834, 11.51315
594.3655, 10.20743
594.8477, 9.076202
595.3298, 8.399292
595.8119, 7.953453
596.2940, 7.632973
596.7761, 7.335960
597.2582, 6.704185
597.7404, 5.189331
598.2225, 3.546982
598.7046, 2.239052
599.1867, 1.302429
599.6688, 0.6478270
600.1509, 0.4679720
600.6331, 0.3874280
601.1152, 0.1689760
601.5973, 0.3062440
602.0794, 0.6734160
602.5615, 0.9208370
603.0436, 1.066902
603.5258, 1.037498
604.0079, 0.7255780
604.4900, 0.8719100
604.9721, 1.763412
605.4542, 2.914185
605.9363, 3.312775
606.4185, 3.016243
606.9006, 2.571068
