##NAMES=Bakerite
##RRUFFID=R050423
##IDEAL CHEMISTRY=Ca_4_B_5_Si_3_O_15_(OH)_5_
##LOCALITY=Corkscrew Canyon, Death Valley, California, USA
##OWNER=RRUFF
##SOURCE=Marcus Origlieri
##DESCRIPTION=White fine-grained aggregate
##STATUS=The identification of this mineral has been confirmed by X-ray diffraction and chemical analysis
##URL=rruff.info/R050423
##MEASURED CHEMISTRY=Ca_4.00_(B_4.99_S_0.01_)_Σ=5_(Si_2.97_Al_0.03_)_Σ=3_O_15_(OH)_5_
145.4870, 0.0000000E+00
145.9691, 0.2254330
146.4512, 1.396698
146.9333, 2.284882
147.4155, 1.652359
147.8976, 0.2203980
148.3797, 0.3341670
148.8618, 0.6816710
149.3439, 2.046494
149.8260, 2.970764
150.3082, 2.624710
150.7903, 2.759720
151.2724, 3.822006
151.7545, 5.836502
152.2366, 7.301498
152.7188, 7.623077
153.2009, 7.638321
153.6830, 8.011887
154.1651, 9.688477
154.6472, 10.86205
155.1293, 10.87749
155.6115, 9.556686
156.0936, 8.507858
156.5757, 7.993515
157.0578, 7.882187
157.5399, 8.038513
158.0220, 8.601273
158.5042, 9.286438
158.9863, 10.04259
159.4684, 10.91452
159.9505, 11.64131
160.4326, 12.06119
160.9147, 12.30034
161.3969, 12.54416
161.8790, 12.70351
162.3611, 12.99562
162.8432, 13.62663
163.3253, 14.77960
163.8074, 15.75201
164.2896, 16.04724
164.7717, 15.92900
165.2538, 15.92555
165.7359, 16.18489
166.2180, 16.69157
166.7001, 17.51103
167.1823, 18.82523
167.6644, 20.03345
168.1465, 20.74731
168.6286, 21.04758
169.1107, 21.16519
169.5928, 21.10609
170.0750, 20.97852
170.5571, 20.93298
171.0392, 21.14172
171.5213, 21.22134
172.0034, 20.77020
172.4855, 19.87364
172.9677, 18.92255
173.4498, 18.08565
173.9319, 17.36552
174.4140, 16.77783
174.8961, 16.36855
175.3782, 16.03795
175.8604, 15.65758
176.3425, 15.23537
176.8246, 14.85182
177.3067, 14.64635
177.7888, 14.51501
178.2709, 14.25474
178.7531, 13.81125
179.2352, 13.20117
179.7173, 12.38884
180.1994, 11.37878
180.6815, 10.35092
181.1636, 9.397675
181.6458, 8.543610
182.1279, 7.891754
182.6100, 7.472183
183.0921, 7.270294
183.5742, 7.316284
184.0563, 7.617798
184.5385, 7.966309
185.0206, 8.190704
185.5027, 8.293411
185.9848, 8.284332
186.4669, 8.282562
186.9490, 8.160202
187.4312, 7.376038
187.9133, 5.858795
188.3954, 4.236359
188.8775, 3.186935
189.3596, 2.690414
189.8417, 2.595001
190.3239, 2.862366
190.8060, 3.448990
191.2881, 3.766174
191.7702, 3.771088
192.2523, 3.677902
192.7344, 3.789078
193.2166, 4.113449
193.6987, 4.273987
194.1808, 4.108231
194.6629, 3.633362
195.1450, 2.964523
195.6271, 2.074097
196.1093, 1.263611
196.5914, 1.069870
197.0735, 1.503006
197.5556, 2.068832
198.0377, 2.767563
198.5198, 3.606125
199.0020, 3.780106
199.4841, 3.165329
199.9662, 2.273285
200.4483, 1.876129
200.9304, 1.991608
201.4125, 2.221939
201.8947, 2.539734
202.3768, 3.039047
202.8589, 3.198242
203.3410, 2.692520
203.8231, 1.962036
204.3052, 1.732315
204.7874, 2.085480
205.2695, 2.614105
205.7516, 3.253403
206.2337, 4.075180
206.7158, 4.442047
207.1979, 4.180161
207.6801, 3.612244
208.1622, 3.421494
208.6443, 3.691589
209.1264, 3.986404
209.6085, 4.075058
210.0906, 3.864227
210.5728, 3.887817
211.0549, 4.214218
211.5370, 4.740082
212.0191, 5.264191
212.5012, 5.846039
212.9833, 6.313660
213.4655, 6.520569
213.9476, 6.335022
214.4297, 6.390198
214.9118, 6.723129
215.3939, 7.291580
215.8760, 8.053314
216.3581, 9.123138
216.8403, 10.13422
217.3224, 10.91289
217.8045, 11.45898
218.2866, 11.77145
218.7687, 11.78262
219.2508, 11.57751
219.7330, 11.35266
220.2151, 11.02371
220.6972, 10.81879
221.1793, 10.91838
221.6614, 11.57953
222.1435, 11.81718
222.6257, 11.46391
223.1078, 10.72237
223.5899, 10.18581
224.0720, 10.07889
224.5541, 9.816742
225.0362, 9.029282
225.5184, 7.287766
226.0005, 6.144791
226.4826, 5.890411
226.9647, 6.184036
227.4468, 6.027878
227.9289, 5.138123
228.4111, 4.245331
228.8932, 3.693832
229.3753, 3.621872
229.8574, 3.584763
230.3395, 3.647171
230.8216, 3.726028
231.3038, 3.592072
231.7859, 3.220428
232.2680, 2.668381
232.7501, 1.874786
233.2322, 0.4462280
233.7143, 0.3135990
234.1965, 0.1618500
234.6786, 0.6077880
235.1607, 1.199097
235.6428, 1.600281
236.1249, 1.834167
236.6070, 1.900711
237.0892, 1.756485
237.5713, 1.513397
238.0534, 1.047409
238.5355, 0.5123140
239.0176, 0.3304750
239.4997, 0.7126310
239.9819, 1.144257
240.4640, 1.388458
240.9461, 1.313965
241.4282, 1.389145
241.9103, 1.759521
242.3924, 2.235382
242.8746, 2.347046
243.3567, 1.948105
243.8388, 1.411148
244.3209, 0.8502810
244.8030, 0.1957090
245.2851, 0.2730410
245.7673, 0.5157780
246.2494, 0.5864410
246.7315, 0.5950620
247.2136, 0.5219570
247.6957, 0.4153290
248.1778, 0.2704930
248.6600, 2.7725000E-02
249.1421, 8.3664000E-02
249.6242, 3.2500001E-03
250.1063, 0.1801760
250.5884, 0.3256680
251.0705, 0.5565490
251.5527, 0.5876460
252.0348, 0.2148900
252.5169, 0.8173220
252.9990, 1.431824
253.4811, 1.463303
253.9632, 1.106949
254.4454, 0.7197110
254.9275, 0.2245330
255.4096, 0.1491850
255.8917, 0.3040920
256.3738, 0.1909330
256.8560, 7.1792997E-02
257.3381, 9.5383003E-02
257.8202, 0.2366180
258.3023, 0.2372280
258.7844, 6.0286999E-02
259.2665, 0.1819920
259.7487, 0.5183720
260.2308, 1.005447
260.7129, 1.153427
261.1950, 0.8545380
261.6771, 0.3371280
262.1592, 0.1170810
262.6414, 0.5250240
263.1235, 0.8133090
263.6056, 0.9431300
264.0877, 0.9087070
264.5698, 0.7877660
265.0519, 0.4535520
265.5341, 0.2045900
266.0162, 0.5310360
266.4983, 1.755020
266.9804, 2.529526
267.4625, 2.357361
267.9446, 1.260437
268.4268, 0.6466370
268.9089, 0.6314700
269.3910, 0.9111790
269.8731, 1.251068
270.3552, 1.712189
270.8373, 1.946823
271.3195, 1.754181
271.8016, 1.209152
272.2837, 1.164764
272.7658, 1.774567
273.2479, 2.541901
273.7300, 3.036148
274.2122, 3.230911
274.6943, 3.301285
275.1764, 3.222076
275.6585, 3.046082
276.1406, 3.067734
276.6227, 3.326660
277.1049, 3.658432
277.5870, 3.992416
278.0691, 4.349503
278.5512, 4.448624
279.0333, 4.141953
279.5154, 3.600204
279.9976, 3.391281
280.4797, 3.541809
280.9618, 3.888748
281.4439, 4.462708
281.9260, 5.264389
282.4081, 5.694016
282.8903, 5.595367
283.3724, 5.167648
283.8545, 4.807968
284.3366, 4.503021
284.8187, 4.404327
285.3008, 4.725143
285.7830, 5.423508
286.2651, 5.944244
286.7472, 6.214493
287.2293, 6.341293
287.7114, 6.459290
288.1935, 6.585831
288.6757, 6.886688
289.1578, 7.659714
289.6399, 8.748596
290.1220, 9.244095
290.6041, 9.001724
291.0862, 8.487579
291.5684, 8.293671
292.0505, 8.426926
292.5326, 8.733597
293.0147, 9.309540
293.4968, 9.982239
293.9789, 10.18073
294.4611, 9.836777
294.9432, 9.334595
295.4253, 9.254684
295.9074, 9.453568
296.3895, 9.306534
296.8716, 8.242569
297.3538, 6.735260
297.8359, 5.763565
298.3180, 5.337708
298.8001, 5.057526
299.2822, 4.413544
299.7643, 3.601089
300.2465, 3.160431
300.7286, 3.673248
301.2107, 4.399612
301.6928, 4.157471
302.1749, 3.009415
302.6570, 1.884613
303.1392, 1.674103
303.6213, 1.971252
304.1034, 2.068756
304.5855, 1.690994
305.0676, 1.132751
305.5497, 0.6217500
306.0319, 0.1695860
306.5140, 0.1863860
306.9961, 0.4981080
307.4782, 0.6988830
307.9603, 0.6492920
308.4424, 0.1386110
308.9246, 0.2904660
309.4067, 4.0955000E-02
309.8888, 0.6282960
310.3709, 1.030899
310.8530, 0.6428530
311.3351, 2.3056000E-02
311.8173, 0.5421750
312.2994, 0.8318790
312.7815, 1.013504
313.2636, 1.172501
313.7457, 1.281601
314.2278, 1.287750
314.7100, 1.017548
315.1921, 0.2425814
315.6742, 0.8829395
316.1563, 1.250077
316.6384, 1.358673
317.1205, 0.4343750
317.6027, 0.8438494
318.0848, 0.7188069
318.5669, 0.5718454
319.0490, 1.169040
319.5311, 0.3949731
320.0132, 0.9803667
320.4954, 1.023091
320.9775, 1.314180
321.4596, 1.067453
321.9417, 0.9868403
322.4238, 1.444215
322.9059, 1.755569
323.3881, 1.876434
323.8702, 1.439560
324.3523, 1.320969
324.8344, 1.977020
325.3165, 2.753342
325.7986, 3.270309
326.2808, 3.370071
326.7629, 3.357529
327.2450, 3.129822
327.7271, 2.773270
328.2092, 2.642609
328.6913, 2.949295
329.1735, 3.298584
329.6556, 3.534180
330.1377, 3.544754
330.6198, 3.659515
331.1019, 4.035172
331.5840, 4.463837
332.0662, 4.537292
332.5483, 3.979187
333.0304, 3.455292
333.5125, 3.204407
333.9946, 3.294830
334.4767, 3.259094
334.9589, 2.994751
335.4410, 2.701050
335.9231, 2.691406
336.4052, 3.167969
336.8873, 3.380463
337.3694, 3.033005
337.8515, 2.176804
338.3336, 1.709244
338.8158, 1.744507
339.2979, 1.935349
339.7800, 2.010330
340.2621, 1.975998
340.7442, 1.769608
341.2263, 1.305389
341.7085, 0.7031560
342.1906, 0.4166720
342.6727, 0.4880680
343.1548, 0.6047520
343.6369, 0.6138150
344.1190, 0.5070800
344.6012, 8.8333003E-02
345.0833, 0.8141020
345.5654, 1.747543
346.0475, 1.826141
346.5296, 1.095337
347.0117, 0.2113650
347.4939, 0.6809690
347.9760, 1.454926
348.4581, 1.543213
348.9402, 0.3765560
349.4223, 1.263290
349.9044, 2.264786
350.3866, 2.662018
350.8687, 0.6445920
351.3508, 1.745712
351.8329, 1.597382
352.3150, 1.398132
352.7971, 2.938919
353.2793, 1.274078
353.7614, 2.787811
354.2435, 3.033142
354.7256, 3.859375
355.2077, 3.428467
355.6898, 3.386261
356.1720, 4.602264
356.6541, 5.121918
357.1362, 4.547485
357.6183, 5.412460
358.1004, 3.706497
358.5826, 4.257080
359.0647, 5.781464
359.5468, 5.271744
360.0289, 6.161163
360.5110, 6.518250
360.9931, 4.454773
361.4753, 6.602448
361.9574, 6.929596
362.4395, 5.858047
362.9216, 5.760361
363.4037, 5.928528
363.8858, 6.752106
364.3680, 7.790787
364.8501, 8.598038
365.3322, 9.171509
365.8143, 9.431595
366.2964, 8.745761
366.7785, 9.743941
367.2607, 10.46897
367.7428, 10.93537
368.2249, 10.36889
368.7070, 11.13616
369.1891, 11.36892
369.6712, 11.57978
370.1534, 12.53487
370.6355, 12.11860
371.1176, 13.06182
371.5997, 13.46234
372.0818, 14.11123
372.5639, 14.22232
373.0461, 14.49961
373.5282, 15.31478
374.0103, 15.83209
374.4924, 15.88126
374.9745, 16.54593
375.4566, 16.11090
375.9388, 16.64098
376.4209, 18.06155
376.9030, 18.80565
377.3851, 19.61943
377.8672, 20.55965
378.3493, 21.44925
378.8315, 22.21851
379.3136, 22.88628
379.7957, 22.93915
380.2778, 21.99893
380.7599, 20.68127
381.2420, 20.64746
381.7242, 21.89471
382.2063, 23.20670
382.6884, 23.88812
383.1705, 23.99194
383.6526, 23.50604
384.1347, 21.12007
384.6169, 22.84328
385.0990, 23.92812
385.5811, 24.40891
386.0632, 22.47533
386.5453, 23.66037
387.0274, 23.59624
387.5096, 23.48137
387.9917, 25.10661
388.4738, 23.52641
388.9559, 25.12505
389.4380, 25.45532
389.9201, 26.37001
390.4023, 26.02455
390.8844, 26.06776
391.3665, 27.36931
391.8486, 27.97478
392.3307, 27.48621
392.8128, 28.43715
393.2950, 26.81747
393.7771, 27.45433
394.2592, 28.52812
394.7413, 29.17024
395.2234, 29.35814
395.7055, 29.31073
396.1877, 29.36832
396.6698, 29.92480
397.1519, 30.28979
397.6340, 30.18768
398.1161, 29.55363
398.5982, 28.98323
399.0804, 28.81218
399.5625, 28.54419
400.0446, 27.80214
400.5267, 26.04816
401.0088, 24.62540
401.4909, 23.81276
401.9731, 23.43925
402.4552, 22.82698
402.9373, 21.90903
403.4194, 20.79794
403.9015, 19.55081
404.3836, 18.13911
404.8658, 16.82419
405.3479, 15.52434
405.8300, 14.38486
406.3121, 13.72412
406.7942, 13.62106
407.2763, 13.36259
407.7585, 12.60220
408.2406, 11.46632
408.7227, 10.79581
409.2048, 10.65253
409.6869, 10.45488
410.1690, 9.428177
410.6512, 7.812607
411.1333, 6.817596
411.6154, 6.856583
412.0975, 7.270569
412.5796, 7.055527
413.0617, 6.308731
413.5439, 5.514160
414.0260, 4.828217
414.5081, 4.303040
414.9902, 4.100525
415.4723, 4.263062
415.9544, 4.407028
416.4366, 4.208084
416.9187, 3.793442
417.4008, 3.354370
417.8829, 2.949600
418.3650, 2.554657
418.8471, 2.080231
419.3293, 1.570572
419.8114, 1.232727
420.2935, 1.291565
420.7756, 1.468369
421.2577, 1.569473
421.7398, 1.502457
422.2220, 1.486542
422.7041, 1.659286
423.1862, 1.912659
423.6683, 2.027100
424.1504, 1.805557
424.6325, 1.656693
425.1147, 1.716339
425.5968, 2.016830
426.0789, 2.259125
426.5610, 2.544769
427.0431, 2.681320
427.5252, 2.437225
428.0074, 1.468704
428.4895, 0.9348450
428.9716, 1.066757
429.4537, 1.681808
429.9358, 2.278534
430.4179, 2.914215
430.9001, 3.319717
431.3822, 3.204010
431.8643, 2.553299
432.3464, 2.360168
432.8285, 2.718552
433.3106, 3.236649
433.7928, 3.410507
434.2749, 3.277771
434.7570, 3.173889
435.2391, 3.321182
435.7212, 3.468018
436.2033, 2.928268
436.6855, 1.786011
437.1676, 0.8314670
437.6497, 0.8224180
438.1318, 1.309265
438.6139, 1.567505
439.0960, 1.410339
439.5782, 1.283279
440.0603, 1.752991
440.5424, 2.498413
441.0245, 2.912186
441.5066, 2.324448
441.9887, 1.672806
442.4709, 1.624008
442.9530, 2.165695
443.4351, 2.490860
443.9172, 1.911667
444.3993, 1.219254
444.8814, 1.017593
445.3636, 2.202591
445.8457, 2.804535
446.3278, 2.007645
446.8099, 0.4373930
447.2920, 0.3629000
447.7741, 0.2333830
448.2563, 0.9466090
448.7384, 1.454483
449.2205, 1.768494
449.7026, 1.830917
450.1847, 1.500580
450.6668, 1.101288
451.1490, 0.9467930
451.6311, 1.104813
452.1132, 1.256958
452.5953, 1.363373
453.0774, 1.438904
453.5595, 1.525162
454.0417, 1.632843
454.5238, 1.697083
455.0059, 1.612473
455.4880, 1.426361
455.9701, 1.436371
456.4522, 1.664261
456.9344, 2.024094
457.4165, 2.691925
457.8986, 3.482468
458.3807, 3.773880
458.8628, 1.744748
459.3449, 3.274158
459.8271, 4.120512
460.3092, 4.320518
460.7913, 1.938287
461.2734, 2.890481
461.7555, 2.506390
462.2376, 2.067503
462.7198, 3.488999
463.2019, 1.482348
463.6840, 2.874347
464.1661, 2.909666
464.6482, 3.565905
465.1303, 3.054321
465.6125, 3.449783
466.0946, 3.451630
466.5767, 3.109039
467.0588, 2.871429
467.5409, 2.845749
468.0230, 2.800217
468.5052, 2.641113
468.9873, 2.338043
469.4694, 2.090469
469.9515, 1.931686
470.4336, 1.797058
470.9157, 1.554245
471.3979, 1.114166
471.8800, 0.9467160
472.3621, 1.313782
472.8442, 2.033417
473.3263, 2.204147
473.8084, 1.767792
474.2906, 1.133865
474.7727, 0.4093480
475.2548, 0.2925870
475.7369, 0.3122250
476.2190, 0.5581050
476.7011, 1.511978
477.1833, 1.490295
477.6654, 0.7678680
478.1475, 0.1275330
478.6296, 2.3575000E-02
479.1117, 8.5129000E-02
479.5938, 0.1606900
480.0760, 0.6427150
480.5581, 0.8847960
481.0402, 0.3438110
481.5223, 0.3858340
482.0044, 0.8080600
482.4865, 0.7253270
482.9687, 0.6228490
483.4508, 0.6686250
483.9329, 0.7915040
484.4150, 0.8877870
484.8971, 0.8536680
485.3792, 0.8807530
485.8614, 1.073898
486.3435, 1.413147
486.8256, 1.594803
487.3077, 1.524124
487.7898, 1.404617
488.2719, 1.329895
488.7541, 1.283829
489.2362, 1.369553
489.7183, 1.685760
490.2004, 2.003296
490.6825, 1.878922
491.1646, 1.245789
491.6468, 0.8569340
492.1289, 1.025909
492.6110, 1.543350
493.0931, 1.803848
493.5752, 1.810364
494.0573, 1.764847
494.5395, 1.908463
495.0216, 2.089111
495.5037, 1.876892
495.9858, 1.134735
496.4679, 0.5192720
496.9500, 0.9108430
497.4322, 1.796555
497.9143, 2.317368
498.3964, 1.642410
498.8785, 0.9545900
499.3606, 1.046082
499.8427, 1.754257
500.3249, 2.300262
500.8070, 2.407364
501.2891, 2.295563
501.7712, 2.027786
502.2533, 1.496597
502.7354, 1.139618
503.2176, 1.163620
503.6997, 1.287125
504.1818, 1.200806
504.6639, 0.6522830
505.1460, 0.3662720
505.6281, 0.5448150
506.1103, 1.048615
506.5924, 1.313995
507.0745, 1.257690
507.5566, 1.246399
508.0387, 1.631348
508.5208, 2.365204
509.0030, 2.353027
509.4851, 1.482574
509.9672, 0.5034790
510.4493, 0.3097380
510.9314, 0.6902470
511.4135, 0.9049220
511.8957, 0.6845860
512.3778, 0.3766630
512.8599, 0.5120700
513.3420, 0.9189610
513.8242, 1.087372
514.3063, 0.5674440
514.7884, 0.1572720
515.2705, 0.8872220
515.7526, 1.608948
516.2347, 1.783813
516.7169, 0.5495910
517.1990, 0.9337010
517.6811, 1.782822
518.1632, 1.519180
518.6453, 1.061661
519.1274, 0.2136690
519.6096, 0.7265320
520.0917, 1.187683
520.5738, 0.9690860
521.0559, 0.5977940
521.5380, 0.1161190
522.0201, 0.4544220
522.5023, 0.6914220
522.9844, 0.5273900
523.4665, 0.2267460
523.9486, 0.1099090
524.4307, 0.4695280
524.9128, 0.4939270
525.3950, 8.7433003E-02
525.8771, 0.4179230
526.3592, 0.5537720
526.8413, 0.4033200
527.3234, 0.2814790
527.8055, 0.3430480
528.2877, 0.4465480
528.7698, 0.4062500
529.2519, 0.2546690
529.7340, 0.1359410
530.2161, 7.3821999E-02
530.6982, 0.1152800
531.1804, 0.3989110
531.6625, 1.023346
532.1446, 1.351135
532.6267, 0.8731990
533.1088, 0.1463470
533.5909, 0.3007660
534.0731, 0.2664490
534.5552, 9.8632999E-02
535.0373, 0.2371520
535.5194, 0.6796260
536.0015, 1.119202
536.4836, 1.638641
536.9658, 1.966858
537.4479, 1.921738
537.9300, 1.513504
538.4121, 1.361343
538.8942, 1.546982
539.3763, 1.799698
539.8585, 1.733505
540.3406, 1.472214
540.8227, 1.880127
541.3048, 3.237061
541.7869, 4.667877
542.2690, 5.032501
542.7512, 4.614746
543.2333, 4.125992
543.7154, 3.866638
544.1975, 3.653015
544.6796, 3.284683
545.1617, 2.812363
545.6439, 2.470047
546.1260, 2.269547
546.6081, 2.304367
547.0902, 2.715790
547.5723, 3.647018
548.0544, 4.387970
548.5366, 4.722153
549.0187, 4.897598
549.5008, 5.151794
549.9829, 5.692902
550.4650, 5.916336
550.9471, 5.640091
551.4293, 5.090454
551.9114, 4.791229
552.3935, 4.775436
552.8756, 4.861847
553.3577, 5.036285
553.8398, 5.257965
554.3220, 5.342575
554.8041, 5.289688
555.2862, 5.119339
555.7683, 4.678314
556.2504, 4.162598
556.7325, 4.019653
557.2147, 4.364594
557.6968, 4.765869
558.1789, 4.667389
558.6610, 4.438538
559.1431, 4.624634
559.6252, 6.235580
560.1074, 7.457230
560.5895, 7.184937
561.0716, 5.876892
561.5537, 5.074188
562.0358, 5.583252
562.5179, 6.154617
563.0001, 6.344574
563.4822, 6.116852
563.9643, 5.905777
564.4464, 5.694153
564.9285, 5.496750
565.4106, 5.393250
565.8928, 5.432175
566.3749, 5.220276
566.8570, 4.690613
567.3391, 4.120697
567.8212, 3.885742
568.3033, 3.948471
568.7855, 4.238602
569.2676, 4.926071
569.7497, 5.688705
570.2318, 6.012497
570.7139, 5.949448
571.1960, 5.734741
571.6782, 5.382019
572.1603, 5.023376
572.6424, 4.721710
573.1245, 4.478867
573.6066, 4.251129
574.0887, 4.026123
574.5709, 3.935181
575.0530, 4.015396
575.5351, 4.298416
576.0172, 4.581711
576.4993, 5.008560
576.9814, 5.358398
577.4636, 5.167282
577.9457, 4.162979
578.4278, 3.438217
578.9099, 3.326614
579.3920, 3.698105
579.8741, 4.033813
580.3563, 4.309464
580.8384, 4.511200
581.3205, 4.554352
581.8026, 4.511368
582.2847, 4.677399
582.7668, 5.088531
583.2490, 5.418762
583.7311, 5.321640
584.2131, 4.964615
584.6953, 4.520615
585.1774, 3.873535
585.6595, 3.538651
586.1416, 3.973343
586.6237, 4.840332
587.1058, 5.639130
587.5880, 6.409912
588.0701, 6.934830
588.5522, 6.990051
589.0343, 6.725967
589.5164, 6.823334
589.9985, 7.565109
590.4807, 8.136627
590.9628, 8.078201
591.4449, 7.366486
591.9270, 7.174301
592.4091, 7.592987
592.8912, 8.181595
593.3734, 8.488724
593.8555, 8.592819
594.3376, 8.915268
594.8197, 9.548676
595.3018, 10.23596
595.7839, 10.79471
596.2661, 11.19241
596.7482, 11.36644
597.2303, 11.26367
597.7124, 10.96526
598.1945, 10.37674
598.6766, 9.620224
599.1588, 9.046356
599.6409, 8.725967
600.1230, 8.646271
600.6051, 8.946838
601.0872, 9.662766
601.5693, 10.01735
602.0515, 9.934616
602.5336, 9.583511
603.0157, 8.982086
603.4978, 8.043793
603.9799, 7.353882
604.4620, 6.930298
604.9442, 6.724609
605.4263, 6.695953
605.9084, 6.839630
606.3905, 7.182922
606.8726, 7.895935
607.3547, 8.498169
607.8369, 8.242523
608.3190, 7.397156
608.8011, 6.640381
609.2832, 6.441040
609.7653, 6.312958
610.2474, 5.861511
610.7296, 5.143402
611.2117, 4.683655
611.6938, 4.844849
612.1759, 5.106934
612.6580, 5.225830
613.1401, 5.180481
613.6223, 5.077698
614.1044, 4.958496
614.5865, 4.728668
615.0686, 4.247559
615.5507, 3.471191
616.0328, 2.876526
616.5150, 2.544189
616.9971, 2.344238
617.4792, 2.064331
617.9613, 1.741119
618.4434, 1.552704
618.9255, 1.703094
619.4077, 1.846893
619.8898, 1.488556
620.3719, 0.7750550
620.8540, 0.1621090
621.3361, 0.1965640
621.8182, 0.3207700
622.3004, 8.7890001E-03
622.7825, 0.7259830
623.2646, 0.9627990
623.7467, 5.0903000E-02
624.2288, 1.138153
624.7109, 1.746948
625.1931, 1.836243
625.6752, 1.544861
626.1573, 0.7157290
626.6394, 0.2274480
627.1215, 0.9320680
627.6036, 1.398468
628.0858, 1.340271
628.5679, 0.5653990
629.0500, 0.3768310
629.5321, 0.5936580
630.0142, 0.2690120
630.4963, 1.0925000E-02
630.9785, 0.1153870
631.4606, 0.2483220
631.9427, 0.1283260
632.4248, 0.8189090
632.9069, 1.195068
633.3890, 0.7285460
633.8712, 0.1315610
634.3533, 0.3520510
634.8354, 0.7114870
635.3175, 0.8021240
635.7996, 0.4492800
636.2817, 3.1677000E-02
636.7639, 0.2654110
637.2460, 0.4309690
637.7281, 0.4700930
638.2102, 0.3403020
638.6923, 0.1912840
639.1744, 0.2204280
639.6566, 0.3894350
640.1387, 0.4881290
640.6208, 0.4706730
641.1029, 0.3833920
641.5850, 0.2011720
642.0671, 3.3259999E-03
642.5493, 8.6639002E-02
643.0314, 7.3546998E-02
643.5135, 0.3145140
643.9956, 0.5501400
644.4777, 0.8045650
644.9598, 1.149902
645.4420, 1.933838
645.9241, 2.467621
646.4062, 2.477905
646.8883, 1.992798
647.3704, 1.538391
647.8525, 0.9486390
648.3347, 0.7641600
648.8168, 1.544495
649.2989, 3.252380
649.7810, 4.285339
650.2631, 4.589935
650.7452, 4.579346
651.2274, 4.426941
651.7095, 4.278931
652.1916, 4.504120
652.6737, 5.254150
653.1558, 6.019287
653.6379, 6.467072
654.1201, 6.693909
654.6022, 6.832336
655.0843, 6.648712
655.5664, 6.693024
656.0485, 7.297760
656.5306, 8.193085
657.0128, 8.750702
657.4949, 8.702148
657.9770, 8.835663
658.4591, 9.439697
658.9412, 10.35721
659.4233, 10.86469
659.9055, 10.93423
660.3876, 10.92447
660.8697, 10.99384
661.3518, 11.14008
661.8339, 11.32385
662.3160, 11.55414
662.7982, 11.94287
663.2803, 12.90561
663.7624, 13.87314
664.2445, 14.12640
664.7266, 13.40750
665.2087, 13.06204
665.6909, 13.77103
666.1730, 14.90460
666.6551, 15.96606
667.1372, 17.21396
667.6193, 17.84348
668.1014, 17.49393
668.5836, 16.88248
669.0657, 17.01941
669.5478, 17.95508
670.0299, 19.03571
670.5120, 20.18195
670.9941, 21.31351
671.4763, 22.21829
671.9584, 22.96579
672.4405, 23.83447
672.9226, 25.14819
673.4047, 26.48474
673.8868, 27.46552
674.3690, 28.15021
674.8511, 28.78555
675.3332, 29.10483
675.8153, 29.72900
676.2974, 30.98209
676.7795, 32.90372
677.2617, 35.02698
677.7438, 37.69818
678.2259, 40.06448
678.7080, 41.54077
679.1901, 42.04355
679.6722, 43.03757
680.1544, 44.56253
680.6365, 46.52643
681.1186, 49.16119
681.6007, 52.15759
682.0828, 54.73544
682.5649, 56.74802
683.0471, 58.60364
683.5292, 60.25955
684.0113, 62.09241
684.4934, 64.49637
684.9755, 68.00671
685.4576, 71.38614
685.9398, 74.20279
686.4219, 76.76266
686.9040, 79.55487
687.3861, 82.48779
687.8682, 85.91840
688.3503, 90.06137
688.8325, 94.60120
689.3146, 98.62424
689.7967, 102.1244
690.2788, 105.6067
690.7609, 109.3228
691.2430, 113.0749
691.7252, 116.4812
692.2073, 119.6364
692.6894, 122.8671
693.1715, 126.4691
693.6536, 130.1767
694.1357, 134.1184
694.6179, 138.2147
695.1000, 141.2023
695.5821, 141.5720
696.0642, 141.8210
696.5463, 143.2390
697.0284, 146.0836
697.5106, 148.2685
697.9927, 149.7285
698.4748, 150.8718
698.9569, 152.0508
699.4390, 153.2343
699.9211, 154.1410
700.4033, 154.7854
700.8854, 154.9353
701.3675, 154.2432
701.8496, 152.9364
702.3317, 151.3760
702.8138, 149.7208
703.2960, 147.6651
703.7781, 145.1818
704.2602, 142.1588
704.7423, 138.4598
705.2244, 133.4568
705.7065, 128.5215
706.1887, 123.7270
706.6708, 119.0740
707.1529, 114.4515
707.6350, 109.9083
708.1171, 105.0097
708.5992, 99.47501
709.0814, 93.75122
709.5635, 88.55609
710.0456, 83.81339
710.5277, 79.40228
711.0098, 75.54758
711.4919, 71.84390
711.9741, 67.80682
712.4562, 63.59750
712.9383, 59.71182
713.4204, 56.30957
713.9025, 53.28778
714.3846, 50.82065
714.8668, 48.83548
715.3489, 46.37531
715.8310, 43.07266
716.3131, 39.99445
716.7952, 37.81030
717.2773, 36.44797
717.7595, 34.46210
718.2416, 31.81735
718.7237, 29.29959
719.2058, 27.66473
719.6879, 26.51682
720.1700, 25.30981
720.6522, 23.99265
721.1343, 22.58218
721.6164, 20.79813
722.0985, 19.09451
722.5806, 17.86179
723.0627, 17.51935
723.5449, 16.81012
724.0270, 15.31271
724.5091, 13.76709
724.9912, 12.94202
725.4733, 12.98831
725.9554, 12.75150
726.4376, 12.08755
726.9197, 11.25357
727.4018, 10.62521
727.8839, 10.11957
728.3660, 9.497375
728.8481, 8.650146
729.3303, 7.796478
729.8124, 7.048096
730.2945, 6.438446
730.7766, 6.027405
731.2587, 5.847687
731.7408, 5.798187
732.2230, 6.158173
732.7051, 6.592377
733.1872, 6.326111
733.6693, 4.908478
734.1514, 4.173767
734.6335, 4.804474
735.1157, 6.140839
735.5978, 6.444916
736.0799, 5.806030
736.5620, 5.088135
737.0441, 4.557404
737.5262, 4.268646
738.0084, 4.449585
738.4905, 4.946045
738.9726, 5.257538
739.4547, 5.058960
739.9368, 4.732513
740.4189, 4.365082
740.9011, 3.986420
741.3832, 3.864197
741.8653, 4.097565
742.3474, 4.242340
742.8295, 4.125610
743.3116, 3.786682
743.7938, 3.401459
744.2759, 2.962982
744.7580, 2.680389
745.2401, 2.921234
745.7222, 3.304016
746.2043, 3.189362
746.6865, 2.568115
747.1686, 1.911682
747.6507, 1.299622
748.1328, 0.8685300
748.6149, 0.7893680
749.0970, 1.196472
749.5792, 1.343170
750.0613, 0.9810790
750.5434, 0.6552120
751.0255, 0.7736820
751.5076, 1.377808
751.9897, 1.808228
752.4719, 2.096069
752.9540, 2.026672
753.4361, 0.9127500
753.9182, 0.5892330
754.4003, 1.030792
754.8824, 0.1279300
755.3646, 0.8401490
755.8467, 1.016174
756.3288, 0.8348690
756.8109, 0.6639400
757.2930, 0.4148860
757.7751, 0.5239260
758.2573, 1.352814
758.7394, 2.220673
759.2215, 2.405975
759.7036, 1.783417
760.1857, 1.398163
760.6678, 1.395294
761.1500, 1.478333
761.6321, 1.242950
762.1142, 0.8009030
762.5963, 0.4133000
763.0784, 0.1343690
763.5605, 4.0314000E-02
764.0427, 9.7473003E-02
764.5248, 7.1654998E-02
765.0069, 1.3733000E-02
765.4890, 0.2864690
765.9711, 0.3003540
766.4532, 0.2610470
766.9354, 0.9424740
767.4175, 1.033966
767.8996, 0.4305420
768.3817, 0.1459350
768.8638, 0.6076660
769.3459, 0.9219970
769.8281, 0.9320370
770.3102, 0.7375180
770.7923, 0.6304630
771.2744, 0.7407530
771.7565, 0.9234010
772.2386, 1.205963
772.7208, 1.466644
773.2029, 1.492798
773.6850, 0.9062810
774.1671, 0.4886780
774.6492, 0.3438420
775.1313, 0.4246220
775.6135, 0.7441710
776.0956, 1.381653
776.5777, 1.603119
777.0598, 1.063782
777.5419, 0.2284240
778.0240, 0.1449580
778.5062, 0.1206970
778.9883, 0.1056820
779.4704, 0.6324770
779.9525, 1.142853
780.4346, 1.538605
780.9167, 1.767090
781.3989, 1.710358
781.8810, 0.8389590
782.3631, 0.3210140
782.8452, 0.5573730
783.3273, 1.222870
783.8094, 1.271484
784.2916, 0.6293330
784.7737, 0.1553340
785.2558, 0.2514950
785.7379, 0.5839230
786.2200, 0.5102540
786.7021, 0.1328740
787.1843, 0.2016600
787.6664, 0.4031070
788.1485, 0.4443970
788.6306, 0.1824950
789.1127, 0.2779540
789.5948, 0.5306700
790.0770, 0.4261780
790.5591, 0.2732240
791.0412, 0.1112370
791.5233, 4.1228998E-02
792.0054, 0.1414180
792.4875, 0.1939700
792.9697, 7.5989000E-02
793.4518, 0.4144900
793.9339, 0.9721680
794.4160, 0.9969180
794.8981, 0.6461490
795.3802, 0.4477840
795.8624, 0.8235470
796.3445, 1.239563
796.8266, 1.594269
797.3087, 1.805023
797.7908, 1.504028
798.2729, 0.2732850
798.7551, 0.6512150
799.2372, 0.8339840
799.7193, 0.4833680
800.2014, 0.3436580
800.6835, 0.4010620
801.1656, 0.4922790
801.6478, 0.5953670
802.1299, 0.6421510
802.6120, 0.5932010
803.0941, 0.4295040
803.5762, 8.2396999E-02
804.0583, 0.9011540
804.5405, 1.627533
805.0226, 1.518494
805.5047, 0.8316040
805.9868, 0.6206670
806.4689, 1.099670
806.9510, 1.369324
807.4332, 1.031311
807.9153, 0.3371890
808.3974, 9.0330001E-03
808.8795, 1.4650000E-03
809.3616, 2.6885999E-02
809.8438, 4.1595001E-02
810.3259, 0.1348270
810.8080, 0.3263850
811.2901, 0.5087590
811.7722, 0.3746340
812.2543, 0.6270140
812.7365, 1.508575
813.2186, 1.924286
813.7007, 1.977264
814.1828, 2.076111
814.6649, 2.253326
815.1470, 2.178558
815.6292, 1.558594
816.1113, 0.7923280
816.5934, 0.6135250
817.0755, 0.9319150
817.5576, 1.450348
818.0397, 2.503571
818.5219, 3.233734
819.0040, 3.017212
819.4861, 2.107788
819.9682, 1.308075
820.4503, 0.3612980
820.9324, 0.1361080
821.4146, 1.149017
821.8967, 2.739685
822.3788, 2.940308
822.8609, 1.863647
823.3430, 1.279297
823.8251, 2.174072
824.3073, 3.381378
824.7894, 3.464294
825.2715, 2.829407
825.7536, 2.335632
826.2357, 2.183746
826.7178, 2.286194
827.2000, 2.955475
827.6821, 3.781799
828.1642, 3.923370
828.6463, 3.145477
829.1284, 2.485291
829.6105, 2.068024
830.0927, 2.011078
830.5748, 2.774139
831.0569, 4.114410
831.5390, 5.205750
832.0211, 5.754730
832.5032, 6.010071
832.9854, 6.123718
833.4675, 6.069885
833.9496, 5.802063
834.4317, 4.878326
834.9138, 4.349060
835.3959, 4.401031
835.8781, 4.740601
836.3602, 4.989471
836.8423, 5.155945
837.3244, 5.364563
837.8065, 5.650146
838.2886, 5.857513
838.7708, 5.698547
839.2529, 5.379608
839.7350, 5.245148
840.2171, 5.446625
840.6992, 5.716095
841.1813, 6.123444
841.6635, 6.453339
842.1456, 6.459778
842.6277, 5.975525
843.1098, 5.670319
843.5919, 5.626190
844.0740, 5.645752
844.5562, 5.485199
845.0383, 5.187744
845.5204, 4.907928
846.0025, 4.679596
846.4846, 4.513824
846.9667, 4.409332
847.4489, 4.357361
847.9310, 4.375397
848.4131, 4.526611
848.8952, 4.566833
849.3773, 4.429871
849.8594, 4.263763
850.3416, 4.221222
850.8237, 4.305267
851.3058, 4.128113
851.7879, 3.630188
852.2700, 3.313324
852.7521, 3.884705
853.2343, 4.707336
853.7164, 4.976654
854.1985, 4.584167
854.6806, 4.249451
855.1627, 4.213074
855.6448, 4.299835
856.1270, 4.441254
856.6091, 4.596619
857.0912, 4.576630
857.5733, 4.373260
858.0554, 4.227264
858.5375, 4.350098
859.0197, 4.609283
859.5018, 4.712433
859.9839, 4.678833
860.4660, 4.641052
860.9481, 4.704224
861.4302, 4.773621
861.9124, 4.840759
862.3945, 4.857117
862.8766, 4.651123
863.3587, 4.018524
863.8408, 3.691925
864.3229, 4.146179
864.8051, 4.945953
865.2872, 4.501892
865.7693, 3.048767
866.2514, 2.014221
866.7335, 2.598816
867.2156, 3.421722
867.6978, 3.406128
868.1799, 2.808044
868.6620, 2.209351
869.1441, 1.359741
869.6262, 1.100647
870.1083, 1.867798
870.5905, 3.050537
871.0726, 3.439911
871.5547, 3.064697
872.0368, 2.785736
872.5189, 2.848480
873.0010, 2.992493
873.4832, 2.940826
873.9653, 2.758972
874.4474, 2.540466
874.9295, 2.192291
875.4116, 2.018860
875.8937, 2.284088
876.3759, 2.624420
876.8580, 2.659576
877.3401, 2.299591
877.8222, 2.152679
878.3043, 2.291840
878.7864, 2.484131
879.2686, 2.368744
879.7507, 2.177032
880.2328, 2.499237
880.7149, 3.506409
881.1970, 4.126495
881.6791, 3.409119
882.1613, 2.445770
882.6434, 2.059509
883.1255, 2.381042
883.6076, 2.322144
884.0897, 1.723816
884.5718, 1.270538
885.0540, 1.660187
885.5361, 2.540344
886.0182, 2.656738
886.5003, 2.098846
886.9824, 1.634247
887.4645, 2.073273
887.9467, 2.438354
888.4288, 1.812042
888.9109, 0.3433840
889.3930, 0.1131590
889.8751, 1.068024
890.3572, 1.979462
890.8394, 1.894043
891.3215, 1.220337
891.8036, 1.214203
892.2857, 1.739136
892.7678, 1.966156
893.2499, 1.291534
893.7321, 0.4653630
894.2142, 0.1517330
894.6963, 0.4956970
895.1784, 0.4316710
895.6605, 0.7113650
896.1426, 1.281219
896.6248, 0.9142150
897.1069, 0.1892090
897.5890, 5.4504000E-02
898.0711, 0.4424440
898.5532, 0.5681460
899.0353, 0.2288210
899.5175, 8.3557002E-02
899.9996, 0.1923520
900.4817, 0.6889340
900.9638, 0.9588320
901.4459, 0.8359070
901.9280, 0.7335210
902.4102, 0.6120300
902.8923, 0.6194150
903.3744, 0.9419250
903.8565, 1.592896
904.3386, 1.840088
904.8207, 1.660309
905.3029, 1.578705
905.7850, 2.302765
906.2671, 3.149567
906.7492, 3.207397
907.2313, 2.509003
907.7134, 2.151398
908.1956, 2.871124
908.6777, 3.519012
909.1598, 3.609833
909.6419, 3.327545
910.1240, 3.735382
910.6061, 4.850006
911.0883, 5.605377
911.5704, 5.257324
912.0525, 4.650574
912.5346, 4.790833
913.0167, 5.520020
913.4988, 6.495483
913.9810, 8.265564
914.4631, 9.401611
914.9452, 9.192993
915.4273, 8.506897
915.9094, 8.678040
916.3915, 9.795715
916.8737, 10.45557
917.3558, 10.34961
917.8379, 10.25644
918.3200, 11.19135
918.8021, 12.65570
919.2842, 13.99869
919.7664, 15.14178
920.2485, 15.87924
920.7306, 15.71198
921.2127, 15.49100
921.6948, 15.83871
922.1769, 16.83865
922.6591, 16.99670
923.1412, 16.23538
923.6233, 15.38339
924.1054, 14.91049
924.5875, 14.75873
925.0696, 15.04285
925.5518, 15.64227
926.0339, 15.93237
926.5160, 15.20776
926.9981, 14.65555
927.4802, 14.80899
927.9623, 15.38635
928.4445, 15.51007
928.9266, 15.15195
929.4087, 14.70251
929.8908, 14.30188
930.3729, 13.80606
930.8550, 12.89285
931.3372, 11.76990
931.8193, 10.81265
932.3014, 10.00095
932.7835, 9.584137
933.2656, 10.15683
933.7477, 10.73962
934.2299, 10.31030
934.7120, 8.715240
935.1941, 7.691528
935.6762, 7.384216
936.1583, 7.164856
936.6404, 6.213013
937.1226, 5.128174
937.6047, 4.913757
938.0868, 5.651001
938.5689, 5.954742
939.0510, 4.808136
939.5331, 3.739471
940.0153, 3.368561
940.4974, 3.585693
940.9795, 3.674774
941.4616, 3.633453
941.9437, 3.480103
942.4258, 3.209991
942.9080, 2.850037
943.3901, 2.420502
943.8722, 1.933075
944.3543, 1.410583
944.8364, 0.6772770
945.3185, 0.1681520
945.8007, 6.5246999E-02
946.2828, 4.4372998E-02
946.7649, 0.3407590
947.2470, 1.072723
947.7291, 1.394806
948.2112, 1.181824
948.6934, 0.7386780
949.1755, 5.9661999E-02
949.6576, 0.5238040
950.1397, 0.5683290
950.6218, 0.1003110
951.1039, 0.5411680
951.5861, 0.4491270
952.0682, 0.3837280
952.5503, 0.7218320
953.0324, 1.350189
953.5145, 1.369720
953.9966, 0.8120420
954.4788, 0.1521610
954.9609, 0.6485600
955.4430, 1.167938
955.9251, 0.7934570
956.4072, 0.1298830
956.8893, 0.6607060
957.3715, 0.1976620
957.8536, 0.1918640
958.3357, 1.063446
958.8178, 2.106720
959.2999, 2.023712
959.7820, 1.120728
960.2642, 0.6302490
960.7463, 0.8028560
961.2284, 1.123840
961.7105, 1.139313
962.1926, 1.125977
962.6747, 1.403229
963.1569, 2.102875
963.6390, 2.776855
964.1211, 3.561462
964.6032, 3.964722
965.0853, 3.407990
965.5674, 2.311096
966.0496, 1.910400
966.5317, 2.113861
967.0138, 2.477112
967.4959, 2.814362
967.9780, 3.072021
968.4601, 3.009918
968.9423, 2.960419
969.4244, 3.884735
969.9065, 6.022156
970.3886, 7.246246
970.8707, 7.025543
971.3528, 6.350861
971.8350, 6.265228
972.3171, 6.618866
972.7992, 7.078766
973.2813, 7.576233
973.7634, 8.039398
974.2455, 8.090149
974.7277, 8.258148
975.2098, 8.893829
975.6919, 10.00790
976.1740, 10.83838
976.6561, 11.36844
977.1382, 11.89908
977.6204, 12.68887
978.1025, 13.53568
978.5846, 14.25436
979.0667, 14.82797
979.5488, 15.24008
980.0309, 15.27219
980.5131, 15.40216
980.9952, 15.69287
981.4773, 16.12469
981.9594, 16.83444
982.4415, 17.73230
982.9236, 17.93918
983.4058, 17.18274
983.8879, 16.43604
984.3700, 16.73804
984.8521, 17.29718
985.3342, 17.32120
985.8163, 16.55637
986.2985, 16.08884
986.7806, 16.10187
987.2627, 16.01627
987.7448, 15.47354
988.2269, 14.63159
988.7090, 13.90854
989.1912, 13.30997
989.6733, 12.84387
990.1554, 12.73285
990.6375, 12.52350
991.1196, 11.90518
991.6017, 11.09058
992.0839, 10.45969
992.5660, 10.06055
993.0481, 9.629425
993.5302, 9.128906
994.0123, 8.601227
994.4944, 7.930664
994.9766, 7.327179
995.4587, 7.304230
995.9408, 7.977295
996.4229, 8.145447
996.9050, 6.798279
997.3871, 5.479370
997.8693, 4.793762
998.3514, 4.682617
998.8335, 5.073486
999.3156, 5.913177
999.7977, 6.216370
1000.280, 5.107147
1000.762, 3.881653
1001.244, 4.028229
1001.726, 4.817627
1002.208, 5.005219
1002.690, 3.882813
1003.173, 2.994934
1003.655, 2.450012
1004.137, 2.029083
1004.619, 1.370178
1005.101, 0.6488950
1005.583, 0.5957640
1006.065, 1.225067
1006.547, 1.945099
1007.029, 2.651062
1007.512, 3.096191
1007.994, 2.995514
1008.476, 2.509216
1008.958, 2.234833
1009.440, 2.189484
1009.922, 2.263763
1010.404, 2.526550
1010.886, 2.672760
1011.369, 2.002991
1011.851, 1.004486
1012.333, 0.5534670
1012.815, 1.203766
1013.297, 1.535431
1013.779, 1.033417
1014.261, 0.5781860
1014.743, 0.9453430
1015.225, 2.059845
1015.708, 2.216888
1016.190, 1.462250
1016.672, 0.5159300
1017.154, 0.3799740
1017.636, 1.074829
1018.118, 1.496918
1018.600, 1.624786
1019.082, 1.381104
1019.565, 0.5939330
1020.047, 5.7861000E-02
1020.529, 0.4422300
1021.011, 0.7020570
1021.493, 1.063721
1021.975, 1.447479
1022.457, 1.740234
1022.939, 1.947388
1023.421, 1.824707
1023.904, 0.7090150
1024.386, 0.1987300
1024.868, 0.1641540
1025.350, 0.6699830
1025.832, 0.8988340
1026.314, 0.5327150
1026.796, 0.9924620
1027.278, 0.5480350
1027.760, 1.449707
1028.243, 1.746887
1028.725, 0.3711550
1029.207, 0.6285400
1029.689, 0.3781740
1030.171, 7.6355003E-02
1030.653, 1.513885
1031.135, 0.2546390
1031.617, 1.154510
1032.100, 1.295135
1032.582, 2.015900
1033.064, 1.478973
1033.546, 1.330322
1034.028, 2.439178
1034.510, 2.851501
1034.992, 2.169159
1035.474, 2.925690
1035.957, 1.111115
1036.439, 1.552277
1036.921, 2.966705
1037.403, 2.346588
1037.885, 3.125092
1038.367, 3.370667
1038.849, 1.194946
1039.331, 3.229492
1039.813, 3.442993
1040.296, 1.786835
1040.778, 3.676575
1041.260, 2.277557
1041.742, 2.052094
1042.224, 2.709839
1042.706, 2.449341
1043.188, 3.637726
1043.670, 2.192566
1044.152, 2.797211
1044.635, 3.683502
1045.117, 4.816711
1045.599, 5.813721
1046.081, 6.144775
1046.563, 5.732086
1047.045, 5.179779
1047.527, 4.490936
1048.009, 4.155396
1048.492, 5.027496
1048.974, 6.207367
1049.456, 6.734833
1049.938, 6.604187
1050.420, 6.424530
1050.902, 6.140839
1051.384, 6.072296
1051.866, 6.376801
1052.349, 6.817566
1052.831, 6.953583
1053.313, 6.836761
1053.795, 6.859894
1054.277, 7.122650
1054.759, 7.503143
1055.241, 8.016602
1055.723, 8.437286
1056.205, 8.520630
1056.688, 8.234955
1057.170, 8.604858
1057.652, 9.503967
1058.134, 10.34509
1058.616, 10.70084
1059.098, 10.95557
1059.580, 11.54150
1060.062, 12.24649
1060.544, 12.69299
1061.027, 12.65424
1061.509, 12.76874
1061.991, 13.20947
1062.473, 13.56061
1062.955, 13.13068
1063.437, 12.51166
1063.919, 13.09952
1064.401, 14.80670
1064.884, 16.32019
1065.366, 16.87897
1065.848, 16.83588
1066.330, 15.96906
1066.812, 14.79193
1067.294, 15.31485
1067.776, 17.23032
1068.258, 18.50912
1068.740, 18.67722
1069.223, 18.68332
1069.705, 19.17731
1070.187, 19.84668
1070.669, 20.44412
1071.151, 20.95416
1071.633, 21.68256
1072.115, 22.65793
1072.597, 23.49017
1073.079, 24.05310
1073.562, 24.40591
1074.044, 24.40933
1074.526, 24.30798
1075.008, 24.53354
1075.490, 25.50540
1075.972, 26.34067
1076.454, 27.05685
1076.936, 27.55276
1077.419, 27.67944
1077.901, 27.52228
1078.383, 27.49594
1078.865, 27.57706
1079.347, 27.64777
1079.829, 27.60767
1080.311, 27.57574
1080.793, 27.92838
1081.275, 28.16711
1081.758, 27.27411
1082.240, 25.11285
1082.722, 23.61099
1083.204, 23.07388
1083.686, 22.72214
1084.168, 21.92413
1084.650, 20.88254
1085.132, 20.09348
1085.615, 19.44717
1086.097, 18.40411
1086.579, 16.72916
1087.061, 15.25076
1087.543, 14.12573
1088.025, 13.27103
1088.507, 12.76813
1088.989, 12.39407
1089.471, 12.00385
1089.953, 11.56247
1090.436, 10.79294
1090.918, 9.091187
1091.400, 7.802856
1091.882, 7.909943
1092.364, 8.939301
1092.846, 8.498077
1093.328, 6.915283
1093.810, 5.773743
1094.293, 6.380890
1094.775, 6.796478
1095.257, 5.641052
1095.739, 3.283813
1096.221, 4.515686
1096.703, 5.115051
1097.185, 5.121979
1097.667, 2.723083
1098.150, 3.450989
1098.632, 2.939117
1099.114, 2.385132
1099.596, 3.580139
1100.078, 1.578278
1100.560, 2.764038
1101.042, 2.690186
1101.524, 3.206055
1102.006, 2.473785
1102.489, 2.138947
1102.971, 3.071075
1103.453, 3.315979
1103.935, 2.475586
1104.417, 3.083374
1104.899, 1.129242
1105.381, 1.440369
1105.863, 2.734161
1106.345, 2.002716
1106.828, 2.679352
1107.310, 2.832306
1107.792, 0.5733030
1108.274, 2.534058
1108.756, 2.682892
1109.238, 0.9713130
1109.720, 2.815094
1110.202, 0.2967530
1110.685, 1.106171
1111.167, 1.869995
1111.649, 2.029236
1112.131, 0.2267150
1112.613, 0.6351930
1113.095, 0.2471620
1113.577, 0.1925050
1114.059, 1.107269
1114.542, 0.7991030
1115.024, 0.4718930
1115.506, 0.4740910
1115.988, 1.056580
1116.470, 0.3814700
1116.952, 9.4329998E-02
1117.434, 1.064850
1117.916, 1.338593
1118.398, 0.5177310
1118.880, 1.135651
1119.363, 0.8176570
1119.845, 0.5157470
1120.327, 0.7591250
1120.809, 6.0999999E-04
1121.291, 0.6379700
1121.773, 0.7437130
1122.255, 1.571930
1122.737, 0.3218690
1123.220, 0.3945920
1123.702, 1.402832
1124.184, 0.3452150
1124.666, 1.071869
1125.148, 0.4070740
1125.630, 0.6553340
1126.112, 0.5802310
1126.594, 0.1910100
1127.077, 8.9080997E-02
1127.559, 1.154236
1128.041, 1.883087
1128.523, 0.5965580
1129.005, 0.6089480
1129.487, 0.7847290
1129.969, 0.2256160
1130.451, 0.2595520
1130.933, 0.6571040
1131.416, 0.7860720
1131.898, 0.4880370
1132.380, 0.3713990
1132.862, 1.092133
1133.344, 1.956024
1133.826, 2.405609
1134.308, 2.448883
1134.790, 2.478485
1135.272, 2.493134
1135.755, 2.459717
1136.237, 2.325897
1136.719, 2.213928
1137.201, 2.297852
1137.683, 2.446075
1138.165, 2.483185
1138.647, 2.384766
1139.129, 2.245636
1139.612, 2.053680
1140.094, 1.928162
1140.576, 2.167297
1141.058, 2.330780
1141.540, 1.350616
1142.022, 4.3945000E-02
1142.504, 0.2508540
1142.986, 2.234009
1143.469, 3.529694
1143.951, 3.338135
1144.433, 2.621155
1144.915, 1.994171
1145.397, 1.520477
1145.879, 1.357178
1146.361, 1.458740
1146.843, 1.623932
1147.325, 1.906738
1147.807, 2.057526
1148.290, 1.950867
1148.772, 1.877655
1149.254, 2.429047
1149.736, 3.245148
1150.218, 3.230194
1150.700, 2.393616
1151.182, 1.843597
1151.664, 2.358521
1152.147, 2.853760
1152.629, 2.996918
1153.111, 2.973389
1153.593, 3.148254
1154.075, 3.454102
1154.557, 3.587219
1155.039, 3.487213
1155.521, 3.476624
1156.004, 3.969604
1156.486, 4.323639
1156.968, 4.168640
1157.450, 3.704376
1157.932, 3.610291
1158.414, 3.822266
1158.896, 3.737183
1159.378, 3.091095
1159.860, 2.729370
1160.343, 3.452850
1160.825, 4.471802
1161.307, 5.312866
1161.789, 5.956360
1162.271, 6.279694
1162.753, 6.280762
1163.235, 5.947266
1163.717, 5.013214
1164.199, 4.390167
1164.682, 5.205963
1165.164, 6.437988
1165.646, 7.026062
1166.128, 6.921936
1166.610, 6.970245
1167.092, 7.157379
1167.574, 7.651947
1168.056, 8.766998
1168.539, 9.826508
1169.021, 9.790222
1169.503, 9.402130
1169.985, 9.834351
1170.467, 11.64105
1170.949, 12.06982
1171.431, 10.93668
1171.913, 9.983276
1172.396, 10.54050
1172.878, 11.55399
1173.360, 11.61880
1173.842, 11.20331
1174.324, 11.24942
1174.806, 12.13043
1175.288, 12.53546
1175.770, 12.28320
1176.252, 12.26941
1176.734, 13.75803
1177.217, 15.41061
1177.699, 15.46002
1178.181, 14.46054
1178.663, 13.99454
1179.145, 14.65533
1179.627, 14.97205
1180.109, 14.66467
1180.591, 12.77121
1181.074, 14.27731
1181.556, 15.04816
1182.038, 15.31030
1182.520, 13.08340
1183.002, 14.01694
1183.484, 13.73526
1183.966, 13.40201
1184.448, 14.78903
1184.931, 12.97720
1185.413, 14.35870
1185.895, 14.47449
1186.377, 12.59601
1186.859, 14.44235
1187.341, 15.56616
1187.823, 16.03848
1188.305, 14.04736
1188.787, 15.11185
1189.270, 14.86240
1189.752, 14.49503
1190.234, 15.80197
1190.716, 13.84100
1191.198, 14.99713
1191.680, 14.81995
1192.162, 15.15662
1192.644, 14.17081
1193.126, 13.50833
1193.609, 14.03769
1194.091, 13.80627
1194.573, 12.96637
1195.055, 12.48175
1195.537, 13.25500
1196.019, 13.33179
1196.501, 12.31415
1196.983, 12.73566
1197.466, 10.58585
1197.948, 10.69254
1198.430, 11.77271
1198.912, 10.81866
1199.394, 11.26282
1199.876, 10.62579
1200.358, 10.11392
1200.840, 10.90247
1201.323, 11.24857
1201.805, 11.17657
1202.287, 9.432861
1202.769, 9.847839
1203.251, 9.397949
1203.733, 8.912354
1204.215, 9.631592
1204.697, 8.131287
1205.179, 8.831451
1205.661, 8.653412
1206.144, 7.794037
1206.626, 6.918549
1207.108, 6.467651
1207.590, 6.335449
1208.072, 6.347443
1208.554, 6.513550
1209.036, 6.601685
1209.518, 6.450378
1210.001, 6.461365
1210.483, 6.919891
1210.965, 7.585846
1211.447, 7.907715
1211.929, 7.963165
1212.411, 7.921661
1212.893, 7.743286
1213.375, 7.702545
1213.858, 7.908844
1214.340, 8.083984
1214.822, 8.096649
1215.304, 7.956482
1215.786, 7.535370
1216.268, 7.005951
1216.750, 6.807190
1217.232, 7.531586
1217.714, 7.490326
1218.197, 6.231476
1218.679, 4.961609
1219.161, 4.391937
1219.643, 4.378845
1220.125, 4.873901
1220.607, 5.621368
1221.089, 6.022736
1221.571, 5.624481
1222.053, 5.377441
1222.536, 5.373260
1223.018, 5.407196
1223.500, 5.354004
1223.982, 5.244537
1224.464, 5.055664
1224.946, 4.863434
1225.428, 4.832123
1225.910, 5.278137
1226.393, 5.433441
1226.875, 5.247101
1227.357, 4.904724
1227.839, 4.415100
1228.321, 3.893311
1228.803, 3.499695
1229.285, 3.295227
1229.767, 3.306824
1230.250, 3.790833
1230.732, 3.948578
1231.214, 3.688812
1231.696, 3.420319
1232.178, 3.605438
1232.660, 3.865967
1233.142, 3.537537
1233.624, 2.887390
1234.106, 2.564209
1234.589, 2.806610
1235.071, 3.042755
1235.553, 3.305145
1236.035, 3.320526
1236.517, 2.534393
1236.999, 1.665100
1237.481, 1.678284
1237.963, 2.224609
1238.445, 2.466034
1238.928, 2.212250
1239.410, 2.106262
1239.892, 2.180176
1240.374, 2.295288
1240.856, 2.414795
1241.338, 2.462372
1241.820, 2.483826
1242.302, 2.338409
1242.785, 1.684662
1243.267, 0.3205870
1243.749, 0.5043640
1244.231, 0.7333370
1244.713, 0.5943600
1245.195, 1.6449001E-02
1245.677, 0.6318050
1246.159, 1.233917
1246.641, 1.640686
1247.124, 1.533478
1247.606, 0.8492430
1248.088, 0.3199460
1248.570, 1.7731000E-02
1249.052, 6.3079998E-02
1249.534, 0.5082700
1250.016, 1.111237
1250.498, 1.393707
1250.980, 1.488403
1251.463, 1.556549
1251.945, 1.598267
1252.427, 1.687714
1252.909, 1.817627
1253.391, 1.863068
1253.873, 1.679932
1254.355, 1.478363
1254.837, 1.358582
1255.320, 1.263397
1255.802, 1.083313
1256.284, 0.8587040
1256.766, 0.9060670
1257.248, 1.196106
1257.730, 1.430725
1258.212, 1.375092
1258.694, 1.361694
1259.177, 1.538757
1259.659, 1.701996
1260.141, 1.493073
1260.623, 1.110352
1261.105, 1.430969
1261.587, 2.279144
1262.069, 2.712738
1262.551, 2.059662
1263.033, 1.302887
1263.516, 0.4418950
1263.998, 0.2088620
1264.480, 0.1985470
1264.962, 0.1797180
1265.444, 0.3742370
1265.926, 0.3907170
1266.408, 0.3256840
1266.890, 6.8970002E-02
1267.372, 2.1118000E-02
1267.855, 0.2605290
1268.337, 0.5352780
1268.819, 0.6630250
1269.301, 0.6763310
1269.783, 0.3917540
1270.265, 4.7882002E-02
1270.747, 0.3741150
1271.229, 1.727539
1271.712, 2.733459
1272.194, 3.334778
1272.676, 3.570282
1273.158, 3.357758
1273.640, 2.899689
1274.122, 1.978088
1274.604, 1.109406
1275.086, 1.167816
1275.568, 2.393921
1276.051, 2.463104
1276.533, 1.296600
1277.015, 0.3910220
1277.497, 1.164551
1277.979, 1.994995
1278.461, 1.667053
1278.943, 0.9751590
1279.425, 1.015533
1279.907, 1.769440
1280.390, 1.684692
1280.872, 0.8722530
1281.354, 0.3995670
1281.836, 1.451965
1282.318, 2.157379
1282.800, 1.594696
1283.282, 0.7143550
1283.764, 0.3122250
1284.247, 0.2220460
1284.729, 0.1800840
1285.211, 0.7212520
1285.693, 0.5606380
1286.175, 1.723724
1286.657, 3.076141
1287.139, 2.768677
1287.621, 2.296387
1288.104, 3.153900
1288.586, 4.410522
1289.068, 3.803162
1289.550, 2.071136
1290.032, 0.9187010
1290.514, 1.044586
1290.996, 1.394318
1291.478, 2.038574
1291.960, 2.573517
1292.443, 2.609741
1292.925, 2.529205
1293.407, 3.077362
1293.889, 3.709717
1294.371, 3.369690
1294.853, 1.415222
1295.335, 1.014801
1295.817, 1.446289
1296.299, 1.699158
1296.782, 1.038086
1297.264, 0.3015750
1297.746, 0.2916260
1298.228, 0.5467830
1298.710, 0.6458130
1299.192, 0.6148070
1299.674, 0.5628050
1300.156, 0.4320370
1300.639, 0.3114620
1301.121, 0.3865660
1301.603, 0.4439090
1302.085, 0.1961980
1302.567, 3.5100000E-03
1303.049, 1.3855000E-02
1303.531, 0.0000000E+00
##END=



