##NAMES=Baotite
##RRUFFID=R060414
##IDEAL CHEMISTRY=Ba_4_(Ti,Nb,W)_8_O_16_(SiO_3_)_4_Cl
##LOCALITY=Zagi Mountain, near Hammedabad, Khaffor Dehri, North-West Frontier Province, Pakistan
##OWNER=RRUFF
##SOURCE=Herb Obodda
##DESCRIPTION=Dark brown vitreous fragment
##STATUS=The identification of this mineral has been confirmed by X-ray diffraction and chemical analysis
##URL=rruff.info/R060414
##MEASURED CHEMISTRY=Ba_4.00_(Ti_6.54_Nb^5+^_1.23_Fe^3+^_0.23_)_Î£=8_O_16_(Si_1.00_O_3_)_4_Cl_1.00_
156.6031, 0.0000000E+00
157.0852, 2.005737
157.5673, 1.528259
158.0495, 1.039246
158.5316, 0.1580810
159.0137, 5.637024
159.4958, 12.44879
159.9779, 19.08795
160.4600, 25.79773
160.9422, 33.58368
161.4243, 42.07397
161.9064, 52.04669
162.3885, 64.08899
162.8706, 78.59943
163.3527, 94.91406
163.8349, 113.5790
164.3170, 134.1083
164.7991, 154.4630
165.2812, 172.0597
165.7633, 189.7108
166.2454, 210.1043
166.7276, 236.5958
167.2097, 264.4122
167.6918, 290.7771
168.1739, 315.4851
168.6560, 340.3946
169.1381, 367.0924
169.6203, 393.8276
170.1024, 413.0244
170.5845, 426.1924
171.0666, 438.5871
171.5487, 452.8580
172.0309, 468.7443
172.5130, 482.5583
172.9951, 490.4268
173.4772, 494.8227
173.9593, 499.5786
174.4414, 506.6265
174.9236, 514.6260
175.4057, 522.4631
175.8878, 530.5906
176.3699, 539.3759
176.8520, 550.7427
177.3341, 564.9097
177.8163, 580.8256
178.2984, 600.4367
178.7805, 618.6071
179.2626, 628.5455
179.7447, 630.3973
180.2268, 626.5782
180.7090, 617.1710
181.1911, 602.7631
181.6732, 583.9428
182.1553, 559.9380
182.6374, 531.6155
183.1195, 500.7972
183.6017, 466.8903
184.0838, 432.6261
184.5659, 398.8837
185.0480, 366.2430
185.5301, 336.4834
186.0123, 311.5524
186.4944, 290.2959
186.9765, 270.6845
187.4586, 252.6384
187.9407, 235.5598
188.4228, 218.4724
188.9050, 201.5314
189.3871, 185.3968
189.8692, 171.8652
190.3513, 160.0537
190.8334, 144.3819
191.3155, 123.8407
191.7977, 101.6217
192.2798, 82.39545
192.7619, 66.14066
193.2440, 51.77737
193.7261, 38.19009
194.2082, 25.60599
194.6904, 16.45575
195.1725, 11.46930
195.6546, 8.727814
196.1367, 4.902405
196.6188, 0.1190800
197.1009, 4.969391
197.5831, 9.069702
198.0652, 12.45996
198.5473, 14.91129
199.0294, 16.37103
199.5115, 16.97098
199.9937, 16.85620
200.4758, 15.98123
200.9579, 14.77277
201.4400, 13.29645
201.9221, 11.50180
202.4042, 10.33945
202.8864, 10.23459
203.3685, 10.42560
203.8506, 8.812195
204.3327, 4.966003
204.8148, 1.156219
205.2969, 1.312714
205.7791, 2.263092
206.2612, 3.077423
206.7433, 3.745422
207.2254, 4.378845
207.7075, 5.245819
208.1896, 6.344879
208.6718, 7.714783
209.1539, 9.587128
209.6360, 12.18390
210.1181, 14.15405
210.6002, 15.50064
211.0823, 16.15878
211.5645, 15.68341
212.0466, 13.53186
212.5287, 11.55853
213.0108, 10.97180
213.4929, 12.31046
213.9750, 12.82196
214.4572, 12.67975
214.9393, 11.81522
215.4214, 12.62363
215.9035, 15.95004
216.3856, 19.21982
216.8678, 20.67386
217.3499, 19.46960
217.8320, 19.20917
218.3141, 20.14020
218.7962, 22.07364
219.2783, 24.39957
219.7605, 26.85419
220.2426, 30.11984
220.7247, 34.79727
221.2068, 41.69852
221.6889, 47.42081
222.1710, 50.68930
222.6532, 52.94006
223.1353, 58.68170
223.6174, 69.07587
224.0995, 81.12915
224.5816, 93.55707
225.0637, 106.9915
225.5459, 119.3182
226.0280, 129.3678
226.5101, 138.5521
226.9922, 151.0190
227.4743, 168.3394
227.9564, 186.6201
228.4386, 204.3627
228.9207, 221.2115
229.4028, 237.5849
229.8849, 253.4359
230.3670, 268.8570
230.8492, 284.5328
231.3313, 300.0328
231.8134, 316.1938
232.2955, 333.4741
232.7776, 351.0163
233.2597, 371.1398
233.7419, 394.5680
234.2240, 420.4556
234.7061, 445.8414
235.1882, 469.7290
235.6703, 494.5226
236.1524, 521.4694
236.6346, 550.7006
237.1167, 581.6760
237.5988, 614.6085
238.0809, 649.2435
238.5630, 685.7917
239.0451, 724.8571
239.5273, 764.5688
240.0094, 804.2203
240.4915, 843.9630
240.9736, 883.9291
241.4557, 926.9853
241.9378, 969.2347
242.4200, 1002.847
242.9021, 1028.632
243.3842, 1045.028
243.8663, 1051.518
244.3484, 1047.997
244.8306, 1034.714
245.3127, 1011.074
245.7948, 978.1956
246.2769, 937.1644
246.7590, 884.5781
247.2411, 830.4283
247.7233, 777.7983
248.2054, 726.5713
248.6875, 676.8759
249.1696, 627.7367
249.6517, 581.2514
250.1338, 541.3818
250.6160, 509.6498
251.0981, 481.6191
251.5802, 456.0992
252.0623, 432.5988
252.5444, 413.1360
253.0265, 398.6083
253.5087, 387.5953
253.9908, 378.3369
254.4729, 370.6839
254.9550, 364.5245
255.4371, 360.0972
255.9192, 357.6476
256.4014, 355.4742
256.8835, 353.1298
257.3656, 351.6867
257.8477, 352.5602
258.3298, 356.4724
258.8120, 361.2999
259.2941, 366.6778
259.7762, 372.6682
260.2583, 378.8824
260.7404, 385.1935
261.2225, 391.7828
261.7047, 399.0268
262.1868, 406.7482
262.6689, 416.1409
263.1510, 427.6209
263.6331, 440.9260
264.1152, 454.9500
264.5974, 469.5600
265.0795, 484.9389
265.5616, 500.8234
266.0437, 517.4431
266.5258, 534.7487
267.0079, 553.1326
267.4901, 572.4781
267.9722, 590.3177
268.4543, 607.1470
268.9364, 621.9020
269.4185, 633.9901
269.9006, 643.5989
270.3828, 649.8380
270.8649, 652.9609
271.3470, 652.6385
271.8291, 647.0211
272.3112, 635.2605
272.7933, 620.0893
273.2755, 602.9966
273.7576, 583.6291
274.2397, 564.4010
274.7218, 545.2556
275.2039, 526.7219
275.6860, 510.9026
276.1682, 498.2032
276.6503, 486.1703
277.1324, 472.8899
277.6145, 458.2912
278.0966, 445.2948
278.5787, 434.5096
279.0609, 425.0741
279.5430, 415.0228
280.0251, 404.3832
280.5072, 393.3997
280.9893, 382.3597
281.4715, 371.3589
281.9536, 359.1895
282.4357, 345.6298
282.9178, 331.2036
283.3999, 316.3905
283.8820, 301.1058
284.3642, 286.6489
284.8463, 274.2105
285.3284, 263.4637
285.8105, 251.1207
286.2926, 236.6401
286.7747, 221.9572
287.2569, 210.0038
287.7390, 200.6816
288.2211, 191.5127
288.7032, 181.1285
289.1853, 170.0335
289.6674, 160.0847
290.1496, 151.1754
290.6317, 143.7655
291.1138, 138.9371
291.5959, 136.3731
292.0780, 133.9459
292.5602, 130.6050
293.0423, 127.2419
293.5244, 125.7030
294.0065, 126.0215
294.4886, 127.3581
294.9707, 129.2522
295.4529, 131.5900
295.9350, 134.0026
296.4171, 136.6066
296.8992, 138.9127
297.3813, 140.4574
297.8634, 141.1382
298.3456, 140.0816
298.8277, 136.3217
299.3098, 130.3636
299.7919, 123.2621
300.2740, 115.1273
300.7561, 106.0281
301.2383, 95.96686
301.7204, 85.17316
302.2025, 74.86182
302.6846, 65.38651
303.1667, 56.84024
303.6488, 49.24261
304.1310, 42.76974
304.6131, 36.94162
305.0952, 31.31686
305.5773, 26.01984
306.0594, 21.40738
306.5415, 18.03906
307.0237, 15.23029
307.5058, 11.90158
307.9879, 7.778259
308.4700, 4.518738
308.9521, 3.805298
309.4343, 4.771545
309.9164, 5.853302
310.3985, 6.192810
310.8806, 6.524139
311.3627, 7.189911
311.8448, 8.206573
312.3270, 10.11954
312.8091, 14.14584
313.2912, 18.97263
313.7733, 23.04929
314.2554, 25.14316
314.7375, 26.94165
315.2197, 28.86633
315.7018, 31.04776
316.1839, 34.35840
316.6660, 40.72247
317.1481, 47.61185
317.6302, 52.85010
318.1124, 54.67450
318.5945, 56.37781
319.0766, 58.92111
319.5587, 62.20212
320.0408, 65.88950
320.5229, 70.14453
321.0051, 74.58746
321.4872, 78.99426
321.9693, 83.08337
322.4514, 87.51279
322.9335, 92.54297
323.4156, 97.98969
323.8978, 103.4985
324.3799, 108.6115
324.8620, 114.1224
325.3441, 120.2371
325.8262, 126.7594
326.3083, 134.3738
326.7905, 144.7268
327.2726, 155.7212
327.7547, 164.6454
328.2368, 168.8647
328.7189, 173.7437
329.2010, 180.5913
329.6832, 189.5787
330.1653, 198.0032
330.6474, 206.1165
331.1295, 213.4785
331.6116, 219.7536
332.0938, 224.2343
332.5759, 228.8013
333.0580, 233.9765
333.5401, 239.5654
334.0222, 243.8805
334.5043, 247.2231
334.9865, 248.9303
335.4686, 248.5575
335.9507, 245.7627
336.4328, 241.6499
336.9149, 235.7513
337.3970, 228.7485
337.8792, 223.0732
338.3613, 219.5636
338.8434, 214.8050
339.3255, 207.1156
339.8076, 196.1990
340.2898, 184.1036
340.7719, 170.2653
341.2540, 156.0531
341.7361, 143.1474
342.2182, 131.8543
342.7003, 121.1429
343.1825, 111.0259
343.6646, 101.2950
344.1467, 90.95422
344.6288, 79.68195
345.1109, 68.94800
345.5930, 60.24945
346.0752, 53.53754
346.5573, 47.19675
347.0394, 40.91818
347.5215, 34.64355
348.0036, 27.90948
348.4857, 20.75867
348.9679, 13.82831
349.4500, 7.241089
349.9321, 1.156738
350.4142, 3.840363
350.8963, 7.521454
351.3784, 10.54691
351.8606, 13.76721
352.3427, 17.01755
352.8248, 19.76331
353.3069, 21.79660
353.7890, 23.06494
354.2711, 23.48856
354.7533, 23.03970
355.2354, 21.94144
355.7175, 20.15402
356.1996, 17.86945
356.6817, 15.42407
357.1638, 13.56192
357.6460, 11.07315
358.1281, 6.813263
358.6102, 0.9803770
359.0923, 5.115326
359.5744, 10.85046
360.0565, 16.47034
360.5387, 22.18246
361.0208, 27.99911
361.5029, 33.99948
361.9850, 39.94202
362.4671, 46.02121
362.9492, 52.77283
363.4314, 60.47678
363.9135, 68.83551
364.3956, 77.76788
364.8777, 87.53729
365.3598, 97.31094
365.8419, 106.4299
366.3241, 115.5525
366.8062, 125.6151
367.2883, 137.1348
367.7704, 149.2325
368.2526, 161.4554
368.7347, 173.6017
369.2168, 187.2900
369.6989, 203.9561
370.1810, 221.3361
370.6631, 237.7218
371.1453, 252.1906
371.6274, 267.0993
372.1095, 283.2117
372.5916, 300.2739
373.0737, 316.1970
373.5558, 331.6093
374.0380, 345.1474
374.5201, 356.4121
375.0022, 365.6369
375.4843, 371.6228
375.9664, 374.6745
376.4485, 374.1582
376.9307, 368.2503
377.4128, 356.2401
377.8949, 342.0394
378.3770, 326.7509
378.8591, 310.5146
379.3412, 294.4724
379.8234, 278.5479
380.3055, 263.5703
380.7876, 250.7016
381.2697, 239.8052
381.7518, 230.4645
382.2339, 222.5613
382.7161, 216.1575
383.1982, 211.3907
383.6803, 208.2901
384.1624, 206.4262
384.6445, 205.8109
385.1266, 206.2167
385.6088, 207.0232
386.0909, 208.0475
386.5730, 209.7284
387.0551, 212.5326
387.5372, 216.3814
388.0193, 221.1210
388.5015, 228.0190
388.9836, 235.0068
389.4657, 239.6557
389.9478, 241.7880
390.4299, 243.2003
390.9120, 244.6362
391.3942, 246.2153
391.8763, 248.0839
392.3584, 251.2762
392.8405, 253.8299
393.3226, 254.8923
393.8047, 254.5107
394.2869, 252.8924
394.7690, 248.9995
395.2511, 244.6619
395.7332, 241.2364
396.2154, 240.1618
396.6975, 237.4518
397.1796, 230.9287
397.6617, 222.4094
398.1438, 215.0773
398.6259, 211.9737
399.1081, 207.4769
399.5902, 199.4454
400.0723, 187.1876
400.5544, 176.0932
401.0365, 166.7430
401.5186, 158.0733
402.0008, 149.2943
402.4829, 139.9269
402.9650, 131.2769
403.4471, 123.8275
403.9292, 117.1659
404.4113, 109.6671
404.8935, 100.9088
405.3756, 92.18439
405.8577, 83.92551
406.3398, 76.10089
406.8219, 69.87018
407.3040, 65.79626
407.7862, 62.24759
408.2683, 56.07135
408.7504, 47.19058
409.2325, 39.30078
409.7146, 34.04489
410.1967, 30.65082
410.6789, 26.09991
411.1610, 20.38419
411.6431, 14.80481
412.1252, 10.59112
412.6073, 7.512665
413.0894, 4.904877
413.5716, 2.824463
414.0537, 1.001038
414.5358, 1.375366
415.0179, 3.936249
415.5000, 5.375000
415.9821, 4.257751
416.4643, 1.874359
416.9464, 0.3000180
417.4285, 2.007568
417.9106, 3.625519
418.3927, 5.240662
418.8748, 6.950165
419.3570, 8.851227
419.8391, 10.76340
420.3212, 13.08759
420.8033, 16.18478
421.2854, 19.91623
421.7675, 23.66754
422.2497, 27.05380
422.7318, 30.56720
423.2139, 34.46518
423.6960, 38.93576
424.1781, 43.44736
424.6602, 48.53937
425.1424, 53.48004
425.6245, 57.13135
426.1066, 59.03702
426.5887, 60.19897
427.0709, 60.76529
427.5530, 60.74008
428.0351, 60.15851
428.5172, 58.81470
428.9993, 57.18491
429.4814, 55.55392
429.9636, 53.85754
430.4457, 52.18063
430.9278, 50.24399
431.4099, 48.62085
431.8920, 48.82080
432.3741, 51.05530
432.8563, 53.43970
433.3384, 55.15350
433.8205, 56.27628
434.3026, 57.43307
434.7847, 58.68384
435.2668, 59.52512
435.7490, 59.11646
436.2311, 57.81125
436.7132, 56.89682
437.1953, 56.83023
437.6774, 57.09695
438.1595, 57.41125
438.6417, 57.60379
439.1238, 56.95142
439.6059, 54.09338
440.0880, 50.65973
440.5701, 48.42944
441.0522, 47.67490
441.5344, 47.31851
442.0165, 47.14706
442.4986, 46.90247
442.9807, 46.29782
443.4628, 44.66022
443.9449, 43.12207
444.4271, 42.22769
444.9092, 41.85483
445.3913, 41.20392
445.8734, 39.74222
446.3555, 38.30600
446.8376, 37.33856
447.3198, 37.07169
447.8019, 36.87448
448.2840, 37.10519
448.7661, 37.27466
449.2482, 36.63623
449.7303, 34.27682
450.2125, 32.47385
450.6946, 31.95053
451.1767, 32.61490
451.6588, 32.52979
452.1409, 31.50696
452.6230, 30.26767
453.1052, 29.31284
453.5873, 28.61111
454.0694, 27.97284
454.5515, 27.30707
455.0337, 26.78296
455.5158, 26.91656
455.9979, 27.67029
456.4800, 28.27518
456.9621, 28.49619
457.4442, 28.27209
457.9264, 27.24609
458.4085, 25.48431
458.8906, 24.01532
459.3727, 23.69748
459.8548, 24.14899
460.3369, 24.93176
460.8191, 26.17886
461.3012, 27.38525
461.7833, 28.12991
462.2654, 28.49265
462.7475, 28.65106
463.2296, 28.38040
463.7118, 28.23129
464.1939, 28.54184
464.6760, 29.26135
465.1581, 29.77835
465.6402, 29.40683
466.1223, 29.24023
466.6045, 30.06146
467.0866, 33.62061
467.5687, 36.16672
468.0508, 36.79837
468.5329, 36.16270
469.0150, 35.90103
469.4972, 36.46449
469.9793, 37.04794
470.4614, 37.44670
470.9435, 37.61722
471.4256, 37.25400
471.9077, 36.09097
472.3899, 34.72055
472.8720, 33.91908
473.3541, 33.84584
473.8362, 33.50253
474.3183, 32.65494
474.8004, 31.53555
475.2826, 30.71295
475.7647, 30.16646
476.2468, 29.63281
476.7289, 28.88293
477.2110, 28.06316
477.6931, 27.70821
478.1753, 27.81389
478.6574, 27.58237
479.1395, 25.77547
479.6216, 23.37213
480.1037, 21.91747
480.5858, 22.29028
481.0680, 22.78349
481.5501, 21.98889
482.0322, 20.46431
482.5143, 19.37773
482.9964, 19.75325
483.4786, 20.18713
483.9607, 20.16168
484.4428, 19.65352
484.9249, 18.43468
485.4070, 15.60287
485.8892, 12.59407
486.3713, 10.41563
486.8534, 8.981461
487.3355, 8.595062
487.8176, 10.00519
488.2997, 12.21820
488.7819, 13.04402
489.2640, 11.87122
489.7461, 10.67938
490.2282, 10.09760
490.7103, 10.08752
491.1924, 10.11438
491.6746, 10.18303
492.1567, 10.25937
492.6388, 10.49231
493.1209, 10.80324
493.6030, 10.29576
494.0851, 8.562180
494.5673, 6.764862
495.0494, 7.025803
495.5315, 8.784439
496.0136, 10.00424
496.4957, 9.473297
496.9778, 8.073334
497.4600, 6.348343
497.9421, 4.419540
498.4242, 3.275650
498.9063, 4.693481
499.3884, 6.475876
499.8705, 6.471390
500.3527, 3.271530
500.8348, 0.7435300
501.3169, 0.5939790
501.7990, 1.867676
502.2811, 3.235611
502.7632, 5.145782
503.2454, 6.385941
503.7275, 6.482559
504.2096, 5.544250
504.6917, 4.735336
505.1738, 4.264038
505.6559, 3.653534
506.1381, 2.452499
506.6202, 0.2059480
507.1023, 0.6254730
507.5844, 0.3508760
508.0665, 2.035904
508.5486, 3.105453
509.0308, 3.562103
509.5129, 3.312653
509.9950, 2.036545
510.4771, 0.3376310
510.9592, 0.4993740
511.4413, 0.5239110
511.9235, 0.2085570
512.4056, 0.4027400
512.8877, 1.063202
513.3698, 1.345673
513.8519, 1.190948
514.3340, 1.058960
514.8162, 1.589966
515.2983, 2.226440
515.7804, 2.271027
516.2625, 0.9040220
516.7446, 0.3020630
517.2267, 0.4216000
517.7089, 0.1035460
518.1910, 0.1789860
518.6731, 0.8015140
519.1552, 1.910095
519.6373, 2.809967
520.1194, 3.466125
520.6016, 4.299561
521.0837, 5.726807
521.5658, 6.872498
522.0479, 6.913391
522.5300, 5.341827
523.0121, 4.584534
523.4943, 4.950562
523.9764, 6.005280
524.4585, 7.327179
524.9406, 8.935974
525.4227, 9.550446
525.9048, 8.180786
526.3870, 5.758972
526.8691, 4.739807
527.3513, 5.026001
527.8334, 5.288269
528.3155, 4.712708
528.7976, 3.446960
529.2797, 1.430328
529.7618, 1.551178
530.2440, 4.075531
530.7261, 4.361237
531.2082, 3.816528
531.6903, 4.219574
532.1724, 7.226105
532.6545, 10.13849
533.1367, 11.99640
533.6188, 13.05609
534.1009, 14.35425
534.5830, 16.07816
535.0651, 18.00470
535.5472, 19.90256
536.0294, 21.67316
536.5115, 24.42923
536.9936, 28.62485
537.4757, 33.15646
537.9578, 36.96835
538.4399, 39.89835
538.9221, 43.60626
539.4042, 48.62778
539.8863, 53.93484
540.3684, 57.32837
540.8505, 59.02258
541.3326, 61.47043
541.8148, 66.19077
542.2969, 71.93256
542.7790, 76.59015
543.2611, 80.21838
543.7432, 83.55591
544.2253, 86.79813
544.7075, 90.18967
545.1896, 93.95517
545.6717, 98.13147
546.1538, 102.8466
546.6359, 108.2537
547.1180, 114.1552
547.6002, 120.2844
548.0823, 127.1875
548.5644, 133.6473
549.0465, 139.3481
549.5286, 144.4813
550.0107, 149.5316
550.4929, 154.1155
550.9750, 159.2339
551.4571, 165.5669
551.9392, 173.1331
552.4213, 178.7234
552.9034, 181.8295
553.3856, 184.8506
553.8677, 190.1539
554.3498, 197.4383
554.8319, 203.4119
555.3140, 207.6946
555.7961, 210.7768
556.2783, 213.0883
556.7604, 214.7578
557.2425, 215.8816
557.7246, 216.1794
558.2067, 216.1336
558.6888, 216.3405
559.1710, 216.7471
559.6531, 216.9280
560.1352, 216.4542
560.6173, 215.8182
561.0994, 215.1627
561.5815, 214.4415
562.0637, 214.0449
562.5458, 214.7021
563.0279, 215.2872
563.5100, 214.9858
563.9921, 213.3108
564.4742, 211.4192
564.9564, 209.1422
565.4385, 206.9941
565.9206, 205.8452
566.4027, 205.8893
566.8848, 205.6013
567.3669, 204.3543
567.8491, 202.4953
568.3312, 201.2943
568.8133, 200.7458
569.2954, 200.1733
569.7775, 198.5611
570.2596, 196.8056
570.7418, 196.8343
571.2239, 198.8051
571.7060, 200.7651
572.1881, 201.1143
572.6702, 200.7440
573.1523, 200.6330
573.6345, 201.1052
574.1166, 201.5709
574.5987, 201.9480
575.0808, 202.1955
575.5629, 202.2117
576.0450, 201.3475
576.5272, 200.8061
577.0093, 201.1502
577.4914, 202.1326
577.9735, 201.9383
578.4556, 199.8820
578.9377, 197.9855
579.4199, 197.6501
579.9020, 198.9824
580.3841, 199.0069
580.8662, 197.5729
581.3483, 195.2914
581.8304, 192.2323
582.3126, 188.7501
582.7947, 186.3364
583.2768, 185.6968
583.7589, 185.2627
584.2410, 183.2195
584.7231, 180.0351
585.2053, 176.7301
585.6874, 173.7250
586.1696, 170.8004
586.6517, 167.9883
587.1338, 165.2494
587.6159, 162.2941
588.0980, 158.5032
588.5801, 154.6682
589.0623, 151.1800
589.5444, 148.1461
590.0265, 144.8969
590.5086, 141.2348
590.9907, 137.5468
591.4728, 134.2424
591.9550, 131.4948
592.4371, 128.0900
592.9192, 123.7662
593.4013, 119.2782
593.8834, 115.9141
594.3655, 113.4962
594.8477, 110.8295
595.3298, 107.4412
595.8119, 103.7733
596.2940, 100.4534
596.7761, 97.38593
597.2582, 94.17804
597.7404, 90.57623
598.2225, 86.78503
598.7046, 82.63068
599.1867, 78.13626
599.6688, 74.50076
600.1509, 73.29889
600.6331, 72.13837
601.1152, 69.40594
601.5973, 64.02594
602.0794, 59.50275
602.5615, 56.25516
603.0436, 53.49222
603.5258, 50.25748
604.0079, 46.36475
604.4900, 43.15549
604.9721, 41.09802
605.4542, 39.51550
605.9363, 36.98526
606.4185, 33.62073
606.9006, 30.22610
607.3827, 26.93820
607.8648, 24.02777
608.3469, 22.19528
608.8290, 21.26553
609.3112, 20.29523
609.7933, 18.85913
610.2754, 17.06430
610.7575, 14.61469
611.2396, 11.28537
611.7217, 9.116302
612.2039, 10.04370
612.6860, 11.48929
613.1681, 11.44443
613.6502, 8.534668
614.1323, 6.418030
614.6144, 5.297455
615.0966, 4.832520
615.5787, 4.587830
616.0608, 4.579041
616.5429, 4.778778
617.0250, 5.420776
617.5071, 6.005737
617.9893, 4.969238
618.4714, 2.546021
618.9535, 0.5435180
619.4356, 2.9967999E-02
619.9177, 0.3963010
620.3998, 1.177307
620.8820, 2.277588
621.3641, 2.963257
621.8462, 1.969849
622.3283, 1.011719
622.8104, 1.531006
623.2925, 4.169312
623.7747, 6.383728
624.2568, 7.283997
624.7389, 7.835754
625.2210, 8.825806
625.7031, 10.53998
626.1852, 12.02588
626.6674, 13.07715
627.1495, 14.02380
627.6316, 15.40277
628.1137, 17.22485
628.5958, 19.27686
629.0779, 21.71259
629.5601, 24.10486
630.0422, 25.22229
630.5243, 25.37885
631.0064, 26.10950
631.4885, 28.90936
631.9706, 32.24976
632.4528, 34.67542
632.9349, 36.18982
633.4170, 37.66602
633.8991, 38.88672
634.3812, 40.64075
634.8633, 43.67096
635.3455, 48.71967
635.8276, 52.71741
636.3097, 54.58057
636.7918, 56.29578
637.2739, 59.69397
637.7560, 65.26062
638.2382, 70.33173
638.7203, 74.48364
639.2024, 78.36407
639.6845, 83.24158
640.1666, 88.95990
640.6487, 94.03601
641.1309, 97.75964
641.6130, 101.0994
642.0951, 105.4084
642.5772, 110.3605
643.0594, 114.9708
643.5415, 118.6008
644.0236, 121.9966
644.5057, 125.3295
644.9879, 128.6927
645.4700, 132.7443
645.9521, 138.4216
646.4342, 144.2012
646.9163, 149.6420
647.3984, 154.9325
647.8806, 158.9332
648.3627, 161.2131
648.8448, 163.1201
649.3269, 165.7761
649.8090, 169.1931
650.2911, 172.5769
650.7733, 175.8907
651.2554, 179.4467
651.7375, 183.7767
652.2196, 188.6523
652.7017, 193.6276
653.1838, 198.9176
653.6660, 203.5779
654.1481, 206.2629
654.6302, 207.9900
655.1123, 210.3770
655.5944, 214.6257
656.0765, 218.7769
656.5587, 222.6363
657.0408, 225.9649
657.5229, 227.7241
658.0050, 226.3752
658.4871, 226.0596
658.9692, 228.7925
659.4514, 234.1384
659.9335, 237.3157
660.4156, 238.2326
660.8977, 237.7108
661.3798, 235.3580
661.8619, 232.1050
662.3441, 230.7783
662.8262, 231.5982
663.3083, 232.2761
663.7904, 230.7669
664.2725, 228.2523
664.7546, 226.1570
665.2368, 225.2325
665.7189, 223.4781
666.2010, 219.1833
666.6831, 214.1754
667.1652, 210.6511
667.6473, 210.6935
668.1295, 208.7843
668.6116, 203.6403
669.0937, 196.9869
669.5758, 192.5081
670.0579, 190.4592
670.5400, 187.8027
671.0222, 183.2988
671.5043, 178.0027
671.9864, 173.9533
672.4685, 171.0071
672.9506, 168.4796
673.4327, 167.3431
673.9149, 165.4927
674.3970, 160.0118
674.8791, 151.4532
675.3612, 144.2522
675.8433, 141.8599
676.3254, 139.7606
676.8076, 135.3022
677.2897, 127.7842
677.7718, 121.7922
678.2539, 118.2466
678.7360, 115.0634
679.2181, 110.7871
679.7003, 105.3305
680.1824, 100.1740
680.6645, 95.38684
681.1466, 90.92657
681.6287, 86.99805
682.1108, 83.33643
682.5930, 79.21948
683.0751, 74.25562
683.5572, 69.49536
684.0393, 65.53479
684.5214, 62.35425
685.0035, 59.89716
685.4857, 59.30560
685.9678, 58.08081
686.4499, 55.40186
686.9320, 51.68994
687.4141, 47.83234
687.8962, 43.58398
688.3784, 39.70471
688.8605, 36.35120
689.3426, 33.49731
689.8247, 31.25262
690.3068, 29.63098
690.7889, 27.75287
691.2711, 24.77051
691.7532, 21.42926
692.2353, 19.63580
692.7174, 19.13940
693.1995, 18.22998
693.6816, 15.30109
694.1638, 11.98376
694.6459, 9.477600
695.1280, 7.899170
695.6101, 6.717163
696.0922, 6.010071
696.5743, 5.515991
697.0565, 5.203857
697.5386, 5.302429
698.0207, 4.448486
698.5028, 2.210205
698.9849, 5.1086001E-02
699.4670, 0.7806400
699.9492, 0.1713870
700.4313, 0.3896480
700.9135, 1.801575
701.3956, 3.344421
701.8777, 3.901001
702.3598, 3.795166
702.8419, 3.542572
703.3240, 3.200195
703.8062, 2.943237
704.2883, 2.922424
704.7704, 3.034729
705.2525, 3.109467
705.7346, 3.127258
706.2167, 3.083923
706.6989, 2.812805
707.1810, 2.543213
707.6631, 2.915466
708.1452, 4.042969
708.6273, 5.013000
709.1094, 5.749207
709.5916, 5.941681
710.0737, 4.044464
710.5558, 0.6149290
711.0379, 1.492371
711.5200, 1.228119
712.0021, 4.471924
712.4843, 4.011871
712.9664, 0.4650880
713.4485, 2.673462
713.9306, 3.961182
714.4127, 4.644867
714.8948, 5.097870
715.3770, 5.328583
715.8591, 5.864410
716.3412, 6.905548
716.8233, 7.860535
717.3054, 8.428558
717.7875, 8.612244
718.2697, 8.360352
718.7518, 7.616760
719.2339, 7.105957
719.7160, 7.476501
720.1981, 8.479004
720.6802, 9.879456
721.1624, 11.70477
721.6445, 13.25046
722.1266, 13.73038
722.6087, 13.95947
723.0908, 14.70007
723.5729, 16.64423
724.0551, 17.88110
724.5372, 17.74915
725.0193, 17.42245
725.5014, 18.30774
725.9835, 20.75168
726.4656, 22.14600
726.9478, 21.95502
727.4299, 21.36563
727.9120, 21.97659
728.3941, 23.58575
728.8762, 25.72498
729.3583, 28.63397
729.8405, 31.21646
730.3226, 32.18283
730.8047, 32.28122
731.2868, 32.75644
731.7689, 33.95853
732.2510, 35.59900
732.7332, 38.05212
733.2153, 40.80911
733.6974, 42.75238
734.1795, 43.40204
734.6616, 44.65631
735.1437, 47.37564
735.6259, 50.64676
736.1080, 51.67581
736.5901, 50.73294
737.0722, 50.22119
737.5543, 51.47025
738.0364, 53.60703
738.5186, 56.09665
739.0007, 58.69101
739.4828, 60.55054
739.9649, 60.54376
740.4470, 60.45660
740.9291, 61.30496
741.4113, 63.00583
741.8934, 63.85788
742.3755, 63.44919
742.8576, 62.92947
743.3397, 62.70166
743.8218, 62.75583
744.3040, 63.01459
744.7861, 63.49228
745.2682, 64.06958
745.7503, 64.82727
746.2324, 65.55936
746.7145, 65.96140
747.1967, 66.02042
747.6788, 65.85800
748.1609, 65.32135
748.6430, 64.75122
749.1251, 64.26114
749.6072, 63.77908
750.0894, 63.93338
750.5715, 65.33539
751.0536, 66.59024
751.5357, 66.72839
752.0178, 65.62857
752.4999, 64.74084
752.9821, 64.04767
753.4642, 63.61908
753.9463, 63.80243
754.4284, 64.24878
754.9105, 64.12082
755.3926, 63.21936
755.8748, 62.54300
756.3569, 63.04684
756.8390, 63.84668
757.3211, 64.07407
757.8032, 63.18719
758.2853, 62.70236
758.7675, 62.40979
759.2496, 62.74142
759.7318, 64.52325
760.2139, 68.15408
760.6960, 70.12753
761.1781, 69.83771
761.6602, 69.05627
762.1423, 69.83603
762.6245, 71.84509
763.1066, 74.24713
763.5887, 76.81812
764.0708, 79.75119
764.5529, 83.47769
765.0350, 87.52597
765.5172, 91.33231
765.9993, 94.41440
766.4814, 97.76700
766.9635, 101.4893
767.4456, 105.4111
767.9277, 109.3470
768.4099, 113.3429
768.8920, 117.1746
769.3741, 120.7274
769.8562, 124.5008
770.3383, 129.9753
770.8204, 136.4740
771.3026, 141.9374
771.7847, 145.4357
772.2668, 148.3756
772.7489, 151.3698
773.2310, 154.4944
773.7131, 157.8518
774.1953, 162.1248
774.6774, 165.7810
775.1595, 168.6187
775.6416, 170.8532
776.1237, 172.8027
776.6058, 174.4419
777.0880, 176.0405
777.5701, 177.7185
778.0522, 179.2272
778.5343, 180.1548
779.0164, 180.5602
779.4985, 180.6035
779.9807, 180.5460
780.4628, 179.9844
780.9449, 178.7104
781.4270, 176.8450
781.9091, 174.3499
782.3912, 169.8448
782.8734, 166.6008
783.3555, 165.7887
783.8376, 166.2520
784.3197, 165.1814
784.8018, 162.4842
785.2839, 158.9594
785.7661, 154.5517
786.2482, 149.9650
786.7303, 146.6142
787.2124, 144.1353
787.6945, 141.3437
788.1766, 137.1789
788.6588, 133.0724
789.1409, 129.5073
789.6230, 126.5197
790.1051, 124.0783
790.5872, 122.8705
791.0693, 121.1482
791.5515, 118.4180
792.0336, 115.0178
792.5157, 112.1872
792.9978, 109.9336
793.4799, 107.2068
793.9620, 103.3980
794.4442, 99.11142
794.9263, 94.57715
795.4084, 90.19305
795.8905, 86.98373
796.3726, 86.86337
796.8547, 86.50888
797.3369, 84.32710
797.8190, 80.73126
798.3011, 77.24725
798.7832, 73.61224
799.2653, 70.66693
799.7474, 68.94812
800.2296, 67.79970
800.7117, 65.22711
801.1938, 61.35530
801.6759, 57.52893
802.1580, 54.25298
802.6401, 51.37671
803.1223, 48.79947
803.6044, 46.52248
804.0865, 44.61385
804.5686, 43.91095
805.0507, 42.69691
805.5328, 39.90002
806.0150, 36.20866
806.4971, 33.36937
806.9792, 31.54048
807.4613, 30.07408
807.9434, 28.90459
808.4255, 27.85985
808.9077, 26.56165
809.3898, 25.00517
809.8719, 23.11754
810.3540, 19.95364
810.8361, 17.38394
811.3182, 17.81490
811.8004, 19.94960
812.2825, 20.69269
812.7646, 18.06500
813.2467, 15.34482
813.7288, 12.96506
814.2109, 10.95216
814.6931, 9.407288
815.1752, 8.306091
815.6573, 7.857788
816.1394, 8.396500
816.6215, 9.131805
817.1037, 8.571289
817.5858, 7.138962
818.0679, 5.901260
818.5500, 5.667221
819.0322, 5.310837
819.5143, 3.998871
819.9964, 2.257538
820.4785, 1.241776
820.9606, 1.394394
821.4427, 1.565613
821.9249, 1.715897
822.4070, 1.673813
822.8891, 0.9143070
823.3712, 0.4763790
823.8533, 1.563995
824.3354, 2.144226
824.8176, 2.227432
825.2997, 1.145462
825.7818, 0.2953950
826.2639, 0.7199100
826.7460, 1.719009
827.2281, 3.545654
827.7103, 3.500259
828.1924, 2.664429
828.6745, 2.503525
829.1566, 3.237503
829.6387, 3.756653
830.1208, 3.911491
830.6030, 3.747810
831.0851, 3.100304
831.5672, 2.159424
832.0493, 1.452415
832.5314, 1.133614
833.0135, 1.028145
833.4957, 1.180077
833.9778, 1.392181
834.4599, 1.453781
834.9420, 1.174500
835.4241, 0.9244230
835.9063, 0.7877730
836.3884, 0.5744170
836.8705, 0.2340850
837.3526, 1.596245
837.8347, 1.638115
838.3168, 0.1401440
838.7990, 1.834686
839.2811, 0.9602510
839.7632, 1.010780
840.2453, 1.909622
840.7274, 0.8721010
841.2095, 0.2598720
841.6917, 1.343231
842.1738, 2.833954
842.6559, 3.736465
843.1380, 3.927292
843.6201, 3.864304
844.1022, 3.419861
844.5844, 3.161125
845.0665, 3.757217
845.5486, 4.945915
846.0307, 6.227753
846.5128, 7.573837
846.9949, 8.225548
847.4771, 7.011101
847.9592, 5.377480
848.4413, 4.408737
848.9234, 4.322517
849.4055, 4.473701
849.8876, 4.984222
850.3698, 5.493835
850.8519, 5.741066
851.3340, 5.760475
851.8161, 6.129166
852.2982, 6.843040
852.7803, 7.444946
853.2625, 7.575073
853.7446, 7.429115
854.2267, 7.061172
854.7088, 6.523125
855.1909, 6.257988
855.6730, 6.798218
856.1552, 7.252251
856.6373, 7.179764
857.1194, 6.674118
857.6015, 6.614471
858.0836, 7.052879
858.5657, 7.500809
859.0479, 7.715332
859.5300, 7.796341
860.0121, 7.794479
860.4942, 7.799400
860.9763, 8.141838
861.4584, 9.546761
861.9406, 10.76530
862.4227, 11.03515
862.9048, 10.62357
863.3869, 10.52874
863.8690, 10.75797
864.3511, 11.31346
864.8333, 12.26993
865.3154, 13.43879
865.7975, 14.61844
866.2796, 15.71854
866.7617, 16.27204
867.2438, 15.62044
867.7260, 15.21916
868.2081, 16.73654
868.6902, 19.05465
869.1723, 20.44234
869.6544, 19.35940
870.1365, 19.02745
870.6187, 19.85835
871.1008, 21.21463
871.5829, 22.35535
872.0650, 23.27695
872.5471, 23.69777
873.0292, 23.44290
873.5114, 23.39429
873.9935, 24.79076
874.4756, 26.77245
874.9577, 28.12688
875.4399, 28.23478
875.9220, 29.01441
876.4041, 32.13852
876.8862, 35.06174
877.3683, 35.76883
877.8505, 33.64862
878.3326, 33.59970
878.8147, 35.89378
879.2968, 38.52976
879.7789, 39.65287
880.2610, 40.00000
880.7432, 40.77530
881.2253, 42.01229
881.7074, 43.23129
882.1895, 44.42182
882.6716, 45.34924
883.1537, 45.70237
883.6359, 45.57799
884.1180, 46.31001
884.6001, 47.83091
885.0822, 49.67112
885.5643, 52.02370
886.0464, 54.51431
886.5286, 55.69394
887.0107, 55.88683
887.4928, 56.67891
887.9749, 59.81876
888.4570, 62.87426
888.9391, 64.51123
889.4213, 65.08979
889.9034, 65.84738
890.3855, 66.94314
890.8676, 67.76306
891.3497, 68.01359
891.8318, 68.13551
892.3140, 69.03943
892.7961, 70.60725
893.2782, 72.36302
893.7603, 74.33682
894.2424, 75.99706
894.7245, 76.99551
895.2067, 77.46310
895.6888, 77.49425
896.1709, 76.83237
896.6530, 75.96674
897.1351, 75.20934
897.6172, 74.23530
898.0994, 72.48740
898.5815, 69.98766
899.0636, 67.48584
899.5457, 65.17033
900.0278, 62.54900
900.5099, 59.05400
900.9921, 55.10086
901.4742, 50.72535
901.9563, 45.77703
902.4384, 42.15007
902.9205, 41.00471
903.4026, 39.90458
903.8848, 37.49159
904.3669, 34.02808
904.8490, 31.61758
905.3311, 30.20728
905.8132, 28.94621
906.2953, 27.14648
906.7775, 25.41131
907.2596, 24.38146
907.7417, 23.92213
908.2238, 23.48834
908.7059, 23.17535
909.1880, 22.50565
909.6702, 21.06566
910.1523, 19.42904
910.6344, 19.19838
911.1165, 20.32700
911.5986, 20.98230
912.0807, 20.61996
912.5629, 19.69378
913.0450, 18.07064
913.5271, 16.47580
914.0092, 16.04425
914.4913, 18.19814
914.9734, 19.48612
915.4556, 19.06236
915.9377, 17.93703
916.4198, 16.88422
916.9019, 15.89305
917.3840, 15.12202
917.8661, 14.59130
918.3483, 14.13416
918.8304, 13.55099
919.3125, 12.99997
919.7946, 12.77124
920.2767, 12.88555
920.7589, 12.62587
921.2410, 10.99482
921.7231, 9.807175
922.2052, 9.958519
922.6873, 11.25640
923.1694, 12.02348
923.6516, 12.24993
924.1337, 12.06847
924.6158, 11.30499
925.0979, 10.35363
925.5800, 9.754669
926.0621, 9.422253
926.5443, 9.101421
927.0264, 8.432503
927.5085, 8.097691
927.9906, 8.485081
928.4727, 9.110878
928.9548, 9.181252
929.4370, 8.686951
929.9191, 7.768047
930.4012, 6.292938
930.8833, 5.086376
931.3654, 5.620045
931.8475, 6.780212
932.3297, 6.953518
932.8118, 5.516895
933.2939, 4.200439
933.7761, 3.402203
934.2582, 2.858196
934.7403, 2.373093
935.2224, 1.922710
935.7045, 2.076111
936.1866, 2.858749
936.6688, 3.810623
937.1509, 5.324047
937.6330, 6.320301
938.1151, 4.692986
938.5972, 1.112362
939.0793, 0.8541760
939.5615, 1.447411
940.0436, 3.593040
940.5257, 4.455250
941.0078, 4.439678
941.4899, 4.467579
941.9720, 4.545116
942.4542, 4.873638
942.9363, 5.606499
943.4184, 6.382450
943.9005, 6.681042
944.3826, 6.821949
944.8647, 7.289196
945.3469, 8.553108
945.8290, 9.417633
946.3111, 9.441967
946.7932, 9.494770
947.2753, 10.48103
947.7574, 12.34568
948.2396, 13.69900
948.7217, 14.49869
949.2038, 14.94292
949.6859, 14.48581
950.1680, 14.26797
950.6501, 15.81864
951.1323, 19.04098
951.6144, 20.89272
952.0965, 20.17697
952.5786, 19.54384
953.0607, 19.91417
953.5428, 20.83422
954.0250, 20.84787
954.5071, 20.10759
954.9892, 19.48621
955.4713, 19.22583
955.9534, 19.36040
956.4355, 20.31720
956.9177, 21.54043
957.3998, 22.24336
957.8819, 22.41431
958.3640, 21.84637
958.8461, 20.29378
959.3282, 18.48242
959.8104, 17.21021
960.2925, 16.33641
960.7746, 15.29353
961.2567, 14.05270
961.7388, 13.46798
962.2209, 15.02267
962.7031, 16.31937
963.1852, 15.44863
963.6673, 12.53963
964.1494, 10.91308
964.6315, 10.87047
965.1136, 11.15644
965.5958, 11.38209
966.0779, 11.56667
966.5600, 11.62268
967.0421, 11.63036
967.5242, 11.90160
968.0063, 12.91576
968.4885, 13.71442
968.9706, 13.88585
969.4527, 13.67162
969.9348, 13.27987
970.4169, 12.56753
970.8990, 12.43788
971.3812, 12.96256
971.8633, 13.86341
972.3454, 15.11316
972.8275, 16.43532
973.3096, 17.41727
973.7917, 18.01419
974.2739, 18.56523
974.7560, 18.48861
975.2381, 19.21873
975.7202, 21.66586
976.2023, 25.34936
976.6844, 27.73120
977.1666, 28.80387
977.6487, 30.06664
978.1308, 32.17775
978.6129, 34.63103
979.0950, 36.89552
979.5771, 39.14023
980.0593, 41.68224
980.5414, 45.21476
981.0235, 48.14239
981.5056, 50.13049
981.9877, 51.80047
982.4698, 53.98651
982.9520, 56.54143
983.4341, 58.38541
983.9162, 59.44824
984.3983, 60.23531
984.8804, 61.58377
985.3625, 62.43048
985.8447, 61.81980
986.3268, 59.73484
986.8089, 57.59130
987.2910, 55.35473
987.7731, 53.02055
988.2552, 50.66443
988.7374, 48.21567
989.2195, 45.38320
989.7016, 42.19919
990.1837, 38.97569
990.6658, 35.71332
991.1479, 32.58585
991.6301, 29.36495
992.1122, 26.51788
992.5944, 24.57148
993.0765, 23.81087
993.5586, 22.46079
994.0407, 20.42075
994.5228, 18.52412
995.0049, 17.50165
995.4871, 16.99786
995.9692, 16.66375
996.4513, 16.42034
996.9334, 15.96842
997.4155, 15.06757
997.8976, 14.20781
998.3798, 13.40641
998.8619, 12.73461
999.3440, 12.61732
999.8261, 12.94300
1000.308, 12.53316
1000.790, 10.89367
1001.272, 9.097252
1001.755, 7.696331
1002.237, 6.797161
1002.719, 6.606110
1003.201, 7.478867
1003.683, 8.061552
1004.165, 8.452099
1004.647, 8.389263
1005.129, 7.104786
1005.612, 5.284462
1006.094, 5.123444
1006.576, 6.260719
1007.058, 6.980606
1007.540, 5.732615
1008.022, 4.634724
1008.504, 5.043819
1008.986, 5.972610
1009.468, 5.457766
1009.951, 3.193674
1010.433, 2.131943
1010.915, 2.877197
1011.397, 4.132229
1011.879, 4.827686
1012.361, 4.954193
1012.843, 4.286898
1013.325, 2.654211
1013.807, 1.507101
1014.290, 1.421272
1014.772, 1.358820
1015.254, 0.8038880
1015.736, 5.4699000E-02
1016.218, 0.4953160
1016.700, 0.5408900
1017.182, 0.2878020
1017.664, 0.8307340
1018.147, 1.436216
1018.629, 0.3133070
1019.111, 2.753101
1019.593, 3.251144
1020.075, 0.8865220
1020.557, 0.8567960
1021.039, 1.847488
1021.521, 2.170757
1022.003, 1.544748
1022.486, 0.4557650
1022.968, 0.3325330
1023.450, 0.7614880
1023.932, 0.7744670
1024.414, 0.1375830
1024.896, 0.9087870
1025.378, 1.192795
1025.860, 1.103113
1026.343, 0.9072020
1026.825, 0.6175170
1027.307, 0.3168090
1027.789, 2.4754001E-02
1028.271, 0.1988540
1028.753, 0.2502800
1029.235, 0.8211610
1029.717, 0.8965000
1030.199, 0.1705380
1030.682, 0.2554470
1031.164, 0.3771310
1031.646, 0.2167090
1032.128, 0.5072270
1032.610, 1.396875
1033.092, 1.174084
1033.574, 0.1502460
1034.056, 0.5208530
1034.539, 0.1650140
1035.021, 0.6973290
1035.503, 0.4937380
1035.985, 4.2376000E-02
1036.467, 0.3716640
1036.949, 0.4814970
1037.431, 0.8710020
1037.913, 1.640051
1038.396, 2.195002
1038.878, 1.787262
1039.360, 1.075520
1039.842, 0.6678180
1040.324, 0.6218760
1040.806, 0.5484450
1041.288, 0.3281880
1041.770, 0.3149410
1042.252, 0.6937240
1042.734, 1.248348
1043.217, 1.717474
1043.699, 1.992338
1044.181, 1.689636
1044.663, 0.2225060
1045.145, 0.7139800
1045.627, 0.3161830
1046.109, 1.477222
1046.591, 1.223717
1047.074, 0.5352670
1047.556, 1.195299
1048.038, 0.7577710
1048.520, 0.2661300
1049.002, 0.5009350
1049.484, 0.9094260
1049.966, 1.054283
1050.448, 0.9835360
1050.931, 0.8298110
1051.413, 0.4234790
1051.895, 0.3870180
1052.377, 0.8864960
1052.859, 1.531097
1053.341, 2.003311
1053.823, 2.224617
1054.305, 1.860664
1054.787, 0.8719390
1055.270, 0.1502040
1055.752, 0.2062510
1056.234, 0.5177080
1056.716, 0.9100590
1057.198, 1.349287
1057.680, 1.776897
1058.162, 2.173044
1058.644, 2.138264
1059.126, 1.289637
1059.609, 0.6234550
1060.091, 1.653013
1060.573, 3.015453
1061.055, 2.923956
1061.537, 0.5047610
1062.019, 0.3098660
1062.501, 0.8461490
1062.983, 2.263834
1063.466, 2.944948
1063.948, 3.061010
1064.430, 2.699574
1064.912, 2.035666
1065.394, 1.592085
1065.876, 1.801050
1066.358, 1.940041
1066.840, 1.839165
1067.323, 1.672514
1067.805, 1.686501
1068.287, 1.842474
1068.769, 1.856833
1069.251, 1.706253
1069.733, 1.545582
1070.215, 1.216772
1070.697, 1.157537
1071.179, 1.921791
1071.661, 3.242218
1072.144, 3.953299
1072.626, 3.953316
1073.108, 4.074535
1073.590, 4.669489
1074.072, 5.023350
1074.554, 3.623964
1075.036, 1.750257
1075.518, 1.145561
1076.001, 2.360960
1076.483, 3.788309
1076.965, 5.557667
1077.447, 6.755215
1077.929, 6.723206
1078.411, 5.959246
1078.893, 6.243841
1079.375, 7.229044
1079.858, 7.770914
1080.340, 6.763943
1080.822, 6.142979
1081.304, 6.712095
1081.786, 7.886116
1082.268, 9.479292
1082.750, 11.49007
1083.232, 11.89923
1083.714, 10.66791
1084.197, 9.853352
1084.679, 11.40901
1085.161, 13.49534
1085.643, 14.98034
1086.125, 15.81297
1086.607, 16.03516
1087.089, 15.24685
1087.571, 15.50483
1088.054, 17.16569
1088.536, 19.14971
1089.018, 20.31747
1089.500, 21.00481
1089.982, 21.36368
1090.464, 21.40088
1090.946, 22.63206
1091.428, 26.30270
1091.911, 29.56470
1092.393, 31.38692
1092.875, 32.49115
1093.357, 35.00043
1093.839, 38.29034
1094.321, 40.32290
1094.803, 40.07364
1095.285, 40.03474
1095.767, 41.67834
1096.250, 43.64655
1096.732, 45.05962
1097.214, 45.96023
1097.696, 47.41373
1098.178, 49.36534
1098.660, 50.40982
1099.142, 48.89619
1099.624, 47.26324
1100.106, 47.59655
1100.589, 48.88157
1101.071, 49.54699
1101.553, 49.49490
1102.035, 49.01075
1102.517, 48.14342
1102.999, 46.92819
1103.481, 45.23322
1103.963, 43.22307
1104.446, 41.32639
1104.928, 39.52684
1105.410, 37.33205
1105.892, 34.07772
1106.374, 31.52269
1106.856, 30.05307
1107.338, 29.02450
1107.820, 27.38057
1108.302, 25.43332
1108.785, 23.93013
1109.267, 22.95860
1109.749, 21.91089
1110.231, 20.16570
1110.713, 18.74643
1111.195, 18.15895
1111.677, 18.04326
1112.159, 17.34969
1112.641, 16.16684
1113.124, 15.05826
1113.606, 14.15901
1114.088, 13.47667
1114.570, 13.11673
1115.052, 12.87487
1115.534, 12.56243
1116.016, 12.18837
1116.498, 12.14651
1116.981, 12.45036
1117.463, 12.55670
1117.945, 12.18801
1118.427, 11.62163
1118.909, 10.88482
1119.391, 10.22389
1119.873, 10.07479
1120.355, 10.92213
1120.838, 11.17641
1121.320, 10.75805
1121.802, 10.05405
1122.284, 9.115877
1122.766, 8.201439
1123.248, 7.811907
1123.730, 7.752707
1124.212, 7.483923
1124.694, 6.149290
1125.177, 5.764238
1125.659, 6.845261
1126.141, 8.154625
1126.623, 8.117727
1127.105, 7.340296
1127.587, 7.777813
1128.069, 9.276396
1128.551, 9.935200
1129.033, 7.870945
1129.516, 6.163515
1129.998, 5.676373
1130.480, 5.970640
1130.962, 6.600767
1131.444, 7.401909
1131.926, 7.510311
1132.408, 6.793375
1132.890, 5.669147
1133.373, 3.662315
1133.855, 2.075153
1134.337, 1.704855
1134.819, 2.281549
1135.301, 3.179770
1135.783, 4.362328
1136.265, 4.879827
1136.747, 4.383783
1137.229, 3.582504
1137.712, 2.849773
1138.194, 2.259445
1138.676, 2.094397
1139.158, 2.084925
1139.640, 1.631264
1140.122, 0.6261060
1140.604, 0.2274300
1141.086, 1.139517
1141.569, 2.429735
1142.051, 3.402275
1142.533, 3.946877
1143.015, 3.888245
1143.497, 3.100143
1143.979, 1.896017
1144.461, 3.2508999E-02
1144.943, 1.130504
1145.426, 0.3698620
1145.908, 1.289335
1146.390, 2.682198
1146.872, 3.616024
1147.354, 3.698280
1147.836, 1.634256
1148.318, 0.5711860
1148.800, 0.7941130
1149.282, 1.520500
1149.765, 2.365540
1150.247, 3.124603
1150.729, 3.301060
1151.211, 2.960730
1151.693, 2.427967
1152.175, 1.312164
1152.657, 0.8073580
1153.139, 1.372702
1153.621, 2.157274
1154.104, 2.119558
1154.586, 1.465292
1155.068, 0.6713870
1155.550, 0.1674240
1156.032, 0.4012860
1156.514, 1.110703
1156.996, 2.221615
1157.478, 2.115396
1157.961, 1.448719
1158.443, 1.514032
1158.925, 2.116747
1159.407, 2.008127
1159.889, 0.9904550
1160.371, 0.1421470
1160.853, 0.3076140
1161.335, 0.6320920
1161.818, 0.7566210
1162.300, 0.6706340
1162.782, 5.3994000E-02
1163.264, 0.9752730
1163.746, 0.8060800
1164.228, 1.141492
1164.710, 2.899837
1165.192, 2.815414
1165.674, 2.180658
1166.156, 1.893499
1166.639, 1.925341
1167.121, 2.071896
1167.603, 2.329557
1168.085, 2.216534
1168.567, 1.423705
1169.049, 0.6811290
1169.531, 0.4630170
1170.013, 0.7165740
1170.496, 1.606958
1170.978, 3.122042
1171.460, 3.942403
1171.942, 4.063181
1172.424, 3.714306
1172.906, 2.747140
1173.388, 1.752327
1173.870, 1.116471
1174.353, 0.9419110
1174.835, 1.594765
1175.317, 3.395301
1175.799, 3.941965
1176.281, 3.076604
1176.763, 2.260803
1177.245, 2.464264
1177.727, 2.978356
1178.209, 3.071976
1178.692, 2.885550
1179.174, 2.648013
1179.656, 2.404218
1180.138, 2.075254
1180.620, 1.487959
1181.102, 1.158124
1181.584, 2.026061
1182.066, 3.085508
1182.548, 2.755959
1183.031, 1.645682
1183.513, 1.236454
1183.995, 2.236870
1184.477, 2.816620
1184.959, 2.863244
1185.441, 2.646632
1185.923, 2.228239
1186.405, 1.810973
1186.888, 1.672967
1187.370, 1.793438
1187.852, 2.059107
1188.334, 2.373810
1188.816, 3.013379
1189.298, 4.166835
1189.780, 5.077956
1190.262, 4.703465
1190.745, 3.730108
1191.227, 3.093588
1191.709, 2.830573
1192.191, 2.817265
1192.673, 3.321852
1193.155, 3.491093
1193.637, 3.085618
1194.119, 2.525824
1194.601, 2.306221
1195.084, 2.259233
1195.566, 0.7350860
1196.048, 1.742631
1196.530, 1.668176
1197.012, 19.30410
1197.494, 27.86996
1197.976, 20.83670
1198.458, 8.246395
1198.941, 3.480904
1199.423, 3.338384
1199.905, 2.624166
1200.387, 0.7861170
1200.869, 7.4550002E-03
1201.351, 1.386266
1201.833, 2.374086
1202.315, 2.162085
1202.797, 1.641005
1203.280, 2.298720
1203.762, 3.618170
1204.244, 5.152982
1204.726, 6.899553
1205.208, 7.449468
1205.690, 5.909008
1206.172, 4.608847
1206.654, 4.355696
1207.136, 4.471688
1207.619, 3.398911
1208.101, 1.981979
1208.583, 1.992296
1209.065, 4.052665
1209.547, 4.864540
1210.029, 3.281157
1210.511, 2.010630
1210.993, 2.132786
1211.476, 2.882752
1211.958, 3.064098
1212.440, 2.774491
1212.922, 2.031006
1213.404, 0.5993950
1213.886, 7.4109003E-02
1214.368, 0.4753240
1214.850, 1.126974
1215.333, 1.449871
1215.815, 1.532681
1216.297, 1.220476
1216.779, 0.8682120
1217.261, 1.243824
1217.743, 2.869678
1218.225, 3.715705
1218.707, 3.400918
1219.189, 2.959352
1219.672, 2.771318
1220.154, 2.860194
1220.636, 3.748248
1221.118, 4.724564
1221.600, 4.503344
1222.082, 2.082032
1222.564, 0.9257830
1223.046, 1.499883
1223.528, 2.412734
1224.011, 3.109037
1224.493, 3.517141
1224.975, 3.414629
1225.457, 2.973042
1225.939, 2.476025
1226.421, 1.945312
1226.903, 1.434757
1227.385, 0.8763460
1227.868, 0.5998390
1228.350, 1.000959
1228.832, 1.544363
1229.314, 1.077559
1229.796, 0.2827700
1230.278, 0.4052790
1230.760, 2.229870
1231.242, 3.426540
1231.724, 3.968910
1232.207, 4.028897
1232.689, 3.397662
1233.171, 2.671904
1233.653, 2.753224
1234.135, 3.229641
1234.617, 3.377846
1235.099, 2.947996
1235.581, 2.874859
1236.063, 3.283006
1236.546, 3.172397
1237.028, 1.185347
1237.510, 0.8518980
1237.992, 0.7581650
1238.474, 0.5024120
1238.956, 1.346800
1239.438, 1.587672
1239.920, 1.783008
1240.403, 1.932983
1240.885, 1.996252
1241.367, 1.691552
1241.849, 1.551324
1242.331, 2.486886
1242.813, 3.664443
1243.295, 3.788435
1243.777, 2.599748
1244.260, 1.480495
1244.742, 0.4159600
1245.224, 4.9286000E-02
1245.706, 1.649750
1246.188, 3.163399
1246.670, 2.935633
1247.152, 1.940769
1247.634, 1.599295
1248.116, 1.981065
1248.599, 1.897637
1249.081, 1.370613
1249.563, 0.6598860
1250.045, 4.9954999E-02
1250.527, 0.2431130
1251.009, 0.2186450
1251.491, 0.9249370
1251.973, 1.410168
1252.455, 1.721107
1252.938, 1.399104
1253.420, 0.5662150
1253.902, 0.1956820
1254.384, 1.387828
1254.866, 2.407373
1255.348, 2.404020
1255.830, 2.189607
1256.313, 2.664871
1256.795, 3.603737
1257.277, 3.251104
1257.759, 1.909249
1258.241, 1.163981
1258.723, 2.983161
1259.205, 3.611368
1259.687, 1.578560
1260.169, 0.7255920
1260.651, 1.129015
1261.134, 0.1283630
1261.616, 1.055825
1262.098, 2.261843
1262.580, 3.034476
1263.062, 2.777244
1263.544, 2.759908
1264.026, 3.304440
1264.508, 3.604299
1264.991, 2.461841
1265.473, 0.8853140
1265.955, 1.272703
1266.437, 2.831949
1266.919, 3.509107
1267.401, 1.840008
1267.883, 1.030285
1268.365, 1.281735
1268.848, 1.783263
1269.330, 2.018626
1269.812, 2.061982
1270.294, 1.895390
1270.776, 1.606504
1271.258, 1.153234
1271.740, 9.0074003E-02
1272.222, 0.1353280
1272.704, 0.5854860
1273.187, 1.325544
1273.669, 1.254264
1274.151, 1.056065
1274.633, 1.688022
1275.115, 2.560353
1275.597, 2.694538
1276.079, 3.365313
1276.561, 2.194555
1277.043, 3.724042
1277.526, 4.911340
1278.008, 4.321826
1278.490, 3.356965
1278.972, 2.701484
1279.454, 2.316435
1279.936, 2.215687
1280.418, 2.392440
1280.900, 2.721114
1281.383, 3.145198
1281.865, 2.830346
1282.347, 1.920818
1282.829, 1.293353
1283.311, 1.353853
1283.793, 1.618481
1284.275, 1.752636
1284.757, 1.796920
1285.240, 1.937737
1285.722, 2.071618
1286.204, 1.921941
1286.686, 0.7695770
1287.168, 0.4938870
1287.650, 1.540097
1288.132, 2.642396
1288.614, 2.541823
1289.096, 1.774872
1289.578, 1.091825
1290.061, 0.6596190
1290.543, 0.8785310
1291.025, 2.432458
1291.507, 3.166291
1291.989, 2.953777
1292.471, 2.505287
1292.953, 2.118950
1293.435, 1.837412
1293.918, 1.697705
1294.400, 1.722031
1294.882, 2.076404
1295.364, 2.872470
1295.846, 2.696506
1296.328, 1.509964
1296.810, 0.7037080
1297.292, 1.107193
1297.775, 1.793856
1298.257, 2.399107
1298.739, 2.642641
1299.221, 2.209352
1299.703, 1.193633
1300.185, 0.4318990
1300.667, 4.0686000E-02
1301.149, 9.1452003E-02
1301.631, 1.368369
1302.114, 1.270234
1302.596, 0.0000000E+00
##END=



