##NAMES=Barbosalite
##RRUFFID=R070358
##IDEAL CHEMISTRY=Fe^2+^Fe^3+^_2_(PO_4_)_2_(OH)_2_
##LOCALITY=Bull Moose mine, Custer, Custer District, Custer County, South Dakota, USA
##OWNER=RRUFF
##SOURCE=Michael Scott
##DESCRIPTION=Dark blue to black massive and with tabular crystals in vugs, associated with pyrite
##STATUS=The identification of this mineral is confirmed by single-crystal X-ray diffraction and chemical analysis.
##URL=rruff.info/R070358
##MEASURED CHEMISTRY=(Fe^2+^_0.97_Mn_0.03_)_Σ=1_Fe^3+^_2.00_(P_1.00_O_4_)_2_((OH)_1.89_F_0.11_)_Σ=2_ ; OH estimated by charge balance
153.8033, 0.0000000E+00
154.2855, 4.207153
154.7676, 7.336548
155.2497, 1.016602
155.7318, 1.624023
156.2139, 2.424927
156.6960, 8.621826
157.1782, 10.49194
157.6603, 6.679688
158.1424, 4.653198
158.6245, 10.13696
159.1066, 21.81311
159.5887, 37.70129
160.0709, 59.38196
160.5530, 84.06799
161.0351, 108.1899
161.5172, 131.9285
161.9993, 153.8687
162.4814, 170.5262
162.9636, 184.5200
163.4457, 201.2034
163.9278, 227.6022
164.4099, 256.1233
164.8920, 271.9082
165.3741, 272.0969
165.8563, 267.0868
166.3384, 262.4254
166.8205, 257.3177
167.3026, 250.0533
167.7847, 237.9462
168.2668, 224.0161
168.7490, 215.8788
169.2311, 216.9109
169.7132, 216.5607
170.1953, 206.2234
170.6774, 191.3444
171.1595, 180.1244
171.6417, 176.0328
172.1238, 177.9573
172.6059, 184.0968
173.0880, 197.1576
173.5701, 208.7532
174.0522, 213.4910
174.5344, 214.9753
175.0165, 218.3096
175.4986, 226.5126
175.9807, 237.9053
176.4628, 249.0206
176.9449, 263.2285
177.4271, 270.2853
177.9092, 258.7754
178.3913, 240.6060
178.8734, 232.8262
179.3555, 246.2557
179.8376, 273.1439
180.3197, 290.5125
180.8019, 293.8608
181.2840, 295.0400
181.7661, 300.7686
182.2482, 306.0929
182.7303, 310.4287
183.2124, 313.0525
183.6946, 310.7993
184.1767, 317.7987
184.6588, 328.6277
185.1409, 333.7806
185.6230, 334.1635
186.1051, 333.5037
186.5873, 339.5479
187.0694, 352.8612
187.5515, 365.6943
188.0336, 376.4719
188.5157, 380.3743
188.9978, 381.8293
189.4800, 387.1200
189.9621, 392.7332
190.4442, 386.8927
190.9263, 363.9509
191.4084, 335.0466
191.8905, 325.8457
192.3727, 353.9797
192.8548, 371.4242
193.3369, 365.8667
193.8190, 349.7018
194.3011, 332.6024
194.7832, 318.2600
195.2654, 308.7515
195.7475, 310.4314
196.2296, 334.9456
196.7117, 348.5376
197.1938, 343.4595
197.6759, 329.5656
198.1581, 313.4888
198.6402, 297.7186
199.1223, 283.8335
199.6044, 275.2366
200.0865, 275.0071
200.5686, 274.1644
201.0508, 273.2251
201.5329, 270.7346
202.0150, 267.1455
202.4971, 262.1085
202.9792, 252.1060
203.4613, 229.1405
203.9435, 181.9871
204.4256, 147.6278
204.9077, 134.1024
205.3898, 127.2607
205.8719, 118.5171
206.3540, 105.7866
206.8362, 91.41858
207.3183, 78.96399
207.8004, 70.55750
208.2825, 58.55688
208.7646, 36.15857
209.2467, 15.72778
209.7289, 7.130249
210.2110, 9.966187
210.6931, 14.35632
211.1752, 7.354126
211.6573, 16.02637
212.1395, 30.18835
212.6216, 24.35303
213.1037, 19.08838
213.5858, 28.07690
214.0679, 48.75720
214.5500, 67.35547
215.0322, 68.95703
215.5143, 50.32031
215.9964, 36.15771
216.4785, 28.23999
216.9606, 22.97290
217.4427, 18.29565
217.9249, 14.98584
218.4070, 16.00171
218.8891, 25.37769
219.3712, 43.60938
219.8533, 52.20483
220.3354, 37.54761
220.8176, 26.08325
221.2997, 27.78076
221.7818, 38.21338
222.2639, 47.66406
222.7460, 49.27368
223.2281, 43.72583
223.7103, 38.67407
224.1924, 32.08862
224.6745, 28.44922
225.1566, 32.03442
225.6387, 38.46948
226.1208, 41.03931
226.6030, 35.55835
227.0851, 24.08350
227.5672, 15.24390
228.0493, 10.61963
228.5314, 6.685059
229.0135, 5.012695
229.4957, 2.909424
229.9778, 4.270020
230.4599, 18.91406
230.9420, 35.76807
231.4241, 40.50610
231.9062, 20.28369
232.3884, 10.20898
232.8705, 16.34985
233.3526, 31.92456
233.8347, 52.75732
234.3168, 77.14429
234.7989, 103.0806
235.2811, 127.6826
235.7632, 153.0713
236.2453, 171.7991
236.7274, 178.9695
237.2095, 183.3589
237.6916, 189.3440
238.1738, 198.3660
238.6559, 211.4016
239.1380, 232.1497
239.6201, 265.2424
240.1022, 288.7273
240.5843, 295.1033
241.0665, 297.1943
241.5486, 297.3623
242.0307, 297.8232
242.5128, 303.7166
242.9949, 324.5981
243.4770, 363.1782
243.9592, 384.1587
244.4413, 366.5874
244.9234, 350.5010
245.4055, 347.1697
245.8876, 357.2966
246.3697, 380.1831
246.8519, 421.2363
247.3340, 476.8208
247.8161, 510.1614
248.2982, 501.8694
248.7803, 496.5823
249.2624, 514.2798
249.7446, 544.3914
250.2267, 569.2983
250.7088, 579.1829
251.1909, 578.4209
251.6730, 580.0481
252.1551, 586.9004
252.6373, 590.2251
253.1194, 583.8770
253.6015, 574.3345
254.0836, 569.9219
254.5657, 574.9436
255.0478, 581.1177
255.5300, 573.2815
256.0121, 546.9631
256.4942, 523.6326
256.9763, 513.3572
257.4584, 506.1780
257.9406, 494.8459
258.4227, 477.7949
258.9048, 458.6611
259.3869, 440.3716
259.8690, 422.8525
260.3511, 407.3955
260.8333, 393.9463
261.3154, 383.1013
261.7975, 376.9114
262.2796, 374.8984
262.7617, 370.8687
263.2438, 356.5815
263.7260, 334.8779
264.2081, 323.5105
264.6902, 329.4248
265.1723, 338.2214
265.6544, 339.1282
266.1365, 334.0337
266.6187, 328.9438
267.1008, 325.2466
267.5829, 323.4109
268.0650, 326.5098
268.5471, 336.9990
269.0292, 344.2893
269.5114, 336.0164
269.9935, 319.4575
270.4756, 307.2446
270.9577, 304.8665
271.4398, 305.1650
271.9219, 299.7969
272.4041, 288.7212
272.8862, 278.2708
273.3683, 271.4985
273.8504, 268.4546
274.3325, 268.7830
274.8146, 273.1860
275.2968, 279.3423
275.7789, 288.9917
276.2610, 299.8171
276.7431, 301.1599
277.2252, 284.8938
277.7073, 263.0649
278.1895, 256.0823
278.6716, 264.6389
279.1537, 278.1709
279.6358, 299.0273
280.1179, 320.7708
280.6000, 329.7561
281.0822, 321.6724
281.5643, 311.0928
282.0464, 316.2180
282.5285, 338.0579
283.0106, 359.6099
283.4927, 380.8225
283.9749, 399.8037
284.4570, 413.0012
284.9391, 421.1025
285.4212, 431.8943
285.9033, 452.8582
286.3854, 483.5598
286.8676, 506.6860
287.3497, 519.2571
287.8318, 527.9998
288.3139, 529.0740
288.7960, 528.2029
289.2781, 542.4075
289.7603, 583.9580
290.2424, 643.0098
290.7245, 676.7808
291.2066, 651.6614
291.6887, 644.5388
292.1708, 677.9443
292.6530, 731.6858
293.1351, 782.1821
293.6172, 821.0081
294.0993, 852.1169
294.5814, 881.9087
295.0635, 908.7854
295.5457, 937.6150
296.0278, 967.1663
296.5099, 999.1641
296.9920, 1036.106
297.4741, 1077.505
297.9562, 1118.317
298.4384, 1151.279
298.9205, 1172.339
299.4026, 1215.242
299.8847, 1305.257
300.3668, 1391.151
300.8489, 1456.048
301.3311, 1503.184
301.8131, 1541.458
302.2953, 1575.580
302.7774, 1606.952
303.2595, 1642.710
303.7416, 1683.657
304.2237, 1728.400
304.7058, 1787.705
305.1880, 1845.489
305.6701, 1880.285
306.1522, 1883.425
306.6343, 1875.748
307.1164, 1896.777
307.5985, 1959.791
308.0807, 2001.525
308.5628, 1995.877
309.0449, 1975.246
309.5270, 1956.350
310.0091, 1941.099
310.4912, 1923.479
310.9734, 1899.260
311.4555, 1868.424
311.9376, 1830.169
312.4197, 1780.182
312.9018, 1728.840
313.3839, 1683.867
313.8661, 1642.760
314.3482, 1599.411
314.8303, 1549.083
315.3124, 1495.661
315.7945, 1448.334
316.2766, 1409.364
316.7588, 1363.215
317.2409, 1293.919
317.7230, 1214.985
318.2051, 1150.166
318.6872, 1110.013
319.1693, 1071.278
319.6515, 1013.092
320.1336, 940.6082
320.6157, 876.6794
321.0978, 831.4814
321.5799, 794.9839
322.0620, 747.7939
322.5442, 686.4478
323.0263, 637.2009
323.5084, 617.8538
323.9905, 610.1472
324.4726, 587.4861
324.9547, 545.4043
325.4369, 503.3638
325.9190, 479.4121
326.4011, 475.6340
326.8832, 477.5176
327.3653, 489.4221
327.8474, 502.7576
328.3296, 514.4875
328.8117, 523.8215
329.2938, 527.8608
329.7759, 523.5432
330.2580, 515.0352
330.7401, 521.4873
331.2223, 558.0022
331.7044, 590.9004
332.1865, 611.6716
332.6686, 629.5293
333.1507, 654.9131
333.6328, 690.7866
334.1150, 732.1528
334.5971, 771.9575
335.0792, 809.0967
335.5613, 847.2729
336.0434, 889.4541
336.5255, 929.8872
337.0077, 960.9963
337.4898, 986.5913
337.9719, 1019.200
338.4540, 1070.732
338.9361, 1138.350
339.4182, 1196.604
339.9004, 1242.444
340.3825, 1282.167
340.8646, 1318.687
341.3467, 1350.906
341.8288, 1375.786
342.3109, 1391.240
342.7931, 1404.031
343.2752, 1427.964
343.7573, 1466.521
344.2394, 1491.683
344.7215, 1491.616
345.2036, 1479.504
345.6858, 1468.015
346.1679, 1457.976
346.6500, 1435.960
347.1321, 1385.113
347.6142, 1314.438
348.0963, 1251.271
348.5785, 1200.943
349.0606, 1152.168
349.5427, 1094.463
350.0248, 1029.589
350.5069, 964.1619
350.9890, 899.6204
351.4712, 838.7764
351.9533, 778.5757
352.4354, 720.3311
352.9175, 674.7324
353.3996, 648.7383
353.8817, 636.4741
354.3639, 622.6462
354.8460, 603.6597
355.3281, 591.6826
355.8102, 599.3423
356.2923, 610.6748
356.7744, 604.4031
357.2566, 576.6770
357.7387, 542.7878
358.2208, 519.3123
358.7029, 507.3691
359.1850, 496.0686
359.6671, 489.6553
360.1493, 481.6584
360.6314, 465.8987
361.1135, 445.9902
361.5956, 430.9116
362.0777, 427.1443
362.5598, 431.3113
363.0420, 430.0640
363.5241, 422.3469
364.0062, 409.6836
364.4883, 383.9917
364.9704, 359.0554
365.4525, 348.2910
365.9347, 353.7954
366.4168, 364.4717
366.8989, 368.5142
367.3810, 365.6038
367.8631, 361.3008
368.3452, 354.1150
368.8274, 347.5457
369.3095, 343.7759
369.7916, 341.8970
370.2737, 339.6484
370.7558, 335.2649
371.2379, 330.4785
371.7201, 327.3057
372.2022, 325.4172
372.6843, 328.7148
373.1664, 342.5278
373.6485, 360.4043
374.1306, 371.9980
374.6128, 375.2410
375.0949, 378.5618
375.5770, 389.4834
376.0591, 403.0212
376.5412, 407.0083
377.0233, 397.8416
377.5055, 388.0044
377.9876, 391.3245
378.4697, 409.5649
378.9518, 422.6123
379.4339, 431.2593
379.9160, 433.7205
380.3982, 426.2542
380.8803, 411.4146
381.3624, 396.2239
381.8445, 384.6055
382.3266, 374.8108
382.8087, 361.1675
383.2909, 341.4043
383.7730, 320.5281
384.2551, 299.3494
384.7372, 276.7473
385.2193, 248.6292
385.7014, 216.2051
386.1836, 188.1040
386.6657, 175.4438
387.1478, 179.5293
387.6299, 174.8059
388.1120, 149.1833
388.5941, 128.6270
389.0763, 125.1670
389.5584, 131.2839
390.0405, 135.1497
390.5226, 131.5557
391.0047, 123.9546
391.4868, 117.9734
391.9690, 114.0615
392.4511, 107.4893
392.9332, 93.22217
393.4153, 79.41309
393.8974, 76.44214
394.3795, 84.12476
394.8617, 86.64453
395.3438, 72.95947
395.8259, 50.34131
396.3080, 28.15845
396.7901, 6.861816
397.2722, 6.614014
397.7544, 5.351807
398.2365, 8.360840
398.7186, 19.55762
399.2007, 30.67749
399.6828, 36.63745
400.1649, 34.84961
400.6471, 26.74365
401.1292, 11.96533
401.6113, 9.773193
402.0934, 30.15063
402.5755, 35.86768
403.0576, 18.34546
403.5398, 12.34399
404.0219, 28.88086
404.5040, 45.05298
404.9861, 45.48145
405.4682, 35.52271
405.9503, 31.86670
406.4325, 46.72900
406.9146, 71.95874
407.3967, 75.56104
407.8788, 39.90967
408.3609, 19.09741
408.8430, 36.57617
409.3252, 63.07690
409.8073, 76.12720
410.2894, 72.31226
410.7715, 62.68311
411.2536, 54.49097
411.7357, 47.97876
412.2179, 45.30396
412.7000, 48.22693
413.1821, 51.08960
413.6642, 50.00647
414.1463, 46.06116
414.6284, 41.05444
415.1106, 36.73706
415.5927, 29.69617
416.0748, 13.08386
416.5569, 8.851807
417.0390, 21.17847
417.5211, 17.26819
418.0033, 7.665283
418.4854, 8.910156
418.9675, 26.34875
419.4496, 36.29602
419.9317, 31.27966
420.4138, 23.99744
420.8960, 22.10449
421.3781, 25.56958
421.8602, 31.66675
422.3423, 38.83789
422.8244, 46.88330
423.3065, 54.82458
423.7887, 61.59546
424.2708, 70.06726
424.7529, 83.83887
425.2350, 97.08179
425.7171, 103.9199
426.1992, 104.1527
426.6814, 103.4594
427.1635, 107.7280
427.6456, 116.4453
428.1277, 123.6405
428.6098, 130.3096
429.0919, 133.4164
429.5741, 123.7960
430.0562, 111.6703
430.5383, 114.3730
431.0204, 141.5776
431.5025, 172.2107
431.9846, 190.0320
432.4668, 196.9904
432.9489, 198.0680
433.4310, 192.4895
433.9131, 188.4341
434.3952, 197.1555
434.8773, 220.2694
435.3595, 239.2108
435.8416, 253.7822
436.3237, 263.1686
436.8058, 262.5017
437.2879, 256.2001
437.7701, 254.8531
438.2522, 263.9824
438.7343, 280.7197
439.2164, 297.9751
439.6985, 316.5533
440.1806, 334.1201
440.6628, 353.1830
441.1449, 369.4434
441.6270, 377.9200
442.1091, 380.4127
442.5912, 384.0916
443.0733, 394.3101
443.5555, 409.9077
444.0376, 426.7875
444.5197, 445.5308
445.0018, 463.9271
445.4839, 478.0173
445.9660, 493.2036
446.4482, 517.1191
446.9303, 552.0713
447.4124, 584.0363
447.8945, 603.6742
448.3766, 614.3889
448.8587, 621.3484
449.3409, 624.8313
449.8230, 630.0990
450.3051, 640.2834
450.7872, 655.9900
451.2693, 679.2897
451.7514, 719.5803
452.2336, 755.9197
452.7157, 778.7374
453.1978, 794.3805
453.6799, 812.4187
454.1620, 835.3685
454.6441, 857.3225
455.1263, 869.6946
455.6084, 870.2273
456.0905, 874.9709
456.5726, 889.9121
457.0547, 902.7814
457.5368, 906.6499
458.0190, 906.7485
458.5011, 913.0254
458.9832, 930.9474
459.4653, 949.8896
459.9474, 954.1337
460.4295, 944.3418
460.9117, 930.6582
461.3938, 906.8721
461.8759, 887.6907
462.3580, 893.1450
462.8401, 918.7285
463.3222, 936.3562
463.8044, 936.3029
464.2865, 924.9172
464.7686, 904.9385
465.2507, 879.2915
465.7328, 854.8855
466.2149, 831.9399
466.6971, 810.7605
467.1792, 796.3264
467.6613, 792.9575
468.1434, 791.6654
468.6255, 795.6946
469.1076, 799.6571
469.5898, 800.4381
470.0719, 797.8368
470.5540, 792.9895
471.0361, 787.1379
471.5182, 779.1362
472.0003, 763.8457
472.4825, 737.4287
472.9646, 714.8989
473.4467, 700.9602
473.9288, 692.3541
474.4109, 688.5331
474.8930, 687.6625
475.3752, 684.6772
475.8573, 678.5872
476.3394, 669.3269
476.8215, 652.9058
477.3036, 628.6990
477.7857, 608.4355
478.2679, 598.2300
478.7500, 594.7622
479.2321, 590.9878
479.7142, 586.1631
480.1963, 584.4404
480.6784, 590.0988
481.1606, 595.5905
481.6427, 593.3813
482.1248, 584.2968
482.6069, 574.5867
483.0890, 567.9805
483.5711, 564.6084
484.0533, 567.0181
484.5354, 583.3113
485.0175, 593.3232
485.4996, 583.4360
485.9817, 571.5188
486.4638, 577.3386
486.9460, 600.7700
487.4281, 621.4536
487.9102, 617.5734
488.3923, 599.0310
488.8744, 597.8282
489.3565, 616.8608
489.8387, 636.9529
490.3208, 647.8151
490.8029, 653.9784
491.2850, 665.9277
491.7671, 687.4432
492.2492, 704.0405
492.7314, 705.7393
493.2135, 702.4434
493.6956, 705.5590
494.1777, 716.5200
494.6598, 732.2988
495.1419, 751.5703
495.6241, 772.1611
496.1062, 777.1162
496.5883, 746.7168
497.0704, 728.2736
497.5525, 733.5587
498.0346, 747.0591
498.5168, 757.4923
498.9989, 762.8141
499.4810, 765.6415
499.9631, 769.9261
500.4452, 773.3804
500.9273, 766.0383
501.4095, 745.7729
501.8916, 723.3801
502.3737, 701.7795
502.8558, 681.7045
503.3379, 664.1635
503.8200, 649.3997
504.3022, 636.5298
504.7843, 629.8184
505.2664, 622.2449
505.7485, 605.5929
506.2306, 579.5581
506.7127, 547.7622
507.1949, 511.3645
507.6770, 472.5786
508.1591, 441.6973
508.6412, 428.1080
509.1233, 408.5356
509.6054, 372.5569
510.0876, 337.4866
510.5697, 319.6729
511.0518, 316.7018
511.5339, 311.2249
512.0161, 288.2719
512.4982, 255.5088
512.9803, 234.3982
513.4624, 226.7500
513.9445, 220.9843
514.4266, 215.2965
514.9088, 207.6434
515.3909, 193.7412
515.8730, 172.6681
516.3551, 156.9252
516.8372, 158.1251
517.3193, 160.4989
517.8015, 144.7484
518.2836, 115.3763
518.7657, 93.87170
519.2478, 92.40173
519.7299, 102.4791
520.2120, 103.9092
520.6942, 92.27722
521.1763, 80.10840
521.6584, 65.51685
522.1405, 52.24158
522.6226, 41.10449
523.1047, 32.94409
523.5869, 30.31494
524.0690, 36.48303
524.5511, 44.45251
525.0332, 41.32666
525.5153, 27.19128
525.9974, 14.99426
526.4796, 7.546753
526.9617, 3.327637
527.4438, 1.456177
527.9259, 1.694336
528.4080, 2.835327
528.8901, 6.612915
529.3723, 9.376831
529.8544, 8.728394
530.3365, 5.553101
530.8186, 0.8284910
531.3007, 5.013672
531.7828, 9.678223
532.2650, 9.342041
532.7471, 2.587036
533.2292, 0.2631840
533.7113, 4.764526
534.1934, 9.242188
534.6755, 12.56042
535.1577, 13.08582
535.6398, 6.333008
536.1219, 10.15625
536.6040, 22.93384
537.0861, 14.32227
537.5682, 8.253662
538.0504, 19.83569
538.5325, 16.55347
539.0146, 9.583496
539.4967, 6.685547
539.9788, 6.538940
540.4609, 2.578003
540.9431, 14.18494
541.4252, 22.16467
541.9073, 5.129272
542.3894, 14.96509
542.8715, 12.92004
543.3536, 10.18213
543.8358, 31.70667
544.3179, 32.99622
544.8000, 18.78540
545.2821, 8.792358
545.7642, 1.834839
546.2463, 2.508301
546.7285, 22.02026
547.2106, 42.15930
547.6927, 48.69653
548.1748, 41.78186
548.6569, 30.84265
549.1390, 15.33154
549.6211, 1.119629
550.1032, 3.715332
550.5853, 0.9727780
551.0674, 0.2139890
551.5496, 4.523438
552.0317, 8.421387
552.5138, 0.9674070
552.9959, 32.02954
553.4780, 47.76074
553.9601, 36.73450
554.4423, 24.98425
554.9244, 19.35120
555.4065, 21.00195
555.8886, 33.44995
556.3707, 58.43884
556.8528, 82.57617
557.3350, 86.27466
557.8171, 72.58960
558.2992, 68.04565
558.7813, 78.38635
559.2634, 87.10132
559.7455, 80.61011
560.2277, 64.45325
560.7098, 56.54016
561.1919, 57.79565
561.6740, 65.83972
562.1561, 85.43396
562.6382, 108.1099
563.1204, 125.2686
563.6025, 136.1204
564.0846, 144.9911
564.5667, 155.9128
565.0488, 165.9236
565.5309, 160.6198
566.0131, 127.9109
566.4952, 110.5164
566.9773, 131.4413
567.4594, 157.5236
567.9415, 167.3234
568.4236, 163.1586
568.9058, 160.4556
569.3879, 164.9709
569.8700, 174.4480
570.3521, 189.6720
570.8342, 208.3074
571.3163, 222.6859
571.7985, 230.4901
572.2806, 232.8192
572.7627, 229.6982
573.2448, 219.7673
573.7269, 217.3136
574.2090, 227.9946
574.6912, 238.9740
575.1733, 245.3014
575.6554, 251.1859
576.1375, 264.0776
576.6196, 284.5736
577.1017, 301.3667
577.5839, 299.7061
578.0660, 286.2025
578.5481, 282.8472
579.0302, 290.3511
579.5123, 305.0901
579.9944, 328.6011
580.4766, 355.6233
580.9587, 375.6550
581.4408, 388.0186
581.9229, 398.5266
582.4050, 407.7936
582.8871, 415.3687
583.3693, 419.6597
583.8514, 421.8987
584.3335, 426.5835
584.8156, 435.8733
585.2977, 445.5219
585.7798, 448.3340
586.2620, 443.7274
586.7441, 438.8730
587.2262, 431.5129
587.7083, 427.9994
588.1904, 439.6631
588.6725, 455.3738
589.1547, 454.0491
589.6368, 424.3859
590.1189, 400.9941
590.6010, 408.0349
591.0831, 426.8503
591.5652, 433.7457
592.0474, 427.4724
592.5295, 418.4625
593.0116, 412.8545
593.4937, 409.8568
593.9758, 405.3268
594.4579, 399.3320
594.9401, 389.6821
595.4222, 365.9894
595.9043, 346.7883
596.3864, 348.0823
596.8685, 362.4044
597.3506, 368.7142
597.8328, 354.7853
598.3149, 339.2444
598.7970, 341.8108
599.2791, 354.9479
599.7612, 360.5505
600.2433, 354.5587
600.7255, 347.6622
601.2076, 350.1927
601.6897, 358.8657
602.1718, 353.8281
602.6539, 313.4517
603.1360, 290.8237
603.6182, 302.0706
604.1003, 319.7573
604.5824, 322.7917
605.0645, 312.4581
605.5466, 304.6149
606.0287, 310.9672
606.5109, 321.1680
606.9930, 319.0714
607.4751, 305.7982
607.9572, 290.3811
608.4393, 274.7618
608.9214, 260.4132
609.4036, 248.2168
609.8857, 238.2253
610.3678, 232.7876
610.8499, 238.7067
611.3320, 239.1616
611.8141, 224.4784
612.2963, 206.1254
612.7784, 198.5522
613.2605, 201.1510
613.7426, 198.6001
614.2247, 174.5511
614.7068, 141.1135
615.1890, 132.3629
615.6711, 149.7446
616.1532, 158.2886
616.6353, 144.7719
617.1174, 124.6151
617.5995, 115.4288
618.0817, 117.4668
618.5638, 116.1652
619.0459, 109.2938
619.5280, 100.9530
620.0101, 89.77844
620.4922, 79.48010
620.9744, 76.51843
621.4565, 80.83630
621.9386, 83.61353
622.4207, 74.70728
622.9028, 58.85242
623.3849, 57.56567
623.8671, 74.58289
624.3492, 83.95312
624.8313, 75.01318
625.3134, 58.35681
625.7955, 42.44495
626.2776, 27.29675
626.7598, 25.64917
627.2419, 54.57227
627.7240, 80.86816
628.2061, 87.16089
628.6882, 80.39502
629.1703, 68.42395
629.6525, 54.61475
630.1346, 43.87512
630.6167, 42.39844
631.0988, 47.93445
631.5809, 46.83618
632.0630, 36.64868
632.5452, 29.45898
633.0273, 29.99695
633.5094, 34.05591
633.9915, 36.64075
634.4736, 37.89453
634.9557, 41.41406
635.4379, 56.99646
635.9200, 65.44067
636.4021, 45.75281
636.8842, 15.61975
637.3663, 4.611694
637.8484, 18.54150
638.3306, 39.64709
638.8127, 52.59302
639.2948, 56.90491
639.7769, 45.82678
640.2590, 11.85876
640.7411, 10.53149
641.2233, 5.351929
641.7054, 9.748413
642.1875, 17.59058
642.6696, 18.60986
643.1517, 17.34631
643.6339, 10.25989
644.1160, 5.899048
644.5981, 13.61768
645.0802, 25.25623
645.5623, 27.02576
646.0444, 16.88159
646.5266, 4.672729
647.0087, 0.7791750
647.4908, 0.4277340
647.9729, 2.465454
648.4550, 9.614746
648.9371, 11.61414
649.4193, 0.3197020
649.9014, 11.22705
650.3835, 2.006714
650.8656, 23.56494
651.3477, 38.35730
651.8298, 31.01587
652.3120, 19.77820
652.7941, 8.113281
653.2762, 0.1094970
653.7583, 5.905029
654.2404, 23.72498
654.7225, 35.10242
655.2047, 22.83093
655.6868, 4.141235
656.1689, 15.93909
656.6510, 10.82666
657.1331, 3.9917000E-02
657.6152, 19.70801
658.0974, 36.42908
658.5795, 38.34692
659.0616, 27.65076
659.5437, 12.90503
660.0258, 19.83911
660.5079, 38.29163
660.9901, 17.45776
661.4722, 14.14185
661.9543, 24.13367
662.4364, 12.98682
662.9185, 3.269653
663.4006, 10.46692
663.8828, 26.80127
664.3649, 35.42725
664.8470, 36.08740
665.3291, 37.61157
665.8112, 41.75793
666.2933, 46.13684
666.7755, 50.53015
667.2576, 53.64771
667.7397, 50.33557
668.2218, 34.17419
668.7039, 22.09021
669.1860, 17.73572
669.6682, 18.32544
670.1503, 23.38074
670.6324, 31.34570
671.1145, 39.58228
671.5966, 47.02295
672.0787, 52.69006
672.5609, 55.22144
673.0430, 54.73987
673.5251, 50.73547
674.0072, 41.92224
674.4893, 37.57031
674.9714, 46.01538
675.4536, 60.43140
675.9357, 62.15869
676.4178, 40.88293
676.8999, 29.56812
677.3820, 34.36243
677.8641, 43.87366
678.3463, 53.39404
678.8284, 63.09070
679.3105, 76.15466
679.7926, 93.55737
680.2747, 105.6011
680.7568, 99.44006
681.2390, 82.35718
681.7211, 74.41589
682.2032, 75.67651
682.6853, 77.91345
683.1674, 77.25476
683.6495, 75.74487
684.1317, 77.15857
684.6138, 82.50024
685.0959, 83.93274
685.5780, 76.33545
686.0601, 71.46252
686.5422, 75.81030
687.0244, 82.01636
687.5065, 82.32825
687.9886, 75.91760
688.4707, 67.30933
688.9528, 53.64465
689.4349, 43.22437
689.9171, 50.90430
690.3992, 69.69055
690.8813, 79.01587
691.3634, 73.50208
691.8455, 61.43396
692.3276, 49.76819
692.8098, 39.31458
693.2919, 38.57056
693.7740, 53.63354
694.2561, 64.84204
694.7382, 63.53442
695.2203, 61.86523
695.7025, 71.07422
696.1846, 87.47375
696.6667, 96.50317
697.1488, 89.68188
697.6309, 82.12769
698.1130, 83.80273
698.5952, 87.91516
699.0773, 86.61414
699.5594, 79.59753
700.0415, 70.01306
700.5236, 59.09167
701.0057, 50.78345
701.4879, 56.66699
701.9700, 77.94971
702.4521, 86.47925
702.9342, 74.32886
703.4163, 63.57129
703.8984, 69.99756
704.3806, 85.60083
704.8627, 90.61304
705.3448, 81.10828
705.8269, 73.22498
706.3090, 66.59253
706.7911, 64.67065
707.2733, 76.55115
707.7554, 91.90002
708.2375, 92.13342
708.7196, 72.02197
709.2017, 50.89392
709.6838, 48.28577
710.1660, 57.56274
710.6481, 64.52930
711.1302, 68.93726
711.6123, 68.94946
712.0944, 62.56396
712.5765, 58.34839
713.0587, 66.86255
713.5408, 88.90137
714.0229, 98.47363
714.5050, 85.13892
714.9871, 75.29675
715.4692, 74.90833
715.9514, 76.89832
716.4335, 75.54407
716.9156, 71.44751
717.3977, 67.23523
717.8798, 63.56372
718.3619, 58.53394
718.8441, 50.47034
719.3262, 42.07666
719.8083, 38.04321
720.2904, 39.40454
720.7725, 44.47424
721.2546, 52.29797
721.7368, 60.58484
722.2189, 63.33313
722.7010, 59.34216
723.1831, 58.99487
723.6652, 65.34290
724.1473, 71.14551
724.6295, 75.02795
725.1116, 74.39087
725.5937, 61.84229
726.0758, 30.41907
726.5579, 12.41589
727.0400, 25.35034
727.5222, 41.01453
728.0043, 41.00464
728.4864, 32.22021
728.9685, 26.71436
729.4506, 27.79541
729.9327, 31.65332
730.4149, 37.19873
730.8970, 42.12927
731.3791, 38.23669
731.8612, 27.01733
732.3433, 24.75244
732.8254, 37.58533
733.3076, 51.21924
733.7897, 50.45703
734.2718, 36.53857
734.7539, 25.43408
735.2360, 13.58130
735.7181, 10.68774
736.2003, 32.96191
736.6824, 50.15002
737.1645, 36.43835
737.6466, 2.806396
738.1287, 19.49792
738.6108, 20.56616
739.0930, 13.33386
739.5751, 2.720703
740.0572, 17.99280
740.5393, 18.12842
741.0214, 6.654419
741.5035, 2.516846
741.9857, 2.816650
742.4678, 2.673828
742.9499, 12.39856
743.4320, 25.50488
743.9141, 28.65039
744.3962, 19.53955
744.8784, 12.63293
745.3605, 15.02820
745.8426, 19.83887
746.3247, 16.90588
746.8068, 4.834595
747.2889, 1.837402
747.7711, 1.579102
748.2532, 1.660645
748.7353, 8.685181
749.2174, 17.01794
749.6995, 25.31323
750.1816, 32.96082
750.6638, 38.91052
751.1459, 43.00220
751.6280, 44.53210
752.1101, 40.01160
752.5922, 33.46313
753.0743, 35.26550
753.5565, 44.59814
754.0386, 47.06995
754.5207, 33.37756
755.0028, 14.35010
755.4849, 13.60046
755.9670, 34.15979
756.4492, 43.79321
756.9313, 38.32288
757.4134, 30.95496
757.8955, 26.96399
758.3776, 24.50195
758.8597, 19.35986
759.3419, 10.60046
759.8240, 8.749146
760.3061, 24.58704
760.7882, 35.57751
761.2703, 28.26880
761.7524, 15.13403
762.2346, 9.830078
762.7167, 12.93994
763.1988, 15.84888
763.6809, 12.15796
764.1630, 8.886841
764.6451, 19.30225
765.1273, 35.62549
765.6094, 35.11365
766.0915, 16.53784
766.5736, 0.2075200
767.0557, 1.373535
767.5378, 7.072266
768.0200, 17.80920
768.5021, 33.26440
768.9842, 33.98193
769.4663, 10.51904
769.9484, 7.872070
770.4305, 4.247925
770.9127, 8.296387
771.3948, 10.90027
771.8769, 2.514648
772.3590, 0.9619140
772.8411, 9.480469
773.3232, 16.48608
773.8054, 7.791870
774.2875, 4.011475
774.7696, 3.652100
775.2517, 7.974854
775.7338, 17.95911
776.2159, 19.56006
776.6981, 15.92163
777.1802, 6.843140
777.6623, 3.885864
778.1444, 6.982910
778.6265, 1.911499
779.1086, 7.143188
779.5908, 18.41833
780.0729, 27.96252
780.5550, 25.79468
781.0371, 9.551636
781.5192, 7.675049
782.0013, 28.34766
782.4835, 41.29028
782.9656, 31.26697
783.4477, 11.52100
783.9298, 3.217529
784.4119, 13.05994
784.8940, 15.45581
785.3762, 3.438477
785.8583, 7.218628
786.3404, 12.10327
786.8225, 14.05176
787.3046, 14.72070
787.7867, 14.82214
788.2689, 15.25793
788.7510, 16.20605
789.2331, 18.24658
789.7152, 22.03235
790.1973, 27.15491
790.6794, 35.42383
791.1616, 44.87207
791.6437, 47.06409
792.1258, 38.35620
792.6079, 25.50781
793.0900, 16.38196
793.5721, 11.16821
794.0543, 13.11975
794.5364, 23.66345
795.0185, 32.45715
795.5006, 36.85828
795.9827, 36.36560
796.4648, 30.12573
796.9470, 20.13538
797.4291, 22.70959
797.9112, 55.52979
798.3933, 73.53613
798.8754, 63.66931
799.3575, 48.97571
799.8397, 40.94849
800.3218, 38.85132
800.8039, 39.24109
801.2860, 41.61328
801.7681, 44.91187
802.2502, 50.34192
802.7324, 54.99207
803.2145, 56.64880
803.6966, 55.35791
804.1787, 50.06946
804.6608, 41.39404
805.1429, 34.04456
805.6251, 31.83716
806.1072, 34.75647
806.5893, 46.73413
807.0714, 65.30933
807.5535, 69.28369
808.0356, 54.21741
808.5178, 37.30566
808.9999, 28.76221
809.4820, 28.54602
809.9641, 37.86792
810.4462, 61.74609
810.9283, 75.82764
811.4105, 75.52039
811.8926, 73.16614
812.3747, 76.51123
812.8568, 78.08228
813.3389, 65.04553
813.8210, 37.56421
814.3032, 23.15283
814.7853, 34.81934
815.2674, 48.71191
815.7495, 60.56250
816.2316, 68.11145
816.7137, 67.95825
817.1959, 61.88416
817.6780, 54.83435
818.1601, 48.39038
818.6422, 43.75439
819.1243, 44.74146
819.6064, 46.76477
820.0886, 39.55151
820.5707, 26.38647
821.0528, 20.92883
821.5349, 27.83008
822.0170, 39.46008
822.4991, 48.46936
822.9813, 54.66577
823.4634, 57.34180
823.9455, 56.53601
824.4276, 49.41565
824.9097, 32.77026
825.3918, 23.65430
825.8740, 38.07507
826.3561, 65.04089
826.8382, 66.57495
827.3203, 21.39148
827.8024, 8.7646000E-02
828.2845, 23.83179
828.7667, 48.85974
829.2488, 59.88928
829.7309, 61.26917
830.2130, 54.53259
830.6951, 40.66736
831.1772, 35.17004
831.6594, 47.87256
832.1415, 61.78979
832.6236, 72.25000
833.1057, 80.19019
833.5878, 88.69409
834.0699, 94.94141
834.5521, 86.34448
835.0342, 53.70593
835.5163, 24.82361
835.9984, 31.80005
836.4805, 57.29553
836.9626, 75.39539
837.4448, 84.11108
837.9269, 84.05518
838.4090, 76.23828
838.8911, 67.85669
839.3732, 67.55652
839.8553, 72.07544
840.3375, 67.19043
840.8196, 52.73450
841.3017, 43.91150
841.7838, 43.82935
842.2659, 45.37048
842.7480, 44.21313
843.2302, 42.77319
843.7123, 44.88477
844.1944, 52.12915
844.6765, 55.22705
845.1586, 50.58728
845.6407, 47.33130
846.1229, 50.12219
846.6050, 54.58325
847.0871, 56.99316
847.5692, 57.27356
848.0513, 55.62280
848.5334, 49.15100
849.0156, 44.69214
849.4977, 47.65344
849.9798, 50.13062
850.4619, 43.62476
850.9440, 32.24841
851.4261, 26.45801
851.9083, 29.85010
852.3904, 33.45642
852.8725, 30.57751
853.3546, 27.03552
853.8367, 32.28540
854.3188, 40.55029
854.8010, 36.75610
855.2831, 20.34082
855.7652, 8.271118
856.2473, 13.93457
856.7294, 28.20593
857.2115, 39.15686
857.6937, 46.31763
858.1758, 46.40393
858.6579, 39.32471
859.1400, 30.57251
859.6221, 22.29211
860.1042, 16.26611
860.5864, 15.97620
861.0685, 20.22791
861.5506, 23.31067
862.0327, 25.42590
862.5148, 26.58337
862.9969, 26.84460
863.4791, 25.80225
863.9612, 21.28735
864.4433, 15.70068
864.9254, 18.56519
865.4075, 41.07385
865.8896, 48.54907
866.3718, 26.61877
866.8539, 7.489136
867.3360, 2.231689
867.8181, 5.645508
868.3002, 14.16663
868.7823, 27.02271
869.2645, 36.98279
869.7466, 41.22375
870.2287, 41.23926
870.7108, 35.81299
871.1929, 28.85107
871.6750, 21.87244
872.1572, 16.66003
872.6393, 17.79895
873.1214, 27.49182
873.6035, 35.41260
874.0856, 30.35132
874.5677, 19.69714
875.0499, 8.475586
875.5320, 0.1660160
876.0141, 2.452393
876.4962, 15.71069
876.9783, 26.42932
877.4604, 24.97241
877.9426, 19.33142
878.4247, 25.22156
878.9068, 37.67700
879.3889, 37.64612
879.8710, 25.19275
880.3531, 17.92847
880.8353, 23.39014
881.3174, 29.83472
881.7995, 22.08679
882.2816, 3.405884
882.7637, 5.577515
883.2458, 4.158936
883.7280, 3.677612
884.2101, 21.02649
884.6922, 31.61035
885.1743, 21.95227
885.6564, 1.674438
886.1385, 6.532837
886.6207, 0.2973630
887.1028, 6.751587
887.5849, 14.84607
888.0670, 21.27856
888.5491, 28.96594
889.0313, 32.98352
889.5134, 23.91528
889.9955, 6.519409
890.4776, 3.229736
890.9597, 29.23486
891.4418, 44.52478
891.9240, 37.18738
892.4061, 24.97510
892.8882, 13.64014
893.3703, 5.078003
893.8524, 0.1130370
894.3345, 0.8477780
894.8167, 5.258667
895.2988, 30.39832
895.7809, 49.83325
896.2630, 47.90466
896.7451, 35.59851
897.2272, 19.40601
897.7094, 4.116821
898.1915, 2.959961
898.6736, 0.6143800
899.1557, 6.575439
899.6378, 8.657471
900.1199, 8.864502
900.6021, 7.795044
901.0842, 7.345703
901.5663, 12.40857
902.0484, 22.85034
902.5305, 33.81250
903.0126, 42.69043
903.4948, 47.77307
903.9769, 43.81128
904.4590, 34.35815
904.9411, 31.94177
905.4232, 35.86292
905.9053, 35.91284
906.3875, 28.81824
906.8696, 22.24658
907.3517, 24.64746
907.8338, 31.42004
908.3159, 24.54517
908.7980, 3.851440
909.2802, 3.349854
909.7623, 7.702515
910.2444, 18.70374
910.7265, 20.71460
911.2086, 19.53845
911.6907, 24.67200
912.1729, 36.72620
912.6550, 35.03137
913.1371, 10.83667
913.6192, 0.5362550
914.1013, 17.47156
914.5834, 36.43909
915.0656, 40.62500
915.5477, 35.87024
916.0298, 35.51868
916.5119, 42.79614
916.9940, 40.18762
917.4761, 14.12781
917.9583, 2.129028
918.4404, 5.984253
918.9225, 20.69238
919.4046, 29.02332
919.8867, 32.24036
920.3688, 35.92847
920.8510, 41.56580
921.3331, 45.33777
921.8152, 46.57422
922.2973, 45.93542
922.7794, 42.14893
923.2615, 37.80029
923.7437, 37.12695
924.2258, 39.37439
924.7079, 37.30481
925.1900, 26.57288
925.6721, 15.11804
926.1542, 1.577393
926.6364, 7.135376
927.1185, 2.098267
927.6006, 10.39465
928.0827, 20.42090
928.5648, 25.46582
929.0469, 26.35046
929.5291, 22.77869
930.0112, 16.06384
930.4933, 0.3856200
930.9754, 12.89758
931.4575, 3.767456
931.9396, 20.15588
932.4218, 33.05176
932.9039, 25.74927
933.3860, 16.06970
933.8681, 23.97583
934.3502, 35.11853
934.8323, 26.56885
935.3145, 8.082764
935.7966, 0.1219480
936.2787, 3.900635
936.7608, 12.87354
937.2429, 23.34473
937.7250, 30.29163
938.2072, 23.11804
938.6893, 9.745239
939.1714, 10.93628
939.6535, 22.75513
940.1356, 27.41174
940.6177, 21.41614
941.0999, 16.41309
941.5820, 21.12402
942.0641, 28.16479
942.5462, 22.97754
943.0283, 8.000610
943.5104, 6.043213
943.9926, 18.36682
944.4747, 21.04370
944.9568, 11.90308
945.4389, 2.071533
945.9210, 15.41382
946.4031, 26.92200
946.8853, 33.02759
947.3674, 33.69995
947.8495, 31.37781
948.3316, 25.95886
948.8137, 22.81750
949.2958, 23.66931
949.7780, 26.72485
950.2601, 30.36499
950.7422, 34.12573
951.2243, 35.41492
951.7064, 33.60571
952.1885, 34.05688
952.6707, 39.04736
953.1528, 40.89148
953.6349, 35.38379
954.1170, 25.04700
954.5991, 11.00635
955.0812, 5.886719
955.5634, 5.996094
956.0455, 18.54480
956.5276, 35.60742
957.0097, 39.58093
957.4918, 38.95032
957.9739, 36.99841
958.4561, 34.53687
958.9382, 32.78894
959.4203, 31.80139
959.9024, 32.41345
960.3845, 35.40479
960.8666, 38.42798
961.3488, 43.92688
961.8309, 45.47583
962.3130, 36.75049
962.7951, 22.60217
963.2772, 11.16406
963.7593, 0.9127200
964.2415, 1.717529
964.7236, 28.85730
965.2057, 44.82422
965.6878, 36.24951
966.1699, 21.54736
966.6520, 7.110352
967.1342, 4.079468
967.6163, 1.098145
968.0984, 23.41016
968.5805, 31.36304
969.0626, 1.937866
969.5447, 18.76099
970.0269, 14.80396
970.5090, 2.016968
970.9911, 13.62256
971.4732, 27.23914
971.9553, 27.09399
972.4374, 6.234009
972.9196, 9.201904
973.4017, 16.03699
973.8838, 16.53992
974.3659, 8.449951
974.8480, 3.104492
975.3301, 17.09460
975.8123, 30.01733
976.2944, 33.10938
976.7765, 18.89111
977.2586, 13.71631
977.7407, 37.70837
978.2228, 54.63086
978.7050, 41.12427
979.1871, 18.75244
979.6692, 6.806641
980.1513, 5.675659
980.6334, 10.68311
981.1155, 24.46313
981.5977, 32.89014
982.0798, 27.43542
982.5619, 20.69226
983.0440, 19.05029
983.5261, 19.52014
984.0082, 18.32739
984.4904, 15.31506
984.9725, 13.40503
985.4546, 14.23218
985.9367, 13.15015
986.4188, 1.733643
986.9009, 4.221313
987.3831, 13.40576
987.8652, 35.53857
988.3473, 36.16748
988.8294, 17.99060
989.3115, 6.881104
989.7936, 12.05896
990.2758, 18.68738
990.7579, 22.43286
991.2400, 24.11365
991.7221, 23.93506
992.2042, 22.19983
992.6863, 18.47485
993.1685, 13.39819
993.6506, 9.100098
994.1327, 7.231323
994.6148, 5.472290
995.0969, 0.7808840
995.5790, 2.052734
996.0612, 1.769043
996.5433, 8.392822
997.0254, 13.35559
997.5075, 16.18213
997.9896, 17.83374
998.4717, 17.82520
998.9539, 19.16846
999.4360, 25.97058
999.9181, 31.71887
1000.400, 30.99438
1000.882, 27.04236
1001.364, 20.97290
1001.847, 14.93030
1002.329, 17.50281
1002.811, 36.59521
1003.293, 51.57312
1003.775, 42.86401
1004.257, 35.76221
1004.739, 53.11194
1005.221, 78.82544
1005.703, 91.94299
1006.186, 92.45886
1006.668, 91.34851
1007.150, 89.63513
1007.632, 95.49854
1008.114, 116.7000
1008.596, 142.1969
1009.078, 167.2571
1009.560, 190.8452
1010.043, 210.8685
1010.525, 228.7010
1011.007, 249.5109
1011.489, 275.6107
1011.971, 302.5178
1012.453, 331.0992
1012.935, 356.5919
1013.417, 371.7716
1013.899, 386.5225
1014.382, 416.0303
1014.864, 454.4806
1015.346, 477.4712
1015.828, 472.5049
1016.310, 476.9012
1016.792, 519.7367
1017.274, 558.2186
1017.756, 564.0591
1018.239, 557.8270
1018.721, 563.0638
1019.203, 575.5645
1019.685, 575.5837
1020.167, 556.0869
1020.649, 536.8757
1021.131, 520.8987
1021.613, 510.8751
1022.095, 510.7998
1022.578, 514.8113
1023.060, 521.6738
1023.542, 527.3444
1024.024, 519.3647
1024.506, 490.5881
1024.988, 480.4108
1025.470, 518.0471
1025.952, 551.7441
1026.435, 558.0784
1026.917, 556.6697
1027.399, 561.2397
1027.881, 571.0885
1028.363, 581.0415
1028.845, 590.0294
1029.327, 597.0043
1029.809, 600.6768
1030.292, 603.8467
1030.774, 604.2002
1031.256, 606.7070
1031.738, 617.2783
1032.220, 632.0978
1032.702, 643.9312
1033.184, 651.9231
1033.666, 657.0942
1034.148, 654.0151
1034.630, 656.1747
1035.113, 669.4408
1035.595, 684.4775
1036.077, 696.1323
1036.559, 706.3624
1037.041, 719.5922
1037.523, 736.1816
1038.005, 745.0159
1038.487, 738.0861
1038.970, 736.2876
1039.452, 744.3500
1039.934, 753.2542
1040.416, 762.0695
1040.898, 767.1118
1041.380, 762.2623
1041.862, 748.6382
1042.344, 738.7161
1042.826, 735.9292
1043.309, 729.8926
1043.791, 723.9091
1044.273, 707.0176
1044.755, 667.8975
1045.237, 626.6656
1045.719, 607.0259
1046.201, 601.3699
1046.683, 571.6494
1047.166, 503.7196
1047.648, 461.8435
1048.130, 458.2188
1048.612, 445.1150
1049.094, 405.1796
1049.576, 358.0721
1050.058, 318.0835
1050.540, 287.2408
1051.022, 272.5721
1051.505, 276.0343
1051.987, 269.4088
1052.469, 250.8589
1052.951, 233.5388
1053.433, 219.6298
1053.915, 212.9650
1054.397, 217.3464
1054.879, 225.9830
1055.361, 225.6694
1055.844, 217.4584
1056.326, 214.2020
1056.808, 215.8561
1057.290, 216.0208
1057.772, 213.7125
1058.254, 219.9362
1058.736, 240.9137
1059.218, 263.4509
1059.701, 267.4940
1060.183, 260.7402
1060.665, 271.3995
1061.147, 295.7744
1061.629, 315.4814
1062.111, 328.1189
1062.593, 331.2192
1063.075, 323.9141
1063.557, 311.3026
1064.040, 296.9462
1064.522, 285.6201
1065.004, 290.1384
1065.486, 303.2192
1065.968, 307.9358
1066.450, 304.1763
1066.932, 294.3785
1067.414, 280.8555
1067.896, 273.4597
1068.379, 280.9121
1068.861, 289.6602
1069.343, 279.8364
1069.825, 265.2795
1070.307, 271.6599
1070.789, 285.8793
1071.271, 274.7592
1071.753, 240.9569
1072.236, 221.1525
1072.718, 234.0376
1073.200, 246.7670
1073.682, 229.9283
1074.164, 208.9055
1074.646, 204.2648
1075.128, 208.3079
1075.610, 213.9619
1076.093, 218.5542
1076.575, 218.5752
1077.057, 212.9772
1077.539, 207.1442
1078.021, 207.1229
1078.503, 202.4856
1078.985, 182.5687
1079.467, 162.1107
1079.949, 153.8062
1080.432, 152.1851
1080.914, 146.9164
1081.396, 137.0939
1081.878, 129.3921
1082.360, 124.6606
1082.842, 122.6001
1083.324, 124.3481
1083.806, 127.3645
1084.288, 133.9380
1084.771, 138.6382
1085.253, 133.5217
1085.735, 121.0580
1086.217, 113.8287
1086.699, 117.5338
1087.181, 110.6440
1087.663, 85.01660
1088.145, 65.10413
1088.628, 56.33423
1089.110, 57.18286
1089.592, 70.08728
1090.074, 87.73865
1090.556, 94.53357
1091.038, 90.29382
1091.520, 78.16541
1092.002, 55.24963
1092.484, 45.84290
1092.967, 56.33545
1093.449, 62.91211
1093.931, 52.56885
1094.413, 38.07275
1094.895, 36.62769
1095.377, 43.21045
1095.859, 36.88733
1096.341, 20.28003
1096.823, 15.18665
1097.306, 22.23486
1097.788, 30.18469
1098.270, 35.00830
1098.752, 33.49548
1099.234, 21.45300
1099.716, 8.653076
1100.198, 14.44751
1100.680, 28.04846
1101.163, 25.04846
1101.645, 11.74780
1102.127, 6.263916
1102.609, 9.857178
1103.091, 12.43420
1103.573, 9.706665
1104.055, 5.037476
1104.537, 9.3750000E-02
1105.020, 4.360107
1105.502, 7.847900
1105.984, 10.71057
1106.466, 9.201904
1106.948, 5.658447
1107.430, 6.256226
1107.912, 13.20508
1108.394, 15.14319
1108.876, 2.270020
1109.359, 7.338989
1109.841, 3.450684
1110.323, 0.1842040
1110.805, 10.08813
1111.287, 25.11328
1111.769, 38.15930
1112.251, 47.49890
1112.733, 47.61829
1113.215, 34.01648
1113.698, 21.67432
1114.180, 10.18457
1114.662, 1.714478
1115.144, 5.659302
1115.626, 8.133789
1116.108, 1.014404
1116.590, 11.13318
1117.072, 21.13269
1117.555, 29.56396
1118.037, 26.31970
1118.519, 9.238403
1119.001, 4.221558
1119.483, 13.31677
1119.965, 15.74500
1120.447, 11.58630
1120.929, 7.065430
1121.411, 54.03662
1121.894, 108.8628
1122.376, 110.4860
1122.858, 71.25452
1123.340, 55.58594
1123.822, 62.77307
1124.304, 70.73254
1124.786, 74.25305
1125.268, 71.64075
1125.750, 61.57703
1126.233, 53.41516
1126.715, 57.95654
1127.197, 70.42554
1127.679, 90.82263
1128.161, 108.8538
1128.643, 100.4918
1129.125, 76.89966
1129.607, 70.15234
1130.090, 87.25586
1130.572, 105.7710
1131.054, 114.5610
1131.536, 121.7903
1132.018, 134.1583
1132.500, 143.0233
1132.982, 137.5881
1133.464, 128.8228
1133.947, 132.3646
1134.429, 144.7968
1134.911, 147.3212
1135.393, 133.1348
1135.875, 124.5538
1136.357, 129.5002
1136.839, 130.5085
1137.321, 121.6761
1137.803, 112.7172
1138.286, 110.3149
1138.768, 109.2218
1139.250, 99.96936
1139.732, 84.56787
1140.214, 84.98804
1140.696, 105.5253
1141.178, 105.0790
1141.660, 78.41541
1142.142, 60.81848
1142.625, 63.97363
1143.107, 72.28247
1143.589, 73.93359
1144.071, 72.29102
1144.553, 75.03979
1145.035, 78.47009
1145.517, 68.44446
1145.999, 50.00232
1146.482, 38.11292
1146.964, 34.38489
1147.446, 35.77747
1147.928, 40.70129
1148.410, 44.14258
1148.892, 41.63306
1149.374, 37.45715
1149.856, 35.14868
1150.339, 33.30444
1150.821, 28.48242
1151.303, 24.42957
1151.785, 30.24268
1152.267, 42.69763
1152.749, 43.85132
1153.231, 24.44739
1153.713, 13.47388
1154.195, 25.89758
1154.677, 35.89368
1155.160, 34.62024
1155.642, 29.74548
1156.124, 24.39038
1156.606, 19.82532
1157.088, 18.77844
1157.570, 20.64233
1158.052, 17.72229
1158.534, 8.468140
1159.017, 1.141968
1159.499, 4.200684
1159.981, 4.497803
1160.463, 1.979004
1160.945, 7.893433
1161.427, 8.073608
1161.909, 5.126343
1162.391, 2.250610
1162.874, 10.19617
1163.356, 2.542603
1163.838, 9.521729
1164.320, 11.21338
1164.802, 8.284424
1165.284, 0.3061520
1165.766, 3.348511
1166.248, 6.248047
1166.730, 6.195313
1167.213, 9.646606
1167.695, 2.556763
1168.177, 3.567749
1168.659, 9.701294
1169.141, 4.191162
1169.623, 2.608276
1170.105, 12.16406
1170.587, 15.57227
1171.069, 8.481567
1171.552, 13.54004
1172.034, 2.724731
1172.516, 0.9168700
1172.998, 13.14648
1173.480, 7.421509
1173.962, 14.03540
1174.444, 15.94824
1174.926, 3.504517
1175.409, 14.18494
1175.891, 15.80493
1176.373, 0.9224850
1176.855, 17.32764
1177.337, 4.711548
1177.819, 2.451904
1178.301, 7.983276
1178.783, 5.386353
1179.266, 15.59668
1179.748, 13.46521
1180.230, 10.22925
1180.712, 11.80420
1181.194, 0.2573240
1181.676, 12.97595
1182.158, 8.929199
1182.640, 13.46942
1183.122, 19.95660
1183.604, 11.53424
1184.087, 18.88904
1184.569, 1.769653
1185.051, 5.129089
1185.533, 6.282837
1186.015, 20.52710
1186.497, 3.529236
1186.979, 6.322388
1187.461, 17.54327
1187.944, 16.97382
1188.426, 21.33844
1188.908, 9.994629
1189.390, 24.07593
1189.872, 32.52576
1190.354, 35.64691
1190.836, 17.09991
1191.318, 24.45941
1191.801, 22.40417
1192.283, 20.10278
1192.765, 31.12244
1193.247, 15.68121
1193.729, 27.01654
1194.211, 27.24139
1194.693, 32.65948
1195.175, 26.15118
1195.657, 24.95288
1196.140, 34.50934
1196.622, 38.49969
1197.104, 23.38971
1197.586, 26.92438
1198.068, 25.94415
1198.550, 25.37628
1199.032, 29.46252
1199.514, 33.31470
1199.996, 33.80505
1200.479, 30.43225
1200.961, 21.17157
1201.443, 10.95630
1201.925, 5.684937
1202.407, 7.424622
1202.889, 11.28644
1203.371, 16.16791
1203.853, 23.96472
1204.336, 42.33386
1204.818, 47.98560
1205.300, 37.26288
1205.782, 24.98779
1206.264, 21.12000
1206.746, 21.05066
1207.228, 21.55750
1207.710, 22.11133
1208.193, 21.61090
1208.675, 21.13257
1209.157, 22.25989
1209.639, 24.42529
1210.121, 26.74896
1210.603, 28.40179
1211.085, 26.61212
1211.567, 20.17041
1212.049, 14.12073
1212.531, 8.938538
1213.014, 9.350891
1213.496, 24.34833
1213.978, 36.36304
1214.460, 27.57666
1214.942, 13.05139
1215.424, 14.41821
1215.906, 26.54358
1216.388, 27.71979
1216.871, 15.62360
1217.353, 6.194641
1217.835, 1.606262
1218.317, 0.1369020
1218.799, 14.52399
1219.281, 22.74475
1219.763, 16.43939
1220.245, 7.356140
1220.728, 15.01312
1221.210, 26.27625
1221.692, 18.14081
1222.174, 0.0000000E+00
##END=



