##NAMES=Barrerite
##RRUFFID=R050135
##IDEAL CHEMISTRY=Na_2_(Al_2_Si_7_)O_18_&#183;6H_2_O
##LOCALITY=Kuiu Island, Alaska, USA
##OWNER=RRUFF
##SOURCE=Ben Norton
##DESCRIPTION=Colorless laminar crystals
##STATUS=The identification of this mineral has been confirmed by X-ray diffraction and chemical analysis
##URL=rruff.info/R050135
##MEASURED CHEMISTRY=(Na_4.49_K_1.30_Ca_1.23_[box]_0.98_)_Σ=8_(Si_27.75_Al_8.25_)O_72_·19H_2_O
186.251, 0.000
187.630, 55.373
189.008, 19.609
190.387, 0.184
191.765, 55.561
193.143, 70.299
194.520, 207.436
195.898, 152.145
197.275, 323.072
198.652, 223.166
200.029, 388.230
201.405, 422.943
202.782, 424.412
204.158, 523.871
205.534, 691.260
206.909, 582.793
208.285, 518.574
209.660, 365.387
211.035, 184.898
212.410, 67.941
213.784, 27.168
215.159, 82.822
216.533, 19.926
217.907, 230.486
219.281, 193.393
220.654, 255.766
222.027, 240.580
223.400, 223.816
224.773, 198.445
226.146, 370.453
227.518, 356.818
228.891, 437.520
230.263, 439.754
231.634, 368.838
233.006, 395.410
234.377, 333.244
235.748, 310.320
237.119, 371.975
238.490, 356.377
239.860, 457.004
241.231, 405.045
242.601, 353.318
243.970, 347.824
245.340, 254.553
246.709, 598.496
248.079, 914.646
249.448, 756.994
250.816, 331.525
252.185, 762.230
253.553, 621.105
254.921, 655.141
256.289, 922.332
257.657, 803.668
259.024, 1054.145
260.391, 971.756
261.758, 1237.498
263.125, 1450.361
264.492, 1316.344
265.858, 1325.439
267.224, 1392.645
268.590, 1614.947
269.956, 1568.330
271.321, 1942.777
272.687, 2002.281
274.052, 2024.836
275.416, 2239.432
276.781, 2586.051
278.146, 2398.691
279.510, 2434.365
280.874, 2775.180
282.237, 2535.074
283.601, 2739.967
284.964, 2263.984
286.327, 2191.102
287.690, 2514.418
289.053, 2185.123
290.416, 2125.963
291.778, 2079.848
293.140, 1843.783
294.502, 1957.809
295.863, 1580.973
297.225, 1769.316
298.586, 1517.768
299.947, 1474.326
301.308, 1363.988
302.668, 1255.734
304.029, 962.557
305.389, 1165.424
306.749, 1066.330
308.108, 820.270
309.468, 1115.232
310.827, 759.217
312.186, 820.225
313.545, 831.258
314.903, 990.311
316.262, 894.387
317.620, 728.486
318.978, 862.607
320.336, 833.748
321.693, 849.910
323.051, 779.092
324.408, 993.295
325.765, 597.516
327.121, 990.754
328.478, 739.010
329.834, 780.281
331.190, 836.570
332.546, 1007.871
333.902, 709.191
335.257, 898.521
336.612, 797.863
337.967, 907.223
339.322, 822.590
340.677, 775.969
342.031, 845.359
343.385, 683.758
344.739, 899.168
346.093, 772.586
347.446, 706.012
348.799, 826.480
350.153, 962.018
351.505, 767.328
352.858, 902.383
354.210, 791.059
355.563, 926.965
356.915, 1002.746
358.267, 1035.420
359.618, 1176.008
360.969, 1321.553
362.321, 1593.078
363.672, 1481.070
365.022, 1648.678
366.373, 1994.391
367.723, 1855.203
369.073, 2240.109
370.423, 2436.213
371.773, 2790.410
373.122, 2787.592
374.471, 3250.107
375.821, 3851.590
377.169, 3906.734
378.518, 4533.031
379.866, 4513.213
381.215, 4888.326
382.563, 5673.586
383.910, 5794.748
385.258, 6163.574
386.605, 7026.176
387.952, 7575.211
389.299, 8076.523
390.646, 9063.105
391.992, 9753.223
393.339, 10734.141
394.685, 11977.955
396.031, 13160.820
397.376, 15192.719
398.722, 16129.062
400.067, 18346.596
401.412, 19824.611
402.757, 21893.486
404.101, 23996.918
405.446, 25865.922
406.790, 26735.156
408.134, 28304.342
409.478, 28829.252
410.821, 28822.850
412.165, 27925.344
413.508, 26012.061
414.851, 25018.453
416.193, 23073.613
417.536, 20759.789
418.878, 19136.514
420.220, 17615.523
421.562, 16004.234
422.904, 14722.797
424.245, 13478.551
425.586, 12421.461
426.927, 11390.730
428.268, 10684.027
429.609, 9733.967
430.949, 8857.920
432.289, 8448.879
433.629, 8119.850
434.969, 7437.828
436.309, 7197.812
437.648, 6829.811
438.987, 6851.809
440.326, 6535.818
441.665, 6133.832
443.003, 6015.854
444.342, 6490.877
445.680, 6373.906
447.018, 6610.943
448.355, 6927.982
449.693, 6968.020
451.030, 7456.057
452.367, 7754.094
453.704, 8758.129
455.041, 8796.166
456.377, 9192.195
457.713, 9308.225
459.049, 9303.246
460.385, 9006.262
461.721, 8502.273
463.056, 8019.275
464.391, 7364.275
465.726, 7445.264
467.061, 6046.250
468.395, 5184.221
469.730, 4501.184
471.064, 4307.141
472.398, 3794.086
473.731, 3838.021
475.065, 3209.947
476.398, 3438.863
477.731, 3387.766
479.064, 3641.660
480.397, 3562.543
481.729, 3830.410
483.062, 4041.270
484.394, 4330.113
485.725, 5041.947
487.057, 5753.766
488.389, 6680.572
489.720, 7842.367
491.051, 8909.145
492.382, 10612.910
493.712, 12084.662
495.043, 13137.449
496.373, 13349.168
497.703, 13056.875
499.032, 12108.566
500.362, 10708.521
501.691, 9040.182
503.020, 7411.824
504.349, 5959.447
505.678, 4943.686
507.007, 4130.682
508.335, 3243.424
509.663, 2792.178
510.991, 2150.910
512.319, 1964.213
513.646, 1426.551
514.973, 1391.150
516.300, 1108.662
517.627, 984.430
518.954, 902.434
520.280, 672.062
521.607, 677.676
522.933, 472.227
524.259, 481.764
525.584, 374.043
526.910, 215.215
528.235, 296.068
529.560, 134.441
530.885, 134.727
532.209, 73.230
533.534, 93.768
534.858, 88.365
536.182, 129.490
537.506, 22.051
538.829, 78.213
540.152, 11.883
541.476, 77.682
542.799, 150.754
544.121, 8.797
545.444, 93.570
546.766, 98.699
548.088, 239.764
549.410, 162.807
550.732, 28.896
552.053, 89.100
553.375, 137.037
554.696, 136.484
556.017, 142.340
557.337, 45.893
558.658, 5.938
559.978, 3.533
561.298, 56.402
562.618, 16.188
563.938, 87.891
565.257, 26.625
566.576, 148.877
567.895, 82.957
569.214, 2.834
570.533, 98.117
571.851, 28.965
573.170, 6.773
574.488, 198.018
575.805, 49.225
577.123, 74.758
578.440, 30.840
579.758, 88.877
581.075, 210.615
582.391, 31.186
583.708, 326.715
585.024, 212.205
586.341, 209.660
587.657, 363.445
588.972, 474.822
590.288, 510.164
591.603, 426.469
592.918, 553.754
594.233, 536.004
595.548, 677.740
596.863, 814.895
598.177, 854.541
599.491, 999.639
600.805, 1197.697
602.119, 1190.328
603.432, 1255.320
604.746, 1497.734
606.059, 1661.650
607.372, 1746.523
608.685, 1639.354
609.997, 1845.246
611.309, 2010.920
612.621, 2070.652
613.933, 2295.346
615.245, 2368.994
616.557, 2319.604
617.868, 2227.170
619.179, 2294.691
620.490, 2353.178
621.801, 1959.619
623.111, 2303.020
624.421, 1998.375
625.731, 2187.686
627.041, 1579.955
628.351, 1824.182
629.660, 1835.363
630.970, 1938.512
632.279, 1867.621
633.588, 1357.688
634.896, 1468.711
636.205, 1167.689
637.513, 1307.619
638.821, 856.508
640.129, 1043.348
641.437, 1239.145
642.744, 992.895
644.051, 811.598
645.358, 744.258
646.665, 756.875
647.972, 723.455
649.278, 551.033
650.584, 569.566
651.890, 353.053
653.196, 751.490
654.502, 550.885
655.807, 611.229
657.113, 303.527
658.418, 492.777
659.722, 543.979
661.027, 424.133
662.331, 224.426
663.636, 21.871
664.940, 337.506
666.244, 8.430
667.547, 333.268
668.851, 194.562
670.154, 183.299
671.457, 118.793
672.760, 59.979
674.062, 94.420
675.365, 79.475
676.667, 109.072
677.969, 110.014
679.271, 123.746
680.572, 128.633
681.874, 192.785
683.175, 216.057
684.476, 290.289
685.777, 163.967
687.077, 182.455
688.378, 86.752
689.678, 146.660
690.978, 398.979
692.278, 126.166
693.577, 344.166
694.877, 282.594
696.176, 3.387
697.475, 415.680
698.774, 103.859
700.072, 212.084
701.371, 271.125
702.669, 211.018
703.967, 107.104
705.265, 349.441
706.562, 466.820
707.860, 250.668
709.157, 32.869
710.454, 290.256
711.751, 45.529
713.047, 383.891
714.344, 224.027
715.640, 977.688
716.936, 67.619
718.232, 167.979
719.527, 574.408
720.823, 350.658
722.118, 276.762
723.413, 349.002
724.708, 170.637
726.002, 278.555
727.297, 546.545
728.591, 59.854
729.885, 404.193
731.179, 458.387
732.472, 299.199
733.766, 266.318
735.059, 265.055
736.352, 326.600
737.645, 485.219
738.937, 386.232
740.230, 435.467
741.522, 432.670
742.814, 267.670
744.106, 393.820
745.397, 450.363
746.689, 447.359
747.980, 105.684
749.271, 367.709
750.562, 223.113
751.853, 420.904
753.143, 232.826
754.433, 353.854
755.723, 416.498
757.013, 212.320
758.303, 560.955
759.592, 243.578
760.881, 501.027
762.170, 396.568
763.459, 437.922
764.748, 526.229
766.036, 386.160
767.325, 650.373
768.613, 382.852
769.901, 739.973
771.188, 748.152
772.476, 583.182
773.763, 698.164
775.050, 648.230
776.337, 719.012
777.624, 678.857
778.910, 664.660
780.196, 703.414
781.482, 837.617
782.768, 726.283
784.054, 715.902
785.339, 1072.459
786.625, 897.990
787.910, 734.463
789.195, 1025.965
790.479, 955.361
791.764, 888.713
793.048, 897.023
794.332, 871.289
795.616, 786.512
796.900, 889.691
798.183, 1016.018
799.467, 684.457
800.750, 760.508
802.033, 924.373
803.316, 653.277
804.598, 919.199
805.880, 425.111
807.163, 1086.893
808.445, 867.957
809.726, 614.707
811.008, 485.416
812.289, 578.803
813.570, 388.428
814.851, 443.008
816.132, 287.551
817.413, 237.422
818.693, 170.650
819.973, 427.896
821.253, 333.082
822.533, 201.221
823.813, 426.082
825.092, 124.504
826.371, 183.604
827.650, 128.740
828.929, 157.561
830.208, 274.090
831.486, 396.939
832.764, 17.246
834.042, 3.771
835.320, 6.525
836.598, 146.482
837.875, 269.488
839.152, 149.768
840.429, 152.475
841.706, 305.215
842.983, 179.852
844.259, 6.529
845.536, 151.947
846.812, 56.773
848.088, 210.805
849.363, 118.338
850.639, 140.824
851.914, 133.047
853.189, 132.041
854.464, 76.744
855.739, 113.699
857.013, 259.910
858.288, 244.652
859.562, 55.113
860.836, 204.936
862.110, 101.426
863.383, 22.238
864.656, 138.336
865.930, 100.889
867.203, 41.783
868.475, 104.998
869.748, 156.846
871.020, 12.963
872.292, 162.988
873.564, 61.791
874.836, 35.529
876.108, 5.959
877.379, 621.664
878.650, 307.006
879.922, 341.090
881.192, 69.830
882.463, 129.219
883.733, 1.059
885.004, 224.367
886.274, 76.961
887.544, 89.135
888.813, 214.281
890.083, 47.676
891.352, 1.826
892.621, 249.648
893.890, 96.104
895.159, 146.861
896.427, 174.770
897.695, 67.986
898.964, 186.361
900.232, 94.721
901.499, 152.020
902.767, 49.338
904.034, 350.092
905.301, 82.629
906.568, 99.088
907.835, 244.291
909.102, 65.520
910.368, 154.027
911.634, 144.152
912.900, 277.805
914.166, 137.906
915.432, 281.992
916.697, 187.066
917.962, 116.875
919.227, 238.117
920.492, 91.100
921.757, 236.068
923.021, 138.023
924.285, 188.967
925.550, 349.898
926.813, 16.178
928.077, 367.727
929.341, 185.621
930.604, 398.504
931.867, 333.383
933.130, 35.254
934.393, 160.111
935.655, 414.959
936.918, 73.199
938.180, 293.629
939.442, 18.553
940.703, 132.250
941.965, 318.051
943.226, 324.844
944.488, 383.133
945.749, 223.412
947.009, 280.180
948.270, 307.943
949.530, 92.701
950.791, 54.453
952.051, 212.191
953.311, 77.076
954.570, 208.369
955.830, 401.242
957.089, 124.846
958.348, 161.445
959.607, 65.727
960.866, 197.623
962.124, 223.205
963.383, 240.781
964.641, 280.691
965.899, 267.799
967.156, 210.484
968.414, 274.859
969.671, 80.029
970.928, 130.936
972.185, 118.498
973.442, 272.080
974.699, 36.152
975.955, 259.723
977.211, 305.494
978.468, 136.518
979.723, 401.332
980.979, 275.281
982.234, 184.756
983.490, 587.402
984.745, 61.062
986.000, 380.084
987.254, 483.320
988.509, 314.305
989.763, 486.836
991.017, 484.898
992.271, 412.988
993.525, 525.711
994.779, 603.859
996.032, 706.699
997.285, 630.895
998.538, 734.914
999.791, 453.586
1001.044, 973.668
1002.296, 223.105
1003.548, 730.531
1004.800, 722.090
1006.052, 623.211
1007.304, 793.703
1008.555, 572.805
1009.807, 829.965
1011.058, 828.020
1012.309, 822.090
1013.559, 797.750
1014.810, 765.840
1016.060, 577.723
1017.310, 764.520
1018.560, 943.066
1019.810, 527.898
1021.060, 783.953
1022.309, 1080.766
1023.558, 653.961
1024.807, 946.746
1026.056, 733.438
1027.305, 1071.012
1028.553, 767.445
1029.801, 1146.887
1031.049, 1132.426
1032.297, 737.387
1033.545, 899.648
1034.793, 1076.262
1036.040, 917.211
1037.287, 1024.328
1038.534, 825.520
1039.781, 978.176
1041.027, 1280.199
1042.274, 727.930
1043.520, 887.609
1044.766, 1194.887
1046.012, 985.398
1047.257, 815.113
1048.503, 811.316
1049.748, 1308.020
1050.993, 928.336
1052.238, 1152.902
1053.483, 1013.035
1054.727, 1028.727
1055.971, 950.234
1057.216, 954.582
1058.459, 924.258
1059.703, 774.793
1060.947, 837.375
1062.190, 857.141
1063.433, 923.586
1064.676, 993.445
1065.919, 996.086
1067.162, 662.215
1068.404, 1010.750
1069.646, 529.352
1070.888, 492.820
1072.130, 896.684
1073.372, 731.215
1074.613, 878.566
1075.855, 926.945
1077.096, 698.988
1078.337, 693.758
1079.578, 1196.543
1080.818, 1105.270
1082.059, 1187.898
1083.299, 850.641
1084.539, 1364.949
1085.779, 1045.121
1087.018, 1219.203
1088.258, 1230.258
1089.497, 1238.207
1090.736, 1464.730
1091.975, 1371.559
1093.213, 1463.711
1094.452, 1840.559
1095.690, 1959.430
1096.928, 1935.055
1098.166, 1572.105
1099.404, 1734.449
1100.642, 1843.934
1101.879, 1649.645
1103.116, 2157.801
1104.353, 2001.738
1105.590, 1843.965
1106.827, 1771.359
1108.063, 2201.402
1109.299, 2012.414
1110.536, 2272.980
1111.771, 2156.527
1113.007, 2021.238
1114.243, 2512.695
1115.478, 2463.105
1116.713, 2452.184
1117.948, 2524.266
1119.183, 2573.590
1120.418, 2319.367
1121.652, 2735.879
1122.886, 2989.758
1124.120, 3088.105
1125.354, 2575.348
1126.588, 2854.039
1127.821, 2889.090
1129.055, 2649.188
1130.288, 3003.324
1131.521, 3071.488
1132.753, 3001.617
1133.986, 2591.816
1135.218, 2741.750
1136.450, 2747.082
1137.682, 2704.598
1138.914, 3011.910
1140.146, 2992.746
1141.377, 2992.184
1142.609, 3043.578
1143.840, 2980.191
1145.071, 3166.484
1146.301, 3198.234
1147.532, 3097.449
1148.762, 3084.293
1149.992, 3035.770
1151.222, 3152.680
1152.452, 3263.090
1153.682, 3311.367
1154.911, 2854.258
1156.140, 3283.898
1157.369, 3132.316
1158.598, 2992.633
1159.827, 3211.445
1161.055, 3026.535
1162.284, 2893.684
1163.512, 2796.105
1164.740, 2683.922
1165.967, 2904.602
1167.195, 2205.953
1168.422, 2654.664
1169.650, 2252.824
1170.877, 2280.582
1172.103, 2136.590
1173.330, 2168.723
1174.557, 1959.770
1175.783, 1698.121
1177.009, 1925.016
1178.235, 1137.148
1179.461, 1556.082
1180.686, 1138.980
1181.912, 1049.723
1183.137, 1359.051
1184.362, 1248.090
1185.587, 1082.285
1186.811, 1120.277
1188.036, 1173.953
1189.260, 953.992
1190.484, 870.945
1191.708, 836.641
1192.932, 1027.957
1194.155, 425.246
1195.378, 628.141
1196.602, 509.742
1197.825, 800.559
1199.047, 499.117
1200.270, 647.113
1201.492, 519.074
1202.715, 767.367
1203.937, 668.141
1205.159, 632.293
1206.380, 455.488
1207.602, 538.977
1208.823, 185.191
1210.044, 291.574
1211.265, 398.180
1212.486, 362.625
1213.707, 598.203
1214.927, 348.914
1216.147, 523.281
1217.367, 209.664
1218.587, 429.523
1219.807, 243.988
1221.027, 311.184
1222.246, 303.086
1223.465, 139.824
1224.684, 208.848
1225.903, 443.270
1227.121, 217.715
1228.340, 52.828
1229.558, 333.695
1230.776, 313.566
1231.994, 345.207
1233.212, 66.918
1234.429, 371.004
1235.646, 157.152
1236.864, 62.523
1238.081, 180.824
1239.297, 114.031
1240.514, 410.152
1241.730, 403.168
1242.947, 277.262
1244.163, 301.898
1245.378, 68.602
1246.594, 405.477
1247.810, 430.020
1249.025, 24.484
1250.240, 385.207
1251.455, 299.527
1252.670, 247.590
1253.885, 337.520
1255.099, 275.348
1256.313, 205.016
1257.527, 205.074
1258.741, 400.992
1259.955, 218.289
1261.168, 76.340
1262.382, 299.262
1263.595, 294.074
1264.808, 426.621
1266.021, 238.016
1267.233, 201.270
1268.446, 168.660
1269.658, 421.566
1270.870, 6.586
1272.082, 238.969
1273.294, 50.375
1274.505, 91.660
1275.716, 64.836
1276.928, 208.168
1278.139, 83.066
1279.349, 376.812
1280.560, 99.715
1281.770, 296.250
1282.981, 47.996
1284.191, 66.719
1285.401, 242.414
1286.610, 142.438
1287.820, 144.332
1289.029, 282.109
1290.239, 155.914
1291.448, 233.305
1292.656, 159.746
1293.865, 30.023
1295.073, 283.172
1296.282, 4.195
1297.490, 258.938
1298.698, 81.281
1299.906, 397.203
1301.113, 71.441
1302.320, 43.746
1303.528, 114.797
1304.735, 59.289
1305.942, 0.531
1307.148, 120.078
1308.355, 201.566
1309.561, 125.074
1310.767, 343.117
1311.973, 34.199
1313.179, 142.148
1314.384, 149.020
1315.590, 79.531
1316.795, 40.141
1318.000, 33.512
1319.205, 85.770
1320.410, 144.898
1321.614, 88.918
1322.819, 297.188
1324.023, 171.504
1325.227, 103.922
1326.431, 178.508
1327.634, 46.828
1328.838, 139.965
1330.041, 15.910
1331.244, 124.027
1332.447, 330.859
1333.650, 47.602
1334.852, 63.762
1336.055, 275.754
1337.257, 23.816
1338.459, 157.578
1339.661, 3.246
1340.862, 109.914
1342.064, 398.008
1343.265, 209.055
1344.466, 148.047
1345.667, 310.000
1346.868, 48.324
1348.068, 466.254
1349.269, 314.832
1350.469, 19.406
1351.669, 361.684
1352.869, 419.922
1354.069, 369.699
1355.268, 591.273
1356.468, 335.797
1357.667, 532.781
1358.866, 490.078
1360.065, 162.133
1361.263, 596.020
1362.462, 425.676
1363.660, 497.793
1364.858, 719.461
1366.056, 367.301
1367.254, 392.484
1368.451, 635.273
1369.649, 441.027
1370.846, 424.188
1372.043, 487.316
1373.240, 530.652
1374.436, 517.762
1375.633, 557.355
1376.829, 486.469
1378.025, 456.652
1379.221, 387.918
1380.417, 613.516
1381.613, 670.695
1382.808, 744.855
1384.003, 653.785
1385.199, 664.160
1386.393, 511.133
1387.588, 361.664
1388.783, 784.121
1389.977, 472.191
1391.171, 613.309
1392.365, 684.074
1393.559, 447.555
1394.753, 841.152
1395.946, 610.711
1397.140, 690.691
1398.333, 612.215
1399.526, 601.602
1400.719, 562.180
1401.911, 610.500
1403.104, 627.355
1404.296, 453.871
1405.488, 459.148
1406.680, 646.215
1407.872, 502.918
1409.063, 337.496
1410.255, 634.141
1411.446, 219.336
1412.637, 580.449
1413.828, 257.777
1415.018, 363.012
1416.209, 341.648
1417.399, 596.371
1418.589, 175.902
1419.779, 495.148
1420.969, 277.125
1422.159, 460.605
1423.348, 172.453
1424.537, 580.508
1425.726, 147.277
1426.915, 300.035
1428.104, 375.867
1429.293, 294.176
1430.481, 386.180
1431.669, 360.801
1432.857, 409.340
1434.045, 396.844
1435.233, 169.395
1436.420, 264.590
1437.608, 279.828
1438.795, 319.227
1439.982, 408.973
1441.169, 511.371
1442.355, 456.875
1443.542, 193.871
1444.728, 569.500
1445.914, 286.035
1447.100, 385.500
1448.286, 257.281
1449.472, 393.320
1450.657, 293.293
1451.842, 727.547
1453.027, 463.152
1454.212, 315.789
1455.397, 819.148
1456.581, 221.824
1457.766, 428.496
1458.950, 575.605
1460.134, 336.004
1461.318, 522.305
1462.501, 195.598
1463.685, 375.734
1464.868, 536.176
1466.051, 99.828
1467.234, 861.812
1468.417, 367.211
1469.600, 237.004
1470.782, 286.234
1471.965, 660.875
1473.147, 125.871
1474.329, 668.230
1475.510, 520.062
1476.692, 204.422
1477.873, 164.418
1479.055, 331.180
1480.236, 7.180
1481.416, 773.438
1482.597, 200.176
1483.778, 440.277
1484.958, 175.078
1486.138, 208.312
1487.318, 74.465
1488.498, 2.074
1489.678, 110.168
1490.857, 0.000
##END=



