##NAMES=Baryte
##RRUFFID=R040036
##IDEAL CHEMISTRY=BaSO_4_
##LOCALITY=Cumbria County, England
##OWNER=RRUFF
##SOURCE=University of Arizona Mineral Museum
##DESCRIPTION=Golden brown tabular crystal
##STATUS=The identification of this mineral has been confirmed by X-ray diffraction and chemical analysis
##URL=rruff.info/R040036
##MEASURED CHEMISTRY=Ba_1.00_S_1.00_O_4_; trace amounts of Pb
118.6159, 0.0000000E+00
119.0980, 6.1707001E-02
119.5801, 0.7299800
120.0622, 2.607788
120.5444, 5.332458
121.0265, 4.629517
121.5086, 1.638916
121.9907, 0.5020750
122.4728, 0.2460940
122.9549, 1.555664
123.4371, 2.697815
123.9192, 2.247131
124.4013, 1.387512
124.8834, 1.263428
125.3655, 1.860046
125.8476, 3.220764
126.3298, 6.156677
126.8119, 10.92419
127.2940, 13.91254
127.7761, 12.40131
128.2582, 9.686584
128.7404, 7.360474
129.2225, 5.839417
129.7046, 5.113464
130.1867, 5.257996
130.6688, 6.777893
131.1509, 8.283386
131.6331, 9.841187
132.1152, 11.18976
132.5973, 11.87891
133.0794, 11.66284
133.5615, 10.96722
134.0436, 11.59180
134.5258, 15.38629
135.0079, 18.58160
135.4900, 20.73145
135.9721, 21.94189
136.4542, 22.31354
136.9363, 21.75958
137.4184, 20.41333
137.9006, 20.35608
138.3827, 22.26202
138.8648, 24.51752
139.3469, 26.32361
139.8290, 27.72461
140.3111, 29.25830
140.7933, 31.20074
141.2754, 33.68481
141.7575, 37.03888
142.2396, 42.35181
142.7217, 48.02661
143.2038, 52.00647
143.6860, 53.81775
144.1681, 55.55591
144.6502, 59.10406
145.1323, 63.88885
145.6144, 68.88165
146.0965, 73.83313
146.5787, 78.67029
147.0608, 83.06940
147.5429, 86.29089
148.0250, 90.12695
148.5071, 96.13959
148.9892, 103.6201
149.4714, 110.6339
149.9535, 115.7950
150.4356, 119.0623
150.9177, 121.0125
151.3998, 122.5238
151.8819, 121.7785
152.3641, 117.0069
152.8462, 108.7082
153.3283, 99.26172
153.8104, 91.31476
154.2925, 85.51868
154.7746, 79.59674
155.2568, 73.35907
155.7389, 67.14087
156.2210, 61.18762
156.7031, 55.54883
157.1852, 50.06128
157.6673, 44.44073
158.1495, 38.11420
158.6316, 32.80579
159.1137, 28.76428
159.5958, 25.57263
160.0779, 22.76855
160.5600, 20.17297
161.0422, 18.03772
161.5243, 17.08832
162.0064, 17.90485
162.4885, 18.35248
162.9706, 17.53479
163.4527, 16.08453
163.9349, 15.21228
164.4170, 15.39752
164.8991, 16.42401
165.3812, 18.07233
165.8633, 20.90497
166.3454, 23.25482
166.8276, 22.94098
167.3097, 19.78180
167.7918, 17.31500
168.2739, 17.22076
168.7560, 18.23785
169.2381, 18.73297
169.7203, 18.38641
170.2024, 18.08514
170.6845, 19.02863
171.1666, 21.52966
171.6487, 23.40741
172.1308, 23.47467
172.6130, 22.90393
173.0951, 22.12756
173.5772, 21.41437
174.0593, 21.09576
174.5414, 22.04041
175.0235, 25.32306
175.5057, 27.43951
175.9878, 26.46625
176.4699, 24.67542
176.9520, 24.49554
177.4341, 27.10602
177.9162, 31.37061
178.3984, 33.72333
178.8805, 31.80438
179.3626, 30.90259
179.8447, 32.17267
180.3268, 34.66357
180.8089, 37.04974
181.2911, 38.55286
181.7732, 39.46088
182.2553, 41.46051
182.7374, 44.95825
183.2195, 49.10651
183.7016, 54.43506
184.1838, 60.28705
184.6659, 65.36993
185.1480, 68.74219
185.6301, 70.73163
186.1122, 74.52075
186.5943, 82.90131
187.0765, 89.85339
187.5586, 93.21960
188.0407, 93.23572
188.5228, 90.81018
189.0049, 86.08209
189.4870, 79.28235
189.9692, 72.66040
190.4513, 66.45349
190.9334, 60.21692
191.4155, 53.17535
191.8976, 45.46356
192.3797, 38.73694
192.8619, 34.62585
193.3440, 32.37183
193.8261, 29.63574
194.3082, 25.54376
194.7903, 21.31586
195.2724, 18.34454
195.7546, 16.77869
196.2367, 15.58710
196.7188, 14.36548
197.2009, 13.11755
197.6830, 11.80933
198.1651, 10.27386
198.6473, 8.783203
199.1294, 7.822266
199.6115, 7.510437
200.0936, 7.468445
200.5757, 7.892761
201.0578, 8.361694
201.5400, 8.298523
202.0221, 7.350220
202.5042, 5.749573
202.9863, 4.084900
203.4684, 2.052856
203.9505, 0.5159300
204.4327, 0.3746340
204.9148, 0.6765750
205.3969, 0.3551030
205.8790, 0.7764890
206.3611, 2.421265
206.8432, 3.015137
207.3254, 0.9921260
207.8075, 0.2261960
208.2896, 0.5480350
208.7717, 2.502380
209.2538, 4.541626
209.7359, 6.034058
210.2181, 6.955994
210.7002, 7.009338
211.1823, 5.356323
211.6644, 3.647034
212.1465, 2.169922
212.6286, 0.8580930
213.1108, 0.5773930
213.5929, 2.408875
214.0750, 4.476074
214.5571, 5.001099
215.0392, 3.214844
215.5213, 1.291382
216.0035, 0.7264400
216.4856, 2.533508
216.9677, 3.739014
217.4498, 3.729492
217.9319, 2.248535
218.4140, 1.179993
218.8961, 0.5014650
219.3783, 0.2908940
219.8604, 0.7998660
220.3425, 1.847656
220.8246, 2.970825
221.3067, 3.960754
221.7888, 4.740295
222.2710, 4.978821
222.7531, 4.159729
223.2352, 3.356628
223.7173, 3.422485
224.1994, 4.116699
224.6815, 4.136414
225.1637, 2.127197
225.6458, 1.050476
226.1279, 2.080078
226.6100, 0.7406620
227.0921, 3.973877
227.5742, 5.448120
228.0564, 5.255920
228.5385, 4.294983
229.0206, 2.361816
229.5027, 0.2902220
229.9848, 0.1391600
230.4669, 1.961914
230.9491, 4.599792
231.4312, 6.259644
231.9133, 6.952515
232.3954, 7.004639
232.8775, 5.971985
233.3596, 4.644226
233.8418, 4.180420
234.3239, 5.094116
234.8060, 6.140625
235.2881, 5.622437
235.7702, 3.331482
236.2523, 2.122620
236.7345, 4.432922
237.2166, 7.403320
237.6987, 8.362732
238.1808, 6.527893
238.6629, 4.135620
239.1451, 4.150085
239.6272, 7.105103
240.1093, 9.605896
240.5914, 11.07440
241.0735, 11.43335
241.5556, 9.960938
242.0378, 6.430664
242.5199, 2.679993
243.0020, 1.288025
243.4841, 2.965698
243.9662, 4.420532
244.4483, 4.338989
244.9305, 4.317627
245.4126, 5.687927
245.8947, 8.627991
246.3768, 11.83099
246.8589, 13.45758
247.3410, 13.09985
247.8232, 12.37634
248.3053, 11.36578
248.7874, 10.12061
249.2695, 8.294739
249.7516, 5.993652
250.2337, 4.068146
250.7159, 4.037354
251.1980, 7.327637
251.6801, 8.574677
252.1622, 5.631470
252.6443, 2.463928
253.1264, 1.417725
253.6086, 2.714600
254.0907, 5.022583
254.5728, 6.856903
255.0549, 8.409668
255.5370, 8.810272
256.0191, 6.777710
256.5013, 4.829987
256.9834, 4.630096
257.4655, 6.104065
257.9476, 7.867340
258.4297, 8.369659
258.9118, 7.217560
259.3940, 6.369904
259.8761, 6.018188
260.3582, 5.731750
260.8403, 5.180084
261.3224, 4.456055
261.8045, 3.888824
262.2867, 3.727173
262.7688, 3.990692
263.2509, 4.885010
263.7330, 6.750153
264.2151, 8.766846
264.6972, 11.18301
265.1794, 13.56631
265.6615, 14.69641
266.1436, 13.37299
266.6257, 9.431000
267.1078, 6.747223
267.5899, 5.793335
268.0721, 5.300018
268.5542, 4.849457
269.0363, 4.414429
269.5184, 4.121735
270.0005, 4.140350
270.4826, 4.399200
270.9648, 3.841339
271.4469, 0.8288880
271.9290, 1.340851
272.4111, 0.1299740
272.8932, 3.224487
273.3753, 5.059479
273.8575, 2.763824
274.3396, 2.507660
274.8217, 4.354340
275.3038, 0.1122740
275.7859, 3.706299
276.2680, 4.637665
276.7502, 3.718445
277.2323, 3.198883
277.7144, 4.210388
278.1965, 6.103699
278.6786, 6.867035
279.1607, 6.053040
279.6429, 5.233307
280.1250, 5.026611
280.6071, 5.080627
281.0892, 4.544586
281.5713, 2.929504
282.0534, 1.147949
282.5356, 1.341125
283.0177, 4.167694
283.4998, 6.190399
283.9819, 6.073181
284.4640, 5.014404
284.9461, 4.380859
285.4283, 4.686859
285.9104, 5.155609
286.3925, 4.448486
286.8746, 2.412811
287.3567, 0.9884340
287.8388, 0.7169800
288.3210, 1.226349
288.8031, 2.151764
289.2852, 3.496796
289.7673, 4.750641
290.2494, 5.421478
290.7315, 5.526154
291.2137, 5.049744
291.6958, 3.693909
292.1779, 1.903412
292.6600, 0.1106570
293.1421, 2.345886
293.6242, 3.790161
294.1064, 3.264893
294.5885, 1.082520
295.0706, 0.8596190
295.5527, 2.385895
296.0348, 3.602112
296.5169, 4.675934
296.9991, 5.594391
297.4812, 5.984680
297.9633, 5.188446
298.4454, 3.754333
298.9275, 3.492584
299.4096, 5.528015
299.8918, 7.558197
300.3739, 7.878571
300.8560, 6.651367
301.3381, 5.029572
301.8202, 3.052155
302.3023, 1.364929
302.7845, 1.170441
303.2666, 3.049194
303.7487, 5.003784
304.2308, 5.783752
304.7129, 5.685608
305.1950, 5.784912
305.6772, 6.506866
306.1593, 7.459656
306.6414, 8.064911
307.1235, 8.306732
307.6056, 8.511658
308.0877, 9.278168
308.5699, 10.10321
309.0520, 9.621185
309.5341, 7.016602
310.0162, 4.032562
310.4983, 2.645172
310.9804, 2.628998
311.4626, 3.268616
311.9447, 5.044647
312.4268, 7.049133
312.9089, 7.742767
313.3910, 6.789337
313.8731, 5.462189
314.3553, 4.637726
314.8374, 4.266418
315.3195, 4.267883
315.8016, 4.997986
316.2837, 5.876953
316.7658, 6.395233
317.2480, 6.547546
317.7301, 6.084167
318.2122, 4.133301
318.6943, 1.664459
319.1764, 1.280212
319.6585, 4.565735
320.1407, 8.393646
320.6228, 10.73480
321.1049, 11.63974
321.5870, 11.36499
322.0691, 9.463898
322.5512, 6.717316
323.0334, 4.801575
323.5155, 3.804871
323.9976, 3.332916
324.4797, 3.207489
324.9618, 3.453674
325.4439, 4.355957
325.9261, 6.399780
326.4082, 8.345428
326.8903, 8.188995
327.3724, 5.949402
327.8545, 4.190979
328.3366, 4.326447
328.8188, 5.393555
329.3009, 5.544647
329.7830, 4.240112
330.2651, 3.130707
330.7472, 3.997742
331.2293, 6.269104
331.7115, 7.721161
332.1936, 7.512238
332.6757, 6.439911
333.1578, 5.269135
333.6399, 3.682434
334.1220, 2.480164
334.6042, 2.324432
335.0863, 3.112885
335.5684, 4.033478
336.0505, 5.223206
336.5326, 5.863678
337.0147, 5.099731
337.4969, 3.368073
337.9790, 2.738892
338.4611, 4.465424
338.9432, 7.362793
339.4253, 9.007050
339.9074, 9.424988
340.3896, 8.912720
340.8717, 6.416870
341.3538, 3.051239
341.8359, 1.552490
342.3180, 2.958191
342.8001, 5.354034
343.2822, 5.685028
343.7643, 3.640930
344.2465, 2.970612
344.7286, 6.118561
345.2107, 10.06818
345.6928, 11.15176
346.1749, 8.907867
346.6570, 6.020660
347.1392, 4.949829
347.6213, 5.756592
348.1034, 5.681976
348.5855, 3.242035
349.0676, 1.160095
349.5497, 1.866974
350.0319, 4.790161
350.5140, 6.957794
350.9961, 6.370331
351.4782, 3.751831
351.9603, 2.477631
352.4424, 3.807526
352.9246, 4.914185
353.4067, 4.638641
353.8888, 3.495758
354.3709, 2.273956
354.8530, 1.210449
355.3351, 0.5946660
355.8173, 1.098022
356.2994, 3.380981
356.7815, 5.256226
357.2636, 6.845673
357.7457, 7.779388
358.2278, 7.222900
358.7100, 5.196136
359.1921, 3.234985
359.6742, 3.174469
360.1563, 5.510193
360.6384, 6.571289
361.1205, 5.358093
361.6027, 3.951874
362.0848, 3.428741
362.5669, 3.713104
363.0490, 4.334717
363.5311, 5.059479
364.0132, 5.792023
364.4954, 5.697266
364.9775, 4.315552
365.4596, 2.710785
365.9417, 0.4362490
366.4238, 1.744354
366.9059, 2.767975
367.3881, 2.208862
367.8702, 0.5391540
368.3523, 1.300507
368.8344, 3.594757
369.3165, 5.604706
369.7986, 7.986298
370.2808, 9.665222
370.7629, 9.429291
371.2450, 7.374878
371.7271, 4.877716
372.2092, 3.353973
372.6913, 2.820587
373.1735, 3.149750
373.6556, 6.444061
374.1377, 8.457581
374.6198, 6.307678
375.1019, 1.718170
375.5840, 1.566223
376.0662, 1.019196
376.5483, 2.453827
377.0304, 4.694061
377.5125, 5.542847
377.9946, 5.276093
378.4767, 2.493652
378.9589, 0.5789180
379.4410, 1.315796
379.9231, 1.059540
380.4052, 4.452972
380.8873, 5.425018
381.3694, 2.972168
381.8516, 1.374573
382.3337, 1.536621
382.8158, 2.141235
383.2979, 2.805542
383.7800, 3.360992
384.2621, 3.541351
384.7443, 3.025848
385.2264, 1.873932
385.7085, 0.7744750
386.1906, 0.3433840
386.6727, 1.286102
387.1548, 2.267609
387.6370, 2.986816
388.1191, 2.812714
388.6012, 1.177734
389.0833, 0.8629460
389.5654, 1.093140
390.0475, 1.050171
390.5297, 2.400024
391.0118, 0.5428770
391.4939, 1.655548
391.9760, 1.404633
392.4581, 1.723724
392.9402, 4.596252
393.4224, 4.015015
393.9045, 0.6548460
394.3866, 1.184784
394.8687, 0.2579350
395.3508, 1.219818
395.8329, 1.321808
396.3151, 0.4468380
396.7972, 9.7655997E-02
397.2793, 0.7700500
397.7614, 1.974121
398.2435, 1.785309
398.7256, 8.9690998E-02
399.2078, 1.622528
399.6899, 2.531525
400.1720, 2.884155
400.6541, 3.116669
401.1362, 3.104919
401.6183, 3.241486
402.1005, 4.100616
402.5826, 5.314270
403.0647, 5.668365
403.5468, 4.556854
404.0289, 3.116425
404.5110, 3.174500
404.9932, 4.859833
405.4753, 6.128448
405.9574, 6.660767
406.4395, 6.579987
406.9216, 5.323120
407.4037, 3.133270
407.8859, 2.067322
408.3680, 4.064240
408.8501, 8.797882
409.3322, 11.77753
409.8143, 12.65646
410.2964, 12.50711
410.7786, 10.58676
411.2607, 8.103607
411.7428, 7.284698
412.2249, 9.090698
412.7070, 12.31223
413.1891, 14.58337
413.6713, 15.22321
414.1534, 16.15308
414.6355, 18.12805
415.1176, 19.82065
415.5997, 19.67346
416.0818, 17.99356
416.5640, 16.80994
417.0461, 18.11111
417.5282, 21.93823
418.0103, 24.75964
418.4924, 25.58905
418.9745, 26.43784
419.4567, 27.77066
419.9388, 29.37735
420.4209, 30.94592
420.9030, 32.32379
421.3851, 33.59457
421.8672, 34.85120
422.3494, 35.91235
422.8315, 37.44937
423.3136, 39.22772
423.7957, 41.70364
424.2778, 45.40021
424.7599, 50.21161
425.2421, 55.21655
425.7242, 59.57553
426.2063, 63.36188
426.6884, 67.30164
427.1705, 70.98117
427.6526, 75.56573
428.1348, 81.85522
428.6169, 89.17966
429.0990, 96.48398
429.5811, 103.1385
430.0632, 110.3311
430.5453, 119.8907
431.0275, 131.8657
431.5096, 143.7239
431.9917, 153.7858
432.4738, 164.5499
432.9559, 178.7882
433.4380, 196.3621
433.9202, 214.4737
434.4023, 231.6641
434.8844, 248.4564
435.3665, 265.3203
435.8486, 282.1889
436.3307, 300.5168
436.8129, 321.1047
437.2950, 344.1290
437.7771, 369.2284
438.2592, 394.0958
438.7413, 423.4855
439.2234, 460.0778
439.7056, 503.0712
440.1877, 550.3030
440.6698, 600.9288
441.1519, 656.0756
441.6340, 719.0264
442.1161, 792.2274
442.5983, 866.3052
443.0804, 945.5481
443.5625, 1021.839
444.0446, 1088.980
444.5267, 1147.177
445.0089, 1201.768
445.4910, 1256.333
445.9731, 1311.015
446.4552, 1367.565
446.9373, 1422.645
447.4194, 1484.474
447.9016, 1553.809
448.3837, 1630.761
448.8658, 1715.744
449.3479, 1808.409
449.8300, 1907.650
450.3121, 2013.801
450.7943, 2132.159
451.2764, 2236.394
451.7585, 2319.592
452.2406, 2394.834
452.7227, 2465.611
453.2048, 2531.918
453.6870, 2591.387
454.1691, 2639.978
454.6512, 2684.555
455.1333, 2740.752
455.6154, 2803.854
456.0975, 2892.962
456.5797, 3015.404
457.0618, 3167.089
457.5439, 3354.406
458.0260, 3576.832
458.5081, 3814.843
458.9902, 4073.978
459.4724, 4338.189
459.9545, 4561.391
460.4366, 4753.708
460.9187, 4864.196
461.4008, 4850.461
461.8829, 4723.958
462.3651, 4491.656
462.8472, 4111.750
463.3293, 3669.834
463.8114, 3194.073
464.2935, 2702.404
464.7756, 2258.000
465.2578, 1883.163
465.7399, 1568.437
466.2220, 1309.860
466.7041, 1111.031
467.1862, 943.8630
467.6683, 814.3196
468.1505, 708.9560
468.6326, 620.7224
469.1147, 546.8223
469.5968, 484.4294
470.0789, 431.8385
470.5610, 388.3219
471.0432, 349.6321
471.5253, 316.4410
472.0074, 287.2475
472.4895, 262.9535
472.9716, 242.0205
473.4537, 223.7558
473.9359, 207.7032
474.4180, 192.5872
474.9001, 176.6111
475.3822, 159.4037
475.8643, 145.1374
476.3464, 134.9134
476.8286, 126.8237
477.3107, 121.3741
477.7928, 117.3813
478.2749, 113.2400
478.7570, 108.3695
479.2391, 102.5514
479.7213, 94.53458
480.2034, 83.70911
480.6855, 76.02356
481.1676, 74.70782
481.6497, 75.05264
482.1318, 73.23932
482.6140, 69.45328
483.0961, 65.77661
483.5782, 63.45413
484.0603, 61.72845
484.5424, 59.41272
485.0245, 56.55988
485.5067, 53.55539
485.9888, 50.33246
486.4709, 47.17429
486.9530, 44.93298
487.4351, 44.19370
487.9172, 43.17145
488.3994, 40.89941
488.8815, 38.09839
489.3636, 35.74481
489.8457, 34.03116
490.3278, 32.61176
490.8099, 31.13229
491.2921, 29.60052
491.7742, 28.06653
492.2563, 26.55917
492.7384, 25.02783
493.2205, 23.54572
493.7026, 22.00781
494.1848, 20.06125
494.6669, 17.62421
495.1490, 15.37003
495.6311, 14.47467
496.1132, 15.45123
496.5953, 16.14633
497.0775, 17.30078
497.5596, 17.43967
498.0417, 14.89978
498.5238, 10.92462
499.0059, 8.252167
499.4880, 8.592987
499.9702, 10.49506
500.4523, 11.08423
500.9344, 10.18979
501.4165, 9.048401
501.8986, 7.712616
502.3807, 6.517639
502.8629, 5.763855
503.3450, 5.455597
503.8271, 5.388245
504.3092, 5.500031
504.7913, 5.782806
505.2734, 6.742462
505.7556, 8.387299
506.2377, 8.335144
506.7198, 4.113007
507.2019, 2.176849
507.6840, 3.763306
508.1661, 2.031311
508.6482, 6.813263
509.1303, 8.242798
509.6125, 7.576263
510.0946, 5.502502
510.5767, 2.556976
511.0588, 0.3395690
511.5409, 0.4759830
512.0231, 2.943939
512.5052, 4.317780
512.9873, 4.118896
513.4694, 3.344452
513.9515, 1.165222
514.4337, 1.004364
514.9158, 1.251373
515.3979, 0.8588260
515.8800, 3.587952
516.3621, 4.657593
516.8442, 3.897675
517.3264, 3.492767
517.8085, 3.151520
518.2906, 3.409607
518.7727, 5.369812
519.2548, 7.789490
519.7369, 8.532715
520.2191, 6.510040
520.7012, 3.583252
521.1833, 1.671173
521.6654, 0.6858830
522.1475, 0.1073000
522.6296, 0.9984130
523.1118, 1.387939
523.5939, 4.6082001E-02
524.0760, 2.749390
524.5581, 3.580597
525.0402, 0.2875060
525.5223, 3.158539
526.0045, 3.625031
526.4866, 1.871521
526.9687, 0.3456120
527.4508, 0.1262210
527.9329, 0.5027160
528.4150, 0.1239620
528.8972, 1.557343
529.3793, 2.729156
529.8614, 3.068909
530.3435, 3.229645
530.8256, 3.776001
531.3077, 4.448639
531.7899, 4.430817
532.2720, 3.146637
532.7541, 1.278137
533.2362, 0.6553650
533.7183, 1.664948
534.2004, 2.813049
534.6826, 4.583923
535.1647, 5.839661
535.6468, 5.653137
536.1289, 4.214722
536.6110, 2.574982
537.0931, 1.085022
537.5753, 8.1023999E-02
538.0574, 0.6526180
538.5395, 0.6418460
539.0216, 0.3157960
539.5037, 3.169495
539.9858, 6.318085
540.4680, 7.001648
540.9501, 4.968903
541.4322, 2.560333
541.9143, 0.4575500
542.3964, 2.955902
542.8785, 3.376862
543.3607, 1.977539
543.8428, 0.5617680
544.3249, 0.2815860
544.8070, 0.8399050
545.2891, 1.146027
545.7712, 1.244934
546.2534, 0.9907530
546.7355, 0.1558530
547.2176, 0.8570860
547.6997, 1.840668
548.1818, 2.720245
548.6639, 3.456879
549.1461, 4.042877
549.6282, 4.432953
550.1103, 4.399139
550.5924, 3.803375
551.0745, 3.131439
551.5566, 2.216919
552.0388, 1.475159
552.5209, 1.402618
553.0030, 2.007904
553.4851, 2.503052
553.9672, 2.102722
554.4493, 1.415070
554.9315, 1.625519
555.4136, 2.798798
555.8957, 4.168060
556.3778, 5.507355
556.8599, 6.619690
557.3420, 6.869629
557.8242, 6.007599
558.3063, 5.073303
558.7884, 4.119507
559.2705, 3.280579
559.7526, 2.629730
560.2347, 2.209320
560.7169, 2.099426
561.1990, 2.363342
561.6811, 2.971832
562.1632, 3.847382
562.6453, 5.359955
563.1274, 6.472504
563.6096, 7.381195
564.0917, 7.665070
564.5738, 6.797363
565.0559, 4.865051
565.5380, 2.605652
566.0201, 0.3413700
566.5023, 1.604431
566.9844, 1.727325
567.4665, 0.3020630
567.9486, 2.029144
568.4307, 2.439697
568.9128, 2.148895
569.3950, 1.886871
569.8771, 1.612946
570.3592, 1.827789
570.8413, 3.519745
571.3234, 5.228363
571.8055, 5.207916
572.2877, 3.643524
572.7698, 1.996094
573.2519, 1.092010
573.7340, 0.6428830
574.2161, 2.4840999E-02
574.6982, 1.539124
575.1804, 2.144531
575.6625, 1.599060
576.1446, 0.4200740
576.6267, 1.549744
577.1088, 3.878998
577.5909, 5.717896
578.0731, 6.570496
578.5552, 6.582306
579.0373, 6.027069
579.5194, 4.876282
580.0015, 3.206635
580.4836, 0.2942200
580.9658, 2.896637
581.4479, 2.052216
581.9300, 1.528992
582.4121, 4.918518
582.8942, 7.525879
583.3763, 8.949646
583.8585, 8.414520
584.3406, 6.626221
584.8227, 5.862396
585.3048, 6.962128
585.7869, 8.638580
586.2690, 9.115662
586.7512, 7.973145
587.2333, 7.667572
587.7154, 8.575256
588.1975, 9.847961
588.6796, 11.55130
589.1617, 13.25598
589.6438, 14.16736
590.1259, 14.03281
590.6080, 13.72311
591.0901, 14.63498
591.5723, 16.95285
592.0544, 18.64731
592.5365, 19.34592
593.0186, 19.89749
593.5007, 20.18304
593.9828, 20.73785
594.4650, 22.52362
594.9471, 25.98904
595.4292, 29.77686
595.9113, 32.82095
596.3934, 35.44040
596.8755, 38.22437
597.3577, 41.18863
597.8398, 44.50620
598.3219, 48.16724
598.8040, 52.29355
599.2861, 57.82745
599.7682, 66.61279
600.2504, 73.92874
600.7325, 78.73792
601.2146, 82.32944
601.6967, 85.58978
602.1788, 88.67206
602.6609, 91.46686
603.1431, 93.78970
603.6252, 95.94501
604.1073, 99.15579
604.5894, 103.5300
605.0715, 108.8117
605.5536, 114.7624
606.0358, 121.7617
606.5179, 130.7625
607.0000, 141.4749
607.4821, 151.6373
607.9642, 158.3763
608.4464, 165.1180
608.9285, 176.2865
609.4106, 191.4441
609.8927, 207.2760
610.3748, 222.2194
610.8569, 238.2690
611.3391, 258.4606
611.8212, 283.2953
612.3033, 310.9981
612.7854, 343.4665
613.2675, 376.6237
613.7496, 409.7969
614.2318, 442.2282
614.7139, 474.4765
615.1960, 506.5177
615.6781, 533.3688
616.1602, 549.3196
616.6423, 554.4287
617.1245, 546.5544
617.6066, 521.7524
618.0887, 490.6687
618.5708, 454.4305
619.0529, 416.5255
619.5350, 381.0268
620.0172, 347.8836
620.4993, 319.4084
620.9814, 296.7608
621.4635, 279.5150
621.9456, 267.5168
622.4277, 260.5300
622.9099, 256.8776
623.3920, 255.6045
623.8741, 256.5948
624.3562, 259.6008
624.8383, 264.9665
625.3204, 272.4955
625.8026, 282.4338
626.2847, 294.1125
626.7668, 308.1206
627.2489, 323.5259
627.7310, 338.4585
628.2131, 352.4789
628.6953, 363.8794
629.1774, 370.1318
629.6595, 371.2049
630.1416, 366.6029
630.6237, 356.0014
631.1058, 340.0766
631.5880, 317.2310
632.0701, 289.1232
632.5522, 260.5214
633.0343, 230.4692
633.5164, 202.2895
633.9985, 176.8281
634.4807, 154.5276
634.9628, 136.3354
635.4449, 122.2297
635.9270, 110.5624
636.4091, 99.93591
636.8912, 90.36533
637.3734, 82.70392
637.8555, 77.39078
638.3376, 73.30161
638.8197, 70.85059
639.3018, 69.03064
639.7839, 67.17514
640.2661, 65.10315
640.7482, 63.18948
641.2303, 61.33582
641.7124, 59.99673
642.1945, 60.52979
642.6766, 62.69867
643.1588, 63.51279
643.6409, 61.33786
644.1230, 58.56152
644.6051, 58.76968
645.0872, 62.55734
645.5693, 63.97519
646.0515, 61.23047
646.5336, 58.14447
647.0157, 56.02731
647.4978, 54.56546
647.9799, 54.04535
648.4620, 54.13046
648.9442, 52.38104
649.4263, 45.29126
649.9084, 33.69223
650.3905, 26.14224
650.8726, 23.85159
651.3547, 22.33704
651.8369, 20.49152
652.3190, 18.34842
652.8011, 15.69431
653.2832, 12.50815
653.7653, 10.03717
654.2474, 9.058472
654.7296, 8.740112
655.2117, 8.793457
655.6938, 8.860992
656.1759, 7.667206
656.6580, 4.580475
657.1401, 1.241882
657.6223, 0.2001040
658.1044, 1.915131
658.5865, 3.184998
659.0686, 3.606110
659.5507, 4.014465
660.0328, 4.909882
660.5150, 5.741852
660.9971, 5.878845
661.4792, 5.189636
661.9613, 3.979858
662.4434, 1.668518
662.9255, 0.7814330
663.4077, 0.6401370
663.8898, 2.161499
664.3719, 4.605316
664.8540, 5.367737
665.3361, 4.993622
665.8182, 4.329437
666.3004, 3.227783
666.7825, 2.371399
667.2646, 1.679535
667.7467, 1.327118
668.2288, 1.830872
668.7109, 2.595673
669.1931, 2.603638
669.6752, 1.546204
670.1573, 0.1639100
670.6394, 0.7215880
671.1215, 1.128510
671.6036, 1.299225
672.0858, 1.207031
672.5679, 0.8627010
673.0500, 0.2469480
673.5321, 0.4449770
674.0142, 0.7219240
674.4963, 0.4667660
674.9785, 0.6679690
675.4606, 2.221497
675.9427, 3.780853
676.4248, 4.239166
676.9069, 3.864563
677.3890, 3.449280
677.8712, 3.311920
678.3533, 3.343048
678.8354, 2.795135
679.3175, 1.659271
679.7996, 0.9988710
680.2817, 0.5705870
680.7639, 1.025024
681.2460, 4.164429
681.7281, 7.367920
682.2102, 7.163940
682.6923, 3.056854
683.1744, 0.5127870
683.6566, 0.8510130
684.1387, 0.3235780
684.6208, 1.174133
685.1029, 1.711334
685.5850, 2.225861
686.0671, 2.843933
686.5493, 3.421265
687.0314, 3.711273
687.5135, 3.631561
687.9956, 3.716187
688.4777, 4.411957
688.9598, 4.745636
689.4420, 4.006287
689.9241, 3.028320
690.4062, 2.813934
690.8883, 3.543579
691.3704, 4.451691
691.8525, 5.103912
692.3347, 5.503998
692.8168, 5.533661
693.2989, 5.214966
693.7810, 5.014374
694.2631, 5.233459
694.7452, 5.247498
695.2274, 3.966705
695.7095, 0.9453740
696.1916, 0.5808410
696.6737, 0.7568970
697.1558, 1.822632
697.6379, 1.089203
698.1201, 0.1327820
698.6022, 7.5409003E-02
699.0843, 1.814941
699.5664, 3.022430
700.0485, 1.218597
700.5306, 2.003723
701.0128, 1.756561
701.4949, 2.118561
701.9770, 4.510864
702.4591, 3.346375
702.9412, 1.008453
703.4233, 0.2987980
703.9055, 1.327240
704.3876, 1.877228
704.8697, 1.451630
705.3518, 1.105347
705.8339, 1.069458
706.3160, 1.379395
706.7982, 2.250275
707.2803, 3.573578
707.7624, 4.794556
708.2445, 5.519073
708.7266, 5.767517
709.2087, 5.366638
709.6909, 4.203735
710.1730, 3.758392
710.6551, 4.864380
711.1372, 5.965088
711.6193, 5.430176
712.1014, 3.533569
712.5836, 1.889587
713.0657, 0.3120420
713.5478, 0.6508480
714.0299, 0.4254460
714.5120, 0.2578130
714.9941, 0.6020200
715.4763, 0.5787350
715.9584, 0.6499330
716.4405, 1.115448
716.9226, 1.835846
717.4047, 2.585114
717.8868, 3.414459
718.3690, 3.706085
718.8511, 2.975220
719.3332, 2.365326
719.8153, 2.807220
720.2974, 3.992371
720.7795, 5.197083
721.2617, 6.695831
721.7438, 7.727295
722.2259, 8.049438
722.7080, 7.701538
723.1901, 6.172577
723.6722, 3.972443
724.1544, 2.658142
724.6365, 3.077850
725.1186, 4.171021
725.6007, 3.979095
726.0828, 2.381989
726.5649, 1.248688
727.0471, 0.5859680
727.5292, 0.5617980
728.0113, 2.093048
728.4934, 3.913147
728.9755, 3.693939
729.4576, 0.6873470
729.9398, 0.8943180
730.4219, 1.995850
730.9040, 5.155304
731.3861, 4.752594
731.8682, 2.050293
732.3503, 7.8002997E-02
732.8325, 0.5488590
733.3146, 0.3844600
733.7967, 3.184662
734.2788, 7.536133
734.7609, 7.692810
735.2430, 1.667877
735.7252, 2.417847
736.2073, 0.4105530
736.6894, 3.720520
737.1715, 5.522736
737.6536, 5.076904
738.1357, 4.223053
738.6179, 3.103424
739.1000, 1.929169
739.5821, 0.5153200
740.0642, 0.7620540
740.5463, 1.580200
741.0284, 1.803467
741.5106, 0.8918760
741.9927, 2.055664
742.4748, 5.943085
742.9569, 6.787323
743.4390, 3.913910
743.9211, 2.334381
744.4033, 3.697784
744.8854, 5.504913
745.3675, 5.703613
745.8496, 4.685028
746.3317, 3.673431
746.8138, 2.787048
747.2960, 1.892731
747.7781, 0.5720830
748.2602, 0.4956360
748.7423, 0.4819030
749.2244, 0.4021610
749.7065, 1.218781
750.1887, 1.449402
750.6708, 1.840210
751.1529, 4.227661
751.6350, 8.487579
752.1171, 10.18777
752.5992, 8.358124
753.0814, 6.379669
753.5635, 6.085052
754.0456, 6.635742
754.5277, 6.515900
755.0098, 5.553864
755.4919, 4.609283
755.9741, 3.566803
756.4562, 2.790710
756.9383, 2.248138
757.4204, 2.173920
757.9025, 3.280518
758.3846, 5.417664
758.8668, 7.187683
759.3489, 6.841248
759.8310, 5.189240
760.3131, 5.262573
760.7952, 7.101929
761.2773, 8.352234
761.7595, 8.302338
762.2416, 7.499298
762.7237, 6.264923
763.2058, 4.632233
763.6879, 3.767334
764.1700, 3.835968
764.6522, 4.377930
765.1343, 6.008911
765.6164, 7.531250
766.0985, 8.010468
766.5806, 7.492859
767.0627, 6.315887
767.5449, 4.447601
768.0270, 2.780853
768.5091, 2.764893
768.9912, 3.870697
769.4733, 4.212616
769.9554, 3.570740
770.4376, 2.759338
770.9197, 2.184692
771.4018, 1.818878
771.8839, 1.746185
772.3660, 2.018280
772.8481, 2.480530
773.3303, 3.624207
773.8124, 4.498871
774.2945, 4.484924
774.7766, 3.921234
775.2587, 2.805481
775.7408, 1.223114
776.2230, 0.3835450
776.7051, 1.886597
777.1872, 3.881927
777.6693, 3.761505
778.1514, 2.230499
778.6335, 1.674835
779.1157, 2.722778
779.5978, 3.992645
780.0799, 4.035553
780.5620, 3.167572
781.0441, 3.732483
781.5262, 6.990967
782.0084, 8.654022
782.4905, 6.946960
782.9726, 4.644470
783.4547, 3.145538
783.9368, 2.384796
784.4189, 2.129425
784.9011, 2.331970
785.3832, 3.033752
785.8653, 5.027740
786.3474, 6.985260
786.8295, 7.148804
787.3116, 5.971008
787.7938, 5.145966
788.2759, 5.564331
788.7580, 6.396881
789.2401, 6.471527
789.7222, 5.842651
790.2043, 5.827606
790.6865, 6.682404
791.1686, 7.066498
791.6507, 6.095551
792.1328, 4.758575
792.6149, 4.363861
793.0970, 4.912354
793.5792, 5.208740
794.0613, 5.338806
794.5434, 5.586548
795.0255, 6.321045
795.5076, 7.040039
795.9897, 6.995117
796.4719, 6.283295
796.9540, 5.826813
797.4361, 6.244415
797.9182, 6.863525
798.4003, 6.909119
798.8824, 6.454773
799.3646, 5.459351
799.8467, 3.886139
800.3288, 2.984497
800.8109, 3.627625
801.2930, 5.126526
801.7751, 6.239685
802.2573, 7.388977
802.7394, 7.416168
803.2215, 5.013702
803.7036, 3.075348
804.1857, 2.066467
804.6678, 2.017517
805.1500, 3.446045
805.6321, 6.222748
806.1142, 8.359528
806.5963, 9.087769
807.0784, 8.862366
807.5605, 7.286072
808.0427, 5.269043
808.5248, 4.736542
809.0069, 5.821899
809.4890, 6.868195
809.9711, 6.862213
810.4532, 6.316223
810.9354, 6.750916
811.4175, 8.399811
811.8996, 9.183289
812.3817, 8.747955
812.8638, 7.746490
813.3459, 6.100403
813.8281, 4.319916
814.3102, 3.624695
814.7923, 4.226471
815.2744, 4.740082
815.7565, 4.767914
816.2386, 4.853333
816.7208, 5.738037
817.2029, 6.694275
817.6850, 6.528931
818.1671, 5.177704
818.6492, 3.905151
819.1313, 3.565094
819.6135, 3.931335
820.0956, 5.138580
820.5777, 6.828339
821.0598, 7.157623
821.5419, 5.720978
822.0240, 3.973785
822.5062, 2.884735
822.9883, 2.461578
823.4704, 2.822296
823.9525, 4.523285
824.4346, 5.643585
824.9167, 5.988525
825.3989, 5.914093
825.8810, 5.353577
826.3631, 4.594360
826.8452, 3.898010
827.3273, 3.280365
827.8094, 3.185608
828.2916, 4.251373
828.7737, 5.430634
829.2558, 6.515228
829.7379, 6.971130
830.2200, 5.132690
830.7021, 1.320221
831.1843, 1.011169
831.6664, 1.172455
832.1485, 5.536102
832.6306, 6.716431
833.1127, 4.882721
833.5948, 3.840515
834.0770, 4.259064
834.5591, 4.691071
835.0412, 4.222351
835.5233, 3.194061
836.0054, 2.393951
836.4875, 1.724487
836.9697, 1.559326
837.4518, 2.405945
837.9339, 3.092957
838.4160, 2.851471
838.8981, 2.494690
839.3802, 3.288239
839.8624, 5.119080
840.3445, 6.068542
840.8266, 4.375122
841.3087, 2.401642
841.7908, 2.297699
842.2729, 3.193176
842.7551, 3.612366
843.2372, 3.424622
843.7193, 3.405609
844.2014, 4.074951
844.6835, 4.877716
845.1656, 4.546631
845.6478, 3.067169
846.1299, 2.628265
846.6120, 3.674133
847.0941, 4.239838
847.5762, 3.181946
848.0583, 1.597656
848.5405, 1.124420
849.0226, 1.921509
849.5047, 2.309753
849.9868, 1.787689
850.4689, 1.525330
850.9510, 2.308990
851.4332, 3.046051
851.9153, 2.471710
852.3974, 0.9696350
852.8795, 0.1114810
853.3616, 0.4534610
853.8438, 0.3997500
854.3259, 3.469910
854.8080, 7.561066
855.2901, 12.18915
855.7722, 16.32968
856.2543, 16.46152
856.7365, 11.23846
857.2186, 4.284790
857.7007, 0.3485720
858.1828, 2.721710
858.6649, 2.722076
859.1470, 0.1997680
859.6292, 1.964355
860.1113, 1.193085
860.5934, 0.1694340
861.0755, 0.6098630
861.5576, 0.2274170
862.0397, 0.5143430
862.5219, 2.725189
863.0040, 3.437164
863.4861, 0.9743040
863.9682, 1.369171
864.4503, 1.647064
864.9324, 0.8445430
865.4146, 0.7370300
865.8967, 1.648743
866.3788, 1.856537
866.8609, 0.6970520
867.3430, 3.435425
867.8251, 3.475128
868.3073, 1.972809
868.7894, 1.217255
869.2715, 1.586121
869.7536, 2.319550
870.2357, 2.992218
870.7178, 3.241180
871.2000, 1.848083
871.6821, 1.101257
872.1642, 2.453247
872.6463, 1.769287
873.1284, 0.5605770
873.6105, 0.6937870
874.0927, 1.715851
874.5748, 2.003632
875.0569, 1.426636
875.5390, 1.094543
876.0211, 1.085602
876.5032, 1.308899
876.9854, 2.218445
877.4675, 2.955841
877.9496, 2.615204
878.4317, 1.557404
878.9138, 0.9662780
879.3959, 1.343292
879.8781, 1.794464
880.3602, 1.906372
880.8423, 1.796082
881.3244, 1.331451
881.8065, 0.7443850
882.2886, 0.5076600
882.7708, 0.8139950
883.2529, 1.615204
883.7350, 3.199524
884.2171, 4.946808
884.6992, 4.978058
885.1813, 3.604675
885.6635, 3.686218
886.1456, 5.879974
886.6277, 7.383789
887.1098, 6.029694
887.5919, 3.110535
888.0740, 1.999481
888.5562, 3.180176
889.0383, 4.308350
889.5204, 6.382538
890.0025, 7.163208
890.4846, 4.267090
890.9667, 0.8264770
891.4489, 0.3620610
891.9310, 2.674316
892.4131, 4.767242
892.8952, 6.629761
893.3773, 7.652405
893.8594, 7.012573
894.3416, 6.008301
894.8237, 5.598907
895.3058, 5.745911
895.7879, 6.104309
896.2700, 6.555481
896.7521, 7.098724
897.2343, 7.983459
897.7164, 8.802155
898.1985, 9.223175
898.6806, 9.071198
899.1627, 7.423584
899.6448, 4.297974
900.1270, 1.756897
900.6091, 1.599701
901.0912, 2.978882
901.5733, 3.672333
902.0554, 3.661499
902.5375, 4.077179
903.0197, 5.068817
903.5018, 6.389893
903.9839, 8.314789
904.4660, 9.818817
904.9481, 8.910767
905.4302, 5.144073
905.9124, 3.327942
906.3945, 5.546875
906.8766, 6.710999
907.3587, 5.358978
907.8408, 3.328491
908.3229, 1.268677
908.8051, 0.3743290
909.2872, 0.4548030
909.7693, 1.919281
910.2514, 3.629669
910.7335, 2.495300
911.2156, 1.259125
911.6978, 2.500092
912.1799, 4.805969
912.6620, 5.720856
913.1441, 4.895538
913.6262, 3.797546
914.1083, 3.243622
914.5905, 3.201691
915.0726, 3.691254
915.5547, 4.572418
916.0368, 6.161652
916.5189, 8.282745
917.0010, 8.839996
917.4832, 6.478699
917.9652, 3.076080
918.4473, 1.201233
918.9294, 0.8186040
919.4116, 1.760712
919.8937, 4.334534
920.3758, 6.080261
920.8579, 6.280060
921.3400, 5.670319
921.8221, 4.395660
922.3043, 2.936035
922.7864, 2.820923
923.2685, 4.799011
923.7506, 6.258575
924.2327, 7.310059
924.7148, 7.948730
925.1970, 7.420624
925.6791, 6.669159
926.1612, 6.984711
926.6433, 8.276947
927.1254, 8.829987
927.6075, 7.934509
928.0897, 6.638428
928.5718, 5.055542
929.0539, 3.466553
929.5360, 1.924988
930.0181, 0.5216370
930.5002, 0.5550540
930.9824, 1.246429
931.4645, 1.557373
931.9466, 1.735229
932.4287, 1.425629
932.9108, 0.4887700
933.3929, 3.084656
933.8751, 4.109161
934.3572, 3.331482
934.8393, 2.168610
935.3214, 1.514130
935.8035, 1.035034
936.2856, 8.7158002E-02
936.7678, 1.241364
937.2499, 2.397491
937.7320, 3.372253
938.2141, 3.655853
938.6962, 3.057678
939.1783, 1.689484
939.6605, 0.5833740
940.1426, 3.398529
940.6247, 4.364624
941.1068, 2.671783
941.5889, 1.570892
942.0710, 1.394714
942.5532, 1.699280
943.0353, 2.339020
943.5174, 3.284210
943.9995, 4.734070
944.4816, 6.821289
944.9637, 7.855988
945.4459, 6.891327
945.9280, 6.075775
946.4101, 5.546875
946.8922, 5.635223
947.3743, 7.248077
947.8564, 9.508057
948.3386, 10.31363
948.8207, 8.890472
949.3028, 7.869720
949.7849, 8.638489
950.2670, 10.06509
950.7491, 11.96777
951.2313, 13.65805
951.7134, 13.98779
952.1955, 13.10263
952.6776, 12.28073
953.1597, 12.16959
953.6418, 12.56128
954.1240, 13.47220
954.6061, 14.60696
955.0882, 15.21783
955.5703, 15.53073
956.0524, 16.60092
956.5345, 18.72064
957.0167, 21.15097
957.4988, 23.28455
957.9809, 25.09860
958.4630, 26.35986
958.9451, 27.14874
959.4272, 28.50333
959.9094, 30.52789
960.3915, 33.22845
960.8736, 36.65167
961.3557, 40.57230
961.8378, 44.58905
962.3199, 48.74417
962.8021, 53.84235
963.2842, 60.10925
963.7663, 66.83859
964.2484, 74.46057
964.7305, 81.50864
965.2126, 86.75491
965.6948, 90.95618
966.1769, 95.67395
966.6590, 100.9866
967.1411, 106.4163
967.6232, 108.7939
968.1053, 115.5160
968.5875, 128.5339
969.0696, 146.1803
969.5517, 165.4006
970.0338, 188.1806
970.5159, 219.9616
970.9980, 259.5971
971.4802, 314.3235
971.9623, 381.2199
972.4444, 468.9839
972.9265, 591.3326
973.4086, 732.1782
973.8907, 883.6702
974.3729, 1035.057
974.8550, 1156.818
975.3371, 1233.121
975.8192, 1284.290
976.3013, 1306.965
976.7834, 1326.660
977.2656, 1365.902
977.7477, 1427.668
978.2298, 1514.021
978.7119, 1624.377
979.1940, 1754.073
979.6761, 1901.293
980.1583, 2064.735
980.6404, 2241.601
981.1225, 2433.358
981.6046, 2636.767
982.0867, 2855.194
982.5688, 3097.229
983.0510, 3367.713
983.5331, 3682.959
984.0152, 4044.589
984.4973, 4481.081
984.9794, 5066.875
985.4615, 5805.130
985.9437, 6809.297
986.4258, 8108.387
986.9079, 9416.097
987.3900, 10660.99
987.8721, 11474.63
988.3542, 11241.66
988.8364, 9993.978
989.3185, 8459.346
989.8006, 6518.800
990.2827, 4845.350
990.7648, 3557.307
991.2469, 2578.633
991.7291, 1893.480
992.2112, 1441.308
992.6933, 1101.080
993.1754, 886.5532
993.6575, 715.5952
994.1396, 600.8141
994.6218, 508.2839
995.1039, 437.9388
995.5860, 380.5450
996.0681, 330.8571
996.5502, 288.9171
997.0323, 255.3970
997.5145, 232.6916
997.9966, 211.9236
998.4787, 192.2372
998.9608, 174.8071
999.4429, 160.9573
999.9250, 148.7471
1000.407, 135.7364
1000.889, 122.8219
1001.371, 113.7335
1001.854, 110.4722
1002.336, 106.9073
1002.818, 101.3716
1003.300, 94.88519
1003.782, 86.64893
1004.264, 78.63135
1004.746, 73.12125
1005.228, 69.55048
1005.710, 66.75244
1006.193, 64.47272
1006.675, 62.03687
1007.157, 59.11176
1007.639, 55.97070
1008.121, 52.06537
1008.603, 48.41818
1009.085, 47.47748
1009.567, 49.02240
1010.049, 49.46375
1010.532, 46.10382
1011.014, 41.69711
1011.496, 39.21127
1011.978, 37.86609
1012.460, 36.57632
1012.942, 35.34515
1013.424, 34.46835
1013.906, 34.00641
1014.389, 33.84128
1014.871, 34.11990
1015.353, 33.96802
1015.835, 31.58151
1016.317, 27.96484
1016.799, 25.51611
1017.281, 24.23853
1017.763, 23.13995
1018.245, 22.01950
1018.728, 21.65317
1019.210, 22.92938
1019.692, 24.48151
1020.174, 23.20322
1020.656, 19.89511
1021.138, 18.62659
1021.620, 19.52087
1022.102, 19.48141
1022.585, 17.30057
1023.067, 15.06393
1023.549, 15.05069
1024.031, 16.50629
1024.513, 16.88876
1024.995, 16.22546
1025.477, 16.18558
1025.959, 17.01706
1026.442, 16.43732
1026.924, 13.16159
1027.406, 10.03989
1027.888, 10.62524
1028.370, 13.99701
1028.852, 14.92007
1029.334, 12.87735
1029.816, 12.58084
1030.298, 15.13235
1030.781, 16.08212
1031.263, 12.45377
1031.745, 9.010773
1032.227, 12.53525
1032.709, 21.66641
1033.191, 24.23672
1033.673, 18.09482
1034.155, 12.50961
1034.637, 7.868195
1035.120, 4.699310
1035.602, 3.830444
1036.084, 3.661133
1036.566, 1.780060
1037.048, 1.556427
1037.530, 2.089325
1038.012, 2.127838
1038.494, 4.777222
1038.977, 4.596008
1039.459, 4.188263
1039.941, 4.799835
1040.423, 5.700531
1040.905, 5.990417
1041.387, 5.685974
1041.869, 5.184113
1042.351, 4.296021
1042.833, 3.521057
1043.316, 2.594879
1043.798, 2.123352
1044.280, 2.964935
1044.762, 3.997864
1045.244, 3.598145
1045.726, 1.886047
1046.208, 1.066620
1046.690, 1.805115
1047.172, 2.547668
1047.655, 3.873169
1048.137, 4.374329
1048.619, 2.485870
1049.101, 4.4555999E-02
1049.583, 0.5353700
1050.065, 0.6193540
1050.547, 1.064636
1051.029, 0.4039920
1051.512, 1.118225
1051.994, 0.3888550
1052.476, 1.488586
1052.958, 0.2854000
1053.440, 2.411377
1053.922, 1.673065
1054.404, 1.771179
1054.886, 5.419281
1055.369, 10.11755
1055.851, 12.39185
1056.333, 9.322845
1056.815, 6.055664
1057.297, 5.551605
1057.779, 6.201630
1058.261, 6.146393
1058.743, 5.274902
1059.225, 4.155060
1059.708, 2.991943
1060.190, 1.445526
1060.672, 1.327820
1061.154, 3.663513
1061.636, 6.352295
1062.118, 6.898560
1062.600, 0.6372990
1063.082, 13.37274
1063.564, 18.02063
1064.047, 7.922699
1064.529, 0.7991330
1065.011, 1.469147
1065.493, 9.3018003E-02
1065.975, 1.263092
1066.457, 1.764313
1066.939, 0.4610600
1067.421, 4.203339
1067.904, 4.960175
1068.386, 0.5578610
1068.868, 2.810852
1069.350, 1.724487
1069.832, 7.9833999E-02
1070.314, 0.7878720
1070.796, 0.7986450
1071.278, 0.6126400
1071.760, 0.2176210
1072.243, 0.7444150
1072.725, 2.493256
1073.207, 3.880035
1073.689, 4.676727
1074.171, 4.646637
1074.653, 3.159088
1075.135, 1.178223
1075.617, 0.8856510
1076.099, 2.493988
1076.582, 2.370605
1077.064, 9.2285000E-02
1077.546, 1.884857
1078.028, 2.359558
1078.510, 2.390625
1078.992, 2.136444
1079.474, 2.075043
1079.956, 3.108459
1080.439, 4.532166
1080.921, 4.737549
1081.403, 3.401489
1081.885, 2.148041
1082.367, 1.283997
1082.849, 1.188293
1083.331, 2.637115
1083.813, 4.398010
1084.295, 5.731903
1084.778, 6.463135
1085.260, 6.313568
1085.742, 5.321655
1086.224, 4.380249
1086.706, 3.995575
1087.188, 3.506012
1087.670, 1.738220
1088.152, 0.6263730
1088.635, 2.548126
1089.117, 5.611847
1089.599, 6.559021
1090.081, 5.450684
1090.563, 5.657410
1091.045, 9.364655
1091.527, 12.26895
1092.009, 11.73804
1092.491, 10.73602
1092.974, 11.46719
1093.456, 12.68301
1093.938, 12.46408
1094.420, 11.06375
1094.902, 10.10303
1095.384, 9.951477
1095.866, 11.44547
1096.348, 16.26321
1096.830, 20.63040
1097.313, 21.96365
1097.795, 22.32349
1098.277, 23.60767
1098.759, 25.86301
1099.241, 28.72104
1099.723, 32.28049
1100.205, 35.41370
1100.687, 37.40085
1101.170, 39.36887
1101.652, 42.18481
1102.134, 44.80219
1102.616, 46.63501
1103.098, 47.50095
1103.580, 47.12454
1104.062, 45.43906
1104.544, 43.16492
1105.026, 40.92340
1105.509, 37.43997
1105.991, 30.84415
1106.473, 24.48611
1106.955, 20.80539
1107.437, 18.48358
1107.919, 15.36282
1108.401, 11.31155
1108.883, 8.080902
1109.365, 6.069916
1109.848, 4.888275
1110.330, 5.401947
1110.812, 5.367462
1111.294, 2.825439
1111.776, 4.2236000E-02
1112.258, 0.7458190
1112.740, 0.2761540
1113.222, 2.598328
1113.705, 8.498199
1114.187, 10.61465
1114.669, 4.438843
1115.151, 0.1055910
1115.633, 0.9679870
1116.115, 3.712158
1116.597, 4.890015
1117.079, 5.307434
1117.562, 7.375763
1118.044, 11.87479
1118.526, 14.41867
1119.008, 13.66003
1119.490, 13.21078
1119.972, 13.71042
1120.454, 15.46716
1120.936, 18.03714
1121.418, 21.30701
1121.901, 25.35968
1122.383, 30.09784
1122.865, 33.81625
1123.347, 35.73825
1123.829, 39.28046
1124.311, 45.47726
1124.793, 51.39633
1125.275, 55.14386
1125.757, 59.04453
1126.240, 66.19998
1126.722, 75.73221
1127.204, 83.44577
1127.686, 88.38965
1128.168, 96.04742
1128.650, 107.4231
1129.132, 117.9752
1129.614, 125.7378
1130.097, 134.7943
1130.579, 148.8980
1131.061, 165.7767
1131.543, 179.6071
1132.025, 190.3738
1132.507, 203.8375
1132.989, 220.2556
1133.471, 236.6942
1133.953, 252.6655
1134.436, 268.6081
1134.918, 284.6782
1135.400, 301.8450
1135.882, 321.5253
1136.364, 343.5704
1136.846, 367.5450
1137.328, 393.1757
1137.810, 419.5108
1138.292, 446.2197
1138.775, 470.6509
1139.257, 491.8778
1139.739, 513.2666
1140.221, 538.5903
1140.703, 564.8463
1141.185, 586.5368
1141.667, 604.1519
1142.149, 620.0054
1142.632, 633.0970
1143.114, 639.9519
1143.596, 639.3869
1144.078, 630.2806
1144.560, 611.7487
1145.042, 585.8862
1145.524, 553.2917
1146.006, 516.3661
1146.489, 477.3994
1146.971, 437.3969
1147.453, 396.9403
1147.935, 357.5755
1148.417, 322.9717
1148.899, 294.1994
1149.381, 268.2798
1149.863, 243.2172
1150.345, 219.7047
1150.828, 198.2307
1151.310, 178.8676
1151.792, 162.0220
1152.274, 147.4993
1152.756, 135.6962
1153.238, 126.1316
1153.720, 116.3595
1154.202, 104.6326
1154.684, 94.75153
1155.167, 89.36783
1155.649, 85.65341
1156.131, 82.86389
1156.613, 79.90424
1157.095, 75.11581
1157.577, 69.34390
1158.059, 64.99374
1158.541, 62.54944
1159.024, 60.94757
1159.506, 60.63657
1159.988, 60.14227
1160.470, 58.96072
1160.952, 57.58203
1161.434, 56.12259
1161.916, 54.76898
1162.398, 54.05789
1162.880, 53.90594
1163.363, 52.55676
1163.845, 48.07739
1164.327, 46.05936
1164.809, 48.45831
1165.291, 50.03552
1165.773, 49.22714
1166.255, 46.89813
1166.737, 43.28375
1167.219, 39.05884
1167.702, 35.92618
1168.184, 33.92963
1168.666, 32.61893
1169.148, 32.39801
1169.630, 30.79877
1170.112, 27.16470
1170.594, 23.14581
1171.076, 19.36819
1171.559, 16.44254
1172.041, 15.37808
1172.523, 15.56464
1173.005, 14.46509
1173.487, 12.26737
1173.969, 11.47208
1174.451, 12.11923
1174.933, 12.50836
1175.416, 12.16064
1175.898, 11.46301
1176.380, 10.64029
1176.862, 9.986389
1177.344, 10.23053
1177.826, 10.80893
1178.308, 10.52234
1178.790, 9.461243
1179.272, 7.227386
1179.755, 4.453857
1180.237, 3.516174
1180.719, 5.173431
1181.201, 7.505829
1181.683, 9.806458
1182.165, 10.88330
1182.647, 8.248901
1183.129, 4.946625
1183.611, 4.670898
1184.094, 6.121338
1184.576, 6.848877
1185.058, 6.668488
1185.540, 7.001373
1186.022, 8.709839
1186.504, 8.964813
1186.986, 4.161774
1187.468, 0.6452640
1187.951, 3.543427
1188.433, 7.032257
1188.915, 5.329285
1189.397, 1.209717
1189.879, 0.5909120
1190.361, 3.899536
1190.843, 5.132629
1191.325, 1.425690
1191.807, 0.5465390
1192.290, 1.311829
1192.772, 2.212769
1193.254, 0.2904360
1193.736, 3.164215
1194.218, 3.928894
1194.700, 2.989471
1195.182, 1.236206
1195.664, 1.438568
1196.146, 3.575287
1196.629, 5.176453
1197.111, 6.249664
1197.593, 6.856659
1198.075, 6.309906
1198.557, 4.078827
1199.039, 1.909424
1199.521, 1.829132
1200.003, 3.033478
1200.486, 3.304169
1200.968, 2.863007
1201.450, 3.076202
1201.932, 3.789764
1202.414, 3.275513
1202.896, 1.179810
1203.378, 7.9558998E-02
1203.860, 1.513885
1204.343, 3.502899
1204.825, 3.992859
1205.307, 3.791290
1205.789, 3.940918
1206.271, 4.120514
1206.753, 3.696106
1207.235, 2.943085
1207.717, 2.438751
1208.199, 2.360657
1208.682, 2.835724
1209.164, 4.095795
1209.646, 5.352478
1210.128, 6.896210
1210.610, 7.499969
1211.092, 5.101288
1211.574, 2.605042
1212.056, 3.292603
1212.538, 5.854767
1213.021, 7.145203
1213.503, 6.802521
1213.985, 6.400177
1214.467, 6.095245
1214.949, 5.608093
1215.431, 4.128906
1215.913, 3.935974
1216.395, 6.805206
1216.878, 9.658630
1217.360, 9.544708
1217.842, 7.531799
1218.324, 6.352264
1218.806, 6.033936
1219.288, 6.264435
1219.770, 7.125427
1220.252, 7.071045
1220.734, 5.887360
1221.217, 4.624359
1221.699, 3.724365
1222.181, 3.905029
1222.663, 6.176666
1223.145, 9.029419
1223.627, 9.495392
1224.109, 8.439880
1224.591, 7.890900
1225.073, 7.591095
1225.556, 6.226593
1226.038, 4.056610
1226.520, 3.179657
1227.002, 4.396729
1227.484, 5.063477
1227.966, 1.971954
1228.448, 0.5877990
1228.930, 1.342163
1229.413, 4.215515
1229.895, 4.882050
1230.377, 4.462616
1230.859, 4.881348
1231.341, 6.035156
1231.823, 6.442261
1232.305, 5.509460
1232.787, 5.100830
1233.270, 6.309296
1233.752, 6.755219
1234.234, 5.491333
1234.716, 4.070374
1235.198, 2.970703
1235.680, 2.536346
1236.162, 3.158478
1236.644, 4.834869
1237.126, 6.133148
1237.609, 6.914490
1238.091, 7.678711
1238.573, 8.463776
1239.055, 8.567535
1239.537, 7.836517
1240.019, 6.642883
1240.501, 5.154755
1240.983, 4.147003
1241.465, 4.818146
1241.948, 6.080109
1242.430, 5.603912
1242.912, 4.280090
1243.394, 3.810913
1243.876, 4.148010
1244.358, 5.201782
1244.840, 6.588715
1245.322, 6.937927
1245.805, 5.583313
1246.287, 4.360474
1246.769, 4.901001
1247.251, 5.152893
1247.733, 3.335114
1248.215, 1.419342
1248.697, 0.9905700
1249.179, 1.408569
1249.661, 1.845459
1250.144, 2.185059
1250.626, 2.171936
1251.108, 1.587738
1251.590, 1.302551
1252.072, 1.404419
1252.554, 1.656067
1253.036, 2.206299
1253.518, 2.309418
1254.000, 1.487915
1254.483, 0.4940190
1254.965, 0.2215880
1255.447, 0.5603330
1255.929, 1.369629
1256.411, 2.515778
1256.893, 2.889069
1257.375, 2.625031
1257.857, 3.005096
1258.340, 3.945801
1258.822, 3.021515
1259.304, 0.7244570
1259.786, 3.506897
1260.268, 1.516724
1260.750, 1.715210
1261.232, 3.068146
1261.714, 3.468231
1262.197, 3.378448
1262.679, 3.319519
1263.161, 4.217987
1263.643, 5.688690
1264.125, 6.299316
1264.607, 5.706329
1265.089, 4.832611
1265.571, 3.232025
1266.053, 2.328613
1266.536, 2.790741
1267.018, 3.282745
1267.500, 3.136993
1267.982, 3.102844
1268.464, 3.976410
1268.946, 3.491150
1269.428, 3.296997
1269.910, 3.163940
1270.392, 3.595551
1270.875, 4.542297
1271.357, 4.194244
1271.839, 2.575623
1272.321, 3.040344
1272.803, 6.482086
1273.285, 8.363464
1273.767, 5.436462
1274.249, 1.446381
1274.732, 1.016266
1275.214, 1.932800
1275.696, 1.013367
1276.178, 2.3163000E-02
1276.660, 2.018555
1277.142, 2.616180
1277.624, 0.0000000E+00
##END=



