##NAMES=Baryte
##RRUFFID=R050375
##IDEAL CHEMISTRY=BaSO_4_
##LOCALITY=unknown
##OWNER=RRUFF
##SOURCE=Eugene Schlepp
##DESCRIPTION=Pale green tabular crystals
##STATUS=The identification of this mineral has been confirmed by X-ray diffraction and chemical analysis
##URL=rruff.info/R050375
##MEASURED CHEMISTRY=Ba_1.00_SO_4_
137.3603, 0.0000000E+00
137.8424, 9.3383998E-02
138.3245, 7.1250997E-02
138.8066, 0.1228790
139.2887, 0.7644880
139.7709, 1.860794
140.2530, 3.280060
140.7351, 4.774986
141.2172, 6.326698
141.6993, 8.472771
142.1814, 11.57362
142.6636, 15.44645
143.1457, 19.51469
143.6278, 23.72065
144.1099, 28.07858
144.5920, 32.61186
145.0741, 37.23129
145.5563, 41.83006
146.0384, 46.76245
146.5205, 52.25751
147.0026, 56.13893
147.4847, 57.51811
147.9668, 57.42812
148.4490, 56.09850
148.9311, 53.64054
149.4132, 50.33813
149.8953, 46.60470
150.3774, 42.09779
150.8595, 38.41417
151.3417, 36.22703
151.8238, 34.02762
152.3059, 31.67174
152.7880, 29.13021
153.2701, 26.20493
153.7522, 23.81705
154.2344, 22.22794
154.7165, 21.05522
155.1986, 20.54021
155.6807, 20.35719
156.1628, 20.17012
156.6449, 19.83046
157.1271, 19.30557
157.6092, 18.42424
158.0913, 17.18137
158.5734, 15.66319
159.0555, 13.69413
159.5376, 11.43432
160.0198, 9.320915
160.5019, 7.631935
160.9840, 6.251053
161.4661, 4.701508
161.9482, 2.584450
162.4303, 0.7098160
162.9125, 0.2559890
163.3946, 0.3460460
163.8767, 0.3085100
164.3588, 0.6624450
164.8409, 1.128937
165.3230, 1.211197
165.8052, 0.5915300
166.2873, 0.2328870
166.7694, 0.4439850
167.2515, 0.2568280
167.7336, 0.5266270
168.2157, 0.7283550
168.6979, 2.649063
169.1800, 4.271645
169.6621, 5.181168
170.1442, 5.548058
170.6263, 6.079826
171.1084, 6.821693
171.5906, 7.476059
172.0727, 8.245995
172.5548, 8.694138
173.0369, 9.116188
173.5190, 9.768936
174.0011, 10.57967
174.4833, 11.25794
174.9654, 11.60922
175.4475, 11.94791
175.9296, 12.33298
176.4117, 12.65562
176.8938, 13.34650
177.3760, 14.85259
177.8581, 16.62500
178.3402, 18.07272
178.8223, 18.76811
179.3044, 19.62837
179.7865, 20.97678
180.2687, 22.92600
180.7508, 25.20868
181.2329, 27.49310
181.7150, 29.89280
182.1971, 32.77489
182.6792, 35.91987
183.1614, 39.32076
183.6435, 43.22027
184.1256, 47.60630
184.6077, 52.27670
185.0898, 56.98300
185.5719, 61.77696
186.0541, 67.35597
186.5362, 74.60130
187.0183, 82.23403
187.5004, 89.32715
187.9825, 96.01341
188.4646, 101.0984
188.9468, 103.1247
189.4289, 102.4918
189.9110, 100.3424
190.3931, 96.54334
190.8752, 91.47019
191.3573, 85.66782
191.8395, 79.14878
192.3216, 71.91425
192.8037, 63.25446
193.2858, 53.86602
193.7679, 45.37524
194.2500, 38.71393
194.7322, 33.55170
195.2143, 28.81246
195.6964, 24.38436
196.1785, 20.43553
196.6606, 16.95795
197.1427, 13.91496
197.6249, 11.26511
198.1070, 8.908516
198.5891, 6.878540
199.0712, 5.577690
199.5533, 5.830559
200.0354, 5.932793
200.5176, 5.009758
200.9997, 3.410896
201.4818, 1.976219
201.9639, 1.452324
202.4460, 1.869560
202.9281, 1.922073
203.4103, 1.016655
203.8924, 0.2706450
204.3745, 0.2116470
204.8566, 0.6324540
205.3387, 0.9289700
205.8208, 0.4931720
206.3030, 0.8346560
206.7851, 1.379837
207.2672, 0.4119640
207.7493, 0.5631330
208.2314, 0.9358830
208.7135, 0.7583080
209.1957, 0.4157330
209.6778, 0.2506710
210.1599, 0.2899170
210.6420, 0.3215100
211.1241, 0.2573390
211.6062, 0.2623370
212.0884, 0.5618970
212.5705, 1.074738
213.0526, 1.396393
213.5347, 1.081223
214.0168, 1.8371999E-02
214.4989, 0.4330290
214.9811, 0.4431230
215.4632, 1.322250
215.9453, 1.074524
216.4274, 0.2655490
216.9095, 1.460655
217.3916, 1.309090
217.8737, 0.2219620
218.3559, 1.107468
218.8380, 0.8660810
219.3201, 0.2652360
219.8022, 0.1452100
220.2843, 0.3365020
220.7664, 0.2927700
221.2486, 0.3058170
221.7307, 1.262634
222.2128, 1.651817
222.6949, 0.7606120
223.1770, 0.4421080
223.6591, 0.7255400
224.1413, 7.1732000E-02
224.6234, 0.9125140
225.1055, 0.9998700
225.5876, 0.5970540
226.0697, 0.1634750
226.5518, 0.4126660
227.0340, 0.9294740
227.5161, 1.002350
227.9982, 0.5104980
228.4803, 6.7289998E-03
228.9624, 0.2501370
229.4445, 0.3221050
229.9267, 0.3244550
230.4088, 0.2383580
230.8909, 0.1488190
231.3730, 0.2608180
231.8551, 0.6942060
232.3372, 1.021339
232.8194, 1.032707
233.3015, 0.8628850
233.7836, 0.6593780
234.2657, 0.4898220
234.7478, 0.3120880
235.2299, 2.8380999E-02
235.7121, 0.7657390
236.1942, 1.166267
236.6763, 0.8312450
237.1584, 0.1822280
237.6405, 0.3465420
238.1227, 0.5651930
238.6048, 0.5830540
239.0869, 0.6834640
239.5690, 0.9513020
240.0511, 1.151550
240.5332, 1.321465
241.0154, 1.381416
241.4975, 1.185272
241.9796, 0.6659700
242.4617, 4.4630002E-03
242.9438, 0.3355260
243.4259, 0.1656270
243.9081, 6.0081001E-02
244.3902, 0.3431470
244.8723, 0.6239400
245.3544, 0.8572010
245.8365, 1.025612
246.3186, 1.126190
246.8008, 1.129921
247.2829, 0.6897130
247.7650, 0.6938630
248.2471, 1.682091
248.7292, 2.844406
249.2113, 3.321976
249.6935, 2.849533
250.1756, 1.961548
250.6577, 1.714027
251.1398, 2.758110
251.6219, 3.539413
252.1040, 3.986336
252.5862, 4.217186
253.0683, 4.253410
253.5504, 4.121613
254.0325, 3.976822
254.5146, 4.070221
254.9967, 4.479851
255.4789, 5.036797
255.9610, 6.091843
256.4431, 7.091637
256.9252, 7.393410
257.4073, 6.888588
257.8894, 6.217308
258.3716, 6.252625
258.8537, 7.342522
259.3358, 8.307732
259.8179, 9.350304
260.3000, 10.16988
260.7821, 10.36949
261.2643, 9.900307
261.7464, 9.231812
262.2285, 8.884354
262.7106, 8.950005
263.1927, 9.087234
263.6748, 9.291092
264.1570, 9.475433
264.6391, 9.702309
265.1212, 10.05914
265.6033, 10.40807
266.0854, 10.51510
266.5675, 10.36671
267.0497, 10.54825
267.5318, 11.62431
268.0139, 12.66116
268.4960, 12.67043
268.9781, 11.65686
269.4602, 10.79544
269.9424, 11.13065
270.4245, 12.47372
270.9066, 13.21599
271.3887, 12.94172
271.8708, 12.30720
272.3529, 11.68761
272.8351, 11.18121
273.3172, 10.93660
273.7993, 11.15311
274.2814, 11.64751
274.7635, 11.89771
275.2456, 12.08331
275.7278, 12.07445
276.2099, 11.46178
276.6920, 10.30742
277.1741, 9.244720
277.6562, 8.478371
278.1383, 8.086380
278.6205, 8.169273
279.1026, 9.064659
279.5847, 9.780571
280.0668, 9.469276
280.5489, 8.293358
281.0310, 7.246071
281.5132, 6.710152
281.9953, 6.577148
282.4774, 6.498482
282.9595, 6.447739
283.4416, 6.527512
283.9237, 6.936829
284.4059, 7.544769
284.8880, 7.900307
285.3701, 7.923981
285.8522, 7.697823
286.3343, 7.113609
286.8164, 6.172333
287.2986, 5.583237
287.7807, 6.091629
288.2628, 7.296318
288.7449, 7.839607
289.2270, 7.340401
289.7091, 6.505852
290.1913, 5.768700
290.6734, 5.155479
291.1555, 4.800705
291.6376, 4.906845
292.1197, 5.303444
292.6018, 5.587563
293.0840, 5.688278
293.5661, 5.736877
294.0482, 5.895470
294.5303, 6.151573
295.0124, 6.427917
295.4945, 6.716866
295.9767, 6.932999
296.4588, 6.903084
296.9409, 6.565483
297.4230, 6.192703
297.9051, 5.776787
298.3872, 5.450897
298.8694, 5.457542
299.3515, 5.955109
299.8336, 6.581421
300.3157, 6.967728
300.7978, 7.113380
301.2799, 7.064705
301.7621, 6.634560
302.2442, 6.106392
302.7263, 5.715874
303.2084, 5.506065
303.6905, 5.428055
304.1726, 5.452522
304.6548, 5.581940
305.1369, 5.755699
305.6190, 6.025139
306.1011, 6.281754
306.5832, 6.435219
307.0653, 6.481796
307.5475, 6.493225
308.0296, 6.532318
308.5117, 6.593956
308.9938, 6.604668
309.4759, 6.485939
309.9580, 6.399979
310.4402, 6.458382
310.9223, 6.639153
311.4044, 6.854492
311.8865, 7.111618
312.3686, 7.371521
312.8507, 7.403313
313.3329, 6.938782
313.8150, 6.721153
314.2971, 7.281319
314.7792, 8.322182
315.2613, 9.347252
315.7434, 10.31752
316.2256, 11.01479
316.7077, 10.75380
317.1898, 9.037979
317.6719, 7.751335
318.1540, 8.120178
318.6361, 9.193588
319.1183, 9.971031
319.6004, 10.10818
320.0825, 10.00587
320.5646, 10.22061
321.0467, 10.80760
321.5288, 11.35938
322.0110, 11.72346
322.4931, 12.01459
322.9752, 12.39703
323.4573, 12.90183
323.9394, 13.18931
324.4215, 12.70245
324.9037, 11.46809
325.3858, 10.81709
325.8679, 11.62730
326.3500, 12.42243
326.8321, 11.90761
327.3142, 10.28252
327.7964, 8.894630
328.2785, 8.693886
328.7606, 9.505295
329.2427, 10.59306
329.7248, 12.31762
330.2069, 13.60429
330.6891, 13.69226
331.1712, 12.92768
331.6533, 12.00187
332.1354, 11.16812
332.6175, 10.39745
333.0996, 9.592514
333.5818, 8.682610
334.0639, 7.965179
334.5460, 7.668221
335.0281, 7.602592
335.5102, 7.580688
335.9923, 7.565262
336.4745, 7.555687
336.9566, 7.570221
337.4387, 7.613106
337.9208, 7.638504
338.4029, 7.654266
338.8850, 7.541107
339.3671, 7.186882
339.8492, 6.588974
340.3314, 5.951683
340.8135, 5.353775
341.2956, 4.796967
341.7777, 4.399559
342.2598, 4.248985
342.7419, 4.110359
343.2241, 3.802040
343.7062, 3.370399
344.1883, 2.926460
344.6704, 2.313492
345.1525, 1.701637
345.6346, 1.642258
346.1168, 2.367203
346.5989, 3.054779
347.0810, 3.054253
347.5631, 2.620987
348.0452, 2.112755
348.5273, 1.517998
349.0095, 0.9157790
349.4916, 0.3038330
349.9737, 0.3044430
350.4558, 0.4049840
350.9379, 0.6255800
351.4200, 2.080902
351.9022, 2.762108
352.3843, 2.362968
352.8664, 1.806084
353.3485, 1.734955
353.8306, 2.003677
354.3127, 2.014664
354.7949, 1.541809
355.2770, 0.8533940
355.7591, 0.1359860
356.2412, 0.6295390
356.7233, 0.9340970
357.2054, 0.3293000
357.6876, 0.7650910
358.1697, 1.767052
358.6518, 2.626984
359.1339, 3.224693
359.6160, 3.395874
360.0981, 3.182320
360.5803, 2.821732
361.0624, 2.064629
361.5445, 1.378693
362.0266, 1.284935
362.5087, 1.706848
362.9908, 1.972839
363.4730, 1.577606
363.9551, 0.8532260
364.4372, 0.8124390
364.9193, 1.751495
365.4014, 2.805885
365.8835, 3.855156
366.3657, 4.744606
366.8478, 5.050354
367.3299, 4.545670
367.8120, 3.763687
368.2941, 3.601990
368.7762, 4.244377
369.2584, 4.643555
369.7405, 4.428413
370.2226, 4.039772
370.7047, 3.912224
371.1868, 4.096054
371.6689, 4.383484
372.1511, 4.627312
372.6332, 4.822731
373.1153, 4.801140
373.5974, 4.220139
374.0795, 3.778534
374.5616, 3.910530
375.0438, 4.459427
375.5259, 5.026413
376.0080, 5.407516
376.4901, 5.614105
376.9722, 5.672295
377.4543, 5.417892
377.9365, 5.228897
378.4186, 5.144005
378.9007, 5.142311
379.3828, 5.281235
379.8649, 5.553955
380.3470, 5.743492
380.8292, 5.513420
381.3113, 4.624557
381.7934, 4.027496
382.2755, 3.646538
382.7576, 3.575279
383.2397, 4.276611
383.7219, 5.424553
384.2040, 5.971909
384.6861, 4.964752
385.1682, 2.559097
385.6503, 1.284958
386.1324, 2.339005
386.6146, 3.260551
387.0967, 3.664413
387.5788, 3.689171
388.0609, 3.484329
388.5430, 3.116081
389.0251, 2.706039
389.5073, 2.544693
389.9894, 2.929047
390.4715, 2.919197
390.9536, 1.105247
391.4357, 3.7055999E-02
391.9178, 2.181023
392.4000, 7.262741
392.8821, 11.59177
393.3642, 11.19040
393.8463, 5.870811
394.3284, 2.033836
394.8105, 0.3659440
395.2927, 0.5004960
395.7748, 0.6548310
396.2569, 0.4333340
396.7390, 0.3435590
397.2211, 0.6640170
397.7032, 1.203857
398.1854, 1.559189
398.6675, 1.730942
399.1496, 1.713860
399.6317, 1.224808
400.1138, 0.7167050
400.5959, 0.6204380
401.0781, 0.9986190
401.5602, 1.378838
402.0423, 1.242172
402.5244, 0.6475910
403.0065, 0.2500610
403.4886, 0.1524960
403.9708, 0.2375560
404.4529, 0.5552220
404.9350, 0.9887540
405.4171, 1.195244
405.8992, 0.8255160
406.3813, 0.2469180
406.8635, 6.9022998E-02
407.3456, 0.3309710
407.8277, 0.6581570
408.3098, 1.038940
408.7919, 1.258499
409.2740, 0.9282990
409.7562, 0.2387540
410.2383, 1.258377
410.7204, 1.306831
411.2025, 0.7240980
411.6846, 0.5734860
412.1667, 1.226685
412.6489, 2.073410
413.1310, 2.272850
413.6131, 1.847397
414.0952, 1.652504
414.5773, 1.919052
415.0594, 2.478912
415.5416, 3.195061
416.0237, 4.026146
416.5058, 4.837044
416.9879, 5.504272
417.4700, 6.089729
417.9521, 6.934326
418.4343, 8.483643
418.9164, 9.717094
419.3985, 9.949387
419.8806, 9.818848
420.3627, 10.27577
420.8448, 11.62343
421.3270, 13.49093
421.8091, 15.36485
422.2912, 17.27930
422.7733, 19.06010
423.2554, 20.73052
423.7375, 22.25500
424.2197, 23.38983
424.7018, 24.31091
425.1839, 25.46772
425.6660, 27.15287
426.1481, 29.37076
426.6302, 32.25630
427.1124, 36.28886
427.5945, 40.43535
428.0766, 44.48479
428.5587, 48.61458
429.0408, 52.88100
429.5229, 57.34307
430.0051, 62.40657
430.4872, 68.71362
430.9693, 76.41399
431.4514, 84.59464
431.9335, 92.85471
432.4156, 102.0639
432.8978, 112.8446
433.3799, 124.9197
433.8620, 137.7495
434.3441, 151.1057
434.8262, 164.8010
435.3083, 178.1485
435.7905, 190.8411
436.2726, 203.9187
436.7547, 217.7024
437.2368, 232.1615
437.7189, 247.1872
438.2010, 262.7371
438.6832, 279.2343
439.1653, 296.5993
439.6474, 315.0276
440.1295, 335.6902
440.6116, 358.2865
441.0938, 384.0714
441.5759, 414.3298
442.0580, 448.3883
442.5401, 485.3120
443.0222, 525.3665
443.5043, 567.6499
443.9865, 611.8141
444.4686, 657.6322
444.9507, 704.4847
445.4328, 751.4370
445.9149, 799.9912
446.3970, 853.0063
446.8792, 909.4417
447.3613, 971.3218
447.8434, 1041.050
448.3255, 1115.715
448.8076, 1191.747
449.2897, 1268.861
449.7719, 1349.026
450.2540, 1435.690
450.7361, 1529.864
451.2182, 1611.873
451.7003, 1687.187
452.1824, 1746.675
452.6646, 1789.506
453.1467, 1814.109
453.6288, 1815.416
454.1109, 1791.166
454.5930, 1749.588
455.0751, 1705.169
455.5573, 1648.901
456.0394, 1608.329
456.5215, 1578.166
457.0036, 1565.237
457.4857, 1573.044
457.9678, 1601.679
458.4500, 1650.896
458.9321, 1723.350
459.4142, 1815.293
459.8963, 1908.237
460.3784, 2016.617
460.8605, 2098.346
461.3427, 2161.824
461.8248, 2187.925
462.3069, 2155.446
462.7890, 2059.141
463.2711, 1916.301
463.7532, 1730.769
464.2354, 1505.271
464.7175, 1291.340
465.1996, 1088.543
465.6817, 909.0220
466.1638, 761.3982
466.6459, 641.3233
467.1281, 540.6258
467.6102, 460.9473
468.0923, 396.1197
468.5744, 342.1965
469.0565, 298.3918
469.5386, 261.3163
470.0208, 230.3344
470.5029, 204.5378
470.9850, 183.2421
471.4671, 166.5851
471.9492, 151.4048
472.4313, 136.7745
472.9135, 123.2246
473.3956, 111.3400
473.8777, 101.1611
474.3598, 92.31039
474.8419, 84.67046
475.3240, 78.14552
475.8062, 71.97813
476.2883, 65.56467
476.7704, 60.15773
477.2525, 56.60304
477.7346, 53.97963
478.2167, 51.24403
478.6989, 48.10363
479.1810, 44.84851
479.6631, 41.73135
480.1452, 38.71365
480.6273, 36.14312
481.1094, 34.31264
481.5916, 32.65007
482.0737, 31.01556
482.5558, 29.40975
483.0379, 27.81699
483.5200, 26.19970
484.0021, 24.70285
484.4843, 23.70665
484.9664, 23.37829
485.4485, 22.74828
485.9306, 21.28120
486.4127, 19.75147
486.8948, 18.80177
487.3770, 18.32501
487.8591, 17.63500
488.3412, 15.98351
488.8233, 13.97005
489.3054, 12.88452
489.7875, 12.83272
490.2697, 12.84082
490.7518, 12.55527
491.2339, 11.95037
491.7160, 10.97849
492.1981, 9.415085
492.6802, 8.094452
493.1624, 7.369362
493.6445, 7.107880
494.1266, 7.350945
494.6087, 8.066429
495.0908, 8.488678
495.5729, 7.900482
496.0551, 6.325935
496.5372, 4.998856
497.0193, 3.969254
497.5014, 3.088837
497.9835, 2.248253
498.4656, 1.547890
498.9478, 1.185745
499.4299, 1.210121
499.9120, 1.388023
500.3941, 1.342651
500.8762, 0.8859790
501.3583, 0.8697050
501.8405, 1.927238
502.3226, 2.806564
502.8047, 2.976089
503.2868, 2.653732
503.7689, 2.256149
504.2510, 1.984627
504.7331, 1.805412
505.2152, 1.622353
505.6974, 1.442039
506.1795, 1.417259
506.6616, 1.742088
507.1437, 2.026680
507.6258, 1.969460
508.1079, 1.635071
508.5901, 1.285286
509.0722, 0.9648060
509.5543, 0.7293170
510.0364, 0.7784880
510.5185, 1.108757
511.0006, 1.172821
511.4828, 0.5292890
511.9649, 0.3687130
512.4470, 0.3607860
512.9291, 0.8916090
513.4113, 1.795204
513.8934, 1.647636
514.3755, 1.117722
514.8576, 0.8412630
515.3397, 0.8892670
515.8218, 1.124138
516.3040, 1.483284
516.7861, 1.935776
517.2682, 2.223854
517.7503, 2.161232
518.2324, 2.157555
518.7145, 2.302010
519.1967, 2.493996
519.6788, 2.759346
520.1609, 3.027557
520.6430, 2.992134
521.1251, 2.186974
521.6072, 0.6484380
522.0894, 0.1104740
522.5715, 0.4483260
523.0536, 0.9471440
523.5357, 0.8504100
524.0178, 0.5016400
524.4999, 0.2736890
524.9821, 0.2591860
525.4642, 0.3740080
525.9463, 0.4812160
526.4284, 0.6316600
526.9105, 1.209480
527.3926, 2.474533
527.8748, 3.535164
528.3569, 3.528290
528.8390, 2.726021
529.3211, 2.076302
529.8032, 1.764015
530.2853, 1.517975
530.7675, 1.122612
531.2496, 0.7031630
531.7317, 0.5781480
532.2138, 0.8437040
532.6959, 1.155167
533.1780, 1.076408
533.6602, 0.5317760
534.1423, 5.4329000E-02
534.6244, 0.6696850
535.1065, 1.007439
535.5886, 0.4449310
536.0707, 0.5779720
536.5529, 1.469315
537.0350, 1.980705
537.5171, 2.109665
537.9992, 1.700539
538.4813, 0.5584720
538.9634, 0.1057740
539.4456, 5.2078001E-02
539.9277, 0.3954700
540.4098, 0.7637250
540.8919, 1.082458
541.3740, 1.205231
541.8561, 1.007080
542.3383, 0.7359700
542.8204, 0.6730880
543.3025, 0.8092800
543.7846, 1.091766
544.2667, 1.585396
544.7488, 2.069466
545.2310, 2.348351
545.7131, 2.428810
546.1952, 2.213669
546.6773, 1.475906
547.1594, 0.6377720
547.6415, 0.1399920
548.1237, 0.7953030
548.6058, 1.219948
549.0879, 1.366447
549.5700, 1.275475
550.0521, 0.9738770
550.5342, 0.2951430
551.0164, 7.4707001E-02
551.4985, 0.1932220
551.9806, 0.3866730
552.4627, 5.7541002E-02
552.9448, 0.5519410
553.4269, 0.9288480
553.9091, 0.8167040
554.3912, 0.5026780
554.8733, 0.5434110
555.3554, 1.024506
555.8375, 1.256584
556.3196, 1.006020
556.8018, 0.6467060
557.2839, 0.2763670
557.7660, 1.5961001E-02
558.2481, 4.5676999E-02
558.7302, 0.7972110
559.2123, 1.659538
559.6945, 2.119743
560.1766, 2.195984
560.6587, 1.857819
561.1408, 0.9795760
561.6229, 8.5716002E-02
562.1050, 6.5978996E-02
562.5872, 0.7053760
563.0693, 0.8746110
563.5514, 0.3854680
564.0335, 1.434532
564.5156, 1.200020
564.9977, 0.2068860
565.4799, 0.5380860
565.9620, 0.6340790
566.4441, 0.4306030
566.9262, 0.5444560
567.4083, 1.190369
567.8904, 1.274773
568.3726, 1.2100000E-02
568.8547, 1.010391
569.3368, 1.058655
569.8189, 0.5600810
570.3010, 0.2393880
570.7831, 0.3840410
571.2653, 0.6454390
571.7474, 0.6130450
572.2295, 0.3153840
572.7116, 3.9345000E-02
573.1937, 0.4664840
573.6758, 0.8228070
574.1580, 0.9182210
574.6401, 0.8299100
575.1222, 0.8635640
575.6043, 1.239731
576.0864, 1.525635
576.5685, 1.302345
577.0507, 0.9073640
577.5328, 1.067596
578.0149, 1.920250
578.4970, 2.664383
578.9791, 2.346611
579.4612, 0.8977890
579.9434, 0.1338730
580.4255, 0.6498110
580.9076, 1.177490
581.3897, 1.590744
581.8718, 1.847580
582.3539, 1.760750
582.8361, 1.355347
583.3182, 1.156254
583.8003, 2.015686
584.2824, 3.693771
584.7645, 4.235058
585.2466, 3.177433
585.7288, 2.292614
586.2108, 2.688564
586.6929, 3.669338
587.1750, 4.205231
587.6572, 4.112259
588.1393, 4.071789
588.6214, 4.478111
589.1035, 5.071812
589.5856, 5.564751
590.0677, 5.912266
590.5499, 6.036655
591.0320, 5.828438
591.5141, 5.445721
591.9962, 5.477921
592.4783, 6.034569
592.9604, 6.830555
593.4426, 8.040092
593.9247, 9.415077
594.4068, 10.88507
594.8889, 12.35974
595.3710, 13.63525
595.8531, 14.50595
596.3353, 15.22998
596.8174, 16.43091
597.2995, 18.15641
597.7816, 20.07725
598.2637, 21.78003
598.7458, 24.06345
599.2280, 27.91724
599.7101, 33.02883
600.1922, 37.72970
600.6743, 41.13357
601.1564, 44.22719
601.6385, 47.96378
602.1207, 52.08770
602.6028, 55.71165
603.0849, 58.48034
603.5670, 61.19274
604.0491, 64.86756
604.5313, 69.61595
605.0134, 74.66991
605.4955, 79.94334
605.9776, 85.53574
606.4597, 91.13725
606.9418, 97.28094
607.4240, 104.7830
607.9061, 113.8086
608.3882, 123.3747
608.8703, 131.7226
609.3524, 139.0699
609.8345, 149.0313
610.3167, 161.9434
610.7988, 176.7898
611.2809, 193.6624
611.7630, 211.9463
612.2451, 230.7860
612.7272, 249.8842
613.2094, 270.4313
613.6915, 294.1521
614.1736, 319.0065
614.6557, 343.2213
615.1378, 366.3419
615.6199, 386.9161
616.1021, 404.3317
616.5842, 417.6526
617.0663, 424.2178
617.5484, 423.5109
618.0305, 416.4378
618.5126, 401.6857
618.9948, 382.4289
619.4769, 358.4613
619.9590, 331.6484
620.4411, 305.5630
620.9232, 281.7385
621.4053, 259.6484
621.8875, 238.6462
622.3696, 218.8545
622.8517, 200.0287
623.3338, 181.8847
623.8159, 165.1489
624.2980, 150.5321
624.7802, 137.9209
625.2623, 127.1877
625.7444, 119.0034
626.2265, 111.8615
626.7086, 104.8548
627.1907, 98.52029
627.6729, 93.79063
628.1550, 90.73558
628.6371, 88.48674
629.1192, 86.29797
629.6013, 84.24791
630.0834, 82.95942
630.5656, 82.89834
631.0477, 82.83559
631.5298, 82.81293
632.0119, 82.53739
632.4940, 81.44540
632.9761, 79.77357
633.4583, 78.68255
633.9404, 79.12675
634.4225, 80.31745
634.9046, 80.83137
635.3867, 80.76767
635.8688, 81.36770
636.3510, 83.06292
636.8331, 85.44232
637.3152, 88.01024
637.7973, 90.76304
638.2794, 94.14378
638.7615, 98.70947
639.2437, 103.2782
639.7258, 106.8271
640.2079, 110.3225
640.6900, 115.0717
641.1721, 121.4273
641.6542, 128.8654
642.1364, 136.9260
642.6185, 145.5925
643.1006, 154.5473
643.5827, 163.9732
644.0648, 173.2288
644.5469, 182.1008
645.0291, 190.6641
645.5112, 199.5441
645.9933, 208.7159
646.4754, 215.8033
646.9575, 221.3399
647.4396, 223.1064
647.9218, 217.8994
648.4039, 206.5063
648.8860, 192.2401
649.3681, 176.2414
649.8502, 158.7996
650.3323, 139.8642
650.8145, 118.4738
651.2966, 100.0576
651.7787, 85.44566
652.2608, 72.78834
652.7429, 61.96780
653.2250, 52.55710
653.7072, 44.26570
654.1893, 36.97166
654.6714, 30.80335
655.1535, 26.05432
655.6356, 22.51001
656.1177, 19.53082
656.5999, 17.14824
657.0820, 14.98820
657.5641, 12.85375
658.0462, 10.87247
658.5283, 9.281891
659.0104, 8.101158
659.4926, 7.078415
659.9747, 6.281353
660.4568, 5.544758
660.9389, 4.760326
661.4210, 3.959579
661.9031, 3.175041
662.3853, 2.420574
662.8674, 1.829292
663.3495, 1.714355
663.8316, 2.138145
664.3137, 1.974808
664.7958, 0.7746770
665.2780, 0.1920510
665.7601, 0.1610870
666.2422, 0.3063470
666.7243, 0.6247670
667.2064, 0.7294200
667.6885, 0.6965640
668.1707, 0.4538960
668.6528, 0.1586380
669.1349, 1.6750000E-02
669.6170, 6.7680001E-02
670.0991, 5.2490000E-02
670.5812, 1.8345000E-02
671.0634, 5.6492001E-02
671.5455, 0.2465130
672.0276, 0.7172850
672.5097, 0.6671410
672.9918, 0.7952160
673.4739, 1.793682
673.9561, 1.354668
674.4382, 0.3023610
674.9203, 0.2401280
675.4024, 5.7370001E-03
675.8845, 0.3146740
676.3666, 7.8281000E-02
676.8488, 0.7730140
677.3309, 0.7404670
677.8130, 4.6379000E-02
678.2951, 0.5242350
678.7772, 0.1060330
679.2593, 0.7406810
679.7415, 1.169678
680.2236, 1.020748
680.7057, 0.9080200
681.1878, 0.8494150
681.6699, 0.8309250
682.1520, 0.9591060
682.6342, 1.080555
683.1163, 0.8626590
683.5984, 0.2357520
684.0805, 0.3022460
684.5626, 0.1147690
685.0447, 0.6548610
685.5269, 1.259850
686.0090, 1.708958
686.4911, 1.893806
686.9732, 1.641247
687.4553, 1.208878
687.9374, 1.007607
688.4196, 1.047638
688.9017, 1.148224
689.3838, 1.340115
689.8659, 1.530567
690.3480, 1.714027
690.8301, 1.844990
691.3123, 1.811653
691.7944, 1.591454
692.2765, 1.332733
692.7586, 1.172436
693.2407, 1.116875
693.7228, 1.304386
694.2050, 1.859680
694.6871, 2.323593
695.1692, 2.577518
695.6513, 2.627903
696.1334, 2.433319
696.6155, 1.997696
697.0977, 1.608849
697.5798, 1.315758
698.0619, 1.129169
698.5440, 1.139641
699.0261, 1.244179
699.5082, 1.234589
699.9904, 1.054436
700.4725, 0.7974590
700.9546, 0.5440100
701.4367, 0.3012200
701.9188, 0.2026410
702.4009, 0.3308030
702.8831, 0.4397240
703.3652, 0.4420090
703.8473, 0.4229550
704.3294, 0.4703030
704.8115, 0.5669250
705.2936, 0.5873110
705.7758, 0.3197360
706.2579, 0.1130410
706.7400, 0.4148600
707.2221, 0.9694290
707.7042, 1.193645
708.1863, 0.9573780
708.6685, 0.4940150
709.1506, 5.3757001E-02
709.6327, 0.6154560
710.1148, 0.5392190
710.5969, 0.8609700
711.0790, 1.642391
711.5612, 0.9881440
712.0433, 0.1759300
712.5254, 7.3826000E-02
713.0075, 0.5316240
713.4896, 0.9016040
713.9717, 0.9405860
714.4539, 0.8054080
714.9360, 0.5463600
715.4181, 0.2291110
715.9002, 6.4029999E-02
716.3823, 0.1070210
716.8644, 0.2896540
717.3466, 0.5988200
717.8287, 0.9536550
718.3108, 1.032745
718.7929, 0.5339740
719.2750, 0.3359990
719.7571, 0.7417220
720.2393, 1.157505
720.7214, 1.310856
721.2035, 1.254322
721.6856, 1.091091
722.1677, 0.8253520
722.6498, 0.6137160
723.1320, 0.6739460
723.6141, 0.8621670
724.0962, 0.7890510
724.5783, 0.4347270
725.0604, 0.1727710
725.5425, 0.2263340
726.0247, 0.4210220
726.5068, 0.3797300
726.9889, 6.6148996E-02
727.4710, 0.2387790
727.9531, 4.0863000E-02
728.4352, 0.3960300
728.9174, 0.6908300
729.3995, 0.9976390
729.8816, 1.509909
730.3637, 2.245117
730.8458, 2.697123
731.3279, 2.463982
731.8101, 1.882368
732.2922, 1.214287
732.7743, 0.5053620
733.2564, 0.2706740
733.7385, 0.7434650
734.2206, 1.456272
734.7028, 1.758839
735.1849, 1.618916
735.6670, 1.347940
736.1491, 0.7657340
736.6312, 0.3065870
737.1133, 0.1873760
737.5955, 0.4145870
738.0776, 0.1691470
738.5597, 1.377245
739.0418, 2.159971
739.5239, 1.734148
740.0060, 0.9409890
740.4882, 0.6885720
740.9703, 0.8693890
741.4524, 1.257605
741.9345, 1.786678
742.4166, 2.152124
742.8987, 2.029547
743.3809, 1.534718
743.8630, 1.320753
744.3451, 1.663610
744.8272, 1.778008
745.3093, 1.291744
745.7914, 0.9014280
746.2736, 1.191639
746.7557, 1.815712
747.2378, 1.974669
747.7199, 1.293589
748.2020, 0.6379130
748.6841, 0.8926090
749.1663, 1.512974
749.6484, 1.453934
750.1305, 0.7435570
750.6126, 0.1985020
751.0947, 0.2491090
751.5768, 0.5823380
752.0590, 0.6252880
752.5411, 0.2775760
753.0232, 0.1060730
753.5053, 0.2545200
753.9874, 0.3962590
754.4695, 0.3417380
754.9517, 0.2685200
755.4338, 0.4329070
755.9159, 0.8511680
756.3980, 1.188604
756.8801, 1.327482
757.3622, 1.279623
757.8444, 0.8958700
758.3265, 0.3569050
758.8086, 0.1237550
759.2907, 0.3012790
759.7728, 0.5844550
760.2549, 0.6850410
760.7371, 0.6354330
761.2192, 0.6379300
761.7013, 0.7288930
762.1834, 0.7632560
762.6655, 0.6047730
763.1476, 0.5002380
763.6298, 0.7038380
764.1119, 1.085577
764.5940, 1.293749
765.0761, 1.243797
765.5582, 1.032871
766.0403, 0.4642540
766.5225, 8.5755996E-02
767.0046, 3.8879000E-02
767.4867, 0.4286500
767.9688, 0.6006620
768.4509, 0.1150260
768.9330, 0.5371340
769.4152, 0.3710190
769.8973, 0.6575300
770.3794, 1.239679
770.8615, 1.299610
771.3436, 1.037163
771.8257, 0.1874140
772.3079, 0.6795160
772.7900, 0.5971890
773.2721, 0.5235400
773.7542, 1.335981
774.2363, 1.463940
774.7184, 1.428154
775.2006, 1.411512
775.6827, 1.427399
776.1648, 1.466341
776.6469, 1.525135
777.1290, 1.647902
777.6111, 1.931231
778.0933, 2.206696
778.5754, 1.968565
779.0575, 1.242868
779.5396, 0.8570710
780.0217, 1.045319
780.5038, 1.311024
780.9860, 1.263037
781.4681, 0.9802930
781.9502, 0.8023240
782.4323, 0.7534260
782.9144, 0.7617230
783.3965, 0.7901380
783.8787, 0.9142990
784.3608, 1.310108
784.8429, 1.785807
785.3250, 1.981365
785.8071, 1.803411
786.2892, 1.590469
786.7714, 1.602615
787.2535, 1.792765
787.7356, 2.179487
788.2177, 2.706213
788.6998, 3.003389
789.1819, 2.928637
789.6641, 2.668800
790.1462, 2.457960
790.6283, 2.283405
791.1104, 1.950800
791.5925, 1.171638
792.0746, 0.7801510
792.5568, 1.370480
793.0389, 1.993227
793.5210, 1.900801
794.0031, 1.268776
794.4852, 0.7582930
794.9673, 0.5200920
795.4495, 0.5244160
795.9316, 0.9461520
796.4137, 1.520885
796.8958, 1.937040
797.3779, 2.166718
797.8600, 2.240049
798.3422, 2.170500
798.8243, 2.052568
799.3064, 2.047930
799.7885, 2.161156
800.2706, 2.245230
800.7527, 2.296165
801.2349, 2.319822
801.7170, 2.213615
802.1991, 2.166460
802.6812, 2.648203
803.1633, 3.680395
803.6454, 3.981709
804.1276, 2.557714
804.6097, 1.465763
805.0918, 1.767849
805.5739, 2.564304
806.0560, 3.016396
806.5381, 3.015066
807.0203, 2.708138
807.5024, 2.077274
807.9845, 1.487211
808.4666, 1.536446
808.9487, 2.073263
809.4308, 2.617514
809.9130, 3.118401
810.3951, 3.074026
810.8772, 2.035017
811.3593, 0.6684210
811.8414, 0.3967860
812.3235, 1.649666
812.8057, 2.384684
813.2878, 2.207453
813.7699, 2.033348
814.2520, 2.064005
814.7341, 2.221008
815.2162, 2.479006
815.6984, 2.802423
816.1805, 2.990826
816.6626, 2.992273
817.1447, 2.855164
817.6268, 2.434631
818.1089, 1.923491
818.5911, 1.659039
819.0732, 1.708735
819.5553, 1.962791
820.0374, 2.369501
820.5195, 2.799498
821.0016, 3.005669
821.4838, 2.981853
821.9659, 2.787790
822.4480, 2.342569
822.9301, 2.040836
823.4122, 2.135792
823.8943, 2.423479
824.3765, 2.601114
824.8586, 2.693359
825.3407, 2.630260
825.8228, 2.167688
826.3049, 1.803333
826.7870, 1.728935
827.2692, 1.848204
827.7513, 2.107805
828.2334, 2.431398
828.7155, 2.644125
829.1976, 2.628265
829.6797, 2.508442
830.1619, 2.344044
830.6440, 2.199610
831.1261, 2.238096
831.6082, 2.425840
832.0903, 2.437237
832.5724, 2.042572
833.0546, 1.596004
833.5367, 1.904696
834.0188, 3.167501
834.5009, 3.769461
834.9830, 3.427649
835.4651, 2.990940
835.9473, 2.730791
836.4294, 2.547199
836.9115, 2.307053
837.3936, 2.017694
837.8757, 1.818630
838.3578, 1.835320
838.8400, 1.814241
839.3221, 1.510578
839.8042, 1.232227
840.2863, 1.379303
840.7684, 1.846094
841.2505, 2.207689
841.7327, 2.257696
842.2148, 2.148415
842.6969, 2.022554
843.1790, 1.885578
843.6611, 1.761065
844.1432, 1.647985
844.6254, 1.517992
845.1075, 1.361362
845.5896, 1.165573
846.0717, 0.9028680
846.5538, 0.5738540
847.0359, 0.2730200
847.5181, 0.1404000
848.0002, 0.2410810
848.4823, 0.3050140
848.9644, 0.9592800
849.4465, 1.480585
849.9286, 1.809538
850.4108, 1.750313
850.8929, 1.013420
851.3750, 0.4708880
851.8571, 0.6725500
852.3392, 0.9713630
852.8214, 0.7020970
853.3035, 0.1465590
853.7856, 1.6331000E-02
854.2677, 0.4065780
854.7498, 0.9502090
855.2319, 1.198704
855.7141, 1.239874
856.1962, 1.285303
856.6783, 1.318344
857.1604, 1.194435
857.6425, 0.8671570
858.1246, 0.5227430
858.6068, 0.2963140
859.0889, 0.2005520
859.5710, 0.3134730
860.0531, 0.7879790
860.5352, 1.065687
861.0173, 1.044909
861.4995, 0.9311960
861.9816, 0.6983030
862.4637, 0.4855610
862.9458, 0.5539300
863.4279, 0.9460910
863.9100, 1.138906
864.3922, 0.8608720
864.8743, 0.5119460
865.3564, 0.2337420
865.8385, 4.3396000E-02
866.3206, 1.3126000E-02
866.8027, 4.2477001E-02
867.2849, 0.1129630
867.7670, 0.1437440
868.2491, 0.1705820
868.7312, 0.2689800
869.2133, 0.3855210
869.6954, 0.4072760
870.1776, 0.3283140
870.6597, 6.8412997E-02
871.1418, 0.4316430
871.6239, 0.9545440
872.1060, 1.196630
872.5881, 1.157368
873.0703, 1.007603
873.5524, 0.6458020
874.0345, 0.4411680
874.5166, 0.6554930
874.9987, 0.8487510
875.4808, 0.5084290
875.9630, 0.1426830
876.4451, 0.4251000
876.9272, 0.1289900
877.4093, 0.1156810
877.8914, 0.1921750
878.3735, 0.1794890
878.8557, 8.3939001E-02
879.3378, 7.2897002E-02
879.8199, 0.1487180
880.3020, 0.1150990
880.7841, 0.1790560
881.2662, 0.7134910
881.7484, 1.229984
882.2305, 0.9016150
882.7126, 0.1143000
883.1947, 0.1957380
883.6768, 9.0820000E-02
884.1589, 0.5747490
884.6411, 1.019091
885.1232, 1.390285
885.6053, 1.629532
886.0874, 1.738815
886.5695, 1.604454
887.0516, 1.097319
887.5338, 0.9102630
888.0159, 1.474491
888.4980, 2.197083
888.9801, 2.317822
889.4622, 1.839912
889.9443, 1.648506
890.4265, 1.853811
890.9086, 2.179092
891.3907, 2.847683
891.8728, 3.399588
892.3549, 3.457417
892.8370, 3.209965
893.3192, 3.052608
893.8013, 3.086302
894.2834, 3.074028
894.7655, 2.665928
895.2476, 2.386042
895.7297, 2.843452
896.2119, 3.673344
896.6940, 4.314352
897.1761, 4.620665
897.6582, 4.609230
898.1403, 4.246298
898.6224, 3.728930
899.1046, 3.258995
899.5867, 2.900766
900.0688, 3.064720
900.5509, 3.769457
901.0330, 4.271126
901.5151, 4.196688
901.9973, 3.890020
902.4794, 3.889917
902.9615, 4.197020
903.4436, 4.053802
903.9257, 3.121048
904.4078, 2.652794
904.8900, 3.302811
905.3721, 3.964630
905.8542, 3.656563
906.3363, 2.747128
906.8184, 2.296371
907.3005, 2.567783
907.7827, 2.668694
908.2648, 2.305630
908.7469, 1.948513
909.2290, 1.836742
909.7111, 1.863159
910.1932, 1.851284
910.6754, 1.786106
911.1575, 1.822178
911.6396, 2.211842
912.1217, 2.498940
912.6038, 2.149338
913.0859, 1.533150
913.5681, 1.091557
914.0502, 0.8975410
914.5323, 1.009232
915.0144, 1.444099
915.4965, 1.908417
915.9786, 2.027660
916.4607, 1.897224
916.9428, 1.831272
917.4249, 1.835587
917.9070, 1.964531
918.3892, 2.240314
918.8713, 2.446148
919.3534, 2.385483
919.8355, 2.169319
920.3176, 2.155151
920.7997, 2.424126
921.2819, 2.635563
921.7640, 2.836781
922.2461, 2.853863
922.7282, 2.470028
923.2103, 1.986858
923.6924, 1.853142
924.1746, 2.041691
924.6567, 1.961918
925.1388, 1.277691
925.6209, 0.7589190
926.1030, 0.6249390
926.5851, 0.6220660
927.0673, 0.5754660
927.5494, 0.5317000
928.0315, 0.6078610
928.5136, 0.8276790
928.9957, 1.072483
929.4778, 1.509995
929.9600, 1.746082
930.4421, 1.268784
930.9242, 0.4898260
931.4063, 2.5131000E-02
931.8884, 6.5701000E-02
932.3705, 1.5350000E-02
932.8527, 0.2028770
933.3348, 0.3233990
933.8169, 7.6560996E-02
934.2990, 0.7194790
934.7811, 0.5778660
935.2632, 0.2263450
935.7454, 0.4986610
936.2275, 0.1535420
936.7096, 0.9261280
937.1917, 1.036983
937.6738, 0.6363140
938.1559, 0.2453040
938.6381, 0.1451800
939.1202, 0.4477540
939.6023, 0.5808940
940.0844, 0.8558120
940.5665, 1.576237
941.0486, 2.294289
941.5308, 2.235847
942.0129, 1.273796
942.4950, 0.8891260
942.9771, 1.600136
943.4592, 2.096001
943.9413, 1.890423
944.4235, 1.718586
944.9056, 2.310459
945.3877, 3.212448
945.8698, 3.286285
946.3519, 2.089649
946.8340, 1.447609
947.3162, 2.212154
947.7983, 3.195686
948.2804, 4.000599
948.7625, 4.542282
949.2446, 4.645260
949.7267, 4.416363
950.2089, 4.269642
950.6910, 4.398067
951.1731, 4.616779
951.6552, 4.804531
952.1373, 4.982826
952.6194, 5.126133
953.1016, 5.291431
953.5837, 5.625187
954.0658, 6.155952
954.5479, 6.767662
955.0300, 7.381042
955.5121, 7.994793
955.9943, 8.588783
956.4764, 9.181847
956.9585, 9.821186
957.4406, 10.52490
957.9227, 11.35196
958.4048, 12.32269
958.8870, 13.58162
959.3691, 15.43217
959.8512, 17.74029
960.3333, 19.25320
960.8154, 19.76545
961.2975, 21.02887
961.7797, 23.50529
962.2618, 26.17353
962.7439, 28.14932
963.2260, 30.13195
963.7081, 33.76277
964.1902, 39.53617
964.6724, 44.37713
965.1545, 47.95829
965.6366, 51.12406
966.1187, 54.03534
966.6008, 56.61599
967.0829, 58.23676
967.5651, 59.51269
968.0472, 62.25838
968.5293, 66.49011
969.0114, 72.42134
969.4935, 79.61777
969.9756, 89.10329
970.4578, 100.3706
970.9399, 114.8527
971.4220, 132.6700
971.9041, 154.9380
972.3862, 185.5074
972.8683, 225.1939
973.3505, 274.2695
973.8326, 337.4084
974.3147, 406.2025
974.7968, 479.2267
975.2789, 549.6732
975.7610, 606.7928
976.2432, 648.7554
976.7253, 681.6243
977.2074, 703.6878
977.6895, 727.9570
978.1716, 765.5129
978.6537, 816.5060
979.1359, 881.8697
979.6180, 961.5851
980.1001, 1054.602
980.5822, 1160.856
981.0643, 1281.368
981.5464, 1414.378
982.0286, 1564.596
982.5107, 1734.196
982.9928, 1927.056
983.4749, 2157.476
983.9570, 2428.549
984.4391, 2758.926
984.9213, 3154.519
985.4034, 3645.635
985.8855, 4289.188
986.3676, 5071.713
986.8497, 5923.022
987.3318, 6877.966
987.8140, 7512.368
988.2961, 7768.262
988.7782, 7555.845
989.2603, 6739.858
989.7424, 5541.721
990.2245, 4374.744
990.7067, 3210.925
991.1888, 2304.551
991.6709, 1692.986
992.1530, 1237.751
992.6351, 942.9478
993.1172, 740.0439
993.5994, 592.0937
994.0815, 489.8619
994.5636, 407.0124
995.0457, 347.0422
995.5278, 296.8501
996.0099, 258.7439
996.4921, 226.9368
996.9742, 202.0815
997.4563, 181.2096
997.9384, 162.1904
998.4205, 144.9994
998.9026, 130.2389
999.3848, 118.2921
999.8669, 108.1474
1000.349, 100.3990
1000.831, 93.50600
1001.313, 86.82497
1001.795, 80.61238
1002.277, 74.99672
1002.760, 70.03587
1003.242, 65.91951
1003.724, 63.08237
1004.206, 60.40742
1004.688, 57.45703
1005.170, 54.29527
1005.652, 50.56894
1006.134, 46.90783
1006.617, 44.39028
1007.099, 42.96230
1007.581, 41.38080
1008.063, 38.85546
1008.545, 36.41349
1009.027, 35.02919
1009.509, 34.05659
1009.991, 32.79850
1010.473, 31.28996
1010.956, 29.67847
1011.438, 28.05006
1011.920, 26.65234
1012.402, 25.71373
1012.884, 24.90443
1013.366, 23.65586
1013.848, 22.32684
1014.330, 21.79322
1014.813, 21.82819
1015.295, 21.39881
1015.777, 20.22334
1016.259, 19.00983
1016.741, 18.36040
1017.223, 18.05876
1017.705, 17.94579
1018.187, 17.82074
1018.669, 16.75551
1019.152, 14.84391
1019.634, 13.33384
1020.116, 12.68101
1020.598, 12.35988
1021.080, 11.86095
1021.562, 11.25853
1022.044, 10.78011
1022.526, 10.41032
1023.008, 9.952782
1023.491, 9.387543
1023.973, 9.020206
1024.455, 9.005581
1024.937, 8.975422
1025.419, 8.476009
1025.901, 7.630226
1026.383, 6.945202
1026.865, 6.406334
1027.348, 6.405811
1027.830, 7.150608
1028.312, 7.296555
1028.794, 6.057571
1029.276, 4.565395
1029.758, 4.314045
1030.240, 5.094139
1030.722, 5.243465
1031.204, 4.662128
1031.687, 3.869347
1032.169, 2.612595
1032.651, 2.099831
1033.133, 3.276424
1033.615, 4.795151
1034.097, 4.847004
1034.579, 3.534782
1035.061, 2.399212
1035.544, 1.374908
1036.026, 0.6879270
1036.508, 0.3763470
1036.990, 0.3960380
1037.472, 0.9990540
1037.954, 1.626682
1038.436, 1.433048
1038.918, 0.4622150
1039.401, 2.1865999E-02
1039.883, 0.2484630
1040.365, 0.4998630
1040.847, 0.7643010
1041.329, 0.8879280
1041.811, 0.7926980
1042.293, 0.5530170
1042.775, 0.2267610
1043.257, 0.1821780
1043.740, 0.5202480
1044.222, 0.6871870
1044.704, 0.9381900
1045.186, 1.483288
1045.668, 1.885403
1046.150, 1.802605
1046.632, 1.570091
1047.114, 1.673988
1047.596, 2.082142
1048.079, 2.180740
1048.561, 1.591881
1049.043, 1.187664
1049.525, 1.184784
1050.007, 1.256393
1050.489, 1.142319
1050.971, 1.074821
1051.453, 1.483833
1051.936, 2.284195
1052.418, 2.633728
1052.900, 2.211823
1053.382, 1.662865
1053.864, 0.9038010
1054.346, 0.2890550
1054.828, 0.1793140
1055.310, 0.1887970
1055.792, 0.2284470
1056.275, 1.005096
1056.757, 1.513153
1057.239, 1.663872
1057.721, 1.452629
1058.203, 0.6564710
1058.685, 0.2783050
1059.167, 1.483322
1059.649, 2.429810
1060.131, 2.264000
1060.614, 1.228981
1061.096, 0.6888200
1061.578, 1.271210
1062.060, 1.632172
1062.542, 1.082718
1063.024, 0.4514540
1063.506, 0.2218170
1063.988, 0.1594620
1064.471, 1.7059000E-02
1064.953, 0.3012160
1065.435, 0.5153810
1065.917, 0.5576930
1066.399, 0.7469790
1066.881, 1.230385
1067.363, 1.871727
1067.845, 2.731735
1068.328, 3.598907
1068.810, 4.093086
1069.292, 4.392288
1069.774, 5.139900
1070.256, 6.578682
1070.738, 8.063339
1071.220, 9.404785
1071.702, 10.58746
1072.184, 11.39758
1072.667, 12.18948
1073.149, 13.27837
1073.631, 14.68134
1074.113, 16.25930
1074.595, 17.95921
1075.077, 19.92754
1075.559, 22.39742
1076.041, 24.92290
1076.523, 27.01025
1077.006, 29.23315
1077.488, 32.33641
1077.970, 35.99664
1078.452, 39.30507
1078.934, 42.04821
1079.416, 45.30591
1079.898, 49.93613
1080.380, 54.75389
1080.862, 59.74130
1081.345, 64.14331
1081.827, 67.08197
1082.309, 69.00115
1082.791, 70.95300
1083.273, 73.04996
1083.755, 73.79283
1084.237, 72.66240
1084.719, 69.90462
1085.202, 65.12067
1085.684, 59.26630
1086.166, 52.18402
1086.648, 45.02881
1087.130, 39.64616
1087.612, 36.10373
1088.094, 32.52461
1088.576, 27.95253
1089.058, 23.78169
1089.541, 20.50060
1090.023, 17.93440
1090.505, 16.18411
1090.987, 14.94199
1091.469, 13.70336
1091.951, 12.54791
1092.433, 12.13887
1092.915, 12.86227
1093.397, 13.81201
1093.880, 14.50694
1094.362, 15.44940
1094.844, 17.24911
1095.326, 19.23337
1095.808, 20.40063
1096.290, 21.05280
1096.772, 22.28549
1097.254, 24.29491
1097.737, 27.20937
1098.219, 31.87164
1098.701, 36.38251
1099.183, 39.37755
1099.665, 42.29585
1100.147, 46.34692
1100.629, 51.38177
1101.111, 56.97177
1101.594, 63.12074
1102.076, 69.29982
1102.558, 76.86171
1103.040, 82.40314
1103.522, 83.98477
1104.004, 84.09833
1104.486, 85.10860
1104.968, 85.50745
1105.450, 82.62587
1105.932, 76.27565
1106.415, 68.56798
1106.897, 58.06831
1107.379, 48.93602
1107.861, 42.66290
1108.343, 37.16107
1108.825, 31.39096
1109.307, 25.70755
1109.789, 20.32951
1110.272, 15.44476
1110.754, 11.88237
1111.236, 10.59569
1111.718, 8.942795
1112.200, 5.957001
1112.682, 3.461807
1113.164, 2.436188
1113.646, 1.876846
1114.129, 0.5455470
1114.611, 1.092773
1115.093, 1.273300
1115.575, 0.8382420
1116.057, 1.857803
1116.539, 1.032257
1117.021, 0.1729890
1117.503, 0.6191100
1117.985, 0.9666440
1118.468, 0.3238680
1118.950, 0.7449040
1119.432, 1.116409
1119.914, 0.7205200
1120.396, 0.5903930
1120.878, 0.5108030
1121.360, 1.177521
1121.842, 2.943710
1122.324, 4.957001
1122.807, 6.934143
1123.289, 8.751114
1123.771, 10.14796
1124.253, 11.24031
1124.735, 13.03951
1125.217, 15.71654
1125.699, 18.67929
1126.181, 22.16864
1126.664, 25.03642
1127.146, 26.65257
1127.628, 28.12392
1128.110, 30.41293
1128.592, 33.36279
1129.074, 36.36807
1129.556, 39.25926
1130.038, 44.00671
1130.521, 50.91573
1131.003, 57.38004
1131.485, 62.68764
1131.967, 68.38383
1132.449, 75.44742
1132.931, 83.62314
1133.413, 92.58060
1133.895, 102.3076
1134.377, 113.0497
1134.859, 124.8367
1135.342, 136.1141
1135.824, 146.6912
1136.306, 157.9455
1136.788, 170.5414
1137.270, 181.6988
1137.752, 188.6993
1138.234, 191.4688
1138.716, 189.3528
1139.199, 182.8548
1139.681, 173.0364
1140.163, 160.7052
1140.645, 149.3923
1141.127, 140.1355
1141.609, 132.2228
1142.091, 125.2036
1142.573, 119.0957
1143.056, 114.3974
1143.538, 110.3984
1144.020, 105.2575
1144.502, 99.71967
1144.984, 95.93393
1145.466, 93.87711
1145.948, 91.91748
1146.430, 89.34235
1146.912, 87.04066
1147.395, 85.81543
1147.877, 85.24152
1148.359, 84.84540
1148.841, 84.79736
1149.323, 85.69403
1149.805, 87.04774
1150.287, 87.55554
1150.769, 87.10965
1151.251, 87.14334
1151.734, 88.45261
1152.216, 90.27441
1152.698, 91.94757
1153.180, 94.09024
1153.662, 97.77618
1154.144, 101.8102
1154.626, 104.5138
1155.108, 106.0983
1155.591, 107.7627
1156.073, 109.7558
1156.555, 112.2714
1157.037, 115.0752
1157.519, 118.7964
1158.001, 124.7294
1158.483, 130.6873
1158.965, 134.7365
1159.448, 137.7835
1159.930, 141.0215
1160.412, 144.6096
1160.894, 150.3744
1161.376, 160.7305
1161.858, 169.8494
1162.340, 176.6131
1162.822, 182.7607
1163.304, 188.7113
1163.786, 194.4406
1164.269, 200.0789
1164.751, 205.4934
1165.233, 210.4368
1165.715, 215.2968
1166.197, 217.4478
1166.679, 216.4675
1167.161, 214.1074
1167.643, 210.4879
1168.126, 205.8052
1168.608, 200.2073
1169.090, 193.7780
1169.572, 186.2514
1170.054, 178.0331
1170.536, 171.6950
1171.018, 167.0426
1171.500, 163.2570
1171.983, 160.3505
1172.465, 157.6698
1172.947, 154.8130
1173.429, 151.6871
1173.911, 148.4160
1174.393, 145.4191
1174.875, 142.9501
1175.357, 140.8016
1175.839, 139.1564
1176.322, 138.0852
1176.804, 137.6614
1177.286, 137.6922
1177.768, 137.2565
1178.250, 135.9752
1178.732, 134.2507
1179.214, 132.0149
1179.696, 130.0976
1180.178, 130.3225
1180.661, 131.1585
1181.143, 130.1951
1181.625, 127.8400
1182.107, 125.0757
1182.589, 122.3513
1183.071, 120.3413
1183.553, 119.3326
1184.035, 119.2283
1184.518, 120.9313
1185.000, 122.4010
1185.482, 122.3231
1185.964, 121.1806
1186.446, 118.9835
1186.928, 116.3204
1187.410, 114.3144
1187.892, 113.2024
1188.375, 112.5211
1188.857, 113.0543
1189.339, 112.5281
1189.821, 109.1510
1190.303, 106.2343
1190.785, 105.9877
1191.267, 106.5041
1191.749, 105.8099
1192.231, 104.1008
1192.714, 102.2291
1193.196, 100.3229
1193.678, 97.66827
1194.160, 93.35669
1194.642, 90.96436
1195.124, 91.91672
1195.606, 92.81039
1196.088, 91.67694
1196.570, 89.42438
1197.053, 87.19904
1197.535, 85.05765
1198.017, 83.26248
1198.499, 81.82651
1198.981, 81.35062
1199.463, 81.79443
1199.945, 81.14035
1200.427, 78.86325
1200.910, 76.54672
1201.392, 75.32837
1201.874, 74.35501
1202.356, 72.40997
1202.838, 69.81296
1203.320, 67.04041
1203.802, 64.25125
1204.284, 61.51007
1204.766, 59.11310
1205.249, 58.28918
1205.731, 59.13629
1206.213, 59.04419
1206.695, 55.84692
1207.177, 52.56201
1207.659, 52.19360
1208.141, 52.01059
1208.623, 49.24225
1209.105, 45.47501
1209.588, 42.73798
1210.070, 40.95404
1210.552, 38.93341
1211.034, 36.27609
1211.516, 34.92035
1211.998, 37.08661
1212.480, 38.03525
1212.962, 35.87204
1213.445, 33.11072
1213.927, 31.19003
1214.409, 29.20193
1214.891, 25.72540
1215.373, 21.36401
1215.855, 18.85214
1216.337, 18.55078
1216.819, 18.63037
1217.302, 19.40897
1217.784, 19.49429
1218.266, 18.75168
1218.748, 15.95990
1219.230, 9.927856
1219.712, 4.358490
1220.194, 4.526123
1220.676, 8.235962
1221.158, 8.427734
1221.641, 5.702881
1222.123, 2.659119
1222.605, 0.2700200
1223.087, 1.616760
1223.569, 1.307068
1224.051, 1.589539
1224.533, 3.782715
1225.015, 5.735718
1225.497, 4.551453
1225.980, 2.673889
1226.462, 2.619141
1226.944, 3.860046
1227.426, 6.889343
1227.908, 10.14252
1228.390, 9.981995
1228.872, 6.615662
1229.354, 3.685425
1229.837, 6.184570
1230.319, 7.524414
1230.801, 3.933167
1231.283, 0.7139280
1231.765, 1.409912
1232.247, 2.079956
1232.729, 1.184631
1233.211, 6.227783
1233.693, 8.902649
1234.176, 9.317444
1234.658, 10.64343
1235.140, 13.47437
1235.622, 15.34503
1236.104, 15.72119
1236.586, 16.80023
1237.068, 19.37433
1237.550, 22.18195
1238.032, 24.34015
1238.515, 25.78284
1238.997, 26.20953
1239.479, 26.06592
1239.961, 27.22736
1240.443, 29.48969
1240.925, 32.20471
1241.407, 35.22223
1241.889, 38.15790
1242.372, 40.87885
1242.854, 43.02606
1243.336, 44.16058
1243.818, 46.14734
1244.300, 53.02478
1244.782, 59.30060
1245.264, 57.69794
1245.746, 53.91498
1246.229, 55.46429
1246.711, 60.23053
1247.193, 62.37531
1247.675, 61.26501
1248.157, 61.04858
1248.639, 62.53595
1249.121, 65.40338
1249.603, 71.86249
1250.085, 76.78467
1250.568, 77.61029
1251.050, 77.46326
1251.532, 78.55798
1252.014, 80.09503
1252.496, 80.27313
1252.978, 79.03723
1253.460, 78.82129
1253.942, 80.56879
1254.424, 82.64014
1254.907, 84.54688
1255.389, 85.04309
1255.871, 82.91223
1256.353, 80.68597
1256.835, 79.08405
1257.317, 76.78003
1257.799, 75.76996
1258.281, 75.65088
1258.764, 72.94800
1259.246, 70.23596
1259.728, 68.85168
1260.210, 69.29517
1260.692, 68.49597
1261.174, 66.40009
1261.656, 64.26794
1262.138, 62.83740
1262.620, 61.30188
1263.103, 58.92786
1263.585, 56.44067
1264.067, 53.73657
1264.549, 51.75269
1265.031, 50.99744
1265.513, 51.39392
1265.995, 53.56006
1266.477, 56.52026
1266.959, 57.12811
1267.442, 54.78223
1267.924, 51.67249
1268.406, 47.59534
1268.888, 45.04065
1269.370, 44.76587
1269.852, 43.45203
1270.334, 39.32629
1270.816, 35.20215
1271.299, 34.14124
1271.781, 34.37390
1272.263, 32.32654
1272.745, 29.26929
1273.227, 28.92969
1273.709, 29.57556
1274.191, 25.00085
1274.673, 16.72217
1275.156, 13.36108
1275.638, 17.40308
1276.120, 21.06116
1276.602, 19.92432
1277.084, 17.87402
1277.566, 16.80176
1278.048, 15.55273
1278.530, 12.71680
1279.012, 9.875732
1279.495, 9.405884
1279.977, 10.01489
1280.459, 8.744141
1280.941, 4.642212
1281.423, 3.669800
1281.905, 6.894165
1282.387, 8.087280
1282.869, 6.265503
1283.351, 3.817017
1283.834, 1.066895
1284.316, 0.4844970
1284.798, 0.4227290
1285.280, 1.935181
1285.762, 0.9143070
1286.244, 0.0000000E+00
##END=



