##NAMES=Baryte
##RRUFFID=R050342
##IDEAL CHEMISTRY=BaSO_4_
##LOCALITY=Palos Verdes, Los Angeles County, California, USA
##OWNER=RRUFF
##SOURCE=California Institute of Technology
##DESCRIPTION=Light brown fragment
##STATUS=The identification of this mineral has been confirmed by X-ray diffraction and chemical analysis
##URL=rruff.info/R050342
##MEASURED CHEMISTRY=Ba_1.00_S_1.00_O_4_
90.587, 0.000
91.981, 0.870
93.375, 22.112
94.768, 72.737
96.161, 127.864
97.554, 156.466
98.947, 139.207
100.340, 98.869
101.732, 52.102
103.124, 50.646
104.516, 10.700
105.908, 115.906
107.300, 33.342
108.691, 100.506
110.082, 134.315
111.473, 122.703
112.864, 192.610
114.254, 222.986
115.644, 186.785
117.034, 259.968
118.424, 222.500
119.813, 220.354
121.203, 313.508
122.592, 260.942
123.981, 268.635
125.369, 313.569
126.758, 310.729
128.146, 343.103
129.534, 295.680
130.922, 360.448
132.309, 297.398
133.696, 303.515
135.083, 281.783
136.470, 378.190
137.857, 324.726
139.243, 337.384
140.630, 329.158
142.016, 339.040
143.401, 377.028
144.787, 394.116
146.172, 429.305
147.557, 464.213
148.942, 519.989
150.327, 533.477
151.711, 567.079
153.096, 591.765
154.480, 557.526
155.863, 529.366
157.247, 467.282
158.630, 429.268
160.013, 421.321
161.396, 370.440
162.779, 341.626
164.161, 391.931
165.544, 338.297
166.926, 345.722
168.308, 308.207
169.689, 333.778
171.070, 302.406
172.452, 315.090
173.833, 322.814
175.213, 370.521
176.594, 375.226
177.974, 346.936
179.354, 426.657
180.734, 382.392
182.114, 517.145
183.493, 550.920
184.872, 596.719
186.251, 697.543
187.630, 777.396
189.008, 722.276
190.387, 707.187
191.765, 667.127
193.143, 547.098
194.520, 497.114
195.898, 373.147
197.275, 388.212
198.652, 274.309
200.029, 312.438
201.405, 300.919
202.782, 253.372
204.158, 288.590
205.534, 285.839
206.909, 284.896
208.285, 206.200
209.660, 240.716
211.035, 272.998
212.410, 169.917
213.784, 207.335
215.159, 201.788
216.533, 238.272
217.907, 201.787
219.281, 198.330
220.654, 174.425
222.027, 168.295
223.400, 226.656
224.773, 190.328
226.146, 173.029
227.518, 243.757
228.891, 201.512
230.263, 189.311
231.634, 159.151
233.006, 150.023
234.377, 188.926
235.748, 162.725
237.119, 199.650
238.490, 191.602
239.860, 164.610
241.231, 143.652
242.601, 216.718
243.970, 144.808
245.340, 125.956
246.709, 226.665
248.079, 126.859
249.448, 187.084
250.816, 160.334
252.185, 174.609
253.553, 162.908
254.921, 126.320
256.289, 160.847
257.657, 134.103
259.024, 146.754
260.391, 107.541
261.758, 110.442
263.125, 154.438
264.492, 131.528
265.858, 138.701
267.224, 99.951
268.590, 128.271
269.956, 58.533
271.321, 100.979
272.687, 169.481
274.052, 59.038
275.416, 78.644
276.781, 132.297
278.146, 106.997
279.510, 43.739
280.874, 136.523
282.237, 93.347
283.601, 123.208
284.964, 15.106
286.327, 112.039
287.690, 113.005
289.053, 151.003
290.416, 110.033
291.778, 127.094
293.140, 94.184
294.502, 203.302
295.863, 0.551
297.225, 141.621
298.586, 83.819
299.947, 102.044
301.308, 128.293
302.668, 55.566
304.029, 2.863
305.389, 48.184
306.749, 75.526
308.108, 95.892
309.468, 73.279
310.827, 15.313
312.186, 77.116
313.545, 13.436
314.903, 68.093
316.262, 34.582
317.620, 53.088
318.978, 30.614
320.336, 28.841
321.693, 66.719
323.051, 48.297
324.408, 25.893
325.765, 1.494
327.121, 9.037
328.478, 19.952
329.834, 19.556
331.190, 18.010
332.546, 7.140
333.902, 10.384
335.257, 43.105
336.612, 24.841
337.967, 94.015
339.322, 39.780
340.677, 17.561
342.031, 57.356
343.385, 23.166
344.739, 14.992
346.093, 77.832
347.446, 21.313
348.799, 1.554
350.153, 59.438
351.505, 34.335
352.858, 50.247
354.210, 72.061
355.563, 70.001
356.915, 86.955
358.267, 80.931
359.618, 84.766
360.969, 65.900
362.321, 85.910
363.672, 77.683
365.022, 79.968
366.373, 33.019
367.723, 20.217
369.073, 12.292
370.423, 8.673
371.773, 62.503
373.122, 43.631
374.471, 48.750
375.821, 89.878
377.169, 73.983
378.518, 96.174
379.866, 10.343
381.215, 102.525
382.563, 116.731
383.910, 34.934
385.258, 15.513
386.605, 76.737
387.952, 93.956
389.299, 54.206
390.646, 92.464
391.992, 48.774
393.339, 58.053
394.685, 59.342
396.031, 30.731
397.376, 81.481
398.722, 42.202
400.067, 77.120
401.412, 3.451
402.757, 70.777
404.101, 24.125
405.446, 34.482
406.790, 15.079
408.134, 16.485
409.478, 17.139
410.821, 17.088
412.165, 9.220
413.508, 5.995
414.851, 1.343
416.193, 3.932
417.536, 17.484
418.878, 40.918
420.220, 39.817
421.562, 54.624
422.904, 55.313
424.245, 69.231
425.586, 94.763
426.927, 101.308
428.268, 135.863
429.609, 126.430
430.949, 165.618
432.289, 157.598
433.629, 242.199
434.969, 250.812
436.309, 310.438
437.648, 295.072
438.987, 467.717
440.326, 543.391
441.665, 742.176
443.003, 903.868
444.342, 1207.569
445.680, 1630.278
447.018, 2089.997
448.355, 2753.724
449.693, 3072.459
451.030, 3600.203
452.367, 3658.953
453.704, 3341.712
455.041, 2935.479
456.377, 2684.254
457.713, 2664.028
459.049, 2779.816
460.385, 2759.631
461.721, 2430.450
463.056, 2003.291
464.391, 1357.137
465.726, 977.991
467.061, 791.851
468.395, 493.717
469.730, 361.590
471.064, 343.468
472.398, 167.135
473.731, 154.025
475.065, 4.741
476.398, 98.654
477.731, 104.573
479.064, 97.498
480.397, 97.427
481.729, 68.812
483.062, 58.297
484.394, 13.715
485.725, 29.672
487.057, 15.618
488.389, 25.480
489.720, 26.121
491.051, 14.228
492.382, 19.457
493.712, 49.357
495.043, 25.379
496.373, 47.862
497.703, 3.565
499.032, 37.463
500.362, 42.495
501.691, 14.529
503.020, 46.567
504.349, 24.608
505.678, 60.652
507.007, 25.698
508.335, 42.179
509.663, 14.599
510.991, 35.653
512.319, 20.710
513.646, 31.231
514.973, 38.821
516.300, 58.866
517.627, 98.915
518.954, 64.964
520.280, 83.008
521.607, 19.501
522.933, 58.558
524.259, 78.618
525.584, 42.643
526.910, 51.296
528.235, 120.738
529.560, 13.772
530.885, 81.812
532.209, 10.449
533.534, 32.591
534.858, 70.631
536.182, 58.671
537.506, 73.216
538.829, 45.255
540.152, 56.794
541.476, 16.832
542.799, 79.868
544.121, 52.089
545.444, 104.038
546.766, 7.949
548.088, 77.996
549.410, 88.019
550.732, 17.019
552.053, 46.018
553.375, 65.128
554.696, 44.876
556.017, 13.792
557.337, 138.160
558.658, 39.868
559.978, 24.815
561.298, 24.165
562.618, 77.922
563.938, 48.845
565.257, 11.766
566.576, 20.736
567.895, 10.647
569.214, 3.214
570.533, 76.075
571.851, 35.970
573.170, 8.863
574.488, 96.738
575.805, 66.620
577.123, 39.498
578.440, 17.032
579.758, 2.024
581.075, 63.047
582.391, 9.098
583.708, 72.741
585.024, 30.575
586.341, 41.404
587.657, 71.228
588.972, 123.047
590.288, 108.861
591.603, 69.795
592.918, 91.553
594.233, 138.251
595.548, 79.044
596.863, 89.831
598.177, 85.278
599.491, 28.053
600.805, 127.821
602.119, 156.737
603.432, 159.493
604.746, 150.443
606.059, 238.308
607.372, 272.191
608.685, 183.921
609.997, 396.643
611.309, 481.753
612.621, 659.461
613.933, 841.501
615.245, 1105.195
616.557, 1149.882
617.868, 1132.966
619.179, 972.638
620.490, 864.547
621.801, 847.979
623.111, 839.030
624.421, 812.812
625.731, 946.667
627.041, 980.507
628.351, 1302.236
629.660, 1184.900
630.970, 1255.755
632.279, 1171.417
633.588, 767.338
634.896, 734.918
636.205, 598.781
637.513, 743.421
638.821, 600.967
640.129, 757.947
641.437, 932.478
642.744, 1076.141
644.051, 1179.805
645.358, 1429.937
646.665, 1505.430
647.972, 1374.914
649.278, 1110.627
650.584, 873.094
651.890, 618.848
653.196, 560.344
654.502, 363.995
655.807, 345.036
657.113, 229.580
658.418, 192.984
659.722, 205.598
661.027, 148.239
662.331, 162.611
663.636, 151.075
664.940, 217.022
666.244, 51.362
667.547, 116.689
668.851, 74.158
670.154, 181.504
671.457, 71.910
672.760, 102.249
674.062, 157.880
675.365, 88.381
676.667, 42.974
677.969, 170.631
679.271, 106.983
680.572, 133.621
681.874, 25.912
683.175, 164.207
684.476, 128.235
685.777, 106.418
687.077, 109.803
688.378, 32.931
689.678, 201.333
690.978, 176.431
692.278, 158.517
693.577, 30.393
694.877, 247.646
696.176, 41.749
697.475, 184.758
698.774, 114.789
700.072, 141.590
701.371, 63.419
702.669, 163.377
703.967, 24.338
705.265, 86.544
706.562, 221.459
707.860, 133.441
709.157, 66.551
710.454, 112.546
711.751, 18.567
713.047, 190.825
714.344, 51.663
715.640, 124.464
716.936, 75.252
718.232, 54.351
719.527, 133.112
720.823, 129.861
722.118, 80.365
723.413, 111.171
724.708, 100.024
726.002, 30.159
727.297, 235.840
728.591, 100.517
729.885, 76.804
731.179, 200.448
732.472, 120.185
733.766, 2.201
735.059, 37.160
736.352, 58.610
737.645, 112.164
738.937, 145.285
740.230, 220.796
741.522, 204.729
742.814, 204.837
744.106, 154.251
745.397, 144.710
746.689, 70.159
747.980, 34.594
749.271, 39.012
750.562, 104.413
751.853, 197.803
753.143, 47.684
754.433, 171.641
755.723, 105.851
757.013, 66.151
758.303, 179.438
759.592, 55.715
760.881, 74.977
762.170, 69.226
763.459, 134.461
764.748, 112.685
766.036, 37.896
767.325, 177.097
768.613, 41.339
769.901, 134.518
771.188, 206.685
772.476, 45.162
773.763, 186.943
775.050, 26.965
776.337, 123.092
777.624, 65.137
778.910, 74.170
780.196, 55.188
781.482, 56.711
782.768, 81.184
784.054, 95.162
785.339, 49.180
786.625, 92.138
787.910, 30.916
789.195, 107.989
790.479, 43.891
791.764, 89.776
793.048, 131.659
794.332, 16.462
795.616, 114.383
796.900, 76.218
798.183, 74.040
799.467, 20.151
800.750, 161.622
802.033, 176.384
803.316, 4.134
804.598, 200.866
805.880, 95.414
807.163, 99.231
808.445, 59.868
809.726, 101.488
811.008, 80.099
812.289, 127.696
813.570, 58.283
814.851, 48.859
816.132, 129.419
817.413, 85.974
818.693, 17.516
819.973, 177.042
821.253, 137.357
822.533, 73.873
823.813, 100.377
825.092, 142.870
826.371, 96.350
827.650, 31.827
828.929, 52.290
830.208, 33.075
831.486, 24.543
832.764, 78.166
834.042, 23.573
835.320, 86.968
836.598, 80.384
837.875, 159.753
839.152, 101.126
840.429, 5.513
841.706, 208.826
842.983, 22.544
844.259, 129.758
845.536, 120.048
846.812, 103.329
848.088, 120.558
849.363, 84.816
850.639, 164.563
851.914, 91.802
853.189, 17.971
854.464, 49.231
855.739, 132.322
857.013, 150.516
858.288, 34.762
859.562, 100.916
860.836, 72.083
862.110, 48.238
863.383, 72.270
864.656, 73.661
865.930, 126.424
867.203, 91.558
868.475, 168.469
869.748, 125.583
871.020, 23.614
872.292, 120.556
873.564, 129.649
874.836, 155.733
876.108, 69.757
877.379, 5.825
878.650, 95.883
879.922, 134.313
881.192, 94.356
882.463, 112.392
883.733, 128.594
885.004, 70.793
886.274, 7.811
887.544, 46.231
888.813, 240.102
890.083, 86.926
891.352, 133.908
892.621, 220.007
893.890, 101.982
895.159, 119.952
896.427, 131.914
897.695, 135.005
898.964, 199.960
900.232, 169.784
901.499, 182.256
902.767, 181.810
904.034, 114.740
905.301, 56.691
906.568, 155.945
907.835, 259.876
909.102, 216.803
910.368, 212.568
911.634, 138.152
912.900, 192.857
914.166, 91.634
915.432, 164.385
916.697, 130.420
917.962, 128.594
919.227, 279.701
920.492, 72.273
921.757, 212.676
923.021, 218.531
924.285, 183.381
925.550, 196.819
926.813, 118.656
928.077, 166.444
929.341, 91.553
930.604, 192.195
931.867, 215.969
933.130, 125.559
934.393, 80.232
935.655, 245.916
936.918, 65.875
938.180, 285.825
939.442, 106.604
940.703, 220.538
941.965, 171.718
943.226, 181.241
944.488, 85.687
945.749, 147.634
947.009, 258.944
948.270, 154.083
949.530, 188.681
950.791, 190.264
952.051, 145.363
953.311, 222.087
954.570, 135.808
955.830, 290.418
957.089, 209.129
958.348, 172.542
959.607, 67.195
960.866, 231.681
962.124, 212.337
963.383, 297.104
964.641, 381.201
965.899, 355.673
967.156, 397.192
968.414, 440.138
969.671, 473.713
970.928, 487.900
972.185, 431.300
973.442, 563.372
974.699, 689.889
975.955, 791.510
977.211, 1008.172
978.468, 1298.769
979.723, 1870.060
980.979, 2699.465
982.234, 4451.762
983.490, 8890.976
984.745, 17180.475
986.000, 32214.684
987.254, 45765.207
988.509, 42681.715
989.763, 28170.344
991.017, 15946.936
992.271, 9257.281
993.525, 5448.897
994.779, 3296.204
996.032, 2019.814
997.285, 1426.434
998.538, 1102.027
999.791, 767.654
1001.044, 813.196
1002.296, 418.816
1003.548, 458.392
1004.800, 519.213
1006.052, 444.622
1007.304, 491.251
1008.555, 260.876
1009.807, 398.220
1011.058, 315.836
1012.309, 388.329
1013.559, 259.729
1014.810, 154.236
1016.060, 126.742
1017.310, 90.535
1018.560, 233.974
1019.810, 101.605
1021.060, 183.252
1022.309, 179.604
1023.558, 112.261
1024.807, 271.940
1026.056, 117.615
1027.305, 169.169
1028.553, 157.411
1029.801, 191.070
1031.049, 142.762
1032.297, 105.437
1033.545, 12.155
1034.793, 30.027
1036.040, 25.595
1037.287, 54.738
1038.534, 93.385
1039.781, 129.424
1041.027, 142.676
1042.274, 47.601
1043.520, 112.466
1044.766, 212.566
1046.012, 135.424
1047.257, 45.555
1048.503, 105.647
1049.748, 164.716
1050.993, 105.381
1052.238, 220.823
1053.483, 198.494
1054.727, 74.692
1055.971, 132.419
1057.216, 178.800
1058.459, 106.821
1059.703, 86.475
1060.947, 12.881
1062.190, 168.749
1063.433, 161.371
1064.676, 86.982
1065.919, 53.585
1067.162, 19.178
1068.404, 10.757
1069.646, 13.071
1070.888, 18.015
1072.130, 103.516
1073.372, 167.353
1074.613, 134.878
1075.855, 99.441
1077.096, 25.485
1078.337, 27.283
1079.578, 195.194
1080.818, 71.835
1082.059, 153.679
1083.299, 76.130
1084.539, 165.568
1085.779, 44.522
1087.018, 28.849
1088.258, 82.542
1089.497, 6.079
1090.736, 28.402
1091.975, 87.187
1093.213, 34.977
1094.452, 42.231
1095.690, 126.493
1096.928, 9.005
1098.166, 185.562
1099.404, 145.298
1100.642, 242.787
1101.879, 191.024
1103.116, 422.310
1104.353, 361.061
1105.590, 423.392
1106.827, 178.295
1108.063, 228.604
1109.299, 114.285
1110.536, 205.064
1111.771, 62.193
1113.007, 16.033
1114.243, 170.372
1115.478, 91.318
1116.713, 21.849
1117.948, 199.233
1119.183, 88.314
1120.418, 47.057
1121.652, 19.357
1122.886, 160.573
1124.120, 129.981
1125.354, 191.641
1126.588, 149.806
1127.821, 241.336
1129.055, 164.685
1130.288, 482.949
1131.521, 752.328
1132.753, 821.808
1133.986, 1138.974
1135.218, 1641.185
1136.450, 2262.468
1137.682, 2443.821
1138.914, 3170.209
1140.146, 3227.909
1141.377, 3355.113
1142.609, 3394.789
1143.840, 3508.789
1145.071, 3357.618
1146.301, 2824.558
1147.532, 2400.018
1148.762, 1806.021
1149.992, 1457.374
1151.222, 979.234
1152.452, 896.468
1153.682, 858.829
1154.911, 480.840
1156.140, 662.939
1157.369, 514.959
1158.598, 444.044
1159.827, 552.090
1161.055, 677.054
1162.284, 671.830
1163.512, 931.586
1164.740, 1039.949
1165.967, 1196.663
1167.195, 1011.422
1168.422, 1112.021
1169.650, 984.576
1170.877, 657.357
1172.103, 497.592
1173.330, 410.473
1174.557, 335.335
1175.783, 334.033
1177.009, 362.739
1178.235, 277.708
1179.461, 295.919
1180.686, 176.991
1181.912, 186.132
1183.137, 211.444
1184.362, 187.732
1185.587, 158.517
1186.811, 121.451
1188.036, 65.513
1189.260, 147.472
1190.484, 160.790
1191.708, 103.165
1192.932, 162.704
1194.155, 95.748
1195.378, 5.547
1196.602, 107.398
1197.825, 329.300
1199.047, 41.529
1200.270, 219.613
1201.492, 80.028
1202.715, 159.480
1203.937, 44.687
1205.159, 123.088
1206.380, 216.087
1207.602, 272.908
1208.823, 287.834
1210.044, 326.974
1211.265, 224.014
1212.486, 273.847
1213.707, 251.981
1214.927, 66.953
1216.147, 237.088
1217.367, 78.596
1218.587, 301.897
1219.807, 137.368
1221.027, 209.498
1222.246, 202.705
1223.465, 78.792
1224.684, 148.653
1225.903, 112.126
1227.121, 174.450
1228.340, 123.349
1229.558, 241.323
1230.776, 246.330
1231.994, 90.260
1233.212, 152.941
1234.429, 225.454
1235.646, 269.240
1236.864, 144.515
1238.081, 158.992
1239.297, 97.714
1240.514, 111.804
1241.730, 107.979
1242.947, 159.223
1244.163, 144.805
1245.378, 99.437
1246.594, 156.041
1247.810, 219.619
1249.025, 20.172
1250.240, 87.694
1251.455, 186.189
1252.670, 57.649
1253.885, 193.078
1255.099, 100.585
1256.313, 74.941
1257.527, 30.266
1258.741, 4.034
1259.955, 170.160
1261.168, 46.350
1262.382, 58.536
1263.595, 218.381
1264.808, 215.533
1266.021, 81.586
1267.233, 121.814
1268.446, 5.698
1269.658, 115.112
1270.870, 60.888
1272.082, 165.700
1273.294, 74.335
1274.505, 113.937
1275.716, 130.432
1276.928, 98.877
1278.139, 71.278
1279.349, 141.633
1280.560, 126.955
1281.770, 105.243
1282.981, 84.463
1284.191, 3.637
1285.401, 31.771
1286.610, 106.864
1287.820, 30.920
1289.029, 148.939
1290.239, 21.074
1291.448, 153.863
1292.656, 47.767
1293.865, 128.635
1295.073, 55.472
1296.282, 7.729
1297.490, 45.971
1298.698, 47.733
1299.906, 103.400
1301.113, 77.032
1302.320, 90.625
1303.528, 70.180
1304.735, 73.694
1305.942, 28.828
1307.148, 10.402
1308.355, 126.978
1309.561, 25.319
1310.767, 125.619
1311.973, 12.119
1313.179, 57.903
1314.384, 57.749
1315.590, 86.344
1316.795, 85.603
1318.000, 59.389
1319.205, 58.343
1320.410, 81.265
1321.614, 0.152
1322.819, 93.996
1324.023, 85.797
1325.227, 23.440
1326.431, 122.254
1327.634, 91.950
1328.838, 140.382
1330.041, 28.197
1331.244, 24.378
1332.447, 167.843
1333.650, 11.803
1334.852, 64.074
1336.055, 70.375
1337.257, 5.590
1338.459, 134.660
1339.661, 153.608
1340.862, 162.569
1342.064, 142.529
1343.265, 52.127
1344.466, 83.419
1345.667, 29.720
1346.868, 19.477
1348.068, 121.553
1349.269, 115.120
1350.469, 56.038
1351.669, 89.319
1352.869, 100.607
1354.069, 121.911
1355.268, 170.234
1356.468, 58.583
1357.667, 340.964
1358.866, 275.422
1360.065, 60.299
1361.263, 386.882
1362.462, 262.349
1363.660, 108.655
1364.858, 291.387
1366.056, 161.792
1367.254, 260.074
1368.451, 316.464
1369.649, 219.385
1370.846, 181.437
1372.043, 229.293
1373.240, 216.550
1374.436, 151.354
1375.633, 310.409
1376.829, 220.304
1378.025, 173.737
1379.221, 262.615
1380.417, 207.282
1381.613, 164.183
1382.808, 267.919
1384.003, 157.200
1385.199, 135.807
1386.393, 193.185
1387.588, 110.391
1388.783, 292.530
1389.977, 317.704
1391.171, 355.677
1392.365, 229.812
1393.559, 229.816
1394.753, 325.876
1395.946, 197.188
1397.140, 302.416
1398.333, 154.809
1399.526, 334.260
1400.719, 249.594
1401.911, 323.373
1403.104, 220.648
1404.296, 259.891
1405.488, 140.971
1406.680, 264.711
1407.872, 143.311
1409.063, 131.801
1410.255, 333.768
1411.446, 169.328
1412.637, 292.801
1413.828, 256.910
1415.018, 97.738
1416.209, 192.895
1417.399, 353.184
1418.589, 209.551
1419.779, 310.672
1420.969, 240.109
1422.159, 202.367
1423.348, 123.619
1424.537, 261.988
1425.726, 171.027
1426.915, 220.705
1428.104, 240.350
1429.293, 270.275
1430.481, 272.383
1431.669, 258.158
1432.857, 242.625
1434.045, 235.975
1435.233, 183.654
1436.420, 281.674
1437.608, 245.779
1438.795, 189.729
1439.982, 308.586
1441.169, 374.014
1442.355, 237.514
1443.542, 152.012
1444.728, 326.188
1445.914, 169.740
1447.100, 210.145
1448.286, 387.191
1449.472, 278.109
1450.657, 124.891
1451.842, 347.580
1453.027, 374.896
1454.212, 294.949
1455.397, 554.016
1456.581, 250.180
1457.766, 247.037
1458.950, 413.773
1460.134, 336.779
1461.318, 507.723
1462.501, 213.295
1463.685, 160.219
1464.868, 354.244
1466.051, 332.379
1467.234, 372.721
1468.417, 408.568
1469.600, 303.598
1470.782, 356.105
1471.965, 384.650
1473.147, 274.240
1474.329, 320.902
1475.510, 375.660
1476.692, 285.588
1477.873, 338.268
1479.055, 281.990
1480.236, 305.553
1481.416, 380.408
1482.597, 293.637
1483.778, 261.211
1484.958, 256.119
1486.138, 316.355
1487.318, 261.939
1488.498, 318.920
1489.678, 273.363
1490.857, 232.359
1492.037, 269.896
1493.216, 441.369
1494.395, 321.580
1495.574, 287.732
1496.752, 353.004
1497.931, 151.627
1499.109, 478.910
1500.287, 8.758
1501.465, 253.178
1502.643, 169.502
1503.820, 71.242
1504.998, 0.000
##END=



