##NAMES=Barytocalcite
##RRUFFID=R120099
##IDEAL CHEMISTRY=BaCa(CO_3_)_2_
##LOCALITY=Langban, Filipstad, Varmland, Sweden
##OWNER=RRUFF
##SOURCE=Michael Scott
##DESCRIPTION=Colorless massive, associated with black hausmannite and britvinite R060785
##STATUS=The identification of this mineral has been confirmed by single-crystal X-ray diffraction.
##URL=rruff.info/R120099
182.5765, 0.9801640
183.0586, 1.451157
183.5407, 5.324554
184.0228, 9.525604
184.5049, 13.80246
184.9871, 18.21957
185.4692, 22.39615
185.9513, 26.49936
186.4334, 31.21725
186.9155, 37.19824
187.3976, 44.07849
187.8798, 50.91772
188.3619, 57.62250
188.8440, 64.26791
189.3261, 70.55112
189.8082, 76.58600
190.2903, 83.02060
190.7725, 90.05798
191.2546, 97.82117
191.7367, 106.2437
192.2188, 115.3105
192.7009, 125.0992
193.1830, 135.5584
193.6652, 146.6224
194.1473, 158.3339
194.6294, 170.5151
195.1115, 183.1830
195.5936, 196.7378
196.0757, 211.2812
196.5579, 226.5427
197.0400, 242.2836
197.5221, 258.5836
198.0042, 274.4581
198.4863, 290.1350
198.9684, 305.5786
199.4506, 318.4610
199.9327, 328.5452
200.4148, 335.9777
200.8969, 341.6072
201.3790, 346.0754
201.8611, 345.8580
202.3433, 338.0925
202.8254, 322.3098
203.3075, 304.8076
203.7896, 286.0188
204.2717, 266.0121
204.7538, 244.3823
205.2360, 220.2542
205.7181, 197.6356
206.2002, 178.9889
206.6823, 164.6279
207.1644, 152.0007
207.6465, 140.8172
208.1287, 131.2747
208.6108, 123.8199
209.0929, 118.6890
209.5750, 114.9203
210.0571, 111.9515
210.5392, 109.6987
211.0214, 108.5284
211.5035, 108.4409
211.9856, 109.4678
212.4677, 111.8920
212.9498, 116.0903
213.4319, 120.8860
213.9140, 125.4923
214.3962, 129.5753
214.8783, 134.7606
215.3604, 141.3197
215.8425, 149.0638
216.3246, 156.9218
216.8067, 164.8474
217.2889, 173.1022
217.7710, 181.6942
218.2531, 190.1339
218.7352, 200.6049
219.2173, 214.2118
219.6994, 230.1502
220.1816, 243.7054
220.6637, 253.9343
221.1458, 263.7678
221.6279, 275.4773
222.1100, 291.3047
222.5921, 303.3023
223.0743, 310.5522
223.5564, 313.5258
224.0385, 314.8018
224.5206, 315.1130
225.0027, 312.6450
225.4848, 305.9658
225.9670, 293.8164
226.4491, 280.6558
226.9312, 266.5986
227.4133, 251.7966
227.8954, 236.0031
228.3775, 218.8047
228.8597, 201.6723
229.3418, 185.5753
229.8239, 170.3504
230.3060, 156.5817
230.7881, 144.5233
231.2702, 133.9596
231.7524, 124.4446
232.2345, 116.1924
232.7166, 108.8735
233.1987, 102.4894
233.6808, 97.71524
234.1629, 92.54160
234.6451, 86.26471
235.1272, 79.37234
235.6093, 74.01385
236.0914, 71.16138
236.5735, 68.50790
237.0556, 64.62775
237.5378, 58.44922
238.0199, 53.39584
238.5020, 48.93655
238.9841, 45.73267
239.4662, 43.23950
239.9483, 41.66943
240.4305, 40.60104
240.9126, 39.77734
241.3947, 39.12491
241.8768, 38.83722
242.3589, 38.93494
242.8410, 39.39636
243.3232, 40.15582
243.8053, 41.15182
244.2874, 42.51917
244.7695, 44.26074
245.2516, 46.18768
245.7337, 48.92545
246.2159, 52.71469
246.6980, 57.29926
247.1801, 61.78067
247.6622, 66.03418
248.1443, 70.41754
248.6264, 75.07605
249.1086, 80.17172
249.5907, 85.16254
250.0728, 89.77682
250.5549, 94.35590
251.0370, 99.84564
251.5191, 106.5777
252.0013, 113.7236
252.4834, 120.9204
252.9655, 127.7166
253.4476, 135.5791
253.9297, 144.6512
254.4118, 154.7126
254.8940, 165.5358
255.3761, 177.3078
255.8582, 189.5587
256.3403, 202.0074
256.8224, 214.5084
257.3046, 227.6291
257.7867, 241.6898
258.2688, 256.0233
258.7509, 269.2825
259.2330, 281.1714
259.7151, 292.3234
260.1973, 303.5843
260.6794, 315.7363
261.1615, 323.7696
261.6436, 327.7136
262.1257, 327.4838
262.6078, 322.5557
263.0900, 312.2405
263.5721, 298.9954
264.0542, 283.1774
264.5363, 264.0512
265.0184, 246.2907
265.5005, 229.5532
265.9827, 214.0963
266.4648, 199.9314
266.9469, 187.0983
267.4290, 175.7772
267.9111, 166.2071
268.3932, 158.5418
268.8754, 151.1160
269.3575, 143.7372
269.8396, 136.6585
270.3217, 130.5976
270.8038, 126.0114
271.2859, 120.7342
271.7681, 114.0283
272.2502, 105.9742
272.7323, 98.03903
273.2144, 90.22458
273.6965, 82.77023
274.1786, 76.11566
274.6608, 70.32892
275.1429, 64.55603
275.6250, 58.40469
276.1071, 52.05936
276.5892, 46.68359
277.0714, 42.70367
277.5535, 38.98325
278.0356, 34.20929
278.5177, 28.18161
278.9998, 22.97382
279.4819, 19.17172
279.9641, 16.47610
280.4462, 13.89575
280.9283, 11.38730
281.4104, 8.948730
281.8925, 6.528198
282.3746, 4.140442
282.8568, 1.845642
283.3389, 0.5676570
283.8210, 2.722260
284.3031, 3.206604
284.7852, 1.829315
285.2673, 0.3907170
285.7495, 0.3029480
286.2316, 1.434418
286.7137, 2.333740
287.1958, 2.918213
287.6779, 3.065155
288.1600, 2.282318
288.6422, 0.5671080
289.1243, 1.077850
289.6064, 1.906799
290.0885, 2.072449
290.5706, 2.301575
291.0527, 2.624115
291.5349, 3.152039
292.0170, 4.340118
292.4991, 6.096588
292.9812, 7.408539
293.4633, 7.243896
293.9454, 6.149231
294.4276, 6.026398
294.9097, 7.152435
295.3918, 8.544800
295.8739, 8.762268
296.3560, 8.068329
296.8381, 7.673065
297.3203, 8.234558
297.8024, 9.502563
298.2845, 11.13718
298.7666, 13.19296
299.2487, 15.10300
299.7308, 15.90012
300.2130, 16.04050
300.6951, 16.84537
301.1772, 19.33463
301.6593, 22.53082
302.1414, 24.94870
302.6235, 26.59299
303.1057, 28.32147
303.5878, 30.97769
304.0699, 34.19995
304.5520, 37.27734
305.0341, 39.89325
305.5162, 42.34763
305.9984, 45.10580
306.4805, 48.07858
306.9626, 50.78412
307.4447, 53.03015
307.9268, 54.73993
308.4089, 55.73749
308.8911, 55.81384
309.3732, 55.45670
309.8553, 55.12851
310.3374, 54.72256
310.8195, 53.83734
311.3016, 52.21713
311.7838, 50.05560
312.2659, 47.47360
312.7480, 44.43024
313.2301, 41.12125
313.7122, 37.47745
314.1943, 33.60529
314.6765, 29.82162
315.1586, 25.89059
315.6407, 22.35196
316.1228, 19.69455
316.6049, 18.27542
317.0870, 16.61050
317.5692, 13.76569
318.0513, 10.36472
318.5334, 7.304962
319.0155, 4.609680
319.4976, 2.523895
319.9797, 1.448975
320.4619, 1.510376
320.9440, 1.271484
321.4261, 0.1730040
321.9082, 1.897705
322.3903, 3.017426
322.8724, 2.895447
323.3546, 2.608765
323.8367, 2.174744
324.3188, 1.635254
324.8009, 1.788544
325.2830, 3.603790
325.7651, 5.625366
326.2473, 6.902069
326.7294, 6.639496
327.2115, 6.434738
327.6936, 6.458237
328.1757, 6.654449
328.6578, 6.789139
329.1400, 6.933517
329.6221, 6.948074
330.1042, 6.770767
330.5863, 6.290741
331.0684, 5.787872
331.5505, 5.315292
332.0327, 4.818100
332.5148, 4.122025
332.9969, 2.848724
333.4790, 1.913345
333.9611, 1.744003
334.4432, 2.655029
334.9254, 3.050659
335.4075, 2.707230
335.8896, 2.050507
336.3717, 1.710205
336.8538, 1.937439
337.3359, 1.863251
337.8180, 1.086609
338.3001, 0.3742220
338.7823, 1.230591
339.2644, 1.323776
339.7465, 1.136017
340.2286, 1.079742
340.7107, 1.157272
341.1928, 1.442749
341.6750, 2.091202
342.1571, 2.920395
342.6392, 3.080627
343.1213, 2.468018
343.6034, 1.707779
344.0855, 1.186249
344.5677, 0.9039150
345.0498, 0.7335360
345.5319, 0.6282810
346.0140, 0.7285460
346.4961, 1.398193
346.9782, 2.598343
347.4604, 3.790344
347.9425, 4.819839
348.4246, 5.626816
348.9067, 5.792755
349.3888, 5.175629
349.8709, 4.510406
350.3531, 4.821609
350.8352, 5.882309
351.3173, 6.849991
351.7994, 7.289948
352.2815, 7.439011
352.7636, 7.571136
353.2458, 7.679749
353.7279, 8.045227
354.2100, 9.332870
354.6921, 10.98297
355.1742, 11.99216
355.6563, 11.68584
356.1385, 11.00891
356.6206, 10.86607
357.1027, 11.15721
357.5848, 11.39775
358.0669, 11.05659
358.5490, 10.64754
359.0312, 10.70801
359.5133, 11.52654
359.9954, 12.40585
360.4775, 12.90016
360.9596, 13.16679
361.4417, 13.53166
361.9239, 14.37109
362.4060, 15.16983
362.8881, 15.65703
363.3702, 15.79164
363.8523, 15.68396
364.3344, 14.84123
364.8166, 13.95125
365.2987, 13.80255
365.7808, 15.36981
366.2629, 16.91711
366.7450, 18.02184
367.2271, 18.67082
367.7093, 19.11488
368.1914, 19.53816
368.6735, 19.66423
369.1556, 19.29878
369.6377, 17.47548
370.1198, 16.38290
370.6020, 16.44035
371.0841, 17.33159
371.5662, 17.89439
372.0483, 17.69243
372.5304, 17.68602
373.0125, 18.38483
373.4947, 20.27483
373.9768, 21.44121
374.4589, 21.77171
374.9410, 21.48505
375.4231, 20.77629
375.9052, 19.31735
376.3874, 18.36728
376.8695, 18.44238
377.3516, 19.51631
377.8337, 20.40616
378.3158, 21.15599
378.7979, 21.66295
379.2801, 21.71719
379.7622, 21.25163
380.2443, 20.74664
380.7264, 20.29997
381.2085, 19.97203
381.6906, 19.90871
382.1728, 20.10703
382.6549, 20.44359
383.1370, 20.86159
383.6191, 21.27902
384.1012, 21.48155
384.5833, 21.53026
385.0655, 21.43269
385.5476, 21.10168
386.0297, 20.58751
386.5118, 20.12045
386.9939, 20.10936
387.4760, 20.09543
387.9582, 19.19542
388.4403, 17.40352
388.9224, 15.78537
389.4045, 15.21336
389.8866, 15.35580
390.3687, 15.81181
390.8509, 17.01428
391.3330, 17.92096
391.8151, 17.39496
392.2972, 15.72394
392.7793, 14.37750
393.2614, 14.25211
393.7436, 14.69759
394.2257, 15.31152
394.7078, 16.18152
395.1899, 16.70706
395.6720, 16.56335
396.1541, 16.04657
396.6363, 15.52328
397.1184, 14.94502
397.6005, 14.41077
398.0826, 13.98106
398.5647, 13.67767
399.0468, 13.38895
399.5290, 13.14207
400.0111, 12.92293
400.4932, 12.67377
400.9753, 12.14392
401.4574, 11.84325
401.9395, 12.05724
402.4217, 12.61127
402.9038, 12.52724
403.3859, 11.22903
403.8680, 10.16168
404.3501, 10.20612
404.8322, 11.90039
405.3144, 12.84056
405.7965, 12.73172
406.2786, 12.16544
406.7607, 12.14172
407.2428, 12.77158
407.7249, 13.21780
408.2071, 13.23784
408.6892, 12.89534
409.1713, 12.10832
409.6534, 10.72896
410.1355, 9.640060
410.6176, 9.804291
411.0998, 11.03683
411.5819, 12.37730
412.0640, 13.83922
412.5461, 15.04868
413.0282, 15.31270
413.5103, 14.70009
413.9925, 13.75760
414.4746, 12.50528
414.9567, 11.23724
415.4388, 10.38344
415.9209, 9.959778
416.4030, 9.937698
416.8852, 10.77928
417.3673, 11.95361
417.8494, 12.57498
418.3315, 12.02484
418.8136, 11.04173
419.2957, 9.913254
419.7779, 8.703690
420.2600, 7.702744
420.7421, 6.988846
421.2242, 6.569931
421.7063, 6.490433
422.1884, 6.909134
422.6706, 7.350250
423.1527, 7.560883
423.6348, 7.776184
424.1169, 8.368591
424.5990, 10.39154
425.0811, 11.84009
425.5633, 11.78461
426.0454, 9.896957
426.5275, 8.875290
427.0096, 9.321930
427.4917, 10.12740
427.9738, 10.39548
428.4560, 9.940704
428.9381, 9.351852
429.4202, 8.547211
429.9023, 7.667679
430.3844, 7.275757
430.8665, 7.555695
431.3487, 7.838470
431.8308, 7.758026
432.3129, 7.294769
432.7950, 6.735687
433.2771, 5.980377
433.7592, 5.408539
434.2414, 5.838623
434.7235, 7.161316
435.2056, 7.886719
435.6877, 7.277863
436.1698, 5.965332
436.6519, 5.326172
437.1341, 5.323792
437.6162, 5.318512
438.0983, 4.640015
438.5804, 3.693787
439.0625, 3.239532
439.5446, 3.511719
440.0268, 3.926514
440.5089, 3.731506
440.9910, 3.304016
441.4731, 3.406647
441.9552, 4.966187
442.4373, 6.702637
442.9195, 7.943939
443.4016, 8.652344
443.8837, 8.802551
444.3658, 7.966064
444.8479, 6.802887
445.3300, 5.803436
445.8122, 4.863495
446.2943, 4.351166
446.7764, 4.371613
447.2585, 4.862976
447.7406, 5.661835
448.2227, 7.855652
448.7049, 9.252625
449.1870, 8.956543
449.6691, 6.570404
450.1512, 4.954498
450.6333, 4.361786
451.1154, 4.271484
451.5976, 4.219543
452.0797, 4.189331
452.5618, 4.276001
453.0439, 4.579590
453.5260, 4.968079
454.0081, 4.997040
454.4903, 4.614899
454.9724, 4.216827
455.4545, 4.118378
455.9366, 4.243073
456.4187, 3.921143
456.9008, 3.037811
457.3830, 2.217499
457.8651, 2.359100
458.3472, 3.199066
458.8293, 3.875061
459.3114, 4.061737
459.7935, 4.077667
460.2757, 4.332825
460.7578, 4.741577
461.2399, 5.021027
461.7220, 5.016144
462.2041, 4.871643
462.6862, 4.813293
463.1684, 4.990967
463.6505, 4.757477
464.1326, 2.951294
464.6147, 0.8405150
465.0968, 5.3344999E-02
465.5789, 3.036041
466.0611, 5.405914
466.5432, 5.423126
467.0253, 3.310944
467.5074, 1.889282
467.9895, 2.058624
468.4716, 2.533081
468.9538, 2.724640
469.4359, 2.531097
469.9180, 2.239960
470.4001, 1.757751
470.8822, 1.235016
471.3643, 0.8597410
471.8465, 0.5677490
472.3286, 0.6264340
472.8107, 1.260223
473.2928, 2.305603
473.7749, 2.851776
474.2570, 2.837585
474.7392, 2.622162
475.2213, 2.418854
475.7034, 2.227142
476.1855, 2.042358
476.6676, 1.838806
477.1497, 1.736237
477.6319, 1.913330
478.1140, 2.327667
478.5961, 2.836731
479.0782, 3.804688
479.5603, 4.580536
480.0424, 3.991333
480.5246, 2.220825
481.0067, 0.9453130
481.4888, 2.040527
481.9709, 3.654541
482.4530, 3.950073
482.9352, 1.839172
483.4173, 0.2247010
483.8994, 0.8680730
484.3815, 2.591248
484.8636, 3.592163
485.3457, 2.719147
485.8279, 1.845276
486.3100, 1.494080
486.7921, 1.680817
487.2742, 1.797668
487.7563, 1.805389
488.2384, 1.727905
488.7206, 1.591370
489.2027, 1.281860
489.6848, 1.267426
490.1669, 1.698547
490.6490, 2.272522
491.1311, 2.538574
491.6133, 2.481506
492.0954, 2.187653
492.5775, 1.552460
493.0596, 0.7287900
493.5417, 0.2289730
494.0238, 4.2266998E-02
494.5060, 0.2763670
494.9881, 1.525635
495.4702, 3.223633
495.9523, 3.800201
496.4344, 2.835999
496.9165, 1.688507
497.3987, 1.940582
497.8808, 2.964264
498.3629, 3.564331
498.8450, 2.630707
499.3271, 1.636230
499.8092, 1.870239
500.2914, 3.054688
500.7735, 3.603394
501.2556, 2.007843
501.7377, 0.2599490
502.2198, 0.3724370
502.7019, 0.8063660
503.1841, 1.720947
503.6662, 1.615173
504.1483, 1.255249
504.6304, 1.603668
505.1125, 3.789215
505.5946, 4.803223
506.0768, 3.716095
506.5589, 1.037933
507.0410, 0.5417180
507.5231, 0.7775570
508.0052, 0.6080320
508.4873, 0.4921260
508.9695, 0.4362490
509.4516, 0.1646120
509.9337, 0.3731690
510.4158, 0.9108580
510.8979, 1.066010
511.3800, 0.9300840
511.8622, 0.9173280
512.3443, 1.191498
512.8264, 1.560516
513.3085, 1.781158
513.7906, 1.883423
514.2728, 1.973267
514.7549, 2.490753
515.2370, 2.776062
515.7191, 1.996613
516.2012, 2.6642000E-02
516.6833, 1.575897
517.1655, 2.174713
517.6476, 1.992340
518.1297, 1.292908
518.6118, 0.9164430
519.0939, 2.249939
519.5760, 1.663940
520.0582, 2.7130000E-02
520.5403, 0.8529970
521.0224, 0.1174620
521.5045, 0.5119320
521.9866, 0.4224850
522.4688, 0.3943180
522.9509, 0.3292240
523.4330, 1.021210
523.9151, 2.367767
524.3972, 2.578705
524.8793, 1.619873
525.3615, 0.9703060
525.8436, 0.7813110
526.3257, 0.8858640
526.8078, 1.084412
527.2899, 1.368042
527.7720, 1.717255
528.2542, 2.293121
528.7363, 2.788116
529.2184, 2.652954
529.7005, 1.999695
530.1826, 1.428528
530.6647, 1.472504
531.1469, 1.666748
531.6290, 1.516541
532.1111, 0.8301390
532.5932, 0.4318240
533.0753, 0.9325870
533.5574, 1.765930
534.0396, 2.332947
534.5217, 2.472198
535.0038, 2.425018
535.4859, 2.196991
535.9680, 1.809631
536.4501, 1.260040
536.9323, 0.2214970
537.4144, 0.4147640
537.8965, 0.1895750
538.3786, 0.9198000
538.8607, 1.727936
539.3428, 2.242737
539.8250, 2.425568
540.3071, 2.036041
540.7892, 1.159698
541.2713, 0.5980830
541.7534, 0.4888920
542.2355, 0.7338560
542.7177, 1.619049
543.1998, 2.821686
543.6819, 3.285919
544.1640, 1.503082
544.6461, 0.5199280
545.1282, 0.6425780
545.6104, 0.8537900
546.0925, 2.183411
546.5746, 2.233795
547.0567, 1.930328
547.5388, 1.902069
548.0209, 2.328735
548.5031, 2.721466
548.9852, 2.984833
549.4673, 3.165161
549.9494, 3.320160
550.4315, 3.583130
550.9136, 3.585236
551.3958, 3.101440
551.8779, 2.377930
552.3600, 2.223053
552.8421, 2.812561
553.3242, 3.355347
553.8063, 3.487366
554.2885, 3.267944
554.7706, 3.232727
555.2527, 3.412415
555.7348, 3.459686
556.2169, 2.972137
556.6990, 2.127167
557.1812, 1.306427
557.6633, 0.5331420
558.1454, 1.8010000E-03
558.6275, 0.1453550
559.1096, 0.6255490
559.5917, 0.8216250
560.0739, 0.1609800
560.5560, 0.8723140
561.0381, 0.1742250
561.5202, 1.533112
562.0023, 2.502380
562.4844, 1.499390
562.9666, 0.3342900
563.4487, 0.1999510
563.9308, 7.5070001E-03
564.4129, 0.3908080
564.8950, 1.151825
565.3771, 1.919891
565.8593, 2.385651
566.3414, 2.464996
566.8235, 2.646820
567.3056, 3.060730
567.7877, 3.483582
568.2698, 3.466797
568.7520, 3.031433
569.2341, 2.518433
569.7162, 1.986420
570.1983, 1.515381
570.6804, 1.335815
571.1625, 1.431335
571.6447, 1.475433
572.1268, 1.107513
572.6089, 0.6396480
573.0910, 0.5111390
573.5731, 0.8496400
574.0552, 0.9835510
574.5374, 4.9529999E-02
575.0195, 1.152435
575.5016, 1.246887
575.9837, 1.317200
576.4658, 3.078278
576.9479, 3.412445
577.4301, 2.816620
577.9122, 2.085663
578.3943, 0.8537900
578.8764, 0.2097470
579.3585, 0.6130070
579.8406, 1.858124
580.3228, 2.467010
580.8049, 2.353149
581.2870, 2.241791
581.7691, 2.839569
582.2512, 3.875641
582.7333, 4.131866
583.2155, 3.484558
583.6975, 2.731171
584.1796, 2.716400
584.6617, 3.087616
585.1439, 3.286499
585.6260, 3.106903
586.1081, 2.791504
586.5902, 2.242279
587.0723, 1.724060
587.5544, 1.706940
588.0366, 2.996643
588.5187, 4.115417
589.0008, 4.479462
589.4829, 4.117157
589.9650, 3.957306
590.4471, 4.299255
590.9293, 4.428986
591.4114, 3.834442
591.8935, 2.295471
592.3756, 1.660614
592.8577, 2.143066
593.3398, 2.949951
593.8220, 3.203369
594.3041, 2.998505
594.7862, 3.146729
595.2683, 3.907776
595.7504, 4.642761
596.2325, 4.345947
596.7147, 3.350250
597.1968, 2.541534
597.6789, 2.588287
598.1610, 2.733795
598.6431, 2.322266
599.1252, 1.492310
599.6074, 0.8981020
600.0895, 0.6655580
600.5716, 0.8108220
601.0537, 1.538269
601.5358, 3.113861
602.0179, 3.939117
602.5001, 3.475342
602.9822, 2.751495
603.4643, 2.566010
603.9464, 3.052063
604.4285, 3.421539
604.9106, 3.602905
605.3928, 3.711060
605.8749, 4.041504
606.3570, 4.556122
606.8391, 4.702118
607.3212, 4.185425
607.8033, 3.370972
608.2855, 2.689148
608.7676, 2.161346
609.2497, 1.851166
609.7318, 2.043854
610.2139, 2.282501
610.6960, 2.132172
611.1782, 1.588959
611.6603, 1.174957
612.1424, 1.250397
612.6245, 1.381775
613.1066, 1.236694
613.5887, 0.3927000
614.0709, 0.2771910
614.5530, 1.527985
615.0351, 2.944580
615.5172, 3.121826
615.9993, 1.675568
616.4814, 0.7783810
616.9636, 0.8194580
617.4457, 1.428711
617.9278, 2.063263
618.4099, 2.670502
618.8920, 2.978760
619.3741, 2.328644
619.8563, 1.634949
620.3384, 2.686279
620.8205, 5.109985
621.3026, 7.065033
621.7847, 7.673553
622.2668, 7.309753
622.7490, 5.774323
623.2311, 2.881287
623.7132, 0.9755550
624.1953, 1.415558
624.6774, 2.570343
625.1595, 3.333496
625.6417, 3.698273
626.1238, 3.646149
626.6059, 3.078064
627.0880, 2.215790
627.5701, 1.222168
628.0522, 4.0436000E-02
628.5344, 0.6881100
629.0165, 0.7857360
629.4986, 0.4245910
629.9807, 0.2599790
630.4628, 1.183105
630.9449, 1.871674
631.4271, 2.150146
631.9092, 2.042328
632.3913, 1.219116
632.8734, 0.1972960
633.3555, 1.078217
633.8376, 0.3632510
634.3198, 0.6918330
634.8019, 1.417236
635.2840, 1.715210
635.7661, 1.837708
636.2482, 1.602203
636.7303, 1.376434
637.2125, 1.393860
637.6946, 1.639221
638.1767, 2.335419
638.6588, 3.816071
639.1409, 5.192749
639.6230, 4.978271
640.1052, 3.277802
640.5873, 1.555359
641.0694, 7.4432001E-02
641.5515, 1.040558
642.0336, 1.495453
642.5157, 1.400909
642.9979, 1.076843
643.4800, 0.4742130
643.9621, 0.1260070
644.4442, 0.4336240
644.9263, 0.5133060
645.4084, 0.7639160
645.8906, 1.678741
646.3727, 2.472260
646.8548, 2.708527
647.3369, 2.303894
647.8190, 2.013397
648.3011, 1.863800
648.7833, 1.790924
649.2654, 1.756958
649.7475, 1.767181
650.2296, 1.810638
650.7117, 1.927185
651.1938, 1.947327
651.6760, 1.183838
652.1581, 9.9457003E-02
652.6402, 0.3380430
653.1223, 2.950500
653.6044, 5.687653
654.0865, 6.513916
654.5687, 6.038605
655.0508, 5.453979
655.5329, 5.111023
656.0150, 4.830933
656.4971, 4.550232
656.9792, 4.272827
657.4614, 4.028564
657.9435, 3.619995
658.4256, 3.537750
658.9077, 4.131958
659.3898, 5.348816
659.8719, 5.805908
660.3541, 5.420410
660.8362, 4.662170
661.3183, 3.577301
661.8004, 2.359497
662.2825, 1.842010
662.7646, 2.103149
663.2468, 2.494873
663.7289, 2.414429
664.2110, 2.135468
664.6931, 2.012512
665.1752, 2.149994
665.6573, 2.390900
666.1395, 2.829468
666.6216, 3.277649
667.1037, 3.505585
667.5858, 3.363983
668.0679, 3.133820
668.5500, 2.692749
669.0322, 2.234161
669.5143, 2.228088
669.9964, 2.758301
670.4785, 3.363281
670.9606, 4.007416
671.4427, 4.548706
671.9249, 4.246826
672.4070, 3.278046
672.8891, 2.959808
673.3712, 4.729828
673.8533, 7.172272
674.3354, 8.514343
674.8176, 8.830994
675.2997, 9.307587
675.7818, 11.07047
676.2639, 12.76562
676.7460, 13.35226
677.2281, 12.21912
677.7103, 11.98288
678.1924, 13.14264
678.6745, 14.83875
679.1566, 16.50565
679.6387, 18.14566
680.1208, 19.73782
680.6030, 21.27731
681.0851, 22.92331
681.5672, 24.97147
682.0493, 27.29211
682.5314, 29.38828
683.0135, 30.93680
683.4957, 32.79617
683.9778, 36.06281
684.4599, 40.27017
684.9420, 44.39783
685.4241, 48.02292
685.9063, 51.58295
686.3884, 55.33224
686.8705, 59.20538
687.3526, 62.99051
687.8347, 68.09314
688.3168, 71.09476
688.7990, 70.28348
689.2811, 66.45651
689.7632, 65.53055
690.2453, 68.14700
690.7274, 69.72491
691.2095, 67.45151
691.6917, 62.22440
692.1738, 55.13226
692.6559, 46.37213
693.1380, 38.90558
693.6201, 35.29617
694.1022, 33.87253
694.5844, 33.16409
695.0665, 33.02411
695.5486, 33.29724
696.0307, 34.02582
696.5128, 35.08224
696.9949, 36.35129
697.4771, 37.56821
697.9592, 39.48846
698.4413, 42.08786
698.9234, 45.38718
699.4055, 49.75735
699.8876, 55.28003
700.3698, 60.38287
700.8519, 65.26581
701.3340, 68.31418
701.8161, 66.36520
702.2982, 60.69724
702.7803, 54.48154
703.2625, 48.13034
703.7446, 42.54956
704.2267, 38.20865
704.7088, 35.11444
705.1909, 33.33896
705.6730, 33.74039
706.1552, 34.57990
706.6373, 35.59525
707.1194, 36.71048
707.6015, 37.54227
708.0836, 37.92944
708.5657, 38.50977
709.0479, 39.30447
709.5300, 40.43396
710.0121, 42.69513
710.4942, 46.13199
710.9763, 50.34393
711.4584, 55.52628
711.9406, 61.10458
712.4227, 66.21014
712.9048, 70.85001
713.3869, 75.97305
713.8690, 81.48102
714.3511, 88.04568
714.8333, 97.28610
715.3154, 112.1759
715.7975, 120.0103
716.2796, 120.6052
716.7617, 114.4590
717.2438, 99.86038
717.7260, 75.77365
718.2081, 55.64606
718.6902, 40.49707
719.1723, 29.04559
719.6544, 20.89206
720.1365, 15.39105
720.6187, 10.99783
721.1008, 7.368500
721.5829, 4.639862
722.0650, 3.082916
722.5471, 2.393311
723.0292, 2.140747
723.5114, 2.297668
723.9935, 2.782074
724.4756, 4.045471
724.9577, 5.455139
725.4398, 5.900360
725.9219, 5.075867
726.4041, 4.143890
726.8862, 3.245117
727.3683, 2.498596
727.8504, 2.339752
728.3325, 2.683990
728.8146, 2.964050
729.2968, 2.814484
729.7789, 2.561646
730.2610, 2.572754
730.7431, 2.794556
731.2252, 3.050385
731.7073, 3.528107
732.1895, 3.770050
732.6716, 3.526184
733.1537, 2.808899
733.6358, 1.966492
734.1179, 0.6183780
734.6000, 0.1816710
735.0822, 0.2633670
735.5643, 1.768616
736.0464, 2.421326
736.5285, 2.200745
737.0106, 1.594574
737.4927, 0.6488650
737.9749, 0.3373410
738.4570, 0.8966370
738.9391, 0.9998780
739.4212, 0.6846920
739.9033, 0.7240600
740.3854, 2.043488
740.8676, 2.267639
741.3497, 0.8828130
741.8318, 8.8499999E-03
742.3139, 0.1446840
742.7960, 0.1712040
743.2781, 0.9573360
743.7603, 2.402740
744.2424, 2.579712
744.7245, 1.116486
745.2066, 0.2619020
745.6887, 1.092651
746.1708, 3.902496
746.6530, 4.444855
747.1351, 1.664612
747.6172, 1.118317
748.0993, 1.191742
748.5814, 3.5004001E-02
749.0635, 0.7277220
749.5457, 4.6753000E-02
750.0278, 0.1947020
750.5099, 0.5365300
750.9920, 1.610565
751.4741, 2.348511
751.9562, 2.728607
752.4384, 2.700897
752.9205, 2.080444
753.4026, 1.395477
753.8847, 1.678253
754.3668, 2.671783
754.8489, 3.391022
755.3311, 3.563629
755.8132, 3.302185
756.2953, 2.289001
756.7774, 0.9813230
757.2595, 0.1991880
757.7416, 0.6637880
758.2238, 1.166046
758.7059, 1.346497
759.1880, 1.400482
759.6701, 1.776062
760.1522, 2.750793
760.6343, 3.101807
761.1165, 2.204010
761.5986, 0.8315430
762.0807, 1.254761
762.5628, 3.123596
763.0449, 4.373627
763.5270, 3.628693
764.0092, 2.208954
764.4913, 1.146759
764.9734, 0.4073490
765.4555, 0.1306460
765.9376, 0.7355350
766.4197, 0.9089970
766.9019, 0.2966920
767.3840, 0.9246220
767.8661, 2.074677
768.3482, 3.285492
768.8303, 4.007385
769.3124, 3.892395
769.7946, 3.151733
770.2767, 2.370117
770.7588, 1.582367
771.2409, 1.117920
771.7230, 1.258728
772.2051, 1.764069
772.6873, 2.739044
773.1694, 4.029419
773.6515, 4.576538
774.1336, 3.130096
774.6157, 1.726349
775.0978, 1.355316
775.5800, 1.973755
776.0621, 2.210236
776.5442, 1.927948
777.0263, 1.659698
777.5084, 1.700348
777.9905, 1.995605
778.4727, 2.438324
778.9548, 2.999847
779.4369, 3.207489
779.9190, 2.252991
780.4011, 1.081268
780.8832, 0.5941470
781.3654, 0.8543400
781.8475, 1.424866
782.3296, 2.948944
782.8117, 4.016541
783.2938, 3.761841
783.7759, 2.003998
784.2581, 1.072113
784.7402, 1.148346
785.2223, 1.516724
785.7044, 1.760468
786.1865, 1.900299
786.6686, 2.011108
787.1508, 2.100586
787.6329, 2.174042
788.1150, 2.418335
788.5971, 2.539398
789.0792, 2.053375
789.5613, 0.7855530
790.0435, 0.1007080
790.5256, 0.6773380
791.0077, 1.612274
791.4898, 2.515656
791.9719, 3.406647
792.4540, 3.971649
792.9362, 4.183319
793.4183, 4.231110
793.9004, 4.350006
794.3825, 4.422363
794.8646, 3.978363
795.3467, 2.976135
795.8289, 2.086823
796.3110, 1.851959
796.7931, 1.946442
797.2752, 2.238007
797.7573, 2.906921
798.2394, 2.949951
798.7216, 1.845062
799.2037, 0.5804440
799.6858, 0.3246770
800.1679, 0.9052430
800.6500, 0.7187500
801.1321, 0.3283690
801.6143, 1.532288
802.0964, 2.485748
802.5785, 3.076447
803.0606, 2.841248
803.5427, 1.699341
804.0248, 0.8797610
804.5070, 1.821991
804.9891, 2.884491
805.4712, 2.518250
805.9533, 0.2260740
806.4354, 1.383850
806.9175, 0.2679140
807.3997, 1.283020
807.8818, 1.854492
808.3639, 1.494659
808.8460, 1.570068
809.3281, 2.169556
809.8102, 2.669830
810.2924, 2.379730
810.7745, 1.707611
811.2566, 1.139587
811.7387, 0.7296140
812.2208, 0.5982970
812.7029, 1.250549
813.1851, 1.863770
813.6672, 1.803558
814.1493, 0.8583070
814.6314, 9.6680000E-02
815.1135, 0.6044010
815.5956, 0.8028560
816.0778, 0.2555240
816.5599, 2.196289
817.0420, 3.159912
817.5241, 3.031403
818.0062, 2.705292
818.4883, 2.724762
818.9705, 2.986298
819.4526, 3.533936
819.9347, 4.462738
820.4168, 4.884491
820.8989, 3.941132
821.3810, 3.063416
821.8632, 3.107239
822.3453, 4.235199
822.8274, 4.659637
823.3095, 4.295959
823.7916, 3.639648
824.2737, 3.035095
824.7559, 2.543030
825.2380, 2.152832
825.7201, 1.854370
826.2022, 1.691010
826.6843, 1.849487
827.1664, 2.031158
827.6486, 1.946960
828.1307, 1.488251
828.6128, 1.503174
829.0949, 2.314056
829.5770, 3.033936
830.0591, 3.043732
830.5413, 2.438843
831.0234, 2.472656
831.5055, 3.132202
831.9876, 3.661499
832.4697, 3.251373
832.9518, 2.600342
833.4340, 2.545166
833.9161, 3.089386
834.3982, 3.542053
834.8803, 3.641907
835.3624, 3.615936
835.8445, 3.569366
836.3267, 3.500092
836.8088, 3.360352
837.2909, 3.165283
837.7730, 2.832520
838.2551, 2.146606
838.7372, 1.345276
839.2194, 1.069855
839.7015, 1.261200
840.1836, 1.569153
840.6657, 1.791229
841.1478, 2.065369
841.6299, 2.580719
842.1121, 3.292786
842.5942, 3.692078
843.0763, 3.557465
843.5584, 3.547180
844.0405, 3.974976
844.5226, 4.471893
845.0048, 3.658417
845.4869, 1.644592
845.9690, 0.1687930
846.4511, 0.4167180
846.9332, 1.387573
847.4153, 2.243774
847.8975, 2.954437
848.3796, 3.428223
848.8617, 3.533539
849.3438, 3.516571
849.8259, 3.394745
850.3080, 3.224030
850.7902, 3.161224
851.2723, 3.237823
851.7544, 3.228363
852.2365, 3.018402
852.7186, 2.770386
853.2007, 2.746399
853.6829, 2.920715
854.1650, 3.230316
854.6471, 3.828094
855.1292, 4.322174
855.6113, 4.558197
856.0934, 4.544312
856.5756, 4.270660
857.0577, 3.414337
857.5398, 2.985413
858.0219, 3.160736
858.5040, 3.681824
858.9861, 4.034607
859.4683, 4.264435
859.9504, 4.845428
860.4325, 6.014038
860.9146, 7.108826
861.3967, 7.094208
861.8788, 6.818542
862.3610, 7.397278
862.8431, 9.977692
863.3252, 11.79758
863.8073, 12.26981
864.2894, 12.21548
864.7715, 12.62347
865.2537, 13.47418
865.7358, 14.20880
866.2179, 14.79974
866.7000, 15.29739
867.1821, 15.89941
867.6642, 16.39569
868.1464, 16.18924
868.6285, 14.97006
869.1106, 14.67960
869.5927, 16.64401
870.0748, 19.34393
870.5569, 21.79047
871.0391, 23.92410
871.5212, 25.90283
872.0033, 27.58072
872.4854, 29.60953
872.9675, 32.88718
873.4496, 36.74307
873.9318, 39.17734
874.4139, 40.24799
874.8960, 41.78870
875.3781, 45.57486
875.8602, 49.35950
876.3423, 52.97733
876.8245, 56.09073
877.3066, 53.50967
877.7887, 43.07370
878.2708, 31.81076
878.7529, 21.73822
879.2350, 13.31915
879.7172, 8.697693
880.1993, 7.498535
880.6814, 6.783997
881.1635, 4.650238
881.6456, 2.689117
882.1277, 2.306458
882.6099, 3.078094
883.0920, 3.685089
883.5741, 3.747101
884.0562, 3.782898
884.5383, 3.890198
885.0204, 3.979004
885.5026, 3.716949
885.9847, 3.143372
886.4668, 3.059204
886.9489, 3.922119
887.4310, 4.814758
887.9131, 4.562164
888.3953, 3.718597
888.8774, 3.129517
889.3595, 3.382904
889.8416, 3.382385
890.3237, 2.859802
890.8058, 2.202728
891.2880, 1.674530
891.7701, 1.180389
892.2522, 0.8198550
892.7343, 0.6224370
893.2164, 0.5888670
893.6985, 0.8582760
894.1807, 1.226471
894.6628, 1.369629
895.1449, 1.253601
895.6270, 1.216522
896.1091, 1.205963
896.5912, 1.419647
897.0734, 2.134186
897.5555, 3.473999
898.0376, 3.571075
898.5197, 2.253510
899.0018, 0.7668460
899.4839, 4.1106999E-02
899.9661, 0.3987730
900.4482, 1.045502
900.9303, 1.798828
901.4124, 1.451447
901.8945, 2.586823
902.3766, 5.903076
902.8588, 5.663452
903.3409, 2.735657
903.8230, 1.177429
904.3051, 1.337952
904.7872, 1.645844
905.2693, 1.475861
905.7515, 1.209686
906.2336, 1.639313
906.7157, 2.531403
907.1978, 3.210602
907.6799, 3.415466
908.1620, 3.327911
908.6442, 2.658112
909.1263, 1.883301
909.6084, 1.855743
910.0905, 3.093048
910.5726, 3.693573
911.0547, 3.391144
911.5369, 2.686523
912.0190, 1.956024
912.5011, 1.376221
912.9832, 1.575165
913.4653, 2.772003
913.9474, 3.992249
914.4296, 4.898529
914.9117, 5.367889
915.3938, 5.154419
915.8759, 3.988556
916.3580, 3.289825
916.8401, 3.113159
917.3223, 3.370239
917.8044, 4.311859
918.2865, 5.615417
918.7686, 6.097198
919.2507, 5.744812
919.7328, 4.795898
920.2150, 2.596252
920.6971, 0.7674560
921.1792, 0.4711300
921.6613, 1.592072
922.1434, 2.789001
922.6255, 4.377686
923.1077, 5.205292
923.5898, 4.768311
924.0719, 3.550446
924.5540, 2.408264
925.0361, 1.423859
925.5182, 1.005798
926.0004, 1.730682
926.4825, 2.355774
926.9646, 1.969604
927.4467, 1.127563
927.9288, 0.6693120
928.4109, 0.6802670
928.8931, 1.054260
929.3752, 1.954742
929.8573, 2.871216
930.3394, 3.380829
930.8215, 3.440125
931.3036, 2.636292
931.7858, 0.8511960
932.2679, 0.5847780
932.7500, 0.4893490
933.2321, 0.1387330
933.7142, 0.6324770
934.1964, 0.9424740
934.6785, 0.9152830
935.1606, 0.3674320
935.6427, 4.6753000E-02
936.1248, 0.1159060
936.6069, 0.6485900
937.0891, 0.7806400
937.5712, 0.5938720
938.0533, 0.4825440
938.5354, 0.8258970
939.0175, 1.130188
939.4996, 0.8865360
939.9818, 0.3811950
940.4639, 0.4986880
940.9460, 1.632721
941.4281, 2.339172
941.9102, 2.247101
942.3923, 1.886749
942.8745, 2.121643
943.3566, 2.801544
943.8387, 3.564240
944.3208, 4.438110
944.8029, 4.927155
945.2850, 4.220001
945.7672, 3.345398
946.2493, 3.520050
946.7314, 5.477570
947.2135, 5.319855
947.6956, 2.439331
948.1777, 0.4624940
948.6599, 1.056366
949.1420, 0.1391600
949.6241, 0.5226440
950.1062, 0.8907780
950.5883, 1.141907
951.0704, 1.571655
951.5526, 1.704193
952.0347, 0.8659060
952.5168, 0.5192260
952.9989, 0.6931150
953.4810, 0.6698610
953.9631, 1.657318
954.4453, 1.587250
954.9274, 1.141449
955.4095, 1.565033
955.8916, 2.350983
956.3737, 2.667175
956.8558, 2.040924
957.3380, 1.534882
957.8201, 1.658417
958.3022, 1.938446
958.7843, 1.908264
959.2664, 1.534576
959.7485, 1.797485
960.2307, 2.746735
960.7128, 3.306000
961.1949, 1.704132
961.6770, 0.4704590
962.1591, 0.5606080
962.6412, 1.443542
963.1234, 2.799652
963.6055, 1.489258
964.0876, 0.5783080
964.5697, 1.499023
965.0518, 3.629395
965.5339, 3.971069
966.0161, 2.521362
966.4982, 1.599457
966.9803, 2.273071
967.4624, 3.559052
967.9445, 4.957672
968.4266, 6.033264
968.9088, 6.070343
969.3909, 3.672485
969.8730, 1.955566
970.3551, 1.313080
970.8372, 1.150269
971.3193, 0.8147890
971.8015, 0.3636170
972.2836, 0.4625240
972.7657, 1.189117
973.2478, 1.655457
973.7299, 0.7834170
974.2120, 0.3420410
974.6942, 0.7264400
975.1763, 0.2876280
975.6584, 0.2243960
976.1405, 1.011597
976.6226, 1.224762
977.1047, 8.1634998E-02
977.5869, 1.766235
978.0690, 2.410400
978.5511, 2.115173
979.0332, 1.944458
979.5153, 2.518707
979.9974, 3.064087
980.4796, 3.090363
980.9617, 2.874756
981.4438, 2.884186
981.9259, 3.457031
982.4080, 2.998474
982.8901, 1.071167
983.3723, 0.4937740
983.8544, 1.021942
984.3365, 3.909821
984.8186, 4.789551
985.3007, 3.421204
985.7828, 1.897308
986.2650, 0.7080380
986.7471, 5.2368000E-02
987.2292, 3.1891000E-02
987.7113, 0.5676880
988.1934, 1.386993
988.6755, 2.505005
989.1577, 3.445618
989.6398, 4.052917
990.1219, 4.244049
990.6040, 3.780670
991.0861, 3.049561
991.5682, 2.636444
992.0504, 3.013855
992.5325, 3.209747
993.0146, 3.058960
993.4967, 2.796204
993.9788, 2.697083
994.4609, 2.751007
994.9431, 2.744507
995.4252, 2.665985
995.9073, 2.583130
996.3894, 2.841766
996.8715, 2.891083
997.3536, 2.007477
997.8358, 0.3114320
998.3179, 0.4273680
998.8000, 0.1781620
999.2821, 0.8226620
999.7642, 1.108032
1000.246, 1.266754
1000.728, 2.012482
1001.211, 2.991852
1001.693, 3.173065
1002.175, 1.789246
1002.657, 0.5849610
1003.139, 0.5110470
1003.621, 0.8341060
1004.103, 0.8300780
1004.585, 0.3554080
1005.068, 0.3745730
1005.550, 0.8999020
1006.032, 1.718933
1006.514, 3.220154
1006.996, 4.757080
1007.478, 5.259644
1007.960, 4.833313
1008.442, 4.443359
1008.924, 4.832092
1009.407, 4.570313
1009.889, 2.991272
1010.371, 0.8876950
1010.853, 0.4259030
1011.335, 1.354370
1011.817, 1.196472
1012.299, 0.9412230
1012.781, 2.753845
1013.263, 1.993164
1013.746, 0.3817140
1014.228, 0.3587650
1014.710, 0.1189580
1015.192, 0.1557010
1015.674, 0.3816530
1016.156, 0.9494020
1016.638, 1.081421
1017.120, 1.080444
1017.603, 1.979004
1018.085, 3.389038
1018.567, 3.919067
1019.049, 1.330444
1019.531, 0.3165890
1020.013, 1.108765
1020.495, 3.649170
1020.977, 4.159058
1021.459, 2.571472
1021.942, 1.383301
1022.424, 0.8909910
1022.906, 0.9651490
1023.388, 2.318176
1023.870, 3.634277
1024.352, 3.091675
1024.834, 0.3073730
1025.316, 0.4456180
1025.799, 2.346191
1026.281, 4.553833
1026.763, 4.365479
1027.245, 2.658264
1027.727, 1.290710
1028.209, 0.3549800
1028.691, 0.2041020
1029.173, 1.626892
1029.656, 2.817871
1030.138, 2.302490
1030.620, 1.535767
1031.102, 2.322693
1031.584, 5.257202
1032.066, 6.026917
1032.548, 4.371338
1033.030, 2.418091
1033.512, 1.355774
1033.995, 1.219910
1034.477, 2.765259
1034.959, 5.709412
1035.441, 7.754883
1035.923, 8.305420
1036.405, 7.894409
1036.887, 6.238220
1037.369, 4.138916
1037.851, 3.129089
1038.334, 3.038757
1038.816, 3.227112
1039.298, 3.633240
1039.780, 3.950073
1040.262, 4.235046
1040.744, 4.164246
1041.226, 3.220154
1041.708, 1.388672
1042.191, 0.7852170
1042.673, 1.560669
1043.155, 2.225525
1043.637, 1.668823
1044.119, 0.8140870
1044.601, 0.8555300
1045.083, 1.614136
1045.565, 2.662292
1046.047, 4.920410
1046.530, 5.768127
1047.012, 4.231445
1047.494, 2.363831
1047.976, 2.773743
1048.458, 4.931824
1048.940, 6.273987
1049.422, 6.616760
1049.904, 6.558838
1050.386, 6.169861
1050.869, 5.782410
1051.351, 5.438843
1051.833, 5.249817
1052.315, 5.860413
1052.797, 7.428406
1053.279, 8.555481
1053.761, 8.792358
1054.243, 8.690979
1054.726, 8.722839
1055.208, 8.965881
1055.690, 9.609253
1056.172, 10.92358
1056.654, 11.79962
1057.136, 11.86664
1057.618, 11.97260
1058.100, 12.64447
1058.583, 13.76190
1059.065, 14.87140
1059.547, 15.99225
1060.029, 17.22205
1060.511, 19.07544
1060.993, 20.48395
1061.475, 20.79791
1061.957, 20.47369
1062.439, 20.06500
1062.922, 19.56183
1063.404, 18.93549
1063.886, 18.12219
1064.368, 17.84454
1064.850, 18.99469
1065.332, 20.82251
1065.814, 22.73340
1066.296, 24.63776
1066.778, 26.23090
1067.261, 26.80505
1067.743, 28.56000
1068.225, 32.09387
1068.707, 37.01172
1069.189, 42.50275
1069.671, 48.73395
1070.153, 55.73096
1070.635, 62.77411
1071.118, 73.04327
1071.600, 85.95367
1072.082, 104.0005
1072.564, 127.4870
1073.046, 156.7526
1073.528, 199.9346
1074.010, 256.2808
1074.492, 320.5574
1074.974, 397.4603
1075.457, 472.0424
1075.939, 532.4481
1076.421, 582.9361
1076.903, 631.6116
1077.385, 677.9880
1077.867, 724.2074
1078.349, 769.6103
1078.831, 817.0146
1079.313, 863.9742
1079.796, 917.3139
1080.278, 983.1743
1080.760, 1063.983
1081.242, 1168.788
1081.724, 1296.010
1082.206, 1458.216
1082.688, 1662.925
1083.170, 1893.914
1083.652, 2113.276
1084.135, 2331.924
1084.617, 2612.160
1085.099, 2986.035
1085.581, 3263.910
1086.063, 3440.645
1086.545, 3373.225
1087.027, 2908.505
1087.509, 2102.273
1087.992, 1463.461
1088.474, 992.5612
1088.956, 646.8082
1089.438, 431.4402
1089.920, 294.1489
1090.402, 203.8888
1090.884, 147.4296
1091.366, 108.8688
1091.849, 91.44080
1092.331, 76.24780
1092.813, 63.24115
1093.295, 52.63452
1093.777, 45.15668
1094.259, 39.92621
1094.741, 35.53271
1095.223, 31.83527
1095.705, 28.42963
1096.188, 25.10278
1096.670, 22.18970
1097.152, 19.58026
1097.634, 17.56427
1098.116, 16.61212
1098.598, 16.57410
1099.080, 17.09381
1099.562, 18.11450
1100.044, 18.32947
1100.527, 16.13739
1101.009, 13.72827
1101.491, 12.49585
1101.973, 11.96832
1102.455, 10.42566
1102.937, 7.874084
1103.419, 6.309875
1103.901, 6.327271
1104.384, 6.551147
1104.866, 5.644775
1105.348, 4.439514
1105.830, 3.711426
1106.312, 3.565063
1106.794, 3.920227
1107.276, 4.959900
1107.758, 5.782166
1108.240, 5.842651
1108.723, 5.605103
1109.205, 5.928528
1109.687, 6.506775
1110.169, 6.621155
1110.651, 5.347412
1111.133, 5.219421
1111.615, 6.984192
1112.097, 8.572693
1112.579, 8.168091
1113.062, 6.377686
1113.544, 4.986511
1114.026, 4.043030
1114.508, 3.741028
1114.990, 5.270874
1115.472, 6.074097
1115.954, 4.989502
1116.436, 3.087830
1116.919, 1.550903
1117.401, 0.3838500
1117.883, 0.2927250
1118.365, 0.4229130
1118.847, 2.2461001E-02
1119.329, 1.650513
1119.811, 3.268738
1120.293, 3.944702
1120.776, 3.815369
1121.258, 3.243958
1121.740, 2.134766
1122.222, 1.535767
1122.704, 1.747131
1123.186, 2.117188
1123.668, 1.855774
1124.150, 1.466614
1124.632, 1.621582
1125.115, 2.471619
1125.597, 2.562622
1126.079, 1.572021
1126.561, 0.9121090
1127.043, 1.374329
1127.525, 2.055359
1128.007, 0.9786990
1128.489, 0.7783810
1128.971, 1.264038
1129.454, 0.6501460
1129.936, 2.132263
1130.418, 2.917358
1130.900, 3.277100
1131.382, 3.449463
1131.864, 3.309143
1132.346, 1.922729
1132.828, 0.1821290
1133.311, 1.266235
1133.793, 0.3536990
1134.275, 1.850037
1134.757, 2.714966
1135.239, 3.053101
1135.721, 2.723999
1136.203, 1.836731
1136.685, 1.366760
1137.167, 1.329651
1137.650, 1.643433
1138.132, 3.014038
1138.614, 3.889587
1139.096, 3.210205
1139.578, 1.681274
1140.060, 2.4536001E-02
1140.542, 1.796570
1141.024, 1.587158
1141.506, 0.9994510
1141.989, 3.533020
1142.471, 4.192383
1142.953, 3.986694
1143.435, 3.486328
1143.917, 2.786926
1144.399, 2.019653
1144.881, 1.097351
1145.363, 0.7851560
1145.846, 1.321533
1146.328, 2.180603
1146.810, 3.197449
1147.292, 3.940369
1147.774, 3.764465
1148.256, 2.493958
1148.738, 1.784119
1149.220, 1.757813
1149.703, 1.960266
1150.185, 2.381653
1150.667, 2.652893
1151.149, 1.811707
1151.631, 0.6067500
1152.113, 0.3599850
1152.595, 1.825989
1153.077, 2.458801
1153.559, 1.717529
1154.042, 1.087952
1154.524, 1.542542
1155.006, 2.475647
1155.488, 2.218384
1155.970, 1.368774
1156.452, 1.427185
1156.934, 3.896790
1157.416, 5.419617
1157.898, 5.431641
1158.381, 4.789001
1158.863, 4.083740
1159.345, 3.257874
1159.827, 1.747437
1160.309, 0.1566160
1160.791, 1.290710
1161.273, 0.9247440
1161.755, 0.1540530
1162.238, 2.338440
1162.720, 4.441711
1163.202, 5.218323
1163.684, 4.762024
1164.166, 3.449036
1164.648, 1.411438
1165.130, 0.2919310
1165.612, 1.342773
1166.094, 1.564514
1166.577, 0.1241460
1167.059, 1.679993
1167.541, 1.488892
1168.023, 0.4747920
1168.505, 1.401123
1168.987, 0.9968260
1169.469, 0.1842040
1169.951, 0.4789430
1170.433, 1.285217
1170.916, 2.895813
1171.398, 4.672424
1171.880, 4.627808
1172.362, 2.796326
1172.844, 2.195496
1173.326, 3.563599
1173.808, 4.814819
1174.290, 4.024231
1174.773, 2.561646
1175.255, 1.082214
1175.737, 0.1889040
1176.219, 0.3767090
1176.701, 2.937683
1177.183, 4.148804
1177.665, 2.743103
1178.147, 1.081177
1178.630, 1.593079
1179.112, 2.853271
1179.594, 3.567261
1180.076, 3.604431
1180.558, 3.178711
1181.040, 2.180359
1181.522, 2.095703
1182.004, 3.966980
1182.486, 5.967224
1182.969, 5.687378
1183.451, 4.597839
1183.933, 4.635559
1184.415, 6.252625
1184.897, 7.193726
1185.379, 7.453552
1185.861, 6.999695
1186.343, 5.192627
1186.825, 3.438660
1187.308, 4.263306
1187.790, 6.003540
1188.272, 5.895203
1188.754, 2.313477
1189.236, 0.9992680
1189.718, 2.357056
1190.200, 3.855164
1190.682, 3.829468
1191.165, 3.025879
1191.647, 2.257568
1192.129, 1.704590
1192.611, 1.688171
1193.093, 2.263489
1193.575, 3.004761
1194.057, 4.082581
1194.539, 4.932800
1195.021, 4.947815
1195.504, 4.592651
1195.986, 4.184631
1196.468, 3.945068
1196.950, 4.589355
1197.432, 7.319885
1197.914, 8.364746
1198.396, 6.843933
1198.878, 5.021118
1199.360, 5.216064
1199.843, 6.237610
1200.325, 6.402771
1200.807, 5.931152
1201.289, 6.068665
1201.771, 8.028320
1202.253, 8.132568
1202.735, 5.479675
1203.217, 2.550232
1203.700, 2.141724
1204.182, 3.180969
1204.664, 4.496216
1205.146, 5.868958
1205.628, 6.523376
1206.110, 5.484863
1206.592, 5.910095
1207.074, 8.848999
1207.557, 11.73785
1208.039, 10.70892
1208.521, 7.936523
1209.003, 6.748352
1209.485, 7.291077
1209.967, 6.811157
1210.449, 3.688721
1210.931, 2.849670
1211.413, 6.028748
1211.896, 9.965088
1212.378, 9.853821
1212.860, 7.937805
1213.342, 7.696716
1213.824, 9.526550
1214.306, 10.22968
1214.788, 9.201416
1215.270, 7.964233
1215.752, 6.935852
1216.235, 5.829834
1216.717, 3.622742
1217.199, 1.365662
1217.681, 0.7944950
1218.163, 2.262207
1218.645, 3.324463
1219.127, 3.884949
1219.609, 4.184814
1220.092, 4.187744
1220.574, 4.225220
1221.056, 4.470825
1221.538, 4.630859
1222.020, 3.983765
1222.502, 2.167847
1222.984, 1.924011
1223.466, 3.762085
1223.948, 5.699524
1224.431, 7.283081
1224.913, 8.250122
1225.395, 7.902161
1225.877, 6.856995
1226.359, 6.064392
1226.841, 5.889648
1227.323, 5.345764
1227.805, 4.238220
1228.287, 3.407715
1228.770, 3.215820
1229.252, 3.478027
1229.734, 4.590393
1230.216, 5.673157
1230.698, 5.236877
1231.180, 2.526062
1231.662, 1.471191
1232.144, 2.378662
1232.627, 3.141052
1233.109, 2.600952
1233.591, 1.760193
1234.073, 2.072144
1234.555, 2.866028
1235.037, 3.319214
1235.519, 3.406433
1236.001, 2.699219
1236.484, 1.065918
1236.966, 5.3893998E-02
1237.448, 0.3174440
1237.930, 1.135925
1238.412, 1.548340
1238.894, 1.651855
1239.376, 1.443359
1239.858, 0.7949830
1240.340, 0.9609380
1240.823, 1.962952
1241.305, 2.849609
1241.787, 2.927734
1242.269, 2.909607
1242.751, 3.755310
1243.233, 4.604736
1243.715, 4.105774
1244.197, 1.944641
1244.679, 2.227844
1245.162, 4.889526
1245.644, 6.391357
1246.126, 3.607910
1246.608, 0.7229000
1247.090, 0.9676510
1247.572, 2.429688
1248.054, 2.938965
1248.536, 2.502808
1249.019, 1.197449
1249.501, 0.8099980
1249.983, 1.819336
1250.465, 0.4048460
1250.947, 1.655518
1251.429, 4.251709
1251.911, 6.409668
1252.393, 7.100647
1252.875, 6.386230
1253.358, 5.670288
1253.840, 4.897278
1254.322, 3.771057
1254.804, 0.9727780
1255.286, 0.6890870
1255.768, 0.4594730
1256.250, 2.360352
1256.732, 3.329895
1257.214, 3.555542
1257.697, 4.443359
1258.179, 5.733215
1258.661, 6.168518
1259.143, 3.827454
1259.625, 2.644958
1260.107, 3.893005
1260.589, 5.518555
1261.071, 5.704163
1261.554, 4.984497
1262.036, 5.399048
1262.518, 6.537415
1263.000, 6.984924
1263.482, 5.593811
1263.964, 4.347351
1264.446, 3.315125
1264.928, 2.638428
1265.411, 2.416809
1265.893, 2.639954
1266.375, 3.565002
1266.857, 4.915222
1267.339, 5.952759
1267.821, 6.627991
1268.303, 6.599365
1268.785, 5.660278
1269.267, 4.805176
1269.750, 5.091797
1270.232, 5.615662
1270.714, 5.546082
1271.196, 5.003357
1271.678, 4.074280
1272.160, 2.388550
1272.642, 1.809692
1273.124, 2.443481
1273.606, 3.409119
1274.089, 4.318970
1274.571, 5.017517
1275.053, 5.193176
1275.535, 5.093872
1276.017, 5.330444
1276.499, 5.979919
1276.981, 4.033752
1277.463, 0.2360230
1277.946, 2.422058
1278.428, 0.4925540
1278.910, 1.987549
1279.392, 2.451477
1279.874, 2.145813
1280.356, 1.851074
1280.838, 1.526001
1281.320, 1.551392
1281.802, 1.882446
1282.285, 2.078552
1282.767, 1.268982
1283.249, 1.123718
1283.731, 2.757080
1284.213, 4.720093
1284.695, 5.960449
1285.177, 6.447510
1285.659, 5.578186
1286.141, 3.732666
1286.624, 2.486633
1287.106, 2.829163
1287.588, 3.481323
1288.070, 4.573669
1288.552, 5.222595
1289.034, 4.038635
1289.516, 2.120361
1289.998, 2.059021
1290.481, 3.251160
1290.963, 3.368347
1291.445, 4.944702
1291.927, 5.072327
1292.409, 3.337341
1292.891, 1.673523
1293.373, 1.687683
1293.855, 2.330750
1294.338, 1.936340
1294.820, 1.111511
1295.302, 1.148438
1295.784, 2.574341
1296.266, 2.826782
1296.748, 1.839844
1297.230, 0.8327640
1297.712, 0.4366460
1298.194, 0.3493650
1298.677, 0.5737920
1299.159, 0.8395390
1299.641, 0.7200930
1300.123, 0.1964110
1300.605, 0.2245480
1301.087, 0.7281490
1301.569, 1.109558
1302.051, 1.126343
1302.533, 0.7472530
1303.016, 0.0000000E+00
##END=



