##NAMES=Bastnasite-(Ce)
##RRUFFID=R050409
##IDEAL CHEMISTRY=CeCO_3_F
##LOCALITY=Machni, near Warsak Dam, Zagi Mountain, North-West Frontier Province, Pakistan
##OWNER=RRUFF
##SOURCE=G.R. Rossman
##DESCRIPTION=Yellowish brown fragment
##STATUS=The identification of this mineral has been confirmed by X-ray diffraction and chemical analysis
##URL=rruff.info/R050409
##MEASURED CHEMISTRY=(Ce_0.54_(La,Pr)_0.25_Nd_0.21_)_Î£=1_CO_3_F_1.00_
74.69531, 0.0000000E+00
75.17743, 115.5165
75.65955, 193.8855
76.14166, 226.8539
76.62378, 177.7492
77.10590, 135.2776
77.58801, 76.26846
78.07013, 20.89696
78.55225, 2.590157
79.03436, 8.901405
79.51648, 38.95971
79.99860, 95.54105
80.48071, 228.3976
80.96282, 335.1778
81.44494, 378.4799
81.92706, 439.5950
82.40917, 393.9049
82.89129, 379.1003
83.37341, 376.4412
83.85552, 357.7503
84.33764, 271.4607
84.81976, 186.4334
85.30187, 163.1369
85.78399, 245.2527
86.26611, 330.5277
86.74822, 347.9266
87.23034, 304.1949
87.71246, 234.4876
88.19457, 96.71733
88.67669, 45.36380
89.15881, 70.65298
89.64092, 171.8707
90.12304, 489.8336
90.60516, 651.7246
91.08727, 605.0568
91.56938, 494.8403
92.05150, 436.2034
92.53362, 415.2529
93.01573, 411.6087
93.49785, 434.4945
93.97997, 471.8087
94.46208, 456.2359
94.94420, 363.2253
95.42632, 236.5852
95.90843, 180.6025
96.39055, 201.6984
96.87267, 250.3851
97.35478, 290.1390
97.83690, 320.8428
98.31902, 348.3569
98.80113, 378.5870
99.28325, 410.7142
99.76537, 409.4016
100.2475, 358.1836
100.7296, 294.5095
101.2117, 280.9132
101.6938, 360.6710
102.1759, 403.7922
102.6581, 351.7216
103.1402, 136.7631
103.6223, 5.110268
104.1044, 45.32687
104.5865, 9.510971
105.0686, 8.618961
105.5508, 17.68395
106.0329, 39.35222
106.5150, 28.15843
106.9971, 76.76209
107.4792, 145.8326
107.9613, 148.4170
108.4435, 79.19491
108.9256, 44.04656
109.4077, 62.62297
109.8898, 111.7654
110.3719, 168.0838
110.8540, 253.0248
111.3362, 324.2253
111.8183, 361.4295
112.3004, 344.6501
112.7825, 343.8153
113.2646, 402.9677
113.7467, 490.9473
114.2289, 540.0743
114.7110, 477.2766
115.1931, 398.9572
115.6752, 365.9726
116.1573, 419.9786
116.6394, 492.6259
117.1216, 566.0811
117.6037, 637.4174
118.0858, 685.1735
118.5679, 657.8953
119.0500, 609.8391
119.5321, 607.9792
120.0143, 707.7913
120.4964, 847.9234
120.9785, 994.6421
121.4606, 1152.634
121.9427, 1270.294
122.4248, 1248.216
122.9070, 1141.077
123.3891, 1089.321
123.8712, 1245.323
124.3533, 1490.812
124.8354, 1627.319
125.3175, 1601.722
125.7996, 1503.302
126.2818, 1442.576
126.7639, 1417.615
127.2460, 1405.821
127.7281, 1374.086
128.2102, 1336.228
128.6924, 1350.249
129.1745, 1467.629
129.6566, 1636.058
130.1387, 1693.896
130.6208, 1626.519
131.1029, 1528.023
131.5850, 1506.591
132.0672, 1562.188
132.5493, 1623.383
133.0314, 1665.001
133.5135, 1687.012
133.9956, 1686.365
134.4777, 1656.948
134.9599, 1613.159
135.4420, 1580.660
135.9241, 1558.490
136.4062, 1550.908
136.8883, 1565.001
137.3704, 1605.586
137.8526, 1641.832
138.3347, 1667.226
138.8168, 1686.498
139.2989, 1727.906
139.7810, 1800.308
140.2631, 1877.052
140.7453, 1931.081
141.2274, 1939.605
141.7095, 1981.874
142.1916, 2069.478
142.6737, 2203.205
143.1558, 2368.250
143.6380, 2599.030
144.1201, 2841.187
144.6022, 3025.043
145.0843, 3101.973
145.5664, 3145.106
146.0485, 3208.394
146.5307, 3287.436
147.0128, 3390.820
147.4949, 3569.125
147.9770, 3769.730
148.4591, 3877.507
148.9412, 3791.024
149.4234, 3698.209
149.9055, 3670.807
150.3876, 3807.383
150.8697, 3893.269
151.3518, 3887.390
151.8339, 3802.763
152.3161, 3746.143
152.7982, 3728.351
153.2803, 3746.548
153.7624, 3794.010
154.2445, 3881.708
154.7266, 3978.666
155.2087, 4068.986
155.6909, 4148.437
156.1730, 4270.251
156.6551, 4485.649
157.1372, 4737.027
157.6193, 4960.555
158.1014, 5057.090
158.5836, 5183.167
159.0657, 5432.304
159.5478, 5868.555
160.0299, 6257.575
160.5120, 6491.905
160.9941, 6617.312
161.4763, 6726.525
161.9584, 6906.617
162.4405, 7061.864
162.9226, 7123.047
163.4047, 7072.129
163.8868, 6926.043
164.3690, 6676.373
164.8511, 6337.311
165.3332, 5953.470
165.8153, 5493.303
166.2974, 5020.357
166.7795, 4602.967
167.2617, 4316.747
167.7438, 4056.732
168.2259, 3725.359
168.7080, 3327.569
169.1901, 2951.282
169.6722, 2651.265
170.1544, 2414.453
170.6365, 2219.418
171.1186, 2060.403
171.6007, 1937.173
172.0828, 1850.775
172.5649, 1803.995
173.0471, 1774.707
173.5292, 1758.850
174.0113, 1747.616
174.4934, 1716.511
174.9755, 1643.381
175.4576, 1544.075
175.9397, 1439.212
176.4219, 1323.064
176.9040, 1219.931
177.3861, 1171.631
177.8682, 1169.499
178.3503, 1160.970
178.8324, 1081.786
179.3146, 968.4103
179.7967, 916.7977
180.2788, 982.8809
180.7609, 1084.758
181.2430, 1074.320
181.7251, 953.0786
182.2073, 811.3586
182.6894, 720.4319
183.1715, 674.1294
183.6536, 651.6554
184.1357, 658.5480
184.6178, 681.5541
185.1000, 680.0234
185.5821, 650.3885
186.0642, 622.8967
186.5463, 647.7183
187.0284, 717.3634
187.5105, 759.9553
187.9927, 716.5566
188.4748, 610.9128
188.9569, 579.0481
189.4390, 640.7018
189.9211, 722.9224
190.4032, 707.7031
190.8854, 592.8959
191.3675, 471.9277
191.8496, 385.1029
192.3317, 331.9368
192.8138, 316.5757
193.2959, 356.0676
193.7781, 409.5537
194.2602, 379.6584
194.7423, 255.6487
195.2244, 126.6310
195.7065, 49.11194
196.1886, 23.95935
196.6708, 16.77722
197.1529, 32.13428
197.6350, 58.21045
198.1171, 48.11243
198.5992, 7.408325
199.0813, 63.99463
199.5634, 85.82788
200.0456, 70.46436
200.5277, 38.72449
201.0098, 12.61902
201.4919, 79.45190
201.9740, 128.1301
202.4561, 161.0255
202.9383, 170.6986
203.4204, 138.1414
203.9025, 49.42871
204.3846, 19.74951
204.8667, 42.32312
205.3488, 18.28162
205.8310, 14.04150
206.3131, 36.88855
206.7952, 68.98853
207.2773, 86.70068
207.7594, 89.13623
208.2415, 79.52979
208.7237, 50.17200
209.2058, 7.232788
209.6879, 22.09631
210.1700, 25.63989
210.6521, 98.53162
211.1342, 120.4036
211.6164, 74.08130
212.0985, 17.82874
212.5806, 22.82275
213.0627, 41.41101
213.5448, 68.43408
214.0269, 115.2080
214.5091, 166.8625
214.9912, 171.5352
215.4733, 96.16907
215.9554, 34.98669
216.4375, 48.42505
216.9196, 167.8198
217.4018, 269.8824
217.8839, 343.7815
218.3660, 393.1422
218.8481, 438.7377
219.3302, 481.3615
219.8123, 518.3987
220.2945, 543.3770
220.7766, 542.0190
221.2587, 563.9661
221.7408, 621.5315
222.2229, 712.0608
222.7050, 795.3282
223.1871, 877.5399
223.6693, 946.1337
224.1514, 984.6047
224.6335, 961.5085
225.1156, 973.5718
225.5977, 1049.655
226.0798, 1191.229
226.5620, 1304.176
227.0441, 1370.290
227.5262, 1423.959
228.0083, 1504.542
228.4904, 1629.306
228.9725, 1747.593
229.4547, 1840.865
229.9368, 1902.260
230.4189, 2005.000
230.9010, 2176.577
231.3831, 2362.226
231.8652, 2488.765
232.3474, 2513.599
232.8295, 2564.222
233.3116, 2689.995
233.7937, 2915.678
234.2758, 3098.726
234.7579, 3216.938
235.2401, 3302.908
235.7222, 3411.239
236.2043, 3538.650
236.6864, 3693.608
237.1685, 3885.725
237.6507, 4137.727
238.1328, 4360.657
238.6149, 4534.690
239.0970, 4686.360
239.5791, 4879.000
240.0612, 5138.122
240.5434, 5401.673
241.0255, 5639.511
241.5076, 5835.870
241.9897, 6046.552
242.4718, 6278.331
242.9539, 6523.650
243.4360, 6759.985
243.9182, 6983.772
244.4003, 7203.918
244.8824, 7431.677
245.3645, 7692.297
245.8466, 7896.006
246.3287, 8013.640
246.8109, 8070.209
247.2930, 8172.873
247.7751, 8337.930
248.2572, 8524.514
248.7393, 8707.785
249.2214, 8874.102
249.7036, 9063.957
250.1857, 9285.962
250.6678, 9534.175
251.1499, 9790.900
251.6320, 10074.49
252.1141, 10342.57
252.5963, 10548.70
253.0784, 10635.30
253.5605, 10802.87
254.0426, 11117.12
254.5247, 11550.15
255.0068, 11879.91
255.4890, 12092.88
255.9711, 12220.17
256.4532, 12281.41
256.9353, 12262.82
257.4174, 12212.03
257.8995, 12148.73
258.3817, 12069.82
258.8638, 11909.19
259.3459, 11658.24
259.8280, 11332.35
260.3101, 10928.38
260.7922, 10418.87
261.2744, 9912.041
261.7565, 9434.060
262.2386, 8976.095
262.7207, 8537.311
263.2028, 8116.419
263.6849, 7716.319
264.1671, 7337.745
264.6492, 6992.937
265.1313, 6636.005
265.6134, 6251.225
266.0955, 5841.630
266.5776, 5486.360
267.0598, 5198.665
267.5419, 4950.454
268.0240, 4704.773
268.5061, 4453.637
268.9882, 4236.994
269.4703, 4078.787
269.9525, 3978.329
270.4346, 3861.325
270.9167, 3718.918
271.3988, 3569.857
271.8809, 3435.036
272.3630, 3315.974
272.8452, 3205.313
273.3273, 3100.115
273.8094, 3001.242
274.2915, 2923.943
274.7736, 2879.230
275.2557, 2831.754
275.7379, 2736.628
276.2200, 2590.978
276.7021, 2418.546
277.1842, 2218.433
277.6663, 1994.382
278.1484, 1773.575
278.6305, 1551.352
279.1126, 1345.393
279.5948, 1188.090
280.0769, 1081.869
280.5590, 988.2266
281.0411, 893.8650
281.5232, 799.1467
282.0053, 715.2617
282.4875, 644.4832
282.9696, 576.0652
283.4517, 489.4922
283.9338, 384.8066
284.4159, 293.3464
284.8980, 236.6123
285.3802, 207.5659
285.8623, 166.7871
286.3444, 113.6665
286.8265, 50.81567
287.3086, 42.43579
287.7907, 159.8652
288.2729, 222.5269
288.7550, 142.8311
289.2371, 29.27075
289.7192, 82.57251
290.2013, 2.638184
290.6834, 124.6418
291.1656, 158.9236
291.6477, 116.3308
292.1298, 57.87915
292.6119, 5.016602
293.0940, 62.54272
293.5761, 82.48975
294.0583, 58.32690
294.5404, 28.31348
295.0225, 33.58325
295.5046, 69.47681
295.9867, 116.9800
296.4688, 184.7461
296.9510, 255.4060
297.4331, 285.7874
297.9152, 270.4299
298.3973, 251.9546
298.8794, 273.6311
299.3615, 326.6831
299.8437, 387.6130
300.3258, 450.3818
300.8079, 512.6230
301.2900, 578.1941
301.7721, 648.1670
302.2542, 701.8821
302.7364, 709.2434
303.2185, 685.9163
303.7006, 663.9688
304.1827, 652.9043
304.6648, 653.1396
305.1469, 664.9233
305.6291, 688.1572
306.1112, 724.0298
306.5933, 791.5459
307.0754, 870.5984
307.5575, 926.1458
308.0396, 934.4102
308.5218, 919.2834
309.0039, 891.4531
309.4860, 850.2236
309.9681, 817.5901
310.4502, 805.5796
310.9323, 810.5049
311.4145, 827.1638
311.8966, 885.0696
312.3787, 930.0513
312.8608, 917.3506
313.3429, 840.3916
313.8250, 778.9937
314.3072, 785.2141
314.7893, 820.2559
315.2714, 838.7444
315.7535, 825.0649
316.2356, 792.5808
316.7177, 742.6150
317.1999, 674.2551
317.6820, 602.9443
318.1641, 528.7312
318.6462, 454.9888
319.1283, 386.0144
319.6104, 318.6973
320.0926, 260.2178
320.5747, 216.6692
321.0568, 189.0347
321.5389, 156.9229
322.0210, 102.1558
322.5031, 48.67725
322.9852, 17.80078
323.4673, 35.53589
323.9495, 50.58911
324.4316, 53.17700
324.9137, 42.81396
325.3958, 33.74585
325.8779, 26.20581
326.3600, 20.45117
326.8422, 15.93604
327.3243, 10.72290
327.8064, 6.086914
328.2885, 50.14819
328.7706, 155.0149
329.2527, 236.0303
329.7349, 294.4529
330.2170, 326.8865
330.6991, 325.0181
331.1812, 248.3943
331.6633, 213.7095
332.1454, 244.8340
332.6276, 331.8586
333.1097, 409.1797
333.5918, 478.2866
334.0739, 534.2664
334.5560, 568.6284
335.0381, 568.3340
335.5203, 590.5481
336.0024, 647.7339
336.4845, 729.6887
336.9666, 795.1282
337.4487, 836.5750
337.9308, 882.0842
338.4130, 954.3730
338.8951, 1058.416
339.3772, 1144.233
339.8593, 1203.026
340.3414, 1245.832
340.8235, 1294.533
341.3057, 1346.960
341.7878, 1421.005
342.2699, 1538.110
342.7520, 1694.124
343.2341, 1830.363
343.7162, 1939.804
344.1984, 2033.841
344.6805, 2134.469
345.1626, 2240.614
345.6447, 2333.377
346.1268, 2407.207
346.6089, 2467.895
347.0911, 2507.144
347.5732, 2514.942
348.0553, 2517.676
348.5374, 2558.556
349.0195, 2625.840
349.5016, 2670.780
349.9838, 2651.122
350.4659, 2596.738
350.9480, 2554.964
351.4301, 2531.019
351.9122, 2499.554
352.3943, 2435.544
352.8765, 2346.811
353.3586, 2249.134
353.8407, 2148.747
354.3228, 2044.071
354.8049, 1934.093
355.2870, 1818.473
355.7692, 1702.170
356.2513, 1582.382
356.7334, 1465.803
357.2155, 1359.719
357.6976, 1281.516
358.1797, 1202.902
358.6619, 1102.972
359.1440, 981.9546
359.6261, 868.7542
360.1082, 763.8120
360.5903, 677.4883
361.0724, 618.7737
361.5546, 629.6987
362.0367, 629.8201
362.5188, 586.4001
363.0009, 504.5847
363.4830, 438.7559
363.9651, 432.0427
364.4473, 426.1921
364.9294, 384.6206
365.4115, 220.1624
365.8936, 116.6716
366.3757, 124.6799
366.8578, 218.5696
367.3399, 272.1968
367.8221, 242.1235
368.3042, 208.7363
368.7863, 209.9353
369.2684, 278.3235
369.7505, 320.4514
370.2326, 329.1771
370.7148, 316.3473
371.1969, 313.6102
371.6790, 318.5079
372.1611, 327.8655
372.6432, 341.5789
373.1253, 362.3510
373.6075, 381.9978
374.0896, 393.6152
374.5717, 411.9462
375.0538, 468.8683
375.5359, 573.6362
376.0180, 675.0728
376.5002, 754.6151
376.9823, 808.9583
377.4644, 855.2173
377.9465, 893.3040
378.4286, 931.5383
378.9107, 984.3323
379.3929, 1050.369
379.8750, 1103.859
380.3571, 1128.043
380.8392, 1135.634
381.3213, 1165.762
381.8034, 1219.445
382.2856, 1275.571
382.7677, 1323.933
383.2498, 1359.927
383.7319, 1373.089
384.2140, 1350.067
384.6961, 1315.792
385.1783, 1309.670
385.6604, 1327.603
386.1425, 1331.941
386.6246, 1269.252
387.1067, 1182.598
387.5888, 1131.558
388.0710, 1143.335
388.5531, 1174.015
389.0352, 1194.579
389.5173, 1209.437
389.9994, 1230.361
390.4815, 1273.509
390.9637, 1313.371
391.4458, 1332.902
391.9279, 1321.607
392.4100, 1315.358
392.8921, 1330.373
393.3742, 1352.841
393.8564, 1364.654
394.3385, 1354.944
394.8206, 1347.279
395.3027, 1352.115
395.7848, 1375.075
396.2669, 1373.529
396.7491, 1333.000
397.2312, 1273.678
397.7133, 1218.190
398.1954, 1173.063
398.6775, 1131.643
399.1596, 1087.910
399.6418, 1035.918
400.1239, 988.2205
400.6060, 956.1306
401.0881, 922.8416
401.5702, 869.2854
402.0523, 783.7480
402.5345, 714.5684
403.0166, 675.4996
403.4987, 657.6112
403.9808, 621.0725
404.4629, 562.5841
404.9450, 495.0308
405.4272, 419.6517
405.9093, 335.8922
406.3914, 277.7798
406.8735, 251.4742
407.3556, 246.3506
407.8377, 248.8365
408.3199, 258.5265
408.8020, 265.3887
409.2841, 265.9065
409.7662, 260.1924
410.2483, 243.8649
410.7304, 214.2676
411.2126, 181.4205
411.6946, 158.0436
412.1768, 139.8242
412.6589, 114.4840
413.1410, 61.37866
413.6231, 7.678467
414.1052, 15.77881
414.5873, 8.434448
415.0695, 13.70667
415.5516, 61.85620
416.0337, 108.5327
416.5158, 122.6754
416.9979, 54.02087
417.4800, 8.389343
417.9622, 10.67981
418.4443, 34.25494
418.9264, 63.57715
419.4085, 30.90771
419.8906, 7.407654
420.3727, 16.43842
420.8549, 28.78662
421.3370, 71.86646
421.8191, 116.4969
422.3012, 153.8282
422.7833, 160.4538
423.2654, 109.0531
423.7476, 52.78027
424.2297, 5.297607
424.7118, 34.62256
425.1939, 59.54486
425.6760, 68.73639
426.1581, 64.19873
426.6403, 42.41821
427.1224, 12.68781
427.6045, 40.92603
428.0866, 14.78741
428.5687, 58.42615
429.0508, 84.62079
429.5330, 54.26782
430.0151, 7.169189
430.4972, 24.69617
430.9793, 41.67859
431.4614, 56.29596
431.9435, 74.71393
432.4257, 87.44812
432.9078, 61.48907
433.3899, 2.5574001E-02
433.8720, 47.17310
434.3541, 33.85687
434.8362, 15.66907
435.3184, 51.10248
435.8005, 64.94653
436.2826, 71.74213
436.7647, 78.82275
437.2468, 89.77576
437.7289, 112.6828
438.2111, 191.2085
438.6932, 255.8817
439.1753, 231.2049
439.6574, 110.2537
440.1395, 10.67780
440.6216, 13.11316
441.1038, 59.27637
441.5859, 88.57178
442.0680, 74.27344
442.5501, 51.32733
443.0322, 19.75092
443.5143, 16.46832
443.9965, 33.04153
444.4786, 6.245667
444.9607, 26.28070
445.4428, 45.61893
445.9249, 45.86975
446.4070, 41.20969
446.8892, 21.85892
447.3713, 0.9779050
447.8534, 10.92773
448.3355, 81.21393
448.8176, 125.0245
449.2997, 99.17191
449.7819, 4.144928
450.2640, 52.71280
450.7461, 31.82861
451.2282, 10.22815
451.7103, 10.07318
452.1924, 34.19006
452.6746, 52.54947
453.1567, 17.67688
453.6388, 49.14966
454.1209, 100.6903
454.6030, 137.1238
455.0851, 142.8808
455.5673, 69.46655
456.0494, 40.09961
456.5315, 87.04956
457.0136, 43.75439
457.4957, 37.87134
457.9778, 139.6042
458.4599, 243.8035
458.9420, 302.9475
459.4242, 255.0145
459.9063, 176.5179
460.3884, 120.3757
460.8705, 91.29675
461.3526, 82.10541
461.8347, 108.2737
462.3169, 145.3227
462.7990, 168.0222
463.2811, 152.8392
463.7632, 141.4084
464.2453, 146.3108
464.7274, 166.1297
465.2096, 183.0314
465.6917, 205.9767
466.1738, 218.6892
466.6559, 207.1051
467.1380, 124.5837
467.6201, 111.3778
468.1023, 211.6700
468.5844, 357.0695
469.0665, 402.8534
469.5486, 319.1324
470.0307, 228.4973
470.5128, 174.8939
470.9950, 156.3691
471.4771, 126.5407
471.9592, 78.40225
472.4413, 47.43224
472.9234, 80.15767
473.4055, 167.1746
473.8877, 254.4799
474.3698, 342.6255
474.8519, 408.5132
475.3340, 396.6994
475.8161, 317.4329
476.2982, 237.7446
476.7804, 190.1476
477.2625, 169.6700
477.7446, 176.3887
478.2267, 218.6812
478.7088, 255.4839
479.1909, 246.2205
479.6731, 214.8376
480.1552, 199.1812
480.6373, 241.5901
481.1194, 277.0359
481.6015, 265.2760
482.0836, 204.2915
482.5658, 168.1095
483.0479, 201.1425
483.5300, 247.3328
484.0121, 266.9606
484.4942, 228.0739
484.9763, 211.1715
485.4585, 224.5232
485.9406, 257.4936
486.4227, 278.1160
486.9048, 287.1593
487.3869, 293.0766
487.8690, 301.7482
488.3512, 313.2142
488.8333, 300.1394
489.3154, 254.7461
489.7975, 205.4117
490.2796, 183.5911
490.7617, 188.4577
491.2439, 209.0988
491.7260, 253.9347
492.2081, 304.8560
492.6902, 318.5282
493.1723, 295.6374
493.6544, 261.8417
494.1366, 223.4328
494.6187, 189.7184
495.1008, 176.1957
495.5829, 189.0291
496.0650, 209.4711
496.5471, 237.1676
497.0293, 261.8433
497.5114, 266.3403
497.9935, 204.1891
498.4756, 154.8293
498.9577, 163.5347
499.4398, 232.2492
499.9220, 288.5212
500.4041, 312.5125
500.8862, 322.7942
501.3683, 332.1018
501.8504, 350.6741
502.3325, 358.8598
502.8146, 356.4894
503.2968, 341.9282
503.7789, 307.3454
504.2610, 236.2410
504.7431, 183.3360
505.2252, 178.3484
505.7073, 222.7448
506.1895, 254.5341
506.6716, 271.4651
507.1537, 276.3315
507.6358, 262.6856
508.1179, 234.3193
508.6000, 218.5473
509.0822, 227.6879
509.5643, 244.8511
510.0464, 240.6306
510.5285, 221.4656
511.0106, 214.2715
511.4927, 258.6813
511.9749, 309.5524
512.4570, 313.0215
512.9391, 252.4334
513.4212, 193.5944
513.9033, 184.9829
514.3854, 192.3346
514.8676, 174.1535
515.3497, 63.75668
515.8318, 17.23608
516.3139, 17.99899
516.7960, 55.17023
517.2781, 97.15848
517.7603, 84.67735
518.2424, 58.31447
518.7245, 35.02987
519.2066, 7.113190
519.6887, 6.667877
520.1708, 48.67184
520.6530, 103.1255
521.1351, 117.8685
521.6172, 88.56747
522.0993, 50.53526
522.5814, 7.821304
523.0635, 33.75770
523.5457, 49.49590
524.0278, 39.40514
524.5099, 13.70005
524.9920, 35.84357
525.4741, 92.49905
525.9562, 112.1453
526.4384, 70.05840
526.9205, 30.41553
527.4026, 76.76726
527.8847, 169.1701
528.3668, 223.2837
528.8489, 161.5499
529.3311, 82.52986
529.8132, 34.61385
530.2953, 20.32372
530.7774, 29.23434
531.2595, 87.25659
531.7416, 149.4412
532.2238, 183.0273
532.7059, 157.9523
533.1880, 142.9524
533.6701, 149.6579
534.1522, 163.5941
534.6343, 144.8422
535.1165, 66.70785
535.5986, 22.57736
536.0807, 63.14943
536.5628, 182.4322
537.0449, 234.6618
537.5270, 210.5789
538.0092, 168.9763
538.4913, 166.7924
538.9734, 196.0639
539.4555, 222.6437
539.9376, 238.3351
540.4197, 250.5434
540.9019, 281.8941
541.3840, 320.7188
541.8661, 331.4029
542.3482, 263.5820
542.8303, 182.3637
543.3124, 140.7861
543.7946, 143.9715
544.2767, 150.1568
544.7588, 136.8795
545.2409, 121.9614
545.7230, 120.0707
546.2051, 150.6560
546.6873, 173.9064
547.1694, 187.1199
547.6515, 190.3254
548.1336, 181.5541
548.6157, 149.1106
549.0978, 126.0087
549.5800, 125.3044
550.0621, 147.1232
550.5442, 174.9246
551.0263, 216.3276
551.5084, 239.4804
551.9905, 194.9666
552.4727, 94.05441
552.9548, 26.71829
553.4369, 16.58936
553.9190, 32.65733
554.4011, 27.32330
554.8832, 8.871307
555.3654, 6.482330
555.8475, 56.09250
556.3296, 114.9143
556.8117, 146.3500
557.2938, 148.7269
557.7759, 138.0549
558.2581, 95.48697
558.7402, 57.83917
559.2223, 56.24844
559.7044, 148.8054
560.1865, 209.9713
560.6686, 203.8815
561.1508, 159.7952
561.6329, 137.7040
562.1150, 149.9086
562.5971, 162.4022
563.0792, 167.5259
563.5613, 165.4296
564.0435, 147.2528
564.5256, 107.4829
565.0077, 71.64180
565.4898, 63.77385
565.9719, 80.93793
566.4540, 101.6721
566.9362, 124.7424
567.4183, 145.2418
567.9004, 155.4965
568.3824, 157.7318
568.8646, 156.1841
569.3467, 149.8374
569.8288, 142.6610
570.3109, 134.0977
570.7930, 125.3976
571.2751, 126.8224
571.7573, 159.6810
572.2394, 193.0567
572.7215, 202.9887
573.2036, 158.8988
573.6857, 139.1999
574.1678, 178.5034
574.6500, 238.9563
575.1321, 261.8083
575.6142, 227.1199
576.0963, 194.9220
576.5784, 180.2785
577.0605, 178.8667
577.5427, 164.0597
578.0248, 132.4470
578.5069, 111.1754
578.9890, 130.3290
579.4711, 177.0304
579.9532, 194.8387
580.4354, 175.9808
580.9175, 146.7493
581.3996, 135.4098
581.8817, 137.0653
582.3638, 140.3327
582.8459, 133.6627
583.3281, 132.9901
583.8102, 155.6842
584.2923, 194.0429
584.7744, 221.9291
585.2565, 234.4479
585.7386, 232.8480
586.2208, 208.7960
586.7029, 146.2767
587.1850, 125.8568
587.6671, 172.3392
588.1492, 237.2123
588.6313, 284.2135
589.1135, 319.9099
589.5956, 305.7978
590.0777, 216.8839
590.5598, 101.7229
591.0419, 77.02997
591.5240, 141.8927
592.0062, 220.0510
592.4883, 297.4961
592.9704, 355.9437
593.4525, 335.5157
593.9346, 240.8068
594.4167, 164.9235
594.8989, 196.4874
595.3810, 275.9889
595.8631, 339.6445
596.3452, 381.6378
596.8273, 388.2929
597.3094, 322.0421
597.7916, 227.7463
598.2737, 174.3601
598.7558, 210.5514
599.2379, 245.3997
599.7200, 260.4230
600.2021, 259.3264
600.6843, 273.6433
601.1664, 314.4087
601.6485, 344.9557
602.1306, 339.7853
602.6127, 299.1303
603.0948, 258.0394
603.5770, 213.3774
604.0591, 189.7977
604.5412, 245.8908
605.0233, 348.8895
605.5054, 398.7589
605.9875, 345.5029
606.4697, 262.6758
606.9518, 209.0987
607.4339, 180.9406
607.9160, 167.5407
608.3981, 182.5036
608.8802, 195.7550
609.3624, 187.2435
609.8445, 152.9905
610.3266, 132.0170
610.8087, 135.5521
611.2908, 148.6473
611.7729, 164.1270
612.2551, 185.9706
612.7372, 199.5287
613.2193, 204.7433
613.7014, 201.2589
614.1835, 183.1468
614.6656, 149.8212
615.1478, 124.3071
615.6299, 114.0804
616.1120, 115.2467
616.5941, 130.8759
617.0762, 156.2236
617.5583, 160.2691
618.0405, 86.47906
618.5226, 2.903244
619.0047, 11.46419
619.4868, 60.83592
619.9689, 118.8442
620.4510, 101.1373
620.9332, 57.99104
621.4153, 35.15050
621.8974, 54.53941
622.3795, 77.24860
622.8616, 110.0758
623.3438, 141.6132
623.8259, 144.8409
624.3080, 111.8654
624.7901, 72.46121
625.2722, 28.23410
625.7543, 14.89566
626.2365, 14.85069
626.7186, 30.39735
627.2007, 69.99146
627.6828, 44.60609
628.1649, 9.244583
628.6470, 11.93251
629.1292, 52.36665
629.6113, 123.7791
630.0934, 160.8108
630.5755, 176.4854
631.0576, 187.8320
631.5397, 210.3668
632.0219, 217.7938
632.5040, 195.9421
632.9861, 152.7351
633.4682, 111.3266
633.9503, 55.45259
634.4324, 26.17424
634.9146, 46.61424
635.3967, 114.6008
635.8788, 141.8578
636.3609, 121.5432
636.8430, 86.17639
637.3251, 48.26907
637.8073, 13.21742
638.2894, 19.25436
638.7715, 79.22937
639.2536, 138.3361
639.7357, 126.4634
640.2178, 75.20523
640.7000, 41.41438
641.1821, 60.70366
641.6642, 85.89157
642.1463, 91.69719
642.6284, 83.84018
643.1105, 79.26550
643.5927, 86.63828
644.0748, 93.15170
644.5569, 96.79559
645.0390, 98.40977
645.5211, 88.21201
646.0032, 64.16940
646.4854, 32.31238
646.9675, 14.38127
647.4496, 75.73358
647.9317, 87.00426
648.4138, 36.27115
648.8959, 34.91907
649.3781, 84.21341
649.8602, 112.3794
650.3423, 122.8687
650.8244, 114.9821
651.3065, 91.72757
651.7886, 38.82921
652.2708, 29.69817
652.7529, 72.92030
653.2350, 67.38312
653.7171, 42.13402
654.1992, 2.213547
654.6813, 67.90613
655.1635, 101.0072
655.6456, 80.09738
656.1277, 55.63516
656.6098, 63.06000
657.0919, 108.9792
657.5740, 138.1212
658.0562, 148.4851
658.5382, 142.5495
659.0203, 110.7964
659.5024, 62.68147
659.9846, 32.74174
660.4667, 28.86336
660.9488, 49.24011
661.4309, 112.9201
661.9130, 199.9779
662.3951, 262.2564
662.8773, 252.5476
663.3594, 237.5293
663.8415, 258.9040
664.3236, 316.6100
664.8057, 326.1393
665.2878, 247.6966
665.7700, 162.9654
666.2521, 112.0215
666.7342, 101.9153
667.2163, 81.56560
667.6984, 44.38321
668.1805, 14.85352
668.6627, 29.31079
669.1448, 78.47882
669.6269, 111.6798
670.1090, 118.0647
670.5911, 108.2518
671.0732, 81.23383
671.5554, 47.71689
672.0375, 30.03702
672.5196, 57.78256
673.0017, 84.41878
673.4838, 79.23618
673.9659, 49.75793
674.4481, 43.85806
674.9302, 95.12251
675.4123, 142.2166
675.8944, 164.6607
676.3765, 160.9473
676.8586, 144.8327
677.3408, 109.4051
677.8229, 83.60310
678.3050, 102.8680
678.7871, 157.6236
679.2692, 189.6235
679.7513, 188.2557
680.2335, 180.3511
680.7156, 202.6114
681.1977, 237.1022
681.6798, 251.5020
682.1619, 198.6648
682.6440, 166.2065
683.1262, 215.0359
683.6083, 314.3369
684.0904, 384.8004
684.5725, 384.1316
685.0546, 385.4530
685.5367, 416.5594
686.0189, 470.8758
686.5010, 465.9957
686.9831, 390.3137
687.4652, 297.4106
687.9473, 207.4877
688.4294, 124.8619
688.9116, 87.10306
689.3937, 97.47964
689.8758, 116.4930
690.3579, 108.6712
690.8400, 87.60950
691.3221, 73.34665
691.8043, 74.81438
692.2864, 73.31522
692.7685, 57.24016
693.2506, 34.21063
693.7327, 15.13182
694.2148, 1.471497
694.6970, 10.03481
695.1791, 8.858749
695.6612, 0.5758060
696.1433, 16.12396
696.6254, 39.64038
697.1075, 58.09531
697.5897, 65.70920
698.0718, 64.34790
698.5539, 56.72382
699.0360, 43.53371
699.5181, 34.54005
700.0002, 45.83240
700.4824, 59.82440
700.9645, 55.62611
701.4466, 28.17757
701.9287, 3.959244
702.4108, 7.344513
702.8929, 10.84555
703.3751, 10.63567
703.8572, 7.925827
704.3393, 0.1738890
704.8214, 12.49808
705.3035, 26.00748
705.7856, 40.30537
706.2678, 58.78003
706.7499, 93.96341
707.2320, 162.3612
707.7141, 224.8099
708.1962, 179.3309
708.6783, 59.37732
709.1605, 12.08575
709.6426, 91.15625
710.1247, 211.3582
710.6068, 215.0055
711.0889, 119.4318
711.5710, 55.13293
712.0532, 85.91219
712.5353, 130.7479
713.0174, 158.1402
713.4995, 167.3560
713.9816, 158.4277
714.4637, 121.4409
714.9459, 87.80151
715.4280, 85.93265
715.9101, 113.2665
716.3922, 143.0328
716.8743, 172.2155
717.3564, 204.8638
717.8386, 252.4251
718.3207, 304.8553
718.8028, 343.5494
719.2849, 358.2289
719.7670, 364.7582
720.2491, 359.2872
720.7313, 352.0397
721.2134, 363.3355
721.6955, 411.5605
722.1776, 458.4847
722.6597, 500.4914
723.1418, 536.1176
723.6240, 560.1830
724.1061, 571.8894
724.5882, 588.5678
725.0703, 619.3646
725.5524, 661.2595
726.0345, 708.8196
726.5167, 761.4138
726.9988, 811.0589
727.4809, 876.4301
727.9630, 921.0936
728.4451, 898.3894
728.9272, 790.8286
729.4094, 704.1127
729.8915, 670.6667
730.3736, 669.6861
730.8557, 685.0469
731.3378, 721.9684
731.8199, 760.8539
732.3021, 797.5172
732.7842, 845.8976
733.2663, 939.9016
733.7484, 1074.225
734.2305, 1180.167
734.7126, 1245.083
735.1948, 1272.912
735.6769, 1267.038
736.1590, 1225.155
736.6411, 1142.942
737.1232, 979.3472
737.6053, 814.2630
738.0875, 674.5900
738.5696, 561.3815
739.0517, 471.6278
739.5338, 420.9290
740.0159, 369.1136
740.4980, 303.5860
740.9802, 222.8138
741.4623, 142.5493
741.9444, 60.76723
742.4265, 11.33499
742.9086, 39.41306
743.3907, 111.4583
743.8729, 156.0290
744.3550, 169.9303
744.8371, 172.2595
745.3192, 177.4139
745.8013, 175.8398
746.2834, 156.5352
746.7656, 107.1077
747.2477, 68.46140
747.7298, 40.55696
748.2119, 28.61565
748.6940, 44.94098
749.1761, 103.5283
749.6582, 126.5490
750.1403, 96.41922
750.6224, 49.61456
751.1046, 47.61766
751.5867, 79.48778
752.0688, 102.1423
752.5509, 100.4121
753.0330, 87.16653
753.5151, 65.47862
753.9973, 41.26401
754.4794, 27.25339
754.9615, 26.26083
755.4436, 37.06894
755.9257, 72.17157
756.4078, 121.1319
756.8900, 134.8605
757.3721, 96.88470
757.8542, 69.70428
758.3363, 85.57310
758.8184, 131.8410
759.3005, 153.0883
759.7827, 150.0027
760.2648, 134.6618
760.7469, 99.99562
761.2290, 67.36008
761.7111, 71.39534
762.1932, 115.5173
762.6754, 138.4963
763.1575, 87.08911
763.6396, 27.19109
764.1217, 1.634613
764.6038, 16.20935
765.0859, 54.62196
765.5681, 136.2634
766.0502, 206.6443
766.5323, 200.9762
767.0144, 121.6262
767.4965, 66.63220
767.9786, 50.08379
768.4608, 51.80734
768.9429, 57.32886
769.4250, 64.12096
769.9071, 68.39967
770.3892, 70.86835
770.8713, 67.77759
771.3535, 49.72070
771.8356, 28.67181
772.3177, 27.35039
772.7998, 60.71234
773.2819, 85.48027
773.7640, 93.98622
774.2462, 90.79944
774.7283, 85.97571
775.2104, 79.51906
775.6925, 71.16765
776.1746, 56.31532
776.6567, 43.58252
777.1389, 55.13074
777.6210, 83.47821
778.1031, 100.2768
778.5852, 84.10211
779.0673, 59.79871
779.5494, 27.89201
780.0316, 10.54720
780.5137, 12.22443
780.9958, 47.45082
781.4779, 104.3913
781.9600, 122.9360
782.4421, 107.3995
782.9243, 117.4521
783.4064, 154.1834
783.8885, 185.4089
784.3706, 182.3297
784.8527, 159.8105
785.3348, 134.0677
785.8170, 106.3945
786.2991, 86.04691
786.7812, 90.62781
787.2633, 95.51575
787.7454, 77.99083
788.2275, 15.90598
788.7097, 4.380203
789.1918, 40.48654
789.6739, 89.48999
790.1560, 66.39259
790.6381, 20.91350
791.1202, 55.02541
791.6024, 16.44748
792.0845, 50.61632
792.5666, 124.2043
793.0487, 187.6822
793.5308, 210.9035
794.0129, 162.9426
794.4951, 115.0766
794.9772, 94.76814
795.4593, 89.27548
795.9414, 80.70851
796.4235, 70.45360
796.9056, 50.28268
797.3878, 8.656967
797.8699, 30.85564
798.3520, 12.04135
798.8341, 58.13266
799.3162, 118.3421
799.7983, 150.4225
800.2805, 158.7491
800.7626, 132.1627
801.2447, 85.47305
801.7268, 53.81416
802.2089, 67.36003
802.6910, 79.88025
803.1732, 71.82619
803.6553, 50.50757
804.1374, 39.50374
804.6195, 41.27382
805.1016, 46.46101
805.5837, 55.06270
806.0659, 63.13580
806.5480, 50.45766
807.0301, 20.82552
807.5122, 5.002533
807.9943, 40.11684
808.4764, 82.29919
808.9586, 88.58644
809.4407, 61.82657
809.9228, 41.65779
810.4049, 49.38600
810.8870, 55.84969
811.3691, 43.50243
811.8513, 12.74345
812.3334, 22.41420
812.8155, 82.65280
813.2976, 136.7370
813.7797, 137.3493
814.2618, 104.2488
814.7440, 90.02051
815.2261, 96.01923
815.7082, 107.1934
816.1903, 127.3134
816.6724, 138.8376
817.1545, 122.9669
817.6367, 69.90977
818.1188, 33.21083
818.6009, 19.21738
819.0830, 19.53006
819.5651, 34.44502
820.0472, 66.44394
820.5294, 71.78378
821.0115, 45.44777
821.4936, 20.66035
821.9757, 46.36046
822.4578, 90.39998
822.9399, 87.98367
823.4221, 17.89114
823.9042, 33.94771
824.3863, 1.414368
824.8684, 55.43811
825.3505, 79.26393
825.8326, 34.16260
826.3148, 34.05573
826.7969, 105.5065
827.2790, 176.8299
827.7611, 151.3765
828.2432, 44.51178
828.7253, 25.77808
829.2075, 39.19142
829.6896, 22.11491
830.1717, 21.15724
830.6538, 70.65790
831.1359, 100.0201
831.6180, 96.18257
832.1002, 81.44716
832.5823, 48.33200
833.0644, 13.19746
833.5465, 3.869400
834.0286, 2.814957
834.5107, 3.038315
834.9929, 8.481827
835.4750, 23.96347
835.9571, 35.73727
836.4392, 42.29616
836.9213, 37.33818
837.4034, 11.33469
837.8855, 10.50421
838.3676, 3.404358
838.8497, 10.43309
839.3318, 2.435181
839.8140, 72.12613
840.2961, 115.1150
840.7782, 106.3410
841.2603, 72.65271
841.7424, 64.72806
842.2245, 81.93918
842.7067, 92.74210
843.1888, 87.52815
843.6709, 74.91455
844.1530, 58.63643
844.6351, 43.87845
845.1172, 41.09671
845.5994, 72.08144
846.0815, 95.10229
846.5636, 90.60342
847.0457, 72.57787
847.5278, 64.13049
848.0099, 68.98508
848.4921, 67.96588
848.9742, 55.00359
849.4563, 42.13422
849.9384, 45.78123
850.4205, 60.60901
850.9026, 74.33237
851.3848, 86.17032
851.8669, 90.34804
852.3490, 65.27164
852.8311, 30.22307
853.3132, 32.95224
853.7953, 144.2634
854.2775, 204.7752
854.7596, 172.5017
855.2417, 83.78525
855.7238, 32.33493
856.2059, 20.99426
856.6880, 23.19714
857.1702, 30.22119
857.6523, 40.35242
858.1344, 57.25797
858.6165, 75.52765
859.0986, 81.91287
859.5807, 50.34958
860.0629, 28.52454
860.5450, 46.74130
861.0271, 84.76715
861.5092, 86.86523
861.9913, 36.88074
862.4734, 15.76251
862.9556, 57.14819
863.4377, 129.3658
863.9198, 168.9349
864.4019, 181.4019
864.8840, 189.3094
865.3661, 211.9628
865.8483, 225.0921
866.3304, 196.3177
866.8125, 144.4539
867.2946, 132.8199
867.7767, 198.9639
868.2589, 247.4291
868.7410, 254.3417
869.2231, 233.2390
869.7052, 218.1533
870.1873, 208.8015
870.6694, 195.1315
871.1516, 167.9957
871.6337, 140.0908
872.1158, 130.0167
872.5979, 129.9712
873.0800, 121.0239
873.5621, 91.69031
874.0443, 58.12915
874.5264, 10.20074
875.0085, 34.94257
875.4906, 20.47821
875.9727, 61.18539
876.4548, 124.7959
876.9370, 137.1344
877.4191, 127.5313
877.9012, 146.9605
878.3833, 182.2874
878.8654, 199.6317
879.3475, 157.6044
879.8297, 124.1393
880.3118, 142.9073
880.7939, 186.2796
881.2760, 184.6190
881.7581, 115.4140
882.2402, 60.53519
882.7224, 34.76797
883.2045, 31.59140
883.6866, 52.84058
884.1687, 89.25064
884.6508, 104.3141
885.1329, 53.57947
885.6151, 16.64304
886.0972, 64.87915
886.5793, 157.6273
887.0614, 215.9764
887.5435, 208.8464
888.0256, 212.6090
888.5078, 243.1283
888.9899, 278.4151
889.4720, 273.5026
889.9541, 232.1688
890.4362, 186.1933
890.9183, 139.5833
891.4005, 101.3970
891.8826, 86.75394
892.3647, 86.95285
892.8468, 88.25665
893.3289, 91.85229
893.8110, 89.93939
894.2932, 86.14862
894.7753, 74.57251
895.2574, 32.06903
895.7395, 44.07651
896.2216, 61.30878
896.7037, 9.023590
897.1859, 106.5898
897.6680, 175.5847
898.1501, 214.3375
898.6322, 215.8457
899.1143, 149.8749
899.5964, 98.28397
900.0786, 94.65094
900.5607, 109.3130
901.0428, 111.3765
901.5249, 95.67865
902.0070, 98.63919
902.4891, 128.0895
902.9713, 159.9369
903.4534, 165.7931
903.9355, 152.3811
904.4176, 127.7562
904.8997, 85.09769
905.3818, 61.31476
905.8640, 79.38486
906.3461, 120.8839
906.8282, 173.5657
907.3103, 255.6929
907.7924, 290.5941
908.2745, 270.3746
908.7567, 226.6519
909.2388, 172.5797
909.7209, 121.7490
910.2030, 117.0156
910.6851, 167.1253
911.1672, 211.6944
911.6494, 203.1121
912.1315, 181.3201
912.6136, 179.1555
913.0957, 204.8696
913.5778, 221.0626
914.0599, 222.5587
914.5421, 226.6802
915.0242, 252.8376
915.5063, 292.6054
915.9884, 311.0878
916.4705, 307.7466
916.9526, 299.5374
917.4348, 298.0594
917.9169, 296.1425
918.3990, 283.6082
918.8811, 258.1057
919.3632, 256.7671
919.8453, 295.0161
920.3275, 329.3521
920.8096, 335.7200
921.2917, 321.1954
921.7738, 327.3252
922.2559, 350.4223
922.7380, 352.5569
923.2202, 276.2169
923.7023, 198.4775
924.1844, 188.2919
924.6665, 237.4742
925.1486, 264.2353
925.6307, 246.5990
926.1129, 228.8262
926.5950, 219.1455
927.0771, 220.5219
927.5591, 257.5173
928.0413, 323.4600
928.5234, 359.9293
929.0055, 313.4160
929.4876, 252.4668
929.9697, 241.1861
930.4518, 259.2057
930.9340, 257.5307
931.4161, 180.1827
931.8982, 151.7358
932.3803, 211.8438
932.8624, 306.7526
933.3445, 324.3472
933.8267, 275.0913
934.3088, 259.6963
934.7909, 321.0781
935.2730, 391.6827
935.7551, 398.2680
936.2372, 373.5132
936.7194, 363.1375
937.2015, 401.3863
937.6836, 421.3316
938.1657, 419.0490
938.6478, 402.6075
939.1299, 370.1574
939.6121, 324.6204
940.0942, 311.2352
940.5763, 341.4220
941.0584, 364.7142
941.5405, 309.9938
942.0226, 236.9794
942.5048, 215.2483
942.9869, 278.3194
943.4690, 322.3065
943.9511, 338.7403
944.4332, 334.1856
944.9153, 301.1304
945.3975, 243.2416
945.8796, 223.5986
946.3617, 243.3172
946.8438, 278.9890
947.3259, 342.3507
947.8080, 391.4186
948.2902, 374.5937
948.7723, 287.8200
949.2544, 225.7975
949.7365, 203.4545
950.2186, 203.9030
950.7007, 231.0728
951.1829, 276.7163
951.6650, 283.9235
952.1471, 256.7234
952.6292, 233.6779
953.1113, 240.9797
953.5934, 257.3144
954.0756, 275.2349
954.5577, 292.8214
955.0398, 288.7406
955.5219, 240.5504
956.0040, 201.6012
956.4861, 176.7996
956.9683, 172.6481
957.4504, 229.4612
957.9325, 330.9978
958.4146, 373.3039
958.8967, 291.8096
959.3788, 199.0480
959.8610, 183.6770
960.3431, 212.7261
960.8252, 238.2577
961.3073, 263.2995
961.7894, 263.0988
962.2715, 219.3541
962.7537, 179.8649
963.2358, 226.5181
963.7179, 331.1282
964.2000, 366.8652
964.6821, 307.9502
965.1642, 244.5070
965.6464, 249.7917
966.1285, 274.7195
966.6106, 276.2104
967.0927, 243.6249
967.5748, 215.5179
968.0569, 187.1113
968.5391, 174.5038
969.0212, 202.8795
969.5033, 254.7388
969.9854, 267.3538
970.4675, 243.3993
970.9496, 217.6116
971.4318, 209.7026
971.9139, 206.0263
972.3960, 199.6438
972.8781, 189.8307
973.3602, 181.2679
973.8423, 172.6258
974.3245, 177.4417
974.8066, 208.8012
975.2887, 247.4391
975.7708, 247.0386
976.2529, 220.3315
976.7350, 206.5553
977.2172, 252.2941
977.6993, 282.8190
978.1814, 257.9198
978.6635, 206.8441
979.1456, 171.9833
979.6277, 155.6779
980.1099, 147.0546
980.5920, 147.3325
981.0741, 148.7182
981.5562, 139.6998
982.0383, 125.8311
982.5204, 115.9412
983.0026, 112.3103
983.4847, 110.9590
983.9668, 103.6673
984.4489, 104.7850
984.9310, 132.2180
985.4131, 190.1821
985.8953, 203.8948
986.3774, 172.1366
986.8595, 127.7039
987.3416, 74.30460
987.8237, 35.09799
988.3058, 48.70081
988.7880, 111.0069
989.2701, 152.3009
989.7522, 145.8876
990.2343, 133.1589
990.7164, 128.6451
991.1985, 125.3033
991.6807, 87.33105
992.1628, 20.95340
992.6449, 21.86325
993.1270, 5.118439
993.6091, 23.97430
994.0912, 36.52472
994.5734, 33.86218
995.0555, 15.60080
995.5376, 43.25195
996.0197, 65.53986
996.5018, 35.40704
996.9839, 13.77203
997.4661, 39.78494
997.9482, 47.57364
998.4303, 48.98853
998.9124, 43.99161
999.3945, 45.97934
999.8766, 78.32959
1000.359, 109.6172
1000.841, 112.1382
1001.323, 81.73746
1001.805, 54.47516
1002.287, 28.16116
1002.769, 14.30972
1003.251, 31.16299
1003.734, 60.51871
1004.216, 72.78677
1004.698, 69.66650
1005.180, 56.09201
1005.662, 13.54926
1006.144, 13.63562
1006.626, 2.311249
1007.108, 30.15952
1007.591, 27.48880
1008.073, 10.81561
1008.555, 31.75583
1009.037, 12.56702
1009.519, 14.68198
1010.001, 8.120361
1010.483, 11.72910
1010.965, 14.55383
1011.447, 19.76456
1011.930, 54.06827
1012.412, 93.54257
1012.894, 122.1869
1013.376, 116.5111
1013.858, 84.09619
1014.340, 71.80063
1014.822, 83.31546
1015.304, 90.47437
1015.786, 71.61084
1016.269, 43.16440
1016.751, 9.869202
1017.233, 26.98660
1017.715, 38.29358
1018.197, 19.12332
1018.679, 9.709076
1019.161, 46.66953
1019.643, 81.37103
1020.125, 89.77252
1020.608, 77.94559
1021.090, 63.38071
1021.572, 49.81442
1022.054, 38.66367
1022.536, 21.95209
1023.018, 13.11639
1023.500, 42.11673
1023.982, 112.2253
1024.465, 141.8786
1024.947, 115.0085
1025.429, 70.72794
1025.911, 32.69077
1026.393, 9.067719
1026.875, 15.71439
1027.357, 66.92169
1027.839, 89.72293
1028.322, 69.05051
1028.804, 37.77414
1029.286, 7.900574
1029.768, 17.35605
1030.250, 15.15915
1030.732, 9.815857
1031.214, 29.72144
1031.696, 28.08081
1032.178, 17.57471
1032.661, 5.899719
1033.143, 31.85500
1033.625, 33.29758
1034.107, 7.717590
1034.589, 36.86694
1035.071, 111.1945
1035.553, 170.8569
1036.035, 129.9181
1036.517, 41.28067
1037.000, 3.769684
1037.482, 31.00775
1037.964, 61.62262
1038.446, 71.02960
1038.928, 69.01199
1039.410, 56.05054
1039.892, 33.20422
1040.374, 35.02847
1040.857, 60.24194
1041.339, 75.06317
1041.821, 38.90878
1042.303, 1.201080
1042.785, 14.04752
1043.267, 0.5534670
1043.749, 33.74664
1044.231, 101.3933
1044.714, 142.1791
1045.196, 137.9291
1045.678, 107.8127
1046.160, 69.13272
1046.642, 31.86359
1047.124, 19.75772
1047.606, 48.87219
1048.088, 81.40652
1048.570, 108.8128
1049.052, 131.1240
1049.535, 149.2063
1050.017, 163.4450
1050.499, 160.7599
1050.981, 141.9911
1051.463, 129.8609
1051.945, 161.5442
1052.427, 192.0585
1052.909, 169.0394
1053.392, 98.27170
1053.874, 61.94409
1054.356, 88.57819
1054.838, 105.0298
1055.320, 84.51013
1055.802, 51.34564
1056.284, 60.89792
1056.766, 95.97186
1057.249, 109.3194
1057.731, 68.92639
1058.213, 43.95453
1058.695, 78.72980
1059.177, 128.4201
1059.659, 160.5853
1060.141, 176.6147
1060.623, 147.7067
1061.105, 71.13278
1061.588, 1.982025
1062.070, 21.98837
1062.552, 13.29402
1063.034, 26.22600
1063.516, 91.08180
1063.998, 130.1732
1064.480, 125.1617
1064.962, 132.8526
1065.444, 175.3911
1065.927, 226.3128
1066.409, 226.1187
1066.891, 195.9681
1067.373, 187.0575
1067.855, 222.2708
1068.337, 257.7050
1068.819, 278.6302
1069.301, 294.7446
1069.783, 309.4160
1070.266, 322.6265
1070.748, 325.8296
1071.230, 318.6867
1071.712, 318.9695
1072.194, 349.6514
1072.676, 385.4656
1073.158, 404.5695
1073.640, 408.1773
1074.123, 409.7629
1074.605, 405.3784
1075.087, 408.2632
1075.569, 419.1115
1076.051, 448.4739
1076.533, 524.2551
1077.015, 626.9678
1077.497, 713.9738
1077.979, 767.3860
1078.462, 823.0912
1078.944, 877.1887
1079.426, 951.6216
1079.908, 1058.005
1080.390, 1191.933
1080.872, 1395.153
1081.354, 1668.587
1081.836, 1965.276
1082.318, 2224.882
1082.801, 2532.075
1083.283, 2984.006
1083.765, 3538.392
1084.247, 4042.892
1084.729, 4486.362
1085.211, 4895.920
1085.693, 5261.484
1086.175, 5637.571
1086.658, 6104.027
1087.140, 6628.333
1087.622, 7158.736
1088.104, 7687.248
1088.586, 8224.543
1089.068, 8744.647
1089.550, 9299.771
1090.032, 9907.864
1090.515, 10574.51
1090.997, 11325.82
1091.479, 12165.13
1091.961, 13096.91
1092.443, 14155.79
1092.925, 15287.46
1093.407, 16516.51
1093.889, 17794.56
1094.371, 19152.10
1094.854, 20717.02
1095.336, 21572.15
1095.818, 21649.14
1096.300, 20831.27
1096.782, 18605.37
1097.264, 15652.56
1097.746, 12563.95
1098.228, 9358.414
1098.710, 6805.770
1099.193, 5041.344
1099.675, 3731.305
1100.157, 2813.251
1100.639, 2203.305
1101.121, 1720.221
1101.603, 1350.319
1102.085, 1063.328
1102.567, 859.1092
1103.050, 716.6359
1103.532, 658.4478
1104.014, 631.7037
1104.496, 593.7509
1104.978, 544.3044
1105.460, 471.3335
1105.942, 374.0641
1106.424, 306.5722
1106.906, 347.7086
1107.389, 395.0905
1107.871, 364.7661
1108.353, 273.1447
1108.835, 221.8044
1109.317, 215.8134
1109.799, 221.1667
1110.281, 231.5266
1110.763, 243.2133
1111.245, 257.8537
1111.728, 268.0404
1112.210, 260.1810
1112.692, 219.4931
1113.174, 197.5964
1113.656, 206.4196
1114.138, 215.4219
1114.620, 196.7630
1115.102, 164.1906
1115.585, 170.0000
1116.067, 203.6730
1116.549, 218.9814
1117.031, 169.4883
1117.513, 130.0974
1117.995, 136.2960
1118.477, 153.1210
1118.959, 111.0905
1119.442, 18.97012
1119.924, 14.61749
1120.406, 31.51614
1120.888, 89.42322
1121.370, 119.3919
1121.852, 125.3043
1122.334, 96.09689
1122.816, 37.88237
1123.298, 16.85147
1123.781, 36.59476
1124.263, 63.10547
1124.745, 91.75671
1125.227, 106.7988
1125.709, 73.23639
1126.191, 18.08658
1126.673, 15.25090
1127.155, 9.916580
1127.637, 7.657852
1128.120, 43.82819
1128.602, 74.68341
1129.084, 69.62846
1129.566, 48.52376
1130.048, 59.52902
1130.530, 95.88318
1131.012, 113.5751
1131.494, 67.06343
1131.977, 37.67499
1132.459, 54.89798
1132.941, 89.05305
1133.423, 70.19261
1133.905, 15.31010
1134.387, 9.205826
1134.869, 78.88976
1135.351, 136.9756
1135.833, 129.7710
1136.316, 92.10234
1136.798, 31.78258
1137.280, 44.04074
1137.762, 18.26802
1138.244, 105.5585
1138.726, 198.5584
1139.208, 177.6969
1139.690, 123.9557
1140.172, 94.02966
1140.655, 77.57365
1141.137, 54.80133
1141.619, 13.43069
1142.101, 8.202866
1142.583, 46.25296
1143.065, 90.57060
1143.547, 115.2017
1144.029, 122.1088
1144.512, 104.1144
1144.994, 65.92894
1145.476, 45.14745
1145.958, 62.31161
1146.440, 60.31276
1146.922, 20.25356
1147.404, 31.70512
1147.886, 66.40347
1148.369, 77.10268
1148.851, 38.88798
1149.333, 71.21056
1149.815, 143.7798
1150.297, 123.6836
1150.779, 98.92735
1151.261, 119.3875
1151.743, 166.1591
1152.225, 159.0599
1152.708, 108.6132
1153.190, 58.40959
1153.672, 1.791779
1154.154, 15.37672
1154.636, 56.52055
1155.118, 148.0149
1155.600, 193.1129
1156.082, 192.6019
1156.564, 169.5756
1157.047, 125.5275
1157.529, 87.68108
1158.011, 72.61685
1158.493, 72.62875
1158.975, 95.23793
1159.457, 127.5117
1159.939, 130.5176
1160.421, 101.6342
1160.903, 75.56763
1161.386, 59.45879
1161.868, 48.21477
1162.350, 24.27789
1162.832, 10.82646
1163.314, 45.85765
1163.796, 140.8599
1164.278, 161.2946
1164.760, 88.03200
1165.243, 31.95509
1165.725, 58.17836
1166.207, 110.0936
1166.689, 108.3408
1167.171, 75.49603
1167.653, 51.79973
1168.135, 38.61241
1168.617, 54.34679
1169.099, 109.1295
1169.582, 165.7576
1170.064, 201.5109
1170.546, 212.4083
1171.028, 170.4733
1171.510, 90.23793
1171.992, 44.30383
1172.474, 108.6824
1172.956, 135.4762
1173.438, 83.86172
1173.921, 13.70691
1174.403, 19.65546
1174.885, 77.57787
1175.367, 131.8630
1175.849, 175.7772
1176.331, 191.4861
1176.813, 153.3188
1177.295, 102.2938
1177.778, 40.48199
1178.260, 14.30612
1178.742, 3.759445
1179.224, 56.91663
1179.706, 104.8484
1180.188, 113.3055
1180.670, 120.0597
1181.152, 161.8290
1181.635, 190.3378
1182.117, 158.4247
1182.599, 71.92617
1183.081, 49.41462
1183.563, 83.94132
1184.045, 107.7437
1184.527, 57.21419
1185.009, 11.61331
1185.491, 28.92952
1185.974, 66.44064
1186.456, 55.84233
1186.938, 7.202568
1187.420, 16.56978
1187.902, 37.70811
1188.384, 92.42761
1188.866, 105.5779
1189.348, 95.93316
1189.830, 62.55408
1190.313, 17.48053
1190.795, 2.871704
1191.277, 21.11900
1191.759, 43.16755
1192.241, 62.78363
1192.723, 84.14633
1193.205, 116.5569
1193.687, 148.8095
1194.170, 170.9666
1194.652, 182.2917
1195.134, 174.8226
1195.616, 150.8823
1196.098, 132.4068
1196.580, 130.2365
1197.062, 131.0125
1197.544, 120.1848
1198.026, 101.9853
1198.509, 81.39656
1198.991, 54.97066
1199.473, 36.27782
1199.955, 22.71458
1200.437, 29.29413
1200.919, 93.22635
1201.401, 163.6401
1201.883, 163.0803
1202.365, 114.8802
1202.848, 87.53960
1203.330, 99.52724
1203.812, 111.0745
1204.294, 119.9840
1204.776, 123.9691
1205.258, 112.5523
1205.740, 95.88737
1206.222, 95.95607
1206.705, 113.7629
1207.187, 108.7124
1207.669, 51.18768
1208.151, 24.94650
1208.633, 56.99908
1209.115, 107.7464
1209.597, 129.5570
1210.079, 124.7377
1210.562, 84.11295
1211.044, 4.471771
1211.526, 38.58139
1212.008, 5.241272
1212.490, 69.61687
1212.972, 145.2559
1213.454, 206.3953
1213.936, 186.9512
1214.418, 118.3240
1214.901, 59.40816
1215.383, 15.90550
1215.865, 14.07011
1216.347, 76.64034
1216.829, 132.3527
1217.311, 123.9908
1217.793, 78.89433
1218.275, 50.65988
1218.757, 40.09979
1219.240, 49.04520
1219.722, 108.0208
1220.204, 140.4264
1220.686, 132.1658
1221.168, 111.3040
1221.650, 99.99765
1222.132, 98.48689
1222.614, 118.3980
1223.097, 154.1279
1223.579, 165.3769
1224.061, 98.57668
1224.543, 46.98579
1225.025, 22.67110
1225.507, 28.82220
1225.989, 100.2988
1226.471, 198.0051
1226.953, 224.7934
1227.436, 165.8667
1227.918, 123.3444
1228.400, 153.7058
1228.882, 161.1698
1229.364, 105.9803
1229.846, 27.39130
1230.328, 3.933746
1230.810, 21.47484
1231.292, 54.17412
1231.775, 106.6140
1232.257, 126.4401
1232.739, 77.36949
1233.221, 41.69604
1233.703, 69.08645
1234.185, 128.8914
1234.667, 128.8892
1235.149, 93.53857
1235.632, 90.55842
1236.114, 176.4047
1236.596, 225.0932
1237.078, 213.4700
1237.560, 180.9916
1238.042, 156.9756
1238.524, 134.9076
1239.006, 88.80876
1239.489, 29.19617
1239.971, 7.478523
1240.453, 2.409317
1240.935, 24.38016
1241.417, 83.98961
1241.899, 134.5535
1242.381, 111.1702
1242.863, 48.80775
1243.345, 22.58043
1243.828, 32.34169
1244.310, 49.59606
1244.792, 81.40172
1245.274, 94.00866
1245.756, 76.53307
1246.238, 49.90508
1246.720, 35.69599
1247.202, 36.81205
1247.684, 71.84222
1248.167, 142.2144
1248.649, 171.1871
1249.131, 110.2350
1249.613, 79.55687
1250.095, 124.3823
1250.577, 187.8787
1251.059, 167.8171
1251.541, 106.4890
1252.023, 77.28937
1252.506, 99.25291
1252.988, 113.7950
1253.470, 111.2940
1253.952, 104.6234
1254.434, 83.49398
1254.916, 73.00420
1255.398, 143.9858
1255.880, 246.4644
1256.363, 294.4956
1256.845, 250.5274
1257.327, 188.4448
1257.809, 95.01605
1258.291, 39.11263
1258.773, 88.79628
1259.255, 172.7426
1259.737, 187.8333
1260.219, 156.0244
1260.702, 117.3350
1261.184, 59.64867
1261.666, 50.91565
1262.148, 102.0933
1262.630, 148.6732
1263.112, 117.3761
1263.594, 74.50494
1264.076, 115.2138
1264.558, 204.2166
1265.041, 241.6826
1265.523, 209.7843
1266.005, 168.2094
1266.487, 118.0806
1266.969, 83.34114
1267.451, 106.1564
1267.933, 135.9559
1268.415, 113.8516
1268.898, 128.7206
1269.380, 138.5625
1269.862, 114.6296
1270.344, 144.5359
1270.826, 127.9320
1271.308, 98.66636
1271.790, 67.41358
1272.272, 53.60658
1272.755, 85.73974
1273.237, 149.8159
1273.719, 193.7266
1274.201, 217.0494
1274.683, 229.2233
1275.165, 232.4778
1275.647, 222.6082
1276.129, 177.3613
1276.611, 135.3323
1277.094, 127.6757
1277.576, 147.2185
1278.058, 167.3962
1278.540, 185.9299
1279.022, 179.0388
1279.504, 134.3114
1279.986, 81.72666
1280.468, 6.314461
1280.950, 36.46978
1281.433, 0.7966920
1281.915, 94.61722
1282.397, 154.1008
1282.879, 178.4305
1283.361, 168.5391
1283.843, 95.64639
1284.325, 52.46526
1284.807, 97.80750
1285.290, 155.7262
1285.772, 183.6786
1286.254, 185.9020
1286.736, 173.7569
1287.218, 150.6551
1287.700, 127.8189
1288.182, 61.07333
1288.664, 52.67860
1289.146, 115.7037
1289.629, 175.2509
1290.111, 166.2136
1290.593, 115.9217
1291.075, 58.13814
1291.557, 5.533142
1292.039, 2.106277
1292.521, 118.9405
1293.003, 177.1441
1293.485, 124.3611
1293.968, 29.25900
1294.450, 12.24110
1294.932, 0.0000000E+00
##END=



