##NAMES=Bastnasite-(Ce)
##RRUFFID=R060359
##IDEAL CHEMISTRY=CeCO_3_F
##LOCALITY=Zagi Mountain, near Hammedabad, Khaffor Dehri, North-West Frontier Province, Pakistan
##OWNER=RRUFF
##SOURCE=Herb Obodda
##DESCRIPTION=Yellowish-brown pyramidal crystal
##STATUS=The identification of this mineral has been confirmed by X-ray diffraction and chemical analysis
##URL=rruff.info/R060359
##MEASURED CHEMISTRY=(Ce_0.54_(La,Pr)_0.23_Nd_0.22_Y_0.01_)_Î£=1_CO_3_F_1.00_
146.5307, 0.0000000E+00
147.0128, 8.107910
147.4949, 50.89355
147.9770, 103.2471
148.4591, 128.0938
148.9412, 57.71191
149.4234, 2.176758
149.9055, 13.94531
150.3876, 76.82227
150.8697, 151.6816
151.3518, 195.9102
151.8339, 213.8115
152.3161, 234.9355
152.7982, 251.5068
153.2803, 278.6133
153.7624, 326.9932
154.2445, 429.4023
154.7266, 521.6006
155.2087, 583.5645
155.6909, 611.2090
156.1730, 639.6523
156.6551, 684.4795
157.1372, 731.6924
157.6193, 765.5996
158.1014, 767.2285
158.5836, 765.5898
159.0657, 774.4668
159.5478, 798.7148
160.0299, 827.4463
160.5120, 865.9111
160.9941, 902.2939
161.4763, 914.3242
161.9584, 857.4336
162.4405, 793.4873
162.9226, 769.0146
163.4047, 820.8301
163.8868, 873.9033
164.3690, 886.6670
164.8511, 866.1348
165.3332, 841.9561
165.8153, 819.1387
166.2974, 804.9658
166.7795, 807.1748
167.2617, 833.2754
167.7438, 873.0645
168.2259, 926.7432
168.7080, 993.3711
169.1901, 1052.768
169.6722, 1084.821
170.1544, 1103.931
170.6365, 1130.812
171.1186, 1172.091
171.6007, 1239.316
172.0828, 1301.226
172.5649, 1375.449
173.0471, 1470.029
173.5292, 1506.665
174.0113, 1493.786
174.4934, 1465.212
174.9755, 1443.820
175.4576, 1408.430
175.9397, 1344.683
176.4219, 1244.337
176.9040, 1131.879
177.3861, 1041.729
177.8682, 973.5947
178.3503, 909.0859
178.8324, 828.8755
179.3146, 742.9160
179.7967, 674.1074
180.2788, 631.8281
180.7609, 605.8213
181.2430, 584.6738
181.7251, 568.3203
182.2073, 548.0879
182.6894, 504.6963
183.1715, 446.7998
183.6536, 413.5186
184.1357, 427.7920
184.6178, 471.8213
185.1000, 499.9062
185.5821, 511.4854
186.0642, 514.7617
186.5463, 515.9316
187.0284, 515.4629
187.5105, 518.7080
187.9927, 535.1631
188.4748, 559.4170
188.9569, 560.9629
189.4390, 534.4521
189.9211, 499.0732
190.4032, 493.6973
190.8854, 519.3311
191.3675, 521.8896
191.8496, 459.4551
192.3317, 337.4863
192.8138, 232.2285
193.2959, 146.6807
193.7781, 82.42773
194.2602, 50.62012
194.7423, 55.96289
195.2244, 61.12305
195.7065, 34.00293
196.1886, 26.69922
196.6708, 60.67090
197.1529, 47.69629
197.6350, 8.667969
198.1171, 24.61816
198.5992, 109.7949
199.0813, 195.2070
199.5634, 218.4014
200.0456, 171.5225
200.5277, 126.0029
201.0098, 94.69141
201.4919, 75.89746
201.9740, 61.21875
202.4561, 52.69141
202.9383, 43.76660
203.4204, 24.53223
203.9025, 9.323242
204.3846, 36.23340
204.8667, 43.23535
205.3488, 30.06641
205.8310, 27.31641
206.3131, 34.78418
206.7952, 52.53418
207.2773, 82.38281
207.7594, 127.0732
208.2415, 175.2461
208.7237, 225.0166
209.2058, 278.3418
209.6879, 317.6680
210.1700, 338.0703
210.6521, 349.0205
211.1342, 369.2920
211.6164, 401.9062
212.0985, 436.2666
212.5806, 467.8896
213.0627, 495.6504
213.5448, 523.2676
214.0269, 548.7275
214.5091, 574.9873
214.9912, 612.6123
215.4733, 667.6201
215.9554, 721.6484
216.4375, 761.9707
216.9196, 778.1992
217.4018, 807.0225
217.8839, 848.9648
218.3660, 904.9814
218.8481, 987.5771
219.3302, 1114.525
219.8123, 1240.443
220.2945, 1329.014
220.7766, 1361.039
221.2587, 1403.004
221.7408, 1468.039
222.2229, 1553.858
222.7050, 1619.544
223.1871, 1651.310
223.6693, 1680.315
224.1514, 1736.745
224.6335, 1839.101
225.1156, 1929.705
225.5977, 1995.266
226.0798, 2034.209
226.5620, 2088.203
227.0441, 2162.121
227.5262, 2245.651
228.0083, 2331.075
228.4904, 2425.095
228.9725, 2506.922
229.4547, 2565.296
229.9368, 2593.950
230.4189, 2648.459
230.9010, 2740.950
231.3831, 2850.854
231.8652, 2950.581
232.3474, 3036.515
232.8295, 3120.488
233.3116, 3204.105
233.7937, 3286.122
234.2758, 3373.511
234.7579, 3468.824
235.2401, 3567.218
235.7222, 3659.706
236.2043, 3741.285
236.6864, 3824.308
237.1685, 3913.128
237.6507, 4009.404
238.1328, 4104.766
238.6149, 4187.733
239.0970, 4273.676
239.5791, 4402.254
240.0612, 4604.019
240.5434, 4804.374
241.0255, 4966.787
241.5076, 5064.583
241.9897, 5188.563
242.4718, 5348.188
242.9539, 5533.027
243.4360, 5711.600
243.9182, 5877.507
244.4003, 6046.657
244.8824, 6230.522
245.3645, 6441.560
245.8466, 6633.011
246.3287, 6785.656
246.8109, 6916.376
247.2930, 7101.859
247.7751, 7369.848
248.2572, 7650.918
248.7393, 7905.814
249.2214, 8125.714
249.7036, 8332.259
250.1857, 8520.669
250.6678, 8694.203
251.1499, 8884.091
251.6320, 9095.107
252.1141, 9315.077
252.5963, 9534.883
253.0784, 9758.143
253.5605, 9975.463
254.0426, 10183.91
254.5247, 10383.66
255.0068, 10589.68
255.4890, 10817.29
255.9711, 11030.98
256.4532, 11206.67
256.9353, 11349.50
257.4174, 11449.10
257.8995, 11506.49
258.3817, 11520.58
258.8638, 11512.99
259.3459, 11488.21
259.8280, 11431.45
260.3101, 11328.15
260.7922, 11172.30
261.2744, 10990.04
261.7565, 10783.29
262.2386, 10548.83
262.7207, 10324.07
263.2028, 10117.04
263.6849, 9901.685
264.1671, 9635.787
264.6492, 9293.143
265.1313, 8990.459
265.6134, 8767.723
266.0955, 8620.091
266.5776, 8458.553
267.0598, 8276.017
267.5419, 8097.752
268.0240, 7950.235
268.5061, 7839.456
268.9882, 7732.717
269.4703, 7618.687
269.9525, 7498.627
270.4346, 7403.734
270.9167, 7331.174
271.3988, 7284.137
271.8809, 7278.952
272.3630, 7327.728
272.8452, 7356.730
273.3273, 7335.254
273.8094, 7265.061
274.2915, 7213.176
274.7736, 7184.520
275.2557, 7163.646
275.7379, 7138.814
276.2200, 7113.564
276.7021, 7057.268
277.1842, 6950.412
277.6663, 6797.280
278.1484, 6649.432
278.6305, 6506.236
279.1126, 6370.403
279.5948, 6246.827
280.0769, 6135.284
280.5590, 6037.106
281.0411, 5960.313
281.5232, 5901.226
282.0053, 5820.513
282.4875, 5712.205
282.9696, 5599.025
283.4517, 5511.460
283.9338, 5449.532
284.4159, 5396.750
284.8980, 5364.096
285.3802, 5341.679
285.8623, 5259.985
286.3444, 5108.934
286.8265, 4937.558
287.3086, 4822.100
287.7907, 4756.612
288.2729, 4663.694
288.7550, 4493.808
289.2371, 4266.984
289.7192, 4064.453
290.2013, 3892.768
290.6834, 3725.267
291.1656, 3528.851
291.6477, 3307.188
292.1298, 3086.651
292.6119, 2862.841
293.0940, 2650.114
293.5761, 2489.344
294.0583, 2388.658
294.5404, 2304.020
295.0225, 2184.573
295.5046, 2036.944
295.9867, 1890.489
296.4688, 1744.150
296.9510, 1608.787
297.4331, 1518.979
297.9152, 1479.688
298.3973, 1445.051
298.8794, 1364.701
299.3615, 1251.276
299.8437, 1137.347
300.3258, 1028.433
300.8079, 932.1543
301.2900, 860.7725
301.7721, 817.8145
302.2542, 783.0537
302.7364, 745.3398
303.2185, 703.3994
303.7006, 653.9551
304.1827, 586.5986
304.6648, 515.9668
305.1469, 458.8311
305.6291, 416.7217
306.1112, 378.6982
306.5933, 332.1006
307.0754, 284.4287
307.5575, 249.0840
308.0396, 254.2246
308.5218, 259.1611
309.0039, 219.1045
309.4860, 127.5996
309.9681, 58.01074
310.4502, 82.84473
310.9323, 150.4131
311.4145, 188.8867
311.8966, 139.6328
312.3787, 77.59082
312.8608, 52.04395
313.3429, 68.26270
313.8250, 72.46289
314.3072, 21.32324
314.7893, 49.01953
315.2714, 96.59180
315.7535, 98.08691
316.2356, 83.10449
316.7177, 55.23828
317.1999, 13.32129
317.6820, 11.13672
318.1641, 4.971680
318.6462, 37.45898
319.1283, 62.40430
319.6104, 71.59668
320.0926, 74.99512
320.5747, 73.09961
321.0568, 65.52344
321.5389, 60.10840
322.0210, 64.38379
322.5031, 68.07910
322.9852, 62.40234
323.4673, 25.54395
323.9495, 0.7392580
324.4316, 3.472656
324.9137, 34.86035
325.3958, 48.95215
325.8779, 22.88672
326.3600, 8.916992
326.8422, 21.47559
327.3243, 12.66797
327.8064, 31.42188
328.2885, 18.83105
328.7706, 22.92676
329.2527, 41.74316
329.7349, 15.64746
330.2170, 13.56152
330.6991, 16.08105
331.1812, 24.49902
331.6633, 61.32910
332.1454, 90.48340
332.6276, 112.1162
333.1097, 127.6523
333.5918, 136.8164
334.0739, 139.9365
334.5560, 134.3047
335.0381, 113.6523
335.5203, 106.8516
336.0024, 122.6689
336.4845, 153.1826
336.9666, 165.8730
337.4487, 154.5811
337.9308, 143.4336
338.4130, 149.5146
338.8951, 174.7666
339.3772, 200.2266
339.8593, 228.0234
340.3414, 251.4785
340.8235, 247.3506
341.3057, 211.3643
341.7878, 183.4736
342.2699, 195.7891
342.7520, 243.7275
343.2341, 278.2480
343.7162, 291.8193
344.1984, 296.8594
344.6805, 315.4590
345.1626, 346.9336
345.6447, 379.4277
346.1268, 414.0098
346.6089, 444.8047
347.0911, 446.3057
347.5732, 410.3799
348.0553, 369.6787
348.5374, 376.4697
349.0195, 417.7031
349.5016, 443.6348
349.9838, 404.3516
350.4659, 341.6035
350.9480, 323.8320
351.4301, 359.8086
351.9122, 405.7109
352.3943, 430.2783
352.8765, 435.2715
353.3586, 424.1592
353.8407, 376.7725
354.3228, 327.1387
354.8049, 313.4404
355.2870, 339.2061
355.7692, 359.4355
356.2513, 327.7480
356.7334, 277.4062
357.2155, 252.1777
357.6976, 297.0137
358.1797, 347.3506
358.6619, 372.0830
359.1440, 370.4385
359.6261, 353.6172
360.1082, 301.4990
360.5903, 247.3428
361.0724, 221.2324
361.5546, 249.6484
362.0367, 288.2178
362.5188, 338.9219
363.0009, 397.4795
363.4830, 423.5186
363.9651, 383.2080
364.4473, 324.1025
364.9294, 275.7188
365.4115, 238.7900
365.8936, 216.3936
366.3757, 211.0381
366.8578, 221.2842
367.3399, 239.9824
367.8221, 283.8623
368.3042, 321.4932
368.7863, 338.1533
369.2684, 320.0859
369.7505, 304.5801
370.2326, 289.2324
370.7148, 277.6885
371.1969, 281.9111
371.6790, 312.9355
372.1611, 340.0088
372.6432, 342.3330
373.1253, 306.7588
373.6075, 303.8047
374.0896, 344.2402
374.5717, 407.1934
375.0538, 457.6924
375.5359, 491.6475
376.0180, 523.7900
376.5002, 555.0332
376.9823, 585.7324
377.4644, 640.2080
377.9465, 726.1084
378.4286, 811.1787
378.9107, 848.9727
379.3929, 842.8018
379.8750, 838.8008
380.3571, 847.2676
380.8392, 867.6924
381.3213, 925.0742
381.8034, 1020.417
382.2856, 1115.004
382.7677, 1171.122
383.2498, 1197.178
383.7319, 1224.991
384.2140, 1261.110
384.6961, 1309.048
385.1783, 1387.624
385.6604, 1491.345
386.1425, 1579.300
386.6246, 1606.843
387.1067, 1609.228
387.5888, 1636.529
388.0710, 1704.472
388.5531, 1778.611
389.0352, 1850.827
389.5173, 1918.761
389.9994, 1970.813
390.4815, 1982.808
390.9637, 1982.686
391.4458, 1995.002
391.9279, 2030.257
392.4100, 2062.021
392.8921, 2071.885
393.3742, 2071.167
393.8564, 2083.003
394.3385, 2136.955
394.8206, 2183.397
395.3027, 2203.673
395.7848, 2192.828
396.2669, 2170.688
396.7491, 2122.334
397.2312, 2069.017
397.7133, 2036.205
398.1954, 2043.867
398.6775, 2049.991
399.1596, 2050.631
399.6418, 2045.182
400.1239, 2023.227
400.6060, 1985.739
401.0881, 1932.007
401.5702, 1853.521
402.0523, 1730.751
402.5345, 1643.079
403.0166, 1610.528
403.4987, 1620.862
403.9808, 1621.117
404.4629, 1609.378
404.9450, 1590.259
405.4272, 1565.461
405.9093, 1534.499
406.3914, 1501.775
406.8735, 1468.412
407.3556, 1431.129
407.8377, 1379.981
408.3199, 1315.555
408.8020, 1256.517
409.2841, 1219.434
409.7662, 1194.322
410.2483, 1152.589
410.7304, 1091.160
411.2126, 1024.855
411.6946, 963.2666
412.1768, 909.5088
412.6589, 869.6758
413.1410, 860.3359
413.6231, 859.2295
414.1052, 846.4473
414.5873, 821.8350
415.0695, 782.8779
415.5516, 704.9336
416.0337, 620.0312
416.5158, 566.5928
416.9979, 595.5664
417.4800, 619.5225
417.9622, 581.3525
418.4443, 496.5723
418.9264, 438.9912
419.4085, 454.8770
419.8906, 490.7812
420.3727, 516.2363
420.8549, 531.1416
421.3370, 528.6562
421.8191, 494.6426
422.3012, 442.2090
422.7833, 403.2969
423.2654, 396.0820
423.7476, 383.1777
424.2297, 348.0625
424.7118, 276.9561
425.1939, 235.1084
425.6760, 236.7900
426.1581, 256.8203
426.6403, 262.9082
427.1224, 247.6758
427.6045, 239.8857
428.0866, 252.3838
428.5687, 281.7949
429.0508, 285.0732
429.5330, 257.9092
430.0151, 219.3633
430.4972, 181.1230
430.9793, 143.7021
431.4614, 117.5469
431.9435, 107.1973
432.4257, 105.9375
432.9078, 95.89941
433.3899, 78.16016
433.8720, 71.33789
434.3541, 104.1475
434.8362, 154.6494
435.3184, 173.8232
435.8005, 153.2119
436.2826, 113.1309
436.7647, 51.55859
437.2468, 15.09277
437.7289, 48.22168
438.2111, 12.07324
438.6932, 81.64941
439.1753, 81.70410
439.6574, 5.881836
440.1395, 55.30371
440.6216, 39.07227
441.1038, 8.644531
441.5859, 40.13672
442.0680, 21.48145
442.5501, 6.426758
443.0322, 22.43945
443.5143, 61.29297
443.9965, 70.64844
444.4786, 1.635742
444.9607, 72.89258
445.4428, 99.70898
445.9249, 39.01660
446.4070, 4.859375
446.8892, 14.33887
447.3713, 44.68457
447.8534, 47.56055
448.3355, 3.853516
448.8176, 30.77148
449.2997, 32.82031
449.7819, 1.459961
450.2640, 6.222656
450.7461, 13.73730
451.2282, 40.75488
451.7103, 52.69727
452.1924, 50.26758
452.6746, 41.86719
453.1567, 25.51074
453.6388, 7.201172
454.1209, 7.385742
454.6030, 25.68262
455.0851, 40.16895
455.5673, 27.33301
456.0494, 0.1298830
456.5315, 15.77246
457.0136, 13.71875
457.4957, 4.554688
457.9778, 2.166016
458.4599, 7.223633
458.9420, 12.88086
459.4242, 26.39941
459.9063, 36.99512
460.3884, 33.57324
460.8705, 13.82324
461.3526, 3.612305
461.8347, 9.706055
462.3169, 8.849609
462.7990, 5.603516
463.2811, 3.277344
463.7632, 3.731445
464.2453, 23.12695
464.7274, 52.44238
465.2096, 67.25391
465.6917, 45.41406
466.1738, 25.75879
466.6559, 27.16309
467.1380, 61.23145
467.6201, 95.37402
468.1023, 136.9854
468.5844, 174.2109
469.0665, 178.4834
469.5486, 138.6016
470.0307, 100.2969
470.5128, 79.03809
470.9950, 74.19531
471.4771, 76.78613
471.9592, 88.14648
472.4413, 101.3604
472.9234, 110.3242
473.4055, 115.3877
473.8877, 117.9971
474.3698, 121.1514
474.8519, 119.5967
475.3340, 98.32617
475.8161, 60.93652
476.2982, 33.28125
476.7804, 41.40430
477.2625, 68.47852
477.7446, 94.99512
478.2267, 121.1562
478.7088, 134.2080
479.1909, 106.5488
479.6731, 63.34668
480.1552, 44.94434
480.6373, 94.64062
481.1194, 146.4512
481.6015, 169.6074
482.0836, 162.6973
482.5658, 157.1602
483.0479, 169.4600
483.5300, 178.5215
484.0121, 168.8877
484.4942, 112.6396
484.9763, 77.37402
485.4585, 73.25195
485.9406, 91.02246
486.4227, 107.2461
486.9048, 125.7529
487.3869, 134.6240
487.8690, 125.1699
488.3512, 95.43945
488.8333, 74.63379
489.3154, 62.46777
489.7975, 60.35352
490.2796, 79.77832
490.7617, 118.0557
491.2439, 132.8760
491.7260, 95.13965
492.2081, 41.04785
492.6902, 59.77148
493.1723, 142.0557
493.6544, 204.7021
494.1366, 158.2217
494.6187, 67.00488
495.1008, 23.45996
495.5829, 51.93066
496.0650, 95.10449
496.5471, 112.8408
497.0293, 112.2607
497.5114, 106.4648
497.9935, 90.04883
498.4756, 76.54883
498.9577, 72.28125
499.4398, 75.11230
499.9220, 77.76855
500.4041, 68.25781
500.8862, 64.66504
501.3683, 80.70312
501.8504, 144.0342
502.3325, 183.6914
502.8146, 188.3809
503.2968, 167.1426
503.7789, 137.8994
504.2610, 89.11035
504.7431, 51.60449
505.2252, 47.04492
505.7073, 77.12012
506.1895, 70.63281
506.6716, 16.44922
507.1537, 43.03516
507.6358, 59.13965
508.1179, 37.34961
508.6000, 9.704102
509.0822, 17.02637
509.5643, 41.50586
510.0464, 65.85742
510.5285, 88.17383
511.0106, 99.83887
511.4927, 91.15430
511.9749, 70.83105
512.4570, 42.13672
512.9391, 0.5000000
513.4212, 24.43945
513.9033, 8.464844
514.3854, 30.20215
514.8676, 68.83984
515.3497, 121.5791
515.8318, 153.4160
516.3139, 143.9229
516.7960, 96.30957
517.2781, 62.04590
517.7603, 45.79688
518.2424, 40.01758
518.7245, 42.15918
519.2066, 57.31250
519.6887, 65.80371
520.1708, 63.18164
520.6530, 59.26562
521.1351, 74.61621
521.6172, 113.5723
522.0993, 141.8818
522.5814, 145.5566
523.0635, 129.6074
523.5457, 111.9805
524.0278, 92.26074
524.5099, 77.69629
524.9920, 80.67676
525.4741, 92.56152
525.9562, 92.40332
526.4384, 69.82520
526.9205, 52.94434
527.4026, 82.85352
527.8847, 137.5029
528.3668, 170.5996
528.8489, 145.3047
529.3311, 104.7910
529.8132, 67.01562
530.2953, 32.75000
530.7774, 10.91309
531.2595, 20.61328
531.7416, 33.37305
532.2238, 28.35840
532.7059, 34.32520
533.1880, 60.89160
533.6701, 30.64746
534.1522, 29.97070
534.6343, 61.97070
535.1165, 56.76270
535.5986, 45.03125
536.0807, 33.98145
536.5628, 24.18164
537.0449, 27.86230
537.5270, 46.04199
538.0092, 72.07324
538.4913, 108.6748
538.9734, 150.1680
539.4555, 173.0430
539.9376, 168.0674
540.4197, 151.1855
540.9019, 135.4932
541.3840, 123.2217
541.8661, 121.0830
542.3482, 140.3467
542.8303, 165.2803
543.3124, 185.6289
543.7946, 200.6836
544.2767, 210.0293
544.7588, 216.4893
545.2409, 215.2998
545.7230, 202.5723
546.2051, 144.3652
546.6873, 114.2637
547.1694, 145.0303
547.6515, 206.5781
548.1336, 222.1055
548.6157, 161.7549
549.0978, 107.7559
549.5800, 92.29297
550.0621, 115.7383
550.5442, 122.5469
551.0263, 109.6807
551.5084, 91.64844
551.9905, 84.70020
552.4727, 86.97266
552.9548, 81.99121
553.4369, 66.28809
553.9190, 48.72266
554.4011, 42.68262
554.8832, 45.78809
555.3654, 49.48730
555.8475, 36.62012
556.3296, 30.11426
556.8117, 63.54492
557.2938, 138.5234
557.7759, 189.2275
558.2581, 163.0957
558.7402, 111.1279
559.2223, 75.00000
559.7044, 73.35059
560.1865, 73.33887
560.6686, 64.05273
561.1508, 54.46973
561.6329, 65.10449
562.1150, 112.5293
562.5971, 152.6885
563.0792, 171.6455
563.5613, 170.5029
564.0435, 166.7656
564.5256, 158.0107
565.0077, 150.6641
565.4898, 162.0332
565.9719, 190.2412
566.4540, 200.8408
566.9362, 184.4229
567.4183, 158.2812
567.9004, 139.9902
568.3824, 130.7715
568.8646, 135.2217
569.3467, 175.2031
569.8288, 215.2178
570.3109, 219.2373
570.7930, 189.3379
571.2751, 165.6006
571.7573, 185.1250
572.2394, 209.6631
572.7215, 209.4473
573.2036, 151.7861
573.6857, 121.6680
574.1678, 143.5439
574.6500, 189.8428
575.1321, 223.3125
575.6142, 241.7002
576.0963, 252.6377
576.5784, 255.1494
577.0605, 251.6084
577.5427, 255.5635
578.0248, 267.8477
578.5069, 279.2061
578.9890, 282.9512
579.4711, 282.0811
579.9532, 280.5850
580.4354, 278.0488
580.9175, 278.8613
581.3996, 293.6064
581.8817, 314.2432
582.3638, 325.6016
582.8459, 316.1514
583.3281, 302.7109
583.8102, 289.7217
584.2923, 280.3828
584.7744, 285.6943
585.2565, 335.0967
585.7386, 378.2598
586.2208, 385.7217
586.7029, 338.8477
587.1850, 325.4131
587.6671, 367.9395
588.1492, 422.1543
588.6313, 447.5449
589.1135, 436.2568
589.5956, 425.9023
590.0777, 417.8701
590.5598, 413.5547
591.0419, 429.0928
591.5240, 466.7764
592.0062, 498.5322
592.4883, 501.8477
592.9704, 489.9229
593.4525, 484.3340
593.9346, 485.3164
594.4167, 492.3271
594.8989, 511.2178
595.3810, 533.0664
595.8631, 549.5986
596.3452, 562.7158
596.8273, 562.6953
597.3094, 529.8281
597.7916, 485.3135
598.2737, 461.8037
598.7558, 482.6143
599.2379, 504.4404
599.7200, 522.1689
600.2021, 536.3965
600.6843, 542.3301
601.1664, 540.9922
601.6485, 532.4170
602.1306, 509.9053
602.6127, 473.6387
603.0948, 466.0752
603.5770, 493.5664
604.0591, 525.4697
604.5412, 527.1387
605.0233, 505.1348
605.5054, 476.2559
605.9875, 437.5820
606.4697, 405.1240
606.9518, 400.6074
607.4339, 414.6689
607.9160, 423.0967
608.3981, 402.4316
608.8802, 383.5703
609.3624, 387.5537
609.8445, 418.5127
610.3266, 433.2412
610.8087, 417.4131
611.2908, 390.3301
611.7729, 365.4668
612.2551, 344.1982
612.7372, 328.8545
613.2193, 324.3848
613.7014, 320.4922
614.1835, 293.2148
614.6656, 241.8320
615.1478, 210.8662
615.6299, 222.5654
616.1120, 256.0410
616.5941, 270.4531
617.0762, 267.5713
617.5583, 258.8242
618.0405, 248.6523
618.5226, 237.4248
619.0047, 222.7031
619.4868, 202.6279
619.9689, 191.0957
620.4510, 210.4912
620.9332, 232.5234
621.4153, 231.2520
621.8974, 170.2764
622.3795, 126.5273
622.8616, 108.7227
623.3438, 109.8037
623.8259, 118.5684
624.3080, 142.3252
624.7901, 152.6816
625.2722, 135.1562
625.7543, 96.89551
626.2365, 76.80957
626.7186, 75.76270
627.2007, 76.86914
627.6828, 63.22266
628.1649, 43.49316
628.6470, 38.10547
629.1292, 51.91699
629.6113, 62.72168
630.0934, 47.60449
630.5755, 21.41309
631.0576, 2.778320
631.5397, 6.418945
632.0219, 8.346680
632.5040, 1.399414
632.9861, 12.08203
633.4682, 25.31055
633.9503, 40.72266
634.4324, 51.60352
634.9146, 57.56836
635.3967, 58.24219
635.8788, 40.31543
636.3609, 2.385742
636.8430, 40.09180
637.3251, 38.14746
637.8073, 6.924805
638.2894, 3.179688
638.7715, 36.27930
639.2536, 77.77637
639.7357, 103.8613
640.2178, 116.0430
640.7000, 117.5020
641.1821, 99.47656
641.6642, 81.12988
642.1463, 70.07812
642.6284, 66.13477
643.1105, 68.92871
643.5927, 91.85840
644.0748, 108.2363
644.5569, 106.9707
645.0390, 87.17285
645.5211, 77.05273
646.0032, 80.93945
646.4854, 86.80566
646.9675, 85.57910
647.4496, 77.50977
647.9317, 72.43750
648.4138, 72.83594
648.8959, 69.70898
649.3781, 42.01074
649.8602, 1.730469
650.3423, 20.88379
650.8244, 7.576172
651.3065, 16.41699
651.7886, 34.76172
652.2708, 48.30566
652.7529, 60.18848
653.2350, 73.86914
653.7171, 83.76758
654.1992, 86.37207
654.6813, 81.17578
655.1635, 78.67578
655.6456, 87.31348
656.1277, 87.79004
656.6098, 60.10156
657.0919, 3.886719
657.5740, 28.15137
658.0562, 1.728516
658.5382, 37.98242
659.0203, 39.89941
659.5024, 14.69336
659.9846, 3.867188
660.4667, 27.25684
660.9488, 54.87500
661.4309, 45.90918
661.9130, 16.13379
662.3951, 3.516602
662.8773, 38.89844
663.3594, 81.18359
663.8415, 117.1377
664.3236, 145.8691
664.8057, 159.5283
665.2878, 153.3262
665.7700, 138.0098
666.2521, 118.9219
666.7342, 97.16113
667.2163, 57.79785
667.6984, 11.31641
668.1805, 64.84863
668.6627, 35.03027
669.1448, 60.74219
669.6269, 124.1426
670.1090, 128.5303
670.5911, 114.4062
671.0732, 132.9600
671.5554, 166.7812
672.0375, 179.4795
672.5196, 123.0449
673.0017, 73.18848
673.4838, 77.61914
673.9659, 125.4766
674.4481, 146.7920
674.9302, 93.90625
675.4123, 54.46094
675.8944, 65.72363
676.3765, 134.6152
676.8586, 170.9561
677.3408, 166.1250
677.8229, 153.5898
678.3050, 163.3760
678.7871, 191.1787
679.2692, 210.4580
679.7513, 215.1357
680.2335, 223.5596
680.7156, 265.0713
681.1977, 322.1836
681.6798, 364.6465
682.1619, 381.0713
682.6440, 382.3398
683.1262, 355.5078
683.6083, 316.8076
684.0904, 308.9629
684.5725, 378.7324
685.0546, 436.7402
685.5367, 465.9668
686.0189, 466.9512
686.5010, 446.1719
686.9831, 402.8906
687.4652, 340.6934
687.9473, 243.6855
688.4294, 123.6729
688.9116, 56.49805
689.3937, 46.17188
689.8758, 57.27148
690.3579, 67.42383
690.8400, 75.45996
691.3221, 81.42969
691.8043, 88.48633
692.2864, 85.37109
692.7685, 56.94336
693.2506, 19.16797
693.7327, 4.360352
694.2148, 13.26074
694.6970, 1.873047
695.1791, 46.48828
695.6612, 112.2930
696.1433, 129.4746
696.6254, 89.68848
697.1075, 48.12500
697.5897, 25.10254
698.0718, 17.88672
698.5539, 18.13867
699.0360, 25.73047
699.5181, 41.10742
700.0002, 71.52051
700.4824, 104.9619
700.9645, 133.1348
701.4466, 156.7861
701.9287, 158.0244
702.4108, 95.84766
702.8929, 27.76660
703.3751, 4.412109
703.8572, 66.57422
704.3393, 107.3311
704.8214, 119.9541
705.3035, 117.3428
705.7856, 120.7559
706.2678, 131.8955
706.7499, 125.5898
707.2320, 90.24121
707.7141, 43.81152
708.1962, 14.04102
708.6783, 0.6835940
709.1605, 2.074219
709.6426, 6.542969
710.1247, 21.34570
710.6068, 38.10254
711.0889, 57.26562
711.5710, 81.98340
712.0532, 124.4883
712.5353, 161.7666
713.0174, 179.2002
713.4995, 170.4609
713.9816, 186.5713
714.4637, 235.4355
714.9459, 290.8301
715.4280, 325.4277
715.9101, 343.9258
716.3922, 390.7871
716.8743, 477.1914
717.3564, 552.5322
717.8386, 536.8867
718.3207, 475.6133
718.8028, 448.8359
719.2849, 492.7070
719.7670, 557.1787
720.2491, 636.8857
720.7313, 718.8389
721.2134, 774.9424
721.6955, 778.3467
722.1776, 786.7910
722.6597, 812.3545
723.1418, 850.0215
723.6240, 874.4619
724.1061, 880.6963
724.5882, 905.9941
725.0703, 992.8750
725.5524, 1107.486
726.0345, 1139.539
726.5167, 1099.284
726.9988, 1059.280
727.4809, 1072.244
727.9630, 1105.114
728.4451, 1129.640
728.9272, 1141.998
729.4094, 1150.160
729.8915, 1148.803
730.3736, 1149.611
730.8557, 1161.083
731.3378, 1186.107
731.8199, 1215.476
732.3021, 1248.965
732.7842, 1287.509
733.2663, 1333.928
733.7484, 1387.929
734.2305, 1443.852
734.7126, 1506.658
735.1948, 1557.054
735.6769, 1585.789
736.1590, 1580.581
736.6411, 1516.866
737.1232, 1347.968
737.6053, 1163.591
738.0875, 990.1719
738.5696, 831.6963
739.0517, 695.9043
739.5338, 598.2236
740.0159, 497.5312
740.4980, 368.5537
740.9802, 219.7275
741.4623, 151.2412
741.9444, 169.8584
742.4265, 197.0381
742.9086, 170.9639
743.3907, 117.6572
743.8729, 94.61328
744.3550, 104.7119
744.8371, 123.4805
745.3192, 144.3721
745.8013, 160.5967
746.2834, 164.8066
746.7656, 150.1240
747.2477, 138.3975
747.7298, 125.9551
748.2119, 122.0586
748.6940, 139.9961
749.1761, 189.6973
749.6582, 219.5898
750.1403, 223.9414
750.6224, 207.8691
751.1046, 161.6172
751.5867, 98.59668
752.0688, 75.43652
752.5509, 132.5508
753.0330, 192.2695
753.5151, 172.8057
753.9973, 105.8457
754.4794, 63.70898
754.9615, 103.5127
755.4436, 137.7080
755.9257, 132.5195
756.4078, 99.33887
756.8900, 86.69824
757.3721, 101.3193
757.8542, 120.5576
758.3363, 140.4668
758.8184, 156.4443
759.3005, 145.8301
759.7827, 110.9414
760.2648, 84.29980
760.7469, 99.91406
761.2290, 129.8350
761.7111, 136.0020
762.1932, 115.0146
762.6754, 111.2148
763.1575, 172.9902
763.6396, 234.8818
764.1217, 249.9346
764.6038, 198.7646
765.0859, 157.3145
765.5681, 120.8105
766.0502, 102.0459
766.5323, 127.3760
767.0144, 191.1885
767.4965, 219.4629
767.9786, 197.6943
768.4608, 162.8965
768.9429, 152.4512
769.4250, 157.2109
769.9071, 164.0645
770.3892, 178.6729
770.8713, 180.7598
771.3535, 149.9922
771.8356, 105.5771
772.3177, 81.27246
772.7998, 86.59961
773.2819, 96.86230
773.7640, 112.5742
774.2462, 128.3516
774.7283, 128.9922
775.2104, 114.8799
775.6925, 97.37305
776.1746, 80.01953
776.6567, 62.55957
777.1389, 38.68555
777.6210, 13.14355
778.1031, 3.199219
778.5852, 29.06348
779.0673, 61.02734
779.5494, 86.25586
780.0316, 104.1592
780.5137, 123.3262
780.9958, 149.4189
781.4779, 165.7949
781.9600, 160.7832
782.4421, 136.7588
782.9243, 125.7793
783.4064, 128.3076
783.8885, 128.5938
784.3706, 105.5420
784.8527, 76.62402
785.3348, 68.96094
785.8170, 85.93066
786.2991, 102.1045
786.7812, 104.4824
787.2633, 101.6045
787.7454, 100.6582
788.2275, 107.5488
788.7097, 99.31348
789.1918, 67.62500
789.6739, 34.70801
790.1560, 26.04395
790.6381, 39.76855
791.1202, 47.38379
791.6024, 46.30078
792.0845, 36.33984
792.5666, 3.559570
793.0487, 46.27930
793.5308, 43.87598
794.0129, 56.56641
794.4951, 132.1025
794.9772, 118.8418
795.4593, 60.57422
795.9414, 20.98145
796.4235, 6.610352
796.9056, 0.9013670
797.3878, 3.518555
797.8699, 9.081055
798.3520, 4.395508
798.8341, 8.895508
799.3162, 14.51855
799.7983, 8.216797
800.2805, 9.073242
800.7626, 49.06055
801.2447, 98.96875
801.7268, 128.2920
802.2089, 109.2988
802.6910, 85.23242
803.1732, 66.48828
803.6553, 53.90918
804.1374, 50.40918
804.6195, 58.07422
805.1016, 70.47266
805.5837, 90.32227
806.0659, 111.4775
806.5480, 111.6680
807.0301, 92.97266
807.5122, 69.97266
807.9943, 56.26660
808.4764, 38.45215
808.9586, 7.800781
809.4407, 77.10352
809.9228, 116.3916
810.4049, 96.15430
810.8870, 54.95898
811.3691, 1.390625
811.8513, 72.43359
812.3334, 99.08496
812.8155, 72.01758
813.2976, 41.59570
813.7797, 49.64551
814.2618, 78.38770
814.7440, 71.88477
815.2261, 30.04688
815.7082, 1.840820
816.1903, 34.66895
816.6724, 84.20898
817.1545, 118.4736
817.6367, 132.8262
818.1188, 136.3047
818.6009, 121.8184
819.0830, 107.9385
819.5651, 110.8750
820.0472, 133.2891
820.5294, 133.2979
821.0115, 107.3525
821.4936, 78.59473
821.9757, 63.61426
822.4578, 62.82812
822.9399, 83.19824
823.4221, 131.6465
823.9042, 166.0615
824.3863, 158.6533
824.8684, 131.1035
825.3505, 100.8398
825.8326, 56.05371
826.3148, 39.43652
826.7969, 65.03027
827.2790, 95.14453
827.7611, 80.72559
828.2432, 29.06445
828.7253, 5.142578
829.2075, 12.58301
829.6896, 4.010742
830.1717, 18.15625
830.6538, 46.74609
831.1359, 72.97363
831.6180, 98.29004
832.1002, 113.8457
832.5823, 103.9189
833.0644, 90.33301
833.5465, 101.0840
834.0286, 145.6348
834.5107, 169.8584
834.9929, 160.5771
835.4750, 142.8604
835.9571, 164.8838
836.4392, 210.4727
836.9213, 227.5518
837.4034, 189.5430
837.8855, 140.4697
838.3676, 99.41504
838.8497, 68.25195
839.3318, 49.99707
839.8140, 46.67285
840.2961, 57.00098
840.7782, 92.81543
841.2603, 132.3857
841.7424, 127.1328
842.2245, 78.61230
842.7067, 51.25488
843.1888, 70.93652
843.6709, 101.9385
844.1530, 96.58984
844.6351, 68.99512
845.1172, 47.62109
845.5994, 39.56836
846.0815, 43.57617
846.5636, 72.82617
847.0457, 110.8652
847.5278, 121.7197
848.0099, 94.60449
848.4921, 77.81738
848.9742, 86.01758
849.4563, 103.7559
849.9384, 93.51758
850.4205, 63.18555
850.9026, 45.76074
851.3848, 75.06445
851.8669, 108.9590
852.3490, 114.4336
852.8311, 97.43359
853.3132, 72.62012
853.7953, 23.33887
854.2775, 5.822266
854.7596, 0.8496090
855.2417, 25.56934
855.7238, 39.05762
856.2059, 39.85059
856.6880, 37.62012
857.1702, 36.26562
857.6523, 35.88965
858.1344, 36.92578
858.6165, 38.59082
859.0986, 39.14941
859.5807, 35.33203
860.0629, 32.32031
860.5450, 27.08301
861.0271, 23.84863
861.5092, 37.43750
861.9913, 74.83203
862.4734, 99.33008
862.9556, 92.63965
863.4377, 75.17090
863.9198, 97.90723
864.4019, 149.3311
864.8840, 188.8086
865.3661, 183.2646
865.8483, 174.0156
866.3304, 179.8496
866.8125, 199.0820
867.2946, 230.8652
867.7767, 320.1377
868.2589, 348.6289
868.7410, 264.5967
869.2231, 125.7920
869.7052, 94.85059
870.1873, 160.8545
870.6694, 207.6465
871.1516, 171.9502
871.6337, 112.7236
872.1158, 87.68652
872.5979, 87.69434
873.0800, 91.01465
873.5621, 93.29980
874.0443, 96.60449
874.5264, 101.5049
875.0085, 106.6299
875.4906, 110.7588
875.9727, 114.6436
876.4548, 109.3154
876.9370, 87.77148
877.4191, 61.56055
877.9012, 50.74316
878.3833, 50.25781
878.8654, 47.02734
879.3475, 24.80176
879.8297, 10.34375
880.3118, 17.70215
880.7939, 40.11035
881.2760, 63.24805
881.7581, 94.53809
882.2402, 101.6230
882.7224, 68.26172
883.2045, 19.01465
883.6866, 6.114258
884.1687, 21.58301
884.6508, 37.44434
885.1329, 43.31250
885.6151, 44.73535
886.0972, 40.00098
886.5793, 32.78320
887.0614, 33.34277
887.5435, 52.25977
888.0256, 64.77832
888.5078, 66.26758
888.9899, 60.21973
889.4720, 52.67773
889.9541, 43.79102
890.4362, 32.84082
890.9183, 15.87695
891.4005, 5.096680
891.8826, 24.92285
892.3647, 55.96191
892.8468, 67.15332
893.3289, 16.59863
893.8110, 9.255859
894.2932, 8.486328
894.7753, 46.85645
895.2574, 75.54297
895.7395, 94.54590
896.2216, 95.09668
896.7037, 71.74512
897.1859, 40.60156
897.6680, 9.435547
898.1501, 12.78516
898.6322, 7.760742
899.1143, 55.30566
899.5964, 99.60254
900.0786, 91.02441
900.5607, 61.51855
901.0428, 41.05566
901.5249, 30.52734
902.0070, 25.94922
902.4891, 28.05957
902.9713, 32.89551
903.4534, 34.42188
903.9355, 35.48633
904.4176, 41.35254
904.8997, 53.54102
905.3818, 68.75586
905.8640, 91.30371
906.3461, 111.7412
906.8282, 120.7979
907.3103, 109.8545
907.7924, 111.9512
908.2745, 129.1738
908.7567, 152.5127
909.2388, 179.8174
909.7209, 205.4941
910.2030, 212.8994
910.6851, 198.7832
911.1672, 185.2090
911.6494, 191.0010
912.1315, 198.8936
912.6136, 198.0293
913.0957, 189.2070
913.5778, 159.9844
914.0599, 95.16797
914.5421, 47.87012
915.0242, 78.30176
915.5063, 160.1426
915.9884, 183.2178
916.4705, 145.9453
916.9526, 105.3027
917.4348, 94.17188
917.9169, 99.35156
918.3990, 113.3418
918.8811, 135.9043
919.3632, 163.5889
919.8453, 203.0742
920.3275, 233.9131
920.8096, 241.7344
921.2917, 233.0156
921.7738, 247.9092
922.2559, 282.4434
922.7380, 295.1299
923.2202, 229.0850
923.7023, 158.4131
924.1844, 143.5967
924.6665, 179.8818
925.1486, 208.9219
925.6307, 227.5010
926.1129, 232.5107
926.5950, 215.2305
927.0771, 187.3887
927.5591, 197.9307
928.0413, 241.1934
928.5234, 270.3096
929.0055, 250.5195
929.4876, 220.0127
929.9697, 206.3281
930.4518, 206.8369
930.9340, 216.1182
931.4161, 239.5293
931.8982, 260.5020
932.3803, 283.0176
932.8624, 296.4473
933.3445, 268.4248
933.8267, 206.1338
934.3088, 165.8994
934.7909, 169.1084
935.2730, 188.6602
935.7551, 207.9541
936.2372, 223.7656
936.7194, 232.6221
937.2015, 228.3945
937.6836, 221.5293
938.1657, 205.7402
938.6478, 191.4082
939.1299, 188.0088
939.6121, 197.9023
940.0942, 248.1582
940.5763, 352.5850
941.0584, 420.9131
941.5405, 316.2061
942.0226, 159.2422
942.5048, 87.43164
942.9869, 159.1924
943.4690, 201.7617
943.9511, 186.0186
944.4332, 158.4033
944.9153, 149.3604
945.3975, 158.7129
945.8796, 177.2568
946.3617, 205.0293
946.8438, 229.5361
947.3259, 254.2246
947.8080, 261.1670
948.2902, 218.4385
948.7723, 124.0996
949.2544, 72.37695
949.7365, 91.77441
950.2186, 125.7617
950.7007, 156.6816
951.1829, 183.2920
951.6650, 199.5039
952.1471, 205.8594
952.6292, 206.2988
953.1113, 197.7930
953.5934, 188.6387
954.0756, 187.1465
954.5577, 190.8076
955.0398, 189.8213
955.5219, 169.7500
956.0040, 167.9131
956.4861, 202.6436
956.9683, 252.2725
957.4504, 261.4385
957.9325, 234.5576
958.4146, 198.5605
958.8967, 153.8496
959.3788, 134.2422
959.8610, 208.9160
960.3431, 311.7012
960.8252, 341.0176
961.3073, 215.3789
961.7894, 133.7354
962.2715, 111.7949
962.7537, 119.1357
963.2358, 123.5850
963.7179, 128.2852
964.2000, 144.8682
964.6821, 176.2236
965.1642, 199.0625
965.6464, 189.4014
966.1285, 173.1924
966.6106, 174.0391
967.0927, 202.1250
967.5748, 206.1055
968.0569, 175.4482
968.5391, 146.6631
969.0212, 149.1309
969.5033, 172.6406
969.9854, 185.7881
970.4675, 188.0000
970.9496, 179.9844
971.4318, 148.9609
971.9139, 120.0410
972.3960, 106.4150
972.8781, 108.3408
973.3602, 125.3604
973.8423, 166.6631
974.3245, 188.6797
974.8066, 167.9766
975.2887, 128.6289
975.7708, 121.8936
976.2529, 135.9121
976.7350, 136.4238
977.2172, 86.77930
977.6993, 46.42773
978.1814, 45.20020
978.6635, 62.56641
979.1456, 68.46484
979.6277, 61.17871
980.1099, 47.87598
980.5920, 24.53711
981.0741, 12.29980
981.5562, 59.82129
982.0383, 128.4561
982.5204, 149.5762
983.0026, 91.33984
983.4847, 50.16797
983.9668, 75.54883
984.4489, 110.5146
984.9310, 117.1543
985.4131, 92.49707
985.8953, 90.85449
986.3774, 114.1348
986.8595, 125.3105
987.3416, 79.19922
987.8237, 17.75195
988.3058, 13.94238
988.7880, 14.92871
989.2701, 9.205078
989.7522, 6.798828
990.2343, 16.39355
990.7164, 10.36816
991.1985, 3.728516
991.6807, 6.560547
992.1628, 37.25684
992.6449, 54.99805
993.1270, 40.85547
993.6091, 15.05762
994.0912, 17.94922
994.5734, 49.09668
995.0555, 60.40820
995.5376, 48.78906
996.0197, 15.99316
996.5018, 50.66211
996.9839, 113.2529
997.4661, 96.25977
997.9482, 32.42285
998.4303, 39.36133
998.9124, 152.0176
999.3945, 234.9678
999.8766, 166.2451
1000.359, 61.53809
1000.841, 15.11816
1001.323, 37.58301
1001.805, 41.33301
1002.287, 21.99121
1002.769, 5.224609
1003.251, 12.98047
1003.734, 32.64160
1004.216, 46.17969
1004.698, 52.24414
1005.180, 46.07520
1005.662, 7.914063
1006.144, 22.05273
1006.626, 29.99805
1007.108, 21.33301
1007.591, 12.24609
1008.073, 2.832031
1008.555, 15.26367
1009.037, 48.76562
1009.519, 82.60645
1010.001, 105.8564
1010.483, 116.1523
1010.965, 109.5479
1011.447, 60.85059
1011.930, 35.44434
1012.412, 48.95410
1012.894, 64.97266
1013.376, 41.22070
1013.858, 13.38184
1014.340, 53.02344
1014.822, 74.04199
1015.304, 69.48633
1015.786, 4.355469
1016.269, 74.32617
1016.751, 78.53516
1017.233, 14.68555
1017.715, 18.00488
1018.197, 9.857422
1018.679, 2.754883
1019.161, 20.31641
1019.643, 45.15820
1020.125, 31.88965
1020.608, 4.275391
1021.090, 19.35840
1021.572, 46.20703
1022.054, 86.16113
1022.536, 46.66113
1023.018, 21.65039
1023.500, 48.91016
1023.982, 32.62402
1024.465, 21.68750
1024.947, 23.22266
1025.429, 27.91016
1025.911, 26.59863
1026.393, 22.89941
1026.875, 21.66211
1027.357, 25.27734
1027.839, 22.54395
1028.322, 5.173828
1028.804, 4.063477
1029.286, 16.46875
1029.768, 56.38477
1030.250, 55.24316
1030.732, 21.10449
1031.214, 1.909180
1031.696, 46.32715
1032.178, 91.43848
1032.661, 101.7041
1033.143, 86.07227
1033.625, 72.98340
1034.107, 62.97070
1034.589, 50.83105
1035.071, 31.65625
1035.553, 20.49609
1036.035, 48.41016
1036.517, 95.07812
1037.000, 126.7705
1037.482, 133.5293
1037.964, 132.2021
1038.446, 116.0664
1038.928, 104.2227
1039.410, 114.6318
1039.892, 145.3350
1040.374, 160.3350
1040.857, 159.7305
1041.339, 152.8525
1041.821, 139.1895
1042.303, 127.3535
1042.785, 125.2334
1043.267, 130.9795
1043.749, 131.5811
1044.231, 118.2695
1044.714, 125.1846
1045.196, 170.2666
1045.678, 220.5146
1046.160, 212.9941
1046.642, 169.0049
1047.124, 132.1270
1047.606, 111.6045
1048.088, 107.9814
1048.570, 139.0664
1049.052, 172.4834
1049.535, 184.8633
1050.017, 175.2285
1050.499, 167.3438
1050.981, 161.4658
1051.463, 160.9629
1051.945, 179.4746
1052.427, 193.8340
1052.909, 176.2803
1053.392, 132.9736
1053.874, 112.4609
1054.356, 115.5586
1054.838, 147.0254
1055.320, 221.2031
1055.802, 305.3604
1056.284, 337.7998
1056.766, 327.5283
1057.249, 291.4268
1057.731, 208.8174
1058.213, 157.6094
1058.695, 203.0645
1059.177, 267.8369
1059.659, 281.6416
1060.141, 238.1064
1060.623, 224.1963
1061.105, 243.1621
1061.588, 259.6416
1062.070, 232.4834
1062.552, 200.2178
1063.034, 205.9141
1063.516, 244.8838
1063.998, 264.4102
1064.480, 247.3770
1064.962, 246.9170
1065.444, 284.7041
1065.927, 334.4258
1066.409, 332.4912
1066.891, 301.2598
1067.373, 305.7510
1067.855, 386.1562
1068.337, 452.1455
1068.819, 448.5576
1069.301, 432.0645
1069.783, 447.8750
1070.266, 499.1699
1070.748, 551.8486
1071.230, 606.8320
1071.712, 636.4785
1072.194, 592.4795
1072.676, 537.3613
1073.158, 521.2783
1073.640, 547.6494
1074.123, 600.0635
1074.605, 694.5527
1075.087, 763.3574
1075.569, 780.0615
1076.051, 785.0645
1076.533, 836.8906
1077.015, 928.5713
1077.497, 1050.591
1077.979, 1211.818
1078.462, 1373.906
1078.944, 1487.059
1079.426, 1623.587
1079.908, 1836.982
1080.390, 2129.517
1080.872, 2418.410
1081.354, 2705.532
1081.836, 3062.544
1082.318, 3567.121
1082.801, 4138.821
1083.283, 4730.021
1083.765, 5342.448
1084.247, 5989.144
1084.729, 6685.661
1085.211, 7359.599
1085.693, 7993.715
1086.175, 8614.013
1086.658, 9262.610
1087.140, 9918.198
1087.622, 10537.02
1088.104, 11096.14
1088.586, 11692.26
1089.068, 12339.24
1089.550, 13026.39
1090.032, 13745.29
1090.515, 14499.82
1090.997, 15319.78
1091.479, 16202.52
1091.961, 17101.52
1092.443, 17999.02
1092.925, 18912.88
1093.407, 19891.70
1093.889, 20887.74
1094.371, 21894.05
1094.854, 22993.02
1095.336, 23625.72
1095.818, 23774.58
1096.300, 23208.88
1096.782, 21485.83
1097.264, 19041.92
1097.746, 16198.19
1098.228, 12934.82
1098.710, 10112.57
1099.193, 7801.554
1099.675, 5927.597
1100.157, 4498.275
1100.639, 3463.117
1101.121, 2717.326
1101.603, 2213.698
1102.085, 1833.055
1102.567, 1576.086
1103.050, 1362.472
1103.532, 1164.604
1104.014, 1003.842
1104.496, 921.9600
1104.978, 912.4912
1105.460, 833.2617
1105.942, 677.8193
1106.424, 541.6348
1106.906, 504.1318
1107.389, 498.4092
1107.871, 484.9639
1108.353, 461.8740
1108.835, 430.6416
1109.317, 389.1777
1109.799, 349.4990
1110.281, 315.1416
1110.763, 281.2012
1111.245, 231.1602
1111.728, 181.9160
1112.210, 160.6299
1112.692, 184.0713
1113.174, 205.9502
1113.656, 227.2178
1114.138, 238.9053
1114.620, 225.9502
1115.102, 200.4922
1115.585, 211.2949
1116.067, 247.2051
1116.549, 259.4756
1117.031, 201.3438
1117.513, 145.4746
1117.995, 108.3828
1118.477, 87.63281
1118.959, 85.30176
1119.442, 99.11133
1119.924, 104.8291
1120.406, 98.89746
1120.888, 88.77441
1121.370, 70.54199
1121.852, 58.00684
1122.334, 73.11035
1122.816, 111.0703
1123.298, 103.0352
1123.781, 41.68359
1124.263, 2.960938
1124.745, 30.52637
1125.227, 74.15234
1125.709, 65.40820
1126.191, 33.38379
1126.673, 25.86035
1127.155, 80.71777
1127.637, 106.9355
1128.120, 96.69531
1128.602, 77.91602
1129.084, 70.38965
1129.566, 73.08105
1130.048, 89.20801
1130.530, 115.6455
1131.012, 132.5420
1131.494, 125.7129
1131.977, 115.1396
1132.459, 101.5498
1132.941, 91.32422
1133.423, 99.56152
1133.905, 122.7744
1134.387, 149.8867
1134.869, 182.0908
1135.351, 198.4043
1135.833, 177.8623
1136.316, 143.1768
1136.798, 102.7988
1137.280, 60.00488
1137.762, 60.82324
1138.244, 104.3721
1138.726, 152.2422
1139.208, 190.3926
1139.690, 219.2363
1140.172, 238.9229
1140.655, 248.9941
1141.137, 248.2891
1141.619, 234.4912
1142.101, 217.0801
1142.583, 194.8369
1143.065, 178.3428
1143.547, 181.4375
1144.029, 193.3438
1144.512, 198.2021
1144.994, 197.6758
1145.476, 213.1865
1145.958, 261.1123
1146.440, 294.1455
1146.922, 300.4668
1147.404, 291.8994
1147.886, 277.0010
1148.369, 261.7637
1148.851, 259.5088
1149.333, 275.6025
1149.815, 292.0205
1150.297, 305.2939
1150.779, 315.9785
1151.261, 325.2266
1151.743, 331.5625
1152.225, 328.6523
1152.708, 317.4541
1153.190, 299.6484
1153.672, 268.0029
1154.154, 247.2266
1154.636, 256.4932
1155.118, 274.2676
1155.600, 279.0938
1156.082, 271.6123
1156.564, 276.4814
1157.047, 294.6426
1157.529, 300.5840
1158.011, 252.5459
1158.493, 209.0723
1158.975, 226.9180
1159.457, 194.0654
1159.939, 175.1445
1160.421, 193.5049
1160.903, 155.7168
1161.386, 182.8789
1161.868, 229.4795
1162.350, 264.3633
1162.832, 285.4277
1163.314, 286.3418
1163.796, 264.1367
1164.278, 254.2217
1164.760, 259.2480
1165.243, 263.9355
1165.725, 260.5020
1166.207, 253.8906
1166.689, 251.8574
1167.171, 251.2656
1167.653, 245.9141
1168.135, 222.8994
1168.617, 216.1562
1169.099, 229.1611
1169.582, 248.7070
1170.064, 268.3096
1170.546, 284.2920
1171.028, 282.7109
1171.510, 268.5752
1171.992, 268.2773
1172.474, 317.7842
1172.956, 343.5352
1173.438, 331.3740
1173.921, 294.9932
1174.403, 234.9121
1174.885, 169.7715
1175.367, 158.2979
1175.849, 211.7217
1176.331, 264.1504
1176.813, 310.0000
1177.295, 320.4727
1177.778, 269.3438
1178.260, 185.8506
1178.742, 163.9805
1179.224, 190.8291
1179.706, 211.2910
1180.188, 204.2295
1180.670, 195.5801
1181.152, 193.9385
1181.635, 198.8428
1182.117, 214.1660
1182.599, 238.4307
1183.081, 244.1650
1183.563, 232.3125
1184.045, 214.7314
1184.527, 189.6738
1185.009, 170.3896
1185.491, 175.9395
1185.974, 184.9043
1186.456, 161.8154
1186.938, 104.1416
1187.420, 74.49512
1187.902, 78.38770
1188.384, 89.95898
1188.866, 92.29199
1189.348, 92.32520
1189.830, 97.81152
1190.313, 105.4053
1190.795, 102.8242
1191.277, 90.01270
1191.759, 64.88281
1192.241, 23.31934
1192.723, 12.65625
1193.205, 18.34570
1193.687, 10.22852
1194.170, 3.724609
1194.652, 0.4462890
1195.134, 6.577148
1195.616, 18.30859
1196.098, 25.70410
1196.580, 20.97461
1197.062, 16.77734
1197.544, 34.46777
1198.026, 59.50391
1198.509, 68.71582
1198.991, 51.56055
1199.473, 45.44141
1199.955, 53.25000
1200.437, 57.82129
1200.919, 37.67285
1201.401, 14.25098
1201.883, 19.73340
1202.365, 46.53320
1202.848, 58.38672
1203.330, 44.14941
1203.812, 25.92969
1204.294, 2.855469
1204.776, 13.09570
1205.258, 0.9482420
1205.740, 21.39941
1206.222, 22.27148
1206.705, 40.97852
1207.187, 65.32422
1207.669, 42.56543
1208.151, 64.95020
1208.633, 63.61426
1209.115, 42.16211
1209.597, 18.56836
1210.079, 0.0000000E+00
##END=



