##NAMES=Behoite
##RRUFFID=R130229
##IDEAL CHEMISTRY=Be(OH)_2_
##LOCALITY=Clear Creek pegmatite, Burnet County, Texas, USA
##OWNER=RRUFF
##SOURCE=Rock Currier
##DESCRIPTION=Colorless vitreous pseudo-octahedral crystals and intergrown clusters
##STATUS=The identification of this mineral has been confirmed by single-crystal X-ray diffraction.
##URL=rruff.info/R130229
90.26532, 0.0000000E+00
90.74744, 4.765137
91.22955, 64.37305
91.71167, 147.0518
92.19379, 222.5303
92.67590, 292.4180
93.15802, 337.1924
93.64014, 335.6719
94.12225, 300.5693
94.60437, 269.9312
95.08649, 258.3701
95.56860, 250.0483
96.05072, 229.4971
96.53284, 223.0933
97.01495, 224.5547
97.49707, 213.6094
97.97919, 181.4131
98.46130, 145.4932
98.94342, 109.9375
99.42554, 79.27148
99.90765, 59.89502
100.3898, 54.63379
100.8719, 54.09668
101.3540, 43.54980
101.8361, 19.98828
102.3182, 1.851563
102.8004, 16.73877
103.2825, 24.21436
103.7646, 26.33643
104.2467, 22.71191
104.7288, 13.77295
105.2109, 1.343262
105.6931, 11.66992
106.1752, 32.92041
106.6573, 66.92725
107.1394, 121.6821
107.6215, 175.6885
108.1036, 233.0176
108.5858, 291.4375
109.0679, 336.1694
109.5500, 356.1870
110.0321, 371.8359
110.5142, 393.7471
110.9963, 425.3076
111.4785, 459.5312
111.9606, 493.9756
112.4427, 528.8765
112.9248, 570.9985
113.4069, 627.2700
113.8890, 687.8462
114.3712, 745.6455
114.8533, 800.1997
115.3354, 850.5024
115.8175, 896.6782
116.2996, 939.7808
116.7817, 976.7026
117.2639, 1001.172
117.7460, 1020.759
118.2281, 1045.055
118.7102, 1085.912
119.1923, 1126.720
119.6744, 1154.785
120.1566, 1165.816
120.6387, 1177.674
121.1208, 1201.218
121.6029, 1233.157
122.0850, 1266.795
122.5671, 1291.830
123.0493, 1319.463
123.5314, 1364.611
124.0135, 1436.163
124.4956, 1508.693
124.9777, 1552.521
125.4598, 1573.876
125.9420, 1595.967
126.4241, 1634.166
126.9062, 1683.183
127.3883, 1733.489
127.8704, 1782.839
128.3525, 1832.793
128.8347, 1887.683
129.3168, 1947.367
129.7989, 2004.536
130.2810, 2055.890
130.7631, 2100.657
131.2452, 2139.412
131.7274, 2177.279
132.2095, 2206.906
132.6916, 2208.241
133.1737, 2180.396
133.6558, 2129.885
134.1379, 2059.670
134.6201, 1969.974
135.1022, 1868.246
135.5843, 1754.112
136.0664, 1629.123
136.5485, 1506.146
137.0306, 1382.447
137.5128, 1266.093
137.9949, 1163.392
138.4770, 1074.464
138.9591, 997.3086
139.4412, 932.0469
139.9233, 879.7051
140.4055, 830.7529
140.8876, 785.8945
141.3697, 743.2480
141.8518, 698.5166
142.3339, 648.5762
142.8160, 603.5645
143.2982, 567.6104
143.7803, 543.1484
144.2624, 520.6865
144.7445, 500.2832
145.2266, 481.9307
145.7087, 466.2227
146.1909, 455.1465
146.6730, 444.2451
147.1551, 431.6445
147.6372, 415.3096
148.1193, 402.3066
148.6014, 391.8203
149.0836, 383.4941
149.5657, 376.0947
150.0478, 371.0127
150.5299, 365.7090
151.0120, 359.0693
151.4941, 345.5635
151.9763, 336.9609
152.4584, 337.0303
152.9405, 343.4893
153.4226, 345.2666
153.9047, 336.3584
154.3868, 325.7061
154.8690, 318.1904
155.3511, 318.0547
155.8332, 317.2764
156.3153, 315.0098
156.7974, 311.2021
157.2795, 305.2715
157.7617, 296.0166
158.2438, 285.5215
158.7259, 275.2832
159.2080, 263.1973
159.6901, 253.5127
160.1722, 249.0322
160.6544, 249.3867
161.1365, 247.4531
161.6186, 237.3369
162.1007, 225.7920
162.5828, 219.1172
163.0649, 224.5420
163.5471, 230.5635
164.0292, 231.0605
164.5113, 225.7070
164.9934, 220.6621
165.4755, 218.8770
165.9576, 218.8213
166.4398, 218.5186
166.9219, 218.6846
167.4040, 217.3008
167.8861, 212.5010
168.3682, 204.1113
168.8503, 194.6094
169.3325, 183.6172
169.8146, 172.8506
170.2967, 165.0732
170.7788, 164.3574
171.2609, 165.7373
171.7430, 164.5820
172.2252, 160.5195
172.7073, 155.6523
173.1894, 150.9590
173.6715, 146.7607
174.1536, 143.7920
174.6357, 144.8271
175.1179, 145.9766
175.6000, 140.9316
176.0821, 128.6006
176.5642, 117.0176
177.0463, 115.6191
177.5284, 121.9180
178.0106, 127.8350
178.4927, 130.1660
178.9748, 129.1143
179.4569, 123.7861
179.9390, 113.2285
180.4211, 102.0303
180.9033, 96.03027
181.3854, 94.54297
181.8675, 93.75879
182.3496, 91.49414
182.8317, 88.36523
183.3138, 86.28613
183.7960, 85.55957
184.2781, 85.36816
184.7602, 84.04395
185.2423, 81.80859
185.7244, 80.14551
186.2065, 80.38281
186.6887, 81.97461
187.1708, 83.19629
187.6529, 83.70117
188.1350, 83.79785
188.6171, 83.65527
189.0992, 83.32422
189.5814, 83.13086
190.0635, 83.75586
190.5456, 85.07031
191.0277, 85.16797
191.5098, 84.19629
191.9919, 82.14551
192.4741, 78.95410
192.9562, 74.68066
193.4383, 71.10742
193.9204, 69.50879
194.4025, 69.69531
194.8846, 69.91406
195.3668, 70.16992
195.8489, 70.39844
196.3310, 70.18262
196.8131, 69.27539
197.2952, 67.71484
197.7773, 65.17188
198.2595, 61.57715
198.7416, 61.05078
199.2237, 64.94141
199.7058, 71.25586
200.1879, 74.32520
200.6700, 73.72852
201.1522, 72.66504
201.6343, 73.24512
202.1164, 75.60156
202.5985, 78.78809
203.0806, 82.38184
203.5627, 86.79492
204.0449, 94.05762
204.5270, 105.3350
205.0091, 115.4180
205.4912, 119.3682
205.9733, 115.5488
206.4554, 115.5098
206.9376, 122.2119
207.4197, 133.1260
207.9018, 138.3906
208.3839, 135.9678
208.8660, 133.2969
209.3481, 136.5186
209.8303, 147.9238
210.3124, 155.5225
210.7945, 157.1055
211.2766, 154.1943
211.7587, 153.6377
212.2408, 157.0576
212.7230, 159.5732
213.2051, 157.3750
213.6872, 148.6465
214.1693, 141.0342
214.6514, 134.9121
215.1335, 130.2686
215.6157, 127.9727
216.0978, 129.1475
216.5799, 130.0820
217.0620, 128.1338
217.5441, 122.0059
218.0262, 116.2520
218.5084, 111.0449
218.9905, 106.5449
219.4726, 103.6543
219.9547, 103.3301
220.4368, 103.3184
220.9189, 101.8682
221.4011, 98.00391
221.8832, 96.35840
222.3653, 99.49609
222.8474, 105.4092
223.3295, 104.4561
223.8116, 93.34863
224.2938, 80.52539
224.7759, 71.04395
225.2580, 66.33789
225.7401, 61.37500
226.2222, 55.67480
226.7043, 49.30859
227.1865, 42.80859
227.6686, 35.42871
228.1507, 28.70312
228.6328, 23.73828
229.1149, 21.88867
229.5970, 18.62012
230.0792, 13.83594
230.5613, 7.502930
231.0434, 1.708008
231.5255, 18.76660
232.0076, 31.11621
232.4897, 29.95996
232.9719, 4.617188
233.4540, 10.17578
233.9361, 9.670898
234.4182, 1.824219
234.9003, 9.416992
235.3824, 11.94922
235.8646, 12.21191
236.3467, 11.56641
236.8288, 10.43164
237.3109, 7.690430
237.7930, 2.789063
238.2751, 3.916016
238.7573, 10.30176
239.2394, 16.03223
239.7215, 20.25879
240.2036, 22.62891
240.6857, 22.13672
241.1678, 22.37012
241.6500, 23.96875
242.1321, 26.32324
242.6142, 27.67090
243.0963, 27.41504
243.5784, 26.36914
244.0605, 24.70508
244.5427, 22.25391
245.0248, 19.03711
245.5069, 14.15723
245.9890, 9.260742
246.4711, 8.496094
246.9532, 16.12598
247.4354, 21.51367
247.9175, 19.29883
248.3996, 5.232422
248.8817, 2.510742
249.3638, 1.471680
249.8459, 4.407227
250.3281, 7.978516
250.8102, 8.376953
251.2923, 8.745117
251.7744, 10.63184
252.2565, 14.94531
252.7386, 17.12988
253.2208, 15.58301
253.7029, 13.35449
254.1850, 15.79980
254.6671, 25.89062
255.1492, 34.07617
255.6313, 35.70020
256.1135, 28.55469
256.5956, 29.00586
257.0777, 39.67480
257.5598, 55.19629
258.0419, 68.68555
258.5240, 79.57324
259.0062, 88.24023
259.4883, 94.99707
259.9704, 99.91992
260.4525, 101.2451
260.9346, 95.67188
261.4167, 90.52051
261.8989, 95.45215
262.3810, 114.6973
262.8631, 132.9043
263.3452, 146.2705
263.8273, 155.2686
264.3094, 164.8887
264.7916, 176.4502
265.2737, 187.5537
265.7558, 194.8008
266.2379, 195.2158
266.7200, 202.0654
267.2021, 220.6748
267.6843, 249.1973
268.1664, 268.9717
268.6485, 275.6270
269.1306, 282.2539
269.6127, 300.8555
270.0948, 334.0850
270.5770, 365.7686
271.0591, 391.7148
271.5412, 413.5312
272.0233, 441.6006
272.5054, 477.2520
272.9875, 513.4346
273.4697, 546.1982
273.9518, 576.5449
274.4339, 598.7822
274.9160, 611.8906
275.3981, 616.6807
275.8802, 615.1240
276.3624, 606.5273
276.8445, 594.1836
277.3266, 579.5098
277.8087, 562.4297
278.2908, 545.0596
278.7729, 527.5225
279.2551, 510.0254
279.7372, 493.5703
280.2193, 478.4463
280.7014, 462.6230
281.1835, 445.7529
281.6656, 427.7939
282.1478, 405.3262
282.6299, 377.3594
283.1120, 346.4844
283.5941, 316.2725
284.0762, 286.5605
284.5583, 258.6416
285.0405, 232.5449
285.5226, 208.3887
286.0047, 187.1035
286.4868, 168.5820
286.9689, 153.1924
287.4510, 142.4834
287.9332, 136.2080
288.4153, 130.1836
288.8974, 123.2705
289.3795, 114.9414
289.8616, 103.1973
290.3438, 87.92773
290.8259, 73.68359
291.3080, 65.12305
291.7901, 61.31543
292.2722, 56.99707
292.7543, 49.74512
293.2365, 41.09180
293.7186, 35.35254
294.2007, 32.61035
294.6828, 29.25098
295.1649, 20.13477
295.6470, 7.478516
296.1292, 1.156250
296.6113, 2.228516
297.0934, 4.9805000E-02
297.5755, 0.5898440
298.0576, 3.746094
298.5397, 9.140625
299.0219, 18.25781
299.5040, 29.12891
299.9861, 37.74219
300.4682, 43.18945
300.9503, 46.08398
301.4324, 45.78711
301.9146, 42.99805
302.3967, 40.40527
302.8788, 39.50781
303.3609, 39.92480
303.8430, 41.86230
304.3251, 45.91504
304.8073, 49.41406
305.2894, 50.37988
305.7715, 49.05078
306.2536, 45.73145
306.7357, 39.64746
307.2178, 32.65430
307.7000, 26.97168
308.1821, 23.16895
308.6642, 20.62598
309.1463, 19.12793
309.6284, 18.63672
310.1105, 18.81641
310.5927, 21.20410
311.0748, 23.59766
311.5569, 23.96680
312.0390, 22.06641
312.5211, 19.87109
313.0032, 17.90137
313.4854, 16.51270
313.9675, 16.24023
314.4496, 19.22168
314.9317, 21.05566
315.4138, 19.31836
315.8959, 14.27344
316.3781, 7.963867
316.8602, 2.020508
317.3423, 11.08496
317.8244, 15.59863
318.3065, 11.82520
318.7886, 7.741211
319.2708, 2.899414
319.7529, 0.7617190
320.2350, 2.357422
320.7171, 18.97754
321.1992, 38.62988
321.6813, 56.18262
322.1635, 70.27832
322.6456, 83.39648
323.1277, 95.11719
323.6098, 106.1113
324.0919, 117.6768
324.5740, 126.1846
325.0562, 138.3457
325.5383, 157.1514
326.0204, 184.5391
326.5025, 211.0801
326.9846, 232.8965
327.4667, 254.9971
327.9489, 283.1309
328.4310, 319.9199
328.9131, 360.2725
329.3952, 403.5205
329.8773, 449.7324
330.3594, 501.5215
330.8416, 562.4639
331.3237, 625.3613
331.8058, 684.8965
332.2879, 739.5273
332.7700, 793.6143
333.2521, 848.0771
333.7343, 902.7656
334.2164, 957.6416
334.6985, 1012.654
335.1806, 1066.493
335.6627, 1116.878
336.1448, 1158.491
336.6270, 1211.341
337.1091, 1277.340
337.5912, 1352.925
338.0733, 1432.009
338.5554, 1512.891
339.0375, 1600.071
339.5197, 1694.010
340.0018, 1793.367
340.4839, 1908.253
340.9660, 2035.328
341.4481, 2180.062
341.9302, 2347.754
342.4124, 2540.636
342.8945, 2745.859
343.3766, 2963.801
343.8587, 3191.134
344.3408, 3426.295
344.8229, 3669.427
345.3051, 3910.879
345.7872, 4157.151
346.2693, 4400.355
346.7514, 4602.039
347.2335, 4768.117
347.7156, 4867.889
348.1978, 4843.186
348.6799, 4695.103
349.1620, 4434.273
349.6441, 4017.916
350.1262, 3497.289
350.6083, 2983.265
351.0905, 2475.774
351.5726, 2007.787
352.0547, 1610.767
352.5368, 1281.770
353.0189, 1011.986
353.5010, 809.4326
353.9832, 657.3330
354.4653, 543.0713
354.9474, 465.9590
355.4295, 407.2158
355.9116, 353.9609
356.3937, 308.5332
356.8759, 274.9453
357.3580, 258.7979
357.8401, 251.1250
358.3222, 247.9863
358.8043, 249.1650
359.2864, 252.0020
359.7686, 257.4199
360.2507, 262.9160
360.7328, 266.1055
361.2149, 266.5127
361.6970, 264.3145
362.1791, 259.4775
362.6613, 251.8086
363.1434, 241.1875
363.6255, 222.4258
364.1076, 204.8457
364.5897, 193.5928
365.0718, 191.1982
365.5540, 188.0781
366.0361, 180.3311
366.5182, 171.5371
367.0003, 166.0361
367.4824, 169.1855
367.9645, 170.7842
368.4467, 165.4102
368.9288, 152.4033
369.4109, 151.0605
369.8930, 169.8984
370.3751, 194.4854
370.8572, 214.8320
371.3394, 222.4229
371.8215, 239.9404
372.3036, 271.4521
372.7857, 313.8867
373.2678, 356.8975
373.7499, 400.3994
374.2321, 445.5762
374.7142, 490.7080
375.1963, 532.8213
375.6784, 587.2383
376.1605, 655.2295
376.6426, 733.3350
377.1248, 814.0059
377.6069, 898.0088
378.0890, 984.8057
378.5711, 1072.671
379.0532, 1162.891
379.5353, 1256.717
380.0175, 1354.230
380.4996, 1460.160
380.9817, 1581.961
381.4638, 1717.619
381.9459, 1855.576
382.4280, 1990.926
382.9102, 2128.677
383.3923, 2274.167
383.8744, 2428.465
384.3565, 2590.680
384.8386, 2759.674
385.3207, 2935.714
385.8029, 3112.621
386.2850, 3290.748
386.7671, 3474.199
387.2492, 3664.879
387.7313, 3865.423
388.2134, 4078.227
388.6956, 4306.945
389.1777, 4543.703
389.6598, 4783.471
390.1419, 5025.453
390.6240, 5272.166
391.1061, 5528.184
391.5883, 5791.430
392.0704, 6061.324
392.5525, 6343.554
393.0346, 6624.171
393.5167, 6905.753
393.9988, 7185.112
394.4810, 7456.498
394.9631, 7727.090
395.4452, 7982.246
395.9273, 8218.607
396.4094, 8442.857
396.8915, 8625.468
397.3737, 8765.336
397.8558, 8858.926
398.3379, 8901.925
398.8200, 8898.577
399.3021, 8838.031
399.7842, 8709.493
400.2664, 8513.079
400.7485, 8292.760
401.2306, 8058.628
401.7127, 7792.969
402.1948, 7481.164
402.6769, 7099.598
403.1591, 6722.584
403.6412, 6353.887
404.1233, 5993.164
404.6054, 5626.373
405.0875, 5250.609
405.5696, 4888.110
406.0518, 4549.306
406.5339, 4234.714
407.0160, 3930.156
407.4981, 3636.792
407.9802, 3359.365
408.4623, 3105.200
408.9445, 2873.457
409.4266, 2660.223
409.9087, 2466.139
410.3908, 2289.010
410.8729, 2125.717
411.3550, 1975.819
411.8372, 1840.692
412.3193, 1722.843
412.8014, 1619.074
413.2835, 1520.203
413.7656, 1423.462
414.2477, 1334.645
414.7299, 1262.402
415.2120, 1203.328
415.6941, 1151.067
416.1762, 1103.632
416.6583, 1059.735
417.1404, 1017.229
417.6226, 975.8467
418.1047, 939.8896
418.5868, 911.5088
419.0689, 889.0654
419.5510, 870.5547
420.0331, 856.9590
420.5153, 844.8359
420.9974, 835.1836
421.4795, 826.3027
421.9616, 814.0264
422.4437, 791.6182
422.9258, 771.1387
423.4080, 758.8926
423.8901, 757.4395
424.3722, 756.3047
424.8543, 752.6279
425.3364, 749.9023
425.8185, 751.6328
426.3007, 760.2158
426.7828, 769.7314
427.2649, 780.1875
427.7470, 791.8711
428.2291, 801.5381
428.7112, 807.7363
429.1934, 814.0078
429.6755, 822.4658
430.1576, 833.0430
430.6397, 843.8730
431.1218, 854.7373
431.6039, 865.9678
432.0861, 877.9941
432.5682, 890.7725
433.0503, 905.3838
433.5324, 923.9248
434.0145, 944.6348
434.4966, 960.4082
434.9788, 971.2236
435.4609, 981.6855
435.9430, 994.9062
436.4251, 1011.179
436.9072, 1031.446
437.3893, 1057.400
437.8715, 1084.623
438.3536, 1106.096
438.8357, 1124.390
439.3178, 1146.798
439.7999, 1177.959
440.2820, 1213.775
440.7642, 1252.832
441.2463, 1295.332
441.7284, 1331.856
442.2105, 1351.860
442.6926, 1365.885
443.1747, 1384.354
443.6569, 1420.622
444.1390, 1448.750
444.6211, 1462.066
445.1032, 1461.300
445.5853, 1448.011
446.0674, 1423.328
446.5496, 1385.904
447.0317, 1333.281
447.5138, 1260.375
447.9959, 1188.491
448.4780, 1113.879
448.9601, 1043.257
449.4423, 981.7051
449.9244, 929.0342
450.4065, 887.3623
450.8886, 857.4980
451.3707, 839.1738
451.8528, 830.0469
452.3350, 830.0137
452.8171, 839.1025
453.2992, 858.8330
453.7813, 889.2754
454.2634, 922.1436
454.7455, 957.3965
455.2277, 994.4414
455.7098, 1036.677
456.1919, 1081.957
456.6740, 1120.126
457.1561, 1148.500
457.6382, 1166.189
458.1204, 1172.182
458.6025, 1166.160
459.0846, 1144.838
459.5667, 1104.437
460.0488, 1048.248
460.5309, 978.2197
461.0131, 893.0566
461.4952, 803.4004
461.9773, 714.7881
462.4594, 628.0684
462.9415, 543.2969
463.4236, 455.2881
463.9058, 375.1260
464.3879, 306.3838
464.8700, 249.7646
465.3521, 202.6133
465.8342, 168.8516
466.3163, 140.3887
466.7985, 112.2852
467.2806, 80.02246
467.7627, 55.93262
468.2448, 43.98535
468.7269, 38.74609
469.2090, 32.60938
469.6912, 24.83789
470.1733, 17.45215
470.6554, 11.09180
471.1375, 5.539063
471.6196, 1.255859
472.1017, 10.17480
472.5839, 18.18750
473.0660, 22.21387
473.5481, 22.16406
474.0302, 25.26270
474.5123, 32.14746
474.9944, 41.48242
475.4766, 52.95605
475.9587, 65.73340
476.4408, 75.38184
476.9229, 79.05762
477.4050, 78.79395
477.8871, 77.75098
478.3693, 75.72656
478.8514, 71.99316
479.3335, 62.80859
479.8156, 52.89844
480.2977, 49.12988
480.7798, 54.86914
481.2620, 59.68066
481.7441, 57.93848
482.2262, 51.58984
482.7083, 43.42285
483.1904, 34.56543
483.6725, 24.21191
484.1547, 9.896484
484.6368, 7.465820
485.1189, 18.69336
485.6010, 17.40137
486.0831, 13.37500
486.5652, 11.08789
487.0474, 9.236328
487.5295, 12.12891
488.0116, 22.50684
488.4937, 35.48242
488.9758, 45.00586
489.4579, 51.77734
489.9401, 52.40723
490.4222, 43.38379
490.9043, 27.96680
491.3864, 22.58594
491.8685, 28.51074
492.3506, 35.92090
492.8328, 39.15918
493.3149, 38.46094
493.7970, 33.85938
494.2791, 24.72363
494.7612, 15.39160
495.2433, 11.46875
495.7255, 11.35645
496.2076, 10.69141
496.6897, 6.222656
497.1718, 2.431641
497.6539, 4.911133
498.1360, 12.16406
498.6182, 18.67871
499.1003, 20.34375
499.5824, 20.88672
500.0645, 22.50195
500.5466, 25.58594
501.0287, 28.90527
501.5109, 33.50000
501.9930, 37.51758
502.4751, 38.95801
502.9572, 34.58691
503.4393, 30.89648
503.9214, 27.97559
504.4036, 26.08398
504.8857, 26.67969
505.3678, 31.44434
505.8499, 35.91797
506.3320, 37.73242
506.8141, 36.55762
507.2963, 39.26270
507.7784, 47.30957
508.2605, 56.03809
508.7426, 59.72363
509.2247, 58.72363
509.7068, 60.36426
510.1890, 66.67871
510.6711, 74.91309
511.1532, 79.67480
511.6353, 81.60840
512.1174, 84.12012
512.5995, 90.32617
513.0817, 97.36816
513.5638, 102.9209
514.0459, 106.7627
514.5280, 106.4941
515.0101, 95.66406
515.4922, 82.68066
515.9744, 75.89551
516.4565, 80.35059
516.9386, 84.90527
517.4207, 85.33398
517.9028, 83.85938
518.3849, 83.99219
518.8671, 88.78223
519.3492, 92.58301
519.8313, 93.07324
520.3134, 90.55078
520.7955, 91.97266
521.2776, 100.2070
521.7598, 107.8369
522.2419, 109.7119
522.7240, 104.1826
523.2061, 101.5293
523.6882, 102.3975
524.1703, 104.9785
524.6525, 107.3115
525.1346, 109.4756
525.6167, 111.4307
526.0988, 113.6562
526.5809, 115.2832
527.0630, 113.9600
527.5452, 110.2168
528.0273, 106.6836
528.5094, 104.5723
528.9915, 103.7998
529.4736, 103.9736
529.9557, 104.8340
530.4379, 107.4434
530.9200, 115.0137
531.4021, 123.6387
531.8842, 128.9336
532.3663, 125.6768
532.8484, 123.7939
533.3306, 127.5518
533.8127, 133.8096
534.2948, 136.0869
534.7769, 132.0977
535.2590, 127.4023
535.7411, 123.6406
536.2233, 120.8555
536.7054, 116.1367
537.1875, 108.6787
537.6696, 102.4160
538.1517, 100.5059
538.6339, 102.9141
539.1160, 101.7686
539.5981, 96.01270
540.0802, 90.66602
540.5623, 93.29492
541.0444, 102.7246
541.5266, 112.6885
542.0087, 122.1162
542.4908, 130.4600
542.9729, 133.5127
543.4550, 132.4561
543.9371, 133.3652
544.4193, 139.8740
544.9014, 149.5312
545.3835, 162.4990
545.8656, 179.0801
546.3477, 191.0400
546.8298, 190.5752
547.3120, 186.5664
547.7941, 186.3115
548.2762, 197.1943
548.7583, 203.1318
549.2404, 201.4004
549.7225, 194.5596
550.2047, 186.3057
550.6868, 174.8916
551.1689, 165.5781
551.6510, 161.7178
552.1331, 161.4277
552.6152, 150.6396
553.0974, 127.7070
553.5795, 104.2627
554.0616, 89.19141
554.5437, 80.78223
555.0258, 68.37402
555.5079, 51.37012
555.9901, 35.63770
556.4722, 25.37695
556.9543, 20.63574
557.4364, 22.54004
557.9185, 35.39453
558.4006, 48.57910
558.8828, 52.47070
559.3649, 50.00488
559.8470, 48.40625
560.3291, 50.72168
560.8112, 53.48438
561.2933, 54.93457
561.7755, 54.82324
562.2576, 54.77344
562.7397, 55.33984
563.2218, 55.30371
563.7039, 54.18555
564.1860, 52.54297
564.6682, 48.25391
565.1503, 39.45410
565.6324, 31.00684
566.1145, 30.94043
566.5966, 41.34082
567.0787, 46.64844
567.5609, 42.45898
568.0430, 33.90625
568.5251, 31.06934
569.0072, 33.56934
569.4893, 38.55566
569.9714, 46.86133
570.4536, 56.12500
570.9357, 61.95605
571.4178, 64.15820
571.8999, 66.70020
572.3820, 73.51562
572.8641, 81.49023
573.3463, 86.73633
573.8284, 85.95410
574.3105, 87.57715
574.7926, 97.05273
575.2747, 109.7266
575.7568, 119.4795
576.2390, 124.1367
576.7211, 127.3760
577.2032, 126.7285
577.6853, 124.7207
578.1674, 131.9277
578.6495, 152.8506
579.1317, 172.1016
579.6138, 183.5225
580.0959, 187.4316
580.5780, 185.4570
581.0601, 177.0195
581.5422, 170.6172
582.0244, 176.5186
582.5065, 190.0332
582.9886, 197.4590
583.4707, 195.8887
583.9528, 195.7822
584.4349, 208.6895
584.9171, 228.5693
585.3992, 246.4775
585.8813, 261.5244
586.3634, 271.4688
586.8455, 270.0215
587.3276, 262.1006
587.8098, 261.1055
588.2919, 274.6855
588.7740, 290.2002
589.2561, 304.3906
589.7382, 317.1572
590.2203, 328.7100
590.7025, 339.6533
591.1846, 347.8311
591.6667, 350.9355
592.1488, 348.6504
592.6309, 347.3965
593.1130, 347.6934
593.5952, 348.6426
594.0773, 349.4346
594.5594, 350.1758
595.0415, 350.6465
595.5236, 350.7510
596.0057, 351.2646
596.4879, 352.4346
596.9700, 354.6318
597.4521, 358.5195
597.9342, 369.6357
598.4163, 377.9248
598.8984, 375.6875
599.3806, 364.0547
599.8627, 354.4248
600.3448, 350.9014
600.8269, 348.4365
601.3090, 344.0566
601.7911, 336.1279
602.2733, 333.2031
602.7554, 339.6807
603.2375, 344.8936
603.7196, 336.9590
604.2017, 314.3369
604.6838, 294.5664
605.1660, 279.3379
605.6481, 268.5938
606.1302, 264.6699
606.6123, 266.0234
607.0944, 265.2480
607.5765, 258.7832
608.0587, 249.6172
608.5408, 240.5195
609.0229, 231.4883
609.5050, 222.5605
609.9871, 213.5391
610.4692, 204.6133
610.9514, 196.1230
611.4335, 188.0605
611.9156, 178.5586
612.3977, 165.0742
612.8798, 151.5508
613.3619, 140.5078
613.8441, 133.3867
614.3262, 125.1523
614.8083, 116.2871
615.2904, 106.2168
615.7725, 93.06055
616.2546, 76.53125
616.7368, 63.91016
617.2189, 57.97461
617.7010, 54.53516
618.1831, 44.73438
618.6652, 30.34961
619.1473, 18.50195
619.6295, 13.85547
620.1116, 12.66211
620.5937, 13.01758
621.0758, 14.08594
621.5579, 12.17188
622.0400, 1.134766
622.5222, 13.05664
623.0043, 14.47266
623.4864, 1.998047
623.9685, 5.365234
624.4506, 3.113281
624.9327, 2.556641
625.4149, 8.201172
625.8970, 14.90234
626.3791, 18.33008
626.8612, 17.07422
627.3433, 14.52344
627.8254, 16.79102
628.3076, 23.52539
628.7897, 25.90625
629.2718, 19.54688
629.7539, 11.23242
630.2360, 14.36719
630.7181, 25.19922
631.2003, 32.09570
631.6824, 23.33203
632.1645, 12.77734
632.6466, 12.45898
633.1287, 20.82227
633.6108, 27.54102
634.0930, 29.91602
634.5751, 28.92773
635.0572, 23.68945
635.5393, 12.39258
636.0214, 6.646484
636.5035, 9.693359
636.9857, 14.42773
637.4678, 15.56836
637.9499, 12.77148
638.4320, 9.482422
638.9141, 5.875000
639.3962, 2.394531
639.8784, 0.7636720
640.3605, 0.1738280
640.8426, 4.126953
641.3247, 15.77734
641.8068, 27.22852
642.2889, 27.76172
642.7711, 21.98633
643.2532, 20.48242
643.7353, 34.12109
644.2174, 47.21094
644.6995, 51.16211
645.1816, 47.18555
645.6638, 45.05469
646.1459, 43.21094
646.6280, 46.75391
647.1101, 60.27539
647.5922, 84.66211
648.0743, 97.60938
648.5565, 95.30078
649.0386, 90.39258
649.5207, 91.62695
650.0028, 98.41797
650.4849, 108.5488
650.9670, 122.1094
651.4492, 134.9961
651.9313, 142.2363
652.4134, 145.5273
652.8955, 147.9199
653.3776, 150.6484
653.8597, 152.3496
654.3419, 152.1992
654.8240, 150.7656
655.3061, 148.7129
655.7882, 142.8164
656.2703, 140.8223
656.7524, 147.4102
657.2346, 159.5801
657.7167, 167.6445
658.1988, 168.9023
658.6809, 172.9238
659.1630, 184.4883
659.6451, 201.5977
660.1273, 210.2500
660.6094, 209.9473
661.0915, 212.2188
661.5736, 228.7051
662.0557, 251.9238
662.5378, 266.1562
663.0200, 270.4941
663.5021, 274.4902
663.9842, 286.1758
664.4663, 299.8477
664.9484, 309.5664
665.4305, 312.9395
665.9127, 317.0078
666.3948, 321.8027
666.8769, 329.3711
667.3590, 342.3457
667.8411, 366.2266
668.3232, 384.0840
668.8054, 393.7441
669.2875, 397.7617
669.7696, 398.5566
670.2517, 395.9570
670.7338, 396.4707
671.2159, 401.6230
671.6981, 410.9531
672.1802, 427.3906
672.6623, 448.0254
673.1444, 463.4785
673.6265, 464.1191
674.1086, 461.2969
674.5908, 463.0898
675.0729, 469.0898
675.5550, 475.3672
676.0371, 480.9824
676.5192, 486.7168
677.0013, 492.9121
677.4835, 499.6309
677.9656, 508.6016
678.4477, 520.9160
678.9298, 533.9727
679.4119, 544.8457
679.8940, 553.2266
680.3762, 565.6426
680.8583, 584.1562
681.3404, 601.1699
681.8225, 607.0430
682.3046, 604.4141
682.7867, 599.3477
683.2689, 592.1641
683.7510, 585.6113
684.2331, 582.8242
684.7152, 582.0098
685.1973, 580.4570
685.6794, 579.7773
686.1616, 574.9512
686.6437, 563.3125
687.1258, 548.4688
687.6079, 535.9473
688.0900, 526.0605
688.5721, 514.8984
689.0543, 502.1074
689.5364, 488.2988
690.0185, 471.0410
690.5006, 449.8789
690.9827, 431.2520
691.4648, 421.4316
691.9470, 415.0137
692.4291, 403.5684
692.9112, 387.9023
693.3933, 371.5938
693.8754, 351.4043
694.3575, 334.1934
694.8397, 326.2188
695.3218, 329.0840
695.8039, 331.2480
696.2860, 331.9902
696.7681, 331.4336
697.2502, 329.5996
697.7324, 326.2344
698.2145, 322.5332
698.6966, 318.1504
699.1787, 314.7598
699.6608, 314.4316
700.1429, 316.5703
700.6251, 318.5742
701.1072, 319.8906
701.5893, 321.3027
702.0714, 322.7871
702.5535, 324.8184
703.0356, 328.3652
703.5178, 334.4355
703.9999, 339.9980
704.4820, 343.8301
704.9641, 346.2363
705.4462, 347.8652
705.9283, 348.1406
706.4105, 349.0098
706.8926, 352.1973
707.3747, 355.4082
707.8568, 351.6855
708.3389, 340.4355
708.8210, 332.4844
709.3032, 334.4883
709.7853, 339.4355
710.2674, 330.3477
710.7495, 310.5684
711.2316, 293.9355
711.7137, 292.1367
712.1959, 292.8750
712.6780, 285.6699
713.1601, 271.7402
713.6422, 261.9785
714.1243, 264.1523
714.6064, 266.4883
715.0886, 265.2090
715.5707, 260.3555
716.0528, 248.6621
716.5349, 226.3457
717.0170, 206.9160
717.4991, 202.9648
717.9813, 211.5410
718.4634, 206.4160
718.9455, 186.4141
719.4276, 166.9434
719.9097, 164.0449
720.3918, 168.4961
720.8740, 166.9531
721.3561, 156.1797
721.8382, 147.5312
722.3203, 149.9180
722.8024, 154.5469
723.2845, 153.2910
723.7667, 137.5703
724.2488, 129.9004
724.7309, 134.2148
725.2130, 142.1895
725.6951, 143.4082
726.1772, 137.1934
726.6594, 134.0391
727.1415, 135.6934
727.6236, 140.3066
728.1057, 148.3770
728.5878, 157.5117
729.0699, 161.3145
729.5521, 155.7988
730.0342, 147.5898
730.5163, 136.5957
730.9984, 126.9434
731.4805, 125.9160
731.9626, 143.4160
732.4448, 160.3184
732.9269, 172.7754
733.4090, 182.4707
733.8911, 193.4355
734.3732, 205.7559
734.8553, 218.2578
735.3375, 230.2168
735.8196, 242.3594
736.3017, 255.6543
736.7838, 270.7070
737.2659, 290.0234
737.7480, 318.6953
738.2302, 348.6914
738.7123, 374.5078
739.1944, 396.3594
739.6765, 413.9863
740.1586, 420.9590
740.6407, 429.5332
741.1229, 445.7402
741.6050, 468.7539
742.0871, 488.5469
742.5692, 505.5000
743.0513, 519.0977
743.5334, 527.4922
744.0156, 532.1875
744.4977, 544.9629
744.9798, 566.0859
745.4619, 584.8359
745.9440, 590.0684
746.4261, 588.5508
746.9083, 589.0195
747.3904, 592.4160
747.8725, 595.1562
748.3546, 595.1738
748.8367, 593.6816
749.3188, 590.9531
749.8010, 585.8691
750.2831, 583.4805
750.7652, 588.3594
751.2473, 588.3945
751.7294, 569.9688
752.2115, 533.5156
752.6937, 508.1738
753.1758, 496.3613
753.6579, 491.1621
754.1400, 491.5234
754.6221, 492.0332
755.1042, 480.9922
755.5864, 452.2344
756.0685, 429.5996
756.5506, 431.9277
757.0327, 444.0234
757.5148, 450.3574
757.9969, 440.9844
758.4791, 439.0410
758.9612, 447.1816
759.4433, 459.5996
759.9254, 466.7578
760.4075, 467.9297
760.8896, 481.0293
761.3718, 511.0977
761.8539, 545.6699
762.3360, 568.8906
762.8181, 584.1484
763.3002, 598.1406
763.7823, 611.2207
764.2645, 627.0586
764.7466, 648.9531
765.2287, 674.4707
765.7108, 700.8379
766.1929, 735.4238
766.6750, 759.1504
767.1572, 765.1191
767.6393, 763.6523
768.1214, 775.9824
768.6035, 803.4102
769.0856, 826.0254
769.5677, 837.5586
770.0499, 844.4570
770.5320, 856.7031
771.0141, 872.5352
771.4962, 886.7754
771.9783, 901.0781
772.4604, 907.9961
772.9426, 900.9629
773.4247, 884.0566
773.9068, 865.6113
774.3889, 848.0605
774.8710, 826.9688
775.3531, 802.9375
775.8353, 774.6270
776.3174, 734.9707
776.7995, 683.9082
777.2816, 636.3535
777.7637, 597.8945
778.2458, 566.4004
778.7280, 541.7051
779.2101, 521.4121
779.6922, 498.0293
780.1743, 465.4004
780.6564, 431.0449
781.1385, 396.2480
781.6207, 362.0957
782.1028, 333.8184
782.5849, 313.5977
783.0670, 294.9023
783.5491, 274.4082
784.0313, 254.2422
784.5134, 246.8711
784.9955, 252.4062
785.4776, 250.0840
785.9597, 224.8105
786.4418, 189.4805
786.9240, 162.5957
787.4061, 143.2500
787.8882, 128.4941
788.3703, 122.7656
788.8524, 115.9805
789.3345, 101.3203
789.8167, 80.20312
790.2988, 65.02344
790.7809, 60.48047
791.2630, 53.77930
791.7451, 39.16211
792.2272, 19.50391
792.7094, 6.857422
793.1915, 1.105469
793.6736, 3.654297
794.1557, 12.18359
794.6378, 20.70703
795.1199, 22.50781
795.6021, 19.38867
796.0842, 19.38281
796.5663, 29.18359
797.0484, 39.96094
797.5305, 49.94922
798.0126, 58.46484
798.4948, 58.68945
798.9769, 47.91211
799.4590, 35.18359
799.9411, 22.79688
800.4232, 11.63281
800.9053, 6.841797
801.3875, 7.980469
801.8696, 11.37109
802.3517, 18.43359
802.8338, 23.98047
803.3159, 22.61719
803.7980, 14.96484
804.2802, 5.013672
804.7623, 10.44141
805.2444, 22.74805
805.7265, 25.41602
806.2086, 20.38281
806.6907, 29.06445
807.1729, 55.63086
807.6550, 76.77539
808.1371, 80.01172
808.6192, 70.48047
809.1013, 58.79883
809.5834, 45.96875
810.0656, 37.63281
810.5477, 42.24609
811.0298, 48.47852
811.5119, 46.68359
811.9940, 38.46094
812.4761, 37.01367
812.9583, 51.71289
813.4404, 64.75977
813.9225, 70.98047
814.4046, 71.28906
814.8867, 70.65234
815.3688, 69.04492
815.8510, 66.72070
816.3331, 61.95117
816.8152, 57.26953
817.2973, 55.94531
817.7794, 57.99023
818.2615, 64.24414
818.7437, 76.58984
819.2258, 91.14453
819.7079, 110.2363
820.1900, 131.3203
820.6721, 138.8633
821.1542, 127.7754
821.6364, 114.0195
822.1185, 102.4922
822.6006, 92.32617
823.0827, 80.00977
823.5648, 65.92578
824.0469, 51.78516
824.5291, 35.51367
825.0112, 22.46289
825.4933, 20.54883
825.9754, 26.68359
826.4575, 30.55469
826.9396, 30.07227
827.4218, 25.55273
827.9039, 14.01562
828.3860, 0.8125000
828.8681, 4.994141
829.3502, 3.654297
829.8323, 9.419922
830.3145, 5.074219
830.7966, 3.064453
831.2787, 1.761719
831.7608, 6.185547
832.2429, 12.06836
832.7250, 6.908203
833.2072, 3.693359
833.6893, 13.29883
834.1714, 30.11133
834.6535, 38.60547
835.1356, 32.97070
835.6177, 28.51758
836.0999, 28.28906
836.5820, 30.61719
837.0641, 29.39258
837.5462, 25.59570
838.0283, 31.79297
838.5104, 57.36719
838.9926, 84.53906
839.4747, 91.11523
839.9568, 85.74805
840.4389, 83.71875
840.9210, 93.46680
841.4031, 102.7363
841.8853, 107.6074
842.3674, 110.7344
842.8495, 115.9941
843.3316, 123.7168
843.8137, 131.1914
844.2958, 138.4336
844.7780, 143.8340
845.2601, 145.0703
845.7422, 142.6074
846.2243, 137.4082
846.7064, 128.9395
847.1885, 119.8516
847.6707, 111.2109
848.1528, 103.1738
848.6349, 96.02148
849.1170, 89.97461
849.5991, 85.07812
850.0812, 81.37695
850.5634, 79.61133
851.0455, 82.41406
851.5276, 88.87695
852.0097, 90.40820
852.4918, 85.60352
852.9739, 79.02344
853.4561, 72.01562
853.9382, 66.90430
854.4203, 66.15039
854.9024, 70.91406
855.3845, 77.34766
855.8666, 89.44336
856.3488, 98.83398
856.8309, 97.69531
857.3130, 83.13086
857.7951, 79.65430
858.2772, 87.94336
858.7593, 99.70312
859.2415, 110.9473
859.7236, 119.1387
860.2057, 117.9160
860.6878, 106.8789
861.1699, 99.12695
861.6520, 108.3594
862.1342, 117.3086
862.6163, 113.8555
863.0984, 97.51562
863.5805, 83.57031
864.0626, 72.51172
864.5447, 64.06250
865.0269, 60.34180
865.5090, 59.30273
865.9911, 51.41016
866.4732, 38.05664
866.9553, 27.48828
867.4374, 25.88672
867.9196, 28.10156
868.4017, 31.21484
868.8838, 34.85352
869.3659, 38.52148
869.8480, 42.71289
870.3301, 44.55664
870.8123, 40.35352
871.2944, 34.03125
871.7765, 43.79297
872.2586, 67.43164
872.7407, 84.35156
873.2228, 81.54492
873.7050, 71.27930
874.1871, 65.17578
874.6692, 61.57617
875.1513, 56.88477
875.6334, 51.03906
876.1155, 43.02539
876.5977, 30.54688
877.0798, 19.03711
877.5619, 17.81055
878.0440, 27.31055
878.5261, 34.79297
879.0082, 37.21094
879.4904, 37.30273
879.9725, 39.21094
880.4546, 42.09180
880.9367, 43.69531
881.4188, 42.12305
881.9009, 38.74609
882.3831, 34.97656
882.8652, 30.84180
883.3473, 25.05273
883.8294, 15.27734
884.3115, 10.95312
884.7936, 13.16797
885.2758, 18.54688
885.7579, 25.08008
886.2400, 32.35938
886.7221, 39.57031
887.2042, 47.23633
887.6863, 55.55859
888.1685, 66.52734
888.6506, 76.34180
889.1327, 81.52734
889.6148, 80.95312
890.0969, 85.49414
890.5790, 96.56836
891.0612, 108.4375
891.5433, 116.7012
892.0254, 121.8828
892.5075, 126.8203
892.9896, 131.5645
893.4717, 137.4238
893.9539, 151.5645
894.4360, 161.3789
894.9181, 153.9492
895.4002, 132.7871
895.8823, 121.6797
896.3644, 127.1445
896.8466, 133.9316
897.3287, 139.6680
897.8108, 143.5605
898.2929, 141.2617
898.7750, 135.0000
899.2571, 133.4668
899.7393, 143.2656
900.2214, 153.0586
900.7035, 150.9824
901.1856, 142.6055
901.6677, 137.0820
902.1498, 137.7090
902.6320, 139.9980
903.1141, 144.8594
903.5962, 150.3730
904.0783, 153.6445
904.5604, 154.9453
905.0425, 151.2930
905.5247, 141.2676
906.0068, 132.6250
906.4889, 134.9434
906.9710, 141.7246
907.4531, 145.9590
907.9352, 146.4180
908.4174, 145.8496
908.8995, 145.6523
909.3816, 143.9531
909.8637, 139.2578
910.3458, 131.6074
910.8279, 123.8164
911.3101, 115.7812
911.7922, 108.8223
912.2743, 102.4531
912.7564, 98.38086
913.2385, 100.5137
913.7206, 107.6445
914.2028, 111.4238
914.6849, 107.1777
915.1670, 101.3945
915.6491, 94.95508
916.1312, 88.89258
916.6133, 89.34180
917.0955, 96.68555
917.5776, 96.60742
918.0597, 78.66406
918.5418, 59.07617
919.0239, 62.24609
919.5060, 78.00391
919.9882, 86.39453
920.4703, 71.51758
920.9524, 60.82031
921.4345, 59.51562
921.9166, 63.15430
922.3987, 67.12891
922.8809, 71.26367
923.3630, 73.81641
923.8451, 74.35547
924.3272, 73.71484
924.8093, 73.22852
925.2914, 71.91406
925.7736, 68.28711
926.2557, 62.00391
926.7378, 55.42383
927.2199, 49.43750
927.7020, 43.74414
928.1841, 38.76172
928.6663, 34.64844
929.1484, 27.32031
929.6305, 16.59961
930.1126, 8.060547
930.5947, 5.748047
931.0768, 7.248047
931.5590, 10.45898
932.0411, 14.92773
932.5232, 18.70117
933.0053, 26.26953
933.4874, 26.23438
933.9695, 12.46094
934.4517, 8.697266
934.9338, 22.14258
935.4159, 27.66797
935.8980, 28.75195
936.3801, 24.71094
936.8622, 20.43945
937.3444, 25.20117
937.8265, 32.40820
938.3086, 31.41602
938.7907, 11.20703
939.2728, 0.4687500
939.7549, 7.242188
940.2371, 18.96289
940.7192, 22.56641
941.2013, 18.01953
941.6834, 12.50000
942.1655, 6.560547
942.6476, 2.076172
943.1298, 19.15430
943.6119, 37.01562
944.0940, 45.54297
944.5761, 44.72461
945.0582, 48.63867
945.5403, 70.65820
946.0225, 85.54883
946.5046, 84.99023
946.9867, 71.41992
947.4688, 49.00977
947.9509, 19.27148
948.4330, 1.496094
948.9152, 10.25781
949.3973, 25.58984
949.8794, 28.06055
950.3615, 23.44336
950.8436, 22.07617
951.3257, 31.56250
951.8079, 37.03125
952.2900, 36.76953
952.7721, 33.66211
953.2542, 31.15820
953.7363, 29.06250
954.2184, 26.41211
954.7006, 23.32227
955.1827, 17.33398
955.6648, 2.296875
956.1469, 13.41016
956.6290, 21.96875
957.1111, 21.63672
957.5933, 20.60156
958.0754, 19.63477
958.5575, 16.59570
959.0396, 8.095703
959.5217, 2.353516
960.0038, 1.931641
960.4860, 17.30469
960.9681, 24.85742
961.4502, 7.035156
961.9323, 13.78516
962.4144, 24.14648
962.8965, 27.76953
963.3787, 32.82031
963.8608, 39.75195
964.3429, 48.10938
964.8250, 59.22852
965.3071, 68.33398
965.7892, 61.98242
966.2714, 49.28516
966.7535, 57.63086
967.2356, 95.29102
967.7177, 125.3281
968.1998, 120.8359
968.6819, 106.0996
969.1641, 97.41797
969.6462, 95.44141
970.1283, 95.12891
970.6104, 96.65234
971.0925, 98.92969
971.5746, 101.5586
972.0568, 104.4141
972.5389, 108.3750
973.0210, 112.5508
973.5031, 113.8496
973.9852, 107.3828
974.4673, 102.2109
974.9495, 101.4551
975.4316, 103.3809
975.9137, 105.9355
976.3958, 109.4531
976.8779, 108.8555
977.3600, 102.1211
977.8422, 97.24219
978.3243, 106.9434
978.8064, 121.8047
979.2885, 129.6914
979.7706, 127.6660
980.2527, 123.4023
980.7349, 115.2969
981.2170, 109.1270
981.6991, 108.3809
982.1812, 112.1719
982.6633, 113.8086
983.1454, 113.5508
983.6276, 116.5273
984.1097, 130.5117
984.5918, 144.0684
985.0739, 145.3848
985.5560, 139.2266
986.0381, 139.2598
986.5203, 152.4902
987.0024, 158.4844
987.4845, 152.5488
987.9666, 142.6895
988.4487, 142.8164
988.9308, 149.0488
989.4130, 148.3496
989.8951, 137.7402
990.3772, 127.9570
990.8593, 126.9766
991.3414, 128.0059
991.8235, 125.5273
992.3057, 118.4355
992.7878, 114.1211
993.2699, 114.0273
993.7520, 111.5234
994.2341, 100.4785
994.7162, 86.93945
995.1984, 80.02930
995.6805, 78.52734
996.1626, 80.17969
996.6447, 88.79883
997.1268, 96.36523
997.6089, 98.55859
998.0911, 98.86914
998.5732, 104.2012
999.0553, 115.0078
999.5374, 120.1406
1000.020, 117.2988
1000.502, 115.1992
1000.984, 124.7246
1001.466, 136.0762
1001.948, 138.3438
1002.430, 129.1875
1002.912, 124.3848
1003.394, 127.3848
1003.876, 129.9629
1004.359, 128.0117
1004.841, 123.8301
1005.323, 124.7012
1005.805, 129.5391
1006.287, 133.7598
1006.769, 135.3789
1007.251, 138.0645
1007.733, 143.9766
1008.216, 151.6934
1008.698, 159.4746
1009.180, 168.6699
1009.662, 172.1113
1010.144, 168.0059
1010.626, 164.4414
1011.108, 169.1035
1011.590, 179.3867
1012.072, 192.2090
1012.555, 207.1699
1013.037, 221.9570
1013.519, 238.2305
1014.001, 249.6387
1014.483, 253.5039
1014.965, 252.7617
1015.447, 256.0469
1015.929, 262.9883
1016.411, 268.9492
1016.894, 271.7246
1017.376, 275.9121
1017.858, 287.4434
1018.340, 300.0449
1018.822, 306.5879
1019.304, 303.2949
1019.786, 307.8926
1020.268, 322.4551
1020.751, 338.2051
1021.233, 348.3730
1021.715, 354.8555
1022.197, 360.7012
1022.679, 366.7422
1023.161, 376.7051
1023.643, 392.3438
1024.125, 412.3047
1024.607, 438.0078
1025.090, 466.5781
1025.572, 491.3828
1026.054, 511.9414
1026.536, 538.2109
1027.018, 574.1660
1027.500, 607.1855
1027.982, 621.7988
1028.464, 626.8750
1028.947, 631.3652
1029.429, 635.5723
1029.911, 646.9414
1030.393, 671.3848
1030.875, 693.1953
1031.357, 702.9766
1031.839, 705.0430
1032.321, 710.0449
1032.803, 719.2773
1033.286, 737.8301
1033.768, 782.0039
1034.250, 820.1836
1034.732, 831.3086
1035.214, 831.6660
1035.696, 844.8516
1036.178, 873.4707
1036.660, 900.3418
1037.143, 924.6504
1037.625, 944.7324
1038.107, 956.3633
1038.589, 965.0527
1039.071, 975.0488
1039.553, 987.2383
1040.035, 1008.514
1040.517, 1046.223
1041.000, 1084.107
1041.482, 1117.209
1041.964, 1147.674
1042.446, 1178.303
1042.928, 1209.746
1043.410, 1242.557
1043.892, 1276.291
1044.374, 1313.971
1044.856, 1363.648
1045.339, 1412.752
1045.821, 1448.814
1046.303, 1468.865
1046.785, 1497.746
1047.267, 1535.121
1047.749, 1581.227
1048.231, 1644.170
1048.713, 1710.398
1049.195, 1759.242
1049.677, 1796.266
1050.160, 1836.598
1050.642, 1884.441
1051.124, 1936.877
1051.606, 1997.322
1052.088, 2056.461
1052.570, 2100.904
1053.052, 2132.953
1053.534, 2158.102
1054.017, 2176.816
1054.499, 2192.764
1054.981, 2210.080
1055.463, 2223.727
1055.945, 2233.006
1056.427, 2236.822
1056.909, 2223.424
1057.391, 2191.941
1057.874, 2156.531
1058.356, 2123.023
1058.838, 2086.389
1059.320, 2039.268
1059.802, 1985.896
1060.284, 1930.377
1060.766, 1870.664
1061.248, 1817.875
1061.730, 1777.529
1062.213, 1734.020
1062.695, 1673.037
1063.177, 1599.885
1063.659, 1533.162
1064.141, 1471.385
1064.623, 1409.336
1065.105, 1342.062
1065.587, 1275.934
1066.070, 1213.760
1066.552, 1152.670
1067.034, 1086.979
1067.516, 1016.326
1067.998, 958.0742
1068.480, 914.9453
1068.962, 875.4688
1069.444, 831.4531
1069.927, 785.4297
1070.409, 740.7715
1070.891, 698.9824
1071.373, 651.4258
1071.855, 592.8438
1072.337, 540.0684
1072.819, 499.5488
1073.301, 467.5508
1073.783, 435.4727
1074.266, 405.2207
1074.748, 381.2754
1075.230, 366.8730
1075.712, 351.4277
1076.194, 331.0020
1076.676, 310.0156
1077.158, 290.5605
1077.640, 272.7695
1078.122, 257.3398
1078.604, 243.9258
1079.087, 229.1113
1079.569, 207.3164
1080.051, 187.3574
1080.533, 175.5020
1081.015, 168.5684
1081.497, 160.5508
1081.979, 150.9551
1082.461, 142.0801
1082.944, 133.8984
1083.426, 127.4902
1083.908, 127.4004
1084.390, 127.5176
1084.872, 119.6387
1085.354, 103.9883
1085.836, 88.27930
1086.318, 68.66602
1086.801, 59.55859
1087.283, 68.43359
1087.765, 83.39844
1088.247, 81.29883
1088.729, 67.67773
1089.211, 56.40625
1089.693, 50.19141
1090.175, 47.23828
1090.657, 51.54883
1091.140, 53.70898
1091.622, 47.17969
1092.104, 33.48828
1092.586, 26.28906
1093.068, 25.08594
1093.550, 23.25391
1094.032, 17.22656
1094.514, 10.38086
1094.997, 2.804688
1095.479, 2.970703
1095.961, 2.884766
1096.443, 6.582031
1096.925, 8.810547
1097.407, 2.656250
1097.889, 3.447266
1098.371, 2.888672
1098.854, 1.390625
1099.336, 7.169922
1099.818, 13.53711
1100.300, 17.53906
1100.782, 18.40820
1101.264, 16.53516
1101.746, 11.14648
1102.228, 4.615234
1102.710, 0.6679690
1103.193, 1.894531
1103.675, 7.552734
1104.157, 16.66797
1104.639, 20.96484
1105.121, 10.73438
1105.603, 1.648438
1106.085, 0.1914060
1106.567, 3.691406
1107.049, 4.804688
1107.531, 3.537109
1108.014, 0.4179690
1108.496, 4.300781
1108.978, 10.50391
1109.460, 15.20898
1109.942, 23.22656
1110.424, 43.47852
1110.906, 77.32227
1111.388, 77.87695
1111.871, 42.25000
1112.353, 15.00195
1112.835, 27.47656
1113.317, 47.99023
1113.799, 37.56055
1114.281, 12.86719
1114.763, 2.076172
1115.245, 20.55469
1115.728, 31.35742
1116.210, 33.50195
1116.692, 32.23047
1117.174, 29.78906
1117.656, 27.93555
1118.138, 30.00977
1118.620, 35.45117
1119.102, 41.83398
1119.584, 51.41602
1120.067, 55.88281
1120.549, 50.74805
1121.031, 44.07227
1121.513, 51.25195
1121.995, 65.79883
1122.477, 62.76562
1122.959, 40.10547
1123.441, 20.06055
1123.924, 18.60156
1124.406, 17.42773
1124.888, 7.042969
1125.370, 7.738281
1125.852, 13.05664
1126.334, 9.361328
1126.816, 3.257813
1127.298, 5.498047
1127.781, 9.255859
1128.263, 3.746094
1128.745, 18.92773
1129.227, 22.40039
1129.709, 14.68359
1130.191, 14.90820
1130.673, 23.64648
1131.155, 31.61914
1131.637, 36.21094
1132.120, 36.66797
1132.602, 30.36719
1133.084, 20.47070
1133.566, 11.53320
1134.048, 4.363281
1134.530, 1.835938
1135.012, 6.824219
1135.494, 11.09570
1135.976, 15.92578
1136.458, 19.73633
1136.941, 17.27539
1137.423, 11.98633
1137.905, 12.00195
1138.387, 25.37695
1138.869, 35.53320
1139.351, 40.40234
1139.833, 44.34180
1140.315, 52.29492
1140.798, 62.13477
1141.280, 69.58984
1141.762, 74.25781
1142.244, 74.95312
1142.726, 66.16406
1143.208, 59.92188
1143.690, 59.52148
1144.172, 62.08008
1144.655, 65.14844
1145.137, 67.67773
1145.619, 65.11328
1146.101, 56.94336
1146.583, 47.63867
1147.065, 36.81836
1147.547, 29.44336
1148.029, 28.58203
1148.511, 32.41602
1148.994, 36.94531
1149.476, 41.76953
1149.958, 40.25781
1150.440, 28.20508
1150.922, 23.49414
1151.404, 49.06641
1151.886, 78.07422
1152.368, 87.88672
1152.851, 80.67578
1153.333, 81.88281
1153.815, 91.29688
1154.297, 96.76758
1154.779, 91.26562
1155.261, 84.86719
1155.743, 88.12891
1156.225, 94.52344
1156.708, 96.57422
1157.190, 93.65234
1157.672, 88.11719
1158.154, 79.59766
1158.636, 73.07227
1159.118, 74.10352
1159.600, 76.10742
1160.082, 70.46875
1160.564, 61.48633
1161.047, 56.90625
1161.529, 62.31445
1162.011, 60.76367
1162.493, 50.67383
1162.975, 42.69727
1163.457, 48.82812
1163.939, 57.84375
1164.421, 51.16602
1164.903, 33.92188
1165.385, 22.45703
1165.868, 21.83398
1166.350, 23.90039
1166.832, 28.18164
1167.314, 33.17578
1167.796, 37.45312
1168.278, 40.96680
1168.760, 42.96484
1169.242, 43.93164
1169.725, 46.36914
1170.207, 53.84375
1170.689, 61.49609
1171.171, 69.23633
1171.653, 73.41797
1172.135, 66.87305
1172.617, 55.59180
1173.099, 51.92383
1173.582, 57.10938
1174.064, 62.96875
1174.546, 64.26562
1175.028, 69.40820
1175.510, 83.55664
1175.992, 98.68164
1176.474, 95.02344
1176.956, 78.18555
1177.438, 66.40625
1177.921, 63.34961
1178.403, 62.53711
1178.885, 62.77148
1179.367, 63.34766
1179.849, 63.25195
1180.331, 64.03516
1180.813, 74.82422
1181.295, 89.98438
1181.778, 91.65820
1182.260, 69.42188
1182.742, 53.38672
1183.224, 59.98828
1183.706, 73.53711
1184.188, 88.11133
1184.670, 102.3906
1185.152, 104.5586
1185.635, 96.74805
1186.117, 92.04688
1186.599, 95.56250
1187.081, 102.4785
1187.563, 121.1914
1188.045, 132.4473
1188.527, 115.4668
1189.009, 74.37891
1189.491, 66.49219
1189.974, 87.83203
1190.456, 107.5898
1190.938, 112.3457
1191.420, 109.5645
1191.902, 95.32031
1192.384, 80.65820
1192.866, 77.18750
1193.348, 85.11133
1193.830, 91.08594
1194.313, 94.86328
1194.795, 94.70898
1195.277, 84.08398
1195.759, 75.16992
1196.241, 77.40039
1196.723, 83.63477
1197.205, 85.67383
1197.687, 83.63281
1198.169, 76.00781
1198.652, 63.10938
1199.134, 51.18945
1199.616, 45.89648
1200.098, 41.76758
1200.580, 36.15039
1201.062, 29.60742
1201.544, 22.19141
1202.026, 13.85547
1202.509, 9.171875
1202.991, 8.476563
1203.473, 14.05859
1203.955, 34.86719
1204.437, 55.00391
1204.919, 62.25000
1205.401, 61.43945
1205.883, 64.18164
1206.365, 70.48828
1206.848, 68.85938
1207.330, 57.02734
1207.812, 47.49805
1208.294, 52.65430
1208.776, 60.83594
1209.258, 65.99023
1209.740, 67.42969
1210.222, 62.05664
1210.705, 50.00391
1211.187, 40.71094
1211.669, 36.17578
1212.151, 34.09766
1212.633, 36.28711
1213.115, 37.37695
1213.597, 30.34570
1214.079, 19.20117
1214.562, 19.94336
1215.044, 32.30273
1215.526, 40.98242
1216.008, 42.21680
1216.490, 40.79102
1216.972, 36.48828
1217.454, 34.18750
1217.936, 37.92969
1218.418, 46.34375
1218.901, 55.00195
1219.383, 63.61328
1219.865, 69.64062
1220.347, 72.31055
1220.829, 71.54492
1221.311, 65.06055
1221.793, 56.78516
1222.275, 47.33594
1222.757, 38.38281
1223.240, 47.61719
1223.722, 73.01758
1224.204, 83.33789
1224.686, 64.15430
1225.168, 40.75391
1225.650, 28.90625
1226.132, 21.32227
1226.614, 12.47266
1227.096, 2.626953
1227.579, 9.308594
1228.061, 22.23633
1228.543, 25.76562
1229.025, 12.21094
1229.507, 2.148438
1229.989, 9.054688
1230.471, 11.03125
1230.953, 8.832031
1231.436, 3.076172
1231.918, 2.179688
1232.400, 5.201172
1232.882, 6.171875
1233.364, 0.2187500
1233.846, 3.679688
1234.328, 5.376953
1234.810, 15.35352
1235.292, 16.87891
1235.775, 11.56836
1236.257, 15.04297
1236.739, 24.82422
1237.221, 26.68359
1237.703, 3.777344
1238.185, 10.52148
1238.667, 2.072266
1239.149, 22.59570
1239.632, 42.03320
1240.114, 58.21875
1240.596, 56.29297
1241.078, 40.31641
1241.560, 27.73047
1242.042, 25.69922
1242.524, 29.35156
1243.006, 40.43359
1243.489, 52.38867
1243.971, 60.92773
1244.453, 65.85156
1244.935, 63.40234
1245.417, 56.00781
1245.899, 52.39844
1246.381, 58.07617
1246.863, 66.12500
1247.345, 78.08984
1247.828, 87.04492
1248.310, 83.93359
1248.792, 74.18945
1249.274, 70.96289
1249.756, 74.04883
1250.238, 81.86328
1250.720, 105.7949
1251.202, 114.2930
1251.684, 100.2422
1252.167, 82.32422
1252.649, 75.49609
1253.131, 76.75586
1253.613, 81.31445
1254.095, 88.04297
1254.577, 94.47070
1255.059, 102.2891
1255.541, 102.7949
1256.023, 92.15430
1256.506, 85.18164
1256.988, 103.2285
1257.470, 127.4473
1257.952, 130.8066
1258.434, 117.9199
1258.916, 102.5391
1259.398, 83.00195
1259.880, 73.47266
1260.363, 76.08594
1260.845, 82.44141
1261.327, 91.50195
1261.809, 95.66211
1262.291, 81.22461
1262.773, 56.40625
1263.255, 43.95703
1263.737, 47.97070
1264.219, 46.53125
1264.702, 37.54688
1265.184, 25.06055
1265.666, 17.71289
1266.148, 17.08789
1266.630, 17.03125
1267.112, 17.59570
1267.594, 19.92188
1268.076, 23.51953
1268.559, 25.42969
1269.041, 24.59766
1269.523, 23.69727
1270.005, 24.98633
1270.487, 24.89258
1270.969, 22.75391
1271.451, 20.85547
1271.933, 26.50977
1272.416, 38.42773
1272.898, 39.27734
1273.380, 29.08398
1273.862, 23.33398
1274.344, 37.34766
1274.826, 49.31836
1275.308, 52.53516
1275.790, 49.56250
1276.272, 37.34570
1276.755, 22.02344
1277.237, 36.08008
1277.719, 74.97070
1278.201, 95.82031
1278.683, 57.92188
1279.165, 30.96680
1279.647, 30.47461
1280.129, 39.05078
1280.611, 36.11133
1281.094, 28.19141
1281.576, 31.84766
1282.058, 44.65234
1282.540, 50.19336
1283.022, 35.41992
1283.504, 30.89258
1283.986, 42.31641
1284.468, 55.05273
1284.950, 53.64648
1285.433, 45.47656
1285.915, 36.55469
1286.397, 29.28320
1286.879, 32.61719
1287.361, 52.38086
1287.843, 59.45312
1288.325, 50.05469
1288.807, 38.87695
1289.290, 37.96094
1289.772, 41.47070
1290.254, 47.70898
1290.736, 53.30664
1291.218, 49.65234
1291.700, 35.19922
1292.182, 33.64062
1292.664, 46.27344
1293.146, 57.29297
1293.629, 53.28906
1294.111, 46.88672
1294.593, 45.56055
1295.075, 45.47656
1295.557, 42.41016
1296.039, 36.43359
1296.521, 24.66016
1297.003, 8.000000
1297.486, 1.205078
1297.968, 17.67969
1298.450, 30.23633
1298.932, 27.95898
1299.414, 18.81836
1299.896, 8.933594
1300.378, 0.7871090
1300.860, 0.2128910
1301.343, 6.197266
1301.825, 0.0000000E+00
##END=



