##NAMES=Belovite-(Ce)
##RRUFFID=R070163
##IDEAL CHEMISTRY=NaCeSr_3_(PO_4_)_3_F
##LOCALITY=Mochalin Log, Kyshtym, Chelyabinsk Oblast', Urals Region, Russia
##OWNER=RRUFF
##SOURCE=Michael Scott
##DESCRIPTION=Brownish red vitreous massive, associated with bastnasite-(La), R070142; 785 Raman signal was overwhelmed by fluorescence and is not posted.
##STATUS=The identification of this mineral has been confirmed only by single crystal X-ray diffraction.
##URL=rruff.info/R070163
157.8955, 0.0000000E+00
158.3776, 7.260498
158.8597, 14.47729
159.3418, 10.34546
159.8239, 8.110352
160.3060, 12.00146
160.7882, 37.58789
161.2703, 37.87329
161.7524, 27.34644
162.2345, 14.98340
162.7166, 3.886719
163.1987, 7.984131
163.6808, 13.76611
164.1630, 4.829346
164.6451, 14.25586
165.1272, 28.60815
165.6093, 22.10156
166.0914, 11.13062
166.5735, 11.42529
167.0557, 40.98511
167.5378, 69.98926
168.0199, 69.85156
168.5020, 44.52393
168.9841, 28.65576
169.4662, 63.80640
169.9484, 118.4153
170.4305, 148.9819
170.9126, 110.3474
171.3947, 55.74634
171.8768, 41.23560
172.3589, 69.86279
172.8411, 101.5405
173.3232, 101.2544
173.8053, 79.46606
174.2874, 59.33374
174.7695, 53.88159
175.2516, 56.14526
175.7338, 56.96924
176.2159, 55.28540
176.6980, 53.20776
177.1801, 55.06128
177.6622, 59.28369
178.1443, 59.50952
178.6264, 45.50171
179.1086, 25.35083
179.5907, 17.43359
180.0728, 28.07861
180.5549, 45.09985
181.0370, 49.75073
181.5191, 43.29102
182.0013, 38.87744
182.4834, 48.43701
182.9655, 68.25635
183.4476, 86.80029
183.9297, 101.2615
184.4118, 112.9097
184.8940, 126.3074
185.3761, 141.8633
185.8582, 151.7686
186.3403, 142.9529
186.8224, 119.0378
187.3046, 103.5713
187.7867, 107.7302
188.2688, 125.1580
188.7509, 133.5562
189.2330, 131.8113
189.7151, 127.0217
190.1973, 127.1582
190.6794, 132.0847
191.1615, 137.9204
191.6436, 143.7910
192.1257, 149.5894
192.6078, 154.5769
193.0900, 159.0713
193.5721, 162.2808
194.0542, 162.3679
194.5363, 159.1431
195.0184, 155.9409
195.5005, 153.8232
195.9826, 152.8032
196.4648, 153.8655
196.9469, 156.6047
197.4290, 161.9575
197.9111, 174.6394
198.3932, 196.6211
198.8753, 214.6858
199.3575, 218.8284
199.8396, 207.7607
200.3217, 199.2295
200.8038, 193.9563
201.2859, 192.8909
201.7680, 201.5840
202.2502, 223.5425
202.7323, 244.1033
203.2144, 251.3035
203.6965, 242.7141
204.1786, 234.8301
204.6607, 228.9722
205.1429, 225.6599
205.6250, 228.6086
206.1071, 238.8806
206.5892, 252.8767
207.0713, 269.9932
207.5534, 293.4072
208.0356, 306.6428
208.5177, 303.5203
208.9998, 285.0537
209.4819, 270.8049
209.9640, 260.9294
210.4461, 255.0229
210.9282, 252.9128
211.4104, 254.9714
211.8925, 259.9077
212.3746, 269.5923
212.8567, 284.8525
213.3388, 290.1541
213.8209, 281.7268
214.3031, 267.6953
214.7852, 258.1450
215.2673, 251.9841
215.7494, 251.7319
216.2315, 262.3984
216.7136, 287.3159
217.1958, 306.2710
217.6779, 320.1409
218.1600, 327.7341
218.6421, 325.3728
219.1242, 308.2722
219.6063, 290.5657
220.0885, 276.7375
220.5706, 266.2722
221.0527, 261.7900
221.5348, 267.7546
222.0169, 278.8281
222.4990, 279.7222
222.9812, 264.2219
223.4633, 248.3857
223.9454, 239.6082
224.4275, 239.9092
224.9096, 243.0769
225.3917, 252.9563
225.8739, 265.1772
226.3560, 263.9436
226.8381, 240.9314
227.3202, 216.4590
227.8023, 199.7258
228.2844, 187.5051
228.7665, 191.8091
229.2487, 222.6128
229.7308, 271.9141
230.2129, 299.6135
230.6950, 296.2429
231.1771, 282.8181
231.6592, 271.2332
232.1414, 259.1965
232.6235, 254.0134
233.1056, 258.2400
233.5877, 270.8188
234.0698, 282.7610
234.5519, 297.0083
235.0341, 307.2434
235.5162, 307.4651
235.9983, 288.4858
236.4804, 277.1665
236.9625, 281.6313
237.4446, 300.8066
237.9268, 305.4773
238.4089, 284.4258
238.8910, 260.2209
239.3731, 253.5671
239.8552, 275.5837
240.3373, 294.7227
240.8195, 304.7644
241.3016, 305.4199
241.7837, 309.3252
242.2658, 320.1428
242.7479, 330.7312
243.2300, 333.0317
243.7122, 320.0613
244.1943, 311.6467
244.6764, 313.7383
245.1585, 327.5759
245.6406, 335.0525
246.1227, 332.0420
246.6048, 326.3154
247.0870, 327.2219
247.5691, 339.8542
248.0512, 349.7769
248.5333, 351.6758
249.0154, 343.4324
249.4975, 344.1951
249.9797, 358.9070
250.4618, 378.4070
250.9439, 391.6726
251.4260, 399.2036
251.9081, 399.0806
252.3902, 386.2075
252.8724, 355.0017
253.3545, 346.5537
253.8366, 373.1594
254.3187, 412.2461
254.8008, 429.4387
255.2829, 411.2603
255.7651, 397.3313
256.2472, 401.4326
256.7293, 428.5918
257.2114, 448.1106
257.6935, 458.4536
258.1756, 462.4319
258.6577, 462.9639
259.1399, 456.2349
259.6220, 454.2649
260.1041, 463.5896
260.5862, 488.9336
261.0683, 502.0046
261.5504, 497.8523
262.0326, 485.7139
262.5147, 481.2500
262.9968, 487.5608
263.4789, 494.3369
263.9610, 496.9602
264.4431, 493.5435
264.9253, 495.8435
265.4074, 506.5864
265.8895, 520.5486
266.3716, 527.1899
266.8537, 522.7754
267.3358, 520.9910
267.8180, 528.7695
268.3001, 548.6033
268.7822, 563.5454
269.2643, 571.9844
269.7464, 576.9705
270.2285, 585.0684
270.7107, 598.0898
271.1928, 608.2166
271.6749, 611.1228
272.1570, 605.4634
272.6391, 602.2004
273.1212, 603.1443
273.6034, 605.7805
274.0855, 603.1702
274.5676, 591.9922
275.0497, 582.6323
275.5318, 581.6172
276.0139, 590.4578
276.4961, 596.9719
276.9782, 600.3032
277.4603, 602.2236
277.9424, 606.7380
278.4245, 615.2397
278.9066, 622.8760
279.3888, 624.8484
279.8709, 620.1489
280.3530, 621.7427
280.8351, 632.2537
281.3172, 646.0630
281.7993, 652.1357
282.2815, 649.9668
282.7636, 647.6606
283.2457, 648.3022
283.7278, 651.6152
284.2099, 660.2349
284.6920, 678.0215
285.1741, 695.0073
285.6563, 689.1052
286.1384, 659.0229
286.6205, 630.8083
287.1026, 619.2197
287.5847, 622.9495
288.0668, 629.7356
288.5490, 639.8054
289.0311, 647.6272
289.5132, 642.8706
289.9953, 626.5703
290.4774, 610.8540
290.9595, 603.0693
291.4417, 601.2888
291.9238, 599.3828
292.4059, 598.4478
292.8880, 594.0508
293.3701, 571.7649
293.8522, 535.8723
294.3344, 511.0283
294.8165, 519.4229
295.2986, 547.4805
295.7807, 559.5747
296.2628, 552.2378
296.7449, 537.4812
297.2271, 531.3945
297.7092, 530.9067
298.1913, 524.2778
298.6734, 497.9209
299.1555, 463.4917
299.6376, 443.2908
300.1198, 439.4570
300.6019, 441.1880
301.0840, 439.7869
301.5661, 435.4316
302.0482, 428.6440
302.5303, 419.9988
303.0125, 408.8899
303.4946, 391.5125
303.9767, 366.8557
304.4588, 346.1992
304.9409, 342.9150
305.4230, 350.9763
305.9052, 358.3652
306.3873, 366.1812
306.8694, 367.1331
307.3515, 348.6123
307.8336, 309.0068
308.3157, 273.3516
308.7979, 264.0586
309.2800, 270.0103
309.7621, 274.2070
310.2442, 272.6167
310.7263, 264.7815
311.2084, 245.6306
311.6906, 214.7888
312.1727, 190.4612
312.6548, 187.4021
313.1369, 195.3862
313.6190, 202.0298
314.1011, 205.3779
314.5833, 204.1936
315.0654, 195.9634
315.5475, 180.7505
316.0296, 166.2847
316.5117, 156.4082
316.9938, 148.6282
317.4760, 140.5081
317.9580, 127.8027
318.4402, 118.1633
318.9223, 116.6099
319.4044, 122.5107
319.8865, 125.3201
320.3686, 121.5444
320.8507, 113.6990
321.3329, 103.6653
321.8150, 83.34497
322.2971, 69.95386
322.7792, 71.62231
323.2613, 86.38452
323.7434, 95.34790
324.2256, 93.47388
324.7077, 86.33496
325.1898, 77.27295
325.6719, 58.44922
326.1540, 47.20337
326.6361, 50.76123
327.1183, 65.79761
327.6004, 71.55591
328.0825, 63.83276
328.5646, 49.95898
329.0467, 33.36157
329.5288, 9.963379
330.0110, 10.73486
330.4931, 32.21753
330.9752, 51.31006
331.4573, 55.58691
331.9394, 34.69531
332.4215, 12.08838
332.9037, 1.568359
333.3858, 1.986816
333.8679, 3.194824
334.3500, 7.368652
334.8321, 11.44897
335.3142, 6.764160
335.7964, 12.23706
336.2785, 28.46484
336.7606, 33.61304
337.2427, 24.42529
337.7248, 19.06885
338.2069, 18.28271
338.6891, 20.42773
339.1712, 23.56860
339.6533, 28.20996
340.1354, 31.15527
340.6175, 29.14893
341.0996, 22.24243
341.5818, 24.19751
342.0639, 38.09155
342.5460, 52.81812
343.0281, 50.09644
343.5102, 29.75757
343.9923, 15.53247
344.4745, 20.93848
344.9566, 40.27563
345.4387, 46.71045
345.9208, 39.24463
346.4029, 25.63721
346.8850, 11.57837
347.3672, 2.443604
347.8493, 13.45996
348.3314, 21.03882
348.8135, 24.77612
349.2956, 19.71484
349.7777, 6.196533
350.2599, 2.243896
350.7419, 11.79761
351.2241, 39.09668
351.7062, 58.96875
352.1883, 62.54834
352.6704, 60.00439
353.1525, 61.21704
353.6346, 66.24609
354.1168, 75.29321
354.5989, 91.81836
355.0810, 111.3201
355.5631, 127.8652
356.0452, 138.9041
356.5273, 148.8850
357.0095, 161.3418
357.4916, 175.5110
357.9737, 188.9207
358.4558, 199.2622
358.9379, 209.1375
359.4200, 220.0981
359.9022, 231.7629
360.3843, 246.2651
360.8664, 265.6201
361.3485, 288.4434
361.8306, 311.9082
362.3127, 337.7698
362.7949, 362.0737
363.2770, 382.8101
363.7591, 399.2058
364.2412, 414.3962
364.7233, 425.8220
365.2054, 437.4297
365.6876, 454.0276
366.1697, 473.6714
366.6518, 501.1248
367.1339, 543.2764
367.6160, 604.7156
368.0981, 648.1082
368.5803, 661.0566
369.0624, 662.7102
369.5445, 668.5930
370.0266, 676.6111
370.5087, 691.9470
370.9908, 717.4392
371.4730, 752.0862
371.9551, 786.8672
372.4372, 827.7285
372.9193, 861.1431
373.4014, 873.6743
373.8835, 853.2036
374.3657, 849.1355
374.8478, 870.6650
375.3299, 910.0420
375.8120, 943.2056
376.2941, 970.7380
376.7762, 990.8704
377.2584, 1000.204
377.7405, 998.0334
378.2226, 997.3142
378.7047, 998.2759
379.1868, 1001.657
379.6689, 1009.631
380.1511, 1022.181
380.6332, 1035.267
381.1153, 1050.101
381.5974, 1064.578
382.0795, 1066.209
382.5616, 1053.043
383.0438, 1037.854
383.5259, 1036.409
384.0080, 1045.562
384.4901, 1053.446
384.9722, 1054.287
385.4543, 1051.701
385.9364, 1049.455
386.4185, 1047.690
386.9007, 1049.913
387.3828, 1065.712
387.8649, 1085.389
388.3470, 1093.375
388.8291, 1077.347
389.3112, 1057.989
389.7934, 1054.320
390.2755, 1063.265
390.7576, 1071.275
391.2397, 1070.371
391.7218, 1065.537
392.2039, 1060.410
392.6861, 1054.738
393.1682, 1050.771
393.6503, 1048.926
394.1324, 1048.563
394.6145, 1049.135
395.0966, 1052.813
395.5788, 1056.511
396.0609, 1058.842
396.5430, 1059.477
397.0251, 1058.744
397.5072, 1060.372
397.9893, 1059.435
398.4715, 1049.665
398.9536, 1013.500
399.4357, 988.4019
399.9178, 986.6616
400.3999, 1010.505
400.8820, 1016.492
401.3642, 994.3164
401.8463, 966.1648
402.3284, 949.8501
402.8105, 951.9749
403.2926, 946.6865
403.7747, 926.9929
404.2569, 898.9819
404.7390, 889.5852
405.2211, 904.6194
405.7032, 921.1870
406.1853, 925.4033
406.6674, 916.7749
407.1496, 902.6377
407.6317, 880.8333
408.1138, 857.7068
408.5959, 845.1719
409.0780, 842.9592
409.5602, 845.4387
410.0423, 856.8335
410.5244, 870.3196
411.0065, 858.6033
411.4886, 818.2261
411.9707, 778.8313
412.4529, 772.7144
412.9350, 789.5300
413.4171, 806.5068
413.8992, 821.9685
414.3813, 829.9180
414.8634, 816.0767
415.3456, 782.4858
415.8277, 752.6213
416.3098, 746.6584
416.7919, 750.1052
417.2740, 747.7197
417.7561, 735.7422
418.2382, 718.1553
418.7203, 690.5144
419.2025, 656.5952
419.6846, 629.7671
420.1667, 618.9844
420.6488, 614.1233
421.1309, 610.5601
421.6130, 608.6760
422.0952, 604.7527
422.5773, 594.8464
423.0594, 582.6025
423.5415, 572.9004
424.0236, 575.2092
424.5057, 570.8264
424.9879, 552.4814
425.4700, 519.6038
425.9521, 495.6213
426.4342, 482.7527
426.9163, 477.0181
427.3984, 477.3230
427.8806, 490.1272
428.3627, 491.3281
428.8448, 474.2583
429.3269, 445.2524
429.8090, 426.1477
430.2911, 418.9124
430.7733, 413.9500
431.2554, 405.9861
431.7375, 395.1370
432.2196, 384.7981
432.7017, 375.0210
433.1838, 366.2361
433.6660, 361.0740
434.1481, 358.6611
434.6302, 352.3940
435.1123, 333.4241
435.5944, 310.6733
436.0765, 308.2063
436.5587, 325.9043
437.0408, 338.3977
437.5229, 316.4202
438.0050, 276.4771
438.4871, 245.1292
438.9692, 230.3813
439.4514, 225.8027
439.9335, 234.6279
440.4156, 251.3167
440.8977, 257.5903
441.3798, 231.6433
441.8619, 200.5332
442.3441, 183.6531
442.8262, 188.2192
443.3083, 193.0562
443.7904, 189.2131
444.2725, 182.1519
444.7546, 179.3389
445.2368, 191.5007
445.7189, 198.8835
446.2010, 195.6042
446.6831, 180.8909
447.1652, 163.8765
447.6473, 138.9160
448.1295, 116.2263
448.6116, 103.8909
449.0937, 107.7119
449.5758, 109.3691
450.0579, 106.3926
450.5400, 100.5889
451.0221, 97.92212
451.5042, 99.67749
451.9864, 100.6201
452.4685, 98.06201
452.9506, 91.96216
453.4327, 83.46313
453.9148, 70.99658
454.3969, 61.33643
454.8791, 69.10962
455.3612, 91.05762
455.8433, 102.6096
456.3254, 88.72241
456.8075, 62.97168
457.2896, 52.57324
457.7718, 56.39209
458.2539, 63.07910
458.7360, 67.53345
459.2181, 68.47778
459.7002, 63.31006
460.1823, 49.14526
460.6645, 33.95459
461.1466, 22.63623
461.6287, 14.61768
462.1108, 8.703125
462.5929, 2.523438
463.0750, 0.3234860
463.5572, 3.708252
464.0393, 15.97314
464.5214, 25.93774
465.0035, 32.49219
465.4856, 34.70215
465.9677, 31.61133
466.4499, 9.661133
466.9320, 1.550781
467.4141, 9.235107
467.8962, 35.53882
468.3783, 43.22192
468.8604, 18.76587
469.3426, 5.432861
469.8247, 12.46777
470.3068, 5.300781
470.7889, 11.01343
471.2710, 0.8063960
471.7531, 15.87109
472.2353, 25.22632
472.7174, 26.86157
473.1995, 26.10107
473.6816, 23.27856
474.1637, 19.72363
474.6458, 22.44971
475.1280, 31.73657
475.6101, 37.25781
476.0922, 24.57129
476.5743, 1.755371
477.0564, 10.81445
477.5385, 7.281250
478.0207, 2.090088
478.5028, 11.38501
478.9849, 18.73682
479.4670, 19.48096
479.9491, 5.089844
480.4312, 12.39062
480.9134, 24.56494
481.3955, 30.78101
481.8776, 34.18481
482.3597, 35.62012
482.8418, 35.04150
483.3239, 32.39600
483.8060, 20.38135
484.2881, 14.47925
484.7703, 22.28296
485.2524, 39.56274
485.7345, 49.26025
486.2166, 44.95068
486.6987, 40.33105
487.1808, 40.68652
487.6630, 47.26685
488.1451, 54.50293
488.6272, 64.29346
489.1093, 72.19800
489.5914, 71.22388
490.0735, 59.93042
490.5557, 49.68091
491.0378, 41.42261
491.5199, 37.17505
492.0020, 46.95142
492.4841, 71.08496
492.9662, 94.81860
493.4484, 108.3833
493.9305, 113.5869
494.4126, 112.6851
494.8947, 104.2332
495.3768, 97.31006
495.8589, 102.0056
496.3411, 114.8950
496.8232, 128.8506
497.3053, 142.3635
497.7874, 154.6396
498.2695, 167.2109
498.7516, 179.2908
499.2338, 183.8804
499.7159, 163.3682
500.1980, 143.5076
500.6801, 143.7764
501.1622, 183.6047
501.6443, 215.8152
502.1265, 231.3638
502.6086, 235.9395
503.0907, 239.7360
503.5728, 240.5554
504.0549, 243.6519
504.5370, 250.1545
505.0192, 260.0640
505.5013, 273.9305
505.9834, 293.7185
506.4655, 313.2998
506.9476, 327.2649
507.4297, 335.4252
507.9119, 343.4481
508.3940, 352.2772
508.8761, 360.8634
509.3582, 364.7344
509.8403, 365.1512
510.3224, 371.7523
510.8046, 394.5992
511.2867, 424.7163
511.7688, 447.6130
512.2509, 462.7988
512.7330, 475.7407
513.2151, 490.4894
513.6973, 505.2698
514.1794, 517.7393
514.6615, 525.5833
515.1436, 533.7107
515.6257, 545.9856
516.1078, 560.3933
516.5900, 571.8446
517.0721, 572.7000
517.5542, 576.3658
518.0363, 589.4927
518.5184, 614.9341
519.0005, 635.0359
519.4827, 648.7723
519.9648, 657.9116
520.4469, 662.3228
520.9290, 657.8228
521.4111, 660.9982
521.8932, 675.6355
522.3754, 697.2532
522.8575, 716.3440
523.3396, 733.3325
523.8217, 745.0374
524.3038, 745.5720
524.7859, 737.6396
525.2681, 738.0677
525.7502, 747.3003
526.2323, 757.1654
526.7144, 762.6841
527.1965, 762.4453
527.6786, 753.8623
528.1608, 732.6417
528.6429, 712.6287
529.1250, 711.8256
529.6071, 721.1948
530.0892, 721.2659
530.5714, 698.6611
531.0535, 669.9810
531.5356, 642.3374
532.0176, 614.9604
532.4998, 589.1255
532.9819, 564.0190
533.4640, 541.4990
533.9461, 523.5679
534.4282, 512.8364
534.9103, 504.1453
535.3925, 498.1228
535.8746, 491.7585
536.3567, 478.0946
536.8388, 454.7642
537.3209, 432.8019
537.8030, 419.9852
538.2852, 414.1979
538.7673, 391.1755
539.2494, 347.9318
539.7315, 307.5605
540.2136, 296.1069
540.6957, 305.2053
541.1779, 305.8683
541.6600, 289.6948
542.1421, 272.2390
542.6242, 277.7485
543.1063, 296.1691
543.5884, 303.3411
544.0706, 274.3055
544.5527, 240.9375
545.0348, 226.9604
545.5169, 231.9402
545.9990, 232.4534
546.4811, 209.2438
546.9633, 186.1584
547.4454, 179.8164
547.9275, 211.5349
548.4096, 228.4229
548.8917, 221.4919
549.3738, 202.5824
549.8560, 189.0887
550.3381, 181.6605
550.8202, 178.1337
551.3023, 178.7546
551.7844, 182.9332
552.2665, 189.0205
552.7487, 198.1306
553.2308, 202.0765
553.7129, 190.0300
554.1950, 166.7637
554.6771, 154.3790
555.1592, 156.0625
555.6414, 161.6320
556.1235, 160.5004
556.6056, 155.0420
557.0877, 149.9905
557.5698, 147.9374
558.0519, 146.0764
558.5341, 141.0876
559.0162, 134.1733
559.4983, 130.3442
559.9804, 136.9252
560.4625, 142.5360
560.9446, 140.2140
561.4268, 126.2125
561.9089, 116.0306
562.3910, 110.9133
562.8731, 109.7025
563.3552, 112.1115
563.8373, 120.7849
564.3195, 126.6783
564.8016, 128.4866
565.2837, 127.0265
565.7658, 123.8933
566.2479, 118.8920
566.7300, 113.9176
567.2122, 109.6863
567.6943, 106.2222
568.1764, 104.7870
568.6585, 105.3949
569.1406, 103.7450
569.6227, 93.88525
570.1049, 79.99976
570.5870, 67.78979
571.0691, 56.86816
571.5512, 52.45178
572.0333, 64.88306
572.5154, 85.03455
572.9976, 97.64575
573.4797, 92.63660
573.9618, 84.74890
574.4439, 77.74292
574.9260, 71.80273
575.4081, 67.07422
575.8903, 64.45056
576.3724, 61.89075
576.8545, 59.21960
577.3366, 57.95654
577.8187, 48.87415
578.3008, 28.02063
578.7830, 6.654663
579.2651, 1.919434
579.7472, 13.25415
580.2293, 17.30383
580.7114, 5.610962
581.1935, 12.13525
581.6757, 18.84778
582.1578, 15.98059
582.6399, 10.36743
583.1220, 3.027466
583.6041, 3.391968
584.0862, 5.058838
584.5684, 1.804443
585.0505, 0.5191650
585.5326, 1.280396
586.0147, 5.084106
586.4968, 9.713379
586.9789, 21.04907
587.4611, 23.52368
587.9432, 5.910645
588.4253, 18.60339
588.9074, 29.25635
589.3895, 17.97876
589.8716, 8.686768
590.3538, 6.892212
590.8359, 11.48682
591.3180, 17.87634
591.8001, 26.71765
592.2822, 33.16748
592.7643, 34.83862
593.2465, 31.66748
593.7286, 21.38513
594.2107, 2.879761
594.6928, 14.82971
595.1749, 23.74451
595.6570, 26.30151
596.1392, 25.81702
596.6213, 19.24524
597.1034, 16.07788
597.5854, 27.53003
598.0676, 46.32446
598.5497, 56.00244
599.0318, 41.98730
599.5139, 27.95288
599.9960, 23.52917
600.4781, 29.04065
600.9603, 27.84961
601.4424, 12.90491
601.9245, 0.6994630
602.4066, 2.840576
602.8887, 22.17944
603.3708, 38.59595
603.8530, 52.09570
604.3351, 61.08630
604.8172, 61.78064
605.2993, 55.23450
605.7814, 47.57898
606.2635, 39.18896
606.7457, 32.43665
607.2278, 30.24536
607.7099, 32.38452
608.1920, 38.23743
608.6741, 51.26184
609.1563, 64.98804
609.6384, 75.31812
610.1205, 81.98621
610.6026, 86.57947
611.0847, 90.80664
611.5668, 92.22009
612.0490, 88.20081
612.5311, 69.98022
613.0132, 65.29858
613.4953, 83.10596
613.9774, 106.3934
614.4595, 109.2454
614.9417, 87.70447
615.4238, 71.08691
615.9059, 67.28943
616.3880, 70.93103
616.8701, 70.46606
617.3522, 66.06531
617.8344, 59.77979
618.3165, 47.65381
618.7986, 36.73230
619.2807, 40.13733
619.7628, 57.57874
620.2449, 71.74988
620.7271, 68.09338
621.2092, 59.31934
621.6913, 56.44177
622.1734, 65.86951
622.6555, 71.27954
623.1376, 63.55017
623.6198, 52.86292
624.1019, 52.31458
624.5840, 69.88416
625.0661, 81.98926
625.5482, 84.28906
626.0303, 79.16882
626.5125, 72.25708
626.9946, 63.08789
627.4767, 56.77612
627.9588, 57.77417
628.4409, 63.30273
628.9230, 64.76147
629.4052, 62.26855
629.8873, 59.12036
630.3694, 56.39990
630.8515, 55.10938
631.3336, 57.18958
631.8157, 64.20044
632.2979, 69.56763
632.7800, 68.57910
633.2621, 64.91602
633.7442, 62.93689
634.2263, 66.72913
634.7084, 67.84680
635.1906, 63.32703
635.6727, 56.09668
636.1548, 54.20544
636.6369, 60.44727
637.1190, 63.80164
637.6011, 59.04407
638.0833, 48.29309
638.5654, 41.60840
639.0475, 38.55627
639.5296, 38.69690
640.0117, 46.44495
640.4938, 56.43530
640.9760, 56.47864
641.4581, 44.07361
641.9402, 33.80115
642.4223, 38.33337
642.9044, 49.53076
643.3865, 59.09412
643.8687, 69.68445
644.3508, 71.39990
644.8329, 51.76807
645.3150, 23.57263
645.7971, 12.24329
646.2792, 29.04114
646.7614, 40.92712
647.2435, 40.69666
647.7256, 31.02625
648.2077, 24.87744
648.6898, 21.92383
649.1719, 22.42871
649.6541, 31.02832
650.1362, 42.91284
650.6183, 39.76257
651.1004, 21.52600
651.5825, 6.900513
652.0646, 14.35547
652.5468, 31.40771
653.0289, 44.35901
653.5110, 49.56592
653.9931, 53.68323
654.4752, 64.76672
654.9573, 74.24231
655.4395, 71.39868
655.9216, 36.62244
656.4037, 13.90015
656.8858, 11.93457
657.3679, 22.82593
657.8500, 25.90320
658.3322, 18.97339
658.8143, 13.94788
659.2964, 16.10583
659.7785, 23.23877
660.2606, 27.81287
660.7427, 29.88672
661.2249, 30.98132
661.7070, 32.40283
662.1891, 33.35461
662.6712, 31.38123
663.1533, 25.84900
663.6354, 23.84692
664.1175, 35.59167
664.5996, 49.08667
665.0817, 53.66150
665.5638, 40.02527
666.0460, 29.66394
666.5281, 23.04028
667.0102, 20.70764
667.4923, 25.04272
667.9744, 40.01343
668.4565, 47.95129
668.9387, 43.48816
669.4208, 32.29858
669.9029, 28.28198
670.3850, 30.77429
670.8671, 32.33960
671.3492, 26.09265
671.8314, 18.44287
672.3135, 19.57397
672.7956, 28.31726
673.2777, 37.21289
673.7598, 43.16309
674.2419, 46.95520
674.7241, 48.70117
675.2062, 48.02026
675.6883, 47.33606
676.1704, 44.19446
676.6525, 43.39575
677.1346, 49.65002
677.6168, 68.23083
678.0989, 76.32361
678.5810, 69.67615
679.0631, 58.47888
679.5452, 58.70752
680.0273, 68.94763
680.5095, 74.47925
680.9916, 69.83167
681.4737, 61.81836
681.9558, 56.59033
682.4379, 54.97119
682.9200, 58.87097
683.4022, 79.06860
683.8843, 95.82324
684.3664, 95.62524
684.8485, 80.81396
685.3306, 70.30505
685.8127, 69.91638
686.2949, 72.19641
686.7770, 76.10425
687.2591, 82.17444
687.7412, 81.03772
688.2233, 70.23914
688.7054, 59.30005
689.1876, 56.70520
689.6697, 60.98401
690.1518, 63.33875
690.6339, 62.78223
691.1160, 62.17358
691.5981, 65.93567
692.0803, 71.03772
692.5624, 72.50110
693.0445, 66.70886
693.5266, 61.37952
694.0087, 60.69470
694.4908, 62.37756
694.9730, 62.66541
695.4551, 61.12024
695.9372, 57.83923
696.4193, 50.92065
696.9014, 42.77563
697.3835, 41.86072
697.8657, 49.36829
698.3478, 57.57886
698.8299, 64.20728
699.3120, 68.79724
699.7941, 67.37708
700.2762, 60.88000
700.7584, 58.16736
701.2405, 73.66174
701.7226, 91.03198
702.2047, 90.54321
702.6868, 69.73657
703.1689, 50.98755
703.6511, 40.69202
704.1332, 36.86548
704.6153, 39.34875
705.0974, 53.37158
705.5795, 60.69177
706.0616, 58.96704
706.5438, 53.56714
707.0259, 49.82812
707.5080, 47.77222
707.9901, 46.12927
708.4722, 44.18945
708.9543, 43.67688
709.4365, 48.75073
709.9186, 57.35864
710.4007, 63.67297
710.8828, 64.58606
711.3649, 63.77698
711.8470, 63.87915
712.3292, 64.19116
712.8113, 62.85071
713.2934, 54.98877
713.7755, 50.22717
714.2576, 52.30334
714.7397, 59.96362
715.2219, 65.75061
715.7040, 69.91919
716.1861, 71.55859
716.6682, 69.03162
717.1503, 63.19177
717.6324, 59.63806
718.1146, 58.66406
718.5967, 58.21375
719.0788, 54.57104
719.5609, 51.69165
720.0430, 55.87451
720.5251, 68.38501
721.0073, 79.56909
721.4894, 85.23071
721.9715, 87.33057
722.4536, 87.31519
722.9357, 84.51733
723.4178, 81.58386
723.9000, 77.90759
724.3821, 74.88831
724.8642, 74.92725
725.3463, 78.38025
725.8284, 79.15576
726.3105, 74.52954
726.7927, 70.05127
727.2748, 77.61902
727.7569, 93.02100
728.2390, 103.3046
728.7211, 98.77539
729.2032, 91.96777
729.6853, 92.58118
730.1674, 98.10327
730.6495, 101.9014
731.1317, 102.0662
731.6138, 101.9166
732.0959, 100.9706
732.5780, 98.67383
733.0601, 96.83972
733.5422, 96.50903
734.0244, 98.17810
734.5065, 101.7484
734.9886, 106.1702
735.4707, 109.8352
735.9528, 112.8501
736.4349, 115.9943
736.9171, 122.6484
737.3992, 128.8625
737.8813, 129.3253
738.3634, 123.3489
738.8455, 116.0316
739.3276, 105.3166
739.8098, 95.11633
740.2919, 89.18933
740.7740, 89.19568
741.2561, 90.78632
741.7382, 93.31885
742.2203, 98.02472
742.7025, 108.9865
743.1846, 125.5173
743.6667, 131.6899
744.1488, 124.3578
744.6309, 112.6622
745.1130, 105.1242
745.5952, 101.5335
746.0773, 102.1450
746.5594, 109.5670
747.0415, 114.4570
747.5236, 111.1528
748.0057, 103.7815
748.4879, 98.83002
748.9700, 100.5908
749.4521, 99.36029
749.9342, 92.38812
750.4163, 82.73987
750.8984, 77.96881
751.3806, 78.38000
751.8627, 80.01007
752.3448, 82.41302
752.8269, 84.28308
753.3090, 83.25183
753.7911, 79.53406
754.2733, 73.88336
754.7554, 61.51898
755.2375, 51.84613
755.7196, 52.21387
756.2017, 61.46973
756.6838, 70.10565
757.1660, 80.43628
757.6481, 84.93298
758.1302, 78.44507
758.6123, 61.82227
759.0944, 54.09253
759.5765, 56.57739
760.0587, 61.03577
760.5408, 61.69519
761.0229, 60.10437
761.5050, 61.97131
761.9871, 67.31506
762.4692, 69.35388
762.9514, 59.46899
763.4335, 46.70874
763.9156, 39.14197
764.3977, 39.05530
764.8798, 38.38892
765.3619, 33.34534
765.8441, 29.33301
766.3262, 30.53406
766.8083, 38.98877
767.2904, 44.05554
767.7725, 45.35388
768.2546, 44.08020
768.7368, 40.65771
769.2189, 35.64478
769.7010, 30.65784
770.1831, 25.82031
770.6652, 21.74792
771.1473, 18.44775
771.6295, 16.38770
772.1116, 16.20984
772.5937, 19.72998
773.0758, 22.73767
773.5579, 23.52991
774.0400, 24.13452
774.5222, 28.57739
775.0043, 39.80432
775.4864, 41.65527
775.9685, 29.01782
776.4506, 10.57458
776.9327, 8.9599997E-02
777.4149, 4.028809
777.8970, 5.173828
778.3791, 3.711548
778.8612, 1.580322
779.3433, 0.5976560
779.8254, 2.168457
780.3076, 1.852295
780.7897, 1.843140
781.2718, 6.163086
781.7539, 10.96387
782.2360, 15.88611
782.7181, 20.28040
783.2003, 24.60962
783.6824, 25.96997
784.1645, 22.16077
784.6466, 15.96753
785.1287, 14.94226
785.6108, 17.76855
786.0930, 18.26135
786.5751, 9.712158
787.0572, 0.4739990
787.5393, 4.791260
788.0214, 5.733154
788.5035, 1.396729
788.9857, 18.83911
789.4678, 32.86133
789.9499, 30.41113
790.4320, 14.38330
790.9141, 12.76648
791.3962, 28.28821
791.8784, 42.49194
792.3605, 43.51672
792.8426, 36.01367
793.3247, 29.67090
793.8068, 24.82739
794.2889, 23.46375
794.7711, 29.86816
795.2531, 37.93616
795.7352, 45.16284
796.2173, 51.50049
796.6995, 50.21545
797.1816, 33.21875
797.6637, 17.70300
798.1458, 12.17615
798.6279, 16.87451
799.1100, 18.82239
799.5922, 17.93518
800.0743, 15.13794
800.5564, 9.869385
801.0385, 3.597534
801.5206, 2.015991
802.0027, 6.746460
802.4849, 6.574707
802.9670, 10.15051
803.4491, 25.80286
803.9312, 27.36768
804.4133, 9.759155
804.8954, 10.36047
805.3776, 37.73340
805.8597, 60.16565
806.3418, 64.64124
806.8239, 51.52271
807.3060, 51.96960
807.7881, 67.96399
808.2703, 85.82056
808.7524, 89.05872
809.2345, 88.09497
809.7166, 99.75439
810.1987, 128.7063
810.6808, 154.7577
811.1630, 169.3398
811.6451, 177.4106
812.1272, 181.5016
812.6093, 175.5806
813.0914, 185.3466
813.5735, 217.1306
814.0557, 252.2290
814.5378, 267.7000
815.0199, 268.6375
815.5020, 284.3564
815.9841, 319.3961
816.4662, 355.0996
816.9484, 369.9451
817.4305, 379.3168
817.9126, 401.4199
818.3947, 445.1458
818.8768, 486.9738
819.3589, 518.1586
819.8411, 548.0066
820.3232, 584.6130
820.8053, 631.1172
821.2874, 667.7798
821.7695, 690.8005
822.2516, 714.6423
822.7338, 762.2362
823.2159, 822.9062
823.6980, 865.6666
824.1801, 880.7609
824.6622, 901.7147
825.1443, 951.9175
825.6265, 1018.662
826.1086, 1090.054
826.5907, 1177.159
827.0728, 1244.858
827.5549, 1282.485
828.0370, 1313.981
828.5192, 1365.329
829.0013, 1437.205
829.4834, 1509.085
829.9655, 1579.718
830.4476, 1651.347
830.9297, 1728.655
831.4119, 1808.660
831.8940, 1886.236
832.3761, 1958.507
832.8582, 2036.790
833.3403, 2128.838
833.8224, 2225.354
834.3046, 2315.802
834.7867, 2397.908
835.2688, 2480.312
835.7509, 2563.982
836.2330, 2649.179
836.7151, 2739.795
837.1973, 2831.967
837.6794, 2916.293
838.1615, 2989.537
838.6436, 3059.412
839.1257, 3127.603
839.6078, 3197.996
840.0900, 3276.133
840.5721, 3370.926
841.0542, 3455.411
841.5363, 3525.304
842.0184, 3587.310
842.5005, 3648.301
842.9827, 3708.371
843.4648, 3757.155
843.9469, 3792.195
844.4290, 3826.383
844.9111, 3879.777
845.3932, 3938.343
845.8754, 3978.718
846.3575, 3993.395
846.8396, 3999.420
847.3217, 4004.602
847.8038, 4005.792
848.2859, 3998.681
848.7681, 3974.392
849.2502, 3966.652
849.7323, 3984.643
850.2144, 3997.081
850.6965, 3961.697
851.1786, 3892.958
851.6608, 3847.684
852.1429, 3834.663
852.6250, 3823.705
853.1071, 3799.994
853.5892, 3762.954
854.0714, 3711.062
854.5535, 3640.438
855.0356, 3568.592
855.5177, 3501.158
855.9998, 3426.768
856.4819, 3330.198
856.9641, 3210.261
857.4462, 3111.531
857.9283, 3035.772
858.4104, 2967.662
858.8925, 2890.918
859.3746, 2813.527
859.8568, 2749.370
860.3389, 2701.085
860.8210, 2645.112
861.3030, 2560.829
861.7852, 2475.932
862.2673, 2409.268
862.7494, 2365.369
863.2315, 2301.829
863.7136, 2216.315
864.1957, 2125.121
864.6779, 2035.340
865.1600, 1950.750
865.6421, 1887.302
866.1242, 1844.054
866.6063, 1800.979
867.0884, 1748.748
867.5706, 1690.158
868.0527, 1624.940
868.5348, 1552.460
869.0169, 1486.115
869.4990, 1424.047
869.9811, 1373.410
870.4633, 1345.416
870.9454, 1332.761
871.4275, 1286.087
871.9096, 1208.321
872.3917, 1133.144
872.8738, 1083.860
873.3560, 1047.047
873.8381, 1015.659
874.3202, 987.7100
874.8023, 953.0161
875.2844, 897.7532
875.7665, 847.4495
876.2487, 807.5063
876.7308, 778.3171
877.2129, 767.4326
877.6950, 775.5732
878.1771, 776.2534
878.6592, 756.0601
879.1414, 721.7761
879.6235, 674.1726
880.1056, 619.3000
880.5877, 575.4048
881.0698, 557.5261
881.5519, 543.4277
882.0341, 529.9626
882.5162, 514.2214
882.9983, 484.8813
883.4804, 437.0864
883.9625, 400.8528
884.4446, 386.5195
884.9268, 384.9314
885.4089, 384.0410
885.8910, 382.5850
886.3731, 377.2073
886.8552, 363.9033
887.3373, 349.8464
887.8195, 335.1416
888.3016, 322.8052
888.7837, 318.6467
889.2658, 329.3513
889.7479, 331.6992
890.2300, 322.2639
890.7122, 304.8513
891.1943, 279.1689
891.6764, 249.5647
892.1585, 233.1963
892.6406, 236.1165
893.1227, 245.0920
893.6049, 258.4326
894.0870, 268.5181
894.5691, 265.8604
895.0512, 233.7791
895.5333, 218.3015
896.0154, 227.8179
896.4976, 240.9766
896.9797, 233.1377
897.4618, 207.7358
897.9439, 192.6750
898.4260, 190.1711
898.9081, 196.8748
899.3903, 223.7827
899.8724, 249.8679
900.3545, 250.7788
900.8366, 216.6086
901.3187, 194.6494
901.8008, 194.9475
902.2830, 201.1104
902.7651, 205.7417
903.2472, 208.7134
903.7293, 207.1584
904.2114, 201.0190
904.6935, 191.9900
905.1757, 174.9851
905.6578, 159.8530
906.1399, 159.2783
906.6220, 172.2900
907.1041, 185.6147
907.5862, 201.0046
908.0684, 209.6497
908.5505, 207.3118
909.0326, 196.0642
909.5147, 185.6096
909.9968, 175.8870
910.4789, 165.7217
910.9611, 150.3650
911.4432, 138.5786
911.9253, 147.9968
912.4074, 170.4053
912.8895, 185.2297
913.3716, 171.4226
913.8538, 165.9929
914.3359, 186.4060
914.8180, 216.2495
915.3001, 222.4856
915.7822, 202.0820
916.2643, 188.5039
916.7465, 190.3306
917.2286, 197.1091
917.7107, 194.4438
918.1928, 187.4167
918.6749, 185.6501
919.1570, 196.8721
919.6392, 202.6958
920.1213, 190.8862
920.6034, 175.3567
921.0855, 169.1636
921.5676, 174.7622
922.0497, 175.5850
922.5319, 169.7959
923.0140, 165.5603
923.4961, 179.8577
923.9782, 197.6841
924.4603, 189.3511
924.9424, 150.7566
925.4246, 121.8989
925.9067, 124.9165
926.3888, 138.3901
926.8708, 150.7207
927.3530, 161.8823
927.8351, 177.2898
928.3172, 198.2183
928.7993, 215.9578
929.2814, 226.7815
929.7635, 230.0715
930.2457, 220.6477
930.7278, 202.0369
931.2099, 188.4407
931.6920, 184.7739
932.1741, 188.3354
932.6563, 202.5037
933.1384, 223.2725
933.6205, 238.0645
934.1026, 247.0054
934.5847, 251.4749
935.0668, 249.2705
935.5490, 246.5625
936.0311, 254.3799
936.5132, 268.9250
936.9953, 282.5352
937.4774, 296.5154
937.9595, 304.9409
938.4417, 295.9592
938.9238, 285.8850
939.4059, 292.9297
939.8880, 321.7456
940.3701, 349.2090
940.8522, 374.4832
941.3344, 394.3320
941.8165, 404.8538
942.2986, 408.0398
942.7807, 404.2427
943.2628, 392.6958
943.7449, 388.4341
944.2271, 402.7178
944.7092, 421.3152
945.1913, 436.4552
945.6734, 447.5455
946.1555, 456.3876
946.6376, 463.3612
947.1198, 469.3000
947.6019, 472.7155
948.0840, 476.8735
948.5661, 489.0249
949.0482, 506.1703
949.5303, 517.4546
950.0125, 514.4016
950.4946, 510.4221
950.9767, 511.0929
951.4588, 512.8625
951.9409, 504.8735
952.4230, 486.0841
952.9052, 477.0859
953.3873, 486.6665
953.8694, 500.5219
954.3515, 502.2025
954.8336, 495.4856
955.3157, 486.5072
955.7979, 477.5669
956.2800, 466.1125
956.7621, 446.3533
957.2442, 428.5830
957.7263, 425.1869
958.2084, 436.6483
958.6906, 434.7788
959.1727, 417.8613
959.6548, 397.6272
960.1369, 383.9574
960.6190, 372.4644
961.1011, 358.7451
961.5833, 342.2797
962.0654, 326.5326
962.5475, 311.9747
963.0296, 298.2242
963.5117, 284.6287
963.9938, 271.7751
964.4760, 265.7003
964.9581, 265.3016
965.4402, 259.9902
965.9223, 242.1819
966.4044, 220.1194
966.8865, 198.0529
967.3687, 177.7233
967.8508, 163.4032
968.3329, 160.0967
968.8150, 153.9679
969.2971, 142.7843
969.7792, 129.3917
970.2614, 116.1219
970.7435, 104.2560
971.2256, 99.17383
971.7077, 102.8439
972.1898, 105.3965
972.6719, 100.5613
973.1541, 90.47144
973.6362, 74.22095
974.1183, 48.51685
974.6004, 39.17822
975.0825, 52.92139
975.5646, 65.43347
976.0468, 59.13757
976.5289, 39.90820
977.0110, 24.62744
977.4931, 13.51587
977.9752, 7.014282
978.4573, 10.00439
978.9395, 12.69958
979.4216, 9.050171
979.9037, 2.223877
980.3858, 1.701904
980.8679, 10.30908
981.3500, 7.283203
981.8322, 15.25598
982.3143, 41.62219
982.7964, 50.48169
983.2785, 47.40857
983.7606, 41.11975
984.2427, 31.27319
984.7249, 25.35242
985.2070, 30.08069
985.6891, 35.51465
986.1712, 35.54736
986.6533, 30.46240
987.1354, 19.45972
987.6176, 1.901489
988.0997, 9.193237
988.5818, 7.038086
989.0639, 26.93738
989.5460, 18.50415
990.0281, 13.33191
990.5103, 30.25745
990.9924, 11.73279
991.4745, 7.024536
991.9566, 20.03931
992.4387, 27.15552
992.9208, 26.37878
993.4029, 18.85193
993.8850, 10.19714
994.3671, 0.9100340
994.8492, 5.608398
995.3314, 12.45422
995.8135, 35.99133
996.2956, 43.23352
996.7777, 21.29858
997.2598, 11.97754
997.7419, 19.05200
998.2241, 28.26428
998.7062, 26.29492
999.1883, 17.22144
999.6704, 9.706665
1000.153, 4.335327
1000.635, 2.507813
1001.117, 8.161133
1001.599, 14.62036
1002.081, 20.81372
1002.563, 25.12573
1003.045, 19.05200
1003.527, 0.8291020
1004.009, 11.77063
1004.492, 12.66443
1004.974, 7.046509
1005.456, 3.473145
1005.938, 14.16333
1006.420, 17.42102
1006.902, 6.502930
1007.384, 3.424683
1007.866, 9.213867
1008.349, 14.74927
1008.831, 26.16602
1009.313, 42.31750
1009.795, 42.79822
1010.277, 27.27698
1010.759, 12.20569
1011.241, 8.567749
1011.723, 10.79065
1012.205, 18.25269
1012.688, 29.24622
1013.170, 30.79431
1013.652, 17.61414
1014.134, 8.063599
1014.616, 7.444458
1015.098, 12.92480
1015.580, 21.48254
1016.062, 31.62708
1016.544, 39.27112
1017.027, 41.67859
1017.509, 44.80786
1017.991, 55.67358
1018.473, 64.79443
1018.955, 62.99377
1019.437, 47.79272
1019.919, 38.53772
1020.401, 35.48193
1020.884, 35.42920
1021.366, 36.91614
1021.848, 39.39880
1022.330, 42.53381
1022.812, 46.19165
1023.294, 49.82495
1023.776, 57.50989
1024.258, 58.16064
1024.740, 46.21790
1025.223, 29.71667
1025.705, 25.23157
1026.187, 31.06067
1026.669, 41.54187
1027.151, 58.45508
1027.633, 68.84888
1028.115, 58.12854
1028.597, 40.92468
1029.079, 30.37231
1029.562, 27.16724
1030.044, 29.32996
1030.526, 37.73254
1031.008, 46.92712
1031.490, 55.96594
1031.972, 61.82251
1032.454, 55.23169
1032.936, 40.33264
1033.419, 32.48511
1033.901, 43.46655
1034.383, 54.52759
1034.865, 61.62744
1035.347, 66.54138
1035.829, 74.02893
1036.311, 83.15442
1036.793, 83.10571
1037.276, 70.44763
1037.758, 59.02185
1038.240, 62.27588
1038.722, 70.27966
1039.204, 73.41223
1039.686, 69.56702
1040.168, 69.28333
1040.650, 74.53394
1041.132, 79.87280
1041.615, 84.15869
1042.097, 85.57959
1042.579, 75.64160
1043.061, 58.81433
1043.543, 48.63135
1044.025, 56.45923
1044.507, 64.56580
1044.989, 69.49634
1045.471, 72.93591
1045.954, 76.13953
1046.436, 78.65149
1046.918, 77.83008
1047.400, 74.74878
1047.882, 73.41431
1048.364, 77.87073
1048.846, 83.07153
1049.328, 83.59070
1049.811, 79.07971
1050.293, 78.16528
1050.775, 83.69971
1051.257, 86.48047
1051.739, 82.45203
1052.221, 75.48401
1052.703, 70.95203
1053.185, 67.82800
1053.667, 65.46008
1054.150, 65.42017
1054.632, 67.31213
1055.114, 69.69788
1055.596, 72.39050
1056.078, 77.27075
1056.560, 84.98877
1057.042, 84.67004
1057.524, 76.34973
1058.006, 68.52905
1058.489, 66.86621
1058.971, 67.15784
1059.453, 66.98938
1059.935, 66.44629
1060.417, 65.78650
1060.899, 64.47461
1061.381, 68.04333
1061.863, 78.39526
1062.346, 89.04004
1062.828, 88.70605
1063.310, 83.22705
1063.792, 85.27332
1064.274, 99.37756
1064.756, 108.4508
1065.238, 102.6606
1065.720, 94.60559
1066.203, 89.27002
1066.685, 86.29468
1067.167, 82.37683
1067.649, 77.81201
1068.131, 75.29944
1068.613, 78.67786
1069.095, 80.54041
1069.577, 72.90015
1070.059, 62.93823
1070.542, 61.28442
1071.024, 70.55579
1071.506, 75.90125
1071.988, 76.18665
1072.470, 76.31360
1072.952, 82.16821
1073.434, 89.70312
1073.916, 93.20898
1074.398, 92.62512
1074.881, 91.17834
1075.363, 90.80481
1075.845, 87.32690
1076.327, 77.15332
1076.809, 66.45166
1077.291, 71.04028
1077.773, 85.88696
1078.255, 92.21387
1078.738, 82.98181
1079.220, 76.68054
1079.702, 90.40466
1080.184, 104.7628
1080.666, 104.6184
1081.148, 89.97864
1081.630, 84.79382
1082.112, 89.11621
1082.594, 93.62000
1083.077, 94.84351
1083.559, 92.27576
1084.041, 82.86804
1084.523, 70.20435
1085.005, 61.10791
1085.487, 55.73743
1085.969, 54.59546
1086.451, 58.40601
1086.933, 63.89795
1087.416, 68.28955
1087.898, 71.69055
1088.380, 75.30078
1088.862, 79.02905
1089.344, 80.68176
1089.826, 80.26355
1090.308, 75.27625
1090.790, 62.12463
1091.272, 46.20032
1091.755, 42.02368
1092.237, 47.50977
1092.719, 48.70593
1093.201, 39.73254
1093.683, 36.54468
1094.165, 61.26660
1094.647, 87.48145
1095.129, 90.17773
1095.612, 68.51843
1096.094, 57.63123
1096.576, 58.39001
1097.058, 61.10010
1097.540, 61.98462
1098.022, 60.97595
1098.504, 57.33423
1098.986, 51.94934
1099.469, 46.22546
1099.951, 38.07336
1100.433, 34.15723
1100.915, 36.00879
1101.397, 38.00891
1101.879, 35.52917
1102.361, 29.65552
1102.843, 19.21179
1103.325, 5.887085
1103.807, 0.7839360
1104.290, 21.57019
1104.772, 34.11682
1105.254, 25.01477
1105.736, 7.116821
1106.218, 5.315186
1106.700, 17.01562
1107.182, 30.30005
1107.664, 43.75806
1108.147, 51.87915
1108.629, 47.69788
1109.111, 39.18054
1109.593, 30.07092
1110.075, 21.09631
1110.557, 21.98352
1111.039, 33.42969
1111.521, 38.98474
1112.004, 27.75659
1112.486, 15.67224
1112.968, 21.65149
1113.450, 36.19958
1113.932, 45.84363
1114.414, 48.09839
1114.896, 46.10449
1115.378, 38.20715
1115.860, 31.81519
1116.343, 35.98596
1116.825, 43.42810
1117.307, 37.73962
1117.789, 23.56726
1118.271, 16.87476
1118.753, 33.21057
1119.235, 42.47510
1119.717, 37.74158
1120.199, 29.13220
1120.682, 31.16858
1121.164, 40.36035
1121.646, 43.49194
1122.128, 39.23804
1122.610, 36.88635
1123.092, 49.67517
1123.574, 56.00745
1124.056, 43.45795
1124.539, 20.10126
1125.021, 7.283203
1125.503, 4.477173
1125.985, 7.758728
1126.467, 18.23077
1126.949, 26.03479
1127.431, 16.25610
1127.913, 5.934937
1128.396, 14.18616
1128.878, 41.23260
1129.360, 50.20758
1129.842, 39.73285
1130.324, 28.67017
1130.806, 25.54688
1131.288, 26.22333
1131.770, 27.53876
1132.252, 29.03314
1132.734, 29.97821
1133.217, 29.90924
1133.699, 30.38257
1134.181, 31.79553
1134.663, 32.05536
1135.145, 28.35187
1135.627, 23.30835
1136.109, 19.66693
1136.591, 18.21039
1137.074, 21.27466
1137.556, 37.72443
1138.038, 46.47040
1138.520, 43.35931
1139.002, 35.48096
1139.484, 30.82568
1139.966, 28.78546
1140.448, 28.66937
1140.931, 30.22168
1141.413, 30.38208
1141.895, 26.11255
1142.377, 22.38147
1142.859, 22.04022
1143.341, 22.29779
1143.823, 13.44659
1144.305, 1.336365
1144.787, 3.670593
1145.270, 12.69971
1145.752, 26.73584
1146.234, 20.37616
1146.716, 12.19916
1147.198, 14.76514
1147.680, 26.26660
1148.162, 35.75458
1148.644, 43.28522
1149.126, 42.83398
1149.609, 26.80225
1150.091, 12.48151
1150.573, 17.38995
1151.055, 29.08679
1151.537, 32.48993
1152.019, 25.22919
1152.501, 27.02191
1152.983, 38.70825
1153.466, 48.17657
1153.948, 46.59247
1154.430, 40.24414
1154.912, 33.49097
1155.394, 26.83502
1155.876, 20.81830
1156.358, 12.69244
1156.840, 13.93512
1157.322, 27.04358
1157.805, 40.47681
1158.287, 45.60559
1158.769, 44.43872
1159.251, 36.36554
1159.733, 23.54132
1160.215, 15.82312
1160.697, 15.48572
1161.179, 19.46954
1161.661, 30.10052
1162.144, 38.42474
1162.626, 24.29218
1163.108, 2.593079
1163.590, 4.695374
1164.072, 33.35303
1164.554, 49.46118
1165.036, 33.75653
1165.518, 19.71869
1166.000, 15.42798
1166.483, 18.07568
1166.965, 24.81464
1167.447, 33.70758
1167.929, 41.09265
1168.411, 46.91815
1168.893, 46.76923
1169.375, 34.16260
1169.857, 20.39948
1170.340, 8.030884
1170.822, 1.057678
1171.304, 2.173157
1171.786, 14.16943
1172.268, 22.43848
1172.750, 21.74158
1173.232, 19.78387
1173.714, 16.78650
1174.197, 16.62231
1174.679, 23.87848
1175.161, 36.78247
1175.643, 39.67291
1176.125, 33.88861
1176.607, 27.28583
1177.089, 24.69836
1177.571, 20.30304
1178.053, 7.781250
1178.536, 4.966492
1179.018, 10.29877
1179.500, 8.305237
1179.982, 1.549072
1180.464, 9.402039
1180.946, 17.27148
1181.428, 12.20111
1181.910, 8.012878
1182.392, 15.82306
1182.875, 28.08075
1183.357, 33.02771
1183.839, 28.86536
1184.321, 23.69769
1184.803, 18.16602
1185.285, 12.14136
1185.767, 1.261108
1186.249, 5.843384
1186.732, 0.6812740
1187.214, 15.13562
1187.696, 22.42676
1188.178, 22.04614
1188.660, 19.98535
1189.142, 17.15588
1189.624, 13.41187
1190.106, 5.362305
1190.589, 0.9893800
1191.071, 5.7370001E-03
1191.553, 7.627808
1192.035, 17.88660
1192.517, 31.52258
1192.999, 38.81470
1193.481, 36.22681
1193.963, 31.21619
1194.445, 29.25684
1194.927, 30.00439
1195.410, 35.54126
1195.892, 45.60486
1196.374, 44.96033
1196.856, 32.04578
1197.338, 20.86865
1197.820, 16.07898
1198.302, 16.03589
1198.784, 23.67517
1199.267, 32.44641
1199.749, 33.09705
1200.231, 22.72705
1200.713, 19.53467
1201.195, 24.91223
1201.677, 27.40454
1202.159, 18.52881
1202.641, 8.867920
1203.124, 13.77649
1203.606, 24.36658
1204.088, 27.43518
1204.570, 20.05994
1205.052, 10.40234
1205.534, 2.337280
1206.016, 12.35132
1206.498, 16.38892
1206.980, 15.66357
1207.463, 9.382080
1207.945, 0.1480710
1208.427, 8.465820
1208.909, 15.51025
1209.391, 19.31812
1209.873, 19.52246
1210.355, 18.12146
1210.837, 15.07520
1211.319, 12.92395
1211.802, 14.20239
1212.284, 17.57080
1212.766, 20.56335
1213.248, 22.06653
1213.730, 26.96240
1214.212, 36.59802
1214.694, 43.37170
1215.176, 37.00342
1215.659, 27.03931
1216.141, 24.45740
1216.623, 27.47095
1217.105, 27.72314
1217.587, 23.84509
1218.069, 19.63416
1218.551, 15.11072
1219.033, 12.78162
1219.516, 17.88525
1219.998, 24.51941
1220.480, 26.47668
1220.962, 23.80090
1221.444, 19.58057
1221.926, 12.76245
1222.408, 10.50098
1222.890, 14.76428
1223.372, 20.02307
1223.854, 19.83044
1224.337, 18.25208
1224.819, 20.21997
1225.301, 25.50818
1225.783, 27.73877
1226.265, 26.79712
1226.747, 21.99036
1227.229, 11.99146
1227.711, 3.064819
1228.193, 2.342651
1228.676, 5.940308
1229.158, 10.79724
1229.640, 16.66333
1230.122, 22.37415
1230.604, 27.92651
1231.086, 32.82043
1231.568, 37.28247
1232.050, 39.67932
1232.533, 37.91919
1233.015, 33.68213
1233.497, 27.47290
1233.979, 19.59778
1234.461, 15.66321
1234.943, 15.96533
1235.425, 15.34082
1235.907, 10.86157
1236.390, 8.236328
1236.872, 16.71448
1237.354, 27.21057
1237.836, 29.26074
1238.318, 23.04297
1238.800, 19.80029
1239.282, 19.44751
1239.764, 14.22046
1240.246, 3.404541
1240.729, 15.29968
1241.211, 1.200806
1241.693, 25.24927
1242.175, 36.72083
1242.657, 35.65552
1243.139, 33.84558
1243.621, 31.16516
1244.103, 25.35413
1244.585, 11.74304
1245.068, 2.941040
1245.550, 13.49609
1246.032, 27.87329
1246.514, 30.64502
1246.996, 22.48267
1247.478, 23.11707
1247.960, 31.24988
1248.442, 34.84546
1248.925, 25.07312
1249.407, 15.41296
1249.889, 11.27661
1250.371, 11.67114
1250.853, 17.60645
1251.335, 28.09009
1251.817, 30.78796
1252.299, 26.59290
1252.781, 20.33899
1253.264, 10.02808
1253.746, 4.342529
1254.228, 7.257935
1254.710, 15.02686
1255.192, 29.88159
1255.674, 48.29517
1256.156, 40.43079
1256.638, 13.40222
1257.120, 3.105103
1257.603, 15.27100
1258.085, 30.01038
1258.567, 34.68347
1259.049, 33.01904
1259.531, 23.16772
1260.013, 10.34961
1260.495, 14.84448
1260.977, 32.44214
1261.460, 45.62036
1261.942, 46.56726
1262.424, 41.43921
1262.906, 31.29871
1263.388, 22.09106
1263.870, 17.68823
1264.352, 15.55505
1264.834, 7.842651
1265.317, 2.083984
1265.799, 2.754028
1266.281, 20.09973
1266.763, 32.10132
1267.245, 30.38049
1267.727, 22.05713
1268.209, 7.390991
1268.691, 6.024658
1269.173, 5.352905
1269.656, 5.783569
1270.138, 15.78259
1270.620, 25.15906
1271.102, 26.99695
1271.584, 19.43726
1272.066, 13.78662
1272.548, 25.26514
1273.030, 38.06860
1273.512, 32.28284
1273.995, 16.67737
1274.477, 15.23950
1274.959, 32.27869
1275.441, 38.44983
1275.923, 31.46484
1276.405, 22.84656
1276.887, 22.83130
1277.369, 23.13623
1277.852, 14.75476
1278.334, 4.515869
1278.816, 5.975952
1279.298, 18.89258
1279.780, 24.05188
1280.262, 23.47314
1280.744, 21.22278
1281.226, 18.97058
1281.708, 18.08740
1282.191, 20.13574
1282.673, 23.97351
1283.155, 30.27759
1283.637, 37.72778
1284.119, 37.27222
1284.601, 29.26746
1285.083, 20.50598
1285.565, 7.369751
1286.047, 4.199341
1286.530, 19.64014
1287.012, 37.69507
1287.494, 35.56274
1287.976, 20.67334
1288.458, 13.88757
1288.940, 14.73877
1289.422, 16.86877
1289.904, 19.54395
1290.386, 22.16321
1290.869, 24.50867
1291.351, 27.26721
1291.833, 34.82898
1292.315, 40.95947
1292.797, 32.27490
1293.279, 12.03601
1293.761, 0.9000240
1294.243, 2.050537
1294.726, 3.890747
1295.208, 2.710938
1295.690, 0.9005130
1296.172, 1.921997
1296.654, 2.518066
1297.136, 3.591309
1297.618, 14.40466
1298.100, 24.65662
1298.583, 34.84045
1299.065, 36.67432
1299.547, 28.98865
1300.029, 20.11450
1300.511, 13.58716
1300.993, 10.49194
1301.475, 13.68408
1301.957, 19.44958
1302.439, 24.31860
1302.922, 28.14783
1303.404, 25.67444
1303.886, 17.40808
1304.368, 11.57080
1304.850, 10.37256
1305.332, 16.88062
1305.814, 38.12109
1306.296, 56.05969
1306.778, 44.15894
1307.261, 14.27173
1307.743, 2.039673
1308.225, 8.060791
1308.707, 15.97070
1309.189, 24.09717
1309.671, 27.24170
1310.153, 23.10938
1310.635, 19.68604
1311.118, 26.64917
1311.600, 37.75037
1312.082, 48.35107
1312.564, 55.79443
1313.046, 50.78931
1313.528, 29.27893
1314.010, 12.40137
1314.492, 0.8278810
1314.974, 0.8302000
1315.457, 21.98462
1315.939, 45.32471
1316.421, 47.66150
1316.903, 31.12305
1317.385, 16.18567
1317.867, 0.0000000E+00
##END=



