##NAMES=Bergslagite
##RRUFFID=R060243
##IDEAL CHEMISTRY=CaBeAs^5+^O_4_(OH)
##LOCALITY=Langban mine dump, Langban, Filipstad, Varmland, Sweden
##OWNER=RRUFF
##SOURCE=Michael Scott
##DESCRIPTION=Colorless crystalline crust with reddish-brown massive tilasite and black aegirine
##STATUS=The identification of this mineral is confirmed by single-crystal X-ray diffraction and chemical analysis.
##URL=rruff.info/R060243
##MEASURED CHEMISTRY=Ca_1.00_Be_1.00_As_1.00_O_4_(OH) ; Be not analyzed but estimated by stoichiometry
173.8054, 0.0000000E+00
174.2875, 5.988281
174.7696, 11.97949
175.2517, 38.15332
175.7339, 100.7744
176.2160, 160.3809
176.6981, 230.1914
177.1802, 328.0088
177.6623, 451.3672
178.1444, 589.3281
178.6266, 735.2129
179.1087, 891.1445
179.5908, 1069.496
180.0729, 1296.555
180.5550, 1513.944
181.0371, 1624.218
181.5193, 1631.663
182.0014, 1587.722
182.4835, 1492.340
182.9656, 1370.531
183.4477, 1303.076
183.9299, 1316.303
184.4120, 1392.873
184.8941, 1500.511
185.3762, 1640.347
185.8583, 1808.513
186.3404, 2021.807
186.8226, 2273.390
187.3047, 2517.980
187.7868, 2721.266
188.2689, 2903.435
188.7510, 3147.246
189.2331, 3460.131
189.7153, 3783.072
190.1974, 4048.304
190.6795, 4256.520
191.1616, 4435.711
191.6437, 4601.117
192.1258, 4748.271
192.6080, 4850.541
193.0901, 4917.252
193.5722, 4917.103
194.0543, 4788.338
194.5364, 4528.389
195.0185, 4234.191
195.5007, 3937.793
195.9828, 3638.522
196.4649, 3357.366
196.9470, 3091.209
197.4291, 2840.727
197.9112, 2609.333
198.3934, 2412.038
198.8755, 2261.657
199.3576, 2182.368
199.8397, 2155.923
200.3218, 2104.414
200.8039, 2013.252
201.2861, 1908.350
201.7682, 1833.763
202.2503, 1791.352
202.7324, 1746.607
203.2145, 1689.929
203.6966, 1630.512
204.1788, 1590.465
204.6609, 1574.049
205.1430, 1576.720
205.6251, 1582.590
206.1072, 1586.878
206.5893, 1607.773
207.0715, 1661.061
207.5536, 1751.904
208.0357, 1847.282
208.5178, 1946.480
208.9999, 2046.730
209.4820, 2140.306
209.9642, 2225.020
210.4463, 2307.589
210.9284, 2396.573
211.4105, 2497.490
211.8926, 2584.420
212.3748, 2666.894
212.8569, 2735.939
213.3390, 2722.202
213.8211, 2604.803
214.3032, 2440.055
214.7853, 2268.856
215.2675, 2088.491
215.7496, 1914.492
216.2317, 1753.186
216.7138, 1603.760
217.1959, 1437.821
217.6780, 1245.485
218.1602, 1047.979
218.6423, 866.2119
219.1244, 698.3467
219.6065, 547.4521
220.0886, 414.0010
220.5707, 297.4258
221.0529, 194.1172
221.5350, 102.3477
222.0171, 24.05469
222.4992, 37.59863
222.9813, 74.46191
223.4634, 111.6543
223.9456, 158.5527
224.4277, 218.3994
224.9098, 255.4941
225.3919, 265.3047
225.8740, 257.1494
226.3561, 239.9102
226.8383, 207.7998
227.3204, 178.4814
227.8025, 157.6797
228.2846, 147.1055
228.7667, 135.3057
229.2488, 124.9580
229.7310, 111.9023
230.2131, 91.17871
230.6952, 66.27051
231.1773, 27.52148
231.6594, 34.84863
232.1415, 129.9072
232.6237, 198.4629
233.1058, 220.5869
233.5879, 228.9668
234.0700, 274.0273
234.5521, 370.8398
235.0342, 478.3076
235.5164, 583.0693
235.9985, 682.0752
236.4806, 792.2773
236.9627, 921.9170
237.4448, 1055.965
237.9269, 1168.310
238.4091, 1239.943
238.8912, 1318.632
239.3733, 1420.706
239.8554, 1551.861
240.3375, 1689.237
240.8196, 1844.140
241.3018, 1998.965
241.7839, 2120.811
242.2660, 2180.389
242.7481, 2256.249
243.2302, 2378.802
243.7124, 2564.179
244.1945, 2744.020
244.6766, 2922.342
245.1587, 3092.851
245.6408, 3244.318
246.1229, 3360.665
246.6051, 3484.729
247.0872, 3629.425
247.5693, 3790.385
248.0514, 3988.984
248.5335, 4238.606
249.0156, 4518.205
249.4978, 4778.129
249.9799, 4993.712
250.4620, 5232.107
250.9441, 5520.555
251.4262, 5872.027
251.9083, 6239.250
252.3905, 6620.982
252.8726, 7017.617
253.3547, 7419.705
253.8368, 7832.161
254.3189, 8247.712
254.8010, 8668.433
255.2832, 9098.816
255.7653, 9524.916
256.2474, 9950.820
256.7295, 10368.18
257.2116, 10751.38
257.6937, 11104.98
258.1758, 11414.48
258.6580, 11682.38
259.1401, 11939.38
259.6222, 12060.44
260.1043, 12031.67
260.5865, 11873.64
261.0686, 11626.58
261.5507, 11281.84
262.0328, 10868.72
262.5149, 10384.50
262.9970, 9802.353
263.4792, 9236.674
263.9613, 8678.209
264.4434, 8137.238
264.9255, 7630.027
265.4076, 7157.521
265.8897, 6718.127
266.3719, 6304.464
266.8540, 5915.789
267.3361, 5574.083
267.8182, 5290.977
268.3003, 5048.549
268.7824, 4806.685
269.2646, 4560.799
269.7467, 4332.190
270.2288, 4129.146
270.7109, 3956.606
271.1930, 3784.264
271.6751, 3604.783
272.1573, 3431.561
272.6394, 3289.822
273.1215, 3183.176
273.6036, 3093.595
274.0857, 3019.760
274.5678, 2964.568
275.0500, 2891.861
275.5321, 2793.408
276.0142, 2688.282
276.4963, 2614.248
276.9784, 2577.152
277.4605, 2536.917
277.9427, 2473.741
278.4248, 2387.307
278.9069, 2301.957
279.3890, 2214.459
279.8711, 2131.742
280.3532, 2073.092
280.8354, 2042.568
281.3175, 2006.498
281.7996, 1951.160
282.2817, 1876.174
282.7638, 1787.270
283.2459, 1682.967
283.7281, 1575.648
284.2102, 1485.357
284.6923, 1413.184
285.1744, 1336.943
285.6565, 1239.367
286.1386, 1125.424
286.6208, 1035.633
287.1029, 972.3535
287.5850, 923.7793
288.0671, 874.9199
288.5492, 826.5273
289.0313, 786.6445
289.5135, 769.7852
289.9956, 764.0723
290.4777, 722.9043
290.9598, 641.5801
291.4419, 555.2500
291.9240, 504.4512
292.4062, 484.9688
292.8883, 473.1113
293.3704, 468.2402
293.8525, 462.9414
294.3346, 439.1855
294.8167, 396.6641
295.2989, 340.6230
295.7810, 262.5234
296.2631, 172.4355
296.7452, 102.2832
297.2273, 74.79297
297.7094, 69.67578
298.1916, 53.91602
298.6737, 27.54883
299.1558, 3.037109
299.6379, 39.54883
300.1200, 76.11328
300.6021, 99.63086
301.0843, 99.93359
301.5664, 89.09570
302.0485, 79.63867
302.5306, 71.60938
303.0127, 67.84766
303.4948, 71.51562
303.9770, 80.50195
304.4591, 92.59961
304.9412, 118.4277
305.4233, 135.4531
305.9054, 112.9004
306.3875, 57.10352
306.8697, 3.535156
307.3518, 17.84375
307.8339, 25.75391
308.3160, 40.78125
308.7981, 63.62305
309.2802, 101.7910
309.7624, 178.0508
310.2445, 279.7969
310.7266, 356.8789
311.2087, 363.1465
311.6908, 343.0176
312.1729, 336.9609
312.6551, 361.9688
313.1372, 388.1074
313.6193, 398.0605
314.1014, 396.1895
314.5835, 393.5586
315.0656, 378.9238
315.5478, 375.5098
316.0299, 404.6621
316.5120, 491.1543
316.9941, 562.8281
317.4762, 573.5996
317.9583, 551.0742
318.4405, 548.9590
318.9226, 584.4531
319.4047, 644.0977
319.8868, 724.3320
320.3690, 829.8965
320.8511, 940.5215
321.3332, 1047.363
321.8153, 1156.844
322.2974, 1280.754
322.7795, 1412.713
323.2617, 1567.010
323.7438, 1748.432
324.2259, 1958.342
324.7080, 2191.146
325.1901, 2478.889
325.6722, 2778.717
326.1544, 3040.051
326.6365, 3186.244
327.1186, 3371.998
327.6007, 3642.498
328.0828, 4013.506
328.5649, 4354.561
329.0471, 4651.355
329.5292, 4927.604
330.0113, 5205.781
330.4934, 5510.057
330.9755, 5782.793
331.4576, 6001.504
331.9398, 6166.613
332.4219, 6364.336
332.9040, 6598.412
333.3861, 6862.408
333.8682, 7157.684
334.3503, 7510.703
334.8325, 7836.863
335.3146, 8123.830
335.7967, 8378.707
336.2788, 8633.406
336.7609, 8900.910
337.2430, 9146.299
337.7252, 9339.072
338.2073, 9475.910
338.6894, 9599.850
339.1715, 9732.768
339.6536, 9842.178
340.1357, 9829.236
340.6179, 9677.277
341.1000, 9484.807
341.5821, 9300.639
342.0642, 9127.496
342.5463, 8934.236
343.0284, 8718.621
343.5106, 8486.977
343.9927, 8239.002
344.4748, 7976.350
344.9569, 7745.680
345.4390, 7592.955
345.9211, 7497.809
346.4033, 7369.695
346.8854, 7204.848
347.3675, 7022.777
347.8496, 6845.422
348.3317, 6672.602
348.8138, 6498.904
349.2960, 6313.967
349.7781, 6132.029
350.2602, 5973.918
350.7423, 5840.564
351.2244, 5723.053
351.7065, 5600.877
352.1887, 5488.961
352.6708, 5420.578
353.1529, 5415.084
353.6350, 5450.527
354.1171, 5502.705
354.5992, 5574.688
355.0814, 5680.350
355.5635, 5840.189
356.0456, 6035.973
356.5277, 6243.762
357.0098, 6441.041
357.4919, 6670.252
357.9741, 6973.164
358.4562, 7335.217
358.9383, 7716.016
359.4204, 8123.658
359.9025, 8518.697
360.3846, 8875.711
360.8668, 9190.398
361.3489, 9474.678
361.8310, 9743.736
362.3131, 9979.797
362.7952, 10151.45
363.2773, 10250.96
363.7595, 10285.08
364.2416, 10262.94
364.7237, 10192.61
365.2058, 10009.87
365.6879, 9646.914
366.1700, 9194.514
366.6522, 8751.336
367.1343, 8330.293
367.6164, 7905.115
368.0985, 7459.473
368.5806, 6993.738
369.0627, 6577.668
369.5449, 6238.143
370.0270, 5924.982
370.5091, 5590.453
370.9912, 5175.223
371.4733, 4841.420
371.9554, 4624.229
372.4376, 4506.666
372.9197, 4401.742
373.4018, 4296.596
373.8839, 4227.625
374.3660, 4226.922
374.8481, 4316.287
375.3303, 4377.277
375.8124, 4385.943
376.2945, 4378.557
376.7766, 4438.566
377.2587, 4573.625
377.7408, 4735.105
378.2230, 4906.215
378.7051, 5085.402
379.1872, 5269.119
379.6693, 5452.350
380.1514, 5650.857
380.6335, 5884.504
381.1157, 6153.602
381.5978, 6436.773
382.0799, 6728.805
382.5620, 7028.916
383.0442, 7340.592
383.5263, 7667.074
384.0084, 7982.389
384.4905, 8281.490
384.9726, 8555.949
385.4547, 8782.764
385.9369, 8958.186
386.4190, 9087.623
386.9011, 9173.930
387.3832, 9219.615
387.8653, 9232.682
388.3474, 9214.322
388.8296, 9168.127
389.3117, 9102.883
389.7938, 9032.139
390.2759, 8913.832
390.7580, 8710.398
391.2401, 8439.217
391.7223, 8135.785
392.2044, 7818.336
392.6865, 7472.014
393.1686, 7071.125
393.6507, 6607.506
394.1328, 6157.904
394.6150, 5752.426
395.0971, 5372.162
395.5792, 4996.320
396.0613, 4619.713
396.5434, 4249.578
397.0255, 3878.102
397.5077, 3510.043
397.9898, 3162.717
398.4719, 2812.098
398.9540, 2500.031
399.4361, 2254.971
399.9182, 2138.070
400.4004, 1995.697
400.8825, 1797.205
401.3646, 1567.328
401.8467, 1395.379
402.3288, 1302.012
402.8109, 1231.752
403.2931, 1165.828
403.7752, 1110.064
404.2573, 1029.600
404.7394, 912.5254
405.2215, 785.8477
405.7036, 694.2598
406.1858, 641.2461
406.6679, 599.9258
407.1500, 566.3184
407.6321, 537.8633
408.1142, 494.6523
408.5963, 434.3223
409.0785, 376.2832
409.5606, 348.9258
410.0427, 344.5625
410.5248, 318.6992
411.0069, 251.6973
411.4890, 169.3770
411.9712, 117.7500
412.4533, 92.89648
412.9354, 70.34961
413.4175, 27.30078
413.8996, 21.47852
414.3817, 50.71289
414.8639, 51.62500
415.3460, 51.24414
415.8281, 78.38281
416.3102, 120.4824
416.7923, 153.0176
417.2744, 148.8359
417.7566, 142.5977
418.2387, 161.6367
418.7208, 208.3379
419.2029, 248.2031
419.6850, 262.6934
420.1671, 265.4746
420.6493, 269.3301
421.1314, 297.3418
421.6135, 305.4707
422.0956, 268.3711
422.5777, 196.7461
423.0598, 146.6641
423.5420, 160.9707
424.0241, 170.1016
424.5062, 139.5273
424.9883, 30.14453
425.4704, 43.35547
425.9525, 53.07812
426.4347, 40.40039
426.9168, 80.38867
427.3989, 204.3555
427.8810, 321.0762
428.3631, 395.1992
428.8452, 424.8926
429.3274, 499.5879
429.8095, 631.3867
430.2916, 778.6270
430.7737, 900.2910
431.2558, 994.5391
431.7379, 1089.400
432.2201, 1192.256
432.7022, 1296.182
433.1843, 1378.184
433.6664, 1437.740
434.1485, 1502.760
434.6306, 1607.836
435.1128, 1732.318
435.5949, 1824.934
436.0770, 1883.516
436.5591, 1896.523
437.0412, 1836.641
437.5233, 1719.250
438.0055, 1581.500
438.4876, 1422.385
438.9697, 1261.301
439.4518, 1116.904
439.9339, 988.6367
440.4160, 872.0879
440.8982, 777.6719
441.3803, 687.8008
441.8624, 582.6836
442.3445, 426.3867
442.8266, 295.7734
443.3088, 224.6777
443.7909, 200.6758
444.2730, 189.0469
444.7551, 200.2207
445.2372, 206.3105
445.7194, 190.6426
446.2015, 133.7285
446.6836, 107.5391
447.1657, 113.0078
447.6478, 149.5000
448.1299, 219.3203
448.6121, 340.2754
449.0942, 462.0273
449.5763, 569.4297
450.0584, 667.1875
450.5405, 790.5645
451.0226, 945.8789
451.5048, 1114.773
451.9869, 1285.969
452.4690, 1459.469
452.9511, 1643.619
453.4332, 1834.924
453.9153, 2044.258
454.3975, 2285.889
454.8796, 2561.740
455.3617, 2861.598
455.8438, 3194.166
456.3259, 3546.330
456.8080, 3894.582
457.2902, 4232.557
457.7723, 4580.309
458.2544, 4941.818
458.7365, 5323.604
459.2186, 5732.373
459.7007, 6197.551
460.1829, 6660.020
460.6650, 7067.828
461.1471, 7432.961
461.6292, 7791.361
462.1113, 8216.246
462.5934, 8605.131
463.0756, 8895.537
463.5577, 9080.787
464.0398, 9175.848
464.5219, 9199.686
465.0040, 9130.900
465.4861, 8944.385
465.9683, 8600.287
466.4504, 8178.295
466.9325, 7663.836
467.4146, 7066.896
467.8967, 6474.932
468.3788, 5893.678
468.8610, 5310.686
469.3431, 4710.289
469.8252, 4066.041
470.3073, 3479.479
470.7894, 2946.689
471.2715, 2478.428
471.7537, 2108.006
472.2358, 1846.000
472.7179, 1612.365
473.2000, 1373.953
473.6821, 1138.174
474.1642, 942.4062
474.6464, 786.9238
475.1285, 678.9785
475.6106, 654.1172
476.0927, 681.0410
476.5748, 666.4961
477.0569, 577.1523
477.5391, 476.3438
478.0212, 432.4883
478.5033, 434.4219
478.9854, 449.0273
479.4675, 451.9219
479.9496, 470.3066
480.4318, 536.4629
480.9139, 653.3730
481.3960, 758.1113
481.8781, 799.3281
482.3602, 830.2441
482.8423, 902.9707
483.3245, 1081.789
483.8066, 1234.650
484.2887, 1300.281
484.7708, 1311.020
485.2529, 1399.156
485.7350, 1631.125
486.2172, 1869.295
486.6993, 2057.730
487.1814, 2171.045
487.6635, 2337.883
488.1456, 2585.637
488.6277, 2855.844
489.1099, 3069.957
489.5920, 3212.967
490.0741, 3392.979
490.5562, 3642.307
491.0383, 3941.863
491.5204, 4236.014
492.0026, 4528.148
492.4847, 4791.711
492.9668, 4982.506
493.4489, 5131.051
493.9310, 5341.213
494.4131, 5629.908
494.8953, 5915.270
495.3774, 6104.875
495.8595, 6228.516
496.3416, 6338.652
496.8237, 6477.732
497.3058, 6595.791
497.7880, 6667.666
498.2701, 6691.219
498.7522, 6659.742
499.2343, 6593.682
499.7164, 6455.252
500.1985, 6209.555
500.6807, 5818.580
501.1628, 5408.078
501.6449, 4997.586
502.1270, 4577.082
502.6091, 4129.750
503.0912, 3604.867
503.5734, 3114.043
504.0555, 2675.387
504.5376, 2291.826
505.0197, 1936.670
505.5019, 1606.855
505.9840, 1316.535
506.4661, 1080.182
506.9482, 898.8984
507.4303, 736.6660
507.9124, 590.6641
508.3946, 464.7637
508.8767, 374.7305
509.3588, 315.9727
509.8409, 256.0781
510.3230, 177.0820
510.8051, 92.87305
511.2873, 29.15625
511.7694, 15.23242
512.2515, 49.48242
512.7336, 86.45508
513.2157, 114.3555
513.6978, 116.8828
514.1799, 84.80078
514.6620, 47.97266
515.1442, 28.77930
515.6263, 13.53906
516.1084, 17.61719
516.5905, 90.69531
517.0726, 160.6055
517.5547, 205.0605
518.0369, 225.8574
518.5190, 269.1934
519.0011, 342.7871
519.4832, 433.1504
519.9653, 536.9980
520.4474, 664.6367
520.9296, 776.3086
521.4117, 867.9570
521.8938, 949.3984
522.3759, 1030.268
522.8580, 1108.297
523.3401, 1205.514
523.8223, 1333.184
524.3044, 1482.676
524.7865, 1633.273
525.2686, 1783.709
525.7507, 1936.229
526.2328, 2095.770
526.7150, 2256.941
527.1971, 2404.811
527.6792, 2532.789
528.1613, 2679.680
528.6434, 2908.307
529.1255, 3174.270
529.6077, 3412.051
530.0898, 3558.789
530.5719, 3706.514
531.0540, 3904.814
531.5361, 4145.818
532.0182, 4389.457
532.5004, 4606.648
532.9825, 4839.094
533.4646, 5102.998
533.9467, 5403.219
534.4288, 5731.373
534.9109, 6094.629
535.3931, 6484.025
535.8752, 6900.109
536.3574, 7364.391
536.8395, 7785.391
537.3216, 8137.902
537.8037, 8445.506
538.2858, 8797.850
538.7679, 9203.762
539.2501, 9586.133
539.7322, 9896.883
540.2143, 10149.01
540.6964, 10399.93
541.1785, 10654.72
541.6606, 10852.21
542.1428, 10940.98
542.6249, 10928.14
543.1070, 10822.26
543.5891, 10605.92
544.0712, 10328.27
544.5533, 10028.15
545.0355, 9692.613
545.5176, 9289.922
545.9997, 8741.525
546.4818, 8182.363
546.9639, 7676.932
547.4460, 7233.184
547.9282, 6793.336
548.4103, 6305.662
548.8924, 5852.445
549.3745, 5495.336
549.8566, 5288.361
550.3387, 5058.467
550.8209, 4771.400
551.3030, 4470.201
551.7851, 4253.586
552.2672, 4130.590
552.7493, 4023.975
553.2314, 3902.479
553.7136, 3775.889
554.1957, 3677.299
554.6778, 3606.471
555.1599, 3554.531
555.6420, 3514.283
556.1241, 3487.293
556.6063, 3480.129
557.0884, 3498.541
557.5705, 3526.199
558.0526, 3563.955
558.5347, 3599.645
559.0168, 3614.236
559.4990, 3593.551
559.9811, 3556.549
560.4632, 3514.006
560.9453, 3464.324
561.4274, 3394.506
561.9095, 3282.418
562.3917, 3167.816
562.8738, 3071.072
563.3559, 3008.656
563.8380, 2881.207
564.3201, 2661.645
564.8022, 2422.336
565.2844, 2237.352
565.7665, 2113.445
566.2486, 1973.100
566.7307, 1789.750
567.2128, 1602.422
567.6949, 1497.984
568.1771, 1464.301
568.6592, 1425.709
569.1413, 1331.127
569.6234, 1212.059
570.1055, 1109.988
570.5876, 1029.354
571.0698, 956.8359
571.5519, 885.3223
572.0340, 817.4570
572.5161, 754.1113
572.9982, 690.1445
573.4803, 642.8301
573.9625, 629.6328
574.4446, 632.4707
574.9267, 626.7559
575.4088, 606.5547
575.8909, 583.1973
576.3730, 555.2812
576.8552, 525.6113
577.3373, 507.4102
577.8194, 507.6797
578.3015, 503.8379
578.7836, 475.5605
579.2657, 424.7617
579.7479, 412.9414
580.2300, 445.3047
580.7121, 483.4941
581.1942, 474.9902
581.6763, 439.9180
582.1584, 440.5605
582.6406, 507.4590
583.1227, 577.3555
583.6048, 580.5664
584.0869, 540.2480
584.5690, 506.5039
585.0511, 494.1152
585.5333, 500.0000
586.0154, 537.7480
586.4975, 604.2520
586.9796, 639.7871
587.4617, 592.5059
587.9438, 545.4082
588.4260, 543.2812
588.9081, 612.2930
589.3902, 653.4277
589.8723, 660.5703
590.3544, 646.7031
590.8365, 620.3027
591.3187, 578.1211
591.8008, 557.9961
592.2829, 578.4590
592.7650, 610.5254
593.2471, 580.0176
593.7292, 496.5527
594.2114, 432.9648
594.6935, 454.7559
595.1756, 504.2520
595.6577, 498.8691
596.1398, 440.3867
596.6219, 391.0469
597.1041, 406.3340
597.5862, 436.1426
598.0683, 438.2188
598.5504, 394.2422
599.0325, 347.1172
599.5146, 298.0566
599.9968, 254.3047
600.4789, 225.4355
600.9610, 219.7480
601.4431, 216.6270
601.9252, 219.0918
602.4073, 220.6523
602.8895, 190.7402
603.3716, 119.9629
603.8537, 64.07227
604.3358, 61.05469
604.8179, 96.95508
605.3000, 108.0605
605.7822, 93.97070
606.2643, 60.44336
606.7464, 16.78906
607.2285, 101.8730
607.7106, 130.4297
608.1927, 72.53906
608.6749, 14.88867
609.1570, 19.65039
609.6391, 58.76562
610.1212, 92.02734
610.6033, 106.8359
611.0854, 116.0488
611.5676, 127.5410
612.0497, 137.0879
612.5318, 123.6523
613.0139, 63.35156
613.4960, 16.80664
613.9781, 10.23828
614.4603, 43.29688
614.9424, 79.64258
615.4245, 123.6133
615.9066, 152.6074
616.3887, 134.0332
616.8708, 80.06445
617.3530, 51.92969
617.8351, 60.86523
618.3172, 81.86133
618.7993, 99.08594
619.2814, 108.0996
619.7635, 100.6289
620.2457, 64.42773
620.7278, 20.65234
621.2099, 32.94922
621.6920, 86.95703
622.1741, 112.4922
622.6563, 75.31445
623.1384, 34.40234
623.6205, 11.72070
624.1026, 8.533203
624.5847, 3.486328
625.0668, 30.27539
625.5490, 56.22656
626.0311, 78.09570
626.5132, 98.22266
626.9953, 66.97852
627.4774, 30.94922
627.9595, 134.3340
628.4417, 158.6055
628.9238, 122.8457
629.4059, 92.79492
629.8880, 88.87500
630.3701, 93.82812
630.8522, 86.04492
631.3344, 73.58789
631.8165, 75.78320
632.2986, 130.5273
632.7807, 174.7246
633.2628, 159.8867
633.7449, 89.00781
634.2271, 65.43555
634.7092, 130.0332
635.1913, 213.1777
635.6734, 292.5195
636.1555, 376.8711
636.6376, 404.6035
637.1198, 356.9668
637.6019, 292.4629
638.0840, 271.9785
638.5661, 292.0586
639.0482, 313.2676
639.5303, 329.7207
640.0125, 342.1777
640.4946, 350.2012
640.9767, 354.7227
641.4588, 358.1836
641.9409, 367.5605
642.4230, 370.9258
642.9052, 351.8691
643.3873, 317.7812
643.8694, 298.1543
644.3515, 303.5723
644.8336, 323.6641
645.3157, 361.5781
645.7979, 420.2910
646.2800, 456.6289
646.7621, 462.4355
647.2442, 457.7305
647.7263, 453.4629
648.2084, 448.8828
648.6906, 455.3672
649.1727, 474.5234
649.6548, 500.7461
650.1369, 531.6641
650.6190, 563.9434
651.1011, 585.2930
651.5833, 581.5195
652.0654, 583.9629
652.5475, 641.0449
653.0296, 725.7988
653.5117, 779.6484
653.9938, 739.4590
654.4760, 703.2109
654.9581, 719.0430
655.4402, 782.8027
655.9223, 825.9395
656.4044, 829.9727
656.8865, 833.0586
657.3687, 851.8867
657.8508, 887.9121
658.3329, 921.2891
658.8150, 952.2168
659.2971, 979.8184
659.7793, 992.9473
660.2614, 999.6152
660.7435, 1042.658
661.2256, 1135.031
661.7078, 1229.971
662.1899, 1261.852
662.6720, 1267.240
663.1541, 1307.580
663.6362, 1438.188
664.1183, 1566.492
664.6005, 1629.154
665.0826, 1654.533
665.5647, 1720.033
666.0468, 1906.760
666.5289, 2066.410
667.0110, 2155.664
667.4932, 2182.398
667.9753, 2222.148
668.4574, 2272.576
668.9395, 2347.422
669.4216, 2467.367
669.9037, 2621.900
670.3859, 2752.324
670.8680, 2860.217
671.3501, 2969.377
671.8322, 3107.246
672.3143, 3250.463
672.7964, 3367.537
673.2786, 3446.434
673.7607, 3523.834
674.2428, 3657.768
674.7249, 3789.662
675.2070, 3849.684
675.6891, 3738.652
676.1713, 3656.754
676.6534, 3635.043
677.1355, 3645.934
677.6176, 3635.691
678.0997, 3602.320
678.5818, 3565.256
679.0640, 3534.592
679.5461, 3499.074
680.0282, 3428.133
680.5103, 3323.695
680.9924, 3201.268
681.4745, 3065.943
681.9567, 2922.164
682.4388, 2763.939
682.9209, 2592.084
683.4030, 2450.689
683.8851, 2375.504
684.3672, 2330.824
684.8494, 2299.152
685.3315, 2286.488
685.8136, 2270.863
686.2957, 2244.102
686.7778, 2218.377
687.2599, 2204.547
687.7421, 2205.762
688.2242, 2204.445
688.7063, 2200.117
689.1884, 2190.441
689.6705, 2161.453
690.1526, 2121.027
690.6348, 2109.189
691.1169, 2150.738
691.5990, 2205.760
692.0811, 2233.869
692.5632, 2242.562
693.0453, 2246.338
693.5275, 2246.641
694.0096, 2248.408
694.4917, 2257.557
694.9738, 2272.260
695.4559, 2275.154
695.9380, 2252.846
696.4202, 2237.439
696.9023, 2244.938
697.3844, 2275.393
697.8665, 2285.625
698.3486, 2271.607
698.8307, 2258.725
699.3129, 2278.281
699.7950, 2314.375
700.2771, 2317.605
700.7592, 2281.906
701.2413, 2236.375
701.7234, 2186.770
702.2056, 2148.773
702.6877, 2146.512
703.1698, 2220.189
703.6519, 2260.473
704.1340, 2210.285
704.6161, 2120.762
705.0983, 2059.750
705.5804, 2035.291
706.0625, 2031.637
706.5446, 2065.010
707.0267, 2101.611
707.5089, 2053.338
707.9910, 1922.535
708.4731, 1813.346
708.9552, 1766.385
709.4373, 1758.369
709.9194, 1766.973
710.4016, 1786.680
710.8837, 1794.189
711.3658, 1779.305
711.8479, 1748.158
712.3300, 1695.863
712.8121, 1623.955
713.2943, 1567.699
713.7764, 1539.812
714.2585, 1523.064
714.7406, 1516.246
715.2227, 1522.738
715.7048, 1501.562
716.1870, 1451.199
716.6691, 1392.428
717.1512, 1331.520
717.6333, 1268.752
718.1154, 1231.428
718.5975, 1227.217
719.0797, 1225.861
719.5618, 1201.162
720.0439, 1158.195
720.5260, 1101.824
721.0081, 1022.047
721.4902, 955.1191
721.9724, 929.5742
722.4545, 919.7012
722.9366, 886.3848
723.4187, 807.6016
723.9008, 744.7051
724.3829, 711.3613
724.8651, 692.4375
725.3472, 646.0977
725.8293, 570.7441
726.3114, 527.3828
726.7935, 551.8359
727.2756, 598.0371
727.7578, 588.3125
728.2399, 536.0977
728.7220, 489.8203
729.2041, 488.0391
729.6862, 488.6914
730.1683, 457.3184
730.6505, 397.9961
731.1326, 361.3223
731.6147, 372.9004
732.0968, 392.2363
732.5789, 408.3066
733.0610, 421.2266
733.5432, 423.5879
734.0253, 413.7441
734.5074, 399.3516
734.9895, 387.1074
735.4716, 374.9941
735.9537, 352.9785
736.4359, 319.9141
736.9180, 290.3516
737.4001, 280.4258
737.8822, 278.4570
738.3643, 271.5957
738.8464, 254.9668
739.3286, 241.2266
739.8107, 225.5273
740.2928, 219.6777
740.7749, 238.1680
741.2570, 305.0918
741.7391, 337.0176
742.2213, 325.3125
742.7034, 284.0723
743.1855, 219.3887
743.6676, 136.6445
744.1497, 85.93750
744.6318, 86.52148
745.1140, 109.8789
745.5961, 125.5566
746.0782, 138.3242
746.5603, 157.3887
747.0424, 207.4531
747.5245, 242.0723
748.0067, 230.0605
748.4888, 188.2031
748.9709, 170.4238
749.4530, 188.2852
749.9351, 211.8535
750.4172, 234.0723
750.8994, 256.1602
751.3815, 291.6855
751.8636, 341.7012
752.3457, 361.3145
752.8278, 288.8945
753.3099, 188.5605
753.7921, 172.1172
754.2742, 229.4746
754.7563, 299.4902
755.2384, 383.1230
755.7205, 441.0938
756.2026, 439.0879
756.6848, 369.2871
757.1669, 318.3984
757.6490, 296.3262
758.1311, 286.2852
758.6132, 287.7168
759.0953, 303.0078
759.5775, 273.2598
760.0596, 191.7070
760.5417, 108.9219
761.0238, 72.58203
761.5059, 66.07031
761.9880, 62.34766
762.4702, 59.63477
762.9523, 43.31055
763.4344, 19.98438
763.9165, 87.85156
764.3986, 117.5000
764.8807, 72.80469
765.3629, 56.91992
765.8450, 98.38867
766.3271, 148.5918
766.8092, 156.2676
767.2913, 114.8086
767.7734, 82.41016
768.2556, 64.92578
768.7377, 59.75586
769.2198, 69.24805
769.7019, 88.38867
770.1840, 105.4043
770.6661, 119.0547
771.1483, 125.4023
771.6304, 118.8691
772.1125, 104.2227
772.5946, 88.24805
773.0767, 45.16406
773.5588, 39.51172
774.0410, 105.8906
774.5231, 196.6211
775.0052, 211.7402
775.4873, 138.2188
775.9694, 84.27539
776.4515, 84.20508
776.9337, 106.2812
777.4158, 92.79688
777.8979, 52.32422
778.3800, 13.91406
778.8621, 10.84180
779.3442, 28.28906
779.8264, 35.27148
780.3085, 37.68164
780.7906, 52.97852
781.2727, 122.3398
781.7548, 159.0352
782.2369, 132.2715
782.7191, 58.91602
783.2012, 6.876953
783.6833, 24.62109
784.1655, 24.52148
784.6476, 24.69922
785.1297, 102.0449
785.6118, 171.1016
786.0939, 230.3691
786.5760, 270.6992
787.0582, 259.7559
787.5403, 250.0703
788.0224, 286.4941
788.5045, 366.3125
788.9866, 411.6230
789.4688, 382.4238
789.9509, 360.3848
790.4330, 384.8887
790.9151, 451.8496
791.3972, 470.9766
791.8793, 438.2441
792.3615, 408.8770
792.8436, 432.0508
793.3257, 479.7207
793.8078, 491.9805
794.2899, 470.4121
794.7720, 466.9961
795.2542, 528.3262
795.7363, 604.5586
796.2184, 661.7949
796.7005, 693.1309
797.1826, 733.2520
797.6647, 779.2773
798.1469, 839.3340
798.6290, 929.8965
799.1111, 1051.027
799.5932, 1113.488
800.0753, 1113.762
800.5574, 1107.012
801.0396, 1126.111
801.5217, 1173.771
802.0038, 1268.055
802.4859, 1414.980
802.9680, 1547.738
803.4501, 1627.748
803.9323, 1686.973
804.4144, 1742.537
804.8965, 1782.607
805.3786, 1862.797
805.8607, 1983.033
806.3428, 2143.330
806.8250, 2354.809
807.3071, 2612.303
807.7892, 2880.938
808.2713, 3159.652
808.7534, 3430.543
809.2355, 3666.172
809.7177, 3891.191
810.1998, 4125.873
810.6819, 4366.178
811.1640, 4650.119
811.6461, 5020.480
812.1282, 5419.627
812.6104, 5794.896
813.0925, 6134.346
813.5746, 6498.191
814.0567, 6884.727
814.5388, 7293.076
815.0209, 7721.119
815.5031, 8170.785
815.9852, 8643.322
816.4673, 9144.879
816.9494, 9650.645
817.4315, 10119.61
817.9136, 10587.31
818.3958, 11101.99
818.8779, 11738.85
819.3600, 12287.72
819.8421, 12706.43
820.3242, 13057.18
820.8063, 13391.46
821.2885, 13703.96
821.7706, 14000.01
822.2527, 14278.24
822.7348, 14578.38
823.2169, 14948.32
823.6990, 15364.17
824.1812, 15790.51
824.6633, 16215.69
825.1454, 16686.91
825.6275, 17265.24
826.1096, 17886.53
826.5917, 18496.98
827.0739, 19118.78
827.5560, 19667.74
828.0381, 20134.08
828.5202, 20534.83
829.0023, 20913.52
829.4844, 21250.02
829.9666, 21438.63
830.4487, 21470.57
830.9308, 21306.39
831.4129, 20838.62
831.8950, 20172.00
832.3771, 19419.62
832.8593, 18568.28
833.3414, 17770.44
833.8235, 17010.44
834.3056, 16338.98
834.7877, 15797.84
835.2698, 15376.59
835.7520, 15117.01
836.2341, 15007.40
836.7162, 15105.49
837.1983, 15473.92
837.6804, 16104.69
838.1625, 16977.66
838.6447, 18086.71
839.1268, 19447.21
839.6089, 21097.98
840.0910, 22999.27
840.5731, 25072.65
841.0552, 27324.82
841.5374, 29755.89
842.0195, 32389.22
842.5016, 35173.95
842.9837, 38058.75
843.4658, 41043.79
843.9479, 44150.41
844.4301, 47356.61
844.9122, 50660.49
845.3943, 54064.30
845.8764, 57551.67
846.3585, 61113.05
846.8406, 64785.50
847.3228, 68421.78
847.8049, 72259.91
848.2870, 75831.27
848.7691, 78922.93
849.2512, 81670.53
849.7333, 83321.61
850.2155, 83953.12
850.6976, 83141.55
851.1797, 80172.69
851.6618, 75449.72
852.1439, 69683.41
852.6260, 62844.12
853.1082, 55953.03
853.5903, 49233.72
854.0724, 42975.12
854.5545, 37500.70
855.0366, 32854.72
855.5187, 28815.69
856.0009, 25435.29
856.4830, 22607.02
856.9651, 20298.98
857.4472, 18496.49
857.9293, 17008.08
858.4114, 15831.59
858.8936, 14856.20
859.3757, 13996.55
859.8578, 13269.93
860.3399, 12699.91
860.8220, 12304.72
861.3041, 12010.41
861.7863, 11822.57
862.2684, 11712.98
862.7505, 11675.54
863.2326, 11712.86
863.7147, 11797.98
864.1968, 11926.23
864.6790, 12125.66
865.1611, 12458.12
865.6432, 12863.00
866.1253, 13239.89
866.6074, 13586.11
867.0895, 13961.65
867.5717, 14424.00
868.0538, 14909.10
868.5359, 15374.83
869.0180, 15823.96
869.5001, 16310.95
869.9822, 16844.81
870.4644, 17387.20
870.9465, 17905.77
871.4286, 18409.76
871.9107, 18929.46
872.3928, 19463.90
872.8749, 19973.46
873.3571, 20561.97
873.8392, 21009.99
874.3213, 21207.16
874.8034, 21142.63
875.2855, 20719.48
875.7676, 19881.98
876.2498, 18810.53
876.7319, 17525.27
877.2140, 16060.39
877.6961, 14491.81
878.1782, 12828.10
878.6603, 11270.52
879.1425, 9881.711
879.6246, 8658.508
880.1067, 7627.926
880.5888, 6762.232
881.0709, 5983.480
881.5530, 5253.070
882.0352, 4633.193
882.5173, 4138.492
882.9994, 3751.373
883.4815, 3444.422
883.9636, 3222.158
884.4457, 3002.184
884.9279, 2756.395
885.4100, 2506.359
885.8921, 2276.986
886.3742, 2070.650
886.8563, 1889.645
887.3384, 1731.998
887.8206, 1603.666
888.3027, 1524.057
888.7848, 1468.059
889.2669, 1401.326
889.7490, 1325.320
890.2311, 1231.359
890.7133, 1114.027
891.1954, 992.8027
891.6775, 886.2891
892.1596, 798.4258
892.6417, 740.8359
893.1238, 728.4473
893.6060, 710.8281
894.0881, 661.6875
894.5702, 594.1230
895.0523, 518.7559
895.5344, 416.6777
896.0165, 358.6504
896.4987, 358.6738
896.9808, 368.0723
897.4629, 334.6875
897.9450, 270.4512
898.4271, 212.3320
898.9092, 164.4160
899.3914, 122.1992
899.8735, 63.08203
900.3556, 22.51758
900.8377, 46.82422
901.3198, 165.5703
901.8019, 201.3262
902.2841, 113.8184
902.7662, 17.64844
903.2483, 11.39844
903.7304, 13.18555
904.2125, 6.583984
904.6946, 29.73438
905.1768, 72.96875
905.6589, 124.7402
906.1410, 164.4512
906.6232, 164.1523
907.1053, 128.9512
907.5874, 116.8125
908.0695, 153.7500
908.5516, 186.3730
909.0338, 197.8984
909.5159, 193.9375
909.9980, 191.0781
910.4801, 189.9844
910.9622, 198.8594
911.4443, 243.5625
911.9265, 275.9824
912.4086, 218.7441
912.8907, 117.4219
913.3728, 73.64453
913.8549, 210.0625
914.3370, 275.5215
914.8192, 200.8672
915.3013, 66.27930
915.7834, 29.23242
916.2655, 85.82031
916.7476, 103.7832
917.2297, 41.50391
917.7119, 29.49805
918.1940, 24.32031
918.6761, 16.63867
919.1582, 36.05469
919.6403, 1.773438
920.1224, 17.46875
920.6046, 1.890625
921.0867, 24.83594
921.5688, 20.78125
922.0509, 10.85547
922.5330, 54.83203
923.0151, 112.3789
923.4973, 163.6309
923.9794, 189.1328
924.4615, 199.6191
924.9436, 200.9688
925.4257, 192.1309
925.9078, 207.0254
926.3900, 295.7832
926.8721, 368.3730
927.3542, 371.8145
927.8363, 313.5645
928.3184, 318.7344
928.8005, 389.6973
929.2827, 466.3438
929.7648, 501.9160
930.2469, 530.5000
930.7290, 604.8398
931.2111, 712.2520
931.6932, 799.7891
932.1754, 821.7422
932.6575, 856.1973
933.1396, 927.2461
933.6217, 1022.270
934.1038, 1107.338
934.5859, 1181.373
935.0681, 1271.529
935.5502, 1391.871
936.0323, 1518.158
936.5144, 1609.471
936.9965, 1690.129
937.4786, 1803.229
937.9608, 1978.883
938.4429, 2161.514
938.9250, 2352.844
939.4071, 2541.783
939.8892, 2713.744
940.3713, 2869.029
940.8535, 3035.146
941.3356, 3214.422
941.8177, 3400.254
942.2998, 3588.574
942.7819, 3773.430
943.2640, 3940.281
943.7462, 4082.320
944.2283, 4246.898
944.7104, 4458.801
945.1925, 4680.785
945.6746, 4901.594
946.1567, 5118.551
946.6389, 5309.643
947.1210, 5476.686
947.6031, 5663.242
948.0852, 5912.830
948.5673, 6183.961
949.0494, 6446.318
949.5316, 6693.359
950.0137, 6912.717
950.4958, 7074.986
950.9779, 7243.512
951.4600, 7448.029
951.9421, 7653.475
952.4243, 7769.852
952.9064, 7802.521
953.3885, 7825.686
953.8706, 7864.793
954.3527, 7889.268
954.8348, 7874.164
955.3170, 7823.910
955.7991, 7741.553
956.2812, 7576.551
956.7633, 7471.350
957.2454, 7448.938
957.7275, 7461.531
958.2097, 7470.457
958.6918, 7475.980
959.1739, 7469.400
959.6560, 7449.389
960.1381, 7461.967
960.6202, 7573.641
961.1024, 7708.732
961.5845, 7804.766
962.0666, 7852.125
962.5487, 7922.730
963.0308, 8016.809
963.5129, 8139.965
963.9951, 8311.809
964.4772, 8512.055
964.9593, 8635.746
965.4414, 8705.523
965.9235, 8823.316
966.4056, 9087.729
966.8878, 9370.105
967.3699, 9619.357
967.8520, 9833.676
968.3341, 10003.36
968.8162, 10122.88
969.2983, 10223.53
969.7805, 10320.26
970.2626, 10384.36
970.7447, 10367.59
971.2268, 10280.88
971.7089, 10158.74
972.1910, 10021.89
972.6732, 9809.383
973.1553, 9456.770
973.6374, 9032.816
974.1195, 8586.801
974.6016, 8123.619
975.0837, 7654.387
975.5659, 7176.676
976.0480, 6703.736
976.5301, 6205.275
977.0122, 5725.586
977.4943, 5351.090
977.9764, 5069.693
978.4586, 4818.400
978.9407, 4602.451
979.4228, 4378.379
979.9049, 4111.738
980.3870, 3836.975
980.8691, 3647.643
981.3513, 3549.256
981.8334, 3450.023
982.3155, 3319.363
982.7976, 3199.689
983.2797, 3167.779
983.7618, 3170.645
984.2440, 3131.164
984.7261, 3005.559
985.2082, 2891.506
985.6903, 2779.113
986.1724, 2706.133
986.6545, 2724.061
987.1367, 2823.523
987.6188, 2860.656
988.1009, 2833.473
988.5830, 2805.229
989.0651, 2833.656
989.5472, 2870.404
990.0294, 2873.262
990.5115, 2844.131
990.9936, 2824.395
991.4757, 2815.750
991.9578, 2819.562
992.4399, 2841.096
992.9221, 2869.646
993.4042, 2882.258
993.8863, 2881.104
994.3684, 2873.148
994.8505, 2855.912
995.3326, 2841.482
995.8148, 2843.240
996.2969, 2847.436
996.7790, 2837.766
997.2611, 2810.441
997.7432, 2783.766
998.2253, 2759.244
998.7075, 2729.629
999.1896, 2701.430
999.6717, 2657.148
1000.154, 2554.371
1000.636, 2393.857
1001.118, 2249.229
1001.600, 2153.975
1002.082, 2074.555
1002.564, 2006.162
1003.047, 1941.000
1003.529, 1840.109
1004.011, 1705.344
1004.493, 1593.379
1004.975, 1522.777
1005.457, 1467.068
1005.939, 1411.457
1006.421, 1352.104
1006.903, 1282.188
1007.386, 1171.135
1007.868, 1107.797
1008.350, 1111.191
1008.832, 1119.160
1009.314, 1061.889
1009.796, 959.5840
1010.278, 883.5840
1010.760, 838.1719
1011.242, 805.3574
1011.725, 782.5293
1012.207, 759.6543
1012.689, 733.4004
1013.171, 704.4141
1013.653, 644.0527
1014.135, 530.0117
1014.617, 477.8145
1015.099, 556.7402
1015.582, 681.3262
1016.064, 703.2832
1016.546, 656.2305
1017.028, 617.6855
1017.510, 622.7793
1017.992, 630.3359
1018.474, 639.7969
1018.956, 636.5020
1019.438, 593.5410
1019.921, 511.2520
1020.403, 494.9531
1020.885, 551.6250
1021.367, 605.7559
1021.849, 573.2109
1022.331, 528.0215
1022.813, 545.9746
1023.295, 624.2676
1023.778, 662.4648
1024.260, 635.8027
1024.742, 611.3613
1025.224, 605.6094
1025.706, 621.4277
1026.188, 677.3867
1026.670, 755.8789
1027.152, 804.5215
1027.635, 783.3848
1028.117, 777.2090
1028.599, 834.0723
1029.081, 917.1172
1029.563, 990.2910
1030.045, 1048.938
1030.527, 1124.852
1031.009, 1218.957
1031.491, 1329.711
1031.974, 1456.725
1032.456, 1595.115
1032.938, 1733.445
1033.420, 1873.986
1033.902, 2042.158
1034.384, 2271.316
1034.866, 2481.541
1035.348, 2648.711
1035.830, 2795.939
1036.313, 2987.604
1036.795, 3208.750
1037.277, 3400.131
1037.759, 3535.982
1038.241, 3669.180
1038.723, 3828.035
1039.205, 4001.244
1039.687, 4185.045
1040.170, 4388.855
1040.652, 4547.115
1041.134, 4660.219
1041.616, 4732.100
1042.098, 4776.750
1042.580, 4775.205
1043.062, 4689.400
1043.544, 4532.715
1044.026, 4348.576
1044.509, 4146.674
1044.991, 3924.438
1045.473, 3677.293
1045.955, 3412.105
1046.437, 3126.443
1046.919, 2828.107
1047.401, 2568.309
1047.883, 2361.186
1048.365, 2148.375
1048.848, 1866.553
1049.330, 1578.359
1049.812, 1326.031
1050.294, 1110.703
1050.776, 986.5801
1051.258, 970.5918
1051.740, 951.0879
1052.222, 867.6641
1052.705, 755.5664
1053.187, 663.7422
1053.669, 585.5742
1054.151, 506.2305
1054.633, 400.9727
1055.115, 322.4375
1055.597, 280.2676
1056.079, 259.7598
1056.562, 254.1660
1057.044, 258.6406
1057.526, 235.8008
1058.008, 182.9629
1058.490, 132.3730
1058.972, 101.0391
1059.454, 82.92383
1059.936, 89.39844
1060.418, 109.9609
1060.901, 73.90430
1061.383, 34.70508
1061.865, 102.9688
1062.347, 88.14844
1062.829, 39.29102
1063.311, 2.470703
1063.793, 15.43555
1064.275, 2.386719
1064.757, 89.66211
1065.240, 136.1895
1065.722, 114.7070
1066.204, 81.15234
1066.686, 77.15234
1067.168, 95.36719
1067.650, 96.48828
1068.132, 81.22461
1068.614, 55.19336
1069.097, 6.976563
1069.579, 49.30078
1070.061, 24.32422
1070.543, 34.27930
1071.025, 57.24219
1071.507, 38.23633
1071.989, 47.57422
1072.471, 103.6855
1072.953, 146.5977
1073.436, 86.60742
1073.918, 1.328125
1074.400, 28.69336
1074.882, 22.11133
1075.364, 53.20117
1075.846, 50.00391
1076.328, 42.53125
1076.810, 41.67188
1077.292, 45.66016
1077.775, 60.44727
1078.257, 76.71680
1078.739, 66.43750
1079.221, 2.777344
1079.703, 64.12695
1080.185, 97.39062
1080.667, 111.3750
1081.149, 111.1074
1081.632, 96.47070
1082.114, 63.91602
1082.596, 13.78516
1083.078, 28.74805
1083.560, 47.19531
1084.042, 48.13672
1084.524, 28.89453
1085.006, 5.009766
1085.489, 29.80664
1085.971, 40.62695
1086.453, 61.43750
1086.935, 103.1543
1087.417, 137.4434
1087.899, 109.2188
1088.381, 56.44922
1088.863, 43.19531
1089.345, 87.05078
1089.828, 118.2559
1090.310, 115.2109
1090.792, 107.1074
1091.274, 100.4023
1091.756, 100.6621
1092.238, 147.4316
1092.720, 224.2227
1093.202, 258.3594
1093.685, 174.9219
1094.167, 107.2559
1094.649, 137.4688
1095.131, 202.5176
1095.613, 239.5703
1096.095, 247.5586
1096.577, 230.8887
1097.059, 188.7207
1097.542, 153.2051
1098.024, 142.4453
1098.506, 146.6406
1098.988, 157.4316
1099.470, 176.3418
1099.952, 214.6738
1100.434, 294.0645
1100.916, 330.8945
1101.398, 299.5293
1101.880, 244.3906
1102.363, 218.3027
1102.845, 215.1406
1103.327, 229.8730
1103.809, 264.3613
1104.291, 291.3984
1104.773, 301.8984
1105.255, 305.7891
1105.737, 302.0098
1106.220, 296.7051
1106.702, 319.3828
1107.184, 360.9414
1107.666, 382.6934
1108.148, 356.4961
1108.630, 333.4570
1109.112, 336.4785
1109.594, 353.7383
1110.077, 375.2676
1110.559, 401.2988
1111.041, 436.3926
1111.523, 481.3184
1112.005, 502.4727
1112.487, 442.4395
1112.969, 379.5703
1113.451, 383.6523
1113.933, 436.3594
1114.416, 479.2480
1114.898, 508.8516
1115.380, 531.6211
1115.862, 548.3555
1116.344, 558.4785
1116.826, 559.9531
1117.308, 554.5449
1117.790, 543.6504
1118.272, 527.5918
1118.755, 511.3887
1119.237, 502.4531
1119.719, 471.1582
1120.201, 402.0312
1120.683, 328.4199
1121.165, 315.5703
1121.647, 349.7773
1122.129, 404.1914
1122.612, 478.7773
1123.094, 532.8379
1123.576, 539.4512
1124.058, 541.2285
1124.540, 566.7012
1125.022, 608.8008
1125.504, 610.7266
1125.986, 576.6523
1126.469, 531.4766
1126.951, 451.6367
1127.433, 405.9277
1127.915, 480.1172
1128.397, 585.9688
1128.879, 592.9062
1129.361, 486.4043
1129.843, 439.7559
1130.325, 457.8574
1130.807, 480.6543
1131.290, 440.2852
1131.772, 404.6934
1132.254, 454.5195
1132.736, 561.7051
1133.218, 588.8008
1133.700, 505.2266
1134.182, 440.8203
1134.664, 416.3027
1135.147, 414.7324
1135.629, 420.3848
1136.111, 428.4863
1136.593, 431.4043
1137.075, 431.1074
1137.557, 449.5703
1138.039, 515.3398
1138.521, 543.4062
1139.004, 482.9258
1139.486, 386.9395
1139.968, 378.6016
1140.450, 426.7656
1140.932, 458.4941
1141.414, 452.6035
1141.896, 432.0645
1142.378, 391.7012
1142.860, 356.3574
1143.343, 351.7109
1143.825, 367.8652
1144.307, 326.5801
1144.789, 242.3613
1145.271, 190.9863
1145.753, 255.1484
1146.235, 309.3145
1146.717, 288.7207
1147.199, 241.8613
1147.682, 216.6699
1148.164, 212.7070
1148.646, 216.9629
1149.128, 229.7520
1149.610, 239.5898
1150.092, 243.4062
1150.574, 239.2383
1151.056, 214.5332
1151.539, 181.1523
1152.021, 181.3301
1152.503, 224.4941
1152.985, 227.9355
1153.467, 173.1680
1153.949, 102.2129
1154.431, 25.53125
1154.913, 23.53906
1155.396, 4.652344
1155.878, 116.3164
1156.360, 179.7637
1156.842, 191.4395
1157.324, 162.9062
1157.806, 80.11328
1158.288, 1.076172
1158.770, 21.14062
1159.252, 88.98438
1159.734, 130.9277
1160.217, 125.7773
1160.699, 119.1426
1161.181, 114.6055
1161.663, 104.3535
1162.145, 79.26953
1162.627, 49.79883
1163.109, 30.90820
1163.591, 24.88672
1164.074, 38.06250
1164.556, 112.8320
1165.038, 134.9375
1165.520, 71.52148
1166.002, 4.087891
1166.484, 6.066406
1166.966, 56.21484
1167.448, 106.0098
1167.931, 148.9023
1168.413, 161.8125
1168.895, 99.20312
1169.377, 53.94922
1169.859, 47.35156
1170.341, 62.17383
1170.823, 85.65039
1171.305, 112.1172
1171.787, 114.6719
1172.270, 92.41797
1172.752, 69.70508
1173.234, 44.87891
1173.716, 41.79492
1174.198, 85.55469
1174.680, 142.3066
1175.162, 128.0508
1175.644, 56.39062
1176.126, 8.449219
1176.609, 0.6445310
1177.091, 13.84961
1177.573, 67.91992
1178.055, 117.3379
1178.537, 134.7793
1179.019, 126.5820
1179.501, 123.6582
1179.983, 124.9121
1180.466, 118.6973
1180.948, 100.7871
1181.430, 76.66406
1181.912, 27.88477
1182.394, 6.658203
1182.876, 18.11328
1183.358, 99.43555
1183.840, 122.4609
1184.323, 88.53711
1184.805, 55.64453
1185.287, 62.28906
1185.769, 63.39258
1186.251, 9.419922
1186.733, 88.56836
1187.215, 80.96484
1187.697, 37.20508
1188.179, 101.0156
1188.661, 108.4277
1189.144, 107.2617
1189.626, 150.8516
1190.108, 178.4473
1190.590, 99.92383
1191.072, 18.83789
1191.554, 36.91211
1192.036, 82.27148
1192.518, 152.0195
1193.001, 160.7617
1193.483, 133.4766
1193.965, 45.68750
1194.447, 30.19922
1194.929, 5.457031
1195.411, 91.98633
1195.893, 149.8574
1196.375, 159.8750
1196.858, 144.0352
1197.340, 100.9180
1197.822, 56.66797
1198.304, 41.79102
1198.786, 37.09180
1199.268, 9.068359
1199.750, 35.72852
1200.232, 13.43750
1200.714, 106.3926
1201.197, 182.7676
1201.679, 181.6113
1202.161, 139.1914
1202.643, 61.59961
1203.125, 9.886719
1203.607, 16.70117
1204.089, 53.56055
1204.571, 97.58203
1205.053, 113.7852
1205.536, 97.87109
1206.018, 34.22070
1206.500, 29.49023
1206.982, 16.26172
1207.464, 33.40625
1207.946, 62.19531
1208.428, 53.87500
1208.910, 65.04688
1209.393, 107.6738
1209.875, 123.2246
1210.357, 62.83984
1210.839, 6.544922
1211.321, 38.73438
1211.803, 133.1133
1212.285, 170.8281
1212.767, 99.84766
1213.250, 44.80859
1213.732, 2.267578
1214.214, 16.37500
1214.696, 8.550781
1215.178, 50.69727
1215.660, 77.86328
1216.142, 89.74609
1216.624, 87.50195
1217.106, 47.77930
1217.589, 44.66992
1218.071, 86.88672
1218.553, 131.7910
1219.035, 139.5254
1219.517, 135.2168
1219.999, 167.5293
1220.481, 217.2910
1220.963, 226.3828
1221.446, 156.9961
1221.928, 115.7266
1222.410, 110.1680
1222.892, 129.9629
1223.374, 183.6426
1223.856, 244.1328
1224.338, 283.7832
1224.820, 300.5371
1225.302, 284.6348
1225.785, 212.4258
1226.267, 177.1055
1226.749, 193.4746
1227.231, 228.4102
1227.713, 256.7695
1228.195, 277.5566
1228.677, 294.3359
1229.159, 303.7285
1229.641, 281.5117
1230.124, 212.0078
1230.606, 162.7578
1231.088, 145.1172
1231.570, 151.6621
1232.052, 186.1094
1232.534, 231.9629
1233.016, 275.0137
1233.498, 311.9199
1233.981, 334.2461
1234.463, 339.6328
1234.945, 338.2148
1235.427, 328.5938
1235.909, 326.0996
1236.391, 363.9609
1236.873, 408.4512
1237.355, 424.2988
1237.838, 406.3438
1238.320, 355.9941
1238.802, 261.3359
1239.284, 217.6152
1239.766, 269.0078
1240.248, 334.4141
1240.730, 309.0195
1241.212, 261.5430
1241.694, 276.3672
1242.177, 359.1680
1242.659, 394.7207
1243.141, 377.8047
1243.623, 376.9102
1244.105, 433.1445
1244.587, 469.4277
1245.069, 389.7500
1245.551, 281.0879
1246.033, 226.5703
1246.516, 228.1191
1246.998, 261.9043
1247.480, 328.6562
1247.962, 388.7148
1248.444, 422.1289
1248.926, 447.3438
1249.408, 507.6699
1249.890, 553.4727
1250.373, 516.7480
1250.855, 394.2168
1251.337, 335.1992
1251.819, 337.3652
1252.301, 355.3652
1252.783, 383.3438
1253.265, 401.7090
1253.747, 367.0977
1254.229, 341.6250
1254.712, 404.2812
1255.194, 554.6309
1255.676, 578.4961
1256.158, 487.3320
1256.640, 395.3438
1257.122, 328.3809
1257.604, 308.6582
1258.086, 403.1641
1258.568, 505.9375
1259.051, 503.2051
1259.533, 408.8594
1260.015, 411.5176
1260.497, 494.2754
1260.979, 558.2715
1261.461, 525.3242
1261.943, 502.1836
1262.425, 527.4883
1262.908, 565.5645
1263.390, 592.6816
1263.872, 604.9512
1264.354, 552.3711
1264.836, 453.5762
1265.318, 403.6113
1265.800, 515.9961
1266.282, 576.3438
1266.765, 529.5625
1267.247, 457.4375
1267.729, 448.8691
1268.211, 478.2422
1268.693, 479.3027
1269.175, 456.7090
1269.657, 445.3691
1270.139, 473.5645
1270.621, 489.4336
1271.104, 489.0078
1271.586, 472.7461
1272.068, 423.3125
1272.550, 368.1895
1273.032, 361.4121
1273.514, 393.4043
1273.996, 406.3008
1274.478, 379.4512
1274.960, 362.5645
1275.443, 360.9180
1275.925, 370.3379
1276.407, 404.9922
1276.889, 434.9102
1277.371, 418.5977
1277.853, 364.8301
1278.335, 318.6426
1278.817, 276.9785
1279.300, 270.0840
1279.782, 305.2168
1280.264, 345.7871
1280.746, 366.7168
1281.228, 371.8281
1281.710, 358.8750
1282.192, 332.3613
1282.674, 297.6914
1283.156, 251.8809
1283.639, 265.1035
1284.121, 349.7578
1284.603, 421.7012
1285.085, 418.6113
1285.567, 381.9688
1286.049, 317.3379
1286.531, 247.9141
1287.013, 224.0039
1287.495, 240.0508
1287.978, 251.3555
1288.460, 252.1289
1288.942, 240.7051
1289.424, 206.8008
1289.906, 171.3457
1290.388, 142.4922
1290.870, 116.9102
1291.352, 77.53516
1291.835, 37.58008
1292.317, 51.95898
1292.799, 125.9707
1293.281, 164.0879
1293.763, 69.82227
1294.245, 25.78125
1294.727, 87.60352
1295.209, 186.1602
1295.692, 224.5117
1296.174, 223.4199
1296.656, 214.5898
1297.138, 201.9160
1297.620, 188.8945
1298.102, 177.1660
1298.584, 159.3594
1299.066, 129.6309
1299.548, 108.2246
1300.031, 130.6387
1300.513, 167.5605
1300.995, 187.3652
1301.477, 187.5723
1301.959, 184.8516
1302.441, 179.3105
1302.923, 172.5684
1303.405, 166.5879
1303.887, 149.4551
1304.370, 95.79688
1304.852, 39.18555
1305.334, 0.2382810
1305.816, 19.14648
1306.298, 1.312500
1306.780, 58.29883
1307.262, 115.8184
1307.744, 170.4102
1308.227, 194.7266
1308.709, 123.2949
1309.191, 18.98047
1309.673, 8.310547
1310.155, 27.39258
1310.637, 45.03711
1311.119, 39.15820
1311.601, 0.0000000E+00
##END=



