##NAMES=Berlinite
##RRUFFID=R130243
##IDEAL CHEMISTRY=AlPO_4_
##LOCALITY=Buranga pegmatite, Gatumba District, Western Province, Rwanda
##OWNER=RRUFF
##SOURCE=Rock Currier
##DESCRIPTION=Massive white to gray vitreous, associated with lazulite, muscovite and apatite.
##STATUS=The identification of this mineral has been confirmed by single-crystal X-ray diffraction.
##URL=rruff.info/R130243
103.2825, 0.0000000E+00
103.7646, 0.2688520
104.2467, 2.936440
104.7288, 8.968597
105.2109, 17.75333
105.6931, 29.14253
106.1752, 42.38460
106.6573, 57.72511
107.1394, 79.34709
107.6215, 95.92461
108.1036, 108.0860
108.5858, 115.5191
109.0679, 115.6103
109.5500, 103.5857
110.0321, 88.26334
110.5142, 74.24951
110.9963, 58.90282
111.4785, 47.42764
111.9606, 40.62629
112.4427, 38.34586
112.9248, 38.83721
113.4069, 41.96617
113.8890, 47.55644
114.3712, 55.51534
114.8533, 65.63441
115.3354, 78.17326
115.8175, 94.46105
116.2996, 113.7982
116.7817, 134.9768
117.2639, 160.0443
117.7460, 186.5995
118.2281, 211.8342
118.7102, 241.2513
119.1923, 264.3557
119.6744, 275.1703
120.1566, 272.9781
120.6387, 260.5793
121.1208, 234.9255
121.6029, 200.3590
122.0850, 165.7577
122.5671, 133.1079
123.0493, 103.7124
123.5314, 79.08459
124.0135, 59.83878
124.4956, 44.32228
124.9777, 31.79139
125.4598, 21.97588
125.9420, 14.14290
126.4241, 8.211998
126.9062, 3.892929
127.3883, 0.7211760
127.8704, 1.239296
128.3525, 2.306526
128.8347, 2.754593
129.3168, 2.607147
129.7989, 2.268562
130.2810, 2.020004
130.7631, 1.842598
131.2452, 1.651749
131.7274, 1.388214
132.2095, 1.113007
132.6916, 1.050064
133.1737, 1.231934
133.6558, 1.385414
134.1379, 1.183830
134.6201, 0.6328350
135.1022, 0.1511990
135.5843, 0.1351780
136.0664, 0.2444230
136.5485, 0.2513500
137.0306, 0.3173830
137.5128, 1.531494
137.9949, 3.929329
138.4770, 6.913719
138.9591, 9.484970
139.4412, 11.36840
139.9233, 12.23449
140.4055, 12.56368
140.8876, 12.72134
141.3697, 12.96468
141.8518, 13.40663
142.3339, 13.91677
142.8160, 14.90918
143.2982, 16.64925
143.7803, 19.43251
144.2624, 21.93766
144.7445, 23.89955
145.2266, 25.66605
145.7087, 28.00074
146.1909, 31.50546
146.6730, 34.86298
147.1551, 37.57195
147.6372, 39.22081
148.1193, 40.87202
148.6014, 42.50123
149.0836, 44.12977
149.5657, 45.89488
150.0478, 47.66161
150.5299, 49.63415
151.0120, 51.91975
151.4941, 54.56578
151.9763, 57.43471
152.4584, 60.46725
152.9405, 63.70004
153.4226, 67.36950
153.9047, 71.43542
154.3868, 75.97839
154.8690, 81.04153
155.3511, 86.36656
155.8332, 92.48644
156.3153, 99.23177
156.7974, 106.6863
157.2795, 115.5186
157.7617, 125.8077
158.2438, 137.5608
158.7259, 150.7840
159.2080, 165.9406
159.6901, 182.1317
160.1722, 199.1093
160.6544, 216.8779
161.1365, 235.6601
161.6186, 256.7458
162.1007, 278.1530
162.5828, 298.5546
163.0649, 322.8228
163.5471, 341.3149
164.0292, 351.3091
164.5113, 352.6767
164.9934, 341.7065
165.4755, 310.6372
165.9576, 267.4987
166.4398, 222.7346
166.9219, 174.2902
167.4040, 129.1839
167.8861, 92.57764
168.3682, 64.62597
168.8503, 42.68690
169.3325, 26.61971
169.8146, 15.23116
170.2967, 6.786095
170.7788, 1.590149
171.2609, 1.752083
171.7430, 4.334568
172.2252, 6.246563
172.7073, 7.447456
173.1894, 7.645336
173.6715, 7.094509
174.1536, 6.353329
174.6357, 5.787945
175.1179, 5.135399
175.6000, 4.052597
176.0821, 2.494366
176.5642, 0.6503680
177.0463, 1.331997
177.5284, 3.466736
178.0106, 5.758274
178.4927, 8.307205
178.9748, 11.00439
179.4569, 13.59237
179.9390, 16.04604
180.4211, 18.48392
180.9033, 21.08046
181.3854, 23.82875
181.8675, 26.61954
182.3496, 29.31505
182.8317, 32.00974
183.3138, 35.11344
183.7960, 38.70237
184.2781, 42.53238
184.7602, 46.12161
185.2423, 49.54409
185.7244, 53.03921
186.2065, 56.92063
186.6887, 61.16220
187.1708, 65.59279
187.6529, 70.14806
188.1350, 74.97954
188.6171, 80.18206
189.0992, 85.80423
189.5814, 91.93189
190.0635, 98.60328
190.5456, 105.8874
191.0277, 113.5875
191.5098, 121.6195
191.9919, 130.2589
192.4741, 139.9788
192.9562, 150.7546
193.4383, 162.1016
193.9204, 173.8377
194.4025, 185.9128
194.8846, 197.6969
195.3668, 209.3448
195.8489, 220.4102
196.3310, 230.2587
196.8131, 239.0378
197.2952, 245.4226
197.7773, 248.0557
198.2595, 246.8343
198.7416, 244.6848
199.2237, 241.5232
199.7058, 238.0090
200.1879, 235.8336
200.6700, 234.9407
201.1522, 235.5711
201.6343, 237.8953
202.1164, 241.9326
202.5985, 247.5346
203.0806, 254.6792
203.5627, 263.3229
204.0449, 273.3451
204.5270, 284.8454
205.0091, 297.3913
205.4912, 310.5578
205.9733, 324.1962
206.4554, 339.4304
206.9376, 356.7662
207.4197, 375.6325
207.9018, 394.4389
208.3839, 412.9680
208.8660, 432.0806
209.3481, 452.3488
209.8303, 474.2056
210.3124, 495.7903
210.7945, 517.0471
211.2766, 537.7975
211.7587, 558.2717
212.2408, 578.9224
212.7230, 598.4474
213.2051, 616.2662
213.6872, 632.4021
214.1693, 646.8009
214.6514, 659.3912
215.1335, 670.1964
215.6157, 678.7297
216.0978, 684.7759
216.5799, 689.0312
217.0620, 691.7658
217.5441, 692.4714
218.0262, 693.0813
218.5084, 693.6995
218.9905, 694.3657
219.4726, 695.3428
219.9547, 696.9780
220.4368, 698.3726
220.9189, 698.9805
221.4011, 698.7862
221.8832, 697.9836
222.3653, 696.8950
222.8474, 695.2443
223.3295, 691.6813
223.8116, 686.2893
224.2938, 679.0038
224.7759, 669.6755
225.2580, 658.0090
225.7401, 645.1542
226.2222, 630.7782
226.7043, 615.2632
227.1865, 599.4762
227.6686, 583.6495
228.1507, 567.6462
228.6328, 551.4136
229.1149, 534.6364
229.5970, 518.1647
230.0792, 502.3054
230.5613, 486.9000
231.0434, 471.7367
231.5255, 457.1664
232.0076, 442.7393
232.4897, 428.4436
232.9719, 414.6239
233.4540, 400.2454
233.9361, 384.8811
234.4182, 368.9412
234.9003, 353.5447
235.3824, 338.7086
235.8646, 324.2528
236.3467, 310.0242
236.8288, 295.7136
237.3109, 282.2588
237.7930, 269.7195
238.2751, 257.9892
238.7573, 247.1465
239.2394, 237.2574
239.7215, 228.1336
240.2036, 219.6318
240.6857, 211.8201
241.1678, 204.4917
241.6500, 197.7679
242.1321, 191.5194
242.6142, 185.2978
243.0963, 179.1047
243.5784, 172.9819
244.0605, 167.0011
244.5427, 161.1082
245.0248, 155.4126
245.5069, 149.9352
245.9890, 144.6289
246.4711, 139.5248
246.9532, 134.7967
247.4354, 129.9095
247.9175, 124.6671
248.3996, 118.8748
248.8817, 113.2642
249.3638, 107.8259
249.8459, 102.5771
250.3281, 97.55575
250.8102, 92.78241
251.2923, 88.18685
251.7744, 83.68138
252.2565, 79.27885
252.7386, 75.08417
253.2208, 71.04775
253.7029, 67.25875
254.1850, 63.81958
254.6671, 60.87335
255.1492, 57.97819
255.6313, 54.99324
256.1135, 51.88868
256.5956, 48.94120
257.0777, 46.14175
257.5598, 43.54119
258.0419, 41.27646
258.5240, 39.55989
259.0062, 37.75210
259.4883, 35.58002
259.9704, 33.03623
260.4525, 30.85025
260.9346, 29.14923
261.4167, 27.69455
261.8989, 26.20275
262.3810, 24.64254
262.8631, 23.15095
263.3452, 21.81097
263.8273, 20.61179
264.3094, 19.41461
264.7916, 18.13588
265.2737, 16.89614
265.7558, 15.82058
266.2379, 14.98241
266.7200, 14.09812
267.2021, 13.06750
267.6843, 11.92201
268.1664, 10.87962
268.6485, 9.925835
269.1306, 9.113388
269.6127, 8.567314
270.0948, 8.384041
270.5770, 8.017715
271.0591, 7.314907
271.5412, 6.369553
272.0233, 5.612770
272.5054, 5.106403
272.9875, 4.658756
273.4697, 4.129791
273.9518, 3.494835
274.4339, 2.903160
274.9160, 2.374794
275.3981, 1.902367
275.8802, 1.433300
276.3624, 0.9570620
276.8445, 0.5618590
277.3266, 0.3626520
277.8087, 0.3822400
278.2908, 0.2428780
278.7729, 0.1282920
279.2551, 0.6238250
279.7372, 1.010654
280.2193, 1.289768
280.7014, 1.459980
281.1835, 1.460556
281.6656, 1.295986
282.1478, 1.281712
282.6299, 1.460205
283.1120, 1.733032
283.5941, 1.951218
284.0762, 2.115330
284.5583, 2.234962
285.0405, 2.332985
285.5226, 2.398956
286.0047, 2.332951
286.4868, 2.110233
286.9689, 1.829788
287.4510, 1.623745
287.9332, 1.486755
288.4153, 1.352097
288.8974, 1.195396
289.3795, 1.016911
289.8616, 0.8250390
290.3438, 0.6093600
290.8259, 0.3843460
291.3080, 0.2027240
291.7901, 4.6246000E-02
292.2722, 0.2264290
292.7543, 0.7466660
293.2365, 1.387825
293.7186, 1.804752
294.2007, 1.990505
294.6828, 2.166031
295.1649, 2.431053
295.6470, 2.824890
296.1292, 3.527328
296.6113, 4.724155
297.0934, 6.077641
297.5755, 7.006866
298.0576, 7.548603
298.5397, 8.092705
299.0219, 8.926773
299.5040, 9.956669
299.9861, 10.96421
300.4682, 11.89642
300.9503, 12.89416
301.4324, 14.19557
301.9146, 15.73838
302.3967, 17.29474
302.8788, 18.71282
303.3609, 20.05111
303.8430, 21.39897
304.3251, 22.80218
304.8073, 24.08590
305.2894, 25.13375
305.7715, 25.94280
306.2536, 26.53393
306.7357, 27.08130
307.2178, 27.32095
307.7000, 26.92397
308.1821, 25.83488
308.6642, 24.39549
309.1463, 22.67682
309.6284, 20.80790
310.1105, 18.96311
310.5927, 17.19325
311.0748, 15.51916
311.5569, 13.81183
312.0390, 12.08198
312.5211, 10.79253
313.0032, 10.76064
313.4854, 11.08078
313.9675, 10.79168
314.4496, 9.056820
314.9317, 7.112221
315.4138, 5.374950
315.8959, 3.870743
316.3781, 2.687706
316.8602, 2.035351
317.3423, 1.633587
317.8244, 1.278503
318.3065, 0.8545760
318.7886, 0.5731430
319.2708, 0.6495970
319.7529, 0.9441830
320.2350, 1.063778
320.7171, 0.6398810
321.1992, 0.2003710
321.6813, 2.0992000E-02
322.1635, 0.2479170
322.6456, 0.4795530
323.1277, 0.6081090
323.6098, 0.6984980
324.0919, 0.8600160
324.5740, 1.198883
325.0562, 1.527718
325.5383, 1.780636
326.0204, 1.931519
326.5025, 2.101650
326.9846, 2.193897
327.4667, 2.352051
327.9489, 2.731564
328.4310, 3.590115
328.9131, 4.384361
329.3952, 5.034950
329.8773, 5.540096
330.3594, 5.987396
330.8416, 6.185032
331.3237, 6.482025
331.8058, 7.147812
332.2879, 8.356476
332.7700, 9.719341
333.2521, 11.20952
333.7343, 12.82111
334.2164, 14.60058
334.6985, 16.66183
335.1806, 18.65645
335.6627, 20.47148
336.1448, 22.23265
336.6270, 23.36641
337.1091, 23.85003
337.5912, 23.69240
338.0733, 22.80432
338.5554, 21.05868
339.0375, 18.95193
339.5197, 16.54653
340.0018, 13.84414
340.4839, 11.61134
340.9660, 9.948547
341.4481, 8.604610
341.9302, 7.298191
342.4124, 6.010963
342.8945, 4.925209
343.3766, 4.131966
343.8587, 3.588364
344.3408, 3.038914
344.8229, 2.480991
345.3051, 1.972851
345.7872, 1.621216
346.2693, 1.393204
346.7514, 1.033890
347.2335, 0.4142300
347.7156, 0.2587890
348.1978, 0.5120510
348.6799, 0.3751640
349.1620, 0.2166820
349.6441, 0.2675670
350.1262, 0.4800910
350.6083, 0.7772290
351.0905, 1.181427
351.5726, 1.557091
352.0547, 1.733009
352.5368, 1.748505
353.0189, 1.721752
353.5010, 1.746620
353.9832, 1.743999
354.4653, 1.595463
354.9474, 1.293823
355.4295, 0.9645040
355.9116, 0.8245580
356.3937, 0.6936110
356.8759, 0.3060840
357.3580, 0.5722200
357.8401, 1.628990
358.3222, 2.693947
358.8043, 3.772938
359.2864, 4.836174
359.7686, 5.741035
360.2507, 6.697369
360.7328, 7.861862
361.2149, 9.250034
361.6970, 10.89806
362.1791, 12.85959
362.6613, 15.09233
363.1434, 17.49941
363.6255, 20.21040
364.1076, 22.95926
364.5897, 25.60228
365.0718, 27.97840
365.5540, 30.56484
366.0361, 33.38725
366.5182, 36.47924
367.0003, 39.88134
367.4824, 43.28234
367.9645, 47.31842
368.4467, 52.14801
368.9288, 57.70081
369.4109, 63.96354
369.8930, 70.80291
370.3751, 78.45749
370.8572, 87.08513
371.3394, 96.23890
371.8215, 106.9806
372.3036, 119.7162
372.7857, 134.0984
373.2678, 149.5640
373.7499, 168.3675
374.2321, 184.5051
374.7142, 195.0057
375.1963, 199.3452
375.6784, 199.8148
376.1605, 194.4120
376.6426, 187.6772
377.1248, 186.5166
377.6069, 191.2025
378.0890, 199.9059
378.5711, 214.2129
379.0532, 232.6915
379.5353, 245.5324
380.0175, 253.6276
380.4996, 252.2297
380.9817, 233.3332
381.4638, 198.9174
381.9459, 163.7434
382.4280, 129.7121
382.9102, 98.40877
383.3923, 73.99061
383.8744, 56.00091
384.3565, 41.89727
384.8386, 30.96321
385.3207, 22.61612
385.8029, 16.31045
386.2850, 12.09679
386.7671, 9.024040
387.2492, 6.337540
387.7313, 4.021206
388.2134, 2.092594
388.6956, 0.6915130
389.1777, 0.3859020
389.6598, 1.304394
390.1419, 2.063084
390.6240, 2.664688
391.1061, 3.100769
391.5883, 3.389072
392.0704, 3.545799
392.5525, 3.532330
393.0346, 3.447002
393.5167, 3.305618
393.9988, 3.121872
394.4810, 2.932068
394.9631, 2.911659
395.4452, 2.761234
395.9273, 2.300659
396.4094, 1.422401
396.8915, 0.5106960
397.3737, 0.3375700
397.8558, 1.190884
398.3379, 2.133358
398.8200, 2.924412
399.3021, 4.070950
399.7842, 5.717793
400.2664, 7.859703
400.7485, 10.16946
401.2306, 12.69389
401.7127, 15.30814
402.1948, 17.92342
402.6769, 20.50654
403.1591, 23.13553
403.6412, 25.76108
404.1233, 28.45655
404.6054, 31.51618
405.0875, 34.98933
405.5696, 38.50502
406.0518, 41.86568
406.5339, 45.08029
407.0160, 48.73053
407.4981, 52.77490
407.9802, 57.20283
408.4623, 61.84686
408.9445, 66.73835
409.4266, 72.47590
409.9087, 79.18671
410.3908, 86.87586
410.8729, 95.53354
411.3550, 105.1968
411.8372, 115.6159
412.3193, 126.6058
412.8014, 138.3447
413.2835, 151.2852
413.7656, 165.5667
414.2477, 181.0273
414.7299, 197.9331
415.2120, 215.9211
415.6941, 233.5481
416.1762, 251.4753
416.6583, 268.0597
417.1404, 282.8398
417.6226, 295.7707
418.1047, 303.8695
418.5868, 305.7508
419.0689, 301.9168
419.5510, 292.6758
420.0331, 276.0605
420.5153, 256.8015
420.9974, 234.8935
421.4795, 211.6385
421.9616, 191.2225
422.4437, 174.3871
422.9258, 160.6257
423.4080, 149.9864
423.8901, 142.7855
424.3722, 137.1331
424.8543, 133.2516
425.3364, 130.6905
425.8185, 129.0196
426.3007, 127.9858
426.7828, 128.2078
427.2649, 129.9238
427.7470, 133.0017
428.2291, 136.5930
428.7112, 140.2453
429.1934, 145.1618
429.6755, 152.0580
430.1576, 160.9462
430.6397, 171.3812
431.1218, 182.8602
431.6039, 196.5963
432.0861, 214.5274
432.5682, 236.6986
433.0503, 262.9559
433.5324, 293.3515
434.0145, 327.9345
434.4966, 366.7493
434.9788, 409.7837
435.4609, 457.2751
435.9430, 509.3997
436.4251, 566.7275
436.9072, 630.9238
437.3893, 703.9559
437.8715, 780.7711
438.3536, 869.9023
438.8357, 960.2648
439.3178, 1020.913
439.7999, 1043.227
440.2820, 1023.864
440.7642, 947.3153
441.2463, 812.1318
441.7284, 671.7375
442.2105, 537.8381
442.6926, 419.8226
443.1747, 326.9128
443.6569, 268.8029
444.1390, 227.2917
444.6211, 201.3872
445.1032, 188.5303
445.5853, 182.1768
446.0674, 183.6591
446.5496, 189.0022
447.0317, 197.0996
447.5138, 208.5013
447.9959, 220.7871
448.4780, 233.8297
448.9601, 247.9414
449.4423, 263.6129
449.9244, 280.5608
450.4065, 299.3443
450.8886, 320.0873
451.3707, 342.6401
451.8528, 366.9779
452.3350, 392.9585
452.8171, 421.7910
453.2992, 454.0746
453.7813, 489.9529
454.2634, 530.8623
454.7455, 576.8322
455.2277, 628.8353
455.7098, 688.5981
456.1919, 755.7188
456.6740, 831.8486
457.1561, 916.2167
457.6382, 1009.258
458.1204, 1110.127
458.6025, 1219.323
459.0846, 1333.581
459.5667, 1456.653
460.0488, 1582.570
460.5309, 1708.637
461.0131, 1837.998
461.4952, 1949.014
461.9773, 2037.740
462.4594, 2094.462
462.9415, 2105.676
463.4236, 2057.608
463.9058, 1970.536
464.3879, 1838.990
464.8700, 1669.010
465.3521, 1499.508
465.8342, 1326.539
466.3163, 1164.809
466.7985, 1021.997
467.2806, 901.8161
467.7627, 795.9210
468.2448, 707.2192
468.7269, 632.2360
469.2090, 565.2490
469.6912, 506.3632
470.1733, 454.1472
470.6554, 408.6952
471.1375, 369.7828
471.6196, 335.3837
472.1017, 305.5688
472.5839, 279.9784
473.0660, 258.1828
473.5481, 240.3035
474.0302, 224.8412
474.5123, 211.8115
474.9944, 200.8244
475.4766, 191.3348
475.9587, 183.3744
476.4408, 177.1592
476.9229, 173.3945
477.4050, 171.1207
477.8871, 169.0096
478.3693, 167.0535
478.8514, 165.1656
479.3335, 163.7818
479.8156, 162.2112
480.2977, 159.8358
480.7798, 156.8074
481.2620, 152.1151
481.7441, 144.2748
482.2262, 134.5918
482.7083, 124.9936
483.1904, 115.9948
483.6725, 107.2584
484.1547, 98.48656
484.6368, 89.78297
485.1189, 82.05956
485.6010, 75.78870
486.0831, 70.26220
486.5652, 65.16557
487.0474, 60.45524
487.5295, 56.21505
488.0116, 52.65841
488.4937, 49.46403
488.9758, 46.10067
489.4579, 42.39252
489.9401, 39.02514
490.4222, 36.12500
490.9043, 33.68635
491.3864, 31.64079
491.8685, 30.02719
492.3506, 28.48473
492.8328, 26.73394
493.3149, 24.84000
493.7970, 23.06004
494.2791, 21.41350
494.7612, 19.85684
495.2433, 18.29402
495.7255, 16.76145
496.2076, 15.33474
496.6897, 14.08655
497.1718, 12.91225
497.6539, 11.75205
498.1360, 10.60737
498.6182, 9.451630
499.1003, 8.100868
499.5824, 6.859436
500.0645, 6.048710
500.5466, 5.805103
501.0287, 5.441837
501.5109, 4.645603
501.9930, 3.681217
502.4751, 2.824329
502.9572, 2.158073
503.4393, 1.544197
503.9214, 0.9902650
504.4036, 0.4857980
504.8857, 3.8605001E-02
505.3678, 0.6608700
505.8499, 1.179226
506.3320, 1.501762
506.8141, 1.618275
507.2963, 1.695839
507.7784, 1.754601
508.2605, 1.725765
508.7426, 1.390957
509.2247, 0.7941280
509.7068, 0.6660310
510.1890, 1.265251
510.6711, 2.158581
511.1532, 2.669315
511.6353, 2.836533
512.1174, 2.834480
512.5995, 2.675793
513.0817, 2.444435
513.5638, 2.210247
514.0459, 1.979458
514.5280, 1.819160
515.0101, 1.872662
515.4922, 1.964745
515.9744, 1.925022
516.4565, 1.673382
516.9386, 1.377590
517.4207, 1.022266
517.9028, 0.6701510
518.3849, 0.4245150
518.8671, 0.3982510
519.3492, 0.3781050
519.8313, 0.3459130
520.3134, 0.2954860
520.7955, 0.1287040
521.2776, 0.2592120
521.7598, 0.6148110
522.2419, 0.7362400
522.7240, 0.5249100
523.2061, 0.6568640
523.6882, 1.229389
524.1703, 1.947933
524.6525, 2.359753
525.1346, 2.488312
525.6167, 2.814671
526.0988, 3.557411
526.5809, 4.491810
527.0630, 5.202454
527.5452, 5.713417
528.0273, 6.192944
528.5094, 6.689209
528.9915, 7.214764
529.4736, 7.797997
529.9557, 8.454639
530.4379, 9.187740
530.9200, 10.02355
531.4021, 10.91768
531.8842, 11.82666
532.3663, 12.72326
532.8484, 13.64764
533.3306, 14.57430
533.8127, 15.54646
534.2948, 16.63263
534.7769, 17.86610
535.2590, 19.18768
535.7411, 20.57884
536.2233, 22.03556
536.7054, 23.67007
537.1875, 25.68627
537.6696, 27.47460
538.1517, 28.62251
538.6339, 29.10175
539.1160, 29.37364
539.5981, 29.53397
540.0802, 29.30109
540.5623, 28.16119
541.0444, 26.22217
541.5266, 24.07304
542.0087, 21.85342
542.4908, 19.56898
542.9729, 17.15463
543.4550, 14.69821
543.9371, 12.45966
544.4193, 10.49089
544.9014, 8.840080
545.3835, 7.578682
545.8656, 6.720261
546.3477, 6.061703
546.8298, 5.555012
547.3120, 5.181305
547.7941, 4.930172
548.2762, 4.786594
548.7583, 4.776535
549.2404, 4.889526
549.7225, 5.134109
550.2047, 5.544128
550.6868, 6.203232
551.1689, 6.862991
551.6510, 7.417912
552.1331, 7.913563
552.6152, 8.650440
553.0974, 9.654644
553.5795, 10.77595
554.0616, 11.93670
554.5437, 13.13427
555.0258, 14.37358
555.5079, 15.66984
555.9901, 16.94106
556.4722, 17.91100
556.9543, 18.82382
557.4364, 20.20601
557.9185, 22.33651
558.4006, 24.78222
558.8828, 27.19180
559.3649, 29.65835
559.8470, 32.44873
560.3291, 35.74834
560.8112, 39.31935
561.2933, 43.03712
561.7755, 46.89410
562.2576, 51.16785
562.7397, 56.09398
563.2218, 61.22163
563.7039, 66.38769
564.1860, 71.67298
564.6682, 76.98333
565.1503, 82.85548
565.6324, 88.15706
566.1145, 91.64045
566.5966, 93.41592
567.0787, 92.65765
567.5609, 88.93088
568.0430, 82.84715
568.5251, 75.34830
569.0072, 66.53105
569.4893, 57.61465
569.9714, 48.57233
570.4536, 40.05146
570.9357, 32.98074
571.4178, 27.36452
571.8999, 22.57500
572.3820, 18.39897
572.8641, 14.80697
573.3463, 11.86766
573.8284, 9.635406
574.3105, 7.873161
574.7926, 6.760941
575.2747, 5.988504
575.7568, 5.165314
576.2390, 4.064796
576.7211, 3.136154
577.2032, 2.467503
577.6853, 2.001038
578.1674, 1.568798
578.6495, 1.175617
579.1317, 0.8279880
579.6138, 0.5068510
580.0959, 0.2149940
580.5780, 1.4254000E-02
581.0601, 0.1855140
581.5422, 0.2771260
582.0244, 0.1927010
582.5065, 2.1629000E-02
582.9886, 4.1080001E-03
583.4707, 0.1948360
583.9528, 0.4224110
584.4349, 0.6046310
584.9171, 0.7073060
585.3992, 0.6767540
585.8813, 0.2957900
586.3634, 6.6700000E-03
586.8455, 1.1745000E-02
587.3276, 0.2502310
587.8098, 0.4298000
588.2919, 0.5041140
588.7740, 0.5029370
589.2561, 0.4010470
589.7382, 0.1951920
590.2203, 9.5504999E-02
590.7025, 0.1409530
591.1846, 0.2219330
591.6667, 0.2792400
592.1488, 0.3146310
592.6309, 0.2884620
593.1130, 0.1813160
593.5952, 8.0750003E-02
594.0773, 0.1632770
594.5594, 0.3590220
595.0415, 0.3666210
595.5236, 2.1229001E-02
596.0057, 0.3687550
596.4879, 0.4305820
596.9700, 0.2681920
597.4521, 0.1243130
597.9342, 0.1085090
598.4163, 0.1439900
598.8984, 0.2221870
599.3806, 0.3308030
599.8627, 0.3761810
600.3448, 0.2589680
600.8269, 0.1400700
601.3090, 0.1004700
601.7911, 0.1688500
602.2733, 0.1938690
602.7554, 0.1317710
603.2375, 8.7673001E-02
603.7196, 0.2000870
604.2017, 0.4968870
604.6838, 0.6436270
605.1660, 0.5623530
605.6481, 0.4079320
606.1302, 0.4349350
606.6123, 0.6136820
607.0944, 0.8073670
607.5765, 0.9765190
608.0587, 1.124868
608.5408, 1.278835
609.0229, 1.421555
609.5050, 1.495935
609.9871, 1.413004
610.4692, 1.299374
610.9514, 1.207151
611.4335, 1.136187
611.9156, 1.156683
612.3977, 1.385063
612.8798, 1.631323
613.3619, 1.781145
613.8441, 1.791449
614.3262, 1.810528
614.8083, 1.839424
615.2904, 1.873407
615.7725, 1.889992
616.2546, 1.884172
616.7368, 1.971655
617.2189, 2.208679
617.7010, 2.492409
618.1831, 2.618870
618.6652, 2.621836
619.1473, 2.637630
619.6295, 2.769243
620.1116, 2.920546
620.5937, 3.013195
621.0758, 3.045362
621.5579, 3.007736
622.0400, 2.786921
622.5222, 2.581837
623.0043, 2.526590
623.4864, 2.665812
623.9685, 2.766455
624.4506, 2.742508
624.9327, 2.725121
625.4149, 2.809793
625.8970, 3.045038
626.3791, 3.242403
626.8612, 3.408802
627.3433, 3.514090
627.8254, 3.444349
628.3076, 3.214819
628.7897, 3.177320
629.2718, 3.485645
629.7539, 3.920212
630.2360, 4.142073
630.7181, 4.195225
631.2003, 4.214970
631.6824, 4.217657
632.1645, 4.254414
632.6466, 4.367670
633.1287, 4.553432
633.6108, 4.776558
634.0930, 5.080246
634.5751, 5.374088
635.0572, 5.578295
635.5393, 5.643835
636.0214, 5.880836
636.5035, 6.391119
636.9857, 6.943316
637.4678, 7.344366
637.9499, 7.562111
638.4320, 7.830137
638.9141, 8.165247
639.3962, 8.549997
639.8784, 8.956264
640.3605, 9.396866
640.8426, 9.917259
641.3247, 10.53043
641.8068, 11.18397
642.2889, 11.87599
642.7711, 12.57615
643.2532, 13.23202
643.7353, 13.70820
644.2174, 14.26427
644.6995, 15.03382
645.1816, 15.97610
645.6638, 16.91050
646.1459, 17.80438
646.6280, 18.70688
647.1101, 19.63924
647.5922, 20.59704
648.0743, 21.64777
648.5565, 22.80416
649.0386, 23.96625
649.5207, 25.06718
650.0028, 26.09987
650.4849, 26.99255
650.9670, 27.73330
651.4492, 28.35728
651.9313, 28.98773
652.4134, 29.48283
652.8955, 29.59315
653.3776, 29.25816
653.8597, 28.59750
654.3419, 27.56785
654.8240, 26.26649
655.3061, 24.86791
655.7882, 23.38470
656.2703, 21.85827
656.7524, 20.23138
657.2346, 18.56924
657.7167, 17.06215
658.1988, 15.73316
658.6809, 14.49157
659.1630, 13.30943
659.6451, 12.19537
660.1273, 11.19240
660.6094, 10.28879
661.0915, 9.436195
661.5736, 8.583868
662.0557, 7.763025
662.5378, 7.006149
663.0200, 6.310551
663.5021, 5.720739
663.9842, 5.310841
664.4663, 5.008104
664.9484, 4.769968
665.4305, 4.642021
665.9127, 4.411034
666.3948, 3.881823
666.8769, 3.302681
667.3590, 2.928095
667.8411, 2.879242
668.3232, 2.786808
668.8054, 2.628139
669.2875, 2.412100
669.7696, 2.136032
670.2517, 1.801451
670.7338, 1.486593
671.2159, 1.192226
671.6981, 0.9592630
672.1802, 0.9030670
672.6623, 0.9849300
673.1444, 1.064400
673.6265, 1.067511
674.1086, 1.040182
674.5908, 1.001253
675.0729, 0.9581150
675.5550, 0.9430120
676.0371, 1.010399
676.5192, 1.064445
677.0013, 1.057859
677.4835, 0.9851720
677.9656, 0.9193530
678.4477, 0.8458610
678.9298, 0.8038500
679.4119, 0.8134140
679.8940, 0.8743780
680.3762, 1.027901
680.8583, 1.293978
681.3404, 1.553938
681.8225, 1.653736
682.3046, 1.660627
682.7867, 1.724791
683.2689, 1.890497
683.7510, 2.070934
684.2331, 2.137230
684.7152, 2.200634
685.1973, 2.401003
685.6794, 2.938255
686.1616, 3.422064
686.6437, 3.755510
687.1258, 4.004486
687.6079, 4.265911
688.0900, 4.515642
688.5721, 4.829254
689.0543, 5.230749
689.5364, 5.699024
690.0185, 6.166811
690.5006, 6.634907
690.9827, 7.180445
691.4648, 7.971355
691.9470, 8.801918
692.4291, 9.320345
692.9112, 9.576670
693.3933, 9.847790
693.8754, 10.27249
694.3575, 10.77933
694.8397, 11.37056
695.3218, 12.06216
695.8039, 12.61663
696.2860, 12.92436
696.7681, 13.16708
697.2502, 13.40116
697.7324, 13.57845
698.2145, 14.02143
698.6966, 14.79793
699.1787, 15.64993
699.6608, 16.27143
700.1429, 16.72813
700.6251, 17.41684
701.1072, 18.42681
701.5893, 19.45295
702.0714, 20.37110
702.5535, 21.05673
703.0356, 21.31443
703.5178, 20.97205
703.9999, 20.39216
704.4820, 19.61858
704.9641, 18.71018
705.4462, 17.75353
705.9283, 16.79398
706.4105, 15.75721
706.8926, 14.55207
707.3747, 13.27521
707.8568, 12.17804
708.3389, 11.26091
708.8210, 10.48695
709.3032, 9.834385
709.7853, 9.333609
710.2674, 9.051407
710.7495, 8.984436
711.2316, 9.114132
711.7137, 9.559954
712.1959, 10.04617
712.6780, 10.28959
713.1601, 10.36282
713.6422, 10.70834
714.1243, 11.68394
714.6064, 12.73989
715.0886, 13.67599
715.5707, 14.49813
716.0528, 15.22474
716.5349, 15.85990
717.0170, 16.39599
717.4991, 16.93113
717.9813, 17.41341
718.4634, 17.40881
718.9455, 16.89469
719.4276, 16.13496
719.9097, 15.17496
720.3918, 14.18543
720.8740, 13.43743
721.3561, 12.99475
721.8382, 12.59279
722.3203, 11.98199
722.8024, 11.42271
723.2845, 11.14523
723.7667, 11.33734
724.2488, 11.51284
724.7309, 11.63752
725.2130, 11.78391
725.6951, 12.05329
726.1772, 12.45338
726.6594, 12.85064
727.1415, 13.23104
727.6236, 13.56576
728.1057, 13.87275
728.5878, 14.10303
729.0699, 14.13357
729.5521, 13.90361
730.0342, 13.49985
730.5163, 12.88429
730.9984, 12.14937
731.4805, 11.45809
731.9626, 10.98704
732.4448, 10.38778
732.9269, 9.554441
733.4090, 8.563213
733.8911, 7.613140
734.3732, 6.685898
734.8553, 5.913120
735.3375, 5.363348
735.8196, 4.974968
736.3017, 4.596220
736.7838, 4.233301
737.2659, 3.923357
737.7480, 3.719574
738.2302, 3.563076
738.7123, 3.331171
739.1944, 3.047445
739.6765, 2.915438
740.1586, 3.195829
740.6407, 3.462996
741.1229, 3.486784
741.6050, 3.273911
742.0871, 3.210739
742.5692, 3.345762
743.0513, 3.520964
743.5334, 3.644632
744.0156, 3.730927
744.4977, 3.902218
744.9798, 4.159008
745.4619, 4.436981
745.9440, 4.698017
746.4261, 4.942003
746.9083, 5.177105
747.3904, 5.404123
747.8725, 5.595535
748.3546, 5.748823
748.8367, 5.851620
749.3188, 5.909754
749.8010, 5.958546
750.2831, 5.818398
750.7652, 5.432611
751.2473, 4.943192
751.7294, 4.444668
752.2115, 3.941084
752.6937, 3.396111
753.1758, 2.790157
753.6579, 2.251223
754.1400, 1.938288
754.6221, 1.771332
755.1042, 1.627991
755.5864, 1.497583
756.0685, 1.344309
756.5506, 1.150232
757.0327, 0.9240170
757.5148, 0.6784230
757.9969, 0.3350260
758.4791, 9.5131002E-02
758.9612, 2.8339999E-03
759.4433, 4.0272001E-02
759.9254, 0.1122090
760.4075, 0.2212560
760.8896, 0.3304250
761.3718, 0.4418030
761.8539, 0.5281910
762.3360, 0.4964160
762.8181, 0.4199120
763.3002, 0.4734820
763.7823, 0.8347950
764.2645, 1.106705
764.7466, 1.004314
765.2287, 0.6948530
765.7108, 0.4268280
766.1929, 0.2241310
766.6750, 8.4429003E-02
767.1572, 1.5260000E-03
767.6393, 1.8299000E-02
768.1214, 0.1219230
768.6035, 0.4404160
769.0856, 0.5697880
769.5677, 0.3556820
770.0499, 2.8330000E-02
770.5320, 5.4497000E-02
771.0141, 3.8573999E-02
771.4962, 0.1317630
771.9783, 0.1550640
772.4604, 0.1541560
772.9426, 0.1556890
773.4247, 0.1503770
773.9068, 0.1142120
774.3889, 5.5010002E-03
774.8710, 8.1375003E-02
775.3531, 7.1524002E-02
775.8353, 1.3103000E-02
776.3174, 1.0164000E-02
776.7995, 6.3937999E-02
777.2816, 0.1559850
777.7637, 0.3188950
778.2458, 0.4732510
778.7280, 0.4298250
779.2101, 0.2549400
779.6922, 0.1609950
780.1743, 0.3914990
780.6564, 0.5904220
781.1385, 0.5193390
781.6207, 0.2470260
782.1028, 9.2468001E-02
782.5849, 0.1432630
783.0670, 0.2037470
783.5491, 0.2303370
784.0313, 0.2260270
784.5134, 0.1986770
784.9955, 0.1475280
785.4776, 9.4449997E-02
785.9597, 5.3679999E-02
786.4418, 1.3311000E-02
786.9240, 6.1482999E-02
787.4061, 0.1561030
787.8882, 0.2154160
788.3703, 0.2471560
788.8524, 0.2014560
789.3345, 2.2368999E-02
789.8167, 0.3837640
790.2988, 0.5545350
790.7809, 0.4267750
791.2630, 0.3028700
791.7451, 0.2942940
792.2272, 0.3690570
792.7094, 0.3838250
793.1915, 0.3402900
793.6736, 0.2819120
794.1557, 0.2462500
794.6378, 0.2020210
795.1199, 3.6619000E-02
795.6021, 0.1953490
796.0842, 0.2554610
796.5663, 0.2535460
797.0484, 0.6761930
797.5305, 0.6068740
798.0126, 0.1210310
798.4948, 0.1084670
798.9769, 2.2041000E-02
799.4590, 0.1895580
799.9411, 0.5065770
800.4232, 0.8721810
800.9053, 1.022802
801.3875, 0.9752100
801.8696, 0.8954200
802.3517, 0.8927860
802.8338, 0.8988490
803.3159, 0.8454340
803.7980, 0.7377000
804.2802, 0.6170200
804.7623, 0.4210620
805.2444, 0.2967400
805.7265, 0.3357410
806.2086, 0.5091900
806.6907, 0.5462190
807.1729, 0.4111390
807.6550, 0.2922170
808.1371, 0.3006400
808.6192, 0.3798640
809.1013, 0.3455770
809.5834, 0.2262020
810.0656, 0.1835270
810.5477, 0.4460030
811.0298, 0.7053430
811.5119, 0.6948850
811.9940, 0.4538690
812.4761, 0.3380180
812.9583, 0.5286450
813.4404, 0.6883470
813.9225, 0.6995320
814.4046, 0.5932140
814.8867, 0.5612870
815.3688, 0.6073060
815.8510, 0.6598630
816.3331, 0.6578940
816.8152, 0.6526470
817.2973, 0.7675820
817.7794, 0.9642980
818.2615, 1.092768
818.7437, 0.9962600
819.2258, 0.8908540
819.7079, 0.8682080
820.1900, 0.9366650
820.6721, 1.075039
821.1542, 1.377834
821.6364, 1.486549
822.1185, 1.219269
822.6006, 0.7439060
823.0827, 0.5463920
823.5648, 0.6034470
824.0469, 0.7286220
824.5291, 0.8622490
825.0112, 0.9838470
825.4933, 1.067167
825.9754, 1.116207
826.4575, 1.152988
826.9396, 1.219616
827.4218, 1.276747
827.9039, 1.292952
828.3860, 1.280327
828.8681, 1.325991
829.3502, 1.440491
829.8323, 1.543955
830.3145, 1.595842
830.7966, 1.638248
831.2787, 1.778818
831.7608, 1.984509
832.2429, 2.147411
832.7250, 2.159264
833.2072, 2.165039
833.6893, 2.275455
834.1714, 2.438353
834.6535, 2.506865
835.1356, 2.405338
835.6177, 2.335423
836.0999, 2.346571
836.5820, 2.395479
837.0641, 2.370577
837.5462, 2.280525
838.0283, 2.225233
838.5104, 2.243280
838.9926, 2.296694
839.4747, 2.356190
839.9568, 2.418268
840.4389, 2.477777
840.9210, 2.589252
841.4031, 2.626535
841.8853, 2.504993
842.3674, 2.322065
842.8495, 2.191505
843.3316, 2.094088
843.8137, 2.176451
844.2958, 2.515774
844.7780, 2.898535
845.2601, 2.966368
845.7422, 2.834969
846.2243, 2.803518
846.7064, 3.025190
847.1885, 3.194361
847.6707, 3.052982
848.1528, 2.783043
848.6349, 2.594532
849.1170, 2.485418
849.5991, 2.518211
850.0812, 2.756405
850.5634, 3.039042
851.0455, 3.180449
851.5276, 3.197813
852.0097, 3.219278
852.4918, 3.262104
852.9739, 3.306482
853.4561, 3.341682
853.9382, 3.357136
854.4203, 3.329140
854.9024, 3.192757
855.3845, 3.162443
855.8666, 3.428513
856.3488, 3.672964
856.8309, 3.661669
857.3130, 3.338474
857.7951, 3.171888
858.2772, 3.169102
858.7593, 3.289116
859.2415, 3.626295
859.7236, 4.011976
860.2057, 4.120647
860.6878, 3.926361
861.1699, 3.758894
861.6520, 3.839617
862.1342, 3.945282
862.6163, 3.918251
863.0984, 3.750393
863.5805, 3.659281
864.0626, 3.654343
864.5447, 3.704796
865.0269, 3.818203
865.5090, 3.970800
865.9911, 4.049526
866.4732, 4.070257
866.9553, 4.149281
867.4374, 4.428169
867.9196, 4.733269
868.4017, 4.948179
868.8838, 5.074045
869.3659, 5.151865
869.8480, 5.102633
870.3301, 5.154406
870.8123, 5.425077
871.2944, 5.816872
871.7765, 5.961626
872.2586, 5.883163
872.7407, 5.861107
873.2228, 6.085569
873.7050, 6.347937
874.1871, 6.424562
874.6692, 6.372278
875.1513, 6.317459
875.6334, 6.224146
876.1155, 6.241089
876.5977, 6.516148
877.0798, 6.836897
877.5619, 6.751129
878.0440, 6.219608
878.5261, 5.842964
879.0082, 5.775604
879.4904, 5.804846
879.9725, 5.656664
880.4546, 5.403154
880.9367, 5.168980
881.4188, 4.992805
881.9009, 4.828703
882.3831, 4.668165
882.8652, 4.505320
883.3473, 4.322132
883.8294, 4.074903
884.3115, 4.010452
884.7936, 4.192101
885.2758, 4.352665
885.7579, 4.140305
886.2400, 3.717539
886.7221, 3.443342
887.2042, 3.365744
887.6863, 3.364040
888.1685, 3.438707
888.6506, 3.509014
889.1327, 3.520269
889.6148, 3.468323
890.0969, 3.361851
890.5790, 3.187864
891.0612, 2.986805
891.5433, 2.728569
892.0254, 2.464046
892.5075, 2.448610
892.9896, 2.648882
893.4717, 2.798737
893.9539, 2.728477
894.4360, 2.559092
894.9181, 2.309746
895.4002, 2.011322
895.8823, 1.849058
896.3644, 1.885239
896.8466, 1.956802
897.3287, 2.052622
897.8108, 2.129583
898.2929, 2.025146
898.7750, 1.774258
899.2571, 1.603556
899.7393, 1.660723
900.2214, 1.737572
900.7035, 1.644094
901.1856, 1.455362
901.6677, 1.299526
902.1498, 1.247900
902.6320, 1.160622
903.1141, 1.003077
903.5962, 0.8337270
904.0783, 0.7274270
904.5604, 0.6886440
905.0425, 0.7357540
905.5247, 0.8748170
906.0068, 1.034781
906.4889, 1.208948
906.9710, 1.335594
907.4531, 1.324827
907.9352, 1.114283
908.4174, 0.9534680
908.8995, 0.8730770
909.3816, 0.8629170
909.8637, 0.9338700
910.3458, 1.081841
910.8279, 1.220295
911.3101, 1.346731
911.7922, 1.448765
912.2743, 1.541294
912.7564, 1.595026
913.2385, 1.549236
913.7206, 1.419477
914.2028, 1.326496
914.6849, 1.287300
915.1670, 1.311678
915.6491, 1.429970
916.1312, 1.606659
916.6133, 1.708698
917.0955, 1.732227
917.5776, 1.698040
918.0597, 1.577999
918.5418, 1.458666
919.0239, 1.451996
919.5060, 1.519545
919.9882, 1.589321
920.4703, 1.702660
920.9524, 1.751392
921.4345, 1.687513
921.9166, 1.568302
922.3987, 1.457779
922.8809, 1.372252
923.3630, 1.362190
923.8451, 1.449438
924.3272, 1.513012
924.8093, 1.381947
925.2914, 1.168333
925.7736, 1.022511
926.2557, 0.9744260
926.7378, 0.9421900
927.2199, 0.8782290
927.7020, 0.8509160
928.1841, 0.9075600
928.6663, 1.048006
929.1484, 1.174494
929.6305, 1.290556
930.1126, 1.339647
930.5947, 1.218336
931.0768, 1.054110
931.5590, 1.006084
932.0411, 1.060772
932.5232, 1.151911
933.0053, 1.350061
933.4874, 1.463865
933.9695, 1.394232
934.4517, 1.238127
934.9338, 1.254511
935.4159, 1.447378
935.8980, 1.607412
936.3801, 1.679209
936.8622, 1.687963
937.3444, 1.626699
937.8265, 1.532825
938.3086, 1.458050
938.7907, 1.401453
939.2728, 1.396669
939.7549, 1.468929
940.2371, 1.572506
940.7192, 1.689697
941.2013, 1.822012
941.6834, 1.888680
942.1655, 1.887121
942.6476, 1.816036
943.1298, 1.530539
943.6119, 1.268393
944.0940, 1.372082
944.5761, 1.840645
945.0582, 2.125387
945.5403, 1.879137
946.0225, 1.703037
946.5046, 1.834345
946.9867, 2.168444
947.4688, 2.234301
947.9509, 2.051579
948.4330, 1.951897
948.9152, 2.182646
949.3973, 2.408047
949.8794, 2.203058
950.3615, 1.785492
950.8436, 1.541018
951.3257, 1.739508
951.8079, 1.869860
952.2900, 1.869436
952.7721, 1.840197
953.2542, 1.942965
953.7363, 2.147230
954.2184, 2.199720
954.7006, 2.061960
955.1827, 1.899387
955.6648, 1.830647
956.1469, 1.807686
956.6290, 1.818075
957.1111, 1.874037
957.5933, 1.790880
958.0754, 1.497999
958.5575, 1.195683
959.0396, 0.9595090
959.5217, 0.7956560
960.0038, 0.7861310
960.4860, 0.8904720
960.9681, 0.8981630
961.4502, 0.5728510
961.9323, 0.2438620
962.4144, 0.1170370
962.8965, 0.1256640
963.3787, 0.1206670
963.8608, 8.7038003E-02
964.3429, 6.1503999E-02
964.8250, 5.3247001E-02
965.3071, 4.2332001E-02
965.7892, 1.0290000E-02
966.2714, 4.7052000E-02
966.7535, 0.1633910
967.2356, 0.3593560
967.7177, 0.4920140
968.1998, 0.4200440
968.6819, 0.3040520
969.1641, 0.2509120
969.6462, 0.2624320
970.1283, 0.3308430
970.6104, 0.4669760
971.0925, 0.6019330
971.5746, 0.7048970
972.0568, 0.7763580
972.5389, 0.8032360
973.0210, 0.7979720
973.5031, 0.8019540
973.9852, 0.8838080
974.4673, 0.9137340
974.9495, 0.8249650
975.4316, 0.6798310
975.9137, 0.5999410
976.3958, 0.5935130
976.8779, 0.4910260
977.3600, 0.2378100
977.8422, 2.8929999E-03
978.3243, 2.9851999E-02
978.8064, 0.1331040
979.2885, 1.6279001E-02
979.7706, 0.4355280
980.2527, 0.7604410
980.7349, 0.8208900
981.2170, 0.8296660
981.6991, 0.8755950
982.1812, 0.9614770
982.6633, 1.137217
983.1454, 1.391384
983.6276, 1.611479
984.1097, 1.654863
984.5918, 1.711216
985.0739, 1.946199
985.5560, 2.304789
986.0381, 2.641912
986.5203, 2.986713
987.0024, 3.210524
987.4845, 3.253002
987.9666, 3.253515
988.4487, 3.458954
988.9308, 3.784561
989.4130, 4.011505
989.8951, 4.111671
990.3772, 4.052256
990.8593, 3.610508
991.3414, 3.164696
991.8235, 3.057669
992.3057, 3.316624
992.7878, 3.242008
993.2699, 2.777897
993.7520, 2.336706
994.2341, 2.146242
994.7162, 2.111992
995.1984, 2.112343
995.6805, 2.135691
996.1626, 2.149277
996.6447, 2.164310
997.1268, 2.136011
997.6089, 2.031992
998.0911, 1.906208
998.5732, 1.802088
999.0553, 1.716368
999.5374, 1.758093
1000.020, 1.944876
1000.502, 2.204151
1000.984, 2.472429
1001.466, 2.775864
1001.948, 3.178255
1002.430, 3.701441
1002.912, 4.043550
1003.394, 4.070503
1003.876, 4.140974
1004.359, 4.393839
1004.841, 4.802963
1005.323, 5.369350
1005.805, 6.035660
1006.287, 6.537294
1006.769, 6.584702
1007.251, 6.679287
1007.733, 7.169653
1008.216, 7.819183
1008.698, 8.286530
1009.180, 8.531866
1009.662, 8.761173
1010.144, 8.993074
1010.626, 9.165936
1011.108, 9.194633
1011.590, 9.130344
1012.072, 9.052292
1012.555, 8.963589
1013.037, 8.813274
1013.519, 8.607220
1014.001, 8.298206
1014.483, 7.830364
1014.965, 7.263077
1015.447, 6.807991
1015.929, 6.453768
1016.411, 6.087652
1016.894, 5.642555
1017.376, 5.242668
1017.858, 4.960522
1018.340, 4.814766
1018.822, 4.857355
1019.304, 5.260015
1019.786, 5.347479
1020.268, 5.002127
1020.751, 4.682386
1021.233, 4.829229
1021.715, 5.246328
1022.197, 5.400583
1022.679, 5.321447
1023.161, 5.232479
1023.643, 5.149748
1024.125, 5.182455
1024.607, 5.435921
1025.090, 5.800228
1025.572, 6.093931
1026.054, 6.335640
1026.536, 6.458706
1027.018, 6.450750
1027.500, 6.311781
1027.982, 5.910654
1028.464, 5.445585
1028.947, 5.167870
1029.429, 5.161575
1029.911, 5.145214
1030.393, 5.164398
1030.875, 5.054459
1031.357, 4.708757
1031.839, 4.174759
1032.321, 3.561378
1032.803, 2.917446
1033.286, 2.401939
1033.768, 2.152634
1034.250, 1.972630
1034.732, 1.854053
1035.214, 1.734024
1035.696, 1.497356
1036.178, 1.089268
1036.660, 0.7184180
1037.143, 0.3971100
1037.625, 0.2200780
1038.107, 0.3616450
1038.589, 0.5974390
1039.071, 0.6287770
1039.553, 0.4476430
1040.035, 0.2918360
1040.517, 0.1486400
1041.000, 0.1441350
1041.482, 0.3647190
1041.964, 0.6949920
1042.446, 0.8486630
1042.928, 0.8605840
1043.410, 0.8545190
1043.892, 0.8469050
1044.374, 0.8879510
1044.856, 1.094196
1045.339, 1.299225
1045.821, 1.348446
1046.303, 1.219879
1046.785, 1.091381
1047.267, 0.9643170
1047.749, 0.8286290
1048.231, 0.6523780
1048.713, 0.4837420
1049.195, 0.3331380
1049.677, 0.2401080
1050.160, 0.3191720
1050.642, 0.8966260
1051.124, 1.224998
1051.606, 1.175854
1052.088, 0.9213680
1052.570, 0.6101230
1053.052, 0.2853430
1053.534, 0.1917880
1054.017, 0.3668670
1054.499, 0.4535100
1054.981, 3.7785001E-02
1055.463, 0.3614650
1055.945, 0.3546680
1056.427, 2.5826000E-02
1056.909, 0.1623880
1057.391, 0.2076490
1057.874, 0.1148610
1058.356, 0.2011220
1058.838, 0.4682010
1059.320, 0.2719570
1059.802, 0.1553920
1060.284, 0.4846120
1060.766, 0.5907440
1061.248, 0.7317580
1061.730, 0.9511760
1062.213, 1.141106
1062.695, 1.173435
1063.177, 1.117676
1063.659, 1.214737
1064.141, 1.454655
1064.623, 1.789063
1065.105, 2.341656
1065.587, 2.812805
1066.070, 2.949867
1066.552, 3.011101
1067.034, 3.427628
1067.516, 4.212830
1067.998, 4.825008
1068.480, 5.178303
1068.962, 5.535835
1069.444, 6.120426
1069.927, 6.828697
1070.409, 7.615246
1070.891, 8.458473
1071.373, 9.223789
1071.855, 9.877041
1072.337, 10.54872
1072.819, 11.30289
1073.301, 12.07287
1073.783, 12.79510
1074.266, 13.44375
1074.748, 13.98065
1075.230, 14.42425
1075.712, 14.66701
1076.194, 14.53876
1076.676, 14.35989
1077.158, 14.27916
1077.640, 14.30563
1078.122, 14.55533
1078.604, 15.01165
1079.087, 15.53388
1079.569, 15.95637
1080.051, 16.51136
1080.533, 17.36629
1081.015, 18.43614
1081.497, 19.56993
1081.979, 20.76137
1082.461, 21.95567
1082.944, 23.13428
1083.426, 24.38293
1083.908, 25.66888
1084.390, 27.12667
1084.872, 28.94884
1085.354, 31.13556
1085.836, 33.43027
1086.318, 35.66582
1086.801, 38.29865
1087.283, 41.44686
1087.765, 45.03874
1088.247, 49.06182
1088.729, 53.42569
1089.211, 57.73039
1089.693, 61.79815
1090.175, 66.43922
1090.657, 71.80022
1091.140, 78.09826
1091.622, 85.54368
1092.104, 94.02545
1092.586, 102.4328
1093.068, 110.8967
1093.550, 120.4779
1094.032, 131.7682
1094.514, 144.2954
1094.997, 157.3956
1095.479, 171.6966
1095.961, 188.1785
1096.443, 206.8300
1096.925, 227.5888
1097.407, 250.5348
1097.889, 275.6985
1098.371, 302.6536
1098.854, 331.8137
1099.336, 363.8571
1099.818, 398.6536
1100.300, 435.0724
1100.782, 473.0838
1101.264, 512.3707
1101.746, 552.6873
1102.228, 593.8370
1102.710, 636.9036
1103.193, 680.0104
1103.675, 719.2397
1104.157, 753.9302
1104.639, 787.5009
1105.121, 820.8472
1105.603, 854.3177
1106.085, 886.9550
1106.567, 920.7106
1107.049, 959.6500
1107.531, 1004.628
1108.014, 1057.832
1108.496, 1121.014
1108.978, 1191.536
1109.460, 1272.864
1109.942, 1357.105
1110.424, 1440.382
1110.906, 1524.228
1111.388, 1584.347
1111.871, 1621.289
1112.353, 1626.186
1112.835, 1593.005
1113.317, 1527.834
1113.799, 1426.689
1114.281, 1302.349
1114.763, 1172.954
1115.245, 1036.303
1115.728, 909.2787
1116.210, 791.5048
1116.692, 685.6138
1117.174, 596.1638
1117.656, 520.4802
1118.138, 455.1796
1118.620, 399.4929
1119.102, 350.8733
1119.584, 309.8896
1120.067, 274.7363
1120.549, 245.7225
1121.031, 221.2684
1121.513, 199.8143
1121.995, 181.0470
1122.477, 164.4266
1122.959, 149.6672
1123.441, 136.6779
1123.924, 125.9632
1124.406, 116.4437
1124.888, 107.5542
1125.370, 99.40926
1125.852, 92.46365
1126.334, 86.63668
1126.816, 81.26061
1127.298, 76.17640
1127.781, 71.60759
1128.263, 68.16947
1128.745, 64.98834
1129.227, 61.22939
1129.709, 56.90898
1130.191, 53.22985
1130.673, 50.19439
1131.155, 47.30903
1131.637, 44.37670
1132.120, 41.44245
1132.602, 38.40956
1133.084, 35.44551
1133.566, 32.88960
1134.048, 30.83427
1134.530, 28.88600
1135.012, 27.07574
1135.494, 25.21982
1135.976, 22.99748
1136.458, 20.75585
1136.941, 19.11868
1137.423, 17.93084
1137.905, 16.81869
1138.387, 15.70545
1138.869, 14.60422
1139.351, 13.50775
1139.833, 12.46149
1140.315, 11.50135
1140.798, 10.64261
1141.280, 9.994446
1141.762, 9.509903
1142.244, 8.928314
1142.726, 7.954586
1143.208, 7.120674
1143.690, 6.585243
1144.172, 6.179277
1144.655, 5.601091
1145.137, 4.920298
1145.619, 4.360353
1146.101, 3.952789
1146.583, 3.678284
1147.065, 3.737381
1147.547, 3.684443
1148.029, 3.269264
1148.511, 2.625570
1148.994, 2.087730
1149.476, 1.661016
1149.958, 1.417057
1150.440, 1.397022
1150.922, 1.418856
1151.404, 1.445906
1151.886, 1.377378
1152.368, 1.066992
1152.851, 0.5622920
1153.333, 0.3339180
1153.815, 0.3829440
1154.297, 0.4244040
1154.779, 0.3351500
1155.261, 0.2375180
1155.743, 0.3246400
1156.225, 0.4218410
1156.708, 0.2890280
1157.190, 0.1215290
1157.672, 0.4227030
1158.154, 0.6117170
1158.636, 0.7132470
1159.118, 0.7025950
1159.600, 0.6508750
1160.082, 0.6661800
1160.564, 0.6865560
1161.047, 0.5874810
1161.529, 0.2009910
1162.011, 8.6585999E-02
1162.493, 0.3025680
1162.975, 0.5541740
1163.457, 0.6117650
1163.939, 0.5704020
1164.421, 0.5657010
1164.903, 0.5748900
1165.385, 0.5186920
1165.868, 0.3079110
1166.350, 0.1696680
1166.832, 0.1330010
1167.314, 0.1400390
1167.796, 0.1385310
1168.278, 0.1352140
1168.760, 0.1428640
1169.242, 0.1608220
1169.725, 0.1782300
1170.207, 0.2175290
1170.689, 0.2119060
1171.171, 0.1339890
1171.653, 3.9388999E-02
1172.135, 2.1139000E-02
1172.617, 4.2615999E-02
1173.099, 1.1920000E-03
1173.582, 0.1187170
1174.064, 0.1606940
1174.546, 0.1836800
1175.028, 0.2393740
1175.510, 0.3046510
1175.992, 1.060326
1176.474, 1.222198
1176.956, 0.9458470
1177.438, 0.6238730
1177.921, 0.3065430
1178.403, 0.1563630
1178.885, 0.4515590
1179.367, 0.6794190
1179.849, 0.6033190
1180.331, 0.3388400
1180.813, 0.2329690
1181.295, 0.2547130
1181.778, 0.2869240
1182.260, 0.2928940
1182.742, 0.3231490
1183.224, 0.4539320
1183.706, 0.5575310
1184.188, 0.5375900
1184.670, 0.4326480
1185.152, 0.4616240
1185.635, 0.6073360
1186.117, 0.7885250
1186.599, 1.011353
1187.081, 1.185364
1187.563, 1.186472
1188.045, 1.190344
1188.527, 1.354017
1189.009, 1.656738
1189.491, 1.823002
1189.974, 1.868483
1190.456, 1.905216
1190.938, 1.943605
1191.420, 2.047791
1191.902, 2.319706
1192.384, 2.623947
1192.866, 2.806118
1193.348, 2.861942
1193.830, 3.087317
1194.313, 3.465616
1194.795, 3.779469
1195.277, 3.821999
1195.759, 3.851154
1196.241, 3.945107
1196.723, 4.146975
1197.205, 4.558531
1197.687, 5.189718
1198.169, 5.620161
1198.652, 5.835810
1199.134, 6.041182
1199.616, 6.292356
1200.098, 6.657345
1200.580, 7.325672
1201.062, 8.066467
1201.544, 8.448452
1202.026, 8.455912
1202.509, 8.749851
1202.991, 9.388382
1203.473, 10.06789
1203.955, 10.51006
1204.437, 10.98262
1204.919, 11.69539
1205.401, 12.56572
1205.883, 13.41764
1206.365, 14.25770
1206.848, 14.99265
1207.330, 15.59724
1207.812, 16.32181
1208.294, 17.43388
1208.776, 18.67531
1209.258, 19.86453
1209.740, 21.03713
1210.222, 22.26161
1210.705, 23.55186
1211.187, 24.92646
1211.669, 26.38720
1212.151, 27.97397
1212.633, 29.79350
1213.115, 31.66407
1213.597, 33.36710
1214.079, 34.99706
1214.562, 36.92974
1215.044, 39.15096
1215.526, 41.50494
1216.008, 44.02732
1216.490, 46.44550
1216.972, 48.16903
1217.454, 50.06580
1217.936, 52.81075
1218.418, 56.26713
1218.901, 59.79283
1219.383, 63.43340
1219.865, 67.28252
1220.347, 71.40646
1220.829, 75.51907
1221.311, 79.33136
1221.793, 83.12258
1222.275, 87.14350
1222.757, 91.37839
1223.240, 95.84639
1223.722, 100.5597
1224.204, 105.5645
1224.686, 110.9308
1225.168, 116.4567
1225.650, 122.2621
1226.132, 128.0246
1226.614, 133.3951
1227.096, 138.4688
1227.579, 144.2564
1228.061, 150.6329
1228.543, 156.5442
1229.025, 161.5717
1229.507, 165.9437
1229.989, 169.9368
1230.471, 173.1230
1230.953, 175.2853
1231.436, 176.4222
1231.918, 176.4006
1232.400, 175.1794
1232.882, 172.6514
1233.364, 168.4210
1233.846, 163.5638
1234.328, 158.5706
1234.810, 153.0833
1235.292, 146.6627
1235.775, 139.4980
1236.257, 132.6895
1236.739, 126.2345
1237.221, 119.8895
1237.703, 113.1031
1238.185, 107.0173
1238.667, 102.2275
1239.149, 98.25607
1239.632, 94.97450
1240.114, 92.31441
1240.596, 89.43642
1241.078, 86.49553
1241.560, 84.02335
1242.042, 82.53418
1242.524, 81.20290
1243.006, 79.93433
1243.489, 78.63850
1243.971, 77.35277
1244.453, 75.95821
1244.935, 73.92845
1245.417, 71.39569
1245.899, 68.93419
1246.381, 67.15175
1246.863, 64.80530
1247.345, 61.56674
1247.828, 58.14402
1248.310, 55.19412
1248.792, 52.56480
1249.274, 49.82844
1249.756, 47.01187
1250.238, 44.19014
1250.720, 41.21653
1251.202, 38.55107
1251.684, 36.32168
1252.167, 34.17469
1252.649, 31.66526
1253.131, 29.06387
1253.613, 26.85917
1254.095, 25.00184
1254.577, 23.34898
1255.059, 21.96429
1255.541, 20.56186
1256.023, 19.11016
1256.506, 17.72778
1256.988, 16.51878
1257.470, 15.43860
1257.952, 14.45331
1258.434, 13.55283
1258.916, 12.74379
1259.398, 12.09575
1259.880, 11.29286
1260.363, 10.28276
1260.845, 9.327255
1261.327, 8.699467
1261.809, 8.194504
1262.291, 7.580023
1262.773, 6.912590
1263.255, 6.346964
1263.737, 5.886036
1264.219, 5.567240
1264.702, 5.409414
1265.184, 5.182140
1265.666, 4.553267
1266.148, 3.930363
1266.630, 3.686771
1267.112, 3.663549
1267.594, 3.505642
1268.076, 3.200315
1268.559, 2.949450
1269.041, 2.766857
1269.523, 2.582453
1270.005, 2.274738
1270.487, 2.025949
1270.969, 2.032370
1271.451, 2.112726
1271.933, 2.007763
1272.416, 1.734472
1272.898, 1.510296
1273.380, 1.346363
1273.862, 1.189936
1274.344, 0.9740770
1274.826, 0.8106400
1275.308, 0.7512360
1275.790, 0.7394350
1276.272, 0.7106570
1276.755, 0.6693340
1277.237, 0.6494560
1277.719, 0.6417520
1278.201, 0.5668350
1278.683, 0.2186150
1279.165, 7.5007997E-02
1279.647, 0.3141190
1280.129, 0.5929570
1280.611, 0.4419350
1281.094, 8.2301997E-02
1281.576, 2.9505000E-02
1282.058, 0.2314740
1282.540, 0.3023610
1283.022, 2.0481000E-02
1283.504, 0.1450600
1283.986, 3.6839001E-02
1284.468, 0.2496930
1284.950, 0.1776500
1285.433, 3.2200001E-04
1285.915, 2.8572001E-02
1286.397, 5.1468000E-02
1286.879, 3.4883000E-02
1287.361, 0.1466900
1287.843, 0.1942200
1288.325, 6.7720003E-02
1288.807, 8.4063999E-02
1289.290, 0.1064930
1289.772, 0.1232620
1290.254, 0.3095300
1290.736, 0.5507560
1291.218, 0.5539510
1291.700, 0.2903460
1292.182, 0.1928380
1292.664, 0.2869380
1293.146, 0.3606820
1293.629, 0.3678420
1294.111, 0.3656290
1294.593, 0.4576390
1295.075, 0.3914020
1295.557, 0.4454960
1296.039, 0.5287270
1296.521, 0.4534360
1297.003, 0.2358290
1297.486, 0.1325940
1297.968, 0.4968140
1298.450, 0.7592720
1298.932, 0.8162160
1299.414, 0.7369390
1299.896, 0.5082810
1300.378, 0.2602940
1300.860, 3.3004001E-02
1301.343, 1.6960000E-03
1301.825, 0.0000000E+00
##END=



