##NAMES=Berlinite
##RRUFFID=R130243
##IDEAL CHEMISTRY=AlPO_4_
##LOCALITY=Buranga pegmatite, Gatumba District, Western Province, Rwanda
##OWNER=RRUFF
##SOURCE=Rock Currier
##DESCRIPTION=Massive white to gray vitreous, associated with lazulite, muscovite and apatite.
##STATUS=The identification of this mineral has been confirmed by single-crystal X-ray diffraction.
##URL=rruff.info/R130243
102.1665, 0.0000000E+00
102.6486, 0.1837540
103.1307, 2.038139
103.6128, 6.232872
104.0950, 11.98030
104.5771, 18.96748
105.0592, 27.35200
105.5413, 36.59993
106.0234, 46.15533
106.5055, 57.23634
106.9877, 68.62032
107.4698, 75.44530
107.9519, 76.36086
108.4340, 73.65451
108.9161, 67.22081
109.3982, 58.09637
109.8804, 48.62395
110.3625, 40.53606
110.8446, 33.64758
111.3267, 29.10072
111.8088, 27.33997
112.2909, 27.23812
112.7731, 28.40139
113.2552, 30.74966
113.7373, 34.48726
114.2194, 40.11532
114.7015, 48.73516
115.1836, 58.49599
115.6658, 69.59565
116.1479, 81.43169
116.6300, 93.83873
117.1121, 107.1461
117.5942, 120.2065
118.0763, 130.1855
118.5584, 138.6453
119.0406, 142.1116
119.5227, 138.5461
120.0048, 129.2675
120.4869, 116.5939
120.9690, 100.1318
121.4511, 81.81573
121.9333, 65.37777
122.4154, 50.72829
122.8975, 38.08381
123.3796, 28.02578
123.8617, 20.66972
124.3438, 14.66721
124.8260, 9.897858
125.3081, 6.056404
125.7902, 3.032608
126.2723, 0.8758160
126.7544, 0.5358010
127.2365, 1.376305
127.7187, 1.342903
128.2008, 1.199986
128.6829, 1.173168
129.1650, 1.203892
129.6471, 1.202927
130.1292, 1.103024
130.6114, 0.9159970
131.0935, 0.8213460
131.5756, 0.9116250
132.0577, 1.001663
132.5398, 1.061199
133.0219, 1.084614
133.5041, 1.074474
133.9862, 1.035084
134.4683, 0.9686360
134.9504, 0.8484000
135.4325, 0.6414490
135.9146, 0.3028220
136.3968, 0.5793340
136.8789, 1.928078
137.3610, 3.314255
137.8431, 4.510864
138.3252, 5.340214
138.8073, 5.859058
139.2895, 6.457169
139.7716, 7.122143
140.2537, 7.750404
140.7358, 8.315765
141.2179, 9.001442
141.7000, 10.09172
142.1821, 11.53948
142.6643, 13.05973
143.1464, 14.61132
143.6285, 16.15619
144.1106, 17.57201
144.5927, 18.80853
145.0748, 19.91614
145.5570, 21.01657
146.0391, 22.10573
146.5212, 23.02163
147.0033, 23.49108
147.4854, 23.44178
147.9675, 23.66696
148.4497, 24.41238
148.9318, 25.44222
149.4139, 26.72958
149.8960, 28.24765
150.3781, 29.87147
150.8602, 31.34917
151.3424, 32.44953
151.8245, 33.97204
152.3066, 35.97735
152.7887, 38.34342
153.2708, 41.04077
153.7529, 44.03653
154.2351, 47.26401
154.7172, 50.54078
155.1993, 53.42777
155.6814, 56.94661
156.1635, 61.07645
156.6456, 65.86957
157.1278, 71.41406
157.6099, 77.77456
158.0920, 84.83662
158.5741, 92.16728
159.0562, 99.86633
159.5383, 107.6796
160.0205, 115.7591
160.5026, 123.9106
160.9847, 132.2084
161.4668, 140.9194
161.9489, 149.5431
162.4310, 156.1382
162.9131, 162.6693
163.3953, 165.6780
163.8774, 163.1783
164.3595, 155.3004
164.8416, 142.9523
165.3237, 124.4936
165.8058, 102.1491
166.2880, 81.23244
166.7701, 61.53737
167.2522, 43.96882
167.7343, 29.74884
168.2164, 19.09670
168.6985, 10.88024
169.1807, 5.460991
169.6628, 1.878376
170.1449, 0.7683790
170.6270, 2.668232
171.1091, 3.900372
171.5912, 4.607845
172.0734, 4.677235
172.5555, 4.375160
173.0376, 3.825417
173.5197, 3.047901
174.0018, 2.045460
174.4839, 0.7812230
174.9661, 0.7009770
175.4482, 2.117138
175.9303, 3.390480
176.4124, 4.686424
176.8945, 5.978065
177.3766, 7.327061
177.8588, 8.830807
178.3409, 10.59196
178.8230, 12.61731
179.3051, 14.49937
179.7872, 16.14563
180.2693, 17.74461
180.7515, 19.21084
181.2336, 20.65369
181.7157, 22.30697
182.1978, 24.40391
182.6799, 27.01126
183.1620, 29.38467
183.6441, 31.12412
184.1263, 33.00130
184.6084, 35.45683
185.0905, 38.45688
185.5726, 41.59287
186.0547, 44.38970
186.5368, 46.76244
187.0190, 49.62556
187.5011, 53.10975
187.9832, 56.94489
188.4653, 60.95620
188.9474, 65.09959
189.4296, 69.42461
189.9117, 73.99158
190.3938, 78.80085
190.8759, 83.87453
191.3580, 89.13034
191.8401, 94.67187
192.3223, 100.7190
192.8044, 107.3684
193.2865, 114.2346
193.7686, 121.1775
194.2507, 128.1347
194.7328, 134.6684
195.2150, 141.0706
195.6971, 146.9108
196.1792, 151.3248
196.6613, 154.0902
197.1434, 155.6697
197.6255, 155.9400
198.1077, 155.3365
198.5898, 154.9539
199.0719, 155.1498
199.5540, 155.9780
200.0361, 157.6433
200.5182, 160.1541
201.0004, 163.6496
201.4825, 168.1605
201.9646, 173.5493
202.4467, 179.4349
202.9288, 185.4792
203.4109, 191.7249
203.8930, 198.7397
204.3752, 206.5328
204.8573, 215.2057
205.3394, 224.9727
205.8215, 235.5954
206.3036, 246.6281
206.7857, 257.6417
207.2679, 268.6133
207.7500, 280.0330
208.2321, 292.2588
208.7142, 304.6521
209.1963, 317.1122
209.6784, 329.5569
210.1606, 341.8959
210.6427, 354.1180
211.1248, 366.2055
211.6069, 377.6544
212.0890, 388.8685
212.5711, 399.1353
213.0533, 408.4054
213.5354, 416.5161
214.0175, 423.2263
214.4996, 428.2214
214.9817, 431.3115
215.4638, 433.8251
215.9460, 436.2336
216.4281, 437.8314
216.9102, 437.8637
217.3923, 436.5884
217.8744, 435.1319
218.3565, 434.5519
218.8387, 434.9984
219.3208, 435.0222
219.8029, 434.4329
220.2850, 433.6317
220.7671, 433.0947
221.2492, 432.7302
221.7314, 431.8424
222.2135, 429.9338
222.6956, 426.8425
223.1777, 422.5184
223.6598, 416.4955
224.1419, 409.6096
224.6240, 402.4769
225.1062, 395.1104
225.5883, 387.2766
226.0704, 378.7868
226.5525, 369.6323
227.0346, 359.8846
227.5167, 348.7382
227.9989, 337.4134
228.4810, 327.3997
228.9631, 318.8724
229.4452, 310.5198
229.9273, 301.5101
230.4094, 292.0000
230.8916, 282.3719
231.3737, 272.4917
231.8558, 262.7009
232.3379, 253.4778
232.8200, 244.8970
233.3021, 236.3206
233.7843, 227.1629
234.2664, 217.7688
234.7485, 208.6425
235.2306, 199.9358
235.7127, 191.5221
236.1948, 183.0506
236.6770, 174.2999
237.1591, 166.1953
237.6412, 159.5224
238.1233, 153.6369
238.6054, 147.8391
239.0875, 141.8305
239.5697, 135.9362
240.0518, 130.7781
240.5339, 126.5133
241.0160, 122.4288
241.4981, 118.2468
241.9802, 114.0966
242.4624, 110.1004
242.9445, 106.3082
243.4266, 102.7031
243.9087, 99.30898
244.3908, 96.24811
244.8729, 93.07252
245.3550, 89.60810
245.8372, 86.02283
246.3193, 82.41199
246.8014, 78.79259
247.2835, 75.26407
247.7656, 71.95744
248.2477, 68.95909
248.7299, 66.00687
249.2120, 63.10135
249.6941, 60.20043
250.1762, 57.24059
250.6583, 54.20268
251.1404, 51.20080
251.6226, 48.38824
252.1047, 45.79099
252.5868, 43.38110
253.0689, 41.19580
253.5510, 39.13413
254.0331, 37.11120
254.5153, 35.11419
254.9974, 33.17964
255.4795, 31.35580
255.9616, 29.69976
256.4437, 28.04926
256.9258, 26.31623
257.4080, 24.66050
257.8901, 23.18835
258.3722, 21.91531
258.8543, 20.75949
259.3364, 19.60094
259.8185, 18.37365
260.3007, 17.30697
260.7828, 16.48005
261.2649, 15.70637
261.7470, 14.83611
262.2291, 13.87328
262.7112, 12.98278
263.1934, 12.38155
263.6755, 12.22568
264.1576, 11.77306
264.6397, 10.75911
265.1218, 9.724806
265.6039, 9.021023
266.0861, 8.622208
266.5682, 8.234295
267.0503, 7.548410
267.5324, 6.480413
268.0145, 5.689964
268.4966, 5.310383
268.9788, 5.023304
269.4609, 4.705429
269.9430, 4.347534
270.4251, 3.983477
270.9072, 3.643074
271.3893, 3.331173
271.8715, 2.973133
272.3536, 2.530359
272.8357, 2.090740
273.3178, 1.659489
273.7999, 1.258663
274.2820, 0.9527360
274.7642, 0.8035370
275.2463, 0.7896270
275.7284, 0.6447790
276.2105, 0.2254960
276.6926, 0.1384050
277.1747, 0.3195670
277.6568, 0.3628290
278.1389, 0.3630200
278.6211, 0.3626610
279.1032, 0.3712390
279.5853, 0.4364930
280.0674, 0.5983850
280.5495, 0.7578790
281.0316, 0.9282530
281.5138, 1.075609
281.9959, 1.115017
282.4780, 0.9930780
282.9601, 0.7973690
283.4422, 0.7663460
283.9243, 0.9996010
284.4065, 1.181759
284.8886, 1.187294
285.3707, 1.119442
285.8528, 1.156986
286.3349, 1.371767
286.8170, 1.623106
287.2992, 1.656363
287.7813, 1.412739
288.2634, 1.177444
288.7455, 1.007414
289.2276, 0.8631820
289.7097, 0.6758020
290.1919, 0.4250130
290.6740, 0.1948510
291.1561, 0.1172920
291.6382, 0.2239230
292.1203, 0.2423310
292.6024, 0.1363220
293.0846, 6.4856999E-02
293.5667, 0.3778500
294.0488, 0.7989940
294.5309, 1.184599
295.0130, 1.371250
295.4951, 1.361464
295.9773, 1.488569
296.4594, 1.804390
296.9415, 2.212765
297.4236, 2.694212
297.9057, 3.232891
298.3878, 3.712910
298.8700, 4.018267
299.3521, 4.188257
299.8342, 4.475412
300.3163, 4.924532
300.7984, 5.443995
301.2805, 6.022842
301.7627, 6.642269
302.2448, 7.226591
302.7269, 7.733025
303.2090, 8.180714
303.6911, 8.642788
304.1732, 9.177231
304.6554, 9.638435
305.1375, 10.00053
305.6196, 10.24349
306.1017, 10.31165
306.5838, 10.17883
307.0659, 9.868986
307.5481, 9.404480
308.0302, 8.774208
308.5123, 8.095545
308.9944, 7.398623
309.4765, 6.680372
309.9586, 5.938774
310.4408, 5.173515
310.9229, 4.395882
311.4050, 3.597746
311.8871, 2.764946
312.3692, 2.062096
312.8513, 1.577709
313.3335, 1.215076
313.8156, 0.8620990
314.2977, 0.5039140
314.7798, 0.1608980
315.2619, 0.1757070
315.7440, 0.4941560
316.2262, 0.6731050
316.7083, 0.6225910
317.1904, 0.4853310
317.6725, 0.3604370
318.1546, 0.2534980
318.6367, 0.1596680
319.1188, 7.2467998E-02
319.6010, 1.9440000E-03
320.0831, 4.6698000E-02
320.5652, 2.7725000E-02
321.0473, 1.3824000E-02
321.5294, 2.3512000E-02
322.0115, 6.4787000E-02
322.4937, 0.1651730
322.9758, 0.3361260
323.4579, 0.5779670
323.9400, 0.8894840
324.4221, 1.288311
324.9042, 1.703888
325.3864, 2.100853
325.8685, 2.499554
326.3506, 2.954395
326.8327, 3.493511
327.3148, 4.053951
327.7969, 4.516294
328.2791, 4.849407
328.7612, 5.273254
329.2433, 5.841614
329.7254, 6.514355
330.2075, 7.225599
330.6896, 7.973677
331.1718, 8.862186
331.6539, 10.02722
332.1360, 11.50166
332.6181, 13.05383
333.1002, 14.63110
333.5823, 16.28592
334.0645, 18.21407
334.5466, 20.33606
335.0287, 22.25360
335.5108, 23.74617
335.9929, 24.75991
336.4750, 25.13360
336.9572, 24.85925
337.4393, 24.04906
337.9214, 22.56476
338.4035, 20.57844
338.8856, 18.42584
339.3677, 16.19709
339.8499, 13.96625
340.3320, 12.03237
340.8141, 10.45516
341.2962, 9.081039
341.7783, 7.911009
342.2604, 6.900080
342.7426, 6.021540
343.2247, 5.272377
343.7068, 4.616978
344.1889, 4.006603
344.6710, 3.440615
345.1531, 2.957201
345.6353, 2.653551
346.1174, 2.397745
346.5995, 2.067343
347.0816, 1.663660
347.5637, 1.283033
348.0458, 1.012640
348.5280, 0.8533330
349.0101, 0.7433800
349.4922, 0.7009640
349.9743, 0.6697120
350.4564, 0.6139530
350.9385, 0.5566520
351.4207, 0.5533870
351.9028, 0.6464460
352.3849, 0.8029690
352.8670, 0.8806000
353.3491, 0.6753900
353.8312, 0.6424100
354.3134, 0.8677860
354.7955, 1.282763
355.2776, 1.843447
355.7597, 2.528074
356.2418, 3.268318
356.7239, 3.964689
357.2061, 4.664482
357.6882, 5.200974
358.1703, 5.492336
358.6524, 5.699110
359.1345, 5.801596
359.6166, 5.877924
360.0987, 6.186586
360.5808, 7.021336
361.0630, 8.454258
361.5451, 9.719511
362.0272, 10.61403
362.5093, 11.55941
362.9914, 12.75746
363.4735, 14.10981
363.9557, 15.39011
364.4378, 16.45905
364.9199, 17.36804
365.4020, 18.31652
365.8841, 19.03106
366.3662, 20.20383
366.8484, 21.94419
367.3305, 24.12815
367.8126, 26.56492
368.2947, 29.20337
368.7768, 32.28059
369.2589, 36.18356
369.7411, 40.98693
370.2232, 46.45333
370.7053, 52.84499
371.1874, 59.63238
371.6695, 66.95297
372.1516, 74.54152
372.6338, 81.88208
373.1159, 88.93851
373.5980, 95.62679
374.0801, 99.27364
374.5622, 98.90847
375.0443, 96.35052
375.5265, 91.00182
376.0086, 84.28831
376.4907, 78.18563
376.9728, 73.48688
377.4549, 70.24225
377.9370, 68.92682
378.4192, 70.45573
378.9013, 71.29939
379.3834, 71.30397
379.8655, 69.77843
380.3476, 65.77779
380.8297, 59.14008
381.3119, 51.18275
381.7940, 42.66774
382.2761, 33.60780
382.7582, 25.78779
383.2403, 19.53591
383.7224, 14.60629
384.2046, 10.81607
384.6867, 8.053286
385.1688, 5.831554
385.6509, 4.003162
386.1330, 2.544874
386.6151, 1.428057
387.0973, 0.6973690
387.5794, 0.1618210
388.0615, 0.1756290
388.5436, 0.4123920
389.0257, 0.6899620
389.5078, 1.071981
389.9900, 1.432625
390.4721, 1.653090
390.9542, 1.746304
391.4363, 1.806219
391.9184, 1.863628
392.4005, 1.897892
392.8827, 1.877249
393.3648, 1.799656
393.8469, 1.714415
394.3290, 1.628881
394.8111, 1.551130
395.2932, 1.548651
395.7754, 1.648687
396.2575, 1.621216
396.7396, 1.194092
397.2217, 0.4031160
397.7038, 0.2380790
398.1859, 0.5761220
398.6681, 0.8812890
399.1501, 1.297909
399.6323, 1.827044
400.1144, 2.468475
400.5965, 3.241598
401.0786, 4.094725
401.5607, 4.866110
402.0428, 5.529772
402.5250, 6.171782
403.0071, 6.751490
403.4892, 7.344313
403.9713, 8.023151
404.4534, 8.803785
404.9355, 9.683529
405.4177, 10.67075
405.8998, 11.78397
406.3819, 12.89471
406.8640, 13.87783
407.3461, 14.97385
407.8282, 16.30807
408.3104, 17.85669
408.7925, 19.53454
409.2746, 21.30769
409.7567, 23.18664
410.2388, 25.22969
410.7209, 27.31085
411.2031, 29.73567
411.6852, 32.57104
412.1673, 35.74603
412.6494, 39.24801
413.1315, 43.04726
413.6136, 47.01760
414.0958, 51.01389
414.5779, 55.06903
415.0600, 59.07988
415.5421, 63.03222
416.0242, 66.93379
416.5063, 71.29533
416.9885, 75.63473
417.4706, 78.86445
417.9527, 80.35401
418.4348, 80.21117
418.9169, 78.68575
419.3990, 75.37571
419.8812, 71.55203
420.3633, 67.21278
420.8454, 62.80285
421.3275, 58.72773
421.8096, 55.08741
422.2917, 51.78579
422.7739, 48.73162
423.2560, 45.93325
423.7381, 43.43430
424.2202, 41.23606
424.7023, 39.37967
425.1844, 37.74074
425.6666, 36.38456
426.1487, 35.57370
426.6308, 35.49157
427.1129, 35.98514
427.5950, 36.83241
428.0771, 38.03350
428.5593, 39.63898
429.0414, 41.67649
429.5235, 44.17574
430.0056, 47.01935
430.4877, 50.14946
430.9698, 53.76212
431.4520, 57.86472
431.9341, 62.51217
432.4162, 67.77739
432.8983, 73.61972
433.3804, 80.28919
433.8625, 87.97288
434.3447, 96.69612
434.8268, 107.1175
435.3089, 119.7210
435.7910, 133.6383
436.2731, 148.8171
436.7552, 164.8626
437.2374, 181.2350
437.7195, 197.9998
438.2016, 214.0820
438.6837, 225.0138
439.1658, 232.5071
439.6479, 232.3839
440.1301, 221.3212
440.6122, 204.2269
441.0943, 183.5551
441.5764, 160.9534
442.0585, 139.8403
442.5406, 124.1352
443.0227, 113.9819
443.5049, 107.9506
443.9870, 107.5824
444.4691, 109.8569
444.9512, 114.8153
445.4333, 121.6438
445.9154, 129.4807
446.3976, 137.9337
446.8797, 146.6940
447.3618, 154.9815
447.8439, 162.4786
448.3260, 170.4511
448.8081, 178.7394
449.2903, 187.9476
449.7724, 198.3386
450.2545, 210.0147
450.7366, 223.2878
451.2187, 238.3164
451.7008, 255.1422
452.1830, 273.4481
452.6651, 292.9086
453.1472, 314.3758
453.6293, 338.1095
454.1114, 364.2738
454.5935, 393.5207
455.0757, 425.6506
455.5578, 461.3035
456.0399, 500.7581
456.5220, 544.1008
457.0041, 592.5664
457.4862, 646.8823
457.9684, 705.8367
458.4505, 769.7399
458.9326, 838.4786
459.4147, 905.6948
459.8968, 975.4073
460.3789, 1039.151
460.8611, 1093.300
461.3432, 1135.885
461.8253, 1160.528
462.3074, 1163.596
462.7895, 1145.526
463.2716, 1106.880
463.7538, 1037.864
464.2359, 962.7519
464.7180, 878.0079
465.2001, 791.1320
465.6822, 708.3263
466.1643, 631.2471
466.6465, 561.3940
467.1286, 500.7352
467.6107, 449.3004
468.0928, 402.4592
468.5749, 360.8063
469.0570, 323.2576
469.5392, 290.5499
470.0213, 261.6701
470.5034, 235.5179
470.9855, 211.5878
471.4676, 190.0994
471.9497, 171.6305
472.4319, 156.5292
472.9140, 143.0158
473.3961, 131.0892
473.8782, 120.7065
474.3603, 112.1224
474.8424, 105.1914
475.3246, 99.14247
475.8067, 93.64352
476.2888, 88.73230
476.7709, 84.48183
477.2530, 80.95097
477.7351, 77.82911
478.2173, 75.11541
478.6994, 72.67271
479.1815, 70.32485
479.6636, 68.13051
480.1457, 65.80548
480.6278, 63.22659
481.1100, 60.41565
481.5920, 57.34489
482.0742, 53.99937
482.5563, 50.60199
483.0384, 47.29903
483.5205, 44.10941
484.0026, 41.08689
484.4847, 38.16441
484.9669, 35.47482
485.4490, 33.06794
485.9311, 30.91878
486.4132, 29.00296
486.8953, 27.30319
487.3774, 25.78711
487.8596, 24.42832
488.3417, 23.28731
488.8238, 22.12334
489.3059, 20.86204
489.7880, 19.64858
490.2701, 18.56203
490.7523, 17.58988
491.2344, 16.69223
491.7165, 15.86128
492.1986, 15.06918
492.6807, 14.21264
493.1628, 13.24689
493.6450, 12.34733
494.1271, 11.62704
494.6092, 10.93711
495.0913, 10.15884
495.5734, 9.298515
496.0555, 8.472742
496.5377, 7.765699
497.0198, 7.160152
497.5019, 6.627012
497.9840, 6.176258
498.4661, 5.743805
498.9482, 5.279013
499.4304, 4.812241
499.9125, 4.408503
500.3946, 4.097937
500.8767, 3.780735
501.3588, 3.350183
501.8409, 2.892004
502.3231, 2.586998
502.8052, 2.475225
503.2873, 2.370321
503.7694, 2.088621
504.2515, 1.619516
504.7336, 1.202248
505.2158, 0.8273330
505.6979, 0.5084230
506.1800, 0.2344990
506.6621, 2.3886001E-02
507.1442, 5.0932001E-02
507.6263, 2.6781000E-02
508.1085, 0.1150110
508.5906, 3.5845000E-02
509.0727, 0.5519100
509.5548, 0.8516390
510.0369, 0.7086450
510.5190, 0.5745490
511.0012, 0.6901320
511.4833, 0.9312610
511.9654, 1.026665
512.4475, 0.8159480
512.9296, 0.4805870
513.4117, 0.3600980
513.8939, 0.4836620
514.3760, 0.5956920
514.8581, 0.6313080
515.3402, 0.6492290
515.8223, 0.7330890
516.3044, 0.8615060
516.7866, 0.8928090
517.2687, 0.6596360
517.7508, 0.3592550
518.2329, 0.2512820
518.7150, 0.3273660
519.1971, 0.4616990
519.6793, 0.6354770
520.1614, 0.7780110
520.6435, 0.6886600
521.1256, 0.2600840
521.6077, 3.8460001E-02
522.0898, 5.8470000E-02
522.5720, 4.1182000E-02
523.0541, 0.1872730
523.5362, 0.3270030
524.0183, 0.3345110
524.5004, 0.1066280
524.9825, 0.2884560
525.4647, 0.5400750
525.9468, 0.5030290
526.4289, 0.5695950
526.9110, 0.8224320
527.3931, 1.133844
527.8752, 1.428083
528.3574, 1.682108
528.8395, 1.877977
529.3216, 1.975981
529.8037, 1.996117
530.2858, 2.066319
530.7679, 2.188286
531.2501, 2.351091
531.7322, 2.580072
532.2143, 2.855858
532.6964, 3.151314
533.1785, 3.445597
533.6606, 3.722752
534.1428, 3.985746
534.6249, 4.255550
535.1070, 4.566372
535.5891, 4.922117
536.0712, 5.292557
536.5533, 5.669458
537.0355, 6.026236
537.5176, 6.271906
537.9997, 6.443007
538.4818, 6.485933
538.9639, 6.383345
539.4460, 6.149654
539.9282, 5.772335
540.4103, 5.260448
540.8924, 4.679697
541.3745, 4.096577
541.8566, 3.510197
542.3387, 2.936213
542.8209, 2.311653
543.3029, 1.785910
543.7850, 1.441675
544.2672, 1.190434
544.7493, 0.9175240
545.2314, 0.5953880
545.7135, 0.3214930
546.1956, 0.2448540
546.6777, 0.3413470
547.1599, 0.3377150
547.6420, 0.1476880
548.1241, 1.4082000E-02
548.6062, 0.1177940
549.0883, 0.3728660
549.5704, 0.6716630
550.0526, 1.045759
550.5347, 1.356617
551.0168, 1.456636
551.4989, 1.440689
551.9810, 1.518539
552.4631, 1.735474
552.9453, 1.976224
553.4274, 2.108500
553.9095, 2.132783
554.3916, 2.375776
554.8737, 3.083792
555.3558, 3.680130
555.8380, 3.880257
556.3201, 3.939178
556.8022, 4.168284
557.2843, 4.649847
557.7664, 5.258459
558.2485, 5.849838
558.7307, 6.416417
559.2128, 7.090180
559.6949, 7.951872
560.1770, 8.801551
560.6591, 9.469398
561.1412, 10.13473
561.6234, 11.03794
562.1055, 12.24817
562.5876, 13.57454
563.0697, 14.89523
563.5518, 16.20036
564.0339, 17.51130
564.5161, 18.88293
564.9982, 20.02330
565.4803, 20.78253
565.9624, 21.10954
566.4445, 20.97205
566.9266, 20.28398
567.4088, 19.23528
567.8909, 17.78202
568.3730, 16.07869
568.8551, 14.22617
569.3372, 12.28453
569.8193, 10.36701
570.3015, 8.597098
570.7836, 6.975260
571.2657, 5.559683
571.7478, 4.335007
572.2299, 3.335422
572.7120, 2.617722
573.1942, 2.083201
573.6763, 1.667868
574.1584, 1.343013
574.6405, 1.066287
575.1226, 0.7933240
575.6047, 0.5449050
576.0869, 0.4142370
576.5690, 0.4253550
577.0511, 0.4183860
577.5332, 0.3019410
578.0153, 0.1321690
578.4974, 5.9199999E-03
578.9796, 6.0830999E-02
579.4617, 8.7490998E-02
579.9438, 5.2395001E-02
580.4259, 1.0441000E-02
580.9080, 4.9635999E-02
581.3901, 0.1585230
581.8723, 0.2118690
582.3544, 0.1085750
582.8365, 8.0352999E-02
583.3186, 0.1133720
583.8007, 0.1778330
584.2828, 0.3715320
584.7650, 0.4175660
585.2471, 0.4077410
585.7292, 0.3925180
586.2113, 0.3762920
586.6934, 0.3460490
587.1755, 0.2925190
587.6577, 0.2220230
588.1398, 0.1315310
588.6219, 7.4689998E-03
589.1040, 3.1017000E-02
589.5861, 0.1408590
590.0682, 0.3006080
590.5504, 0.1763660
591.0325, 0.1760180
591.5146, 0.3871620
591.9967, 0.2326120
592.4788, 1.2629000E-02
592.9609, 0.1692380
593.4431, 0.2256440
593.9252, 0.1286100
594.4073, 0.1520560
594.8894, 0.4848680
595.3715, 0.6924260
595.8536, 0.7638450
596.3358, 0.7507940
596.8179, 0.5687990
597.3000, 0.4090060
597.7821, 0.3387150
598.2642, 0.3320570
598.7463, 0.3537780
599.2285, 0.3904310
599.7106, 0.4305660
600.1927, 0.4692540
600.6748, 0.5051560
601.1569, 0.4953760
601.6390, 0.4169090
602.1212, 0.3378640
602.6033, 0.2771280
603.0854, 0.2473380
603.5675, 0.2792550
604.0496, 0.3971430
604.5317, 0.5203520
605.0139, 0.6075680
605.4960, 0.6627650
605.9781, 0.7001830
606.4602, 0.7324620
606.9423, 0.7550120
607.4244, 0.7521410
607.9066, 0.7306980
608.3887, 0.7333610
608.8708, 0.7848500
609.3529, 0.8262000
609.8350, 0.8643790
610.3171, 0.8847930
610.7993, 0.8599300
611.2814, 0.8053580
611.7635, 0.7681100
612.2456, 0.7730620
612.7277, 0.8214510
613.2098, 0.9402890
613.6920, 1.141269
614.1741, 1.272250
614.6562, 1.259202
615.1383, 1.213233
615.6204, 1.259918
616.1025, 1.380765
616.5847, 1.462281
617.0668, 1.469428
617.5489, 1.442888
618.0310, 1.389078
618.5131, 1.323698
618.9952, 1.272614
619.4774, 1.244443
619.9595, 1.244605
620.4416, 1.285346
620.9237, 1.371567
621.4058, 1.425270
621.8879, 1.419735
622.3701, 1.413185
622.8522, 1.407697
623.3343, 1.412671
623.8164, 1.442167
624.2985, 1.497007
624.7806, 1.555851
625.2628, 1.594601
625.7448, 1.624978
626.2269, 1.684804
626.7090, 1.778067
627.1912, 1.863917
627.6733, 1.928895
628.1554, 1.971134
628.6375, 1.970609
629.1196, 1.904892
629.6017, 1.904720
630.0839, 2.014394
630.5660, 2.172893
631.0481, 2.376544
631.5302, 2.591570
632.0123, 2.741586
632.4944, 2.790767
632.9766, 2.805875
633.4587, 2.906260
633.9408, 3.114123
634.4229, 3.288538
634.9050, 3.410495
635.3871, 3.514873
635.8693, 3.595665
636.3514, 3.674434
636.8335, 3.791524
637.3156, 3.964750
637.7977, 4.149612
638.2798, 4.328207
638.7620, 4.484316
639.2441, 4.573010
639.7262, 4.596807
640.2083, 4.658308
640.6904, 4.826857
641.1725, 5.067474
641.6547, 5.278915
642.1368, 5.408203
642.6189, 5.611352
643.1010, 5.934346
643.5831, 6.295873
644.0652, 6.669687
644.5474, 7.038922
645.0295, 7.367934
645.5116, 7.624379
645.9937, 7.891874
646.4758, 8.338819
646.9579, 8.957832
647.4401, 9.480593
647.9222, 9.836058
648.4043, 10.17794
648.8864, 10.63890
649.3685, 11.16761
649.8506, 11.62281
650.3328, 12.01625
650.8149, 12.28697
651.2970, 12.40446
651.7791, 12.40737
652.2612, 12.33921
652.7433, 12.19689
653.2255, 11.95819
653.7076, 11.60928
654.1897, 11.14756
654.6718, 10.53685
655.1539, 9.681554
655.6360, 8.913904
656.1182, 8.364055
656.6003, 7.844534
657.0824, 7.235695
657.5645, 6.569471
658.0466, 5.965233
658.5287, 5.493310
659.0109, 5.052912
659.4930, 4.492373
659.9751, 3.888512
660.4572, 3.465660
660.9393, 3.276611
661.4214, 3.197503
661.9036, 3.140739
662.3857, 3.098131
662.8678, 2.985853
663.3499, 2.730297
663.8320, 2.499942
664.3141, 2.345820
664.7963, 2.192544
665.2784, 1.941683
665.7605, 1.625987
666.2426, 1.389836
666.7247, 1.342388
667.2068, 1.390403
667.6890, 1.371125
668.1711, 1.285769
668.6532, 1.179130
669.1353, 1.054392
669.6174, 0.9257860
670.0995, 0.7920320
670.5817, 0.6620990
671.0638, 0.6045000
671.5459, 0.6915880
672.0280, 0.7633590
672.5101, 0.7626920
672.9922, 0.7230890
673.4744, 0.6865310
673.9565, 0.6544680
674.4386, 0.5882160
674.9207, 0.4446430
675.4028, 0.2669630
675.8849, 0.2072650
676.3671, 0.2934920
676.8492, 0.3733290
677.3313, 0.4131810
677.8134, 0.4441340
678.2955, 0.4920930
678.7776, 0.5526880
679.2598, 0.6093150
679.7419, 0.6677630
680.2240, 0.7085800
680.7061, 0.7065100
681.1882, 0.6847760
681.6703, 0.6904480
682.1525, 0.7259190
682.6346, 0.7351280
683.1167, 0.6626280
683.5988, 0.5370910
684.0809, 0.5063620
684.5630, 0.6247190
685.0452, 0.7196190
685.5273, 0.7519610
686.0094, 0.7682700
686.4915, 0.7644040
686.9736, 0.7646800
687.4557, 0.8434020
687.9379, 1.080389
688.4200, 1.312250
688.9021, 1.352064
689.3842, 1.282213
689.8663, 1.300858
690.3484, 1.442939
690.8306, 1.614476
691.3127, 1.744884
691.7948, 1.842171
692.2769, 1.949827
692.7590, 2.084944
693.2411, 2.203037
693.7233, 2.278255
694.2054, 2.358317
694.6875, 2.473833
695.1696, 2.618763
695.6517, 2.777749
696.1339, 2.954965
696.6160, 3.110070
697.0981, 3.155435
697.5802, 3.138312
698.0623, 3.248067
698.5444, 3.520086
699.0266, 3.803174
699.5087, 3.987617
699.9908, 4.103989
700.4729, 4.267544
700.9550, 4.584881
701.4371, 4.785913
701.9193, 4.787907
702.4014, 4.741169
702.8835, 4.781754
703.3656, 4.840137
703.8477, 4.735991
704.3298, 4.386474
704.8120, 3.967396
705.2941, 3.704767
705.7762, 3.555796
706.2583, 3.348595
706.7404, 3.068194
707.2225, 2.788641
707.7046, 2.535913
708.1867, 2.316658
708.6688, 2.147191
709.1509, 2.026790
709.6331, 1.958593
710.1152, 1.973593
710.5973, 2.009275
711.0794, 1.999316
711.5615, 1.991777
712.0436, 2.079762
712.5258, 2.291873
713.0079, 2.564952
713.4900, 2.859414
713.9721, 3.172657
714.4542, 3.504897
714.9363, 3.867023
715.4185, 4.162792
715.9006, 4.317055
716.3827, 4.411546
716.8648, 4.615130
717.3469, 4.973205
717.8290, 5.170357
718.3112, 5.079226
718.7933, 4.924306
719.2754, 4.792295
719.7575, 4.681282
720.2396, 4.560196
720.7217, 4.429405
721.2039, 4.348417
721.6860, 4.372374
722.1681, 4.491331
722.6502, 4.682334
723.1323, 4.951874
723.6144, 5.280252
724.0966, 5.713759
724.5787, 6.123703
725.0608, 6.319557
725.5429, 6.308999
726.0250, 6.389335
726.5071, 6.645501
726.9893, 6.907383
727.4714, 7.198237
727.9535, 7.418331
728.4356, 7.428130
728.9177, 7.230326
729.3998, 6.976819
729.8820, 6.790991
730.3641, 6.610982
730.8462, 6.265925
731.3283, 5.749676
731.8104, 5.281130
732.2925, 4.904713
732.7747, 4.554560
733.2568, 4.186158
733.7389, 3.811799
734.2210, 3.468989
734.7031, 3.139917
735.1852, 2.872577
735.6674, 2.734760
736.1495, 2.618917
736.6316, 2.421706
737.1137, 2.149593
737.5958, 1.902313
738.0779, 1.734006
738.5601, 1.610846
739.0422, 1.473709
739.5243, 1.329520
740.0064, 1.249678
740.4885, 1.248164
740.9706, 1.277830
741.4528, 1.328898
741.9349, 1.383212
742.4170, 1.399307
742.8991, 1.373132
743.3812, 1.330652
743.8633, 1.207909
744.3455, 1.133811
744.8276, 1.199544
745.3097, 1.352333
745.7918, 1.540479
746.2739, 1.735667
746.7560, 1.854989
747.2382, 1.757982
747.7203, 1.532283
748.2024, 1.471903
748.6845, 1.581686
749.1666, 1.654714
749.6487, 1.623158
750.1309, 1.524091
750.6130, 1.383974
751.0951, 1.199029
751.5772, 1.060799
752.0593, 1.026981
752.5414, 0.9611490
753.0236, 0.8054290
753.5057, 0.6245740
753.9878, 0.4692170
754.4699, 0.3464360
754.9520, 0.2431330
755.4341, 0.1484390
755.9163, 7.6131999E-02
756.3984, 6.9893003E-02
756.8805, 0.1073270
757.3626, 7.4656002E-02
757.8447, 5.1910002E-02
758.3268, 0.1614530
758.8090, 0.1700050
759.2911, 0.1079580
759.7732, 7.8312002E-02
760.2553, 0.1146450
760.7374, 0.1215760
761.2195, 1.9086000E-02
761.7017, 2.7090000E-02
762.1838, 0.1607590
762.6659, 0.4208170
763.1480, 0.4669070
763.6301, 0.2138380
764.1122, 5.8765002E-02
764.5944, 0.1521420
765.0765, 0.1336680
765.5586, 8.0335997E-02
766.0407, 4.4950000E-03
766.5228, 5.3872999E-02
767.0049, 7.9171002E-02
767.4871, 8.8487998E-02
767.9692, 0.1036880
768.4513, 0.1254220
768.9334, 0.1455550
769.4155, 0.2038110
769.8976, 0.1942380
770.3798, 1.7560000E-02
770.8619, 0.1726130
771.3440, 0.2634300
771.8261, 0.2564970
772.3082, 0.1992390
772.7903, 6.1349001E-02
773.2725, 5.9103999E-02
773.7546, 7.5310998E-02
774.2367, 3.7510000E-02
774.7188, 2.8058000E-02
775.2009, 5.2453000E-02
775.6830, 5.8437999E-02
776.1652, 8.7529998E-03
776.6473, 6.7943998E-02
777.1294, 0.1045930
777.6115, 9.7897999E-02
778.0936, 6.8735003E-02
778.5757, 7.9290001E-03
779.0579, 5.8538001E-02
779.5400, 3.8973998E-02
780.0221, 3.0897999E-02
780.5042, 0.1347690
780.9863, 0.2954150
781.4684, 0.3771200
781.9506, 0.2973700
782.4327, 0.1787530
782.9148, 6.6425003E-02
783.3969, 1.8459000E-02
783.8790, 3.1860001E-02
784.3611, 2.7086999E-02
784.8433, 7.7913001E-02
785.3254, 2.2934999E-02
785.8075, 8.2122996E-02
786.2896, 4.0369999E-02
786.7717, 0.1511120
787.2538, 0.2769170
787.7360, 0.2813230
788.2181, 0.2090160
788.7002, 6.9905996E-02
789.1823, 0.1181380
789.6644, 0.1977220
790.1465, 9.9891998E-02
790.6286, 1.5080000E-03
791.1107, 0.1198640
791.5928, 0.2141310
792.0750, 0.2776780
792.5571, 0.2928370
793.0392, 0.1962790
793.5213, 5.4179002E-02
794.0034, 0.2444090
794.4855, 0.1025210
794.9677, 0.1928370
795.4498, 0.2917940
795.9319, 0.2017660
796.4140, 0.1131830
796.8961, 0.1041650
797.3782, 0.1346290
797.8604, 0.1519750
798.3425, 0.1558840
798.8246, 0.1553440
799.3067, 0.1577140
799.7888, 0.1421700
800.2709, 6.7253001E-02
800.7531, 1.3090000E-03
801.2352, 1.0019999E-03
801.7173, 5.7939999E-02
802.1994, 0.1249960
802.6815, 0.2130020
803.1636, 0.2748580
803.6458, 0.2620790
804.1279, 0.2242260
804.6100, 0.2323290
805.0921, 0.2751460
805.5742, 0.2756010
806.0563, 0.1885180
806.5385, 8.8646002E-02
807.0206, 0.1225240
807.5027, 0.2751780
807.9848, 0.3152940
808.4669, 0.2036160
808.9490, 0.1399510
809.4312, 0.2356840
809.9133, 0.3940290
810.3954, 0.4783420
810.8775, 0.4830040
811.3596, 0.4371730
811.8417, 0.2526830
812.3239, 0.1306620
812.8060, 0.1840410
813.2881, 0.2824830
813.7702, 0.2891960
814.2523, 0.2158290
814.7344, 0.1776420
815.2166, 0.2416850
815.6987, 0.3394440
816.1808, 0.4215350
816.6629, 0.4789910
817.1450, 0.4664750
817.6271, 0.3873250
818.1093, 0.3365990
818.5914, 0.3779870
819.0735, 0.4433050
819.5556, 0.3714900
820.0377, 0.1178150
820.5198, 5.2094001E-02
821.0020, 0.1049940
821.4841, 8.0922000E-02
821.9662, 1.9485001E-02
822.4483, 0.1538110
822.9304, 0.2990200
823.4125, 0.4528610
823.8947, 0.5673400
824.3768, 0.6121830
824.8589, 0.6377450
825.3410, 0.6786130
825.8231, 0.7042330
826.3052, 0.6502190
826.7874, 0.5419090
827.2695, 0.4881220
827.7516, 0.5637010
828.2337, 0.6934550
828.7158, 0.7696550
829.1979, 0.7900350
829.6801, 0.7159490
830.1622, 0.5435990
830.6443, 0.4543690
831.1264, 0.5547230
831.6085, 0.7310970
832.0906, 0.7915660
832.5728, 0.7120120
833.0549, 0.6779370
833.5370, 0.7308460
834.0191, 0.7742940
834.5012, 0.7658850
834.9833, 0.7531660
835.4655, 0.7847190
835.9476, 0.8510720
836.4297, 0.8926860
836.9118, 0.8502840
837.3939, 0.8461480
837.8760, 1.017943
838.3582, 1.215236
838.8403, 1.253842
839.3224, 1.151408
839.8045, 1.017479
840.2866, 0.9034000
840.7687, 0.8211580
841.2509, 0.7983770
841.7330, 0.8259840
842.2151, 0.8470190
842.6972, 0.8571740
843.1793, 0.8810000
843.6614, 0.9275270
844.1436, 0.9804540
844.6257, 1.016004
845.1078, 1.031042
845.5899, 1.026392
846.0720, 0.9610540
846.5541, 0.9363360
847.0363, 0.9804400
847.5184, 1.036675
848.0005, 1.094304
848.4826, 1.142999
848.9647, 1.157623
849.4468, 1.120058
849.9290, 1.098944
850.4111, 1.154880
850.8932, 1.226662
851.3753, 1.248480
851.8574, 1.222867
852.3395, 1.202083
852.8217, 1.194137
853.3038, 1.179711
853.7859, 1.142331
854.2680, 1.093317
854.7501, 1.068277
855.2322, 1.067304
855.7144, 1.080960
856.1965, 1.106418
856.6786, 1.153248
857.1607, 1.240159
857.6428, 1.345040
858.1249, 1.394016
858.6071, 1.344744
859.0892, 1.329196
859.5713, 1.371919
860.0534, 1.420427
860.5355, 1.478370
861.0176, 1.519591
861.4998, 1.495326
861.9819, 1.406077
862.4640, 1.352378
862.9461, 1.391254
863.4282, 1.461135
863.9103, 1.565372
864.3925, 1.648599
864.8746, 1.583139
865.3567, 1.405033
865.8388, 1.323609
866.3209, 1.466050
866.8030, 1.697018
867.2852, 1.807500
867.7673, 1.823008
868.2494, 1.859631
868.7315, 1.921213
869.2136, 1.993755
869.6957, 2.079884
870.1779, 2.147196
870.6600, 2.142398
871.1421, 2.064394
871.6242, 2.045867
872.1063, 2.154862
872.5884, 2.203331
873.0705, 2.074119
873.5526, 1.956159
874.0347, 2.005661
874.5168, 2.148451
874.9990, 2.189011
875.4811, 2.054189
875.9632, 1.945342
876.4453, 1.940040
876.9274, 1.978806
877.4095, 2.055025
877.8917, 2.129975
878.3738, 2.138403
878.8559, 2.071093
879.3380, 1.979507
879.8201, 1.884087
880.3022, 1.806525
880.7844, 1.808370
881.2665, 1.864400
881.7486, 1.883844
882.2307, 1.852173
882.7128, 1.787478
883.1949, 1.697663
883.6771, 1.596548
884.1592, 1.512211
884.6413, 1.444813
885.1234, 1.387653
885.6055, 1.326542
886.0876, 1.315952
886.5698, 1.425605
887.0519, 1.541204
887.5340, 1.518578
888.0161, 1.367758
888.4982, 1.249079
888.9803, 1.182308
889.4625, 1.126299
889.9446, 1.051373
890.4267, 1.005924
890.9088, 1.069871
891.3909, 1.175737
891.8730, 1.172595
892.3552, 1.013725
892.8373, 0.8790870
893.3194, 0.9288860
893.8015, 1.021962
894.2836, 0.9943940
894.7657, 0.8963950
895.2479, 0.8545090
895.7300, 0.8847510
896.2121, 0.8866170
896.6942, 0.7774280
897.1763, 0.6229190
897.6584, 0.5637730
898.1406, 0.5895950
898.6227, 0.5891540
899.1048, 0.5493840
899.5869, 0.5283490
900.0690, 0.5630730
900.5511, 0.6010070
901.0333, 0.5543310
901.5154, 0.4162190
901.9975, 0.3542690
902.4796, 0.4451280
902.9617, 0.4686990
903.4438, 0.2772750
903.9260, 0.1125490
904.4081, 0.1712510
904.8902, 0.3788310
905.3723, 0.5528380
905.8544, 0.6952700
906.3365, 0.7439090
906.8187, 0.6208690
907.3008, 0.4719670
907.7829, 0.3476790
908.2650, 0.2592080
908.7471, 0.2204820
909.2292, 0.2358230
909.7114, 0.2923610
910.1935, 0.3927450
910.6756, 0.5077940
911.1577, 0.6341410
911.6398, 0.7332610
912.1219, 0.7051960
912.6041, 0.5812370
913.0862, 0.5352300
913.5683, 0.6436450
914.0504, 0.7642990
914.5325, 0.7056580
915.0146, 0.5163540
915.4968, 0.4331290
915.9789, 0.4597190
916.4610, 0.5075000
916.9431, 0.5572620
917.4252, 0.5813160
917.9073, 0.5499420
918.3895, 0.4840600
918.8716, 0.4693810
919.3537, 0.5597490
919.8358, 0.5931150
920.3179, 0.4959110
920.8000, 0.4233880
921.2822, 0.4857790
921.7643, 0.5694280
922.2464, 0.5311170
922.7285, 0.3792870
923.2106, 0.3109490
923.6927, 0.4774870
924.1749, 0.5623070
924.6570, 0.3708010
925.1391, 0.1592990
925.6212, 0.1470190
926.1033, 0.2704010
926.5854, 0.3708090
927.0676, 0.4019520
927.5497, 0.4096360
928.0318, 0.4111440
928.5139, 0.4149760
928.9960, 0.4339870
929.4781, 0.4604750
929.9603, 0.4721140
930.4424, 0.4715190
930.9245, 0.4917490
931.4066, 0.5549470
931.8887, 0.6427140
932.3708, 0.7411160
932.8530, 0.8393800
933.3351, 0.8973480
933.8172, 0.9121310
934.2993, 0.8604280
934.7814, 0.7267730
935.2635, 0.5976810
935.7457, 0.5728430
936.2278, 0.6321000
936.7099, 0.6575220
937.1920, 0.6437580
937.6741, 0.6146640
938.1563, 0.5556780
938.6384, 0.5182370
939.1205, 0.5201400
939.6026, 0.5701590
940.0847, 0.7026590
940.5668, 0.9476240
941.0490, 1.096162
941.5311, 1.097874
942.0132, 1.076829
942.4953, 1.031963
942.9774, 0.9940720
943.4595, 0.9907320
943.9417, 1.011456
944.4238, 1.030898
944.9059, 1.050375
945.3880, 1.044641
945.8701, 0.9806770
946.3522, 0.9141860
946.8344, 0.8619740
947.3165, 0.8416050
947.7986, 0.9172720
948.2807, 1.059101
948.7628, 1.097231
949.2449, 0.8966810
949.7271, 0.6765190
950.2092, 0.6858070
950.6913, 0.7872820
951.1734, 0.7464720
951.6555, 0.5978660
952.1376, 0.5142950
952.6198, 0.5522690
953.1019, 0.6343780
953.5840, 0.7006310
954.0661, 0.7407750
954.5482, 0.7160070
955.0303, 0.6373740
955.5124, 0.5744310
955.9945, 0.5368740
956.4766, 0.5247860
956.9587, 0.5405340
957.4409, 0.5695490
957.9230, 0.5966130
958.4051, 0.6207330
958.8872, 0.5600540
959.3693, 0.3787040
959.8514, 0.2714480
960.3336, 0.3038560
960.8157, 0.3668970
961.2978, 0.3918650
961.7799, 0.3796040
962.2620, 0.3288780
962.7441, 0.2221620
963.2263, 0.1315340
963.7084, 7.3261000E-02
964.1905, 9.3590003E-03
964.6726, 0.1102860
965.1547, 0.2071260
965.6368, 0.1835570
966.1190, 7.1612000E-02
966.6011, 2.3304000E-02
967.0832, 8.6453997E-02
967.5653, 0.1540060
968.0474, 0.2343000
968.5295, 0.2796300
969.0117, 0.2274710
969.4938, 0.1435300
969.9759, 0.1356430
970.4580, 0.2003710
970.9401, 0.2026810
971.4222, 1.6372999E-02
971.9044, 0.1382980
972.3865, 9.6188001E-02
972.8686, 2.6969999E-02
973.3507, 0.1443730
973.8328, 0.2297850
974.3149, 0.2482950
974.7971, 0.1944020
975.2792, 0.1200250
975.7613, 3.8702000E-02
976.2434, 9.9210003E-03
976.7255, 7.4754000E-02
977.2076, 0.2169270
977.6898, 0.2527770
978.1719, 0.1739990
978.6540, 4.3708000E-02
979.1361, 0.1092170
979.6182, 0.2364170
980.1003, 0.2515630
980.5825, 0.2008020
981.0646, 0.2647090
981.5467, 0.4272120
982.0288, 0.5006810
982.5109, 0.4482500
982.9930, 0.4217880
983.4752, 0.5296380
983.9573, 0.7096510
984.4394, 0.8427830
984.9215, 0.9276730
985.4036, 0.9667190
985.8857, 0.9467080
986.3679, 0.9642820
986.8500, 1.056783
987.3321, 1.157746
987.8142, 1.221412
988.2963, 1.244176
988.7784, 1.210629
989.2606, 1.102432
989.7427, 1.000279
990.2248, 0.8823840
990.7069, 0.8173160
991.1890, 0.8878990
991.6711, 0.9506210
992.1533, 0.8299140
992.6354, 0.5700950
993.1175, 0.4357210
993.5996, 0.5140680
994.0817, 0.5614940
994.5638, 0.5848210
995.0460, 0.5654020
995.5281, 0.4439570
996.0102, 0.3130020
996.4923, 0.2892880
996.9744, 0.3645750
997.4565, 0.4163680
997.9387, 0.3777840
998.4208, 0.3876600
998.9029, 0.5523080
999.3850, 0.6970200
999.8671, 0.6648720
1000.349, 0.5693070
1000.831, 0.5879850
1001.313, 0.7339890
1001.796, 0.8682940
1002.278, 0.9239900
1002.760, 0.9691790
1003.242, 1.028734
1003.724, 1.104861
1004.206, 1.215366
1004.688, 1.339518
1005.170, 1.435939
1005.653, 1.497388
1006.135, 1.561947
1006.617, 1.655600
1007.099, 1.760604
1007.581, 1.835623
1008.063, 1.926376
1008.545, 2.136977
1009.027, 2.420154
1009.509, 2.640190
1009.992, 2.745516
1010.474, 2.751783
1010.956, 2.661272
1011.438, 2.491502
1011.920, 2.207888
1012.402, 1.883380
1012.884, 1.692258
1013.366, 1.639365
1013.849, 1.637720
1014.331, 1.648507
1014.813, 1.684535
1015.295, 1.795498
1015.777, 1.914634
1016.259, 1.833965
1016.741, 1.602763
1017.223, 1.459023
1017.705, 1.431162
1018.188, 1.402788
1018.670, 1.310567
1019.152, 1.242554
1019.634, 1.348818
1020.116, 1.576022
1020.598, 1.655765
1021.080, 1.592123
1021.562, 1.501313
1022.044, 1.396973
1022.527, 1.385013
1023.009, 1.549008
1023.491, 1.754510
1023.973, 1.757491
1024.455, 1.573414
1024.937, 1.538569
1025.419, 1.676287
1025.901, 1.756476
1026.384, 1.727961
1026.866, 1.709357
1027.348, 1.795394
1027.830, 1.878152
1028.312, 1.733272
1028.794, 1.347042
1029.276, 1.197586
1029.758, 1.365454
1030.240, 1.456220
1030.723, 1.378101
1031.205, 1.236175
1031.687, 1.082614
1032.169, 0.9372480
1032.651, 0.8444290
1033.133, 0.8187510
1033.615, 0.7301100
1034.097, 0.5230970
1034.579, 0.3589700
1035.062, 0.2748950
1035.544, 0.2297060
1036.026, 0.2001060
1036.508, 0.1993870
1036.990, 0.2704530
1037.472, 0.4477400
1037.954, 0.4537760
1038.436, 0.1025180
1038.919, 0.1198380
1039.401, 3.5356998E-02
1039.883, 9.8081000E-02
1040.365, 0.1081670
1040.847, 5.3867001E-02
1041.329, 6.6546001E-02
1041.811, 0.1674000
1042.293, 0.2234000
1042.776, 0.2094320
1043.258, 0.1828430
1043.740, 0.1240020
1044.222, 8.5890003E-02
1044.704, 0.1396470
1045.186, 0.2260500
1045.668, 0.2083400
1046.150, 5.0551001E-02
1046.632, 1.2731000E-02
1047.115, 0.1178180
1047.597, 0.2425740
1048.079, 0.3649670
1048.561, 0.4146320
1049.043, 0.2757660
1049.525, 5.6010000E-02
1050.007, 3.7960000E-02
1050.489, 2.7515000E-02
1050.971, 9.0736002E-02
1051.454, 0.1806080
1051.936, 0.1823090
1052.418, 6.3647002E-02
1052.900, 0.2884750
1053.382, 0.2507160
1053.864, 7.0270002E-02
1054.346, 1.7245000E-02
1054.828, 2.3251999E-02
1055.311, 6.1193999E-02
1055.793, 0.1256240
1056.275, 9.6111000E-02
1056.757, 0.1855140
1057.239, 0.4627520
1057.721, 0.4982640
1058.203, 0.4106070
1058.685, 0.4484140
1059.167, 0.6453890
1059.650, 0.7512300
1060.132, 0.5909760
1060.614, 0.4520290
1061.096, 0.4383390
1061.578, 0.4913410
1062.060, 0.5746560
1062.542, 0.6886060
1063.024, 0.8519870
1063.506, 1.062514
1063.989, 1.260251
1064.471, 1.455922
1064.953, 1.590011
1065.435, 1.572907
1065.917, 1.549486
1066.399, 1.626013
1066.881, 1.773618
1067.363, 1.945049
1067.846, 2.128410
1068.328, 2.316344
1068.810, 2.534463
1069.292, 2.706946
1069.774, 2.685712
1070.256, 2.722342
1070.738, 3.078446
1071.220, 3.572453
1071.703, 3.938017
1072.185, 4.154068
1072.667, 4.378299
1073.149, 4.675976
1073.631, 4.971080
1074.113, 5.284903
1074.595, 5.524099
1075.077, 5.571661
1075.559, 5.534573
1076.042, 5.549982
1076.524, 5.626175
1077.006, 5.701002
1077.488, 5.759609
1077.970, 5.795008
1078.452, 5.698730
1078.934, 5.694179
1079.416, 5.988060
1079.898, 6.420914
1080.380, 6.798918
1080.863, 7.128078
1081.345, 7.511190
1081.827, 7.970552
1082.309, 8.526923
1082.791, 9.250999
1083.273, 10.00705
1083.755, 10.69724
1084.237, 11.38470
1084.720, 12.06526
1085.202, 12.81602
1085.684, 13.82019
1086.166, 15.13412
1086.648, 16.59015
1087.130, 18.18246
1087.612, 19.81577
1088.094, 21.29455
1088.577, 22.93833
1089.059, 25.14080
1089.541, 27.71343
1090.023, 30.09233
1090.505, 32.17817
1090.987, 34.79725
1091.469, 38.69942
1091.951, 42.63469
1092.433, 45.71802
1092.916, 48.97088
1093.398, 53.08782
1093.880, 57.96211
1094.362, 63.28535
1094.844, 69.01843
1095.326, 75.44515
1095.808, 82.47807
1096.290, 90.45069
1096.772, 99.79063
1097.255, 109.7564
1097.737, 119.6259
1098.219, 130.0686
1098.701, 142.3127
1099.183, 156.1864
1099.665, 170.1034
1100.147, 183.6407
1100.629, 197.3063
1101.112, 211.1243
1101.594, 225.1743
1102.076, 240.2149
1102.558, 255.0038
1103.040, 268.1136
1103.522, 279.7664
1104.004, 291.0757
1104.486, 302.1886
1104.969, 313.1366
1105.451, 323.0785
1105.933, 333.8953
1106.415, 345.8999
1106.897, 359.3864
1107.379, 374.4706
1107.861, 391.2960
1108.343, 410.3225
1108.825, 431.9242
1109.307, 453.9519
1109.790, 480.0287
1110.272, 501.1090
1110.754, 517.3660
1111.236, 525.9326
1111.718, 525.8611
1112.200, 516.7079
1112.682, 496.9359
1113.164, 466.3228
1113.647, 430.7672
1114.129, 386.4302
1114.611, 343.6967
1115.093, 302.2324
1115.575, 263.9930
1116.057, 229.5895
1116.539, 199.0171
1117.021, 172.3741
1117.504, 149.5821
1117.986, 130.1509
1118.468, 114.9397
1118.950, 101.2640
1119.432, 89.05036
1119.914, 78.57043
1120.396, 70.07324
1120.878, 63.02429
1121.360, 57.12823
1121.843, 52.14900
1122.325, 47.39995
1122.807, 42.80040
1123.289, 38.98110
1123.771, 36.11571
1124.253, 33.37459
1124.735, 30.52262
1125.217, 27.94361
1125.699, 25.89490
1126.182, 24.24344
1126.664, 22.81993
1127.146, 21.61964
1127.628, 20.32365
1128.110, 18.89924
1128.592, 17.63358
1129.074, 16.57886
1129.556, 15.67261
1130.039, 14.87985
1130.521, 14.11527
1131.003, 13.29758
1131.485, 12.42787
1131.967, 11.46868
1132.449, 10.43946
1132.931, 9.619298
1133.413, 9.002879
1133.896, 8.429068
1134.378, 7.847857
1134.860, 7.306677
1135.342, 6.846443
1135.824, 6.433753
1136.306, 6.021000
1136.788, 5.602197
1137.270, 5.111321
1137.752, 4.586631
1138.234, 4.245467
1138.717, 4.099916
1139.199, 3.935558
1139.681, 3.641253
1140.163, 3.297288
1140.645, 2.952633
1141.127, 2.651464
1141.609, 2.495815
1142.091, 2.435230
1142.574, 2.397179
1143.056, 2.345241
1143.538, 2.192704
1144.020, 1.923017
1144.502, 1.637921
1144.984, 1.404291
1145.466, 1.193819
1145.948, 0.9372550
1146.431, 0.7179070
1146.913, 0.6995310
1147.395, 0.7722910
1147.877, 0.6843280
1148.359, 0.4559890
1148.841, 0.3821540
1149.323, 0.6199460
1149.805, 0.8163850
1150.287, 0.6836070
1150.770, 0.5041660
1151.252, 0.5169430
1151.734, 0.5632910
1152.216, 0.4237920
1152.698, 0.1808260
1153.180, 8.3894998E-02
1153.662, 0.1839430
1154.144, 0.1986210
1154.626, 9.8885998E-02
1155.109, 0.3088180
1155.591, 0.2112310
1156.073, 8.3336003E-02
1156.555, 0.1248390
1157.037, 0.2203160
1157.519, 0.1783780
1158.001, 2.2662001E-02
1158.483, 4.4789999E-03
1158.966, 0.2358290
1159.448, 0.3554460
1159.930, 0.2389590
1160.412, 0.1242610
1160.894, 5.1475000E-02
1161.376, 2.8379001E-02
1161.858, 9.6598998E-02
1162.340, 0.1981570
1162.822, 0.1952200
1163.305, 7.1521997E-02
1163.787, 2.6061000E-02
1164.269, 0.1024430
1164.751, 0.1254930
1165.233, 5.4586999E-02
1165.715, 1.7605999E-02
1166.197, 4.3414999E-02
1166.679, 6.3991003E-02
1167.161, 0.1337780
1167.644, 0.2331590
1168.126, 0.2825680
1168.608, 0.2812150
1169.090, 0.2426250
1169.572, 0.1656910
1170.054, 0.1288520
1170.536, 0.1547770
1171.018, 0.1664360
1171.500, 0.1051090
1171.983, 4.1995000E-02
1172.465, 0.1274580
1172.947, 0.2909120
1173.429, 0.2639680
1173.911, 0.1050330
1174.393, 4.3423001E-02
1174.875, 8.8821001E-02
1175.357, 0.1161990
1175.840, 8.0081001E-02
1176.322, 4.1737001E-02
1176.804, 4.7667000E-02
1177.286, 8.5097998E-02
1177.768, 0.1745190
1178.250, 0.2584850
1178.732, 0.2127240
1179.214, 0.1118700
1179.697, 0.1371270
1180.179, 0.2768130
1180.661, 0.3445430
1181.143, 0.2550430
1181.625, 0.1573650
1182.107, 0.1358360
1182.589, 0.1437190
1183.071, 0.2088040
1183.553, 0.2369590
1184.036, 3.5700001E-02
1184.518, 0.2248810
1185.000, 0.1483900
1185.482, 0.2900130
1185.964, 0.4897560
1186.446, 7.1881004E-02
1186.928, 0.1985960
1187.410, 8.1194997E-02
1187.892, 6.5847002E-02
1188.375, 0.1295200
1188.857, 0.1222020
1189.339, 5.8599998E-04
1189.821, 0.1663370
1190.303, 0.1455740
1190.785, 0.1109410
1191.267, 0.2530730
1191.749, 0.2122170
1192.232, 0.2638040
1192.714, 0.5045010
1193.196, 0.6738920
1193.678, 0.6182360
1194.160, 0.4989840
1194.642, 0.5155060
1195.124, 0.6304870
1195.606, 0.6881370
1196.089, 0.6924810
1196.571, 0.7632410
1197.053, 0.9024190
1197.535, 1.049955
1198.017, 1.188048
1198.499, 1.293175
1198.981, 1.350508
1199.463, 1.368351
1199.945, 1.318517
1200.427, 1.266972
1200.910, 1.349766
1201.392, 1.533375
1201.874, 1.796173
1202.356, 2.082065
1202.838, 2.229215
1203.320, 2.217785
1203.802, 2.237865
1204.284, 2.406114
1204.767, 2.620165
1205.249, 2.804704
1205.731, 2.999563
1206.213, 3.316818
1206.695, 3.602566
1207.177, 3.571758
1207.659, 3.371805
1208.141, 3.450123
1208.624, 3.912558
1209.106, 4.309738
1209.588, 4.465134
1210.070, 4.647086
1210.552, 4.903009
1211.034, 5.211112
1211.516, 5.603993
1211.998, 6.005579
1212.480, 6.312711
1212.963, 6.558474
1213.445, 6.897678
1213.927, 7.334766
1214.409, 7.861976
1214.891, 8.518630
1215.373, 9.087092
1215.855, 9.507687
1216.337, 9.946536
1216.819, 10.47404
1217.302, 11.07946
1217.784, 11.76282
1218.266, 12.50988
1218.748, 13.27691
1219.230, 14.06014
1219.712, 14.86643
1220.194, 15.67393
1220.676, 16.37622
1221.159, 16.99642
1221.641, 17.78880
1222.123, 18.89512
1222.605, 20.07573
1223.087, 21.08583
1223.569, 22.05449
1224.051, 23.10452
1224.533, 24.21844
1225.016, 25.41290
1225.498, 26.61930
1225.980, 27.70320
1226.462, 28.65450
1226.944, 29.59929
1227.426, 30.54040
1227.908, 31.57676
1228.390, 32.94258
1228.872, 34.13005
1229.354, 34.90870
1229.837, 35.44690
1230.319, 35.93692
1230.801, 36.25673
1231.283, 36.18253
1231.765, 35.72804
1232.247, 35.20328
1232.729, 34.70135
1233.211, 33.84187
1233.694, 32.54993
1234.176, 31.03958
1234.658, 29.29373
1235.140, 27.65258
1235.622, 26.48417
1236.104, 25.46185
1236.586, 24.13768
1237.068, 22.64222
1237.551, 21.45037
1238.033, 20.53990
1238.515, 19.65924
1238.997, 18.77691
1239.479, 17.94687
1239.961, 17.20686
1240.443, 16.69350
1240.925, 16.53189
1241.407, 16.42225
1241.890, 16.05453
1242.372, 15.62212
1242.854, 15.33766
1243.336, 15.07939
1243.818, 14.69241
1244.300, 14.20185
1244.782, 13.69554
1245.264, 13.18541
1245.746, 12.64252
1246.229, 12.04081
1246.711, 11.44367
1247.193, 10.83681
1247.675, 10.26766
1248.157, 9.773436
1248.639, 9.295972
1249.121, 8.801197
1249.603, 8.290097
1250.085, 7.752373
1250.568, 7.193496
1251.050, 6.689965
1251.532, 6.241976
1252.014, 5.867415
1252.496, 5.569447
1252.978, 5.243757
1253.460, 4.858903
1253.942, 4.453446
1254.425, 4.052511
1254.907, 3.683776
1255.389, 3.405735
1255.871, 3.178943
1256.353, 2.907150
1256.835, 2.646554
1257.317, 2.567753
1257.799, 2.579880
1258.281, 2.396716
1258.764, 2.009354
1259.246, 1.745283
1259.728, 1.781217
1260.210, 1.812591
1260.692, 1.716526
1261.174, 1.558513
1261.656, 1.281472
1262.138, 1.042977
1262.620, 1.021764
1263.103, 1.082301
1263.585, 0.9777150
1264.067, 0.7373630
1264.549, 0.6345400
1265.031, 0.7293370
1265.513, 0.7512360
1265.995, 0.6791820
1266.477, 0.6246710
1266.960, 0.6152120
1267.442, 0.6110180
1267.924, 0.5928290
1268.406, 0.5423120
1268.888, 0.4302260
1269.370, 0.2819170
1269.852, 0.1141650
1270.334, 2.6265001E-02
1270.817, 2.9030001E-02
1271.299, 0.2023380
1271.781, 0.2562780
1272.263, 0.1867170
1272.745, 0.1702680
1273.227, 0.2744450
1273.709, 0.3473600
1274.191, 0.2416570
1274.673, 0.1613060
1275.156, 0.2879650
1275.638, 0.3833270
1276.120, 0.2165550
1276.602, 1.1220000E-02
1277.084, 8.9725003E-02
1277.566, 2.4475999E-02
1278.048, 0.1538870
1278.530, 0.4886280
1279.012, 0.5823580
1279.495, 0.3351560
1279.977, 0.2230960
1280.459, 0.3268510
1280.941, 0.3735990
1281.423, 0.1516820
1281.905, 5.3640001E-02
1282.387, 2.2724999E-02
1282.869, 2.2685001E-02
1283.352, 3.7810002E-02
1283.834, 4.8634000E-02
1284.316, 3.4152001E-02
1284.798, 0.0000000E+00
##END=



