##NAMES=Bermanite
##RRUFFID=R130057
##IDEAL CHEMISTRY=Mn^2+^Mn^3+^_2_(PO_4_)_2_(OH)_2_&#183;4H_2_O
##LOCALITY=Tip Top mine, Custer, South Dakota, USA
##OWNER=RRUFF
##SOURCE=Thomas A. Loomis
##DESCRIPTION=Dark red plates
##STATUS=The identification of this mineral has been confirmed only by single crystal X-ray diffraction.
##URL=rruff.info/R130057
100.3598, 0.0000000E+00
100.8419, 0.3701480
101.3240, 2.6923999E-02
101.8061, 0.1690670
102.2883, 9.4573997E-02
102.7704, 0.6625290
103.2525, 1.423836
103.7346, 2.324524
104.2167, 3.503777
104.6988, 5.287468
105.1810, 7.346695
105.6631, 9.172455
106.1452, 10.41943
106.6273, 11.22951
107.1094, 12.19668
107.5915, 13.21007
108.0737, 14.54035
108.5558, 16.32585
109.0379, 18.49790
109.5200, 20.86726
110.0021, 23.23395
110.4842, 25.50916
110.9664, 28.20315
111.4485, 31.39854
111.9306, 34.89105
112.4127, 38.72131
112.8948, 42.81808
113.3769, 47.00269
113.8591, 50.98396
114.3412, 54.71715
114.8233, 58.34546
115.3054, 61.94115
115.7875, 65.42869
116.2696, 68.72377
116.7517, 71.81196
117.2339, 74.76244
117.7160, 77.75037
118.1981, 81.00412
118.6802, 83.85473
119.1623, 86.20741
119.6444, 88.00744
120.1266, 89.15512
120.6087, 89.70696
121.0908, 89.40347
121.5729, 88.15097
122.0550, 85.83257
122.5371, 82.78345
123.0193, 79.17067
123.5014, 74.93436
123.9835, 70.60787
124.4656, 66.27872
124.9477, 62.07982
125.4298, 58.15358
125.9120, 54.63378
126.3941, 51.37160
126.8762, 48.09600
127.3583, 44.53471
127.8404, 41.57534
128.3225, 39.50272
128.8047, 38.00523
129.2868, 36.77522
129.7689, 35.74287
130.2510, 34.79463
130.7331, 33.63628
131.2152, 32.31856
131.6974, 31.06301
132.1795, 29.83588
132.6616, 28.59554
133.1437, 27.39002
133.6258, 26.17030
134.1079, 24.94407
134.5901, 23.72755
135.0722, 22.55671
135.5543, 21.37571
136.0364, 20.06180
136.5185, 18.60723
137.0006, 17.21943
137.4828, 16.05677
137.9649, 15.14666
138.4470, 14.22047
138.9291, 13.34656
139.4112, 12.46431
139.8933, 11.43947
140.3755, 10.20796
140.8576, 9.051128
141.3397, 8.399933
141.8218, 8.196541
142.3039, 8.036976
142.7860, 7.745121
143.2681, 7.369335
143.7503, 7.081470
144.2324, 6.990871
144.7145, 6.912758
145.1966, 6.645695
145.6787, 6.189125
146.1608, 5.735455
146.6430, 5.456314
147.1251, 5.367477
147.6072, 5.294235
148.0893, 5.224430
148.5714, 5.152039
149.0535, 5.083984
149.5357, 5.022015
150.0178, 4.940971
150.4999, 4.780800
150.9820, 4.429485
151.4641, 4.251331
151.9462, 4.423363
152.4284, 4.664902
152.9105, 4.786720
153.3926, 4.713188
153.8747, 4.453049
154.3568, 4.017925
154.8389, 3.069599
155.3211, 2.357094
155.8032, 2.066494
156.2853, 1.982277
156.7674, 1.871601
157.2495, 1.622124
157.7316, 1.244015
158.2138, 0.9372330
158.6959, 0.3027570
159.1780, 0.1646580
159.6601, 0.2626040
160.1422, 9.1759004E-02
160.6243, 0.1398770
161.1065, 0.3632280
161.5886, 0.5202480
162.0707, 0.4208030
162.5528, 0.1081850
163.0349, 0.7014390
163.5170, 1.179234
163.9991, 1.546486
164.4813, 1.833145
164.9634, 2.069786
165.4455, 2.222382
165.9276, 2.229904
166.4097, 1.993851
166.8918, 1.683899
167.3740, 1.489567
167.8561, 1.426594
168.3382, 1.404362
168.8203, 1.391109
169.3024, 1.381317
169.7845, 1.372555
170.2667, 1.377403
170.7488, 1.373688
171.2309, 1.298634
171.7130, 1.100685
172.1951, 0.9250950
172.6772, 0.8737490
173.1594, 0.8703540
173.6415, 0.8036080
174.1236, 0.5968170
174.6057, 0.2743490
175.0878, 1.8371999E-02
175.5699, 0.2871930
176.0521, 0.5137020
176.5342, 0.6536100
177.0163, 0.7509570
177.4984, 0.8762130
177.9805, 1.078030
178.4626, 1.356747
178.9448, 1.694046
179.4269, 2.204636
179.9090, 2.661800
180.3911, 2.977478
180.8732, 3.177273
181.3553, 3.331932
181.8375, 3.493690
182.3196, 3.656670
182.8017, 3.897930
183.2838, 4.274918
183.7659, 4.659073
184.2480, 5.002930
184.7301, 5.298111
185.2123, 5.537193
185.6944, 5.691635
186.1765, 5.741856
186.6586, 5.934147
187.1407, 6.409904
187.6228, 6.919926
188.1050, 7.265930
188.5871, 7.429981
189.0692, 7.553337
189.5513, 7.773216
190.0334, 8.086304
190.5155, 8.372421
190.9977, 8.591900
191.4798, 8.790504
191.9619, 9.026817
192.4440, 9.314373
192.9261, 9.606003
193.4082, 9.895935
193.8904, 10.16810
194.3725, 10.33004
194.8546, 10.27649
195.3367, 10.10665
195.8188, 10.00945
196.3009, 10.00216
196.7831, 10.06863
197.2652, 10.22479
197.7473, 10.44244
198.2294, 10.64498
198.7115, 10.81047
199.1936, 10.93757
199.6758, 10.99115
200.1579, 10.85884
200.6400, 10.81852
201.1221, 11.03461
201.6042, 11.44756
202.0863, 11.90813
202.5685, 12.33024
203.0506, 12.71424
203.5327, 13.06123
204.0148, 13.30888
204.4969, 13.58423
204.9790, 13.90657
205.4612, 14.28997
205.9433, 14.76543
206.4254, 15.38559
206.9075, 16.16286
207.3896, 16.83779
207.8717, 17.32728
208.3539, 17.78300
208.8360, 18.31776
209.3181, 18.86952
209.8002, 19.26830
210.2823, 19.33506
210.7644, 19.01967
211.2466, 18.80515
211.7287, 18.78053
212.2108, 18.75961
212.6929, 18.70264
213.1750, 18.58753
213.6571, 18.38364
214.1393, 18.05413
214.6214, 17.57803
215.1035, 17.10731
215.5856, 16.68872
216.0677, 16.22591
216.5498, 15.64402
217.0320, 14.94751
217.5141, 14.19266
217.9962, 13.40709
218.4783, 12.57711
218.9604, 11.97476
219.4425, 11.65406
219.9247, 11.46401
220.4068, 11.35861
220.8889, 11.30121
221.3710, 11.18051
221.8531, 10.89090
222.3352, 10.42466
222.8174, 9.987312
223.2995, 9.616383
223.7816, 9.264000
224.2637, 8.894051
224.7458, 8.510635
225.2279, 8.159885
225.7100, 7.887386
226.1922, 7.682590
226.6743, 7.458969
227.1564, 7.159370
227.6385, 6.878494
228.1206, 6.728519
228.6027, 6.713863
229.0849, 6.683182
229.5670, 6.503609
230.0491, 6.231655
230.5312, 6.015312
231.0133, 5.975388
231.4954, 5.946766
231.9776, 5.710583
232.4597, 5.243515
232.9418, 4.801418
233.4239, 4.620453
233.9060, 4.548058
234.3881, 4.340214
234.8703, 3.844887
235.3524, 3.263012
235.8345, 2.831448
236.3166, 2.537346
236.7987, 2.446999
237.2808, 2.787640
237.7630, 3.292339
238.2451, 3.677734
238.7272, 3.847244
239.2093, 3.872776
239.6914, 3.807880
240.1735, 3.567280
240.6557, 3.518974
241.1378, 4.047165
241.6199, 4.727482
242.1020, 5.090816
242.5841, 4.900192
243.0662, 4.570862
243.5484, 4.896912
244.0305, 6.177391
244.5126, 7.296032
244.9947, 7.894585
245.4768, 8.242561
245.9589, 8.526638
246.4410, 8.805302
246.9232, 9.090004
247.4053, 9.411816
247.8874, 9.791042
248.3695, 10.15827
248.8516, 10.58599
249.3337, 10.95007
249.8159, 11.10872
250.2980, 11.02623
250.7801, 10.85419
251.2622, 10.87062
251.7443, 11.22384
252.2264, 11.42347
252.7086, 11.27980
253.1907, 11.08496
253.6728, 11.06854
254.1549, 11.27956
254.6370, 11.57563
255.1191, 11.72581
255.6013, 11.60598
256.0834, 11.60902
256.5655, 11.74300
257.0476, 11.97424
257.5297, 12.32183
258.0118, 12.76907
258.4940, 13.23597
258.9761, 13.59959
259.4582, 13.76060
259.9403, 14.07864
260.4224, 14.61502
260.9045, 15.22811
261.3867, 15.89904
261.8688, 16.58903
262.3509, 17.17926
262.8330, 17.51627
263.3151, 17.49327
263.7972, 17.60338
264.2794, 17.89894
264.7615, 18.25412
265.2436, 18.63124
265.7257, 19.00893
266.2078, 19.36541
266.6899, 19.69371
267.1721, 20.01831
267.6542, 20.11430
268.1363, 19.84732
268.6184, 19.52539
269.1005, 19.36749
269.5826, 19.31448
270.0648, 19.11346
270.5469, 18.53615
271.0290, 17.56991
271.5111, 16.68629
271.9932, 16.02578
272.4753, 15.29501
272.9575, 14.32574
273.4396, 13.17745
273.9217, 12.02665
274.4038, 10.98956
274.8859, 10.05712
275.3680, 9.143742
275.8501, 8.252304
276.3322, 7.369118
276.8144, 6.493023
277.2965, 5.617523
277.7786, 4.700344
278.2607, 3.686535
278.7428, 2.658588
279.2249, 1.994736
279.7071, 1.955116
280.1892, 1.891075
280.6713, 1.602524
281.1534, 1.185799
281.6355, 0.8080020
282.1176, 0.5406800
282.5998, 0.3531800
283.0819, 0.1838070
283.5640, 7.3380001E-02
284.0461, 9.5692001E-02
284.5282, 0.4656750
285.0103, 0.8781970
285.4925, 1.074249
285.9746, 0.9551700
286.4567, 0.6827740
286.9388, 0.5311280
287.4209, 0.5463830
287.9030, 0.5149420
288.3852, 0.4135360
288.8673, 0.2443700
289.3494, 1.0609000E-02
289.8315, 0.2868840
290.3136, 0.6473120
290.7957, 1.072849
291.2779, 1.560413
291.7600, 2.145107
292.2421, 2.956291
292.7242, 3.795448
293.2063, 4.437729
293.6884, 4.859909
294.1706, 5.242310
294.6527, 5.718575
295.1348, 6.303734
295.6169, 7.044453
296.0990, 8.007767
296.5811, 9.080486
297.0633, 10.20749
297.5454, 11.37441
298.0275, 12.53349
298.5096, 13.62655
298.9917, 14.68301
299.4738, 15.86298
299.9560, 17.12772
300.4381, 18.53602
300.9202, 20.18858
301.4023, 22.04322
301.8844, 23.92075
302.3665, 25.71118
302.8487, 27.48941
303.3308, 29.47365
303.8129, 31.71778
304.2950, 34.06250
304.7771, 36.41155
305.2592, 38.80610
305.7414, 41.35959
306.2235, 44.12023
306.7056, 47.04590
307.1877, 50.03600
307.6698, 53.06353
308.1519, 56.21078
308.6341, 59.51430
309.1162, 62.94751
309.5983, 66.41715
310.0804, 69.87546
310.5625, 73.44277
311.0446, 77.30238
311.5268, 81.46783
312.0089, 85.57133
312.4910, 89.50633
312.9731, 93.34531
313.4552, 97.17950
313.9373, 101.0173
314.4195, 104.9641
314.9016, 109.2480
315.3837, 113.8184
315.8658, 117.9542
316.3479, 121.2933
316.8300, 124.3922
317.3121, 127.7560
317.7943, 131.3784
318.2764, 134.8432
318.7585, 137.9320
319.2406, 140.6034
319.7227, 142.9427
320.2048, 145.0432
320.6870, 146.7501
321.1691, 147.8760
321.6512, 148.5096
322.1333, 148.9933
322.6154, 149.5116
323.0975, 149.9276
323.5797, 149.9322
324.0618, 149.6349
324.5439, 148.8310
325.0260, 147.2166
325.5081, 145.0821
325.9902, 142.9625
326.4724, 141.0349
326.9545, 139.1227
327.4366, 136.9017
327.9187, 134.3215
328.4008, 131.7955
328.8829, 129.5939
329.3651, 127.4051
329.8472, 124.8102
330.3293, 121.7366
330.8114, 118.5258
331.2935, 115.4699
331.7756, 112.5889
332.2578, 109.7888
332.7399, 107.1588
333.2220, 104.5579
333.7041, 101.8152
334.1862, 98.97175
334.6683, 96.22790
335.1505, 93.76148
335.6326, 91.52837
336.1147, 89.23791
336.5968, 86.85773
337.0789, 84.43864
337.5610, 81.99108
338.0432, 79.51358
338.5253, 77.03821
339.0074, 74.59052
339.4895, 72.13445
339.9716, 69.56328
340.4537, 66.76768
340.9359, 64.07996
341.4180, 61.61206
341.9001, 59.26457
342.3822, 56.95944
342.8643, 54.68222
343.3464, 52.34557
343.8286, 49.79889
344.3107, 46.86863
344.7928, 44.28549
345.2749, 42.25906
345.7570, 40.45575
346.2391, 38.66970
346.7213, 36.87455
347.2034, 35.04166
347.6855, 33.13148
348.1676, 31.12366
348.6497, 29.47099
349.1318, 28.52886
349.6140, 27.52308
350.0961, 26.05546
350.5782, 24.27230
351.0603, 22.52677
351.5424, 21.02924
352.0245, 19.73920
352.5067, 18.47141
352.9888, 17.17313
353.4709, 15.96523
353.9530, 14.87953
354.4351, 13.88715
354.9172, 12.95425
355.3994, 12.06979
355.8815, 11.23204
356.3636, 10.43163
356.8457, 9.681202
357.3278, 8.947521
357.8099, 8.215076
358.2920, 7.507408
358.7741, 6.837894
359.2563, 6.208450
359.7384, 5.627747
360.2205, 5.099396
360.7026, 4.622768
361.1847, 4.208752
361.6668, 3.971983
362.1490, 3.676691
362.6311, 3.176821
363.1132, 2.563354
363.5953, 2.027117
364.0774, 1.687466
364.5595, 1.497511
365.0417, 1.254904
365.5238, 0.8715110
366.0059, 0.5593410
366.4880, 0.3994750
366.9701, 0.2910460
367.4522, 0.1225280
367.9344, 0.1368480
368.4165, 0.4155060
368.8986, 0.6030100
369.3807, 0.6767600
369.8628, 0.7153380
370.3449, 0.6355090
370.8271, 0.5949210
371.3092, 0.7168600
371.7913, 0.9736730
372.2734, 1.227900
372.7555, 1.356333
373.2376, 1.362263
373.7198, 1.362864
374.2019, 1.384123
374.6840, 1.363464
375.1661, 1.248884
375.6482, 1.088959
376.1303, 0.9583050
376.6125, 0.8948880
377.0946, 0.8758390
377.5767, 0.8544770
378.0588, 0.8343850
378.5409, 0.8016780
379.0230, 0.7608150
379.5052, 0.7014050
379.9873, 0.6082630
380.4694, 0.4788300
380.9515, 0.3371580
381.4336, 0.2017080
381.9157, 7.2499998E-02
382.3979, 3.8516998E-02
382.8800, 0.1204610
383.3621, 0.1936650
383.8442, 0.2489990
384.3263, 0.3017230
384.8084, 0.4064430
385.2906, 0.6468770
385.7727, 0.9498420
386.2548, 1.141542
386.7369, 1.199306
387.2190, 1.225973
387.7011, 1.301451
388.1833, 1.374916
388.6654, 1.355042
389.1475, 1.169455
389.6296, 0.9885540
390.1117, 1.004887
390.5938, 1.187927
391.0760, 1.287001
391.5581, 1.176886
392.0402, 1.002073
392.5223, 0.9796600
393.0044, 1.121185
393.4865, 1.233118
393.9687, 1.175871
394.4508, 1.062860
394.9329, 1.075615
395.4150, 1.243551
395.8971, 1.498947
396.3792, 1.820360
396.8614, 2.195021
397.3435, 2.491554
397.8256, 2.599155
398.3077, 2.721394
398.7898, 3.032175
399.2719, 3.481958
399.7540, 3.878431
400.2361, 4.114998
400.7183, 4.252323
401.2004, 4.455362
401.6825, 4.664606
402.1646, 5.025902
402.6467, 5.635393
403.1288, 6.378412
403.6110, 7.132744
404.0931, 7.865360
404.5752, 8.603508
405.0573, 9.386633
405.5394, 10.23261
406.0215, 11.00481
406.5037, 11.65752
406.9858, 12.28763
407.4679, 12.94113
407.9500, 13.61393
408.4321, 14.27766
408.9142, 14.91668
409.3964, 15.54630
409.8785, 16.25212
410.3606, 17.23586
410.8427, 18.02334
411.3248, 18.53162
411.8069, 18.85588
412.2891, 19.06335
412.7712, 19.18211
413.2533, 19.24295
413.7354, 19.30618
414.2175, 19.41630
414.6996, 19.34660
415.1818, 19.02580
415.6639, 18.58504
416.1460, 18.02831
416.6281, 17.38584
417.1102, 16.72576
417.5923, 16.09527
418.0745, 15.46969
418.5566, 14.72511
419.0387, 13.76289
419.5208, 12.91345
420.0029, 12.37890
420.4850, 11.94620
420.9672, 11.42362
421.4493, 10.76504
421.9314, 10.06631
422.4135, 9.378452
422.8956, 8.709349
423.3777, 8.205561
423.8599, 7.964119
424.3420, 7.795841
424.8241, 7.542038
425.3062, 7.224201
425.7883, 6.926329
426.2704, 6.669035
426.7526, 6.461573
427.2347, 6.322390
427.7168, 6.253572
428.1989, 6.251564
428.6810, 6.332661
429.1631, 6.457087
429.6453, 6.553173
430.1274, 6.649897
430.6095, 6.660488
431.0916, 6.490286
431.5737, 6.216963
432.0558, 5.958759
432.5380, 5.734425
433.0201, 5.641190
433.5022, 5.822344
433.9843, 6.318737
434.4664, 6.774601
434.9485, 7.172894
435.4307, 7.527092
435.9128, 7.799965
436.3949, 8.026917
436.8770, 8.322252
437.3591, 8.761982
437.8412, 9.304659
438.3234, 9.778561
438.8055, 10.02505
439.2876, 10.41025
439.7697, 11.03698
440.2518, 11.76506
440.7339, 12.48322
441.2160, 13.15462
441.6982, 13.77069
442.1803, 14.29084
442.6624, 14.67696
443.1445, 15.27315
443.6266, 16.23726
444.1087, 17.24003
444.5909, 18.18636
445.0730, 19.09821
445.5551, 20.05327
446.0372, 21.09313
446.5193, 22.14588
447.0014, 23.02400
447.4836, 23.63851
447.9657, 24.34262
448.4478, 25.26316
448.9299, 26.25389
449.4120, 27.26981
449.8941, 28.28846
450.3763, 29.23932
450.8584, 30.04336
451.3405, 30.73000
451.8226, 31.41721
452.3047, 32.13632
452.7868, 32.77441
453.2690, 33.25684
453.7511, 33.61618
454.2332, 33.87455
454.7153, 34.01314
455.1974, 34.09446
455.6795, 34.11797
456.1617, 34.11369
456.6438, 34.23467
457.1259, 34.56463
457.6080, 34.94864
458.0901, 35.16034
458.5722, 35.20101
459.0544, 35.30278
459.5365, 35.50492
460.0186, 35.78646
460.5007, 36.11272
460.9828, 36.49418
461.4649, 36.99425
461.9471, 37.66454
462.4292, 38.47609
462.9113, 39.32600
463.3934, 40.07999
463.8755, 41.04620
464.3576, 42.32224
464.8398, 43.79552
465.3219, 45.35723
465.8040, 46.99623
466.2861, 48.75471
466.7682, 50.68867
467.2503, 52.83202
467.7325, 54.86290
468.2146, 56.77063
468.6967, 58.57862
469.1788, 60.34613
469.6609, 62.02321
470.1430, 63.51306
470.6252, 64.76460
471.1073, 65.78130
471.5894, 66.62337
472.0715, 67.35767
472.5536, 67.69791
473.0357, 67.48968
473.5179, 66.92663
474.0000, 66.06021
474.4821, 64.90992
474.9642, 63.51163
475.4463, 61.72052
475.9284, 59.78019
476.4106, 58.28276
476.8927, 57.32367
477.3748, 56.19205
477.8569, 54.38182
478.3390, 52.29065
478.8211, 50.54549
479.3033, 49.20961
479.7854, 48.09276
480.2675, 47.11698
480.7496, 46.29646
481.2317, 45.64613
481.7138, 45.17069
482.1959, 44.82381
482.6780, 44.60577
483.1602, 44.50985
483.6423, 44.26513
484.1244, 43.73933
484.6065, 43.21985
485.0886, 42.91597
485.5707, 42.67604
486.0529, 42.20331
486.5350, 41.38768
487.0171, 40.42030
487.4992, 39.63934
487.9813, 39.19718
488.4634, 38.49879
488.9456, 37.50467
489.4277, 36.34220
489.9098, 35.01711
490.3919, 33.57946
490.8740, 32.11898
491.3561, 30.69752
491.8383, 29.28257
492.3204, 27.76489
492.8025, 26.08515
493.2846, 24.47829
493.7667, 22.95514
494.2488, 21.56273
494.7310, 20.39345
495.2131, 19.42817
495.6952, 18.47248
496.1773, 17.38864
496.6594, 16.22088
497.1415, 15.04079
497.6237, 13.79769
498.1058, 12.79848
498.5879, 12.39284
499.0700, 12.26691
499.5521, 11.77716
500.0342, 10.69269
500.5164, 9.727844
500.9985, 9.378307
501.4806, 9.344439
501.9627, 9.061035
502.4448, 8.411762
502.9269, 7.685707
503.4091, 7.151640
503.8912, 6.814167
504.3733, 6.489674
504.8554, 6.161982
505.3375, 5.863676
505.8196, 5.637768
506.3018, 5.438910
506.7839, 5.191437
507.2660, 4.870241
507.7481, 4.529125
508.2302, 4.253771
508.7123, 4.059483
509.1945, 3.874662
509.6766, 3.706955
510.1587, 3.541613
510.6408, 3.357140
511.1229, 3.172455
511.6050, 3.036467
512.0872, 2.988544
512.5693, 2.949865
513.0514, 2.763115
513.5335, 2.407558
514.0156, 2.050161
514.4977, 1.666124
514.9799, 1.355768
515.4620, 1.234591
515.9441, 1.274452
516.4262, 1.287601
516.9083, 1.171600
517.3904, 0.9993060
517.8726, 0.8710960
518.3547, 0.7833000
518.8368, 0.6594540
519.3189, 0.4475860
519.8010, 0.1965960
520.2831, 2.3593999E-02
520.7653, 6.3401997E-02
521.2474, 0.1206260
521.7295, 0.1007560
522.2116, 9.3699001E-02
522.6937, 0.2231750
523.1758, 0.4605350
523.6580, 0.6405560
524.1401, 0.6367650
524.6222, 0.4857310
525.1043, 0.3711110
525.5864, 0.2252030
526.0685, 0.2255400
526.5507, 0.5771200
527.0328, 0.9418840
527.5149, 0.9868880
527.9970, 0.7155150
528.4791, 0.4357840
528.9612, 0.4350090
529.4434, 0.6634810
529.9255, 0.8353930
530.4076, 0.9768010
530.8897, 0.9985470
531.3718, 0.7060580
531.8539, 0.3479240
532.3361, 0.2007940
532.8182, 0.3304800
533.3003, 0.4955850
533.7824, 0.5581740
534.2645, 0.5402100
534.7466, 0.4734410
535.2288, 0.3575940
535.7109, 0.2538880
536.1930, 0.2321890
536.6751, 0.2631920
537.1572, 0.1745230
537.6393, 0.1616620
538.1215, 0.4504690
538.6036, 0.5666280
539.0857, 0.6097350
539.5678, 0.7098360
540.0499, 0.8903100
540.5320, 1.076827
541.0142, 1.180323
541.4963, 1.195509
541.9784, 1.309340
542.4604, 1.628882
542.9426, 1.922334
543.4247, 2.176377
543.9068, 2.364095
544.3889, 2.395420
544.8710, 2.261597
545.3531, 2.189402
545.8353, 2.495787
546.3174, 3.141405
546.7995, 3.633257
547.2816, 3.890174
547.7637, 4.108753
548.2458, 4.428029
548.7280, 4.785341
549.2101, 5.066618
549.6922, 5.193159
550.1743, 5.367899
550.6564, 5.749611
551.1385, 6.266481
551.6207, 6.785582
552.1028, 7.280384
552.5849, 7.738176
553.0670, 8.137890
553.5491, 8.480528
554.0313, 8.853047
554.5134, 9.232242
554.9955, 9.663664
555.4776, 10.24267
555.9597, 10.84616
556.4418, 11.27320
556.9240, 11.49618
557.4061, 11.71840
557.8882, 12.20284
558.3703, 12.96001
558.8524, 13.60365
559.3345, 14.07380
559.8167, 14.50261
560.2988, 14.86625
560.7809, 15.24926
561.2630, 15.80222
561.7451, 16.58067
562.2272, 17.31524
562.7094, 17.68958
563.1915, 17.82498
563.6736, 18.13768
564.1557, 18.69569
564.6378, 19.33790
565.1199, 19.97398
565.6021, 20.60113
566.0842, 21.21155
566.5663, 21.76811
567.0484, 22.36037
567.5305, 23.04923
568.0126, 23.77595
568.4948, 24.43439
568.9769, 25.02200
569.4590, 25.69032
569.9411, 26.57838
570.4232, 27.67982
570.9053, 28.80964
571.3875, 30.09350
571.8696, 31.23542
572.3517, 31.98784
572.8338, 32.71497
573.3159, 33.81722
573.7980, 35.32571
574.2802, 36.85991
574.7623, 38.09660
575.2444, 39.08607
575.7265, 40.04102
576.2086, 40.97421
576.6907, 41.81318
577.1729, 42.47263
577.6550, 43.03298
578.1371, 43.66399
578.6192, 44.42514
579.1013, 44.99035
579.5834, 45.23351
580.0656, 45.22450
580.5477, 44.97786
581.0298, 44.52201
581.5119, 44.00211
581.9940, 43.52081
582.4761, 43.05716
582.9583, 42.50570
583.4404, 41.85386
583.9225, 41.11472
584.4046, 40.20444
584.8867, 39.23848
585.3688, 38.30717
585.8510, 37.42881
586.3331, 36.57589
586.8152, 35.72517
587.2973, 34.83623
587.7794, 33.83812
588.2615, 32.70812
588.7437, 31.63043
589.2258, 30.62661
589.7079, 29.75775
590.1900, 29.13014
590.6721, 28.68149
591.1542, 28.11886
591.6364, 27.30475
592.1185, 26.40368
592.6006, 25.52139
593.0827, 24.67601
593.5648, 23.89698
594.0469, 23.19346
594.5291, 22.54786
595.0112, 21.94618
595.4933, 21.39928
595.9754, 20.89486
596.4575, 20.43769
596.9396, 20.00554
597.4218, 19.67064
597.9039, 19.32587
598.3860, 18.77938
598.8681, 17.97267
599.3502, 17.12998
599.8323, 16.52805
600.3145, 16.15710
600.7966, 15.79552
601.2787, 15.40304
601.7608, 15.09092
602.2429, 15.04536
602.7250, 15.08448
603.2072, 14.90683
603.6893, 14.39862
604.1714, 13.90743
604.6535, 13.63790
605.1356, 13.47579
605.6177, 13.26419
606.0999, 12.98619
606.5820, 12.68430
607.0641, 12.38763
607.5462, 12.09702
608.0283, 11.82289
608.5104, 11.57346
608.9926, 11.33390
609.4747, 11.11227
609.9568, 10.89342
610.4389, 10.62900
610.9210, 10.35232
611.4031, 10.18612
611.8853, 10.25663
612.3674, 10.40046
612.8495, 10.25058
613.3316, 9.780359
613.8137, 9.340817
614.2958, 8.997396
614.7780, 8.736690
615.2601, 8.566913
615.7422, 8.473795
616.2243, 8.382224
616.7064, 8.301917
617.1885, 8.191776
617.6707, 8.031475
618.1528, 7.823166
618.6349, 7.542250
619.1170, 7.188034
619.5991, 6.865499
620.0812, 6.719625
620.5634, 6.772288
621.0455, 6.692867
621.5276, 6.320848
622.0097, 6.011227
622.4918, 5.877940
622.9739, 5.824685
623.4561, 5.759663
623.9382, 5.652111
624.4203, 5.509077
624.9023, 5.330631
625.3845, 5.130696
625.8666, 4.974478
626.3487, 4.863176
626.8308, 4.667250
627.3129, 4.264214
627.7950, 3.833431
628.2772, 3.764004
628.7593, 4.154792
629.2414, 4.338188
629.7235, 4.046460
630.2056, 3.671179
630.6877, 3.494452
631.1699, 3.464544
631.6520, 3.396249
632.1341, 3.198109
632.6162, 2.930342
633.0983, 2.689492
633.5804, 2.463739
634.0626, 2.392434
634.5447, 2.648141
635.0268, 2.833137
635.5089, 2.747730
635.9910, 2.494493
636.4731, 2.206754
636.9553, 1.892627
637.4374, 1.662915
637.9195, 1.658701
638.4016, 1.771114
638.8837, 1.808648
639.3658, 1.754266
639.8480, 1.692983
640.3301, 1.690042
640.8122, 1.565944
641.2943, 1.653694
641.7764, 1.362147
642.2585, 1.135421
642.7407, 0.9923320
643.2228, 0.8941520
643.7049, 0.8601740
644.1870, 0.8664580
644.6691, 0.8273900
645.1512, 0.6724390
645.6334, 0.5007690
646.1155, 0.5339680
646.5976, 0.7698970
647.0797, 0.8405660
647.5618, 0.6279570
648.0439, 0.3771440
648.5261, 0.2677560
649.0082, 0.2693450
649.4903, 0.2943910
649.9724, 0.3620280
650.4545, 0.4137010
650.9366, 0.4338760
651.4188, 0.4243080
651.9009, 0.3637330
652.3830, 0.2616120
652.8651, 0.1828660
653.3472, 0.1802230
653.8293, 0.2317500
654.3115, 0.2462140
654.7936, 0.1937880
655.2757, 0.1766490
655.7578, 0.2904870
656.2399, 0.3724900
656.7220, 0.2847200
657.2042, 8.4757999E-02
657.6863, 3.9517999E-02
658.1684, 1.7244000E-02
658.6505, 0.1181040
659.1326, 0.1425550
659.6147, 0.1086900
660.0969, 5.6480002E-02
660.5790, 7.2579999E-03
661.0611, 6.2991999E-02
661.5432, 9.7934000E-02
662.0253, 0.1098440
662.5074, 7.6082997E-02
662.9896, 0.1045030
663.4717, 0.1951870
663.9538, 7.1194001E-02
664.4359, 6.8820000E-02
664.9180, 3.7523001E-02
665.4001, 0.1349500
665.8823, 0.2695750
666.3644, 0.2465370
666.8465, 0.1398860
667.3286, 8.4712997E-02
667.8107, 7.9893000E-02
668.2928, 4.9329001E-02
668.7750, 5.0795000E-02
669.2571, 0.1281720
669.7392, 6.9778003E-02
670.2213, 0.1056240
670.7034, 0.1983250
671.1855, 0.1564450
671.6677, 9.1523997E-02
672.1498, 1.2061000E-02
672.6319, 5.7556000E-02
673.1140, 9.1387004E-02
673.5961, 8.6460002E-02
674.0782, 5.0094001E-02
674.5604, 2.1384001E-02
675.0425, 0.1031540
675.5246, 9.7609997E-02
676.0067, 2.6998000E-02
676.4888, 9.8727003E-02
676.9709, 8.4526002E-02
677.4531, 2.4379999E-03
677.9352, 0.1994300
678.4173, 0.4613910
678.8994, 0.5602730
679.3815, 0.3374510
679.8636, 7.8983001E-02
680.3458, 9.3484998E-02
680.8279, 0.1748290
681.3100, 9.8573998E-02
681.7921, 0.1152110
682.2742, 0.2516650
682.7563, 0.1124320
683.2385, 0.2230320
683.7206, 0.3505780
684.2027, 0.1498070
684.6848, 4.2770002E-03
685.1669, 2.6178000E-02
685.6490, 5.5705000E-02
686.1312, 1.8414000E-02
686.6133, 0.1581690
687.0954, 0.2138550
687.5775, 9.9523000E-02
688.0596, 6.3781001E-02
688.5417, 0.2120910
689.0239, 0.3201890
689.5060, 0.2970030
689.9881, 0.1286470
690.4702, 4.0626001E-02
690.9523, 9.2554003E-02
691.4344, 4.4723000E-02
691.9166, 1.3125000E-02
692.3987, 4.8099998E-03
692.8808, 4.0420000E-02
693.3629, 0.2152810
693.8450, 0.3459290
694.3271, 0.2658830
694.8093, 5.1447000E-02
695.2914, 8.9876004E-02
695.7735, 5.7822000E-02
696.2556, 4.7026001E-02
696.7377, 0.1671580
697.2198, 0.2710620
697.7020, 0.2061130
698.1841, 6.0555998E-02
698.6662, 0.3006040
699.1483, 0.3451910
699.6304, 0.2352880
700.1125, 0.1258370
700.5947, 3.6504000E-02
701.0768, 0.1140520
701.5589, 1.3348000E-02
702.0410, 0.1152900
702.5231, 1.1345000E-02
703.0052, 0.2230610
703.4874, 0.4144340
703.9695, 0.4882760
704.4516, 0.4926200
704.9337, 0.4558730
705.4158, 0.3935350
705.8979, 0.4037390
706.3801, 0.5128590
706.8622, 0.5678340
707.3442, 0.4577630
707.8264, 0.2495450
708.3085, 0.1101810
708.7906, 4.8960999E-02
709.2727, 2.7539000E-02
709.7548, 6.1262999E-02
710.2369, 0.1164300
710.7191, 0.1810530
711.2012, 0.2532490
711.6833, 0.3391740
712.1654, 0.4457710
712.6475, 0.5203040
713.1296, 0.4742140
713.6118, 0.3354790
714.0939, 0.2584740
714.5760, 0.2521680
715.0581, 0.2870390
715.5402, 0.3797200
716.0223, 0.4759450
716.5045, 0.4603920
716.9866, 0.3038230
717.4687, 0.2230220
717.9508, 0.3071660
718.4329, 0.3951150
718.9150, 0.3912940
719.3972, 0.3459980
719.8793, 0.3481400
720.3614, 0.4158540
720.8435, 0.4767040
721.3256, 0.4397490
721.8077, 0.3409830
722.2899, 0.3340180
722.7720, 0.4325380
723.2541, 0.5093330
723.7362, 0.5296240
724.2183, 0.5008910
724.7004, 0.3951940
725.1826, 0.2153890
725.6647, 0.1537970
726.1468, 0.3389460
726.6289, 0.5002040
727.1110, 0.5345220
727.5931, 0.5005650
728.0753, 0.4299760
728.5574, 0.3467710
729.0395, 0.3181100
729.5216, 0.4136510
730.0037, 0.5578410
730.4858, 0.5444280
730.9680, 0.3653580
731.4501, 0.2909190
731.9322, 0.4089000
732.4143, 0.5636330
732.8964, 0.6518340
733.3785, 0.6677340
733.8607, 0.6010800
734.3428, 0.3405610
734.8249, 0.1687120
735.3070, 0.1922700
735.7891, 0.2874110
736.2712, 0.3904800
736.7534, 0.4709350
737.2355, 0.4896190
737.7176, 0.4213370
738.1997, 0.3275750
738.6818, 0.3222060
739.1639, 0.4013530
739.6461, 0.4256840
740.1282, 0.3636430
740.6103, 0.3131290
741.0924, 0.3362210
741.5745, 0.3829170
742.0566, 0.3216180
742.5388, 6.4110003E-02
743.0209, 1.8689999E-02
743.5030, 0.2950550
743.9851, 0.5963040
744.4672, 0.6539330
744.9493, 0.5546240
745.4315, 0.4371370
745.9136, 0.3405870
746.3957, 0.2461460
746.8778, 0.1431640
747.3599, 4.1634001E-02
747.8420, 6.9697000E-02
748.3242, 0.1944400
748.8063, 0.1842120
749.2884, 6.0240000E-02
749.7705, 0.3346500
750.2526, 0.3882150
750.7347, 0.2072290
751.2169, 0.1000430
751.6990, 0.1061410
752.1811, 0.1226360
752.6632, 0.1115410
753.1453, 0.1025420
753.6274, 0.1761390
754.1096, 0.3058410
754.5917, 0.3498470
755.0738, 0.1838290
755.5559, 1.5768001E-02
756.0380, 4.6585001E-02
756.5201, 0.2880500
757.0023, 0.3483370
757.4844, 0.1659750
757.9665, 7.0389998E-03
758.4486, 1.8900000E-02
758.9307, 0.1768530
759.4128, 0.2525950
759.8950, 0.1900010
760.3771, 0.1597010
760.8592, 0.1469720
761.3413, 0.1761370
761.8234, 0.3175890
762.3055, 0.4899240
762.7877, 0.5603060
763.2698, 0.4891410
763.7519, 0.3803340
764.2340, 0.2841620
764.7161, 0.2126050
765.1982, 0.1999590
765.6804, 0.2347320
766.1625, 0.2605130
766.6446, 0.2579650
767.1267, 0.2176740
767.6088, 0.1131370
768.0909, 6.2537998E-02
768.5731, 0.1171330
769.0552, 1.2375000E-02
769.5373, 0.1574210
770.0194, 0.3209810
770.5015, 0.4546460
770.9836, 0.5252950
771.4658, 0.5299850
771.9479, 0.4674430
772.4300, 0.2745380
772.9121, 9.9391997E-02
773.3942, 4.1074999E-02
773.8763, 6.9784999E-02
774.3585, 0.1798970
774.8406, 0.3426900
775.3227, 0.4319390
775.8048, 0.3552220
776.2869, 0.2036450
776.7690, 0.2255820
777.2512, 0.4706880
777.7333, 0.5427170
778.2154, 0.3304260
778.6975, 0.1017620
779.1796, 3.6791999E-02
779.6617, 8.3901003E-02
780.1439, 1.8143000E-02
780.6260, 0.1901880
781.1081, 0.3695520
781.5902, 0.4889950
782.0723, 0.5556960
782.5544, 0.5263940
783.0366, 0.4636340
783.5187, 0.4880360
784.0008, 0.6235720
784.4829, 0.7490290
784.9650, 0.7483210
785.4471, 0.6569180
785.9293, 0.5795300
786.4114, 0.5168320
786.8935, 0.4222700
787.3756, 0.2572460
787.8577, 0.1460310
788.3398, 0.2341250
788.8220, 0.4882280
789.3040, 0.6261500
789.7861, 0.6361060
790.2682, 0.5552850
790.7504, 0.2363000
791.2325, 3.4465000E-02
791.7146, 5.0320001E-03
792.1967, 0.2217110
792.6788, 0.2898810
793.1609, 7.6866001E-02
793.6431, 0.1297450
794.1252, 3.8061000E-02
794.6073, 0.2141670
795.0894, 0.3882010
795.5715, 0.4726800
796.0536, 0.4809160
796.5358, 0.4109800
797.0179, 0.3584740
797.5000, 0.4774900
797.9821, 0.7821040
798.4642, 0.9073160
798.9464, 0.7563820
799.4285, 0.6034170
799.9106, 0.4686320
800.3927, 0.3891680
800.8748, 0.4224160
801.3569, 0.5602250
801.8391, 0.6929960
802.3212, 0.7956170
802.8033, 0.8850130
803.2854, 1.031442
803.7675, 1.129564
804.2496, 0.9851000
804.7318, 0.6608780
805.2139, 0.4168220
805.6960, 0.3930600
806.1781, 0.4860320
806.6602, 0.5549330
807.1423, 0.6157760
807.6245, 0.6916270
808.1066, 0.7942670
808.5887, 0.8506340
809.0708, 0.8228650
809.5529, 0.7386420
810.0350, 0.6190610
810.5172, 0.4449580
810.9993, 0.3725870
811.4814, 0.4516740
811.9635, 0.5677760
812.4456, 0.7339490
812.9277, 0.8913380
813.4099, 0.9799900
813.8920, 1.007838
814.3741, 1.011047
814.8562, 1.008504
815.3383, 0.9871980
815.8204, 0.9292920
816.3026, 0.8438010
816.7847, 0.7171510
817.2668, 0.5627830
817.7489, 0.5005910
818.2310, 0.6068530
818.7131, 0.7973210
819.1953, 0.9099070
819.6774, 0.9330560
820.1595, 0.9507710
820.6416, 0.9667920
821.1237, 0.9708700
821.6058, 0.9767710
822.0880, 0.9554130
822.5701, 0.8095960
823.0522, 0.5509000
823.5343, 0.5125570
824.0164, 1.035696
824.4985, 1.462027
824.9807, 1.418356
825.4628, 1.185367
825.9449, 1.036570
826.4270, 1.011893
826.9091, 1.084565
827.3912, 1.253603
827.8734, 1.406474
828.3555, 1.328898
828.8376, 1.092068
829.3197, 1.005713
829.8018, 1.097745
830.2839, 1.233327
830.7661, 1.359916
831.2482, 1.452762
831.7303, 1.466000
832.2124, 1.387276
832.6945, 1.318998
833.1766, 1.265062
833.6588, 1.217014
834.1409, 1.183703
834.6230, 1.147059
835.1051, 1.072623
835.5872, 0.9758930
836.0693, 0.9318100
836.5515, 0.9848420
837.0336, 1.059297
837.5157, 1.127605
837.9978, 1.188101
838.4799, 1.241172
838.9620, 1.280828
839.4442, 1.292191
839.9263, 1.268298
840.4084, 1.214833
840.8905, 1.120423
841.3726, 0.9989040
841.8547, 0.9375730
842.3369, 0.9411090
842.8190, 0.9500110
843.3011, 0.9355780
843.7832, 0.9434410
844.2653, 1.043802
844.7474, 1.232553
845.2296, 1.322250
845.7117, 1.195004
846.1938, 1.141001
846.6759, 1.258727
847.1580, 1.385330
847.6401, 1.411261
848.1223, 1.368777
848.6044, 1.339380
849.0865, 1.340690
849.5686, 1.366264
850.0507, 1.448318
850.5328, 1.523486
851.0150, 1.509606
851.4971, 1.436603
851.9792, 1.397864
852.4613, 1.415117
852.9434, 1.423992
853.4255, 1.350258
853.9077, 1.230106
854.3898, 1.196182
854.8719, 1.260370
855.3540, 1.259829
855.8361, 1.125640
856.3182, 0.9989560
856.8004, 0.9912620
857.2825, 1.072667
857.7646, 1.151104
858.2467, 1.249560
858.7288, 1.292991
859.2109, 1.224715
859.6931, 1.169203
860.1752, 1.205996
860.6573, 1.263146
861.1394, 1.203384
861.6215, 1.023413
862.1036, 0.9610560
862.5858, 1.243526
863.0679, 1.538664
863.5500, 1.589987
864.0321, 1.508290
864.5142, 1.422254
864.9963, 1.369450
865.4785, 1.391585
865.9606, 1.514130
866.4427, 1.658170
866.9248, 1.692919
867.4069, 1.643416
867.8890, 1.624681
868.3712, 1.638263
868.8533, 1.677425
869.3354, 1.753323
869.8175, 1.806583
870.2996, 1.747777
870.7817, 1.576039
871.2639, 1.470925
871.7459, 1.466718
872.2280, 1.467963
872.7101, 1.429576
873.1923, 1.421720
873.6744, 1.534860
874.1565, 1.705177
874.6386, 1.769276
875.1207, 1.671569
875.6028, 1.589126
876.0850, 1.587815
876.5671, 1.602076
877.0492, 1.599918
877.5313, 1.577679
878.0134, 1.527144
878.4955, 1.451385
878.9777, 1.380102
879.4598, 1.344928
879.9419, 1.319633
880.4240, 1.239157
880.9061, 1.129268
881.3882, 1.097716
881.8704, 1.157384
882.3525, 1.231497
882.8346, 1.279708
883.3167, 1.276565
883.7988, 1.138547
884.2809, 0.8269310
884.7631, 0.6913660
885.2452, 0.8138340
885.7273, 0.9072200
886.2094, 0.8124780
886.6915, 0.7077260
887.1736, 0.8343190
887.6558, 1.171192
888.1379, 1.389812
888.6200, 1.480966
889.1021, 1.453656
889.5842, 1.167389
890.0663, 0.8966700
890.5485, 0.8923380
891.0306, 1.029843
891.5127, 1.033038
891.9948, 0.8212770
892.4769, 0.5949020
892.9590, 0.4669800
893.4412, 0.4002290
893.9233, 0.3461990
894.4054, 0.3249660
894.8875, 0.4173320
895.3696, 0.6156200
895.8517, 0.7742130
896.3339, 0.7812600
896.8160, 0.6932510
897.2981, 0.5897130
897.7802, 0.4813960
898.2623, 0.5116050
898.7444, 0.7110480
899.2266, 0.8128650
899.7087, 0.6676740
900.1908, 0.4256760
900.6729, 0.3016100
901.1550, 0.2979310
901.6371, 0.3675770
902.1193, 0.6150510
902.6014, 0.7410450
903.0835, 0.6161620
903.5656, 0.4240850
904.0477, 0.2619580
904.5298, 0.1326510
905.0120, 4.5423999E-02
905.4941, 8.3219996E-03
905.9762, 5.7770000E-03
906.4583, 1.3116000E-02
906.9404, 3.6022998E-02
907.4225, 4.6681002E-02
907.9047, 5.0128002E-02
908.3868, 5.3842001E-02
908.8689, 5.9466999E-02
909.3510, 6.5582000E-02
909.8331, 6.9734000E-02
910.3152, 7.6600000E-02
910.7974, 0.1260190
911.2795, 0.1670360
911.7616, 4.2861000E-02
912.2437, 0.2024640
912.7258, 0.2933700
913.2079, 9.8881997E-02
913.6901, 0.1748570
914.1722, 0.2472600
914.6543, 0.1534320
915.1364, 9.6649997E-02
915.6185, 7.7912003E-02
916.1006, 6.7244999E-02
916.5828, 5.9783000E-02
917.0649, 4.2158999E-02
917.5470, 7.8419996E-03
918.0291, 6.7447998E-02
918.5112, 4.2745002E-02
918.9933, 0.1453600
919.4755, 0.2108420
919.9576, 4.6337999E-02
920.4397, 8.6847998E-02
920.9218, 4.3446999E-02
921.4039, 5.4884002E-02
921.8860, 7.0207998E-02
922.3682, 4.7249999E-03
922.8503, 3.3339001E-02
923.3324, 2.9863000E-02
923.8145, 4.2458002E-02
924.2966, 0.1072430
924.7787, 0.2618040
925.2609, 0.2934780
925.7430, 0.2326400
926.2251, 0.1527070
926.7072, 7.4050002E-02
927.1893, 1.6263001E-02
927.6714, 9.5419995E-03
928.1536, 1.5008000E-02
928.6357, 3.8790000E-03
929.1178, 4.1466001E-02
929.5999, 9.0213999E-02
930.0820, 0.1450740
930.5641, 0.2020210
931.0463, 0.2654530
931.5284, 0.2898870
932.0105, 0.1470580
932.4926, 9.9656001E-02
932.9747, 0.1613790
933.4568, 3.3736002E-02
933.9390, 8.5253000E-02
934.4211, 0.1223840
934.9032, 0.1201810
935.3853, 0.1152060
935.8674, 0.1171800
936.3495, 0.2003540
936.8317, 0.4024030
937.3138, 0.5137440
937.7959, 0.4744950
938.2780, 0.4211170
938.7601, 0.4098930
939.2422, 0.4468930
939.7244, 0.5763240
940.2065, 0.8503400
940.6886, 0.9069630
941.1707, 0.4418440
941.6528, 0.1832000
942.1349, 0.4662050
942.6171, 0.8224490
943.0992, 0.8969730
943.5813, 0.7682670
944.0634, 0.6700820
944.5455, 0.6344270
945.0276, 0.6808330
945.5098, 0.8932100
945.9919, 1.108450
946.4740, 1.220310
946.9561, 1.265966
947.4382, 1.284052
947.9203, 1.293077
948.4025, 1.326004
948.8846, 1.406704
949.3667, 1.501182
949.8488, 1.598163
950.3309, 1.676172
950.8130, 1.683103
951.2952, 1.640347
951.7773, 1.610594
952.2594, 1.619545
952.7415, 1.693290
953.2236, 1.884488
953.7057, 2.124179
954.1878, 2.201710
954.6699, 2.156935
955.1520, 2.285991
955.6342, 2.630487
956.1163, 2.933077
956.5984, 3.045906
957.0805, 3.105308
957.5626, 3.340069
958.0447, 3.747419
958.5269, 4.072021
959.0090, 4.305664
959.4911, 4.482804
959.9732, 4.563323
960.4553, 4.706802
960.9374, 5.093261
961.4196, 5.591208
961.9017, 5.804823
962.3838, 5.561136
962.8659, 5.567359
963.3480, 5.985415
963.8301, 6.436252
964.3123, 6.846248
964.7944, 7.224202
965.2765, 7.559614
965.7586, 7.867544
966.2407, 8.209960
966.7228, 8.582774
967.2050, 9.015876
967.6871, 9.618742
968.1692, 10.17294
968.6513, 10.46400
969.1334, 10.68001
969.6155, 11.11518
970.0977, 11.75655
970.5798, 12.29350
971.0619, 12.56374
971.5440, 12.77160
972.0261, 13.04323
972.5082, 13.31228
972.9904, 13.50587
973.4725, 13.63818
973.9546, 13.77176
974.4367, 13.92084
974.9188, 14.01078
975.4009, 13.96175
975.8831, 13.82843
976.3652, 13.66688
976.8473, 13.49820
977.3294, 13.30285
977.8115, 13.11819
978.2936, 13.15945
978.7758, 13.53740
979.2579, 13.93854
979.7400, 13.90081
980.2221, 13.60605
980.7042, 13.65206
981.1863, 14.02210
981.6685, 14.46334
982.1506, 14.91783
982.6327, 15.50284
983.1148, 16.29713
983.5969, 17.27934
984.0790, 18.39966
984.5612, 19.65569
985.0433, 21.06552
985.5254, 22.61847
986.0075, 24.40814
986.4896, 26.54595
986.9717, 28.68373
987.4539, 30.56114
987.9360, 32.19929
988.4181, 33.66807
988.9002, 34.96826
989.3823, 36.08459
989.8644, 37.07563
990.3466, 37.75841
990.8287, 38.06915
991.3108, 38.08816
991.7929, 37.74950
992.2750, 37.14054
992.7571, 36.79622
993.2393, 36.79464
993.7214, 36.91700
994.2035, 37.21644
994.6856, 37.57883
995.1677, 37.95252
995.6498, 38.36665
996.1320, 38.90030
996.6141, 39.52780
997.0962, 40.04933
997.5783, 40.56092
998.0604, 40.75312
998.5425, 40.57313
999.0247, 39.99126
999.5068, 38.91935
999.9889, 37.49308
1000.471, 35.86274
1000.953, 34.04909
1001.435, 32.06254
1001.917, 29.86483
1002.399, 27.60048
1002.882, 25.24919
1003.364, 22.95781
1003.846, 20.78819
1004.328, 18.79467
1004.810, 17.02852
1005.292, 15.49675
1005.774, 14.13366
1006.256, 12.87478
1006.739, 11.77170
1007.221, 10.95356
1007.703, 10.29663
1008.185, 9.667697
1008.667, 9.035044
1009.149, 8.356050
1009.631, 7.625580
1010.113, 6.928364
1010.595, 6.332367
1011.078, 5.826699
1011.560, 5.423900
1012.042, 5.092121
1012.524, 4.751492
1013.006, 4.400812
1013.488, 4.087545
1013.970, 3.831100
1014.452, 3.613275
1014.935, 3.429243
1015.417, 3.255574
1015.899, 3.024699
1016.381, 2.748927
1016.863, 2.476292
1017.345, 2.219678
1017.827, 2.024611
1018.309, 1.917201
1018.791, 1.838157
1019.274, 1.698115
1019.756, 1.518254
1020.238, 1.416769
1020.720, 1.389327
1021.202, 1.296315
1021.684, 1.109290
1022.166, 0.9367170
1022.648, 0.8421680
1023.130, 0.7899420
1023.613, 0.7214900
1024.095, 0.6390980
1024.577, 0.5792470
1025.059, 0.5398340
1025.541, 0.5555710
1026.023, 0.6532580
1026.505, 0.7101940
1026.987, 0.6378830
1027.469, 0.5041060
1027.952, 0.4351150
1028.434, 0.4333970
1028.916, 0.4307580
1029.398, 0.4394740
1029.880, 0.4050810
1030.362, 0.3200040
1030.844, 0.1757570
1031.326, 7.4326999E-02
1031.809, 0.3420730
1032.291, 0.4392600
1032.773, 0.3420990
1033.255, 0.2729570
1033.737, 0.2261070
1034.219, 0.2250760
1034.701, 0.3280480
1035.183, 0.3959300
1035.666, 0.3277410
1036.148, 0.1665280
1036.630, 2.0473000E-02
1037.112, 0.2673480
1037.594, 0.3432260
1038.076, 7.2114997E-02
1038.558, 8.8005997E-02
1039.040, 8.5850004E-03
1039.522, 0.1490960
1040.005, 0.3563980
1040.487, 0.5468670
1040.969, 0.5400720
1041.451, 0.2625950
1041.933, 0.1771950
1042.415, 0.5275490
1042.897, 0.7400270
1043.379, 0.6074450
1043.861, 0.4075660
1044.344, 0.3106060
1044.826, 0.2765020
1045.308, 0.2116520
1045.790, 9.8135002E-02
1046.272, 4.3574002E-02
1046.754, 0.1352140
1047.236, 0.1823180
1047.718, 8.3109997E-02
1048.201, 2.1421000E-02
1048.683, 2.6308000E-02
1049.165, 3.0128000E-02
1049.647, 7.5583003E-02
1050.129, 0.1031090
1050.611, 0.1032740
1051.093, 5.7323001E-02
1051.575, 6.4849998E-03
1052.057, 5.2551001E-02
1052.540, 9.7543001E-02
1053.022, 9.8644003E-02
1053.504, 7.9919003E-02
1053.986, 7.7229001E-02
1054.468, 9.5046997E-02
1054.950, 0.1582150
1055.432, 0.3742460
1055.914, 0.4999590
1056.396, 0.3524120
1056.879, 0.1812310
1057.361, 0.2198120
1057.843, 0.3490220
1058.325, 0.3273210
1058.807, 0.1210120
1059.289, 5.4166999E-02
1059.771, 0.1262940
1060.253, 0.1580760
1060.736, 0.1475710
1061.218, 0.1313350
1061.700, 0.1657920
1062.182, 0.2007470
1062.664, 0.1018460
1063.146, 0.1289390
1063.628, 0.2060670
1064.110, 0.1193370
1064.593, 0.4101280
1065.075, 0.4743870
1065.557, 0.4485130
1066.039, 0.3686530
1066.521, 0.3038300
1067.003, 0.3863650
1067.485, 0.6059210
1067.967, 0.7249580
1068.449, 0.5639680
1068.932, 0.4464770
1069.414, 0.5748110
1069.896, 0.7424550
1070.378, 0.8109080
1070.860, 0.8094110
1071.342, 0.7663550
1071.824, 0.7058400
1072.306, 0.7086190
1072.788, 0.8099710
1073.271, 0.9648280
1073.753, 1.213791
1074.235, 1.444601
1074.717, 1.588339
1075.199, 1.656516
1075.681, 1.653163
1076.163, 1.594042
1076.645, 1.522374
1077.127, 1.431558
1077.610, 1.398347
1078.092, 1.506660
1078.574, 1.631822
1079.056, 1.670691
1079.538, 1.691788
1080.020, 1.788204
1080.502, 1.949823
1080.984, 2.103795
1081.467, 2.223439
1081.949, 2.354788
1082.431, 2.567281
1082.913, 2.742131
1083.395, 2.789907
1083.877, 2.774494
1084.359, 2.722418
1084.841, 2.676911
1085.323, 2.735356
1085.806, 2.933973
1086.288, 3.124537
1086.770, 3.264821
1087.252, 3.355824
1087.734, 3.338515
1088.216, 3.325192
1088.698, 3.432635
1089.180, 3.609797
1089.662, 3.773509
1090.145, 3.919649
1090.627, 3.971028
1091.109, 3.801051
1091.591, 3.649045
1092.073, 3.618496
1092.555, 3.633101
1093.037, 3.636796
1093.519, 3.658432
1094.002, 3.790623
1094.484, 4.027308
1094.966, 4.120292
1095.448, 3.731027
1095.930, 3.555060
1096.412, 4.079114
1096.894, 4.611085
1097.376, 4.642753
1097.859, 4.442700
1098.341, 4.402699
1098.823, 4.536930
1099.305, 4.617985
1099.787, 4.493923
1100.269, 4.524108
1100.751, 4.955332
1101.233, 5.377508
1101.715, 5.535282
1102.198, 5.625218
1102.680, 5.859625
1103.162, 6.219302
1103.644, 6.585016
1104.126, 6.975548
1104.608, 7.257643
1105.090, 7.290672
1105.572, 7.360874
1106.054, 7.534992
1106.537, 7.811729
1107.019, 8.201846
1107.501, 8.688773
1107.983, 9.286452
1108.465, 10.06002
1108.947, 10.57695
1109.429, 10.46430
1109.911, 10.56651
1110.394, 11.23960
1110.876, 11.97817
1111.358, 12.48478
1111.840, 12.85995
1112.322, 13.27558
1112.804, 13.73491
1113.286, 14.11699
1113.768, 14.28728
1114.250, 14.63393
1114.733, 15.28641
1115.215, 15.96304
1115.697, 16.52223
1116.179, 17.07448
1116.661, 17.76523
1117.143, 18.56432
1117.625, 19.29378
1118.107, 19.89131
1118.589, 20.54922
1119.072, 21.19756
1119.554, 22.06766
1120.036, 23.36509
1120.518, 24.69158
1121.000, 25.66413
1121.482, 26.43804
1121.964, 27.47882
1122.446, 28.81966
1122.929, 30.17256
1123.411, 31.51717
1123.893, 32.95411
1124.375, 34.48888
1124.857, 36.18067
1125.339, 38.09521
1125.821, 40.12124
1126.303, 42.03346
1126.786, 43.84871
1127.268, 45.90158
1127.750, 48.20238
1128.232, 50.53386
1128.714, 52.83580
1129.196, 55.29903
1129.678, 57.99150
1130.160, 60.91444
1130.642, 64.07971
1131.125, 67.45564
1131.607, 70.92288
1132.089, 74.47874
1132.571, 78.08739
1133.053, 81.76715
1133.535, 85.41261
1134.017, 88.99465
1134.499, 92.27440
1134.981, 95.08022
1135.464, 97.40060
1135.946, 99.12825
1136.428, 100.3615
1136.910, 101.6196
1137.392, 102.7607
1137.874, 103.1385
1138.356, 102.6133
1138.838, 101.1272
1139.321, 98.64154
1139.803, 95.64014
1140.285, 92.55904
1140.767, 89.37632
1141.249, 86.05934
1141.731, 82.58194
1142.213, 78.79594
1142.695, 74.80258
1143.177, 70.90045
1143.660, 67.19497
1144.142, 63.66403
1144.624, 60.27219
1145.106, 57.03613
1145.588, 53.91755
1146.070, 51.00158
1146.552, 48.52546
1147.034, 46.27562
1147.516, 43.74466
1147.999, 40.99480
1148.481, 38.67083
1148.963, 37.08720
1149.445, 35.61252
1149.927, 33.82354
1150.409, 32.02819
1150.891, 30.44004
1151.373, 28.97278
1151.856, 27.55925
1152.338, 26.17730
1152.820, 24.77057
1153.302, 23.34663
1153.784, 22.06473
1154.266, 21.07636
1154.748, 20.08668
1155.230, 18.93768
1155.713, 17.83258
1156.195, 16.87396
1156.677, 16.04122
1157.159, 15.32066
1157.641, 14.68958
1158.123, 14.02003
1158.605, 13.30032
1159.087, 12.53336
1159.569, 11.61053
1160.052, 10.77254
1160.534, 10.08367
1161.016, 9.512671
1161.498, 9.076895
1161.980, 8.740492
1162.462, 8.441742
1162.944, 8.192024
1163.426, 7.874468
1163.908, 7.452818
1164.391, 7.081915
1164.873, 6.815369
1165.355, 6.532866
1165.837, 6.149308
1166.319, 5.801600
1166.801, 5.708444
1167.283, 5.325705
1167.765, 5.007416
1168.247, 4.821164
1168.730, 4.381320
1169.212, 4.187141
1169.694, 4.090860
1170.176, 4.057013
1170.658, 3.963620
1171.140, 3.720530
1171.622, 3.413068
1172.104, 3.149577
1172.587, 2.943727
1173.069, 2.886889
1173.551, 2.926539
1174.033, 2.870197
1174.515, 2.699342
1174.997, 2.561558
1175.479, 2.525681
1175.961, 2.506461
1176.443, 2.438656
1176.926, 2.348069
1177.408, 2.238770
1177.890, 2.134489
1178.372, 2.102412
1178.854, 2.109384
1179.336, 2.072478
1179.818, 1.994232
1180.300, 1.965185
1180.782, 2.036426
1181.265, 2.047064
1181.747, 1.857697
1182.229, 1.629582
1182.711, 1.397029
1183.193, 1.231648
1183.675, 1.301326
1184.157, 1.455679
1184.639, 1.368940
1185.122, 1.008705
1185.604, 0.7484180
1186.086, 0.7396130
1186.568, 0.7256440
1187.050, 0.5942710
1187.532, 0.5366340
1188.014, 0.7592350
1188.496, 0.9795640
1188.979, 0.8818210
1189.461, 0.5917750
1189.943, 0.4815050
1190.425, 0.5873780
1190.907, 0.6645710
1191.389, 0.7225660
1191.871, 0.7234080
1192.353, 0.6570890
1192.835, 0.5364600
1193.318, 0.3503210
1193.800, 0.1647030
1194.282, 6.0481001E-02
1194.764, 2.5150999E-02
1195.246, 5.5000000E-03
1195.728, 6.5000000E-04
1196.210, 5.6467999E-02
1196.692, 0.1678110
1197.174, 0.1595760
1197.657, 2.2030000E-03
1198.139, 9.6708998E-02
1198.621, 1.7289000E-02
1199.103, 0.2038230
1199.585, 0.3229430
1200.067, 0.3559360
1200.549, 0.1918190
1201.031, 5.8178999E-02
1201.514, 0.1271040
1201.996, 5.1158998E-02
1202.478, 3.8339000E-02
1202.960, 0.1287100
1203.442, 0.1397780
1203.924, 8.8381998E-02
1204.406, 0.2621600
1204.888, 6.2221002E-02
1205.370, 0.1761180
1205.853, 0.1876280
1206.335, 7.5367004E-02
1206.817, 9.2703000E-02
1207.299, 0.2488060
1207.781, 0.2581420
1208.263, 8.5794002E-02
1208.745, 9.7189002E-02
1209.227, 0.3765230
1209.709, 0.4709550
1210.192, 0.1419400
1210.674, 0.1703410
1211.156, 0.2552070
1211.638, 0.2082430
1212.120, 7.1777001E-02
1212.602, 0.1071840
1213.084, 0.1334960
1213.566, 4.4140000E-02
1214.049, 0.1078200
1214.531, 2.3990000E-02
1215.013, 3.9590001E-02
1215.495, 4.7928002E-02
1215.977, 6.0180001E-02
1216.459, 0.1168050
1216.941, 0.1345480
1217.423, 1.5064000E-02
1217.906, 6.9663003E-02
1218.388, 0.2009820
1218.870, 2.7106000E-02
1219.352, 2.4897000E-02
1219.834, 0.1675350
1220.316, 0.1893930
1220.798, 7.5530000E-03
1221.280, 0.1246400
1221.762, 4.0759998E-03
1222.245, 0.1252700
1222.727, 0.1140910
1223.209, 0.3964890
1223.691, 0.3108670
1224.173, 8.3613999E-02
1224.655, 3.5999999E-03
1225.137, 1.3431000E-02
1225.619, 2.8508000E-02
1226.101, 1.3482000E-02
1226.584, 5.0411001E-02
1227.066, 0.2157630
1227.548, 0.3242120
1228.030, 0.2789490
1228.512, 0.2271630
1228.994, 0.2253420
1229.476, 0.2453410
1229.958, 0.3499420
1230.441, 0.4147370
1230.923, 0.1464480
1231.405, 0.4361750
1231.887, 0.6300070
1232.369, 0.2827440
1232.851, 2.0049999E-03
1233.333, 0.1986700
1233.815, 0.2695880
1234.297, 0.1596110
1234.780, 8.6379997E-02
1235.262, 0.2191580
1235.744, 0.4333340
1236.226, 0.5169640
1236.708, 0.4975560
1237.190, 0.4819760
1237.672, 0.4700030
1238.154, 0.4729330
1238.636, 0.4796340
1239.119, 0.4126070
1239.601, 0.2672720
1240.083, 0.1865520
1240.565, 0.2777700
1241.047, 0.3769010
1241.529, 0.2830760
1242.011, 0.1669820
1242.493, 0.1559310
1242.975, 0.2372200
1243.458, 0.4933070
1243.940, 0.7930720
1244.422, 0.8961200
1244.904, 0.7578160
1245.386, 0.6387750
1245.868, 0.6161640
1246.350, 0.6322890
1246.832, 0.6776840
1247.315, 0.7045290
1247.797, 0.7606920
1248.279, 0.7933230
1248.761, 0.7823510
1249.243, 0.7583500
1249.725, 0.6801920
1250.207, 0.6628650
1250.689, 0.6018440
1251.172, 0.5465620
1251.654, 0.5448600
1252.136, 0.4685390
1252.618, 0.4473730
1253.100, 0.5031850
1253.582, 0.5957750
1254.064, 0.6088630
1254.546, 0.6716770
1255.028, 0.6812640
1255.510, 0.6633040
1255.993, 0.6396990
1256.475, 0.6244450
1256.957, 0.7004950
1257.439, 0.8151500
1257.921, 0.7230880
1258.403, 0.4136210
1258.885, 0.3263290
1259.367, 0.4496860
1259.850, 0.5650600
1260.332, 0.6451140
1260.814, 0.6693220
1261.296, 0.6236930
1261.778, 0.5347180
1262.260, 0.3146600
1262.742, 0.1253040
1263.224, 0.1884460
1263.707, 0.4629100
1264.189, 0.5490500
1264.671, 0.3086660
1265.153, 0.1646290
1265.635, 0.1268010
1266.117, 0.1697540
1266.599, 0.3006770
1267.081, 0.4058650
1267.563, 0.4201520
1268.046, 0.3841300
1268.528, 0.3348500
1269.010, 0.3038040
1269.492, 0.3168330
1269.974, 0.3653170
1270.456, 0.5013590
1270.938, 0.6590130
1271.420, 0.6117790
1271.902, 0.3973130
1272.385, 0.3356600
1272.867, 0.5438200
1273.349, 0.7453930
1273.831, 0.7191040
1274.313, 0.7329790
1274.795, 0.9424690
1275.277, 1.071656
1275.759, 0.8878400
1276.242, 0.6032010
1276.724, 0.4802160
1277.206, 0.4856150
1277.688, 0.4770100
1278.170, 0.4513130
1278.652, 0.4380930
1279.134, 0.4542500
1279.616, 0.4263480
1280.099, 0.3409940
1280.581, 0.2475820
1281.063, 0.1628380
1281.545, 9.0271004E-02
1282.027, 3.0869000E-02
1282.509, 6.0129999E-03
1282.991, 6.7530000E-03
1283.473, 1.9412000E-02
1283.955, 0.0000000E+00
##END=



