##NAMES=Bertrandite
##RRUFFID=R060800
##IDEAL CHEMISTRY=Be_4_Si_2_O_7_(OH)_2_
##LOCALITY=Golconda mine, Governador Valadares, Minas Gerais, Brazil
##OWNER=RRUFF
##SOURCE=Bob Jenkins
##DESCRIPTION=Colorless pseudohexagonal prisms
##STATUS=The identification of this mineral is confirmed by single-crystal X-ray diffraction and chemical analysis.
##URL=rruff.info/R060800
##MEASURED CHEMISTRY=Be_4.00_Si_2.00_O_7_(OH)_2_
172.1499, 0.0000000E+00
172.6321, 28.57227
173.1142, 12.46387
173.5963, 8.586914
174.0784, 12.91895
174.5605, 58.04590
175.0426, 107.3467
175.5248, 160.3955
176.0069, 213.8047
176.4890, 260.0840
176.9711, 303.4258
177.4532, 362.9062
177.9353, 440.8916
178.4175, 539.3438
178.8996, 653.6348
179.3817, 783.3193
179.8638, 938.0498
180.3459, 1123.112
180.8280, 1338.380
181.3102, 1580.225
181.7923, 1838.580
182.2744, 2132.590
182.7565, 2508.757
183.2386, 2961.111
183.7207, 3343.694
184.2029, 3621.324
184.6850, 3772.781
185.1671, 3649.030
185.6492, 3087.356
186.1313, 2391.841
186.6134, 1789.245
187.0956, 1283.759
187.5777, 865.2705
188.0598, 539.0830
188.5419, 302.1387
189.0240, 128.9004
189.5061, 33.32227
189.9883, 10.93457
190.4704, 22.79102
190.9525, 5.276367
191.4346, 21.74805
191.9167, 36.12988
192.3988, 44.30957
192.8810, 90.76367
193.3631, 200.2363
193.8452, 326.0342
194.3273, 425.2666
194.8094, 506.7354
195.2915, 613.2227
195.7737, 764.9688
196.2558, 962.7891
196.7379, 1213.010
197.2200, 1524.353
197.7021, 1884.864
198.1842, 2291.696
198.6664, 2735.960
199.1485, 3187.312
199.6306, 3602.396
200.1127, 3998.602
200.5948, 4485.360
201.0770, 5100.432
201.5591, 5759.824
202.0412, 6362.316
202.5233, 6952.358
203.0054, 7642.613
203.4875, 8529.126
203.9697, 9577.594
204.4518, 10630.50
204.9339, 11652.75
205.4160, 12735.38
205.8981, 13970.90
206.3802, 15294.36
206.8624, 16599.74
207.3445, 18224.16
207.8266, 19757.49
208.3087, 19764.00
208.7908, 17738.22
209.2729, 15017.89
209.7551, 11839.33
210.2372, 8552.905
210.7193, 5800.574
211.2014, 3930.698
211.6835, 2765.837
212.1656, 1900.191
212.6478, 1406.605
213.1299, 1070.653
213.6120, 831.3682
214.0941, 661.8887
214.5762, 527.9512
215.0583, 420.2461
215.5405, 337.9551
216.0226, 280.2988
216.5047, 247.0488
216.9868, 240.9062
217.4689, 275.2578
217.9510, 331.9824
218.4332, 390.2070
218.9153, 438.0186
219.3974, 492.5811
219.8795, 581.9756
220.3616, 711.3691
220.8437, 858.9463
221.3259, 1034.965
221.8080, 1217.292
222.2901, 1385.365
222.7722, 1525.964
223.2543, 1672.221
223.7364, 1881.848
224.2186, 2165.745
224.7007, 2464.115
225.1828, 2749.203
225.6649, 3047.624
226.1470, 3370.248
226.6291, 3712.629
227.1113, 4111.028
227.5934, 4629.254
228.0755, 5270.707
228.5576, 5914.666
229.0397, 6724.000
229.5218, 7359.139
230.0040, 7524.422
230.4861, 7182.255
230.9682, 6552.746
231.4503, 5695.873
231.9324, 4635.969
232.4145, 3712.969
232.8967, 2992.677
233.3788, 2458.884
233.8609, 2077.432
234.3430, 1849.562
234.8251, 1723.906
235.3072, 1681.503
235.7894, 1718.098
236.2715, 1816.153
236.7536, 1986.883
237.2357, 2204.836
237.7178, 2457.706
238.1999, 2739.268
238.6821, 3019.041
239.1642, 3256.818
239.6463, 3481.209
240.1284, 3799.590
240.6105, 4282.629
241.0926, 4717.176
241.5748, 4992.475
242.0569, 5105.686
242.5390, 4971.889
243.0211, 4437.459
243.5032, 3678.701
243.9853, 2942.042
244.4675, 2221.424
244.9496, 1599.987
245.4317, 1173.411
245.9138, 896.7539
246.3959, 688.6143
246.8780, 560.8408
247.3602, 476.7441
247.8423, 400.8848
248.3244, 333.4316
248.8065, 275.2139
249.2886, 227.5107
249.7707, 189.8906
250.2529, 158.7910
250.7350, 136.9023
251.2171, 118.3838
251.6992, 94.72461
252.1813, 67.96387
252.6634, 54.61133
253.1456, 68.21582
253.6277, 96.02734
254.1098, 108.1953
254.5919, 101.5693
255.0740, 86.05859
255.5561, 56.52051
256.0382, 20.70410
256.5204, 0.7783200
257.0025, 5.552734
257.4846, 28.45898
257.9667, 62.27441
258.4488, 113.7617
258.9309, 152.1562
259.4131, 164.8926
259.8952, 160.1084
260.3773, 147.9951
260.8594, 130.6582
261.3415, 112.4521
261.8236, 99.06348
262.3058, 89.90137
262.7879, 89.87988
263.2700, 112.9590
263.7521, 138.2627
264.2342, 140.4053
264.7163, 115.8057
265.1985, 90.79395
265.6806, 96.55078
266.1627, 141.2773
266.6448, 155.6143
267.1269, 111.9492
267.6090, 62.17285
268.0912, 42.48535
268.5733, 49.15723
269.0554, 53.11621
269.5375, 30.17383
270.0196, 18.68066
270.5017, 45.20117
270.9839, 28.80078
271.4660, 16.67969
271.9481, 32.85449
272.4302, 65.32812
272.9123, 88.35938
273.3944, 86.96875
273.8766, 66.67773
274.3587, 50.68457
274.8408, 39.35449
275.3229, 32.31641
275.8050, 36.20898
276.2871, 42.09277
276.7693, 37.64941
277.2514, 18.36914
277.7335, 7.083008
278.2156, 20.28809
278.6977, 3.910156
279.1798, 3.892578
279.6620, 31.95801
280.1441, 67.19824
280.6262, 96.47363
281.1083, 116.0391
281.5904, 128.6855
282.0725, 135.6514
282.5547, 133.7861
283.0368, 125.5869
283.5189, 99.27246
284.0010, 79.54395
284.4831, 79.34570
284.9652, 96.00000
285.4474, 120.2490
285.9295, 149.3369
286.4116, 184.8916
286.8937, 193.7393
287.3758, 140.1113
287.8579, 91.52246
288.3401, 74.80176
288.8222, 81.17871
289.3043, 93.20605
289.7864, 92.04688
290.2685, 95.23047
290.7506, 160.5078
291.2328, 339.7891
291.7149, 464.3115
292.1970, 436.9971
292.6791, 354.8115
293.1612, 309.4863
293.6433, 329.6035
294.1255, 386.5703
294.6076, 448.7783
295.0897, 516.6230
295.5718, 586.5332
296.0539, 652.3838
296.5360, 725.2207
297.0182, 813.8271
297.5003, 918.8496
297.9824, 1035.859
298.4645, 1154.565
298.9466, 1280.303
299.4287, 1442.312
299.9109, 1663.401
300.3930, 1887.745
300.8751, 2101.756
301.3572, 2293.812
301.8393, 2373.942
302.3214, 2278.920
302.8036, 2065.695
303.2857, 1788.433
303.7678, 1443.349
304.2499, 1111.968
304.7320, 842.3721
305.2141, 637.3896
305.6963, 490.0449
306.1784, 426.3662
306.6605, 397.3125
307.1426, 378.9229
307.6247, 369.2080
308.1068, 362.4971
308.5890, 358.5596
309.0711, 353.3271
309.5532, 332.8281
310.0353, 285.6533
310.5174, 244.9922
310.9995, 224.6045
311.4817, 214.5010
311.9638, 200.5596
312.4459, 178.4131
312.9280, 152.9492
313.4101, 131.9883
313.8922, 119.6709
314.3744, 102.2871
314.8565, 65.15625
315.3386, 34.03809
315.8207, 36.61133
316.3028, 69.09668
316.7849, 98.72461
317.2671, 93.15527
317.7492, 48.83008
318.2313, 23.42578
318.7134, 30.04102
319.1955, 40.47656
319.6776, 51.13379
320.1598, 58.73438
320.6419, 55.26758
321.1240, 33.80664
321.6061, 5.686523
322.0882, 11.82031
322.5703, 70.61230
323.0525, 136.1201
323.5346, 213.1904
324.0167, 285.8809
324.4988, 335.3740
324.9809, 357.4092
325.4630, 370.7754
325.9452, 401.6318
326.4273, 452.9512
326.9094, 503.9404
327.3915, 551.3613
327.8736, 597.9775
328.3557, 644.5645
328.8379, 693.1270
329.3200, 743.9062
329.8021, 807.3613
330.2842, 873.4863
330.7663, 906.2822
331.2484, 908.3877
331.7306, 872.9814
332.2127, 771.9951
332.6948, 634.5938
333.1769, 508.6064
333.6590, 410.7852
334.1411, 328.0557
334.6233, 244.4434
335.1054, 161.4160
335.5875, 96.37598
336.0696, 57.04590
336.5517, 40.22754
337.0338, 40.46191
337.5160, 69.70703
337.9981, 83.82227
338.4802, 45.29102
338.9623, 18.04199
339.4444, 51.25391
339.9265, 38.77441
340.4087, 8.094727
340.8908, 8.075195
341.3729, 5.784180
341.8550, 7.180664
342.3371, 27.40527
342.8192, 40.38965
343.3014, 11.08398
343.7835, 49.92773
344.2656, 87.12305
344.7477, 53.23242
345.2298, 43.41406
345.7119, 90.32520
346.1941, 15.83789
346.6762, 23.15137
347.1583, 34.15625
347.6404, 137.3838
348.1225, 215.6914
348.6046, 240.5059
349.0868, 239.6709
349.5689, 268.4902
350.0510, 345.0605
350.5331, 412.9600
351.0152, 440.2207
351.4973, 482.0928
351.9795, 588.7168
352.4616, 752.0156
352.9437, 912.1328
353.4258, 1006.151
353.9079, 1038.547
354.3900, 1109.600
354.8722, 1238.257
355.3543, 1381.061
355.8364, 1508.991
356.3185, 1637.151
356.8006, 1791.201
357.2827, 1984.995
357.7649, 2204.586
358.2470, 2443.356
358.7291, 2704.367
359.2112, 2943.574
359.6933, 3185.070
360.1754, 3361.765
360.6576, 3399.118
361.1397, 3285.866
361.6218, 3081.990
362.1039, 2744.258
362.5860, 2347.905
363.0681, 2048.751
363.5503, 1878.826
364.0324, 1792.566
364.5145, 1779.745
364.9966, 1844.403
365.4787, 1805.959
365.9608, 1596.253
366.4430, 1330.564
366.9251, 1054.041
367.4072, 782.9150
367.8893, 551.7178
368.3714, 380.6172
368.8535, 264.1523
369.3357, 178.8857
369.8178, 139.1240
370.2999, 114.0488
370.7820, 106.2803
371.2641, 109.5469
371.7462, 119.0801
372.2284, 133.0781
372.7105, 150.8135
373.1926, 174.0850
373.6747, 208.4912
374.1568, 223.7725
374.6389, 197.0107
375.1211, 172.2930
375.6032, 175.8213
376.0853, 194.2686
376.5674, 193.1221
377.0495, 141.5215
377.5316, 66.16504
378.0138, 49.00391
378.4959, 111.5654
378.9780, 167.7871
379.4601, 178.6533
379.9422, 173.3359
380.4243, 176.4932
380.9065, 190.5869
381.3886, 203.7158
381.8707, 200.4482
382.3528, 186.5156
382.8349, 186.7178
383.3170, 209.4629
383.7992, 237.5029
384.2813, 247.6973
384.7634, 243.7949
385.2455, 258.5479
385.7276, 324.0674
386.2097, 390.7988
386.6919, 411.1406
387.1740, 391.5703
387.6561, 373.1777
388.1382, 380.0215
388.6203, 403.4668
389.1024, 411.0020
389.5846, 389.3633
390.0667, 370.0381
390.5488, 357.7930
391.0309, 348.6279
391.5130, 342.7031
391.9951, 338.1396
392.4773, 323.8066
392.9594, 280.6699
393.4415, 197.5273
393.9236, 154.8379
394.4057, 195.6826
394.8878, 235.1494
395.3700, 241.4482
395.8521, 226.8594
396.3342, 218.9131
396.8163, 233.5273
397.2984, 254.5332
397.7805, 243.2549
398.2627, 187.5459
398.7448, 150.6309
399.2269, 175.9531
399.7090, 208.3330
400.1911, 199.7480
400.6732, 146.0010
401.1554, 88.84570
401.6375, 46.21094
402.1196, 17.16602
402.6017, 0.1787110
403.0838, 4.908203
403.5659, 5.046875
404.0481, 40.85254
404.5302, 88.92578
405.0123, 107.6035
405.4944, 61.14648
405.9765, 16.45410
406.4586, 14.16406
406.9408, 37.84961
407.4229, 51.66406
407.9050, 41.09961
408.3871, 17.74609
408.8692, 1.166016
409.3513, 11.43848
409.8335, 8.969727
410.3156, 29.59277
410.7977, 65.35449
411.2798, 64.59668
411.7619, 35.32910
412.2440, 12.81836
412.7262, 24.28223
413.2083, 64.85449
413.6904, 102.0264
414.1725, 136.6709
414.6546, 168.8193
415.1367, 204.9619
415.6189, 229.7012
416.1010, 222.8184
416.5831, 178.0674
417.0652, 136.0859
417.5473, 149.1602
418.0294, 210.5381
418.5116, 243.4844
418.9937, 226.5820
419.4758, 196.5674
419.9579, 176.3984
420.4400, 166.9600
420.9221, 172.4531
421.4043, 212.9990
421.8864, 253.7061
422.3685, 262.0879
422.8506, 243.7451
423.3327, 222.5342
423.8148, 208.6982
424.2970, 199.5928
424.7791, 189.3330
425.2612, 176.1250
425.7433, 165.7480
426.2254, 161.9189
426.7076, 158.7881
427.1897, 145.2822
427.6718, 125.2529
428.1539, 119.9404
428.6360, 151.5547
429.1181, 214.2363
429.6003, 240.3418
430.0824, 203.1650
430.5645, 165.6250
431.0466, 133.2891
431.5287, 110.7412
432.0108, 107.5479
432.4930, 126.2207
432.9751, 144.8203
433.4572, 137.1357
433.9393, 105.0371
434.4214, 71.88477
434.9035, 35.07031
435.3857, 6.871094
435.8678, 2.599609
436.3499, 14.83301
436.8320, 22.81055
437.3141, 1.328125
437.7962, 10.00195
438.2784, 42.27344
438.7605, 138.4609
439.2426, 195.7256
439.7247, 174.7959
440.2068, 116.4600
440.6889, 95.76855
441.1711, 130.3721
441.6532, 164.9199
442.1353, 199.8828
442.6174, 232.8711
443.0995, 261.9238
443.5816, 287.3008
444.0638, 309.8320
444.5459, 329.4873
445.0280, 347.4570
445.5101, 370.3701
445.9922, 402.7598
446.4743, 431.7002
446.9565, 450.3545
447.4386, 467.6055
447.9207, 495.0557
448.4028, 533.4316
448.8849, 564.9824
449.3670, 575.8838
449.8492, 567.6299
450.3313, 545.4287
450.8134, 508.4990
451.2955, 461.7734
451.7776, 402.0498
452.2597, 335.0605
452.7419, 274.4736
453.2240, 219.8887
453.7061, 174.6973
454.1882, 140.2432
454.6703, 116.7314
455.1524, 109.7881
455.6346, 121.5381
456.1167, 132.3564
456.5988, 115.6562
457.0809, 62.58105
457.5630, 23.93066
458.0451, 5.179688
458.5273, 17.83887
459.0093, 6.594727
459.4915, 46.13672
459.9736, 57.65723
460.4557, 19.16211
460.9378, 37.14355
461.4199, 41.84180
461.9020, 21.56152
462.3842, 57.97949
462.8663, 26.95996
463.3484, 9.561523
463.8305, 7.139648
464.3126, 27.16113
464.7947, 54.93066
465.2769, 50.38281
465.7590, 34.34473
466.2411, 37.89648
466.7232, 59.50488
467.2053, 74.05566
467.6874, 70.46094
468.1696, 56.41992
468.6517, 44.93848
469.1338, 33.49902
469.6159, 30.56055
470.0980, 54.39844
470.5801, 74.91992
471.0623, 55.20215
471.5444, 3.216797
472.0265, 36.63379
472.5086, 29.89941
472.9907, 13.67480
473.4728, 42.22656
473.9550, 56.29004
474.4371, 52.60156
474.9192, 14.52637
475.4013, 28.03223
475.8834, 53.79004
476.3655, 58.65137
476.8477, 46.41699
477.3298, 5.451172
477.8119, 51.04395
478.2940, 72.37207
478.7761, 50.00977
479.2582, 24.17871
479.7404, 15.49512
480.2225, 20.48047
480.7046, 29.59375
481.1867, 48.78613
481.6688, 60.81738
482.1509, 45.05957
482.6331, 24.15332
483.1152, 34.49609
483.5973, 80.25586
484.0794, 130.7383
484.5615, 156.1406
485.0436, 156.6240
485.5258, 165.9590
486.0079, 188.5430
486.4900, 215.3984
486.9721, 231.4062
487.4542, 257.5020
487.9363, 329.6504
488.4185, 454.0693
488.9006, 575.6279
489.3827, 626.9189
489.8648, 614.5205
490.3469, 616.3340
490.8290, 648.3477
491.3112, 668.9717
491.7933, 639.0049
492.2754, 580.0186
492.7575, 532.2012
493.2396, 497.0332
493.7217, 483.2686
494.2039, 506.2471
494.6860, 547.3994
495.1681, 574.7969
495.6502, 580.4863
496.1323, 588.6846
496.6144, 623.3125
497.0966, 687.2803
497.5787, 745.1299
498.0608, 800.6592
498.5429, 846.3320
499.0250, 887.7891
499.5071, 914.9277
499.9893, 915.7363
500.4714, 886.2744
500.9535, 830.2773
501.4356, 741.7451
501.9177, 621.5645
502.3998, 517.7441
502.8820, 435.4932
503.3641, 365.3711
503.8462, 302.0693
504.3283, 245.9678
504.8104, 198.7158
505.2925, 156.4941
505.7747, 129.2920
506.2568, 138.5088
506.7389, 163.9971
507.2210, 159.6455
507.7031, 114.5225
508.1852, 64.56934
508.6674, 50.03809
509.1495, 74.51367
509.6316, 87.65039
510.1137, 84.02637
510.5958, 76.00195
511.0779, 56.90723
511.5601, 39.26270
512.0422, 41.19629
512.5243, 67.41895
513.0064, 100.1113
513.4885, 119.8838
513.9706, 127.2246
514.4528, 132.3662
514.9349, 140.0664
515.4170, 135.5938
515.8991, 89.95410
516.3812, 28.37988
516.8633, 6.160156
517.3455, 53.55176
517.8276, 97.37500
518.3097, 88.19238
518.7918, 52.27441
519.2739, 43.14941
519.7560, 72.11523
520.2382, 99.16016
520.7203, 84.85645
521.2024, 29.37793
521.6845, 1.139648
522.1666, 29.74902
522.6487, 52.47168
523.1309, 53.16504
523.6130, 46.84766
524.0951, 50.29590
524.5772, 66.56934
525.0593, 84.29590
525.5414, 95.79688
526.0236, 100.5156
526.5057, 92.41602
526.9878, 66.90820
527.4699, 48.32031
527.9520, 52.57031
528.4341, 72.30078
528.9163, 89.27148
529.3984, 103.1631
529.8805, 111.7920
530.3626, 114.9258
530.8447, 119.0830
531.3268, 126.8828
531.8090, 138.8223
532.2911, 153.6924
532.7732, 169.4062
533.2553, 186.4541
533.7374, 217.5410
534.2195, 278.9473
534.7017, 327.7715
535.1838, 338.7686
535.6659, 351.3936
536.1480, 392.4941
536.6301, 462.9639
537.1122, 548.5586
537.5944, 657.1455
538.0765, 767.9561
538.5586, 843.3057
539.0407, 884.6621
539.5228, 921.8916
540.0049, 970.6230
540.4871, 1015.907
540.9692, 1034.631
541.4513, 1028.423
541.9334, 987.7051
542.4155, 896.2686
542.8976, 784.5947
543.3798, 656.6670
543.8619, 525.0381
544.3440, 408.0410
544.8261, 315.0469
545.3082, 245.5850
545.7903, 205.8936
546.2725, 201.7656
546.7546, 186.0527
547.2367, 141.7578
547.7188, 101.0459
548.2009, 94.15820
548.6830, 107.1689
549.1652, 101.7109
549.6473, 55.65723
550.1294, 5.115234
550.6115, 35.65527
551.0936, 60.78516
551.5757, 49.10938
552.0579, 3.782227
552.5400, 61.84570
553.0221, 87.47070
553.5042, 79.75391
553.9863, 67.00781
554.4684, 39.17969
554.9506, 18.26465
555.4327, 9.179688
555.9148, 8.143555
556.3969, 14.08887
556.8790, 25.75391
557.3611, 34.50098
557.8433, 26.26562
558.3254, 9.842773
558.8075, 15.59961
559.2896, 47.03711
559.7717, 76.33398
560.2538, 90.38184
560.7360, 92.62012
561.2181, 88.38965
561.7002, 70.77832
562.1823, 65.70703
562.6644, 98.52734
563.1465, 127.8574
563.6287, 109.7686
564.1108, 58.80859
564.5929, 24.82031
565.0750, 37.33203
565.5571, 77.19336
566.0392, 105.1758
566.5214, 121.4688
567.0035, 122.4707
567.4856, 92.35352
567.9677, 64.77637
568.4498, 68.91016
568.9319, 94.72363
569.4141, 108.8408
569.8962, 77.95605
570.3783, 62.38184
570.8604, 121.9668
571.3425, 224.2207
571.8246, 304.2158
572.3068, 345.8701
572.7889, 369.7148
573.2710, 393.6621
573.7531, 417.6328
574.2352, 461.8398
574.7173, 554.3398
575.1995, 629.8457
575.6816, 651.8984
576.1637, 667.2920
576.6458, 726.3682
577.1279, 836.5049
577.6100, 951.1211
578.0922, 1048.864
578.5743, 1127.670
579.0564, 1182.927
579.5385, 1213.054
580.0206, 1217.878
580.5027, 1201.112
580.9849, 1154.305
581.4670, 1057.766
581.9491, 880.4678
582.4312, 730.5107
582.9133, 618.0303
583.3954, 522.9600
583.8776, 439.0840
584.3597, 363.9395
584.8418, 291.0635
585.3239, 217.4766
585.8060, 157.2236
586.2881, 140.8604
586.7703, 168.6914
587.2524, 164.7197
587.7345, 115.0098
588.2166, 67.20996
588.6987, 59.35254
589.1808, 74.89648
589.6630, 79.67969
590.1451, 68.09082
590.6272, 52.49805
591.1093, 37.46875
591.5914, 22.79785
592.0735, 23.03809
592.5557, 36.12012
593.0378, 48.28418
593.5199, 49.33984
594.0020, 43.70020
594.4841, 48.14062
594.9662, 68.58008
595.4484, 76.17871
595.9305, 52.63379
596.4126, 30.28027
596.8947, 35.72852
597.3768, 59.59277
597.8589, 71.29492
598.3411, 42.09668
598.8232, 17.21680
599.3053, 38.89355
599.7874, 84.25000
600.2695, 110.7617
600.7516, 107.0781
601.2338, 87.27344
601.7159, 64.66016
602.1980, 40.02832
602.6801, 23.68652
603.1622, 17.77832
603.6443, 14.16602
604.1265, 10.13672
604.6086, 8.970703
605.0907, 16.64160
605.5728, 32.40820
606.0549, 42.97949
606.5370, 36.75879
607.0192, 24.61035
607.5013, 12.57227
607.9834, 4.579102
608.4655, 21.51660
608.9476, 75.14746
609.4297, 138.4570
609.9119, 162.0352
610.3940, 128.1914
610.8761, 96.82324
611.3582, 55.20117
611.8403, 30.45801
612.3224, 42.24219
612.8046, 69.10938
613.2867, 83.86816
613.7688, 80.33008
614.2509, 76.37500
614.7330, 93.55566
615.2151, 117.5537
615.6973, 113.8379
616.1794, 82.76562
616.6615, 57.09570
617.1436, 52.02148
617.6257, 64.60645
618.1078, 91.57715
618.5900, 149.2246
619.0721, 179.5312
619.5542, 158.3740
620.0363, 137.4443
620.5184, 143.9316
621.0005, 165.3076
621.4827, 177.4590
621.9648, 171.1494
622.4469, 163.3369
622.9290, 170.4014
623.4111, 189.8828
623.8932, 221.6221
624.3754, 267.7676
624.8575, 291.3516
625.3396, 266.4629
625.8217, 207.5312
626.3038, 154.4971
626.7859, 101.2295
627.2681, 64.96094
627.7502, 49.02051
628.2323, 47.68652
628.7144, 71.11035
629.1965, 104.6729
629.6786, 117.2822
630.1608, 92.62012
630.6429, 59.41406
631.1250, 53.03809
631.6071, 69.35742
632.0892, 93.69727
632.5714, 128.7471
633.0535, 140.2939
633.5356, 95.49805
634.0177, 13.51074
634.4998, 34.07031
634.9819, 25.55469
635.4641, 19.13965
635.9462, 26.07227
636.4283, 29.93555
636.9104, 15.25195
637.3925, 11.67969
637.8746, 33.28809
638.3568, 40.39355
638.8389, 40.22559
639.3210, 43.01758
639.8031, 47.62598
640.2852, 46.22266
640.7673, 36.61816
641.2495, 26.00000
641.7316, 18.33008
642.2137, 13.85645
642.6958, 14.10156
643.1779, 26.32324
643.6600, 32.40234
644.1422, 52.67969
644.6243, 27.01367
645.1064, 71.73535
645.5885, 83.37500
646.0706, 37.16895
646.5527, 12.94238
647.0349, 5.349609
647.5170, 26.46094
647.9991, 47.63770
648.4812, 53.73535
648.9633, 18.81543
649.4454, 21.88281
649.9276, 56.74023
650.4097, 22.80469
650.8918, 10.11816
651.3739, 66.27734
651.8560, 84.31641
652.3381, 42.45117
652.8203, 27.35449
653.3024, 3.245117
653.7845, 29.95898
654.2666, 31.08203
654.7487, 28.12305
655.2308, 98.69531
655.7130, 116.9834
656.1951, 92.14160
656.6772, 59.10742
657.1593, 21.08984
657.6414, 5.417969
658.1235, 5.186523
658.6057, 13.99121
659.0878, 20.39453
659.5699, 2.293945
660.0520, 14.41699
660.5341, 7.960938
661.0162, 1.750977
661.4984, 5.849609
661.9805, 5.682617
662.4626, 6.551758
662.9447, 11.29004
663.4268, 15.90332
663.9089, 10.69824
664.3911, 2.598633
664.8732, 20.85449
665.3553, 68.48633
665.8374, 89.11523
666.3195, 36.79785
666.8016, 54.70703
667.2838, 78.88281
667.7659, 22.72754
668.2480, 82.92871
668.7301, 71.80371
669.2122, 50.82617
669.6943, 44.43945
670.1765, 50.31934
670.6586, 58.71875
671.1407, 64.59766
671.6228, 81.57422
672.1049, 133.6406
672.5870, 198.3350
673.0692, 232.5000
673.5513, 235.9326
674.0334, 238.5342
674.5155, 257.1855
674.9976, 284.1660
675.4797, 299.0449
675.9619, 289.2236
676.4440, 307.3232
676.9261, 378.0654
677.4082, 446.7578
677.8903, 496.5908
678.3724, 527.9023
678.8546, 536.3535
679.3367, 515.9736
679.8188, 502.9033
680.3009, 524.4141
680.7830, 555.4414
681.2651, 570.6689
681.7473, 570.8672
682.2294, 562.1357
682.7115, 547.0674
683.1936, 534.3027
683.6757, 536.6152
684.1578, 554.2910
684.6400, 583.4346
685.1221, 628.9707
685.6042, 675.0146
686.0863, 704.7197
686.5684, 737.8252
687.0505, 804.8301
687.5327, 911.1025
688.0148, 1012.987
688.4969, 1087.321
688.9790, 1167.547
689.4611, 1284.361
689.9432, 1418.827
690.4254, 1533.232
690.9075, 1618.848
691.3896, 1703.921
691.8717, 1818.628
692.3538, 1954.923
692.8359, 2095.812
693.3181, 2242.907
693.8002, 2370.940
694.2823, 2473.662
694.7644, 2551.279
695.2465, 2602.866
695.7286, 2626.624
696.2108, 2616.294
696.6929, 2554.385
697.1750, 2481.447
697.6571, 2413.561
698.1392, 2336.184
698.6213, 2218.358
699.1035, 2069.570
699.5856, 1948.071
700.0677, 1903.394
700.5498, 1891.970
701.0319, 1851.101
701.5140, 1788.585
701.9962, 1732.395
702.4783, 1697.060
702.9604, 1675.747
703.4425, 1673.456
703.9246, 1677.334
704.4067, 1622.143
704.8889, 1445.452
705.3710, 1315.253
705.8531, 1296.921
706.3352, 1284.248
706.8173, 1223.473
707.2994, 1126.103
707.7816, 1039.699
708.2637, 979.1270
708.7458, 928.9551
709.2279, 883.6484
709.7100, 841.0645
710.1921, 799.6426
710.6743, 758.6309
711.1564, 713.4570
711.6385, 658.4131
712.1206, 608.1797
712.6027, 598.0996
713.0848, 631.6309
713.5670, 626.2266
714.0491, 557.8535
714.5312, 498.6250
715.0133, 490.8877
715.4954, 513.6963
715.9775, 527.9531
716.4597, 533.5508
716.9418, 533.1699
717.4239, 506.9082
717.9060, 494.4756
718.3881, 528.7910
718.8702, 589.9912
719.3524, 648.5693
719.8345, 695.5615
720.3166, 732.0898
720.7987, 747.6699
721.2808, 757.2178
721.7629, 800.8770
722.2451, 875.3545
722.7272, 947.5010
723.2093, 1007.343
723.6914, 1053.248
724.1735, 1080.286
724.6556, 1084.927
725.1378, 1101.463
725.6199, 1180.108
726.1020, 1205.190
726.5841, 1117.746
727.0662, 1006.605
727.5483, 942.2979
728.0305, 916.3926
728.5126, 871.8320
728.9947, 775.7139
729.4768, 674.6406
729.9589, 596.6592
730.4410, 533.9521
730.9232, 475.4971
731.4053, 420.0684
731.8874, 371.0498
732.3695, 330.5674
732.8516, 298.1777
733.3337, 277.1992
733.8159, 268.7051
734.2980, 246.9658
734.7801, 201.8369
735.2622, 162.0654
735.7443, 146.9170
736.2264, 146.7002
736.7086, 136.7959
737.1907, 109.0576
737.6728, 93.27051
738.1549, 102.6270
738.6370, 111.9863
739.1191, 106.0537
739.6013, 94.05371
740.0834, 89.92090
740.5655, 96.95703
741.0476, 109.8184
741.5297, 126.2363
742.0118, 145.4629
742.4940, 173.6191
742.9761, 204.4746
743.4582, 212.1699
743.9403, 189.6504
744.4224, 157.9150
744.9045, 133.2432
745.3867, 117.2295
745.8688, 141.2754
746.3509, 223.2725
746.8330, 296.3467
747.3151, 336.6924
747.7972, 375.3096
748.2794, 441.1104
748.7615, 526.7607
749.2436, 605.1250
749.7257, 684.3613
750.2078, 739.8438
750.6899, 737.8438
751.1721, 730.4443
751.6542, 775.5547
752.1363, 853.3896
752.6184, 899.1025
753.1005, 881.2783
753.5826, 847.7559
754.0648, 859.4658
754.5469, 897.3652
755.0290, 904.8262
755.5111, 880.1064
755.9932, 855.2109
756.4753, 844.7451
756.9575, 840.1113
757.4396, 825.3555
757.9217, 796.5820
758.4038, 791.7109
758.8859, 799.1084
759.3680, 849.8115
759.8502, 1010.540
760.3323, 1178.681
760.8144, 1260.832
761.2965, 1259.775
761.7786, 1245.414
762.2607, 1234.424
762.7429, 1213.018
763.2250, 1166.794
763.7071, 1111.521
764.1892, 1068.835
764.6713, 1036.141
765.1534, 990.8369
765.6356, 915.7461
766.1177, 834.9482
766.5998, 789.2002
767.0819, 769.5430
767.5640, 739.9502
768.0461, 696.5449
768.5283, 639.7793
769.0104, 563.8154
769.4925, 491.0312
769.9746, 471.7168
770.4567, 527.0283
770.9388, 547.7051
771.4210, 503.7139
771.9031, 468.7314
772.3852, 484.9688
772.8673, 512.2764
773.3494, 505.4434
773.8315, 461.3555
774.3137, 417.9111
774.7958, 393.8164
775.2779, 362.8721
775.7600, 305.4326
776.2421, 236.7480
776.7242, 164.3535
777.2064, 97.78906
777.6885, 65.72754
778.1706, 97.24609
778.6527, 147.1523
779.1348, 142.6016
779.6169, 96.95801
780.0991, 61.71582
780.5812, 43.65332
781.0633, 36.01953
781.5454, 36.57617
782.0275, 39.23242
782.5096, 27.04297
782.9918, 10.13672
783.4739, 17.83301
783.9560, 27.32227
784.4381, 63.66602
784.9202, 57.59766
785.4023, 34.86914
785.8845, 25.66016
786.3666, 31.20996
786.8487, 35.85840
787.3308, 34.40527
787.8129, 34.03320
788.2950, 38.01367
788.7772, 44.43359
789.2593, 56.41406
789.7414, 69.78418
790.2235, 67.38281
790.7056, 32.54004
791.1877, 6.324219
791.6699, 14.26465
792.1520, 0.7373050
792.6341, 13.80762
793.1162, 26.06055
793.5983, 32.73047
794.0804, 31.71973
794.5626, 26.71582
795.0447, 25.44043
795.5268, 28.92285
796.0089, 25.54297
796.4910, 12.91113
796.9731, 0.5156250
797.4553, 8.722656
797.9374, 15.14258
798.4195, 17.52441
798.9016, 15.15137
799.3837, 19.67090
799.8658, 46.64648
800.3480, 60.43262
800.8301, 34.26562
801.3122, 6.420898
801.7943, 20.50684
802.2764, 63.17578
802.7585, 78.63184
803.2407, 35.78027
803.7228, 14.52539
804.2049, 38.23145
804.6870, 46.47266
805.1691, 49.82031
805.6512, 52.06934
806.1334, 61.02539
806.6155, 77.13281
807.0976, 92.40918
807.5797, 95.62695
808.0618, 89.19043
808.5439, 86.50098
809.0261, 87.94043
809.5082, 81.06348
809.9903, 57.91406
810.4724, 39.43066
810.9545, 50.05664
811.4366, 86.89746
811.9188, 108.8857
812.4009, 109.1738
812.8830, 104.7734
813.3651, 98.08496
813.8472, 86.50000
814.3293, 61.97852
814.8115, 32.74805
815.2936, 16.73730
815.7757, 17.96191
816.2578, 27.42676
816.7399, 52.00586
817.2220, 74.12012
817.7042, 82.30371
818.1863, 80.19336
818.6684, 71.58301
819.1505, 58.77148
819.6326, 49.95410
820.1147, 53.57422
820.5969, 61.46875
821.0790, 58.40234
821.5611, 51.69531
822.0432, 67.36426
822.5253, 106.1123
823.0074, 131.5635
823.4896, 116.6934
823.9717, 79.27441
824.4538, 57.21387
824.9359, 50.64062
825.4180, 52.79297
825.9001, 66.27344
826.3823, 73.09668
826.8644, 60.10352
827.3465, 43.48340
827.8286, 51.96875
828.3107, 92.25488
828.7928, 108.4795
829.2749, 84.03711
829.7570, 58.20020
830.2391, 26.13672
830.7213, 5.813477
831.2034, 17.65918
831.6855, 54.95020
832.1676, 88.59375
832.6497, 119.6816
833.1318, 133.5684
833.6140, 108.7461
834.0961, 78.50098
834.5782, 71.00391
835.0603, 80.87305
835.5424, 92.95605
836.0245, 102.4316
836.5067, 107.1992
836.9888, 100.5498
837.4709, 91.32812
837.9530, 94.62891
838.4351, 106.6348
838.9172, 117.2510
839.3994, 123.3301
839.8815, 119.6123
840.3636, 98.47656
840.8457, 71.78711
841.3278, 78.93848
841.8099, 121.6123
842.2921, 139.8809
842.7742, 121.6318
843.2563, 111.3154
843.7384, 136.4141
844.2205, 179.1348
844.7026, 205.3789
845.1848, 211.5850
845.6669, 221.6602
846.1490, 235.3936
846.6311, 251.0410
847.1132, 273.1807
847.5953, 293.4580
848.0775, 306.7061
848.5596, 312.2041
849.0417, 305.8857
849.5238, 280.8672
850.0059, 253.8145
850.4880, 222.3330
850.9702, 194.4746
851.4523, 182.1104
851.9344, 176.4199
852.4165, 157.3125
852.8986, 118.4707
853.3807, 84.15820
853.8629, 69.34961
854.3450, 67.65820
854.8271, 81.04688
855.3092, 99.29395
855.7913, 101.6123
856.2734, 86.26172
856.7556, 71.23535
857.2377, 69.46973
857.7198, 71.70215
858.2019, 63.26562
858.6840, 51.60059
859.1661, 51.77246
859.6483, 60.56348
860.1304, 58.59473
860.6125, 38.58398
861.0946, 17.50000
861.5767, 18.78711
862.0588, 40.90039
862.5410, 39.85938
863.0231, 2.405273
863.5052, 20.03516
863.9873, 4.827148
864.4694, 22.21094
864.9515, 42.72852
865.4337, 55.70117
865.9158, 54.27344
866.3979, 18.39648
866.8800, 1.976563
867.3621, 28.13184
867.8442, 47.58496
868.3264, 27.39355
868.8085, 5.651367
869.2906, 10.79688
869.7727, 17.01660
870.2548, 37.18555
870.7369, 35.67188
871.2191, 29.07422
871.7012, 22.67871
872.1833, 16.36719
872.6654, 6.720703
873.1475, 3.462891
873.6296, 4.372070
874.1118, 10.07520
874.5939, 25.78223
875.0760, 34.55566
875.5581, 36.37500
876.0402, 26.05469
876.5223, 9.612305
877.0045, 1.631836
877.4866, 5.966797
877.9687, 14.83887
878.4508, 23.61816
878.9329, 29.44434
879.4150, 22.19043
879.8972, 6.419922
880.3793, 3.483398
880.8614, 15.94238
881.3435, 27.89941
881.8256, 29.50781
882.3077, 28.75879
882.7899, 45.02441
883.2720, 78.62695
883.7541, 80.80762
884.2362, 44.78320
884.7183, 20.95508
885.2004, 27.50000
885.6826, 45.14453
886.1647, 57.20703
886.6468, 63.02539
887.1289, 56.40625
887.6110, 24.69531
888.0931, 10.22852
888.5753, 27.45605
889.0574, 45.85254
889.5395, 50.31055
890.0216, 45.71484
890.5037, 40.00977
890.9858, 33.06836
891.4680, 25.09473
891.9501, 6.621094
892.4322, 0.6582030
892.9143, 22.89746
893.3964, 48.37305
893.8785, 48.81836
894.3607, 30.73828
894.8428, 17.66113
895.3249, 15.28516
895.8070, 19.45117
896.2891, 32.18848
896.7712, 47.23242
897.2534, 65.60547
897.7355, 80.65234
898.2176, 79.20801
898.6997, 61.56055
899.1818, 46.95508
899.6639, 47.04199
900.1461, 54.32715
900.6282, 71.71973
901.1103, 86.13086
901.5924, 70.14453
902.0745, 31.01953
902.5566, 0.3662110
903.0388, 8.237305
903.5209, 4.873047
904.0030, 1.416992
904.4851, 10.73730
904.9672, 24.19434
905.4493, 41.01562
905.9315, 60.41699
906.4136, 81.26562
906.8957, 92.83887
907.3778, 86.18066
907.8599, 69.80371
908.3420, 60.62207
908.8242, 58.40430
909.3063, 59.85645
909.7884, 65.31055
910.2705, 68.99902
910.7526, 68.56445
911.2347, 65.90625
911.7169, 62.54590
912.1990, 58.94922
912.6811, 58.50879
913.1632, 60.99414
913.6453, 70.51074
914.1274, 97.53809
914.6096, 105.7129
915.0917, 64.48926
915.5738, 2.207031
916.0559, 31.40332
916.5380, 35.58887
917.0201, 13.20996
917.5023, 75.33105
917.9844, 125.2002
918.4665, 91.22754
918.9486, 34.12012
919.4307, 14.35352
919.9128, 48.35840
920.3950, 46.61426
920.8771, 10.98535
921.3592, 57.46289
921.8413, 98.63281
922.3234, 118.8848
922.8055, 90.62500
923.2877, 51.36719
923.7698, 43.78613
924.2519, 67.62500
924.7340, 90.54785
925.2161, 109.6777
925.6982, 119.8828
926.1804, 112.0498
926.6625, 100.7959
927.1446, 100.0498
927.6267, 105.4004
928.1088, 104.1865
928.5909, 93.73828
929.0731, 81.28711
929.5552, 62.61914
930.0373, 51.93945
930.5194, 68.19531
931.0015, 91.41309
931.4836, 96.66895
931.9658, 87.06250
932.4479, 78.94043
932.9300, 79.12598
933.4121, 82.21289
933.8942, 83.49121
934.3763, 85.38965
934.8585, 92.94238
935.3406, 103.0732
935.8227, 108.8398
936.3048, 109.1953
936.7869, 107.1240
937.2690, 104.2549
937.7512, 100.8955
938.2333, 93.44141
938.7154, 87.73047
939.1975, 100.7656
939.6796, 127.5420
940.1617, 144.1768
940.6439, 144.0576
941.1260, 141.0918
941.6081, 146.6133
942.0902, 159.8047
942.5723, 178.4365
943.0544, 203.1514
943.5366, 240.5957
944.0187, 289.7881
944.5008, 331.3066
944.9829, 356.4219
945.4650, 373.3789
945.9471, 392.1455
946.4293, 412.0117
946.9114, 431.2686
947.3935, 449.5742
947.8756, 449.4492
948.3577, 425.0537
948.8398, 427.1953
949.3220, 493.7754
949.8041, 575.6152
950.2862, 579.3232
950.7683, 505.3066
951.2504, 450.5674
951.7325, 417.1904
952.2147, 389.2168
952.6968, 364.1045
953.1789, 337.5684
953.6610, 304.3359
954.1431, 269.1953
954.6252, 246.5098
955.1074, 237.3965
955.5895, 237.8906
956.0716, 259.4727
956.5537, 254.0381
957.0358, 194.0898
957.5179, 124.2275
958.0001, 86.45508
958.4822, 77.02930
958.9643, 77.80078
959.4464, 97.30664
959.9285, 103.7627
960.4106, 85.11816
960.8928, 73.49023
961.3749, 89.04688
961.8570, 112.1514
962.3391, 118.9355
962.8212, 110.4111
963.3033, 100.7324
963.7855, 89.35449
964.2676, 74.09766
964.7497, 50.23438
965.2318, 29.22949
965.7139, 7.820313
966.1960, 1.836914
966.6782, 24.86719
967.1603, 90.80273
967.6424, 131.0518
968.1245, 131.3193
968.6066, 127.1963
969.0887, 111.3809
969.5709, 104.5723
970.0530, 129.4512
970.5351, 168.1699
971.0172, 188.1357
971.4993, 182.6436
971.9814, 179.7803
972.4636, 174.9736
972.9457, 180.6514
973.4278, 215.1445
973.9099, 246.1650
974.3920, 246.9482
974.8741, 231.2979
975.3563, 231.0869
975.8384, 252.7197
976.3205, 272.8975
976.8026, 280.3857
977.2847, 293.2900
977.7668, 310.1426
978.2490, 342.8008
978.7311, 413.7852
979.2132, 507.5996
979.6953, 581.8242
980.1774, 620.2705
980.6595, 670.2490
981.1417, 754.8125
981.6238, 837.1494
982.1059, 888.8467
982.5880, 935.6631
983.0701, 1006.968
983.5522, 1101.269
984.0344, 1198.654
984.5165, 1301.089
984.9986, 1381.667
985.4807, 1430.165
985.9628, 1456.951
986.4449, 1457.365
986.9271, 1446.487
987.4092, 1452.868
987.8913, 1469.000
988.3734, 1442.484
988.8555, 1342.811
989.3376, 1228.335
989.8198, 1097.678
990.3019, 985.6992
990.7840, 936.7510
991.2661, 908.4541
991.7482, 835.6201
992.2303, 716.2490
992.7125, 606.7646
993.1946, 523.0898
993.6767, 458.4248
994.1588, 418.7881
994.6409, 388.2266
995.1230, 350.0967
995.6052, 314.6436
996.0873, 304.1748
996.5694, 318.7158
997.0515, 327.0098
997.5336, 318.2734
998.0157, 298.0752
998.4979, 241.5156
998.9800, 200.5557
999.4621, 243.4424
999.9442, 320.2344
1000.426, 343.2686
1000.908, 299.6494
1001.391, 248.9863
1001.873, 204.7461
1002.355, 175.0869
1002.837, 176.9043
1003.319, 182.7227
1003.801, 164.0566
1004.283, 134.2217
1004.765, 120.8232
1005.247, 128.3984
1005.730, 135.7559
1006.212, 134.3252
1006.694, 129.9844
1007.176, 127.1553
1007.658, 121.3887
1008.140, 106.7568
1008.622, 87.25684
1009.104, 70.54883
1009.587, 58.17676
1010.069, 45.62793
1010.551, 17.68945
1011.033, 6.500000
1011.515, 42.21289
1011.997, 87.65625
1012.479, 122.6025
1012.961, 138.5420
1013.443, 115.2861
1013.926, 50.24512
1014.408, 7.243164
1014.890, 25.96387
1015.372, 52.04688
1015.854, 64.55078
1016.336, 70.78906
1016.818, 80.29688
1017.300, 87.02930
1017.783, 75.44922
1018.265, 42.78906
1018.747, 16.20703
1019.229, 9.177734
1019.711, 4.769531
1020.193, 7.446289
1020.675, 16.14648
1021.157, 7.945313
1021.639, 8.764648
1022.122, 19.23438
1022.604, 20.98535
1023.086, 15.32617
1023.568, 12.37012
1024.050, 27.22363
1024.532, 6.871094
1025.014, 21.50977
1025.496, 41.60840
1025.979, 54.10547
1026.461, 65.82227
1026.943, 77.96289
1027.425, 69.78516
1027.907, 11.92383
1028.389, 32.31348
1028.871, 46.17871
1029.353, 40.41016
1029.835, 9.591797
1030.318, 30.03516
1030.800, 53.98438
1031.282, 59.77539
1031.764, 57.26953
1032.246, 40.98340
1032.728, 26.51172
1033.210, 14.61133
1033.692, 7.764648
1034.175, 5.083984
1034.657, 9.564453
1035.139, 33.37012
1035.621, 78.25195
1036.103, 93.93164
1036.585, 53.64160
1037.067, 19.24023
1037.549, 15.28613
1038.031, 27.72754
1038.514, 17.50488
1038.996, 77.34375
1039.478, 89.28711
1039.960, 53.33105
1040.442, 21.95605
1040.924, 14.57666
1041.406, 29.21973
1041.888, 5.924805
1042.370, 18.69336
1042.853, 29.10352
1043.335, 32.05420
1043.817, 36.41309
1044.299, 41.58643
1044.781, 38.44482
1045.263, 18.41211
1045.745, 12.86328
1046.227, 34.75537
1046.710, 46.41113
1047.192, 21.91211
1047.674, 1.885254
1048.156, 20.99902
1048.638, 80.90381
1049.120, 116.1646
1049.602, 124.1436
1050.084, 117.1782
1050.567, 92.43115
1051.049, 62.21875
1051.531, 25.93848
1052.013, 1.069824
1052.495, 8.040527
1052.977, 36.95898
1053.459, 50.52686
1053.941, 46.68164
1054.423, 51.56396
1054.906, 67.94971
1055.388, 73.07568
1055.870, 57.31836
1056.352, 46.22119
1056.834, 63.06445
1057.316, 95.52197
1057.798, 114.0620
1058.280, 119.5918
1058.762, 130.1216
1059.245, 145.4839
1059.727, 146.5527
1060.209, 128.6997
1060.691, 120.1304
1061.173, 141.9946
1061.655, 177.6226
1062.137, 201.3281
1062.619, 214.0874
1063.102, 214.3228
1063.584, 205.9854
1064.066, 204.0776
1064.548, 213.1260
1065.030, 246.7896
1065.512, 314.1670
1065.994, 375.8662
1066.476, 363.9395
1066.958, 323.5635
1067.441, 354.8438
1067.923, 426.9604
1068.405, 463.7119
1068.887, 461.2720
1069.369, 456.0049
1069.851, 463.4668
1070.333, 478.2988
1070.815, 501.4355
1071.297, 523.7822
1071.780, 542.2568
1072.262, 548.0347
1072.744, 515.4922
1073.226, 461.2056
1073.708, 435.2480
1074.190, 450.3315
1074.672, 455.1670
1075.154, 396.0518
1075.637, 345.5474
1076.119, 379.8965
1076.601, 422.3247
1077.083, 384.8652
1077.565, 306.3252
1078.047, 261.5342
1078.529, 261.1899
1079.011, 270.9043
1079.493, 272.7490
1079.976, 290.8262
1080.458, 362.1777
1080.940, 421.0645
1081.422, 416.9229
1081.904, 382.0928
1082.386, 355.2095
1082.868, 339.0903
1083.350, 330.6670
1083.833, 331.6138
1084.315, 336.4443
1084.797, 360.8657
1085.279, 368.3945
1085.761, 321.9121
1086.243, 273.6924
1086.725, 279.8276
1087.207, 322.0845
1087.689, 341.8320
1088.172, 332.0234
1088.654, 320.5288
1089.136, 309.5649
1089.618, 289.6846
1090.100, 249.5361
1090.582, 219.8208
1091.064, 221.8740
1091.546, 246.3618
1092.028, 277.9966
1092.511, 316.5435
1092.993, 342.2646
1093.475, 355.4199
1093.957, 348.9204
1094.439, 319.7197
1094.921, 286.4600
1095.403, 255.5186
1095.885, 233.8877
1096.368, 235.2271
1096.850, 249.6421
1097.332, 245.3584
1097.814, 227.6055
1098.296, 234.3115
1098.778, 262.3540
1099.260, 264.8579
1099.742, 230.0244
1100.224, 188.9004
1100.707, 166.2314
1101.189, 157.5093
1101.671, 156.7764
1102.153, 159.2446
1102.635, 154.3037
1103.117, 142.3872
1103.599, 122.0815
1104.081, 96.74414
1104.563, 81.03857
1105.046, 82.65918
1105.528, 93.99268
1106.010, 119.3999
1106.492, 141.9448
1106.974, 145.2290
1107.456, 136.6470
1107.938, 121.8823
1108.420, 105.3667
1108.903, 93.65625
1109.385, 88.78223
1109.867, 89.55566
1110.349, 104.6855
1110.831, 114.1699
1111.313, 108.6455
1111.795, 96.00537
1112.277, 76.30566
1112.760, 56.15625
1113.242, 43.21191
1113.724, 38.06885
1114.206, 47.58301
1114.688, 91.51025
1115.170, 117.8872
1115.652, 112.9019
1116.134, 109.9448
1116.616, 130.1094
1117.099, 144.9341
1117.581, 120.8115
1118.063, 71.53076
1118.545, 49.16260
1119.027, 59.81641
1119.509, 66.71826
1119.991, 69.93604
1120.473, 69.50977
1120.955, 66.16943
1121.438, 51.84717
1121.920, 18.07373
1122.402, 14.94873
1122.884, 11.22412
1123.366, 21.15234
1123.848, 50.63477
1124.330, 75.06787
1124.812, 76.22949
1125.295, 57.13184
1125.777, 55.15186
1126.259, 83.92529
1126.741, 100.9141
1127.223, 56.38037
1127.705, 0.9785160
1128.187, 10.91992
1128.669, 49.45117
1129.151, 65.58936
1129.634, 62.25684
1130.116, 51.48682
1130.598, 38.59717
1131.080, 32.61084
1131.562, 38.47021
1132.044, 49.56836
1132.526, 71.32568
1133.008, 86.75098
1133.490, 84.96582
1133.973, 71.25244
1134.455, 43.28857
1134.937, 10.22021
1135.419, 4.945313
1135.901, 4.049316
1136.383, 11.21582
1136.865, 10.37549
1137.347, 12.15723
1137.830, 21.17334
1138.312, 28.94189
1138.794, 31.78711
1139.276, 30.09229
1139.758, 21.49023
1140.240, 9.023926
1140.722, 16.52002
1141.204, 49.57959
1141.687, 58.51855
1142.169, 37.65137
1142.651, 18.04639
1143.133, 9.024414
1143.615, 5.532227
1144.097, 3.722168
1144.579, 5.229980
1145.061, 16.83057
1145.543, 33.53906
1146.026, 34.97217
1146.508, 25.68457
1146.990, 23.41553
1147.472, 27.59961
1147.954, 22.99365
1148.436, 3.920410
1148.918, 9.914551
1149.400, 2.910156
1149.882, 23.76611
1150.365, 31.53906
1150.847, 32.50879
1151.329, 35.30420
1151.811, 40.65039
1152.293, 43.56104
1152.775, 42.29248
1153.257, 46.22852
1153.739, 65.47656
1154.222, 69.66553
1154.704, 25.81641
1155.186, 2.941406
1155.668, 21.58740
1156.150, 58.62549
1156.632, 84.16992
1157.114, 92.95508
1157.596, 67.19385
1158.078, 1.433105
1158.561, 21.31055
1159.043, 13.81787
1159.525, 41.67578
1160.007, 54.64795
1160.489, 60.23730
1160.971, 60.66357
1161.453, 59.31787
1161.935, 60.28662
1162.417, 60.82959
1162.900, 52.27148
1163.382, 36.87891
1163.864, 23.26514
1164.346, 13.47559
1164.828, 19.96484
1165.310, 40.66699
1165.792, 46.07373
1166.274, 20.50195
1166.757, 4.022461
1167.239, 4.367676
1167.721, 26.34961
1168.203, 47.85840
1168.685, 66.69775
1169.167, 86.16309
1169.649, 98.63721
1170.131, 81.89014
1170.614, 37.74219
1171.096, 13.82373
1171.578, 36.21338
1172.060, 56.68896
1172.542, 70.76807
1173.024, 72.77197
1173.506, 48.15820
1173.988, 22.67236
1174.470, 16.22412
1174.953, 23.15625
1175.435, 32.12793
1175.917, 43.71436
1176.399, 44.28369
1176.881, 29.12695
1177.363, 35.75781
1177.845, 72.40332
1178.327, 96.44727
1178.809, 89.40820
1179.292, 75.49365
1179.774, 77.72607
1180.256, 88.95264
1180.738, 99.40430
1181.220, 107.3960
1181.702, 110.9697
1182.184, 107.4668
1182.666, 79.44971
1183.149, 34.47070
1183.631, 11.33936
1184.113, 26.17725
1184.595, 56.84814
1185.077, 110.7295
1185.559, 148.0098
1186.041, 135.4238
1186.523, 104.6265
1187.005, 67.31787
1187.488, 37.77783
1187.970, 42.90332
1188.452, 78.09180
1188.934, 87.22754
1189.416, 48.46826
1189.898, 26.92969
1190.380, 24.57031
1190.862, 36.92871
1191.344, 71.31445
1191.827, 97.65918
1192.309, 96.34326
1192.791, 77.07422
1193.273, 50.74512
1193.755, 22.31836
1194.237, 16.54883
1194.719, 29.16260
1195.201, 36.05176
1195.684, 35.78369
1196.166, 33.64502
1196.648, 31.02393
1197.130, 23.14795
1197.612, 3.731445
1198.094, 1.821289
1198.576, 48.94922
1199.058, 104.4316
1199.541, 117.0474
1200.023, 106.9854
1200.505, 93.35645
1200.987, 79.92480
1201.469, 69.06396
1201.951, 60.97119
1202.433, 51.09521
1202.915, 36.67969
1203.397, 23.49951
1203.880, 6.211914
1204.362, 0.8383790
1204.844, 19.68115
1205.326, 39.57031
1205.808, 43.79443
1206.290, 33.72900
1206.772, 7.650879
1207.254, 30.25000
1207.736, 40.51953
1208.219, 26.77881
1208.701, 30.65625
1209.183, 51.09814
1209.665, 39.50293
1210.147, 17.63965
1210.629, 79.12305
1211.111, 121.1274
1211.593, 134.7646
1212.076, 86.71143
1212.558, 34.51709
1213.040, 39.28857
1213.522, 73.69531
1214.004, 112.7075
1214.486, 144.8081
1214.968, 148.5938
1215.450, 118.6489
1215.932, 104.3809
1216.415, 129.0571
1216.897, 149.5503
1217.379, 160.2065
1217.861, 172.2754
1218.343, 197.3608
1218.825, 206.0332
1219.307, 167.2646
1219.789, 110.2500
1220.271, 101.8848
1220.754, 134.9390
1221.236, 140.5923
1221.718, 123.0854
1222.200, 101.4624
1222.682, 81.86279
1223.164, 80.53027
1223.646, 100.4609
1224.128, 119.7310
1224.611, 123.7241
1225.093, 123.8203
1225.575, 130.2422
1226.057, 136.4326
1226.539, 139.1470
1227.021, 136.7759
1227.503, 119.7378
1227.985, 99.02295
1228.468, 102.8984
1228.950, 136.8828
1229.432, 155.1797
1229.914, 156.8896
1230.396, 139.6411
1230.878, 92.16504
1231.360, 62.28857
1231.842, 67.47070
1232.324, 81.28027
1232.807, 84.27832
1233.289, 81.08594
1233.771, 80.71680
1234.253, 79.80273
1234.735, 55.01660
1235.217, 22.96777
1235.699, 37.49023
1236.181, 86.10498
1236.663, 103.0542
1237.146, 78.29150
1237.628, 57.23877
1238.110, 63.62109
1238.592, 64.59326
1239.074, 31.09863
1239.556, 8.609375
1240.038, 23.49561
1240.520, 38.04102
1241.003, 39.99805
1241.485, 34.46826
1241.967, 56.87842
1242.449, 90.31982
1242.931, 95.74951
1243.413, 67.43799
1243.895, 70.26709
1244.377, 107.0879
1244.859, 113.6094
1245.342, 77.76953
1245.824, 46.07959
1246.306, 43.06592
1246.788, 53.17920
1247.270, 66.64209
1247.752, 75.73145
1248.234, 64.07520
1248.716, 48.82227
1249.198, 51.02100
1249.681, 62.88721
1250.163, 74.37012
1250.645, 82.04736
1251.127, 79.54980
1251.609, 62.96045
1252.091, 51.39355
1252.573, 50.65625
1253.055, 45.33740
1253.538, 26.95557
1254.020, 22.43213
1254.502, 46.12061
1254.984, 70.74219
1255.466, 65.81738
1255.948, 46.32178
1256.430, 39.43066
1256.912, 44.51416
1257.395, 41.64160
1257.877, 34.11523
1258.359, 32.04980
1258.841, 36.33740
1259.323, 46.40918
1259.805, 60.90381
1260.287, 74.41455
1260.769, 88.23145
1261.251, 89.68701
1261.734, 61.68408
1262.216, 35.97412
1262.698, 22.33789
1263.180, 20.30566
1263.662, 34.22754
1264.144, 53.40576
1264.626, 60.47119
1265.108, 56.61914
1265.590, 41.13428
1266.073, 14.90137
1266.555, 22.81738
1267.037, 59.38037
1267.519, 55.13916
1268.001, 7.027832
1268.483, 8.160156
1268.965, 43.29395
1269.447, 99.28076
1269.930, 114.4150
1270.412, 113.2886
1270.894, 75.37256
1271.376, 55.21191
1271.858, 30.75342
1272.340, 11.92529
1272.822, 0.0000000E+00
##END=



