##NAMES=Beryl
##RRUFFID=R050121
##IDEAL CHEMISTRY=Be_3_Al_2_Si_6_O_18_
##LOCALITY=Cruziero mine, San Jose, Minas Gerais, Brazil
##OWNER=RRUFF
##SOURCE=Carlos and Paulo Vasconcelos
##DESCRIPTION=Light blue fragment, variety aquamarine
##STATUS=The identification of this mineral has been confirmed by X-ray diffraction and chemical analysis
##URL=rruff.info/R050121
##MEASURED CHEMISTRY=(Be_0.96_Li_0.04_)_3_Al_2.00_Si_6.00_O_18_Î‡Na_0.09_Mg_0.03_
132.4698, 0.0000000E+00
132.9520, 8.7929003E-02
133.4341, 7.2525002E-02
133.9162, 1.273712
134.3983, 3.604050
134.8804, 6.881187
135.3625, 10.45837
135.8447, 14.33900
136.3268, 18.51933
136.8089, 23.10955
137.2910, 28.19662
137.7731, 32.96704
138.2552, 37.09818
138.7374, 40.58908
139.2195, 44.23643
139.7016, 48.24836
140.1837, 51.97471
140.6658, 54.36182
141.1479, 55.07823
141.6301, 55.31081
142.1122, 55.71468
142.5943, 56.69653
143.0764, 57.22983
143.5585, 57.10553
144.0406, 56.42210
144.5228, 55.76186
145.0049, 56.33179
145.4870, 55.72932
145.9691, 54.65098
146.4512, 53.55322
146.9333, 50.19936
147.4155, 45.05649
147.8976, 38.86882
148.3797, 33.55438
148.8618, 29.34047
149.3439, 25.62362
149.8260, 21.99929
150.3082, 18.20000
150.7903, 14.81036
151.2724, 11.77942
151.7545, 9.141068
152.2366, 7.007019
152.7188, 5.496544
153.2009, 4.415695
153.6830, 3.627647
154.1651, 3.436470
154.6472, 3.214951
155.1293, 2.889908
155.6115, 2.477638
156.0936, 1.779716
156.5757, 0.2056500
157.0578, 1.486252
157.5399, 2.442436
158.0220, 1.499146
158.5042, 0.6234360
158.9863, 0.7935330
159.4684, 2.421883
159.9505, 3.407303
160.4326, 2.681992
160.9147, 0.9842830
161.3969, 0.5894170
161.8790, 1.923149
162.3611, 2.856026
162.8432, 3.195564
163.3253, 2.719292
163.8074, 2.263428
164.2896, 2.182335
164.7717, 2.387520
165.2538, 2.704834
165.7359, 2.989128
166.2180, 3.388977
166.7001, 4.072853
167.1823, 5.209747
167.6644, 6.296974
168.1465, 6.931999
168.6286, 7.246895
169.1107, 7.612274
169.5928, 8.305779
170.0750, 9.119377
170.5571, 9.857796
171.0392, 10.48238
171.5213, 10.99871
172.0034, 11.31851
172.4855, 11.49556
172.9677, 11.75934
173.4498, 12.29623
173.9319, 12.99954
174.4140, 13.70306
174.8961, 14.26315
175.3782, 14.92268
175.8604, 16.11755
176.3425, 17.78950
176.8246, 19.37634
177.3067, 20.42274
177.7888, 21.09914
178.2709, 21.73762
178.7531, 22.46247
179.2352, 23.18819
179.7173, 23.76830
180.1994, 24.20995
180.6815, 24.62812
181.1636, 25.04566
181.6458, 25.50691
182.1279, 26.13486
182.6100, 27.02549
183.0921, 28.08574
183.5742, 29.26420
184.0563, 30.55757
184.5385, 31.65748
185.0206, 32.13752
185.5027, 32.09908
185.9848, 32.00596
186.4669, 32.00287
186.9490, 32.06570
187.4312, 32.14734
187.9133, 32.25632
188.3954, 32.31991
188.8775, 32.16880
189.3596, 31.83739
189.8417, 31.65665
190.3239, 32.04383
190.8060, 32.73523
191.2881, 32.93931
191.7702, 32.59499
192.2523, 31.98917
192.7344, 31.48202
193.2166, 31.07660
193.6987, 30.56322
194.1808, 29.86604
194.6629, 28.98922
195.1450, 27.87595
195.6271, 26.44755
196.1093, 24.98163
196.5914, 23.80138
197.0735, 22.89381
197.5556, 22.40223
198.0377, 22.55506
198.5198, 23.35806
199.0020, 23.91916
199.4841, 24.23409
199.9662, 24.31424
200.4483, 24.01034
200.9304, 23.20233
201.4125, 22.73172
201.8947, 23.19904
202.3768, 24.72097
202.8589, 25.64413
203.3410, 25.89306
203.8231, 25.66842
204.3052, 25.21941
204.7874, 24.45258
205.2695, 23.84633
205.7516, 23.62102
206.2337, 23.79877
206.7158, 24.12769
207.1979, 24.74892
207.6801, 25.41792
208.1622, 25.53163
208.6443, 24.91786
209.1264, 24.20523
209.6085, 23.68887
210.0906, 23.43013
210.5728, 23.18317
211.0549, 22.95502
211.5370, 22.73015
212.0191, 22.47160
212.5012, 22.15226
212.9833, 21.85763
213.4655, 21.60550
213.9476, 21.35075
214.4297, 21.27324
214.9118, 21.45602
215.3939, 21.74408
215.8760, 21.75333
216.3581, 21.39118
216.8403, 20.85875
217.3224, 20.15826
217.8045, 19.26016
218.2866, 18.54923
218.7687, 18.13686
219.2508, 17.94064
219.7330, 17.73717
220.2151, 17.49342
220.6972, 17.23921
221.1793, 16.98458
221.6614, 16.71654
222.1435, 16.49177
222.6257, 16.41280
223.1078, 16.35037
223.5899, 15.88164
224.0720, 14.70119
224.5541, 13.60760
225.0362, 12.96273
225.5184, 12.92446
226.0005, 12.97373
226.4826, 13.16498
226.9647, 13.42212
227.4468, 13.50647
227.9289, 13.26076
228.4111, 13.08261
228.8932, 13.19885
229.3753, 13.84760
229.8574, 14.22968
230.3395, 14.30214
230.8216, 14.10847
231.3038, 13.71627
231.7859, 12.91524
232.2680, 12.22912
232.7501, 11.91711
233.2322, 12.16904
233.7143, 12.35768
234.1965, 12.41027
234.6786, 12.41186
235.1607, 12.63721
235.6428, 13.32390
236.1249, 13.88528
236.6070, 14.01351
237.0892, 13.37840
237.5713, 13.03903
238.0534, 13.06284
238.5355, 13.36388
239.0176, 13.74944
239.4997, 14.35102
239.9819, 14.85244
240.4640, 15.09377
240.9461, 14.93030
241.4282, 14.84789
241.9103, 14.82862
242.3924, 14.89634
242.8746, 15.12274
243.3567, 15.59581
243.8388, 16.09633
244.3209, 16.56286
244.8030, 17.05394
245.2851, 17.33391
245.7673, 17.29358
246.2494, 17.08833
246.7315, 17.07620
247.2136, 17.43198
247.6957, 17.70083
248.1778, 17.61049
248.6600, 16.83545
249.1421, 16.74547
249.6242, 17.69164
250.1063, 19.13303
250.5884, 19.96731
251.0705, 19.77924
251.5527, 19.69743
252.0348, 20.25349
252.5169, 21.82413
252.9990, 22.63695
253.4811, 22.42548
253.9632, 21.63476
254.4454, 21.11716
254.9275, 21.22449
255.4096, 20.93015
255.8917, 19.88628
256.3738, 18.03247
256.8560, 15.66064
257.3381, 12.45708
257.8202, 8.983070
258.3023, 5.974121
258.7844, 3.410652
259.2665, 1.428421
259.7487, 0.1666490
260.2308, 0.2631070
260.7129, 0.6888120
261.1950, 1.134651
261.6771, 1.549454
262.1592, 1.875092
262.6414, 2.132271
263.1235, 2.234245
263.6056, 2.103615
264.0877, 1.715332
264.5698, 1.485886
265.0519, 1.503288
265.5341, 1.559258
266.0162, 1.376083
266.4983, 0.8542180
266.9804, 0.4062040
267.4625, 0.1666260
267.9446, 0.1319270
268.4268, 2.3856999E-02
268.9089, 0.3107530
269.3910, 0.6970750
269.8731, 1.185905
270.3552, 1.815926
270.8373, 2.388176
271.3195, 2.899834
271.8016, 3.332550
272.2837, 3.447906
272.7658, 3.100288
273.2479, 2.765495
273.7300, 2.986320
274.2122, 3.894241
274.6943, 4.511093
275.1764, 4.535347
275.6585, 4.114548
276.1406, 4.038528
276.6227, 4.367065
277.1049, 4.842094
277.5870, 5.213394
278.0691, 5.452042
278.5512, 5.967499
279.0333, 6.957748
279.5154, 8.201950
279.9976, 8.841728
280.4797, 8.751945
280.9618, 8.709732
281.4439, 9.380104
281.9260, 10.76960
282.4081, 11.95467
282.8903, 12.80599
283.3724, 13.40174
283.8545, 13.79128
284.3366, 13.93118
284.8187, 14.32716
285.3008, 15.51702
285.7830, 17.44414
286.2651, 18.99937
286.7472, 19.96606
287.2293, 20.68970
287.7114, 21.75266
288.1935, 23.15335
288.6757, 24.81806
289.1578, 26.91049
289.6399, 29.31367
290.1220, 31.27824
290.6041, 32.71778
291.0862, 33.87715
291.5684, 35.16293
292.0505, 36.53476
292.5326, 37.60248
293.0147, 38.08059
293.4968, 38.10138
293.9789, 37.93633
294.4611, 37.54400
294.9432, 37.39280
295.4253, 38.28185
295.9074, 39.98972
296.3895, 41.49815
296.8716, 42.35706
297.3538, 42.76222
297.8359, 43.12750
298.3180, 43.47634
298.8001, 43.57887
299.2822, 43.21419
299.7643, 42.42696
300.2465, 41.33580
300.7286, 39.54359
301.2107, 37.76481
301.6928, 37.05479
302.1749, 37.37553
302.6570, 38.04163
303.1392, 38.41922
303.6213, 38.78724
304.1034, 39.63777
304.5855, 41.29950
305.0676, 43.29132
305.5497, 45.03974
306.0319, 46.64054
306.5140, 48.68174
306.9961, 51.95535
307.4782, 55.70545
307.9603, 59.03654
308.4424, 61.53305
308.9246, 63.90835
309.4067, 66.73098
309.8888, 69.86971
310.3709, 73.01084
310.8530, 75.59351
311.3351, 78.28757
311.8173, 81.72065
312.2994, 86.19206
312.7815, 90.90668
313.2636, 95.04762
313.7457, 99.08437
314.2278, 103.9094
314.7100, 109.9731
315.1921, 116.8466
315.6742, 124.3843
316.1563, 132.6010
316.6384, 141.1456
317.1205, 149.2105
317.6027, 157.5572
318.0848, 167.1087
318.5669, 178.2350
319.0490, 190.5220
319.5311, 204.3468
320.0132, 219.7930
320.4954, 234.6383
320.9775, 248.1927
321.4596, 260.8347
321.9417, 272.6724
322.4238, 286.9860
322.9059, 297.0931
323.3881, 302.3878
323.8702, 302.6272
324.3523, 295.9883
324.8344, 279.3734
325.3165, 257.6408
325.7986, 233.5430
326.2808, 203.7105
326.7629, 175.7546
327.2450, 149.5944
327.7271, 125.5363
328.2092, 104.6856
328.6913, 87.51998
329.1735, 73.18016
329.6556, 61.21125
330.1377, 52.47306
330.6198, 44.46074
331.1019, 36.89125
331.5840, 30.15264
332.0662, 24.89798
332.5483, 21.74605
333.0304, 19.17270
333.5125, 16.79422
333.9946, 14.57230
334.4767, 12.60567
334.9589, 10.96553
335.4410, 9.534683
335.9231, 8.165066
336.4052, 6.833179
336.8873, 5.659443
337.3694, 4.697006
337.8516, 3.942562
338.3336, 3.269688
338.8158, 2.672268
339.2979, 2.169319
339.7800, 1.787239
340.2621, 1.545208
340.7442, 1.336025
341.2263, 1.194801
341.7085, 1.052807
342.1906, 0.6041260
342.6727, 0.2190740
343.1548, 0.9511410
343.6369, 1.266903
344.1190, 1.181854
344.6012, 0.9394650
345.0833, 0.4944270
345.5654, 4.2309001E-02
346.0475, 2.1015000E-02
346.5296, 0.2833600
347.0117, 0.6255150
347.4939, 0.8204150
347.9760, 0.9110410
348.4581, 1.078217
348.9402, 1.357765
349.4223, 1.551666
349.9044, 1.374016
350.3866, 0.9110260
350.8687, 0.4568560
351.3508, 3.2954998E-02
351.8329, 0.2707140
352.3150, 0.2085420
352.7971, 0.2075460
353.2793, 0.5590860
353.7614, 0.3618240
354.2435, 8.3007999E-02
354.7256, 0.2608380
355.2077, 0.1878050
355.6898, 0.6899760
356.1720, 0.7172130
356.6541, 0.3490100
357.1362, 6.5594003E-02
357.6183, 0.4138490
358.1004, 0.6741180
358.5826, 0.8165170
359.0647, 0.8094640
359.5468, 0.7516210
360.0289, 0.5751110
360.5110, 0.3919940
360.9931, 0.4160190
361.4753, 0.9948690
361.9574, 1.590828
362.4395, 1.867565
362.9216, 1.723118
363.4037, 1.727737
363.8858, 2.245396
364.3680, 2.922096
364.8501, 3.386833
365.3322, 3.134132
365.8143, 3.095795
366.2964, 3.607414
366.7785, 4.660870
367.2607, 5.580055
367.7428, 6.234161
368.2249, 6.787743
368.7070, 7.339970
369.1891, 7.859650
369.6712, 8.414558
370.1534, 8.981148
370.6355, 9.584633
371.1176, 10.31160
371.5997, 11.24002
372.0818, 12.18777
372.5639, 13.03728
373.0461, 13.64091
373.5282, 14.67118
374.0103, 16.26694
374.4924, 18.17614
374.9745, 20.00466
375.4566, 21.73801
375.9388, 23.46178
376.4209, 25.11381
376.9030, 26.74124
377.3851, 28.67336
377.8672, 30.88852
378.3493, 33.54164
378.8315, 36.82341
379.3136, 40.77102
379.7957, 44.89852
380.2778, 49.15620
380.7599, 53.54633
381.2420, 58.32169
381.7242, 63.40385
382.2063, 68.43666
382.6884, 73.20494
383.1705, 77.71233
383.6526, 81.69925
384.1347, 85.02042
384.6169, 88.27189
385.0990, 91.92639
385.5811, 96.03717
386.0632, 100.6289
386.5453, 105.5565
387.0274, 111.0564
387.5096, 117.4453
387.9917, 124.6916
388.4738, 132.5197
388.9559, 139.9389
389.4380, 147.8465
389.9201, 157.5719
390.4023, 170.2244
390.8844, 183.9170
391.3665, 197.3850
391.8486, 210.9064
392.3307, 225.0289
392.8128, 240.7254
393.2950, 256.6503
393.7771, 272.1824
394.2592, 287.3904
394.7413, 301.6061
395.2234, 315.7300
395.7055, 328.3888
396.1877, 337.4612
396.6698, 343.9146
397.1519, 345.3318
397.6340, 340.4135
398.1161, 328.7205
398.5982, 314.5220
399.0804, 297.6329
399.5625, 278.6120
400.0446, 257.7410
400.5267, 232.5885
401.0088, 208.9539
401.4909, 187.4889
401.9731, 168.0394
402.4552, 150.3429
402.9373, 134.5832
403.4194, 120.2957
403.9015, 107.2402
404.3836, 95.36431
404.8658, 84.76341
405.3479, 75.52798
405.8300, 67.61184
406.3121, 61.03082
406.7942, 55.89561
407.2763, 51.24652
407.7585, 46.72999
408.2406, 42.45953
408.7227, 39.18848
409.2048, 36.98816
409.6869, 35.23170
410.1690, 33.45515
410.6512, 31.66154
411.1333, 29.84791
411.6154, 27.96700
412.0975, 26.26891
412.5796, 25.09937
413.0617, 24.38325
413.5439, 23.82320
414.0260, 23.23318
414.5081, 22.76375
414.9902, 22.67133
415.4723, 22.99400
415.9544, 23.34063
416.4366, 23.20921
416.9187, 22.94282
417.4008, 23.04077
417.8829, 24.03946
418.3650, 25.13510
418.8471, 25.72266
419.3293, 25.91430
419.8114, 26.42253
420.2935, 28.04267
420.7756, 29.77664
421.2577, 30.93176
421.7398, 31.34845
422.2220, 31.33385
422.7041, 30.71542
423.1862, 29.74135
423.6683, 28.85455
424.1504, 28.61738
424.6325, 27.93332
425.1147, 26.40040
425.5968, 23.88523
426.0789, 21.55657
426.5610, 19.36290
427.0431, 17.40788
427.5252, 15.81078
428.0074, 14.64962
428.4895, 13.65882
428.9716, 12.81772
429.4537, 12.16095
429.9358, 11.90898
430.4179, 12.19318
430.9001, 12.45743
431.3822, 12.31172
431.8643, 11.73906
432.3464, 11.65502
432.8285, 12.13701
433.3106, 12.82571
433.7928, 13.24518
434.2749, 13.43968
434.7570, 13.76357
435.2391, 14.25161
435.7212, 14.99382
436.2033, 16.30251
436.6855, 18.12128
437.1676, 19.98119
437.6497, 21.56982
438.1318, 22.97594
438.6139, 24.26870
439.0960, 25.38227
439.5782, 26.66960
440.0603, 28.52409
440.5424, 30.75867
441.0245, 32.99194
441.5066, 35.00711
441.9887, 37.04073
442.4709, 39.30267
442.9530, 41.78320
443.4351, 44.12894
443.9172, 46.09891
444.3993, 47.92950
444.8814, 49.76649
445.3636, 51.76472
445.8457, 53.61599
446.3278, 55.36980
446.8099, 56.93904
447.2920, 58.15680
447.7741, 59.03680
448.2563, 59.56464
448.7384, 59.82500
449.2205, 59.90620
449.7026, 59.07143
450.1847, 57.19060
450.6668, 54.58118
451.1490, 51.44920
451.6311, 47.66206
452.1132, 43.79298
452.5953, 39.77507
453.0774, 35.81181
453.5595, 32.23799
454.0417, 29.05049
454.5238, 26.16415
455.0059, 23.48454
455.4880, 21.04716
455.9701, 18.98270
456.4522, 17.34740
456.9344, 15.80769
457.4165, 13.77666
457.8986, 11.52131
458.3807, 9.898933
458.8628, 9.524288
459.3449, 9.492699
459.8271, 8.674400
460.3092, 7.244289
460.7913, 5.941383
461.2734, 5.220413
461.7555, 4.803589
462.2376, 4.493866
462.7198, 4.299797
463.2019, 4.058689
463.6840, 3.720512
464.1661, 3.286297
464.6482, 2.757309
465.1303, 1.851513
465.6125, 1.144165
466.0946, 0.9140740
466.5767, 1.096291
467.0588, 1.098541
467.5409, 0.6897160
468.0230, 0.2580110
468.5052, 2.5955001E-02
468.9873, 0.1034130
469.4694, 0.1765630
469.9515, 0.2478790
470.4336, 0.3117560
470.9157, 0.3814050
471.3979, 0.4917790
471.8800, 0.4645540
472.3621, 0.1701970
472.8442, 0.2903330
473.3263, 0.4005200
473.8084, 0.1256030
474.2906, 0.2296030
474.7727, 0.4974820
475.2548, 0.6713910
475.7369, 0.6844980
476.2190, 0.4993210
476.7011, 0.2780530
477.1833, 0.2139050
477.6654, 0.2711750
478.1475, 0.3517760
478.6296, 0.4052620
479.1117, 0.4688190
479.5938, 0.6295780
480.0760, 0.8626250
480.5581, 0.9966770
481.0402, 0.8858380
481.5223, 0.6667210
482.0044, 0.4451870
482.4865, 0.2450830
482.9687, 3.2391001E-02
483.4508, 0.2906720
483.9329, 0.6115760
484.4150, 0.7668840
484.8971, 0.6656420
485.3792, 0.4637680
485.8614, 7.7110000E-02
486.3435, 0.4646490
486.8256, 0.6764140
487.3077, 0.2898140
487.7898, 0.1136400
488.2719, 0.1872480
488.7541, 0.2368850
489.2362, 0.4405250
489.7183, 0.3668330
490.2004, 0.1428220
490.6825, 7.4505001E-02
491.1646, 0.2928090
491.6468, 0.4182400
492.1289, 0.3700030
492.6110, 0.2374880
493.0931, 0.3216590
493.5752, 0.6177860
494.0573, 0.8906440
494.5395, 0.9368020
495.0216, 0.8458670
495.5037, 0.7913860
495.9858, 0.7921260
496.4679, 0.8609540
496.9500, 1.046391
497.4322, 1.293766
497.9143, 1.521973
498.3964, 1.612213
498.8785, 1.763321
499.3606, 2.163605
499.8427, 2.744308
500.3249, 3.188938
500.8070, 3.099941
501.2891, 3.079872
501.7712, 3.514889
502.2533, 4.708870
502.7354, 5.588749
503.2176, 5.884418
503.6997, 5.923302
504.1818, 6.016647
504.6639, 6.133739
505.1460, 6.360680
505.6281, 6.710674
506.1103, 7.179207
506.5924, 7.764412
507.0745, 8.502548
507.5566, 9.226429
508.0387, 9.774700
508.5208, 10.16853
509.0030, 10.89021
509.4851, 11.97889
509.9672, 13.17455
510.4493, 14.22786
510.9314, 15.16294
511.4135, 16.02879
511.8957, 16.72581
512.3778, 17.53892
512.8599, 18.93555
513.3420, 20.74402
513.8242, 22.45356
514.3063, 23.54312
514.7884, 24.64011
515.2705, 26.30251
515.7526, 28.56358
516.2347, 30.80569
516.7169, 32.61545
517.1990, 34.40501
517.6811, 36.49567
518.1632, 39.28934
518.6453, 41.90763
519.1274, 44.06120
519.6096, 46.03086
520.0917, 48.29020
520.5738, 50.85106
521.0559, 53.66630
521.5380, 56.77427
522.0201, 60.15826
522.5023, 63.57599
522.9844, 67.11725
523.4665, 70.47492
523.9486, 73.38795
524.4307, 75.88544
524.9128, 78.35178
525.3950, 80.84583
525.8771, 83.12779
526.3592, 84.96037
526.8413, 86.30658
527.3234, 87.10654
527.8055, 87.38328
528.2877, 87.04143
528.7698, 85.94709
529.2519, 84.13011
529.7340, 81.69807
530.2161, 78.26318
530.6982, 74.55831
531.1804, 71.06244
531.6625, 67.93079
532.1446, 64.81004
532.6267, 61.75859
533.1088, 58.61216
533.5909, 55.27197
534.0731, 51.34823
534.5552, 47.68705
535.0373, 44.29551
535.5194, 41.20980
536.0015, 38.35372
536.4836, 35.76323
536.9658, 33.37392
537.4479, 31.21439
537.9300, 29.27044
538.4121, 27.30882
538.8942, 25.33988
539.3763, 23.41214
539.8585, 21.48856
540.3406, 19.64812
540.8227, 18.18516
541.3048, 17.15134
541.7869, 16.21808
542.2690, 14.91547
542.7512, 13.40234
543.2333, 12.06584
543.7154, 11.04822
544.1975, 10.24538
544.6796, 9.832146
545.1617, 9.725864
545.6439, 9.374329
546.1260, 8.216759
546.6081, 6.906326
547.0902, 5.799725
547.5723, 4.979607
548.0544, 4.335690
548.5366, 3.981789
549.0187, 3.721649
549.5008, 3.364464
549.9829, 2.696426
550.4650, 2.339279
550.9471, 2.476818
551.4293, 2.894459
551.9114, 3.123745
552.3935, 3.174328
552.8756, 2.974422
553.3577, 2.342644
553.8398, 1.438702
554.3220, 1.083870
554.8041, 1.293526
555.2862, 1.568977
555.7683, 1.421600
556.2504, 1.078583
556.7325, 1.037205
557.2147, 1.408348
557.6968, 1.828949
558.1789, 1.967796
558.6610, 1.966393
559.1431, 2.032509
559.6252, 2.310646
560.1074, 2.597343
560.5895, 2.829124
561.0716, 3.008633
561.5537, 3.142048
562.0358, 3.182865
562.5179, 3.224869
563.0001, 3.302105
563.4822, 3.417603
563.9643, 3.525089
564.4464, 3.590420
564.9285, 3.696522
565.4106, 3.983326
565.8928, 4.532223
566.3749, 4.644894
566.8570, 4.123653
567.3391, 3.471653
567.8212, 3.636181
568.3033, 4.478863
568.7855, 4.927082
569.2676, 4.318050
569.7497, 3.425285
570.2318, 3.466087
570.7139, 4.275791
571.1960, 5.136311
571.6782, 5.664909
572.1603, 6.037746
572.6424, 6.375843
573.1245, 6.693275
573.6066, 6.975990
574.0887, 7.163212
574.5709, 7.349976
575.0530, 7.609108
575.5351, 7.882805
576.0172, 8.346195
576.4993, 9.200680
576.9814, 10.15323
577.4636, 10.68846
577.9457, 10.64708
578.4278, 10.62166
578.9099, 10.80313
579.3920, 11.08832
579.8741, 10.98336
580.3563, 10.45037
580.8384, 10.04848
581.3205, 10.38082
581.8026, 11.08953
582.2847, 10.98736
582.7668, 10.02561
583.2490, 9.060982
583.7311, 8.992558
584.2132, 9.283146
584.6953, 9.194664
585.1774, 8.383625
585.6595, 7.587364
586.1416, 7.384686
586.6237, 7.393219
587.1058, 7.030495
587.5880, 5.657391
588.0701, 4.451828
588.5522, 3.766441
589.0343, 3.491024
589.5164, 3.112766
589.9985, 2.491402
590.4807, 2.009605
590.9628, 1.919357
591.4449, 2.235813
591.9270, 2.076714
592.4091, 1.352356
592.8912, 0.5352210
593.3734, 5.7156000E-02
593.8555, 0.1437570
594.3376, 0.3932650
594.8197, 0.7865180
595.3018, 1.027370
595.7839, 0.4673190
596.2661, 0.4479290
596.7482, 0.8515210
597.2303, 0.1104890
597.7124, 1.143600
598.1945, 1.429363
598.6766, 1.174610
599.1588, 0.9727440
599.6409, 1.156391
600.1230, 1.275356
600.6051, 1.064648
601.0872, 0.4881860
601.5693, 0.2288360
602.0515, 0.4371530
602.5336, 0.7611540
603.0157, 1.037914
603.4978, 1.300465
603.9799, 1.265690
604.4620, 0.8509640
604.9442, 0.3501970
605.4263, 0.1923100
605.9084, 0.3078610
606.3905, 0.3076630
606.8726, 8.7935999E-02
607.3547, 0.2656330
607.8369, 0.7319260
608.3190, 1.251797
608.8011, 1.693432
609.2832, 1.859936
609.7653, 2.035347
610.2474, 2.432835
610.7296, 3.027122
611.2117, 3.561398
611.6938, 3.753719
612.1759, 4.048668
612.6580, 4.747791
613.1401, 6.023151
613.6223, 6.936234
614.1044, 7.260948
614.5865, 7.510254
615.0686, 8.097786
615.5507, 9.028347
616.0328, 10.24749
616.5150, 11.82728
616.9971, 13.49001
617.4792, 14.71187
617.9613, 15.61300
618.4434, 16.75634
618.9255, 18.41636
619.4077, 20.29755
619.8898, 22.11702
620.3719, 23.89352
620.8540, 25.71601
621.3361, 27.91476
621.8182, 29.90400
622.3004, 31.38649
622.7825, 32.34198
623.2646, 32.87232
623.7467, 33.15004
624.2288, 32.84551
624.7109, 31.78423
625.1931, 29.84692
625.6752, 27.46422
626.1573, 24.42958
626.6394, 21.26522
627.1215, 18.49510
627.6036, 16.12210
628.0858, 13.90485
628.5679, 11.78701
629.0500, 9.855221
629.5321, 8.224087
630.0142, 6.893028
630.4963, 5.923370
630.9785, 5.548347
631.4606, 5.321587
631.9427, 4.751453
632.4248, 3.990154
632.9069, 3.521839
633.3890, 4.048161
633.8712, 4.464558
634.3533, 4.117435
634.8354, 2.902126
635.3175, 2.161846
635.7996, 2.140430
636.2817, 2.368084
636.7639, 2.653740
637.2460, 3.052456
637.7281, 3.195534
638.2102, 3.043797
638.6923, 2.749580
639.1744, 2.394951
639.6566, 2.016548
640.1387, 1.841030
640.6208, 1.950550
641.1029, 2.156921
641.5850, 2.280056
642.0671, 2.336597
642.5493, 2.363297
643.0314, 2.305946
643.5135, 2.289837
643.9956, 2.384071
644.4777, 2.573048
644.9598, 2.806873
645.4420, 3.122799
645.9241, 3.433079
646.4062, 3.701927
646.8883, 3.931416
647.3704, 4.206493
647.8525, 4.566402
648.3347, 4.880684
648.8168, 5.036148
649.2989, 5.043488
649.7810, 5.124416
650.2631, 5.278610
650.7452, 5.478958
651.2274, 5.682415
651.7095, 5.914921
652.1916, 6.243408
652.6737, 6.689602
653.1558, 7.132088
653.6379, 7.495834
654.1201, 7.873596
654.6022, 8.333866
655.0843, 8.850929
655.5664, 9.401707
656.0485, 10.06484
656.5306, 10.83776
657.0128, 11.65404
657.4949, 12.53307
657.9770, 13.34218
658.4591, 14.02148
658.9412, 14.64961
659.4233, 15.44532
659.9055, 16.38689
660.3876, 17.42033
660.8697, 18.48399
661.3518, 19.64084
661.8339, 21.08643
662.3160, 22.83717
662.7982, 24.76715
663.2803, 26.73107
663.7624, 28.81799
664.2445, 31.02492
664.7266, 33.30742
665.2087, 36.16787
665.6909, 39.86962
666.1730, 44.14230
666.6551, 48.78717
667.1372, 53.84897
667.6193, 59.11854
668.1014, 64.26662
668.5836, 69.89034
669.0657, 76.83665
669.5478, 85.09185
670.0299, 94.10143
670.5120, 103.7154
670.9941, 114.0824
671.4763, 125.4942
671.9584, 137.8919
672.4405, 151.1488
672.9226, 165.2507
673.4047, 180.2741
673.8868, 196.4621
674.3690, 213.5900
674.8511, 231.3790
675.3332, 249.0333
675.8153, 267.9659
676.2974, 288.6976
676.7795, 311.4012
677.2617, 336.9747
677.7438, 365.7716
678.2259, 397.2284
678.7080, 431.1319
679.1901, 467.7221
679.6722, 507.9239
680.1544, 552.3774
680.6365, 599.5412
681.1186, 648.8423
681.6007, 699.9672
682.0828, 754.2439
682.5649, 811.8939
683.0471, 869.7783
683.5292, 927.1457
684.0113, 981.3552
684.4934, 1028.624
684.9755, 1076.305
685.4576, 1104.978
685.9398, 1109.758
686.4219, 1092.031
686.9040, 1055.950
687.3861, 996.8412
687.8682, 928.0135
688.3503, 848.8062
688.8325, 763.1445
689.3146, 681.2510
689.7967, 603.3730
690.2788, 532.3961
690.7609, 470.0771
691.2430, 415.9199
691.7252, 368.7516
692.2073, 327.8810
692.6894, 292.1563
693.1715, 261.9700
693.6536, 235.7062
694.1357, 212.6100
694.6179, 192.5784
695.1000, 174.7363
695.5821, 159.1808
696.0642, 145.5804
696.5463, 133.8964
697.0284, 124.3205
697.5106, 115.4705
697.9927, 107.4770
698.4748, 99.88007
698.9569, 92.08617
699.4390, 84.24454
699.9211, 78.10816
700.4033, 73.93387
700.8854, 70.41293
701.3675, 66.31348
701.8496, 61.97019
702.3317, 57.86909
702.8138, 54.12928
703.2960, 50.74325
703.7781, 47.85449
704.2602, 45.26717
704.7423, 42.74162
705.2244, 39.85547
705.7065, 37.57487
706.1887, 36.30853
706.6708, 35.48959
707.1529, 33.90650
707.6350, 31.37420
708.1171, 29.21149
708.5992, 27.86547
709.0814, 26.95492
709.5635, 25.67587
710.0456, 24.08347
710.5277, 22.47154
711.0098, 20.91360
711.4919, 19.45896
711.9741, 18.18768
712.4562, 17.07789
712.9383, 15.99323
713.4204, 14.75838
713.9025, 13.65833
714.3846, 12.84694
714.8668, 12.30254
715.3489, 11.85224
715.8310, 11.61034
716.3131, 11.22336
716.7952, 10.40444
717.2773, 9.208164
717.7595, 8.334763
718.2416, 7.799030
718.7237, 7.413277
719.2058, 7.116585
719.6879, 6.836628
720.1700, 6.479561
720.6522, 6.033962
721.1343, 5.480873
721.6164, 4.547287
722.0985, 3.663395
722.5806, 3.195301
723.0627, 3.457611
723.5449, 3.555145
724.0270, 3.486282
724.5091, 3.203403
724.9912, 2.547161
725.4733, 1.364254
725.9554, 0.7241780
726.4376, 0.8094980
726.9197, 1.169563
727.4018, 1.246113
727.8839, 1.095989
728.3660, 0.8859330
728.8481, 0.6304930
729.3303, 0.3899570
729.8124, 0.1849750
730.2945, 3.7703998E-02
730.7766, 1.5602000E-02
731.2587, 0.2823450
731.7408, 0.3855550
732.2230, 5.7521999E-02
732.7051, 0.7195430
733.1872, 0.9677660
733.6693, 0.6498760
734.1514, 0.3325040
734.6335, 9.1038004E-02
735.1157, 1.6338000E-02
735.5978, 0.2848360
736.0799, 0.9346620
736.5620, 1.427948
737.0441, 1.454956
737.5262, 1.264778
738.0084, 1.112892
738.4905, 0.9833640
738.9726, 0.8224640
739.4547, 0.4762000
739.9368, 0.2192570
740.4189, 0.2584270
740.9011, 0.5685080
741.3832, 0.6379050
741.8653, 0.2918970
742.3474, 3.3829000E-02
742.8295, 0.1636200
743.3116, 0.5954700
743.7938, 0.5688550
744.2759, 7.2323002E-02
744.7580, 0.4978940
745.2401, 0.9758070
745.7222, 1.300785
746.2043, 1.295383
746.6865, 0.9735070
747.1686, 0.7110710
747.6507, 0.7323680
748.1328, 0.8708040
748.6149, 1.036278
749.0970, 1.229675
749.5792, 1.378849
750.0613, 1.402992
750.5434, 1.483208
751.0255, 1.769054
751.5076, 2.284298
751.9897, 2.693798
752.4719, 2.986546
752.9540, 3.229137
753.4361, 3.563274
753.9182, 3.902626
754.4003, 3.977520
754.8824, 3.673084
755.3646, 3.459496
755.8467, 3.707264
756.3288, 4.171249
756.8109, 4.621582
757.2930, 5.015659
757.7751, 5.448322
758.2573, 5.853432
758.7394, 6.331665
759.2215, 6.973633
759.7036, 7.804543
760.1857, 8.686691
760.6678, 9.638962
761.1500, 10.59692
761.6321, 11.40445
762.1142, 12.03262
762.5963, 12.45818
763.0784, 12.53559
763.5605, 12.80242
764.0427, 13.93618
764.5248, 15.38212
765.0069, 16.40294
765.4890, 16.46653
765.9711, 16.57604
766.4532, 16.76045
766.9354, 17.12493
767.4175, 17.79198
767.8996, 18.82186
768.3817, 19.50256
768.8638, 19.67062
769.3459, 19.58247
769.8281, 19.74316
770.3102, 19.98779
770.7923, 19.78867
771.2744, 18.65252
771.7565, 17.51156
772.2386, 17.09045
772.7208, 17.09056
773.2029, 16.95755
773.6850, 16.70670
774.1671, 16.09898
774.6492, 14.90634
775.1313, 13.44572
775.6135, 12.37454
776.0956, 11.72717
776.5777, 11.30930
777.0598, 11.16592
777.5419, 11.07877
778.0240, 10.53716
778.5062, 9.699947
778.9883, 9.053368
779.4704, 9.081276
779.9525, 9.101566
780.4346, 8.600544
780.9167, 7.779896
781.3989, 7.130764
781.8810, 6.747066
782.3631, 6.591167
782.8452, 6.800880
783.3273, 7.156353
783.8094, 6.903435
784.2916, 5.980644
784.7737, 5.072792
785.2558, 4.373932
785.7379, 3.871479
786.2200, 3.607845
786.7021, 3.535538
787.1843, 3.505257
787.6664, 3.466522
788.1485, 3.420341
788.6306, 3.502720
789.1127, 3.606991
789.5948, 3.282467
790.0770, 1.811081
790.5591, 0.9156570
791.0412, 1.271679
791.5233, 2.452465
792.0054, 2.724693
792.4875, 2.059299
792.9697, 1.542217
793.4518, 1.787018
793.9339, 2.307571
794.4160, 2.370930
794.8981, 2.096886
795.3802, 1.822964
795.8624, 1.706158
796.3445, 1.617340
796.8266, 1.495258
797.3087, 1.358818
797.7908, 1.264160
798.2729, 1.206470
798.7551, 1.164925
799.2372, 1.156055
799.7193, 1.182499
800.2014, 1.190052
800.6835, 1.166939
801.1656, 1.099823
801.6478, 0.9891970
802.1299, 0.8834190
802.6120, 0.7723200
803.0941, 0.6735840
803.5762, 0.6529810
804.0583, 0.8516770
804.5405, 1.016029
805.0226, 1.035160
805.5047, 0.9379010
805.9868, 0.8073650
806.4689, 0.5942310
806.9510, 0.5227200
807.4332, 0.7403410
807.9153, 1.099800
808.3974, 1.174416
808.8795, 0.9963230
809.3616, 0.7426800
809.8438, 0.4666210
810.3259, 0.1905590
810.8080, 0.1528280
811.2901, 0.4890170
811.7722, 0.5904010
812.2543, 0.1114730
812.7365, 0.2812390
813.2186, 0.4240650
813.7007, 0.3601040
814.1828, 0.1618800
814.6649, 0.2266460
815.1470, 0.3049810
815.6292, 0.2884640
816.1113, 1.115559
816.5934, 1.392143
817.0755, 1.198078
817.5576, 0.8001400
818.0397, 8.6014003E-02
818.5219, 0.7251170
819.0040, 0.5161290
819.4861, 0.2658960
819.9682, 0.7064740
820.4503, 0.6095470
820.9324, 0.3955270
821.4146, 6.8187997E-02
821.8967, 0.2478370
822.3788, 6.7505002E-02
822.8609, 0.5584720
823.3430, 0.7973290
823.8251, 5.2654002E-02
824.3073, 0.8297920
824.7894, 0.7361680
825.2715, 1.6883999E-02
825.7536, 0.5690420
826.2357, 0.6228790
826.7178, 0.6334270
827.2000, 0.7231330
827.6821, 0.8646130
828.1642, 1.046055
828.6463, 1.351940
829.1284, 1.343781
829.6105, 0.7907100
830.0927, 0.1239890
830.5748, 0.2587700
831.0569, 0.9665450
831.5390, 1.447643
832.0211, 1.314419
832.5032, 1.071564
832.9854, 0.9979900
833.4675, 1.068390
833.9496, 1.251080
834.4317, 1.867432
834.9138, 2.119408
835.3959, 1.776531
835.8781, 1.217064
836.3602, 1.051208
836.8423, 1.279804
837.3244, 1.428814
837.8065, 1.423508
838.2886, 1.264023
838.7708, 0.7128640
839.2529, 7.1589999E-02
839.7350, 0.1411590
840.2171, 0.4179840
840.6992, 1.006710
841.1813, 1.421276
841.6635, 1.723755
842.1456, 2.003426
842.6277, 2.321564
843.1098, 2.385582
843.5919, 2.113461
844.0740, 1.764690
844.5562, 1.599110
845.0383, 1.611500
845.5204, 1.862148
846.0025, 2.406391
846.4846, 2.847240
846.9667, 2.838665
847.4489, 2.626385
847.9310, 2.419956
848.4131, 2.203499
848.8952, 2.146122
849.3773, 2.375122
849.8594, 2.584076
850.3416, 2.453701
850.8237, 1.999451
851.3058, 1.925133
851.7879, 2.275604
852.2700, 2.680641
852.7521, 2.758785
853.2343, 2.760891
853.7164, 3.092369
854.1985, 3.809715
854.6806, 4.211590
855.1627, 3.721569
855.6448, 3.169086
856.1270, 2.977417
856.6091, 3.152782
857.0912, 3.324112
857.5733, 3.503757
858.0554, 3.601196
858.5375, 3.381020
859.0197, 3.091503
859.5018, 3.436932
859.9839, 4.301731
860.4660, 4.971043
860.9481, 4.955280
861.4302, 4.725559
861.9124, 4.539127
862.3945, 4.385479
862.8766, 4.011875
863.3587, 3.231983
863.8408, 2.690693
864.3229, 2.663315
864.8051, 3.000069
865.2872, 3.370731
865.7693, 3.740108
866.2514, 3.878643
866.7335, 3.421627
867.2156, 2.937500
867.6978, 2.967861
868.1799, 3.299812
868.6620, 3.436600
869.1441, 3.037094
869.6262, 2.735683
870.1083, 2.671398
870.5905, 2.749889
871.0726, 2.782780
871.5547, 2.773247
872.0368, 2.912224
872.5189, 3.289833
873.0010, 3.669704
873.4832, 3.776268
873.9653, 3.704136
874.4474, 3.635971
874.9295, 3.589348
875.4116, 3.611279
875.8937, 3.855312
876.3759, 4.024662
876.8580, 3.822548
877.3401, 3.127544
877.8222, 2.978035
878.3043, 3.544529
878.7864, 4.213608
879.2686, 4.302860
879.7507, 4.014656
880.2328, 3.742901
880.7149, 3.543571
881.1970, 3.419224
881.6791, 3.366253
882.1613, 3.332249
882.6434, 3.361679
883.1255, 3.481846
883.6076, 3.775734
884.0897, 4.317345
884.5718, 4.746307
885.0540, 4.716831
885.5361, 4.405769
886.0182, 4.371052
886.5003, 4.588398
886.9824, 4.780556
887.4645, 4.654121
887.9467, 4.483887
888.4288, 4.523525
888.9109, 4.756454
889.3930, 4.773758
889.8751, 4.399715
890.3572, 4.193935
890.8394, 4.399471
891.3215, 4.836048
891.8036, 4.930317
892.2857, 4.759113
892.7678, 4.763893
893.2499, 5.410267
893.7321, 5.977871
894.2142, 5.774960
894.6963, 5.152306
895.1784, 4.779507
895.6605, 4.798588
896.1426, 5.069180
896.6248, 5.664948
897.1069, 6.346535
897.5890, 6.807247
898.0711, 7.107655
898.5532, 7.285816
899.0353, 7.300655
899.5175, 7.321945
899.9996, 7.527451
900.4817, 7.825668
900.9638, 8.120152
901.4459, 8.423859
901.9280, 8.624767
902.4102, 8.576393
902.8923, 8.583260
903.3744, 8.912708
903.8565, 9.583622
904.3386, 10.07888
904.8207, 10.38892
905.3029, 10.62512
905.7850, 10.75675
906.2671, 10.92694
906.7492, 11.32441
907.2313, 11.94682
907.7134, 12.61201
908.1956, 13.31177
908.6777, 13.95432
909.1598, 14.49589
909.6419, 14.97150
910.1240, 15.59398
910.6061, 16.36975
911.0883, 16.88550
911.5704, 16.79016
912.0525, 16.50882
912.5346, 16.58115
913.0167, 16.90556
913.4988, 17.24142
913.9810, 17.26083
914.4631, 17.62424
914.9452, 18.81252
915.4273, 20.14001
915.9094, 20.52115
916.3915, 19.87390
916.8737, 19.45706
917.3558, 19.47342
917.8379, 19.54235
918.3200, 19.27330
918.8021, 18.84459
919.2842, 18.52464
919.7664, 18.42534
920.2485, 18.30419
920.7306, 18.22769
921.2127, 17.89295
921.6948, 17.06990
922.1769, 15.73635
922.6591, 14.67716
923.1412, 13.92056
923.6233, 13.24380
924.1054, 12.39308
924.5875, 11.57068
925.0696, 11.12980
925.5518, 11.01864
926.0339, 10.86091
926.5160, 10.52065
926.9981, 10.08679
927.4802, 9.530132
927.9623, 8.918568
928.4445, 8.485222
928.9266, 8.244221
929.4087, 7.983265
929.8908, 7.616077
930.3729, 7.248680
930.8550, 7.016224
931.3372, 6.882565
931.8193, 6.796398
932.3014, 6.839085
932.7835, 6.764259
933.2656, 6.442760
933.7477, 6.036488
934.2299, 5.692699
934.7120, 5.426922
935.1941, 5.008312
935.6762, 4.395397
936.1583, 3.926926
936.6404, 4.077019
937.1226, 4.472301
937.6047, 4.615925
938.0868, 4.460186
938.5689, 4.287880
939.0510, 4.139721
939.5331, 4.043274
940.0153, 3.975204
940.4974, 3.960884
940.9795, 4.346909
941.4616, 5.150524
941.9437, 5.462967
942.4258, 4.639050
942.9080, 3.367905
943.3901, 2.217194
943.8722, 1.287457
944.3543, 0.7939150
944.8364, 1.163292
945.3185, 1.517452
945.8007, 1.791866
946.2828, 1.931690
946.7649, 1.811703
947.2470, 1.440769
947.7291, 1.145069
948.2112, 0.9640010
948.6934, 0.8812100
949.1755, 0.9465140
949.6576, 1.061775
950.1397, 1.131237
950.6218, 1.142231
951.1039, 1.097248
951.5861, 1.024418
952.0682, 0.8535650
952.5503, 0.4572870
953.0324, 8.5720003E-02
953.5145, 8.9653000E-02
953.9966, 0.3919220
954.4788, 0.6994740
954.9609, 0.2412150
955.4430, 0.3435020
955.9251, 0.5644000
956.4072, 0.5086750
956.8893, 0.4113080
957.3715, 0.2604790
957.8536, 0.1637230
958.3357, 0.1595840
958.8178, 0.1821020
959.2999, 0.1151850
959.7820, 1.9951001E-02
960.2642, 0.1417430
960.7463, 0.2531280
961.2284, 0.2540860
961.7105, 0.1115760
962.1926, 0.4949000
962.6747, 0.5034790
963.1569, 5.4680001E-02
963.6390, 8.9340001E-02
964.1211, 0.5985300
964.6032, 1.265347
965.0853, 1.411083
965.5674, 1.196022
966.0496, 0.9983790
966.5317, 0.8393940
967.0138, 0.8064080
967.4959, 1.036877
967.9780, 1.311371
968.4601, 1.655479
968.9423, 1.938015
969.4244, 1.796238
969.9065, 1.040592
970.3886, 0.6874310
970.8707, 0.9734650
971.3528, 1.509594
971.8350, 1.930080
972.3171, 2.177666
972.7992, 2.103996
973.2813, 1.604084
973.7634, 1.144848
974.2455, 1.172291
974.7277, 1.025936
975.2098, 7.0548996E-02
975.6919, 1.720177
976.1740, 1.959995
976.6561, 0.5796590
977.1382, 0.8452220
977.6204, 1.475235
978.1025, 1.526718
978.5846, 0.8611490
979.0667, 0.1827430
979.5488, 0.6332930
980.0309, 0.5900610
980.5131, 1.415775
980.9952, 1.445915
981.4773, 1.009411
981.9594, 0.5233840
982.4415, 2.2472000E-02
982.9236, 0.1745030
983.4058, 3.7978999E-02
983.8879, 0.2851490
984.3700, 0.4187130
984.8521, 0.3288120
985.3342, 0.1826590
985.8163, 1.285763
986.2985, 1.995556
986.7806, 2.148609
987.2627, 2.265690
987.7448, 2.589848
988.2269, 3.100815
988.7090, 3.839413
989.1912, 4.735691
989.6733, 5.494209
990.1554, 5.727531
990.6375, 6.058083
991.1196, 6.740555
991.6017, 7.723827
992.0839, 8.887131
992.5660, 10.22829
993.0481, 11.78331
993.5302, 13.59219
994.0123, 15.48192
994.4944, 17.25703
994.9766, 19.00354
995.4587, 20.79202
995.9408, 22.60031
996.4229, 24.64787
996.9050, 27.33084
997.3871, 29.91232
997.8693, 31.88846
998.3514, 33.48218
998.8335, 35.97128
999.3156, 39.30732
999.7977, 42.94036
1000.280, 46.72222
1000.762, 50.48554
1001.244, 53.93390
1001.726, 57.28413
1002.208, 60.94683
1002.690, 65.15257
1003.173, 69.51938
1003.655, 74.00767
1004.137, 78.63156
1004.619, 83.25785
1005.101, 88.00963
1005.583, 93.05431
1006.065, 98.46943
1006.547, 104.1538
1007.029, 110.3279
1007.512, 116.5937
1007.994, 122.7179
1008.476, 128.7643
1008.958, 134.8837
1009.440, 141.1873
1009.922, 146.9221
1010.404, 152.0629
1010.886, 156.0347
1011.369, 157.9291
1011.851, 158.2550
1012.333, 157.8487
1012.815, 157.0110
1013.297, 155.0696
1013.779, 151.9302
1014.261, 147.7829
1014.743, 142.6986
1015.225, 136.6558
1015.708, 129.6639
1016.190, 121.7699
1016.672, 113.8210
1017.154, 106.0997
1017.636, 98.89827
1018.118, 92.65710
1018.600, 87.16071
1019.082, 81.48421
1019.565, 75.19669
1020.047, 69.77927
1020.529, 65.62361
1021.011, 62.11226
1021.493, 58.26679
1021.975, 54.26053
1022.457, 50.54771
1022.939, 47.24836
1023.421, 44.19876
1023.904, 41.27282
1024.386, 38.63925
1024.868, 36.35773
1025.350, 34.38535
1025.832, 32.39549
1026.314, 30.38942
1026.796, 28.76089
1027.278, 27.95835
1027.760, 27.35482
1028.243, 26.14602
1028.725, 24.65014
1029.207, 23.44923
1029.689, 22.75857
1030.171, 22.23447
1030.653, 21.89151
1031.135, 21.74702
1031.617, 21.90196
1032.100, 22.20418
1032.582, 22.33200
1033.064, 22.29496
1033.546, 22.08005
1034.028, 21.37302
1034.510, 20.82188
1034.992, 20.66518
1035.474, 20.88061
1035.957, 21.54076
1036.439, 22.71395
1036.921, 23.80103
1037.403, 24.59518
1037.885, 25.40290
1038.367, 26.59386
1038.849, 28.01001
1039.331, 29.39728
1039.813, 30.70679
1040.296, 32.07758
1040.778, 33.45090
1041.260, 34.97520
1041.742, 36.67681
1042.224, 38.59810
1042.706, 40.79416
1043.188, 43.26363
1043.670, 46.12566
1044.152, 49.68509
1044.635, 53.31770
1045.117, 56.61033
1045.599, 59.89317
1046.081, 63.55231
1046.563, 67.65112
1047.045, 71.96375
1047.527, 76.46620
1048.009, 81.32761
1048.492, 86.82063
1048.974, 92.59899
1049.456, 98.03905
1049.938, 103.2571
1050.420, 109.6111
1050.902, 117.6538
1051.384, 126.0588
1051.866, 134.3244
1052.349, 143.0761
1052.831, 153.7125
1053.313, 165.8072
1053.795, 178.2053
1054.277, 190.4318
1054.759, 203.2672
1055.241, 217.0118
1055.723, 231.5420
1056.205, 246.3802
1056.688, 261.5804
1057.170, 279.7135
1057.652, 300.8597
1058.134, 323.0461
1058.616, 345.5858
1059.098, 368.6193
1059.580, 391.5939
1060.062, 415.3192
1060.544, 441.4805
1061.027, 471.7956
1061.509, 501.6270
1061.991, 530.4674
1062.473, 559.4545
1062.955, 590.0948
1063.437, 621.4371
1063.919, 651.7772
1064.401, 680.7509
1064.884, 708.5660
1065.366, 736.5941
1065.848, 761.3508
1066.330, 781.9784
1066.812, 798.6175
1067.294, 811.7056
1067.776, 821.0209
1068.258, 825.1580
1068.740, 823.6547
1069.223, 817.6346
1069.705, 807.6327
1070.187, 793.7496
1070.669, 775.3858
1071.151, 752.4140
1071.633, 727.8062
1072.115, 701.3873
1072.597, 672.9689
1073.079, 641.5374
1073.562, 609.3330
1074.044, 579.3760
1074.526, 551.0151
1075.008, 522.2916
1075.490, 491.2552
1075.972, 462.9955
1076.454, 438.5736
1076.936, 415.8033
1077.419, 392.2870
1077.901, 368.7498
1078.383, 348.6039
1078.865, 331.3915
1079.347, 314.8788
1079.829, 297.6247
1080.311, 280.9561
1080.793, 265.3101
1081.275, 250.7225
1081.758, 237.5624
1082.240, 225.7756
1082.722, 214.5060
1083.204, 203.6162
1083.686, 193.1924
1084.168, 183.1594
1084.650, 173.4330
1085.132, 163.7878
1085.615, 154.2742
1086.097, 145.5784
1086.579, 137.9475
1087.061, 130.3419
1087.543, 122.4505
1088.025, 114.6953
1088.507, 108.0164
1088.989, 102.0716
1089.471, 96.22523
1089.953, 90.25307
1090.436, 84.69431
1090.918, 79.48083
1091.400, 74.94563
1091.882, 71.52673
1092.364, 68.84710
1092.846, 64.99593
1093.328, 60.25278
1093.810, 55.78514
1094.293, 52.03363
1094.775, 48.81005
1095.257, 46.21868
1095.739, 43.96356
1096.221, 41.77635
1096.703, 39.67884
1097.185, 37.30990
1097.667, 34.64298
1098.150, 32.03963
1098.632, 29.80388
1099.114, 27.77480
1099.596, 25.76112
1100.078, 23.82555
1100.560, 22.18626
1101.042, 20.96011
1101.524, 19.73640
1102.006, 18.41963
1102.489, 17.09059
1102.971, 15.75802
1103.453, 14.52402
1103.935, 13.63278
1104.417, 13.04793
1104.899, 12.19157
1105.381, 10.49774
1105.863, 9.195747
1106.345, 8.722511
1106.828, 8.683655
1107.310, 8.416206
1107.792, 7.874092
1108.274, 6.808815
1108.756, 4.953575
1109.238, 3.545883
1109.720, 3.456551
1110.202, 3.746849
1110.685, 4.058151
1111.167, 4.350014
1111.649, 4.145424
1112.131, 3.468338
1112.613, 2.796440
1113.095, 2.368416
1113.577, 2.038177
1114.059, 1.588257
1114.542, 1.254173
1115.024, 1.427689
1115.506, 2.383598
1115.988, 2.225685
1116.470, 0.8193280
1116.952, 0.3302610
1117.434, 0.1864620
1117.916, 1.167595
1118.398, 1.385849
1118.880, 1.026749
1119.363, 0.5302730
1119.845, 0.3748320
1120.327, 0.6114580
1120.809, 8.3610997E-02
1121.291, 0.8529510
1121.773, 0.7671810
1122.255, 0.2070580
1122.737, 0.2523800
1123.220, 0.5652620
1123.702, 0.7007290
1124.184, 0.5371780
1124.666, 0.3151250
1125.148, 5.6023002E-02
1125.630, 0.2179300
1126.112, 0.4780920
1126.594, 0.7179300
1127.077, 0.9860880
1127.559, 1.308319
1128.041, 1.388371
1128.523, 0.6017650
1129.005, 9.6771002E-02
1129.487, 0.4396020
1129.969, 1.372421
1130.451, 2.184929
1130.933, 2.864662
1131.416, 3.244659
1131.898, 3.198727
1132.380, 3.199955
1132.862, 3.490498
1133.344, 4.027275
1133.826, 4.833183
1134.308, 5.876827
1134.790, 6.794044
1135.272, 7.586712
1135.755, 8.376312
1136.237, 9.380985
1136.719, 10.12585
1137.201, 9.850521
1137.683, 9.205326
1138.165, 9.109440
1138.647, 9.857582
1139.129, 9.988503
1139.612, 9.393791
1140.094, 8.915466
1140.576, 9.220913
1141.058, 9.827751
1141.540, 10.26938
1142.022, 10.51667
1142.504, 10.49945
1142.986, 9.963379
1143.469, 9.650360
1143.951, 9.613625
1144.433, 9.678143
1144.915, 9.779427
1145.397, 9.831043
1145.879, 9.618042
1146.361, 9.198593
1146.843, 8.825901
1147.325, 8.583889
1147.807, 8.397007
1148.290, 8.286194
1148.772, 8.168564
1149.254, 8.005276
1149.736, 7.744881
1150.218, 7.224148
1150.700, 6.426128
1151.182, 5.457310
1151.664, 3.938705
1152.147, 2.851921
1152.629, 2.555084
1153.111, 2.712570
1153.593, 2.891102
1154.075, 3.004742
1154.557, 2.606739
1155.039, 1.600239
1155.521, 0.6702380
1156.004, 0.2301180
1156.486, 7.4134998E-02
1156.968, 0.3868790
1157.450, 0.7139970
1157.932, 1.167522
1158.414, 1.700352
1158.896, 1.907276
1159.378, 1.600620
1159.860, 1.399174
1160.343, 1.982578
1160.825, 2.573200
1161.307, 2.567490
1161.789, 2.062927
1162.271, 1.818893
1162.753, 1.826717
1163.235, 1.900486
1163.717, 2.018272
1164.199, 2.073883
1164.682, 1.890488
1165.164, 1.661354
1165.646, 1.635159
1166.128, 1.842239
1166.610, 1.577492
1167.092, 0.8137630
1167.574, 0.3750500
1168.056, 0.9569660
1168.539, 1.605892
1169.021, 1.324707
1169.503, 0.6388050
1169.985, 0.3022460
1170.467, 0.4582140
1170.949, 0.4749150
1171.431, 0.3419380
1171.913, 0.1464770
1172.396, 7.6114997E-02
1172.878, 0.3161810
1173.360, 0.5927810
1173.842, 0.8725850
1174.324, 1.079399
1174.806, 1.129932
1175.288, 1.351597
1175.770, 1.787182
1176.252, 2.182320
1176.734, 2.224392
1177.217, 2.194645
1177.699, 2.576088
1178.181, 3.170708
1178.663, 3.343201
1179.145, 2.650486
1179.627, 2.450020
1180.109, 2.924713
1180.591, 3.546124
1181.074, 3.879261
1181.556, 4.001251
1182.038, 3.955105
1182.520, 3.784752
1183.002, 3.658966
1183.484, 3.472668
1183.966, 3.674084
1184.448, 4.460754
1184.931, 5.212128
1185.413, 5.006256
1185.895, 4.407047
1186.377, 4.404919
1186.859, 4.974419
1187.341, 5.299839
1187.823, 5.027992
1188.305, 4.910831
1188.787, 5.118412
1189.270, 5.451607
1189.752, 5.662697
1190.234, 5.795952
1190.716, 5.915585
1191.198, 6.030216
1191.680, 6.173016
1192.162, 6.374187
1192.644, 6.576771
1193.126, 6.811123
1193.609, 6.954163
1194.091, 6.652153
1194.573, 6.173252
1195.055, 6.078442
1195.537, 6.474068
1196.019, 6.702374
1196.501, 6.546429
1196.983, 6.335297
1197.466, 6.128609
1197.948, 5.973488
1198.430, 5.907757
1198.912, 5.966797
1199.394, 6.285156
1199.876, 6.938683
1200.358, 7.421349
1200.840, 7.656849
1201.323, 7.655632
1201.805, 7.319645
1202.287, 6.878937
1202.769, 6.860779
1203.251, 7.098919
1203.733, 7.263199
1204.215, 7.302135
1204.697, 7.170513
1205.179, 6.683720
1205.661, 6.334862
1206.144, 6.423450
1206.626, 6.700119
1207.108, 6.416241
1207.590, 5.917358
1208.072, 6.040905
1208.554, 7.323792
1209.036, 8.131416
1209.518, 8.098042
1210.001, 7.833790
1210.483, 7.547298
1210.965, 7.322063
1211.447, 7.486355
1211.929, 7.854912
1212.411, 7.992691
1212.893, 7.591522
1213.375, 7.491375
1213.858, 7.929108
1214.340, 8.297295
1214.822, 8.163677
1215.304, 7.794697
1215.786, 7.918915
1216.268, 8.292015
1216.750, 8.378548
1217.232, 7.870651
1217.714, 7.467430
1218.197, 7.164860
1218.679, 6.945606
1219.161, 6.866936
1219.643, 6.909801
1220.125, 6.899525
1220.607, 6.901493
1221.089, 7.111767
1221.571, 7.901596
1222.053, 8.280384
1222.536, 8.134731
1223.018, 7.823387
1223.500, 7.498199
1223.982, 7.192154
1224.464, 6.997143
1224.946, 6.964489
1225.428, 7.120857
1225.910, 7.637531
1226.393, 7.876961
1226.875, 7.806477
1227.357, 7.787079
1227.839, 8.198483
1228.321, 8.665497
1228.803, 8.405811
1229.285, 8.772724
1229.767, 9.054951
1230.250, 8.934288
1230.732, 9.587021
1231.214, 9.558022
1231.696, 9.443157
1232.178, 9.621689
1232.660, 10.03251
1233.142, 10.72131
1233.624, 11.57982
1234.106, 12.32381
1234.589, 12.84050
1235.071, 13.40555
1235.553, 14.05331
1236.035, 14.67679
1236.517, 15.08884
1236.999, 15.47403
1237.481, 16.12551
1237.963, 16.93629
1238.445, 17.65821
1238.928, 18.38251
1239.410, 18.55162
1239.892, 18.08496
1240.374, 17.59851
1240.856, 17.59184
1241.338, 17.75160
1241.820, 18.06293
1242.302, 18.25287
1242.785, 17.70962
1243.267, 16.21528
1243.749, 15.08485
1244.231, 14.38083
1244.713, 13.84159
1245.195, 13.43696
1245.677, 12.93948
1246.159, 12.18366
1246.641, 11.22597
1247.124, 10.08077
1247.606, 8.695419
1248.088, 7.838314
1248.570, 7.544422
1249.052, 7.285397
1249.534, 6.675594
1250.016, 6.023407
1250.498, 5.403835
1250.980, 4.920567
1251.463, 4.776733
1251.945, 4.976433
1252.427, 5.033051
1252.909, 4.921825
1253.391, 4.607628
1253.873, 3.757626
1254.355, 3.082447
1254.837, 3.020924
1255.320, 3.169632
1255.802, 3.067692
1256.284, 2.777016
1256.766, 2.597534
1257.248, 2.502789
1257.730, 2.315212
1258.212, 1.732372
1258.694, 1.355549
1259.177, 1.447006
1259.659, 1.646534
1260.141, 1.607838
1260.623, 1.368301
1261.105, 0.9117810
1261.587, 0.3358230
1262.069, 7.0316002E-02
1262.551, 0.6388020
1263.033, 1.031574
1263.516, 1.112839
1263.998, 1.016148
1264.480, 0.7621080
1264.962, 0.4737130
1265.444, 0.4384570
1265.926, 0.6061900
1266.408, 0.7700580
1266.890, 0.8819890
1267.372, 0.9877050
1267.855, 1.105995
1268.337, 1.160137
1268.819, 1.084270
1269.301, 0.9038890
1269.783, 0.5247120
1270.265, 8.3630003E-02
1270.747, 9.8379999E-03
1271.229, 0.4378360
1271.712, 0.6504140
1272.194, 0.5609860
1272.676, 0.4944730
1273.158, 0.8024860
1273.640, 1.157513
1274.122, 1.228374
1274.604, 1.131596
1275.086, 1.102436
1275.568, 1.152699
1276.051, 1.265450
1276.533, 1.441566
1277.015, 1.482189
1277.497, 1.085640
1277.979, 0.7055820
1278.461, 0.6657870
1278.943, 0.7744220
1279.425, 0.7825930
1279.907, 0.6946030
1280.390, 0.6906390
1280.872, 0.7749180
1281.354, 0.9400290
1281.836, 1.404144
1282.318, 1.708420
1282.800, 1.516235
1283.282, 1.203056
1283.764, 1.155964
1284.247, 1.268936
1284.729, 1.490009
1285.211, 1.785282
1285.693, 1.844460
1286.175, 1.197285
1286.657, 0.8243180
1287.139, 0.9324570
1287.621, 1.015469
1288.104, 0.5466610
1288.586, 0.1262700
1289.068, 9.8484002E-02
1289.550, 0.3736500
1290.032, 0.7385710
1290.514, 0.7764360
1290.996, 0.8563310
1291.478, 1.013916
1291.960, 1.075199
1292.443, 0.8212240
1292.925, 0.5212670
1293.407, 0.5636980
1293.889, 0.4490470
1294.371, 0.4423450
1294.853, 0.5629770
1295.335, 0.5493620
1295.817, 0.7624360
1296.299, 0.8583110
1296.782, 0.6425170
1297.264, 0.3989260
1297.746, 0.2630690
1298.228, 0.2132760
1298.710, 0.2249760
1299.192, 0.2965890
1299.674, 0.4330900
1300.156, 0.6070630
1300.639, 0.6213800
1301.121, 0.2915730
1301.603, 1.8616000E-02
1302.085, 2.3087000E-02
1302.567, 8.3374001E-02
1303.049, 6.7557998E-02
1303.531, 0.0000000E+00
##END=



