##NAMES=Beryl
##RRUFFID=R050121
##IDEAL CHEMISTRY=Be_3_Al_2_Si_6_O_18_
##LOCALITY=Cruziero mine, San Jose, Minas Gerais, Brazil
##OWNER=RRUFF
##SOURCE=Carlos and Paulo Vasconcelos
##DESCRIPTION=Light blue fragment, variety aquamarine
##STATUS=The identification of this mineral has been confirmed by X-ray diffraction and chemical analysis
##URL=rruff.info/R050121
##MEASURED CHEMISTRY=(Be_0.96_Li_0.04_)_3_Al_2.00_Si_6.00_O_18_Î‡Na_0.09_Mg_0.03_
103.124, 0.000
104.516, 89.619
105.908, 3.612
107.300, 119.271
108.691, 1.711
110.082, 111.216
111.473, 102.069
112.864, 105.544
114.254, 230.740
115.644, 408.000
117.034, 446.812
118.424, 515.841
119.813, 282.611
121.203, 579.072
122.592, 554.968
123.981, 629.153
125.369, 782.484
126.758, 964.819
128.146, 1006.042
129.534, 1224.055
130.922, 1851.771
132.309, 2086.134
133.696, 2917.126
135.083, 3486.726
136.470, 4671.900
137.857, 5309.600
139.243, 5853.771
140.630, 5893.365
142.016, 5408.341
143.401, 4457.909
144.787, 3628.808
146.172, 2738.964
147.557, 2162.349
148.942, 1621.738
150.327, 1241.719
151.711, 896.676
153.096, 791.796
154.480, 618.070
155.863, 452.499
157.247, 351.080
158.630, 365.814
160.013, 375.698
161.396, 216.834
162.779, 283.569
164.161, 259.635
165.544, 88.966
166.926, 210.469
168.308, 150.218
169.689, 160.108
171.070, 113.037
172.452, 271.999
173.833, 230.980
175.213, 201.982
176.594, 435.004
177.974, 108.048
179.354, 341.114
180.734, 271.204
182.114, 211.871
183.493, 209.033
184.872, 362.061
186.251, 386.085
187.630, 281.038
189.008, 303.947
190.387, 206.832
191.765, 479.705
193.143, 426.574
194.520, 433.449
195.898, 237.333
197.275, 288.229
198.652, 361.145
200.029, 383.077
201.405, 180.033
202.782, 296.013
204.158, 167.017
205.534, 333.141
206.909, 368.309
208.285, 215.592
209.660, 156.026
211.035, 210.622
212.410, 140.260
213.784, 126.946
215.159, 85.725
216.533, 53.915
217.907, 188.357
219.281, 11.960
220.654, 55.362
222.027, 35.092
223.400, 225.954
224.773, 158.640
226.146, 145.752
227.518, 96.344
228.891, 76.472
230.263, 72.326
231.634, 169.965
233.006, 101.429
234.377, 117.900
235.748, 132.318
237.119, 81.099
238.490, 23.518
239.860, 309.273
241.231, 188.692
242.601, 220.112
243.970, 75.535
245.340, 229.967
246.709, 223.409
248.079, 192.865
249.448, 292.332
250.816, 247.848
252.185, 206.762
253.553, 312.070
254.921, 75.679
256.289, 148.287
257.657, 108.945
259.024, 95.646
260.391, 87.668
261.758, 96.002
263.125, 45.346
264.492, 71.275
265.858, 88.863
267.224, 143.428
268.590, 178.463
269.956, 201.873
271.321, 237.762
272.687, 206.564
274.052, 279.594
275.416, 183.834
276.781, 364.244
278.146, 327.805
279.510, 275.498
280.874, 436.307
282.237, 272.223
283.601, 440.232
284.964, 267.332
286.327, 225.508
287.690, 613.750
289.053, 415.059
290.416, 571.424
291.778, 690.844
293.140, 426.312
294.502, 582.828
295.863, 327.385
297.225, 439.979
298.586, 345.873
299.947, 308.531
301.308, 296.221
302.668, 120.936
304.029, 157.672
305.389, 401.369
306.749, 308.148
308.108, 239.953
309.468, 528.266
310.827, 472.090
312.186, 668.084
313.545, 744.932
314.903, 912.582
316.262, 1391.262
317.620, 1449.766
318.978, 1874.719
320.336, 2049.412
321.693, 1987.488
323.051, 1860.061
324.408, 1491.805
325.765, 841.654
327.121, 805.996
328.478, 342.270
329.834, 181.326
331.190, 301.436
332.546, 147.475
333.902, 115.111
335.257, 60.248
336.612, 192.887
337.967, 111.072
339.322, 54.111
340.677, 90.617
342.031, 55.477
343.385, 20.801
344.739, 40.840
346.093, 31.191
347.446, 68.164
348.799, 31.586
350.153, 95.193
351.505, 51.854
352.858, 14.557
354.210, 35.982
355.563, 36.025
356.915, 29.400
358.267, 25.375
359.618, 69.123
360.969, 29.611
362.321, 142.090
363.672, 57.439
365.022, 130.002
366.373, 219.432
367.723, 8.852
369.073, 199.260
370.423, 135.654
371.773, 222.041
373.122, 12.414
374.471, 107.768
375.821, 448.111
377.169, 360.631
378.518, 579.943
379.866, 495.240
381.215, 668.523
382.563, 840.180
383.910, 949.834
385.258, 1120.672
386.605, 1529.393
387.952, 1999.539
389.299, 2281.391
390.646, 3135.602
391.992, 3853.246
393.339, 4566.145
394.685, 5284.816
396.031, 5385.445
397.376, 5310.094
398.722, 4289.605
400.067, 3740.660
401.412, 2760.355
402.757, 2100.859
404.101, 1922.609
405.446, 1502.701
406.790, 1075.936
408.134, 1011.635
409.478, 825.561
410.821, 1023.227
412.165, 721.873
413.508, 636.832
414.851, 1032.441
416.193, 956.035
417.536, 992.607
418.878, 1088.166
420.220, 1026.326
421.562, 1019.957
422.904, 996.096
424.245, 885.627
425.586, 867.064
426.927, 770.520
428.268, 787.984
429.609, 515.428
430.949, 291.863
432.289, 497.293
433.629, 771.021
434.969, 623.512
436.309, 678.711
437.648, 634.420
438.987, 646.541
440.326, 895.281
441.665, 764.791
443.003, 894.904
444.342, 1053.834
445.680, 977.180
447.018, 990.465
448.355, 996.900
449.693, 618.186
451.030, 681.715
452.367, 539.285
453.704, 662.820
455.041, 201.350
456.377, 403.586
457.713, 371.699
459.049, 123.791
460.385, 197.861
461.721, 236.906
463.056, 350.930
464.391, 368.232
465.726, 57.092
467.061, 347.801
468.395, 198.670
469.730, 1.387
471.064, 258.404
472.398, 106.828
473.731, 217.826
475.065, 100.543
476.398, 20.973
477.731, 15.529
479.064, 196.984
480.397, 35.412
481.729, 172.801
483.062, 1.836
484.394, 12.467
485.725, 10.721
487.057, 117.916
488.389, 134.086
489.720, 187.225
491.051, 173.709
492.382, 59.473
493.712, 101.566
495.043, 102.430
496.373, 60.555
497.703, 128.518
499.032, 155.457
500.362, 99.426
501.691, 130.154
503.020, 314.102
504.349, 5.072
505.678, 304.545
507.007, 318.449
508.335, 184.234
509.663, 284.090
510.991, 204.918
512.319, 397.721
513.646, 343.322
514.973, 378.666
516.300, 368.943
517.627, 596.543
518.954, 682.314
520.280, 599.971
521.607, 823.602
522.933, 775.217
524.259, 905.807
525.584, 834.369
526.910, 852.908
528.235, 1014.127
529.560, 841.611
530.885, 962.070
532.209, 485.500
533.534, 306.629
534.858, 563.012
536.182, 183.361
537.506, 421.688
538.829, 247.986
540.152, 234.291
541.476, 131.566
542.799, 112.287
544.121, 66.775
545.444, 84.287
546.766, 36.479
548.088, 51.611
549.410, 31.748
550.732, 78.830
552.053, 43.877
553.375, 61.889
554.696, 116.125
556.017, 53.254
557.337, 79.535
558.658, 185.299
559.978, 50.027
561.298, 71.135
562.618, 271.793
563.938, 27.426
565.257, 127.020
566.576, 261.576
567.895, 171.713
569.214, 375.672
570.533, 320.115
571.851, 176.441
573.170, 289.738
574.488, 580.311
575.805, 418.553
577.123, 500.135
578.440, 267.270
579.758, 253.488
581.075, 670.354
582.391, 250.463
583.708, 632.570
585.024, 352.627
586.341, 272.002
587.657, 393.000
588.972, 361.145
590.288, 386.154
591.603, 196.066
592.918, 251.545
594.233, 80.693
595.548, 195.674
596.863, 209.453
598.177, 70.326
599.491, 235.744
600.805, 87.504
602.119, 128.307
603.432, 47.912
604.746, 332.162
606.059, 234.697
607.372, 266.205
608.685, 203.674
609.997, 188.779
611.309, 192.760
612.621, 190.129
613.933, 254.467
615.245, 317.771
616.557, 365.045
617.868, 406.736
619.179, 522.947
620.490, 574.105
621.801, 330.254
623.111, 870.371
624.421, 564.881
625.731, 887.936
627.041, 252.949
628.351, 879.145
629.660, 528.100
630.970, 410.084
632.279, 1138.982
633.588, 625.301
634.896, 743.746
636.205, 604.812
637.513, 568.215
638.821, 549.162
640.129, 506.631
641.437, 404.729
642.744, 500.102
644.051, 297.787
645.358, 367.438
646.665, 595.770
647.972, 523.932
649.278, 273.799
650.584, 332.137
651.890, 73.506
653.196, 542.447
654.502, 281.373
655.807, 409.590
657.113, 290.322
658.418, 353.734
659.722, 470.680
661.027, 204.686
662.331, 397.193
663.636, 381.844
664.940, 523.957
666.244, 341.730
667.547, 842.301
668.851, 677.051
670.154, 1032.570
671.457, 1045.342
672.760, 1174.133
674.062, 1969.299
675.365, 2377.219
676.667, 3046.463
677.969, 4421.488
679.271, 6022.016
680.572, 8409.801
681.874, 10685.188
683.175, 13467.840
684.476, 14898.234
685.777, 13850.266
687.077, 11972.730
688.378, 9073.539
689.678, 7162.211
690.978, 5350.695
692.278, 3879.410
693.577, 2451.070
694.877, 2855.727
696.176, 1901.258
697.475, 1786.852
698.774, 1386.988
700.072, 1182.969
701.371, 1236.137
702.669, 988.285
703.967, 523.621
705.265, 880.180
706.562, 1072.496
707.860, 759.160
709.157, 584.631
710.454, 970.297
711.751, 590.785
713.047, 639.189
714.344, 446.354
715.640, 665.256
716.936, 217.555
718.232, 416.594
719.527, 475.674
720.823, 447.350
722.118, 456.209
723.413, 273.820
724.708, 361.527
726.002, 285.449
727.297, 393.342
728.591, 437.074
729.885, 233.730
731.179, 506.654
732.472, 218.027
733.766, 78.818
735.059, 52.785
736.352, 130.438
737.645, 343.762
738.937, 62.332
740.230, 326.910
741.522, 73.289
742.814, 357.178
744.106, 266.320
745.397, 292.293
746.689, 370.678
747.980, 34.207
749.271, 134.447
750.562, 34.316
751.853, 360.246
753.143, 40.424
754.433, 139.756
755.723, 289.750
757.013, 271.096
758.303, 473.580
759.592, 145.604
760.881, 349.641
762.170, 308.480
763.459, 529.420
764.748, 356.072
766.036, 251.240
767.325, 817.785
768.613, 326.293
769.901, 544.039
771.188, 633.863
772.476, 139.656
773.763, 917.424
775.050, 77.162
776.337, 376.865
777.624, 355.604
778.910, 225.256
780.196, 399.910
781.482, 374.537
782.768, 144.256
784.054, 74.840
785.339, 262.547
786.625, 420.113
787.910, 158.348
789.195, 213.111
790.479, 101.562
791.764, 147.992
793.048, 355.098
794.332, 91.502
795.616, 162.850
796.900, 352.184
798.183, 358.502
799.467, 199.453
800.750, 283.734
802.033, 129.990
803.316, 165.254
804.598, 479.848
805.880, 338.887
807.163, 321.086
808.445, 190.650
809.726, 89.504
811.008, 87.254
812.289, 189.785
813.570, 109.168
814.851, 160.703
816.132, 124.084
817.413, 212.209
818.693, 116.557
819.973, 162.383
821.253, 236.355
822.533, 171.787
823.813, 233.383
825.092, 166.758
826.371, 158.105
827.650, 63.834
828.929, 117.135
830.208, 34.746
831.486, 79.842
832.764, 26.031
834.042, 122.369
835.320, 213.592
836.598, 144.793
837.875, 197.963
839.152, 277.119
840.429, 167.246
841.706, 463.350
842.983, 102.434
844.259, 141.492
845.536, 340.525
846.812, 39.539
848.088, 384.521
849.363, 116.525
850.639, 471.340
851.914, 366.184
853.189, 165.967
854.464, 227.768
855.739, 241.482
857.013, 554.195
858.288, 553.430
859.562, 39.572
860.836, 410.250
862.110, 284.916
863.383, 22.416
864.656, 608.217
865.930, 342.898
867.203, 157.586
868.475, 406.244
869.748, 298.887
871.020, 155.090
872.292, 315.689
873.564, 415.266
874.836, 422.842
876.108, 492.492
877.379, 474.115
878.650, 468.363
879.922, 432.848
881.192, 316.484
882.463, 325.098
883.733, 292.426
885.004, 179.035
886.274, 311.246
887.544, 261.844
888.813, 636.309
890.083, 160.078
891.352, 403.559
892.621, 640.992
893.890, 264.422
895.159, 334.484
896.427, 152.863
897.695, 187.047
898.964, 599.309
900.232, 206.617
901.499, 498.730
902.767, 232.258
904.034, 485.328
905.301, 271.539
906.568, 388.602
907.835, 426.688
909.102, 474.199
910.368, 555.199
911.634, 545.332
912.900, 719.762
914.166, 634.852
915.432, 1011.910
916.697, 731.945
917.962, 183.957
919.227, 794.699
920.492, 797.656
921.757, 565.594
923.021, 827.504
924.285, 591.391
925.550, 724.535
926.813, 524.371
928.077, 543.207
929.341, 319.988
930.604, 444.742
931.867, 593.109
933.130, 370.816
934.393, 284.492
935.655, 669.438
936.918, 301.062
938.180, 794.449
939.442, 436.008
940.703, 346.305
941.965, 391.395
943.226, 470.992
944.488, 163.754
945.749, 328.172
947.009, 788.633
948.270, 407.363
949.530, 364.699
950.791, 182.000
952.051, 494.793
953.311, 336.902
954.570, 3.652
955.830, 560.531
957.089, 285.797
958.348, 335.426
959.607, 140.945
960.866, 300.645
962.124, 219.281
963.383, 244.918
964.641, 239.609
965.899, 254.082
967.156, 279.480
968.414, 284.266
969.671, 226.117
970.928, 205.594
972.185, 178.117
973.442, 354.141
974.699, 258.262
975.955, 497.707
977.211, 456.316
978.468, 213.996
979.723, 618.465
980.979, 432.578
982.234, 516.695
983.490, 1110.523
984.745, 271.641
986.000, 1022.527
987.254, 1098.781
988.509, 590.520
989.763, 851.938
991.017, 788.289
992.271, 777.141
993.525, 763.664
994.779, 924.730
996.032, 1284.797
997.285, 1232.113
998.538, 1545.613
999.791, 1058.203
1001.044, 1791.383
1002.296, 1307.125
1003.548, 1879.211
1004.800, 1878.441
1006.052, 1984.828
1007.304, 2429.684
1008.555, 2129.727
1009.807, 2481.535
1011.058, 2592.320
1012.309, 2828.230
1013.559, 2619.617
1014.810, 2526.082
1016.060, 1941.016
1017.310, 2125.051
1018.560, 1962.656
1019.810, 1368.277
1021.060, 1626.742
1022.309, 1413.133
1023.558, 1183.184
1024.807, 1425.816
1026.056, 992.281
1027.305, 1071.438
1028.553, 1040.727
1029.801, 1145.859
1031.049, 1298.555
1032.297, 1237.746
1033.545, 732.168
1034.793, 1179.781
1036.040, 803.328
1037.287, 707.578
1038.534, 1012.609
1039.781, 875.465
1041.027, 1418.676
1042.274, 1076.379
1043.520, 790.949
1044.766, 1386.246
1046.012, 921.059
1047.257, 1055.574
1048.503, 1180.555
1049.748, 1480.602
1050.993, 1294.711
1052.238, 1636.070
1053.483, 1756.418
1054.727, 1722.133
1055.971, 1850.383
1057.216, 2523.773
1058.459, 2381.199
1059.703, 2760.895
1060.947, 2917.273
1062.190, 3715.363
1063.433, 4126.348
1064.676, 4707.660
1065.919, 5061.176
1067.162, 5393.438
1068.404, 5873.770
1069.646, 5138.980
1070.888, 5115.941
1072.130, 4998.102
1073.372, 4146.973
1074.613, 3759.176
1075.855, 3683.270
1077.096, 2857.184
1078.337, 2515.223
1079.578, 2716.180
1080.818, 2304.156
1082.059, 2448.102
1083.299, 2381.000
1084.539, 3016.641
1085.779, 2955.469
1087.018, 2659.051
1088.258, 1797.758
1089.497, 1334.426
1090.736, 1065.090
1091.975, 862.660
1093.213, 997.195
1094.452, 586.910
1095.690, 742.258
1096.928, 564.586
1098.166, 583.871
1099.404, 477.094
1100.642, 615.645
1101.879, 508.562
1103.116, 577.273
1104.353, 333.723
1105.590, 443.707
1106.827, 245.414
1108.063, 371.305
1109.299, 38.961
1110.536, 344.457
1111.771, 190.207
1113.007, 36.562
1114.243, 378.871
1115.478, 217.809
1116.713, 321.707
1117.948, 32.277
1119.183, 136.164
1120.418, 91.266
1121.652, 122.227
1122.886, 257.477
1124.120, 234.473
1125.354, 365.531
1126.588, 13.988
1127.821, 284.512
1129.055, 119.191
1130.288, 327.285
1131.521, 433.695
1132.753, 233.715
1133.986, 163.141
1135.218, 57.910
1136.450, 805.246
1137.682, 7.445
1138.914, 468.809
1140.146, 71.742
1141.377, 212.625
1142.609, 126.438
1143.840, 34.211
1145.071, 239.027
1146.301, 389.629
1147.532, 397.426
1148.762, 271.910
1149.992, 133.359
1151.222, 59.258
1152.452, 223.012
1153.682, 319.770
1154.911, 45.055
1156.140, 235.973
1157.369, 103.879
1158.598, 41.852
1159.827, 84.871
1161.055, 51.320
1162.284, 110.379
1163.512, 58.207
1164.740, 178.410
1165.967, 350.605
1167.195, 259.199
1168.422, 269.348
1169.650, 174.719
1170.877, 172.535
1172.103, 0.508
1173.330, 33.148
1174.557, 8.145
1175.783, 304.605
1177.009, 142.965
1178.235, 288.258
1179.461, 332.840
1180.686, 95.676
1181.912, 172.215
1183.137, 524.016
1184.362, 476.184
1185.587, 230.105
1186.811, 139.875
1188.036, 298.469
1189.260, 333.184
1190.484, 352.355
1191.708, 344.277
1192.932, 657.773
1194.155, 76.004
1195.378, 310.910
1196.602, 187.547
1197.825, 630.930
1199.047, 136.172
1200.270, 458.566
1201.492, 218.918
1202.715, 784.133
1203.937, 98.699
1205.159, 539.422
1206.380, 447.500
1207.602, 680.527
1208.823, 343.512
1210.044, 365.453
1211.265, 669.348
1212.486, 468.188
1213.707, 564.984
1214.927, 357.738
1216.147, 800.449
1217.367, 344.113
1218.587, 547.742
1219.807, 356.324
1221.027, 509.879
1222.246, 552.391
1223.465, 330.867
1224.684, 801.305
1225.903, 831.867
1227.121, 747.535
1228.340, 631.457
1229.558, 799.320
1230.776, 1097.453
1231.994, 956.637
1233.212, 647.805
1234.429, 1305.258
1235.646, 923.852
1236.864, 797.379
1238.081, 1340.859
1239.297, 953.301
1240.514, 1202.035
1241.730, 1240.027
1242.947, 1006.664
1244.163, 921.277
1245.378, 656.641
1246.594, 1137.895
1247.810, 991.520
1249.025, 208.500
1250.240, 902.000
1251.455, 705.348
1252.670, 503.391
1253.885, 654.352
1255.099, 350.969
1256.313, 297.582
1257.527, 43.625
1258.741, 128.977
1259.955, 121.336
1261.168, 332.234
1262.382, 280.727
1263.595, 317.184
1264.808, 438.312
1266.021, 233.082
1267.233, 498.207
1268.446, 363.773
1269.658, 361.203
1270.870, 22.938
1272.082, 261.426
1273.294, 173.434
1274.505, 235.367
1275.716, 179.773
1276.928, 558.938
1278.139, 102.957
1279.349, 401.574
1280.560, 204.785
1281.770, 357.465
1282.981, 149.609
1284.191, 146.250
1285.401, 497.551
1286.610, 396.531
1287.820, 396.262
1289.029, 385.812
1290.239, 359.344
1291.448, 541.469
1292.656, 328.793
1293.865, 502.117
1295.073, 435.215
1296.282, 382.027
1297.490, 472.395
1298.698, 257.238
1299.906, 585.406
1301.113, 371.980
1302.320, 467.520
1303.528, 251.402
1304.735, 546.031
1305.942, 281.125
1307.148, 569.867
1308.355, 403.820
1309.561, 272.258
1310.767, 848.277
1311.973, 294.637
1313.179, 250.180
1314.384, 194.867
1315.590, 769.426
1316.795, 287.207
1318.000, 424.105
1319.205, 235.902
1320.410, 404.652
1321.614, 428.926
1322.819, 224.281
1324.023, 531.156
1325.227, 231.430
1326.431, 716.254
1327.634, 397.930
1328.838, 81.832
1330.041, 297.945
1331.244, 338.344
1332.447, 554.398
1333.650, 94.449
1334.852, 206.285
1336.055, 164.574
1337.257, 68.367
1338.459, 109.090
1339.661, 200.883
1340.862, 282.188
1342.064, 96.727
1343.265, 0.000
##END=



