##NAMES=Beryl
##RRUFFID=R050065
##IDEAL CHEMISTRY=Be_3_Al_2_Si_6_O_18_
##LOCALITY=Xuebaoding, Sichuan Province, China
##OWNER=RRUFF
##SOURCE=Rock Currier
##DESCRIPTION=Light blue colored tabular single crystal
##STATUS=The identification of this mineral has been confirmed by X-ray diffraction and chemical analysis
##URL=rruff.info/R050065
##MEASURED CHEMISTRY=(Be_2.78_Li_0.22_)_Σ=3_Al_2.00_Si_6.00_O_18_·Na_0.22_
114.9964, 0.0000000E+00
115.4785, 0.6362340
115.9606, 0.8608670
116.4427, 0.5501330
116.9248, 0.4827270
117.4069, 0.9986150
117.8891, 1.829338
118.3712, 2.448570
118.8533, 2.709145
119.3354, 2.757137
119.8175, 2.709885
120.2996, 2.576077
120.7818, 2.487743
121.2639, 2.475731
121.7460, 2.530811
122.2281, 2.869774
122.7102, 4.192917
123.1923, 5.362247
123.6745, 5.662083
124.1566, 5.008968
124.6387, 3.932796
125.1208, 3.175423
125.6029, 2.841713
126.0850, 2.643806
126.5672, 2.583832
127.0493, 2.601704
127.5314, 2.658581
128.0135, 2.737213
128.4956, 2.835903
128.9777, 2.949738
129.4599, 3.264442
129.9420, 3.376812
130.4241, 3.083065
130.9062, 2.594810
131.3883, 2.206673
131.8705, 2.091221
132.3526, 2.194572
132.8347, 2.586292
133.3168, 3.417610
133.7989, 3.926270
134.2810, 4.051846
134.7632, 3.859161
135.2453, 3.637520
135.7274, 3.495869
136.2095, 3.500088
136.6916, 3.775185
137.1737, 4.725525
137.6559, 5.716450
138.1380, 6.006416
138.6201, 5.465649
139.1022, 4.834530
139.5843, 4.615841
140.0664, 4.617954
140.5486, 4.584869
141.0307, 4.371620
141.5128, 4.053997
141.9949, 3.875370
142.4770, 3.944473
142.9591, 3.993172
143.4413, 3.924202
143.9234, 3.756756
144.4055, 3.524059
144.8876, 3.241444
145.3697, 2.909679
145.8518, 2.571743
146.3340, 2.312237
146.8161, 1.971752
147.2982, 1.365353
147.7803, 0.5959320
148.2624, 5.2910000E-02
148.7445, 0.2589800
149.2267, 0.1574940
149.7088, 0.2360840
150.1909, 0.3821330
150.6730, 0.9740980
151.1551, 1.113277
151.6372, 0.7475510
152.1194, 0.1391680
152.6015, 0.4126590
153.0836, 0.9500430
153.5657, 1.300724
154.0478, 1.368736
154.5299, 1.262192
155.0121, 1.067894
155.4942, 0.7997320
155.9763, 0.5350570
156.4584, 0.4139330
156.9405, 0.4450190
157.4227, 0.4626620
157.9048, 0.3629570
158.3869, 0.2295040
158.8690, 0.2921410
159.3511, 0.6561780
159.8332, 1.083160
160.3154, 1.281906
160.7975, 1.219193
161.2796, 1.193153
161.7617, 1.376141
162.2438, 1.637611
162.7259, 1.883572
163.2081, 2.112461
163.6902, 2.315025
164.1723, 2.502460
164.6544, 2.539230
165.1365, 2.438175
165.6186, 2.231617
166.1008, 1.892071
166.5829, 1.701855
167.0650, 1.798069
167.5471, 2.005054
168.0292, 2.289486
168.5113, 2.635597
168.9935, 2.907089
169.4756, 2.811371
169.9577, 1.947762
170.4398, 1.498291
170.9219, 1.864578
171.4040, 2.452408
171.8862, 2.750248
172.3683, 2.576855
172.8504, 2.131516
173.3325, 1.824142
173.8146, 1.717804
174.2967, 1.696465
174.7789, 1.827957
175.2610, 2.020939
175.7431, 2.184849
176.2252, 2.281372
176.7073, 2.305115
177.1894, 2.229774
177.6716, 1.871979
178.1537, 1.646202
178.6358, 1.712719
179.1179, 1.961124
179.6000, 2.191959
180.0821, 2.321514
180.5643, 2.347385
181.0464, 2.263180
181.5285, 1.971035
182.0106, 1.726383
182.4927, 1.678158
182.9749, 1.791935
183.4570, 1.916466
183.9391, 1.993553
184.4212, 2.024372
184.9033, 2.020906
185.3854, 1.953955
185.8676, 1.900970
186.3497, 1.977474
186.8318, 2.190342
187.3139, 2.286081
187.7960, 2.002481
188.2781, 1.604868
188.7603, 1.413385
189.2424, 1.554916
189.7245, 1.766838
190.2066, 1.671337
190.6887, 1.168375
191.1708, 0.7156300
191.6530, 0.4531670
192.1351, 0.3218400
192.6172, 0.2996810
193.0993, 0.3886850
193.5814, 0.5483550
194.0635, 0.7003750
194.5457, 0.8370950
195.0278, 0.9817470
195.5099, 1.194485
195.9920, 1.393547
196.4741, 1.488014
196.9562, 1.434212
197.4384, 1.280409
197.9205, 1.163954
198.4026, 1.118887
198.8847, 1.069096
199.3668, 1.018167
199.8489, 0.9537450
200.3311, 0.8653410
200.8132, 0.7474350
201.2953, 0.5982250
201.7774, 0.4128780
202.2595, 9.4681002E-02
202.7416, 0.1554570
203.2238, 0.3195020
203.7059, 0.4022540
204.1880, 0.4126890
204.6701, 0.3541790
205.1522, 0.2328410
205.6344, 7.1409002E-02
206.1165, 0.2989250
206.5986, 0.5055920
207.0807, 0.3326450
207.5628, 4.3900002E-02
208.0449, 0.2798330
208.5271, 0.1870400
209.0092, 0.1422790
209.4913, 0.2885320
209.9734, 0.1619820
210.4555, 3.6450000E-03
210.9376, 9.0204000E-02
211.4198, 0.1479150
211.9019, 0.2679650
212.3840, 0.5442430
212.8661, 0.8668880
213.3482, 0.9414880
213.8303, 0.6695650
214.3125, 0.3303990
214.7946, 5.7045002E-02
215.2767, 0.1582110
215.7588, 0.3534810
216.2409, 0.5487370
216.7230, 0.7254120
217.2052, 0.8688490
217.6873, 0.9883770
218.1694, 1.059029
218.6515, 1.003109
219.1336, 0.8256820
219.6157, 0.7575510
220.0979, 0.9876610
220.5800, 1.310835
221.0621, 1.489105
221.5442, 1.471336
222.0263, 1.415695
222.5084, 1.458559
222.9906, 1.601051
223.4727, 1.817682
223.9548, 2.193209
224.4369, 2.586658
224.9190, 2.933886
225.4011, 3.229780
225.8833, 3.382292
226.3654, 3.182074
226.8475, 2.504824
227.3296, 2.083187
227.8117, 2.236603
228.2938, 2.590651
228.7760, 3.024153
229.2581, 3.491671
229.7402, 3.841215
230.2223, 3.757114
230.7044, 2.959967
231.1866, 2.636721
231.6687, 3.368261
232.1508, 4.252951
232.6329, 4.749552
233.1150, 4.756821
233.5971, 4.520828
234.0793, 4.375330
234.5614, 4.366535
235.0435, 4.336790
235.5256, 4.291729
236.0077, 4.220856
236.4898, 4.047226
236.9720, 3.794979
237.4541, 3.628138
237.9362, 3.812908
238.4183, 4.611794
238.9004, 5.114590
239.3825, 5.139441
239.8647, 5.059046
240.3468, 5.105347
240.8289, 5.312086
241.3110, 5.571096
241.7931, 5.760088
242.2752, 5.892836
242.7574, 5.880386
243.2395, 5.604465
243.7216, 5.294453
244.2037, 5.056740
244.6858, 4.923931
245.1679, 4.920961
245.6501, 5.099373
246.1322, 5.543171
246.6143, 5.811253
247.0964, 5.821281
247.5785, 5.742115
248.0606, 5.646193
248.5428, 5.554941
249.0249, 5.500668
249.5070, 5.517338
249.9891, 5.617325
250.4712, 5.748465
250.9533, 6.046816
251.4355, 6.276432
251.9176, 6.243187
252.3997, 5.954870
252.8818, 5.592663
253.3639, 5.299570
253.8460, 5.077616
254.3282, 4.845486
254.8103, 4.635378
255.2924, 4.389269
255.7745, 4.040022
256.2566, 3.598433
256.7387, 3.170273
257.2209, 2.822002
257.7030, 2.559612
258.1851, 2.342373
258.6672, 2.124702
259.1493, 1.987749
259.6314, 2.075394
260.1136, 2.345253
260.5957, 2.480391
261.0778, 2.255953
261.5599, 1.771923
262.0420, 1.371149
262.5241, 0.9936310
263.0063, 0.7865730
263.4884, 0.9840770
263.9705, 1.538990
264.4526, 1.929203
264.9347, 1.790197
265.4168, 1.388023
265.8990, 1.310226
266.3811, 1.764992
266.8632, 2.189735
267.3453, 2.038666
267.8275, 1.386837
268.3096, 0.9000550
268.7917, 0.8485240
269.2738, 1.076515
269.7559, 1.361288
270.2380, 1.710770
270.7202, 1.991758
271.2023, 2.153938
271.6844, 2.217014
272.1665, 2.150009
272.6486, 1.834719
273.1307, 1.486328
273.6129, 1.363073
274.0950, 1.459194
274.5771, 1.487581
275.0592, 1.119707
275.5413, 0.4598200
276.0234, 0.1463640
276.5056, 0.4272420
276.9877, 0.8869190
277.4698, 1.258341
277.9519, 1.535702
278.4340, 1.679262
278.9161, 1.545961
279.3983, 1.224333
279.8804, 1.136658
280.3625, 1.428200
280.8446, 1.779543
281.3267, 1.981716
281.8088, 2.085915
282.2910, 2.213715
282.7731, 2.466938
283.2552, 2.790985
283.7373, 2.992506
284.2194, 3.006704
284.7015, 3.016380
285.1837, 3.123596
285.6658, 3.287037
286.1479, 3.434620
286.6300, 3.538990
287.1121, 3.644165
287.5942, 3.889059
288.0764, 4.310850
288.5585, 4.718565
289.0406, 5.077185
289.5227, 5.400803
290.0048, 5.666508
290.4869, 5.860519
290.9691, 6.043802
291.4512, 6.345470
291.9333, 6.818398
292.4154, 7.196375
292.8975, 7.304058
293.3796, 7.379229
293.8618, 7.657579
294.3439, 8.198185
294.8260, 8.742525
295.3081, 8.949739
295.7902, 8.766590
296.2723, 8.467863
296.7545, 7.890663
297.2366, 7.365971
297.7187, 7.177614
298.2008, 7.302954
298.6829, 7.409739
299.1650, 7.094048
299.6472, 6.283920
300.1293, 5.729761
300.6114, 5.762966
301.0935, 5.815163
301.5756, 5.589127
302.0577, 5.146544
302.5399, 4.746544
303.0220, 4.627800
303.5041, 4.769514
303.9862, 4.826359
304.4683, 4.649042
304.9504, 4.566296
305.4326, 4.763805
305.9147, 5.130438
306.3968, 5.464384
306.8789, 5.650801
307.3610, 5.706850
307.8431, 5.676146
308.3253, 5.393993
308.8074, 5.299149
309.2895, 5.656923
309.7716, 6.191332
310.2537, 6.539871
310.7358, 6.524498
311.2180, 6.344822
311.7001, 6.479321
312.1822, 7.146912
312.6643, 7.643400
313.1464, 7.676720
313.6285, 7.599751
314.1107, 7.709438
314.5928, 8.083469
315.0749, 8.559439
315.5570, 8.868610
316.0392, 8.911789
316.5213, 9.154350
317.0034, 9.770399
317.4855, 10.50370
317.9676, 11.21311
318.4497, 11.89264
318.9319, 12.63300
319.4140, 13.58415
319.8961, 14.78551
320.3782, 15.79467
320.8603, 16.39067
321.3424, 16.99032
321.8246, 17.74377
322.3067, 18.63075
322.7888, 19.59054
323.2709, 20.61416
323.7530, 21.67631
324.2351, 22.57301
324.7173, 23.48610
325.1994, 23.92427
325.6815, 23.73729
326.1636, 23.04817
326.6457, 21.99842
327.1278, 20.63135
327.6100, 19.02126
328.0921, 17.30490
328.5742, 15.38495
329.0563, 13.56416
329.5384, 11.78430
330.0205, 10.18540
330.5027, 8.960096
330.9848, 8.154331
331.4669, 7.519363
331.9490, 6.703068
332.4311, 5.656513
332.9132, 4.641306
333.3954, 3.587366
333.8775, 2.655415
334.3596, 1.952898
334.8417, 1.483187
335.3238, 1.188917
335.8059, 1.110281
336.2881, 1.252054
336.7702, 1.174038
337.2523, 0.5984750
337.7344, 0.1009810
338.2165, 7.6850001E-03
338.6986, 0.1620660
339.1808, 0.3371140
339.6629, 0.3477780
340.1450, 0.2372170
340.6271, 0.1770170
341.1092, 0.2202780
341.5913, 0.2087750
342.0735, 2.4692999E-02
342.5556, 0.3046040
343.0377, 0.3676850
343.5198, 5.6423001E-02
344.0019, 0.3268240
344.4840, 0.1886290
344.9662, 0.6563630
345.4483, 1.211742
345.9304, 0.8311230
346.4125, 0.2418630
346.8946, 5.6793001E-02
347.3767, 1.2962000E-02
347.8589, 0.2055070
348.3410, 0.3342700
348.8231, 0.3988170
349.3052, 0.3409770
349.7873, 2.5087001E-02
350.2694, 0.2706910
350.7516, 0.3466210
351.2337, 0.2356530
351.7158, 8.8281997E-02
352.1979, 4.2431001E-02
352.6800, 0.1433600
353.1621, 0.1499630
353.6443, 8.9990003E-03
354.1264, 0.1062200
354.6085, 6.6220001E-03
355.0906, 0.1945100
355.5727, 0.1828940
356.0548, 0.2489220
356.5370, 0.7615850
357.0191, 0.8376810
357.5012, 0.4323270
357.9833, 9.2550002E-02
358.4654, 0.1156690
358.9475, 0.2803250
359.4297, 0.2935660
359.9118, 8.7954998E-02
360.3939, 6.6712998E-02
360.8760, 8.0182999E-02
361.3581, 0.4695450
361.8402, 0.8155400
362.3224, 1.080610
362.8045, 1.232880
363.2866, 1.211380
363.7687, 1.034142
364.2508, 0.8515150
364.7329, 0.7049980
365.2151, 0.5949730
365.6972, 0.5272480
366.1793, 0.5056650
366.6614, 0.5017720
367.1436, 0.4612500
367.6257, 0.4225620
368.1078, 0.5057160
368.5899, 0.8465330
369.0720, 1.215771
369.5541, 1.392262
370.0363, 1.407969
370.5184, 1.486071
371.0005, 1.770720
371.4826, 2.144325
371.9647, 2.344473
372.4468, 2.340786
372.9290, 2.268417
373.4111, 2.081390
373.8932, 1.877935
374.3753, 1.847200
374.8574, 2.043390
375.3395, 2.384703
375.8217, 2.785730
376.3038, 3.249416
376.7859, 3.746092
377.2680, 4.293295
377.7501, 4.859465
378.2322, 5.441977
378.7144, 6.030382
379.1965, 6.563160
379.6786, 6.981846
380.1607, 7.299553
380.6428, 7.686892
381.1249, 8.168962
381.6071, 8.677681
382.0892, 9.182550
382.5713, 9.700159
383.0534, 10.24242
383.5355, 10.81164
384.0176, 11.45097
384.4998, 12.26630
384.9819, 13.41394
385.4640, 14.49450
385.9461, 15.35939
386.4282, 16.23897
386.9103, 17.40291
387.3925, 18.84394
387.8746, 20.26896
388.3567, 21.31925
388.8388, 21.90508
389.3209, 22.77112
389.8030, 23.87427
390.2852, 25.25355
390.7673, 26.97586
391.2494, 28.98449
391.7315, 31.18606
392.2136, 33.52670
392.6957, 36.00197
393.1779, 38.55890
393.6600, 41.24483
394.1421, 43.95553
394.6242, 46.33987
395.1063, 48.94680
395.5884, 52.33310
396.0706, 56.61223
396.5527, 61.30389
397.0348, 65.88699
397.5169, 70.38905
397.9990, 74.56673
398.4811, 78.78988
398.9633, 82.28956
399.4454, 84.81815
399.9275, 86.34892
400.4096, 86.92249
400.8917, 86.54167
401.3738, 85.27335
401.8560, 83.34097
402.3381, 80.92965
402.8202, 77.37122
403.3023, 71.86485
403.7844, 65.60518
404.2665, 59.62870
404.7487, 54.19281
405.2308, 49.25698
405.7129, 44.90652
406.1950, 41.14047
406.6771, 37.50822
407.1592, 33.88562
407.6414, 30.49764
408.1235, 27.39682
408.6056, 24.60734
409.0877, 22.22020
409.5698, 20.37651
410.0519, 18.97060
410.5341, 17.79540
411.0162, 16.90698
411.4983, 16.05624
411.9804, 14.98627
412.4625, 13.87491
412.9446, 13.06152
413.4268, 12.72569
413.9089, 12.49956
414.3910, 12.06202
414.8731, 11.47974
415.3553, 11.06655
415.8374, 10.92869
416.3195, 10.95522
416.8016, 11.04366
417.2837, 11.20989
417.7658, 11.32946
418.2480, 11.30866
418.7301, 11.25150
419.2122, 11.30501
419.6943, 11.47610
420.1764, 11.58668
420.6585, 11.46923
421.1407, 11.15298
421.6228, 10.96140
422.1049, 11.02489
422.5870, 11.05510
423.0691, 10.95017
423.5512, 10.74279
424.0334, 10.47490
424.5155, 10.15990
424.9976, 9.784189
425.4797, 9.327129
425.9618, 8.692215
426.4439, 8.217592
426.9261, 8.043674
427.4082, 7.878992
427.8903, 7.514866
428.3724, 6.972174
428.8545, 6.439772
429.3366, 6.082933
429.8188, 5.885002
430.3009, 5.601332
430.7830, 5.116508
431.2651, 4.673548
431.7472, 4.304749
432.2293, 4.001085
432.7115, 3.741180
433.1936, 3.518612
433.6757, 3.372663
434.1578, 3.390579
434.6399, 3.624516
435.1220, 3.836137
435.6042, 4.022247
436.0863, 4.168186
436.5684, 4.229803
437.0505, 4.236300
437.5326, 4.281115
438.0147, 4.460549
438.4969, 4.717561
438.9790, 4.831864
439.4611, 4.739409
439.9432, 4.667042
440.4253, 4.759654
440.9074, 4.897259
441.3896, 4.953577
441.8717, 4.897741
442.3538, 4.828522
442.8359, 4.806498
443.3180, 4.838190
443.8001, 4.983133
444.2823, 5.310667
444.7644, 5.648148
445.2465, 5.827420
445.7286, 5.875412
446.2107, 5.872009
446.6928, 5.873742
447.1750, 5.811029
447.6571, 5.563082
448.1392, 5.152150
448.6213, 4.783916
449.1034, 4.582479
449.5855, 4.482847
450.0677, 4.308062
450.5498, 4.068208
451.0319, 3.755365
451.5140, 3.309847
451.9961, 2.816380
452.4782, 2.309356
452.9604, 1.815474
453.4425, 1.534111
453.9246, 1.737222
454.4067, 2.512854
454.8888, 2.817628
455.3709, 2.346327
455.8531, 1.825818
456.3352, 1.468870
456.8173, 1.252754
457.2994, 1.125607
457.7815, 1.065364
458.2636, 1.025928
458.7458, 0.8900250
459.2279, 0.5239750
459.7100, 0.3485070
460.1921, 0.5227120
460.6742, 0.7405470
461.1563, 0.8254960
461.6385, 0.7844780
462.1206, 0.7246020
462.6027, 0.7366100
463.0848, 0.7964410
463.5669, 0.7753240
464.0491, 0.6472880
464.5312, 0.4890780
465.0133, 0.2673630
465.4954, 6.0486998E-02
465.9775, 4.6192002E-02
466.4597, 3.0838000E-02
466.9418, 4.3478999E-02
467.4239, 0.1447030
467.9060, 0.2634690
468.3881, 0.3438350
468.8702, 0.3912570
469.3524, 0.3720710
469.8345, 0.1731360
470.3166, 0.1279190
470.7987, 0.2882400
471.2808, 8.2115002E-02
471.7629, 0.1605650
472.2451, 7.9576001E-02
472.7272, 0.2546470
473.2093, 0.4667560
473.6914, 0.3733830
474.1735, 0.1254380
474.6556, 1.7694000E-02
475.1378, 8.9181997E-02
475.6199, 0.1419030
476.1020, 0.1442400
476.5841, 0.1176000
477.0662, 8.9454003E-02
477.5483, 5.5915002E-02
478.0305, 3.3817001E-02
478.5126, 0.2401480
478.9947, 0.5306840
479.4768, 0.6125350
479.9589, 0.2601610
480.4410, 2.8413000E-02
480.9232, 0.1948070
481.4053, 0.2649630
481.8874, 0.2298580
482.3695, 0.1048790
482.8516, 1.5236000E-02
483.3337, 1.1460000E-02
483.8159, 0.2187190
484.2980, 0.2799430
484.7801, 2.1400999E-02
485.2622, 0.1896050
485.7443, 0.1867840
486.2264, 6.3249998E-02
486.7086, 2.9146999E-02
487.1907, 2.6743000E-02
487.6728, 2.9170999E-02
488.1549, 8.4963001E-02
488.6370, 0.1406500
489.1191, 0.1961250
489.6013, 0.2514570
490.0834, 0.3066350
490.5655, 0.3674310
491.0476, 0.4312540
491.5297, 0.4790070
492.0118, 0.5008150
492.4940, 0.5038520
492.9761, 0.4910920
493.4582, 0.4638420
493.9403, 0.4390580
494.4224, 0.4202380
494.9045, 0.4139380
495.3867, 0.4541660
495.8688, 0.6055480
496.3509, 0.6419970
496.8330, 0.3868870
497.3151, 6.1501000E-02
497.7972, 9.5664002E-02
498.2794, 6.2075999E-02
498.7615, 5.0875001E-02
499.2436, 0.1588140
499.7257, 0.2596880
500.2078, 0.3214310
500.6899, 0.2877130
501.1721, 0.2829630
501.6542, 0.3335570
502.1363, 0.4197370
502.6184, 0.5465970
503.1005, 0.7040240
503.5826, 0.8229090
504.0648, 0.7992010
504.5469, 0.6148990
505.0290, 0.4679010
505.5111, 0.3505580
505.9932, 0.2844590
506.4753, 0.2946890
506.9575, 0.3532710
507.4396, 0.4104910
507.9217, 0.4394050
508.4038, 0.4905900
508.8859, 0.6492590
509.3680, 0.9081280
509.8502, 1.139638
510.3323, 1.345940
510.8144, 1.469372
511.2965, 1.392407
511.7786, 1.157976
512.2607, 1.002816
512.7429, 1.043036
513.2250, 1.140086
513.7071, 1.137637
514.1892, 1.075450
514.6713, 1.149841
515.1534, 1.471839
515.6356, 1.908416
516.1177, 2.198813
516.5998, 2.292608
517.0819, 2.346498
517.5640, 2.251316
518.0461, 2.210105
518.5283, 2.422530
519.0104, 2.825751
519.4925, 3.200053
519.9746, 3.404121
520.4567, 3.461932
520.9388, 3.450697
521.4210, 3.298641
521.9031, 3.213067
522.3852, 3.296458
522.8673, 3.386295
523.3494, 3.322395
523.8315, 3.125687
524.3137, 2.989957
524.7958, 3.091937
525.2779, 3.366270
525.7600, 3.592895
526.2421, 3.765429
526.7242, 3.913664
527.2064, 4.063237
527.6885, 4.185761
528.1706, 4.233368
528.6527, 4.193268
529.1348, 4.144291
529.6169, 4.082006
530.0991, 4.025868
530.5812, 4.023640
531.0633, 4.083763
531.5454, 4.119606
532.0275, 4.045515
532.5096, 3.880298
532.9918, 3.811483
533.4739, 3.986718
533.9560, 4.059156
534.4381, 3.808038
534.9202, 3.500761
535.4023, 3.476416
535.8845, 3.770720
536.3666, 4.114962
536.8487, 4.246878
537.3308, 4.167423
537.8129, 4.012008
538.2951, 3.635164
538.7772, 3.357672
539.2593, 3.370649
539.7415, 3.473407
540.2236, 3.425226
540.7057, 3.154399
541.1878, 2.870110
541.6699, 2.874344
542.1520, 3.114954
542.6342, 3.109620
543.1163, 2.678854
543.5984, 2.302778
544.0805, 2.400697
544.5626, 2.746470
545.0447, 2.941113
545.5269, 2.936852
546.0090, 2.775385
546.4911, 2.336813
546.9732, 1.785962
547.4553, 1.482491
547.9374, 1.504519
548.4196, 1.624273
548.9017, 1.607689
549.3838, 1.445706
549.8659, 1.435237
550.3480, 1.731868
550.8301, 1.986190
551.3123, 2.030712
551.7944, 1.973037
552.2765, 1.984947
552.7586, 2.138031
553.2407, 2.351451
553.7228, 2.499633
554.2050, 2.552849
554.6871, 2.581617
555.1692, 2.597363
555.6513, 2.574265
556.1334, 2.500243
556.6155, 2.396235
557.0977, 2.274830
557.5798, 2.130665
558.0619, 2.070989
558.5440, 2.260319
559.0261, 2.623620
559.5082, 2.894247
559.9904, 3.039725
560.4725, 3.067422
560.9546, 2.916947
561.4367, 2.641490
561.9188, 2.508190
562.4009, 2.628789
562.8831, 2.754904
563.3652, 2.765054
563.8473, 2.737579
564.3294, 2.784248
564.8115, 2.926866
565.2936, 3.124153
565.7758, 3.361023
566.2579, 3.639098
566.7400, 3.673310
567.2221, 3.092190
567.7042, 2.713294
568.1863, 2.809241
568.6685, 3.096338
569.1506, 3.300587
569.6327, 3.356841
570.1148, 3.353500
570.5969, 3.338654
571.0790, 3.326821
571.5612, 3.416799
572.0433, 3.629345
572.5254, 3.888841
573.0075, 4.230250
573.4896, 4.562348
573.9717, 4.737507
574.4539, 4.693251
574.9360, 4.670058
575.4181, 4.873688
575.9002, 5.111588
576.3823, 5.082043
576.8644, 4.783974
577.3466, 4.440238
577.8287, 4.181356
578.3108, 4.025320
578.7929, 3.985605
579.2750, 4.290150
579.7571, 4.409222
580.2393, 4.154674
580.7214, 3.824197
581.2035, 3.672346
581.6856, 3.692212
582.1677, 3.682346
582.6498, 3.475157
583.1320, 3.140380
583.6141, 2.915751
584.0962, 2.833434
584.5783, 2.746245
585.0604, 2.564969
585.5425, 2.403759
586.0247, 2.413362
586.5068, 2.574392
586.9889, 2.623874
587.4710, 2.329115
587.9531, 1.941669
588.4352, 1.760726
588.9174, 1.765393
589.3995, 1.792968
589.8816, 1.773944
590.3637, 1.745376
590.8458, 1.788402
591.3279, 1.991966
591.8101, 1.994699
592.2922, 1.581532
592.7743, 1.182480
593.2564, 1.080087
593.7385, 1.153521
594.2206, 1.122267
594.7028, 0.8572540
595.1849, 0.5307750
595.6670, 0.4896380
596.1491, 0.8039930
596.6312, 0.8613230
597.1133, 0.3901990
597.5955, 3.9845001E-02
598.0776, 5.4221001E-02
598.5597, 0.1705360
599.0418, 0.2919710
599.5239, 0.1834180
600.0060, 3.7767000E-02
600.4882, 2.0000000E-02
600.9703, 4.3259999E-03
601.4524, 0.1394090
601.9345, 0.3981070
602.4166, 0.5955270
602.8987, 0.5444480
603.3809, 0.2674660
603.8630, 0.1036190
604.3451, 0.1474580
604.8272, 0.1653520
605.3093, 8.7626003E-02
605.7914, 1.9471999E-02
606.2736, 7.9604998E-02
606.7557, 9.1339998E-02
607.2378, 0.1274390
607.7199, 0.2747720
608.2020, 0.4877730
608.6841, 0.5028450
609.1663, 0.2082920
609.6484, 4.2783000E-02
610.1305, 0.3704640
610.6126, 0.7091490
611.0947, 0.5341640
611.5768, 0.1378340
612.0590, 0.6189800
612.5411, 0.4410060
613.0232, 4.7462001E-02
613.5053, 8.5000999E-02
613.9874, 2.1110000E-02
614.4695, 0.2012950
614.9517, 0.4004760
615.4338, 0.5945000
615.9159, 0.7540770
616.3980, 0.9008750
616.8801, 0.9248120
617.3622, 0.6507020
617.8444, 0.4537300
618.3265, 0.5800140
618.8086, 0.8612100
619.2907, 1.011127
619.7728, 0.9277480
620.2549, 0.7762930
620.7371, 0.7573400
621.2192, 0.8676220
621.7013, 1.052254
622.1834, 1.389362
622.6655, 1.616708
623.1476, 1.509869
623.6298, 1.214642
624.1119, 0.9575820
624.5940, 0.7605210
625.0761, 0.5937100
625.5582, 0.4263990
626.0403, 0.2930170
626.5225, 0.2670910
627.0046, 0.3353290
627.4867, 0.3802180
627.9688, 0.3195470
628.4509, 0.1969450
628.9330, 0.1616510
629.4152, 0.3197620
629.8973, 0.3701380
630.3794, 0.2426630
630.8615, 7.7079996E-02
631.3436, 9.7909003E-02
631.8257, 0.2439180
632.3079, 0.2756360
632.7900, 0.1173200
633.2721, 7.7605002E-02
633.7542, 2.7263001E-02
634.2363, 0.2257210
634.7184, 0.2528740
635.2006, 9.3588002E-02
635.6827, 0.4831290
636.1648, 0.6252050
636.6469, 0.5432770
637.1291, 0.4826370
637.6112, 0.5124060
638.0933, 0.4815680
638.5754, 0.2199650
639.0576, 6.0658000E-02
639.5397, 7.1493998E-02
640.0218, 0.1925280
640.5039, 0.4756220
640.9860, 0.5661300
641.4681, 0.5052820
641.9503, 0.5001800
642.4324, 0.5716660
642.9145, 0.6465580
643.3966, 0.7241000
643.8787, 0.7884400
644.3608, 0.8322920
644.8430, 0.8539030
645.3251, 0.8475340
645.8072, 0.7729670
646.2893, 0.7038540
646.7714, 0.7180220
647.2535, 0.8004340
647.7357, 0.9410600
648.2178, 1.147190
648.6999, 1.257967
649.1820, 1.041259
649.6641, 0.4649470
650.1462, 0.2273720
650.6284, 0.6471240
651.1105, 0.9901060
651.5926, 1.063397
652.0747, 1.019228
652.5568, 0.9802400
653.0389, 0.9817250
653.5211, 1.045641
654.0032, 1.206447
654.4853, 1.435019
654.9674, 1.674991
655.4495, 1.924315
655.9316, 2.083600
656.4138, 2.098166
656.8959, 2.043356
657.3780, 2.000808
657.8601, 1.965512
658.3422, 1.989571
658.8243, 2.076570
659.3065, 2.242248
659.7886, 2.558888
660.2707, 2.931854
660.7528, 3.200809
661.2349, 3.323650
661.7170, 3.413373
662.1992, 3.596744
662.6813, 3.871045
663.1634, 4.187542
663.6455, 4.547661
664.1276, 4.945387
664.6097, 5.401194
665.0919, 5.883478
665.5740, 6.360453
666.0561, 6.828186
666.5382, 7.308455
667.0203, 7.751480
667.5024, 8.275335
667.9846, 9.017038
668.4667, 9.926680
668.9488, 10.86021
669.4309, 11.77487
669.9130, 12.75360
670.3951, 13.97047
670.8773, 15.45387
671.3594, 16.89989
671.8415, 18.15503
672.3236, 19.59426
672.8057, 21.37232
673.2878, 23.32384
673.7700, 25.30378
674.2521, 27.26935
674.7342, 29.22391
675.2163, 31.04132
675.6984, 32.88400
676.1805, 35.09497
676.6627, 37.67643
677.1448, 40.41271
677.6269, 43.16678
678.1090, 46.17184
678.5911, 49.69949
679.0732, 53.77715
679.5554, 58.55874
680.0375, 64.46851
680.5196, 70.59761
681.0017, 76.23453
681.4838, 82.04994
681.9659, 88.85320
682.4481, 96.81302
682.9302, 105.5629
683.4123, 114.9160
683.8944, 124.7512
684.3765, 135.1385
684.8586, 146.2879
685.3408, 156.5816
685.8229, 166.0703
686.3050, 173.7663
686.7871, 178.4756
687.2692, 180.3486
687.7513, 179.3944
688.2335, 175.1371
688.7156, 168.5652
689.1977, 159.4142
689.6798, 148.5982
690.1619, 137.0912
690.6440, 125.2976
691.1262, 113.6153
691.6083, 102.3079
692.0904, 91.45592
692.5725, 81.75716
693.0546, 73.37357
693.5367, 65.84335
694.0189, 59.15165
694.5010, 53.21881
694.9831, 48.01448
695.4652, 43.52205
695.9473, 39.52774
696.4294, 36.01974
696.9116, 32.92788
697.3937, 30.27399
697.8758, 27.98918
698.3579, 25.96629
698.8400, 24.17314
699.3221, 22.56796
699.8043, 21.13677
700.2864, 19.86093
700.7685, 18.59996
701.2506, 17.34118
701.7327, 16.12418
702.2148, 14.84230
702.6970, 13.71240
703.1791, 12.96712
703.6612, 12.52443
704.1433, 12.01979
704.6254, 11.21802
705.1075, 10.45438
705.5897, 10.11380
706.0718, 9.990911
706.5539, 9.628908
707.0360, 8.952530
707.5181, 8.256926
708.0002, 7.790011
708.4824, 7.491364
708.9645, 7.034762
709.4466, 6.226427
709.9287, 5.630107
710.4108, 5.432438
710.8929, 5.321001
711.3751, 5.139979
711.8572, 4.903540
712.3393, 4.680160
712.8214, 4.494877
713.3035, 4.325277
713.7856, 4.150106
714.2678, 3.977218
714.7499, 3.854233
715.2320, 3.778579
715.7141, 3.582567
716.1962, 3.116575
716.6783, 2.529861
717.1605, 2.290901
717.6426, 2.693399
718.1247, 2.871138
718.6068, 2.609802
719.0889, 2.357895
719.5710, 2.330338
720.0532, 2.446338
720.5353, 2.582979
721.0174, 2.718785
721.4995, 2.735353
721.9816, 2.454535
722.4637, 2.015473
722.9459, 1.666238
723.4280, 1.427006
723.9101, 1.298138
724.3922, 1.287440
724.8743, 1.358803
725.3564, 1.457327
725.8386, 1.624681
726.3207, 1.668602
726.8028, 1.494563
727.2849, 1.309770
727.7670, 1.152943
728.2491, 1.031728
728.7313, 0.9323490
729.2134, 0.8568190
729.6955, 0.8818050
730.1776, 1.167726
730.6597, 1.517739
731.1418, 1.633944
731.6240, 1.544834
732.1061, 1.389759
732.5882, 1.199949
733.0703, 0.9949950
733.5524, 0.8137360
734.0345, 0.6572790
734.5167, 0.5466050
734.9988, 0.4659030
735.4809, 0.4563330
735.9631, 0.6746350
736.4452, 0.8530290
736.9273, 0.6869730
737.4094, 0.2394790
737.8915, 0.1043150
738.3737, 0.1492720
738.8558, 4.8630000E-03
739.3379, 0.4098990
739.8200, 0.9153170
740.3021, 0.9876840
740.7842, 0.5234340
741.2664, 6.1124001E-02
741.7485, 4.8477001E-02
742.2306, 0.3807590
742.7127, 0.5506280
743.1948, 0.4738170
743.6769, 0.3598550
744.1591, 0.1821170
744.6412, 9.5340004E-03
745.1233, 0.1505370
745.6054, 0.2728000
746.0875, 0.3134160
746.5696, 0.2600390
747.0518, 0.1171620
747.5339, 0.2446560
748.0160, 0.6367260
748.4981, 0.6629710
748.9802, 0.3511760
749.4623, 0.1059850
749.9445, 0.1209030
750.4266, 0.2862100
750.9087, 0.4606090
751.3908, 0.6934020
751.8729, 0.6949090
752.3550, 0.2149100
752.8372, 0.1497670
753.3193, 0.1901660
753.8014, 9.0200998E-02
754.2835, 3.4729999E-02
754.7656, 0.1656440
755.2477, 0.2759180
755.7299, 0.3369930
756.2120, 0.3861470
756.6941, 0.4527820
757.1762, 0.5426130
757.6583, 0.6584430
758.1404, 0.7964840
758.6226, 0.9323940
759.1047, 1.049767
759.5868, 1.150006
760.0689, 1.212269
760.5510, 1.203125
761.0331, 1.246455
761.5153, 1.411009
761.9974, 1.591588
762.4795, 1.760734
762.9616, 1.892458
763.4437, 1.868181
763.9258, 1.532339
764.4080, 1.279447
764.8901, 1.364525
765.3722, 1.588421
765.8543, 1.744803
766.3364, 1.816665
766.8185, 1.859432
767.3007, 1.894769
767.7828, 1.922812
768.2649, 1.943643
768.7470, 1.958089
769.2291, 1.941649
769.7112, 1.903317
770.1934, 1.801446
770.6755, 1.564719
771.1576, 1.285376
771.6397, 1.133447
772.1218, 1.128658
772.6039, 1.088743
773.0861, 0.9553380
773.5682, 0.8115540
774.0503, 0.6959830
774.5324, 0.6030670
775.0145, 0.4742020
775.4966, 0.3270860
775.9788, 0.3112090
776.4609, 0.6225200
776.9430, 1.083141
777.4251, 1.228490
777.9072, 1.084428
778.3893, 1.012611
778.8715, 1.091516
779.3536, 1.217388
779.8357, 1.319892
780.3178, 1.381452
780.7999, 1.267458
781.2820, 0.7495620
781.7642, 0.3922440
782.2463, 0.2600250
782.7284, 0.2592990
783.2105, 0.3971200
783.6926, 0.6076450
784.1747, 0.7955220
784.6569, 0.9364100
785.1390, 0.9771600
785.6211, 0.8392300
786.1032, 0.5806910
786.5853, 0.2543330
787.0674, 0.1074460
787.5496, 0.3049290
788.0317, 0.2377370
788.5138, 7.0570998E-02
788.9959, 4.9897000E-02
789.4780, 0.1952080
789.9601, 0.2049770
790.4423, 1.6558999E-02
790.9244, 0.2090360
791.4065, 0.5083480
791.8886, 0.7712760
792.3707, 0.9155220
792.8528, 0.9422960
793.3350, 0.8928050
793.8171, 0.7453430
794.2992, 0.5715580
794.7813, 0.3879510
795.2634, 0.2187070
795.7455, 8.0078997E-02
796.2277, 1.4625000E-02
796.7098, 1.5479000E-02
797.1919, 0.1112550
797.6740, 0.2872730
798.1561, 0.3648440
798.6382, 0.3418470
799.1204, 0.2530750
799.6025, 4.6314001E-02
800.0846, 6.2052000E-02
800.5667, 0.1114130
801.0488, 0.3930370
801.5309, 0.4296820
802.0131, 0.1658540
802.4952, 5.0849002E-02
802.9773, 0.2930400
803.4594, 0.4898120
803.9415, 0.4042390
804.4236, 0.2224680
804.9058, 0.2089080
805.3879, 0.3659980
805.8700, 0.4389660
806.3521, 0.1932910
806.8342, 0.1349080
807.3163, 0.1639610
807.7985, 4.5587000E-02
808.2806, 0.2881590
808.7627, 0.5298240
809.2448, 0.5863440
809.7269, 0.2718340
810.2090, 0.2369040
810.6912, 0.3813000
811.1733, 3.9042000E-02
811.6554, 0.3567280
812.1375, 0.5968250
812.6196, 0.6925100
813.1017, 0.5262010
813.5839, 0.2480800
814.0660, 4.1894998E-02
814.5481, 6.7817003E-02
815.0302, 0.1096500
815.5123, 8.6131997E-02
815.9944, 7.8670001E-03
816.4766, 0.1887240
816.9587, 0.4106170
817.4408, 0.4677720
817.9229, 0.3356960
818.4050, 0.1645330
818.8871, 7.4228004E-02
819.3693, 4.2172998E-02
819.8514, 2.2283001E-02
820.3335, 0.1265910
820.8156, 4.0968999E-02
821.2977, 0.3420490
821.7798, 0.7008100
822.2620, 0.8372370
822.7441, 0.7856340
823.2262, 0.6261840
823.7083, 0.2125520
824.1904, 3.1620000E-02
824.6725, 0.3308080
825.1547, 0.6051490
825.6368, 0.5597110
826.1189, 0.3854790
826.6010, 0.3753810
827.0831, 0.5691140
827.5652, 0.7198610
828.0474, 0.6213190
828.5295, 0.4261340
829.0116, 0.3130100
829.4937, 0.2643000
829.9758, 0.2433370
830.4579, 0.2390730
830.9401, 0.2163400
831.4222, 0.1321600
831.9043, 5.0515998E-02
832.3864, 0.2189660
832.8685, 0.7371660
833.3506, 0.9943620
833.8328, 0.8596240
834.3149, 0.5929370
834.7971, 0.1994800
835.2792, 0.1680150
835.7613, 0.1918420
836.2434, 0.2156630
836.7255, 0.4704130
837.2076, 0.2807520
837.6898, 0.1422250
838.1719, 0.3838600
838.6540, 0.7603650
839.1361, 0.9725100
839.6182, 0.9809320
840.1003, 0.9197350
840.5825, 0.8602850
841.0646, 0.7989580
841.5467, 0.6732130
842.0288, 0.5428040
842.5109, 0.6779200
842.9930, 1.095127
843.4752, 1.381577
843.9573, 1.265939
844.4394, 0.9399290
844.9215, 0.8104050
845.4036, 0.9171140
845.8857, 1.003016
846.3679, 1.073309
846.8500, 1.120484
847.3321, 1.138301
847.8142, 1.128912
848.2963, 1.077695
848.7784, 0.9823690
849.2606, 0.9364770
849.7427, 0.9807600
850.2248, 1.049478
850.7069, 1.181650
851.1890, 1.278955
851.6711, 1.215194
852.1533, 1.022619
852.6354, 0.8147400
853.1175, 0.6352310
853.5996, 0.5393180
854.0817, 0.6081150
854.5638, 0.8043810
855.0460, 1.057746
855.5281, 1.350451
856.0102, 1.608171
856.4923, 1.811931
856.9744, 1.867468
857.4565, 1.609517
857.9387, 1.052028
858.4208, 0.7744560
858.9029, 0.8845690
859.3850, 0.9957850
859.8671, 1.005035
860.3492, 1.027291
860.8314, 1.204574
861.3135, 1.458105
861.7956, 1.566950
862.2777, 1.457434
862.7598, 1.326655
863.2419, 1.199288
863.7241, 1.092937
864.2062, 1.024239
864.6883, 0.9734300
865.1704, 0.9250680
865.6525, 0.8882930
866.1346, 0.8812370
866.6168, 0.9732280
867.0989, 1.069853
867.5810, 0.9730880
868.0631, 0.7341850
868.5452, 0.6088520
869.0273, 0.6752780
869.5095, 0.7686800
869.9916, 0.7843410
870.4737, 0.7589440
870.9558, 0.8057760
871.4379, 0.9577950
871.9200, 0.9800320
872.4022, 0.7938180
872.8843, 0.6234870
873.3664, 0.5709380
873.8485, 0.5914830
874.3306, 0.6293240
874.8127, 0.6826410
875.2949, 0.7067090
875.7770, 0.6607900
876.2591, 0.6341780
876.7412, 0.6541080
877.2233, 0.7011150
877.7054, 0.8010700
878.1876, 0.9045260
878.6697, 0.8776140
879.1518, 0.6170190
879.6339, 0.4289880
880.1160, 0.6416230
880.5981, 1.034211
881.0803, 1.375588
881.5624, 1.608009
882.0445, 1.581041
882.5266, 1.271946
883.0087, 0.9393140
883.4908, 0.8772250
883.9730, 0.9900870
884.4551, 0.8239480
884.9372, 0.3475600
885.4193, 0.1846510
885.9014, 0.5296140
886.3835, 0.9040150
886.8657, 0.9425170
887.3478, 0.7982330
887.8299, 0.9215110
888.3120, 1.547762
888.7941, 1.816529
889.2762, 1.489058
889.7584, 1.085590
890.2405, 0.5814390
890.7226, 0.2045460
891.2047, 0.2980740
891.6868, 0.8067750
892.1689, 1.149206
892.6511, 1.050204
893.1332, 0.8543480
893.6153, 0.6780980
894.0974, 0.6065760
894.5795, 0.7469050
895.0616, 1.007779
895.5438, 1.155722
896.0259, 1.116117
896.5080, 0.9898900
896.9901, 0.8264660
897.4722, 0.6799630
897.9543, 0.6899480
898.4365, 0.8342280
898.9186, 1.012799
899.4007, 1.200193
899.8828, 1.341056
900.3649, 1.387591
900.8470, 1.360237
901.3292, 1.381665
901.8113, 1.470765
902.2934, 1.514476
902.7755, 1.495618
903.2576, 1.478745
903.7397, 1.502713
904.2219, 1.552373
904.7040, 1.615110
905.1861, 1.689303
905.6682, 1.691885
906.1503, 1.545946
906.6324, 1.474294
907.1146, 1.545848
907.5967, 1.707190
908.0788, 2.002969
908.5609, 2.320541
909.0430, 2.355111
909.5251, 1.958235
910.0073, 1.697702
910.4894, 2.142229
910.9715, 2.684874
911.4536, 2.626386
911.9357, 2.207735
912.4178, 1.993779
912.9000, 2.111208
913.3821, 2.289240
913.8642, 2.317015
914.3463, 2.231981
914.8284, 2.103433
915.3105, 1.946511
915.7927, 1.807058
916.2748, 1.696910
916.7569, 1.723326
917.2390, 1.971461
917.7211, 2.258978
918.2032, 2.245969
918.6854, 1.912065
919.1675, 1.805411
919.6496, 2.015303
920.1317, 2.196583
920.6138, 2.258804
921.0959, 2.243608
921.5781, 2.181502
922.0602, 2.081463
922.5423, 1.966677
923.0244, 1.839962
923.5065, 1.704029
923.9886, 1.464087
924.4708, 1.308984
924.9529, 1.412052
925.4350, 1.593603
925.9171, 1.617440
926.3992, 1.467174
926.8813, 1.321176
927.3635, 1.234991
927.8456, 1.188709
928.3277, 1.209599
928.8098, 1.236964
929.2919, 1.171892
929.7740, 1.053581
930.2562, 1.019603
930.7383, 1.125778
931.2204, 1.239486
931.7025, 1.211657
932.1846, 1.112391
932.6667, 1.058859
933.1489, 1.049911
933.6310, 1.090928
934.1132, 1.177139
934.5953, 1.244920
935.0774, 1.247047
935.5595, 1.198214
936.0416, 1.141870
936.5237, 1.078593
937.0059, 0.9099820
937.4880, 0.6048420
937.9701, 0.3368280
938.4522, 0.1460340
938.9343, 9.6781000E-02
939.4164, 0.3189310
939.8986, 0.7840370
940.3807, 0.9758480
940.8628, 0.7053690
941.3449, 0.5333700
941.8270, 0.5628100
942.3091, 0.6403010
942.7913, 0.7034640
943.2734, 0.7509280
943.7555, 0.8073150
944.2376, 0.8823790
944.7197, 0.8490850
945.2018, 0.5698600
945.6840, 0.3252210
946.1661, 0.2165080
946.6482, 0.1919110
947.1303, 0.2325420
947.6124, 0.3102040
948.0945, 0.3579750
948.5767, 0.3359360
949.0588, 0.3523770
949.5409, 0.5890720
950.0230, 0.7914220
950.5051, 0.6351450
950.9872, 0.2813530
951.4694, 5.3650001E-03
951.9515, 0.1130840
952.4336, 3.0436000E-02
952.9157, 0.3480710
953.3978, 0.7508760
953.8799, 0.7292430
954.3621, 0.4317180
954.8442, 0.2374980
955.3263, 0.1734590
955.8084, 0.1959170
956.2905, 0.2877180
956.7726, 0.3173690
957.2548, 9.6431002E-02
957.7369, 0.2813420
958.2190, 0.3811620
958.7011, 0.1888050
959.1832, 8.5100001E-03
959.6653, 0.1922290
960.1475, 0.2515690
960.6296, 9.1376998E-02
961.1117, 0.1738730
961.5938, 0.3462970
962.0759, 0.4295230
962.5580, 0.3705910
963.0402, 2.8912000E-02
963.5223, 0.1532500
964.0044, 7.1410001E-03
964.4865, 0.2501060
964.9686, 0.4732650
965.4507, 0.6149680
965.9329, 0.4464240
966.4150, 0.2715860
966.8971, 0.6511950
967.3792, 0.3543050
967.8613, 5.0510000E-02
968.3434, 6.9710002E-03
968.8256, 5.5059999E-02
969.3077, 1.4305000E-02
969.7898, 0.1049790
970.2719, 0.1865930
970.7540, 0.2279040
971.2361, 0.1647660
971.7183, 0.1990780
972.2004, 0.5146680
972.6825, 0.4328980
973.1646, 0.1457670
973.6467, 1.7452000E-02
974.1288, 4.6099999E-04
974.6110, 2.4362000E-02
975.0931, 4.7726002E-02
975.5752, 0.1451830
976.0573, 0.1985740
976.5394, 0.2368410
977.0215, 0.3339070
977.5037, 0.4561810
977.9858, 0.4765670
978.4679, 0.3543140
978.9500, 0.1929980
979.4321, 7.5754002E-02
979.9142, 5.0750002E-03
980.3964, 5.7847001E-02
980.8785, 0.1636340
981.3606, 1.1347000E-02
981.8427, 0.4143220
982.3248, 0.8075000
982.8069, 1.008869
983.2891, 1.038900
983.7712, 0.8870270
984.2533, 0.5859870
984.7354, 0.3519440
985.2175, 0.1831010
985.6996, 0.1653960
986.1818, 0.3324450
986.6639, 0.5578160
987.1460, 0.7587440
987.6281, 0.9426170
988.1102, 1.118252
988.5923, 1.278249
989.0745, 1.505329
989.5566, 1.827073
990.0387, 2.147243
990.5208, 2.488637
991.0029, 2.724699
991.4850, 2.679954
991.9672, 2.452291
992.4493, 2.421456
992.9314, 2.633919
993.4135, 2.934453
993.8956, 3.405638
994.3777, 3.851659
994.8599, 4.087729
995.3420, 4.365761
995.8241, 5.051628
996.3062, 6.031422
996.7883, 6.659666
997.2704, 6.673111
997.7526, 6.742411
998.2347, 6.922075
998.7168, 7.201994
999.1989, 7.721883
999.6810, 8.253983
1000.163, 8.423303
1000.645, 8.271403
1001.127, 8.359680
1001.609, 9.059948
1002.092, 9.698847
1002.574, 9.885112
1003.056, 10.02167
1003.538, 10.50981
1004.020, 11.13101
1004.502, 11.44107
1004.984, 11.39332
1005.466, 11.41689
1005.949, 11.75630
1006.431, 12.21048
1006.913, 12.69391
1007.395, 13.17125
1007.877, 13.62141
1008.359, 14.01447
1008.841, 14.26862
1009.323, 14.36522
1009.805, 14.43947
1010.288, 14.66762
1010.770, 14.87071
1011.252, 14.76381
1011.734, 14.46946
1012.216, 14.20163
1012.698, 13.97274
1013.180, 13.72280
1013.662, 13.42863
1014.145, 13.08717
1014.627, 12.68816
1015.109, 12.23281
1015.591, 11.65284
1016.073, 11.03903
1016.555, 10.75039
1017.037, 10.76296
1017.519, 10.54013
1018.001, 9.803283
1018.484, 8.951068
1018.966, 8.528708
1019.448, 8.409171
1019.930, 8.135674
1020.412, 7.728823
1020.894, 7.315887
1021.376, 6.903557
1021.858, 6.364749
1022.341, 5.609093
1022.823, 4.813099
1023.305, 4.244056
1023.787, 3.913625
1024.269, 3.811628
1024.751, 3.919554
1025.233, 3.877340
1025.715, 3.598149
1026.198, 3.249614
1026.680, 2.926125
1027.162, 2.647290
1027.644, 2.466269
1028.126, 2.388259
1028.608, 2.293999
1029.090, 2.199970
1029.572, 2.048363
1030.054, 1.784868
1030.536, 1.523670
1031.019, 1.317690
1031.501, 1.202272
1031.983, 1.309503
1032.465, 1.718975
1032.947, 1.658541
1033.429, 0.8300390
1033.911, 0.3205690
1034.393, 0.4929920
1034.876, 0.8100740
1035.358, 0.9188330
1035.840, 0.8891030
1036.322, 0.8829200
1036.804, 0.9192540
1037.286, 0.8828230
1037.768, 0.6390330
1038.250, 0.5595870
1038.733, 0.8494070
1039.215, 1.179960
1039.697, 1.336164
1040.179, 1.340062
1040.661, 1.215356
1041.143, 0.8689190
1041.625, 0.7386810
1042.107, 0.9022510
1042.589, 1.177103
1043.072, 1.715646
1043.554, 2.175903
1044.036, 2.206450
1044.518, 1.997993
1045.000, 2.017933
1045.482, 2.331826
1045.964, 2.670679
1046.446, 3.092822
1046.928, 3.434981
1047.411, 3.512133
1047.893, 3.628492
1048.375, 4.084545
1048.857, 4.738039
1049.339, 5.240847
1049.821, 5.545290
1050.303, 5.783609
1050.785, 5.838635
1051.268, 6.011898
1051.750, 6.421600
1052.232, 6.964296
1052.714, 7.609159
1053.196, 8.306457
1053.678, 8.919331
1054.160, 9.379986
1054.642, 10.08761
1055.125, 11.36041
1055.607, 12.59978
1056.089, 13.48774
1056.571, 14.33706
1057.053, 15.52221
1057.535, 16.83842
1058.017, 17.74677
1058.499, 18.09138
1058.981, 18.70339
1059.464, 19.93039
1059.946, 21.34002
1060.428, 22.87800
1060.910, 24.42336
1061.392, 25.98382
1061.874, 27.45159
1062.356, 28.61064
1062.838, 29.41073
1063.320, 30.18745
1063.803, 31.07555
1064.285, 31.94596
1064.767, 32.88052
1065.249, 33.64317
1065.731, 33.82542
1066.213, 33.75211
1066.695, 34.16447
1067.177, 35.19272
1067.660, 35.90776
1068.142, 35.78275
1068.624, 35.46690
1069.106, 35.12209
1069.588, 34.84319
1070.070, 34.81170
1070.552, 34.85978
1071.034, 34.67158
1071.516, 34.19793
1071.999, 33.67359
1072.481, 33.15210
1072.963, 32.65829
1073.445, 32.32929
1073.927, 31.90927
1074.409, 31.19152
1074.891, 30.23123
1075.373, 29.08412
1075.855, 27.79267
1076.338, 26.54566
1076.820, 25.29717
1077.302, 24.29877
1077.784, 23.99185
1078.266, 23.66903
1078.748, 22.70988
1079.230, 21.39823
1079.712, 20.17506
1080.195, 19.11216
1080.677, 18.12402
1081.159, 17.18118
1081.641, 16.31333
1082.123, 15.57373
1082.605, 14.88387
1083.087, 14.27951
1083.569, 13.63793
1084.052, 12.69438
1084.534, 11.52954
1085.016, 10.65534
1085.498, 10.38373
1085.980, 10.00337
1086.462, 8.937411
1086.944, 7.949612
1087.426, 7.661631
1087.908, 7.645550
1088.391, 7.355082
1088.873, 6.829033
1089.355, 6.454437
1089.837, 6.384653
1090.319, 6.277145
1090.801, 5.921255
1091.283, 5.576118
1091.765, 5.449205
1092.248, 5.354992
1092.730, 5.083341
1093.212, 4.677956
1093.694, 4.293922
1094.176, 3.967380
1094.658, 3.668221
1095.140, 3.304430
1095.622, 3.071733
1096.104, 3.267121
1096.587, 3.442805
1097.069, 3.095125
1097.551, 2.463445
1098.033, 2.110271
1098.515, 2.143667
1098.997, 2.120490
1099.479, 1.806739
1099.961, 1.562784
1100.443, 1.553640
1100.926, 1.615475
1101.408, 1.688516
1101.890, 1.720167
1102.372, 1.594734
1102.854, 1.316595
1103.336, 1.183712
1103.818, 1.416787
1104.300, 1.586687
1104.783, 1.586752
1105.265, 1.499250
1105.747, 1.304536
1106.229, 1.086032
1106.711, 0.9708610
1107.193, 0.8019840
1107.675, 0.8789320
1108.157, 0.6363100
1108.640, 0.5334420
1109.122, 0.6036360
1109.604, 0.8024500
1110.086, 1.345183
1110.568, 1.824874
1111.050, 1.825016
1111.532, 1.461374
1112.014, 1.154371
1112.496, 0.8926540
1112.979, 0.8165180
1113.461, 1.063762
1113.943, 1.228869
1114.425, 1.224365
1114.907, 1.112484
1115.389, 0.8721340
1115.871, 0.5856730
1116.353, 0.4398500
1116.835, 0.4655740
1117.318, 0.4427410
1117.800, 0.2504490
1118.282, 0.2680840
1118.764, 0.7224640
1119.246, 1.112529
1119.728, 1.127814
1120.210, 0.9585630
1120.692, 0.8836730
1121.175, 0.8945660
1121.657, 0.8507380
1122.139, 0.6619440
1122.621, 0.7096450
1123.103, 1.172987
1123.585, 1.530338
1124.067, 1.526414
1124.549, 1.348231
1125.031, 1.168062
1125.514, 1.022912
1125.996, 1.044412
1126.478, 1.281547
1126.960, 1.383023
1127.442, 1.312328
1127.924, 1.222439
1128.406, 1.147262
1128.888, 1.097272
1129.370, 1.071883
1129.853, 1.103838
1130.335, 1.336647
1130.817, 1.172643
1131.299, 1.705374
1131.781, 1.107387
1132.263, 0.8277810
1132.745, 1.048301
1133.227, 1.413837
1133.710, 1.738449
1134.192, 1.955405
1134.674, 1.923525
1135.156, 1.728420
1135.638, 1.717458
1136.120, 1.877930
1136.602, 2.176802
1137.084, 2.579796
1137.567, 2.764232
1138.049, 2.607994
1138.531, 2.394820
1139.013, 2.405499
1139.495, 2.264114
1139.977, 2.396765
1140.459, 2.173258
1140.941, 2.082188
1141.423, 2.133393
1141.906, 2.361006
1142.388, 2.725898
1142.870, 2.939627
1143.352, 2.806852
1143.834, 2.561401
1144.316, 2.427240
1144.798, 2.396179
1145.280, 2.581646
1145.762, 2.805698
1146.245, 2.618180
1146.727, 2.120433
1147.209, 1.860621
1147.691, 2.050691
1148.173, 2.279470
1148.655, 2.181558
1149.137, 2.040071
1149.619, 2.127094
1150.102, 2.288235
1150.584, 2.354053
1151.066, 2.346179
1151.548, 2.366389
1152.030, 2.418880
1152.512, 2.365304
1152.994, 2.115193
1153.476, 1.810283
1153.958, 1.417306
1154.441, 1.107035
1154.923, 1.093084
1155.405, 1.155645
1155.887, 1.018005
1156.369, 0.7074540
1156.851, 0.4155670
1157.333, 0.1652570
1157.815, 1.7361000E-02
1158.297, 0.1087390
1158.780, 0.1546020
1159.262, 0.1441070
1159.744, 0.1180560
1160.226, 8.3005004E-02
1160.708, 6.1214000E-02
1161.190, 0.1131760
1161.672, 0.2484620
1162.154, 0.2971040
1162.637, 0.2406630
1163.119, 0.1217760
1163.601, 0.1721810
1164.083, 0.3143990
1164.565, 6.8067998E-02
1165.047, 0.2298560
1165.529, 0.1886220
1166.011, 0.3562890
1166.494, 0.4258860
1166.976, 0.3165240
1167.458, 0.4006130
1167.940, 0.1148720
1168.422, 0.1855590
1168.904, 0.4561340
1169.386, 0.4727020
1169.868, 3.2219999E-02
1170.350, 0.5312970
1170.833, 0.6489650
1171.315, 0.3955370
1171.797, 0.1766610
1172.279, 6.7119999E-03
1172.761, 0.1500630
1173.243, 0.2521750
1173.725, 0.3021750
1174.207, 0.2956180
1174.689, 0.2187790
1175.172, 4.1614000E-02
1175.654, 0.1594710
1176.136, 0.2473850
1176.618, 0.2613630
1177.100, 0.3023320
1177.582, 0.3457070
1178.064, 0.3017760
1178.546, 0.1657420
1179.029, 8.6470004E-03
1179.511, 0.2017050
1179.993, 0.3222750
1180.475, 0.2020250
1180.957, 6.7362003E-02
1181.439, 0.2241860
1181.921, 0.4368940
1182.403, 0.3004720
1182.885, 4.6970001E-03
1183.368, 8.8223003E-02
1183.850, 0.6138460
1184.332, 0.9365130
1184.814, 0.6414810
1185.296, 0.3725090
1185.778, 0.3911290
1186.260, 0.5146370
1186.742, 0.7205630
1187.225, 0.9078260
1187.707, 0.9561020
1188.189, 0.8950000
1188.671, 0.8439790
1189.153, 0.8060000
1189.635, 0.8103150
1190.117, 0.8504530
1190.599, 0.9518700
1191.082, 1.241885
1191.564, 1.411196
1192.046, 1.204718
1192.528, 0.8899050
1193.010, 0.8419690
1193.492, 1.026778
1193.974, 1.174884
1194.456, 1.284747
1194.938, 1.374816
1195.421, 1.455231
1195.903, 1.435091
1196.385, 1.273631
1196.867, 1.096495
1197.349, 0.9897650
1197.831, 0.9622140
1198.313, 1.067707
1198.795, 1.258564
1199.277, 1.284325
1199.760, 1.178976
1200.242, 1.116549
1200.724, 1.116222
1201.206, 1.146625
1201.688, 1.189405
1202.170, 1.184081
1202.652, 1.081201
1203.134, 0.9037950
1203.617, 0.5470610
1204.099, 0.2367150
1204.581, 0.3705450
1205.063, 0.7657580
1205.545, 1.117025
1206.027, 1.350005
1206.509, 1.432687
1206.991, 1.338158
1207.474, 1.305403
1207.956, 1.571908
1208.438, 1.779790
1208.920, 1.679991
1209.402, 1.511836
1209.884, 1.456209
1210.366, 1.465737
1210.848, 1.466341
1211.330, 1.447382
1211.813, 1.380737
1212.295, 1.176429
1212.777, 1.104877
1213.259, 1.298938
1213.741, 1.407860
1214.223, 1.227868
1214.705, 1.130698
1215.187, 1.422678
1215.669, 1.907261
1216.152, 2.237026
1216.634, 2.397654
1217.116, 2.226790
1217.598, 1.680980
1218.080, 1.444005
1218.562, 1.593482
1219.044, 1.812534
1219.526, 1.991091
1220.009, 2.087159
1220.491, 2.065414
1220.973, 1.972206
1221.455, 1.830883
1221.937, 1.693242
1222.419, 1.662683
1222.901, 1.764473
1223.383, 2.320680
1223.865, 3.124011
1224.348, 3.310307
1224.830, 2.644146
1225.312, 2.007310
1225.794, 2.073394
1226.276, 2.305465
1226.758, 2.337624
1227.240, 2.290881
1227.722, 2.258512
1228.204, 2.185427
1228.687, 1.979844
1229.169, 1.750566
1229.651, 1.825686
1230.133, 2.347616
1230.615, 2.669259
1231.097, 2.427404
1231.579, 2.300361
1232.061, 2.709238
1232.544, 2.827337
1233.026, 1.963429
1233.508, 1.035317
1233.990, 1.127634
1234.472, 1.905399
1234.954, 2.128445
1235.436, 1.658470
1235.918, 1.426517
1236.401, 1.458665
1236.883, 1.498434
1237.365, 1.503549
1237.847, 1.459903
1238.329, 1.358183
1238.811, 1.271746
1239.293, 1.309589
1239.775, 1.375941
1240.257, 1.212464
1240.740, 0.9478350
1241.222, 0.9035250
1241.704, 1.020305
1242.186, 1.131616
1242.668, 1.172307
1243.150, 1.031616
1243.632, 0.6427940
1244.114, 0.3223080
1244.596, 0.2589000
1245.079, 0.3577450
1245.561, 0.7327670
1246.043, 1.049132
1246.525, 1.032785
1247.007, 0.8412530
1247.489, 0.6730840
1247.971, 0.5601970
1248.453, 0.5630980
1248.936, 0.4795280
1249.418, 0.4167380
1249.900, 0.5297640
1250.382, 0.3631970
1250.864, 0.5628970
1251.346, 0.7200620
1251.828, 0.5647890
1252.310, 0.3525590
1252.792, 0.4528270
1253.275, 0.7525200
1253.757, 0.7530800
1254.239, 0.4836310
1254.721, 0.2939300
1255.203, 0.1971560
1255.685, 0.1552690
1256.167, 0.1587860
1256.649, 0.2216290
1257.131, 0.3516200
1257.614, 0.4675330
1258.096, 0.4793200
1258.578, 0.4505730
1259.060, 0.4347420
1259.542, 0.4357670
1260.024, 0.4733500
1260.506, 0.5272820
1260.988, 0.5771380
1261.471, 0.6056720
1261.953, 0.5605840
1262.435, 0.4019820
1262.917, 0.2920000
1263.399, 0.3286370
1263.881, 0.3358920
1264.363, 0.1581440
1264.845, 7.7652998E-02
1265.328, 0.3098810
1265.810, 0.6273460
1266.292, 0.7763410
1266.774, 0.7939000
1267.256, 0.7015930
1267.738, 0.4670990
1268.220, 0.4318710
1268.702, 0.5997290
1269.184, 0.8281840
1269.667, 1.087082
1270.149, 1.138902
1270.631, 0.8840380
1271.113, 0.5950260
1271.595, 0.5378860
1272.077, 0.5355770
1272.559, 0.2801120
1273.041, 2.8909000E-02
1273.523, 0.1076770
1274.006, 9.6039996E-03
1274.488, 0.2181520
1274.970, 0.4909250
1275.452, 0.6135580
1275.934, 0.5376210
1276.416, 0.4358960
1276.898, 0.4027590
1277.380, 0.4180110
1277.863, 0.4443400
1278.345, 0.5583020
1278.827, 0.9458080
1279.309, 1.285567
1279.791, 1.293238
1280.273, 1.078938
1280.755, 0.7186180
1281.237, 0.4495020
1281.719, 0.4077820
1282.202, 0.5599090
1282.684, 0.5510600
1283.166, 0.3458820
1283.648, 0.1759790
1284.130, 0.1118800
1284.612, 8.9841999E-02
1285.094, 2.9786000E-02
1285.576, 3.5339999E-03
1286.059, 0.1476960
1286.541, 0.2965210
1287.023, 0.2327420
1287.505, 0.0000000E+00
##END=



