##NAMES=Beryl
##RRUFFID=R060943
##IDEAL CHEMISTRY=Be_3_Al_2_Si_6_O_18_
##LOCALITY=Xinjiang, China
##OWNER=RRUFF
##SOURCE=Lawrence W. Snee
##DESCRIPTION=Green hexagonal prisms, variety emerald
##STATUS=The identification of this mineral has been confirmed by X-ray diffraction and chemical analysis
##URL=rruff.info/R060943
##MEASURED CHEMISTRY=(Be_2.96_Li_0.04_)_Σ=3_(Al_1.64_Mg_0.21_V^3+^_0.06_Fe^3+^_0.04_Sc^3+^_0.03_Cr^3+^_0.02_)_Σ=2_Si_6.00_O_18_·Na_0.25_
126.8263, 0.0000000E+00
127.3084, 12.26465
127.7905, 3.524414
128.2727, 10.44287
128.7548, 45.07178
129.2369, 83.08252
129.7190, 123.9951
130.2011, 161.1904
130.6832, 174.4297
131.1654, 160.9248
131.6475, 147.8438
132.1296, 174.5859
132.6117, 235.9756
133.0938, 276.4863
133.5759, 258.7617
134.0581, 194.5469
134.5402, 177.7002
135.0223, 216.9102
135.5044, 280.9531
135.9865, 322.1787
136.4686, 337.7686
136.9508, 350.5820
137.4329, 368.7891
137.9150, 391.8379
138.3971, 424.8271
138.8792, 470.8555
139.3613, 525.1094
139.8434, 578.1729
140.3256, 634.2285
140.8077, 680.9160
141.2898, 710.9893
141.7719, 720.8125
142.2540, 725.0801
142.7361, 725.8369
143.2183, 722.2510
143.7004, 707.1484
144.1825, 672.4766
144.6646, 635.4756
145.1467, 609.6699
145.6288, 602.1934
146.1110, 592.8340
146.5931, 579.5781
147.0752, 562.1631
147.5573, 537.9824
148.0394, 507.2764
148.5215, 469.3584
149.0037, 422.5107
149.4858, 345.9688
149.9679, 283.1895
150.4500, 246.8232
150.9321, 248.5049
151.4142, 238.9609
151.8964, 212.6777
152.3785, 176.9961
152.8606, 142.1260
153.3427, 101.8369
153.8248, 68.97852
154.3069, 49.38770
154.7890, 50.84473
155.2712, 50.40625
155.7533, 41.61719
156.2354, 28.97754
156.7175, 22.24219
157.1996, 22.06152
157.6817, 29.01465
158.1639, 43.97266
158.6460, 74.55859
159.1281, 101.9922
159.6102, 120.7471
160.0923, 131.5332
160.5744, 138.1260
161.0566, 134.3008
161.5387, 129.7441
162.0208, 131.4287
162.5029, 147.3252
162.9850, 163.4385
163.4671, 170.3057
163.9493, 169.3721
164.4314, 175.7441
164.9135, 216.4580
165.3956, 261.2383
165.8777, 279.0381
166.3598, 231.1670
166.8420, 174.2744
167.3241, 139.7568
167.8062, 128.6455
168.2883, 134.5742
168.7704, 174.4014
169.2525, 225.9023
169.7346, 255.5977
170.2168, 229.0693
170.6989, 186.0479
171.1810, 161.8330
171.6631, 160.6279
172.1452, 164.1426
172.6273, 154.1162
173.1095, 137.5049
173.5916, 129.5557
174.0737, 148.7109
174.5558, 176.9736
175.0379, 191.3359
175.5201, 188.0020
176.0022, 175.4443
176.4843, 152.7881
176.9664, 125.3145
177.4485, 111.3389
177.9306, 133.2666
178.4128, 174.2334
178.8949, 202.6621
179.3770, 208.5420
179.8591, 210.3633
180.3412, 239.9834
180.8233, 293.1523
181.3055, 337.3418
181.7876, 344.6699
182.2697, 325.1758
182.7518, 304.1387
183.2339, 283.1152
183.7160, 267.3877
184.1981, 270.8125
184.6803, 289.7998
185.1624, 310.8623
185.6445, 321.4492
186.1266, 322.9229
186.6087, 319.7041
187.0908, 307.6592
187.5730, 294.1787
188.0551, 301.5107
188.5372, 331.2803
189.0193, 365.9834
189.5014, 392.0303
189.9835, 409.6562
190.4657, 418.2412
190.9478, 413.7070
191.4299, 400.1689
191.9120, 395.8809
192.3941, 402.6436
192.8762, 410.5234
193.3584, 411.9258
193.8405, 406.9424
194.3226, 386.9287
194.8047, 338.1631
195.2868, 266.6162
195.7689, 227.8428
196.2511, 228.5107
196.7332, 243.5371
197.2153, 234.3975
197.6974, 198.6309
198.1795, 170.4238
198.6616, 167.4980
199.1437, 189.9707
199.6259, 203.1279
200.1080, 205.0254
200.5901, 201.0078
201.0722, 200.1143
201.5543, 203.5908
202.0364, 207.2207
202.5186, 208.6250
203.0007, 207.5137
203.4828, 200.6152
203.9649, 183.2305
204.4470, 164.6973
204.9291, 164.7939
205.4113, 185.0049
205.8934, 215.3975
206.3755, 258.2979
206.8576, 320.1172
207.3397, 352.1104
207.8218, 344.2178
208.3040, 310.8008
208.7861, 289.9238
209.2682, 287.9180
209.7503, 284.1729
210.2324, 262.6016
210.7145, 214.4609
211.1967, 184.6270
211.6788, 180.9746
212.1609, 198.4014
212.6430, 221.1592
213.1251, 255.7490
213.6072, 282.5244
214.0894, 286.4473
214.5715, 258.0566
215.0536, 238.2236
215.5357, 234.3252
216.0178, 241.4307
216.4999, 235.6699
216.9820, 208.0469
217.4642, 182.0996
217.9463, 172.5449
218.4284, 181.1973
218.9105, 202.6494
219.3926, 244.7100
219.8747, 300.6396
220.3569, 328.8750
220.8390, 318.1221
221.3211, 295.5977
221.8032, 278.9824
222.2853, 266.4932
222.7674, 266.2432
223.2496, 285.0557
223.7317, 320.4111
224.2138, 342.4756
224.6959, 349.7285
225.1780, 346.3818
225.6601, 333.1572
226.1423, 301.1260
226.6244, 279.3164
227.1065, 274.3135
227.5886, 285.3135
228.0707, 294.7266
228.5528, 298.9404
229.0350, 305.2344
229.5171, 323.0781
229.9992, 369.2744
230.4813, 391.8350
230.9634, 369.6104
231.4455, 302.4385
231.9276, 276.7988
232.4098, 313.9893
232.8919, 371.1553
233.3740, 407.9976
233.8561, 418.2358
234.3382, 420.6333
234.8203, 415.4941
235.3025, 402.4336
235.7846, 397.5010
236.2667, 404.8936
236.7488, 416.6230
237.2309, 423.9629
237.7130, 421.3979
238.1952, 425.0107
238.6773, 440.3428
239.1594, 468.4941
239.6415, 489.5942
240.1236, 498.4795
240.6057, 505.2979
241.0879, 521.3467
241.5700, 552.1909
242.0521, 581.7808
242.5342, 604.9360
243.0163, 620.4053
243.4984, 645.0151
243.9806, 681.2725
244.4627, 724.0420
244.9448, 768.1279
245.4269, 814.2256
245.9090, 859.9805
246.3911, 907.6694
246.8732, 958.4038
247.3554, 991.8506
247.8375, 996.4448
248.3196, 993.6680
248.8017, 1009.906
249.2838, 1062.259
249.7659, 1101.156
250.2481, 1114.998
250.7302, 1102.528
251.2123, 1083.155
251.6944, 1058.453
252.1765, 1026.291
252.6586, 984.1958
253.1408, 933.1772
253.6229, 871.1074
254.1050, 796.0903
254.5871, 708.6167
255.0692, 613.6597
255.5513, 503.8174
256.0334, 394.3149
256.5156, 300.5132
256.9977, 225.2231
257.4798, 158.4702
257.9619, 96.62109
258.4440, 38.36963
258.9261, 3.254883
259.4083, 24.90771
259.8904, 34.98730
260.3725, 41.74854
260.8546, 44.02393
261.3367, 46.87402
261.8188, 52.38916
262.3010, 60.94385
262.7831, 65.56787
263.2652, 65.64697
263.7473, 62.96680
264.2294, 59.33252
264.7115, 54.69678
265.1937, 49.31836
265.6758, 42.65381
266.1579, 34.76758
266.6400, 30.22705
267.1221, 32.00391
267.6042, 32.10498
268.0864, 19.86182
268.5685, 10.05273
269.0506, 34.50146
269.5327, 45.49414
270.0148, 44.36865
270.4969, 55.98486
270.9791, 86.89648
271.4612, 117.9399
271.9433, 126.8569
272.4254, 109.0151
272.9075, 91.80469
273.3896, 82.40332
273.8718, 79.65283
274.3539, 71.01514
274.8360, 53.96729
275.3181, 36.88672
275.8002, 26.91602
276.2823, 24.04248
276.7645, 28.21875
277.2466, 41.69385
277.7287, 62.43701
278.2108, 77.89062
278.6929, 87.30615
279.1750, 93.81299
279.6572, 98.11572
280.1393, 99.60791
280.6214, 106.9150
281.1035, 122.0913
281.5856, 144.1826
282.0677, 174.0537
282.5499, 214.6826
283.0320, 247.8843
283.5141, 248.1807
283.9962, 216.0605
284.4783, 204.2598
284.9604, 229.6592
285.4425, 278.3560
285.9247, 305.6875
286.4068, 310.5122
286.8889, 314.6719
287.3710, 336.7139
287.8531, 373.9766
288.3352, 404.8843
288.8174, 421.5923
289.2995, 434.4556
289.7816, 474.0879
290.2637, 540.4556
290.7458, 600.5117
291.2279, 627.7671
291.7101, 626.4395
292.1922, 616.0571
292.6743, 598.0107
293.1564, 576.5098
293.6385, 556.5698
294.1206, 539.9482
294.6028, 529.8237
295.0849, 533.8228
295.5670, 545.0869
296.0491, 543.8027
296.5312, 525.5122
297.0133, 500.0645
297.4955, 477.3047
297.9776, 458.3066
298.4597, 445.4243
298.9418, 439.4082
299.4239, 442.1313
299.9060, 458.5332
300.3882, 492.2422
300.8703, 527.0332
301.3524, 536.5322
301.8345, 528.4199
302.3166, 530.0474
302.7987, 568.4868
303.2809, 620.6558
303.7630, 652.4604
304.2451, 657.2505
304.7272, 657.0068
305.2093, 669.0151
305.6914, 690.9531
306.1736, 716.8906
306.6557, 749.7661
307.1378, 782.6855
307.6199, 808.6616
308.1020, 826.6689
308.5841, 841.7764
309.0663, 848.4072
309.5484, 856.9541
310.0305, 882.7832
310.5126, 946.8037
310.9947, 1020.922
311.4768, 1083.869
311.9590, 1134.275
312.4411, 1184.102
312.9232, 1232.865
313.4053, 1286.932
313.8874, 1353.187
314.3695, 1435.852
314.8516, 1531.203
315.3337, 1642.260
315.8159, 1768.253
316.2980, 1892.334
316.7801, 2000.271
317.2622, 2105.742
317.7443, 2223.528
318.2264, 2343.956
318.7086, 2490.038
319.1907, 2677.310
319.6728, 2901.513
320.1549, 3131.701
320.6370, 3338.538
321.1191, 3560.940
321.6013, 3826.343
322.0834, 4208.626
322.5655, 4554.228
323.0476, 4861.056
323.5297, 5116.385
324.0118, 5268.971
324.4940, 5330.851
324.9761, 5271.939
325.4582, 5073.711
325.9403, 4663.361
326.4224, 4217.029
326.9045, 3701.934
327.3867, 3151.867
327.8688, 2660.430
328.3509, 2222.276
328.8330, 1849.572
329.3151, 1548.428
329.7972, 1346.583
330.2794, 1157.154
330.7615, 968.8960
331.2436, 795.0522
331.7257, 663.3057
332.2078, 597.0356
332.6899, 538.8096
333.1721, 469.0254
333.6542, 380.8579
334.1363, 316.1606
334.6184, 284.4580
335.1005, 267.9287
335.5826, 241.8594
336.0648, 199.2861
336.5469, 163.3472
337.0290, 139.3311
337.5111, 127.1445
337.9932, 125.5562
338.4753, 142.0889
338.9575, 154.6519
339.4396, 133.4165
339.9217, 67.71191
340.4038, 25.99072
340.8859, 29.83545
341.3680, 67.64844
341.8502, 84.24805
342.3323, 77.16357
342.8144, 59.44434
343.2965, 36.34082
343.7786, 8.174316
344.2607, 6.645996
344.7429, 1.731445
345.2250, 14.46777
345.7071, 23.89062
346.1892, 26.73779
346.6713, 24.93994
347.1534, 16.24756
347.6355, 3.121094
348.1176, 4.654785
348.5998, 6.166504
349.0819, 2.494141
349.5640, 10.53564
350.0461, 29.89209
350.5282, 39.42188
351.0103, 19.59912
351.4925, 13.30957
351.9746, 30.51514
352.4567, 29.15576
352.9388, 18.55811
353.4209, 2.241699
353.9030, 16.62109
354.3852, 30.99854
354.8673, 40.28223
355.3494, 42.46582
355.8315, 32.41504
356.3136, 10.54639
356.7957, 10.81641
357.2779, 24.21289
357.7600, 31.40430
358.2421, 34.56396
358.7242, 31.61475
359.2063, 27.37158
359.6884, 25.90088
360.1706, 26.32568
360.6527, 23.11719
361.1348, 9.117676
361.6169, 6.852051
362.0990, 17.81543
362.5811, 21.03125
363.0633, 20.72314
363.5454, 16.45361
364.0275, 9.240234
364.5096, 2.197754
364.9917, 10.46973
365.4738, 17.73779
365.9560, 12.44287
366.4381, 15.93115
366.9202, 35.65820
367.4023, 29.63867
367.8844, 15.81738
368.3665, 23.25977
368.8487, 87.29004
369.3308, 139.5044
369.8129, 158.8906
370.2950, 137.4126
370.7771, 127.0215
371.2592, 129.2046
371.7414, 141.4165
372.2235, 162.1680
372.7056, 196.8491
373.1877, 229.5215
373.6698, 254.4683
374.1519, 272.8477
374.6341, 303.8408
375.1162, 354.2324
375.5983, 403.6338
376.0804, 431.6011
376.5625, 429.9062
377.0446, 448.2529
377.5267, 496.8950
378.0089, 566.0283
378.4910, 627.2510
378.9731, 679.4434
379.4552, 730.8940
379.9373, 785.8887
380.4194, 844.7686
380.9016, 904.6387
381.3837, 967.4614
381.8658, 1027.981
382.3479, 1073.320
382.8300, 1106.155
383.3121, 1148.003
383.7943, 1211.081
384.2764, 1289.288
384.7585, 1373.209
385.2406, 1462.482
385.7227, 1548.639
386.2048, 1602.756
386.6870, 1646.174
387.1691, 1726.100
387.6512, 1873.061
388.1333, 2048.462
388.6154, 2219.512
389.0975, 2385.588
389.5797, 2549.682
390.0618, 2694.639
390.5439, 2845.555
391.0260, 3025.712
391.5081, 3243.031
391.9902, 3484.685
392.4724, 3756.258
392.9545, 4049.134
393.4366, 4345.031
393.9187, 4634.928
394.4008, 4926.529
394.8829, 5239.080
395.3651, 5587.092
395.8472, 5897.814
396.3293, 6172.609
396.8114, 6393.674
397.2935, 6539.495
397.7756, 6640.206
398.2578, 6630.072
398.7399, 6476.527
399.2220, 6172.252
399.7041, 5828.762
400.1862, 5421.713
400.6683, 4994.675
401.1505, 4575.510
401.6326, 4156.217
402.1147, 3754.674
402.5968, 3363.906
403.0789, 2992.292
403.5610, 2668.491
404.0432, 2399.337
404.5253, 2164.042
405.0074, 1956.736
405.4895, 1780.610
405.9716, 1607.365
406.4537, 1430.844
406.9359, 1268.912
407.4180, 1155.764
407.9001, 1093.839
408.3822, 1045.192
408.8643, 998.1055
409.3464, 951.1104
409.8285, 904.8657
410.3106, 860.8921
410.7928, 817.2578
411.2749, 763.2397
411.7570, 705.1841
412.2391, 671.1763
412.7212, 677.8154
413.2033, 698.0640
413.6855, 689.2720
414.1676, 656.1060
414.6497, 623.2485
415.1318, 608.8384
415.6139, 604.5811
416.0960, 600.8804
416.5782, 597.0596
417.0603, 592.0630
417.5424, 583.9629
418.0245, 573.7842
418.5066, 563.8774
418.9887, 562.7017
419.4709, 557.0210
419.9530, 536.4551
420.4351, 501.1396
420.9172, 467.8184
421.3993, 442.8315
421.8814, 421.0532
422.3636, 398.1431
422.8457, 364.4009
423.3278, 338.5210
423.8099, 328.3174
424.2920, 331.4844
424.7741, 333.3296
425.2563, 340.7241
425.7384, 339.8345
426.2205, 322.2686
426.7026, 273.4111
427.1847, 244.7061
427.6668, 242.5112
428.1490, 256.3535
428.6311, 272.0215
429.1132, 292.3994
429.5953, 307.1328
430.0774, 312.2168
430.5595, 308.2407
431.0417, 301.0532
431.5238, 287.7041
432.0059, 280.4409
432.4880, 293.7114
432.9701, 326.9419
433.4522, 357.7197
433.9344, 382.2139
434.4165, 402.9917
434.8986, 418.4126
435.3807, 430.4902
435.8628, 461.0005
436.3449, 543.3438
436.8271, 649.8750
437.3092, 718.9429
437.7913, 741.5088
438.2734, 756.5942
438.7555, 795.6792
439.2376, 853.3115
439.7197, 919.3955
440.2018, 1005.265
440.6840, 1086.083
441.1661, 1134.930
441.6482, 1156.142
442.1303, 1186.977
442.6124, 1268.657
443.0945, 1353.918
443.5767, 1405.932
444.0588, 1414.484
444.5409, 1395.658
445.0230, 1338.917
445.5051, 1258.324
445.9872, 1183.798
446.4694, 1139.170
446.9515, 1083.594
447.4336, 1000.112
447.9157, 881.6763
448.3978, 774.4331
448.8799, 679.9219
449.3621, 596.2266
449.8442, 522.1543
450.3263, 455.5664
450.8084, 406.0137
451.2905, 383.8008
451.7726, 377.9932
452.2548, 339.5957
452.7369, 258.2334
453.2190, 180.3511
453.7011, 131.0591
454.1832, 110.2207
454.6653, 104.8813
455.1475, 118.3643
455.6296, 134.4385
456.1117, 128.6514
456.5938, 104.6157
457.0759, 82.43408
457.5580, 67.53418
458.0402, 60.73877
458.5223, 71.06445
459.0044, 96.47412
459.4865, 111.7246
459.9686, 87.38916
460.4507, 46.24170
460.9329, 16.71924
461.4150, 6.822754
461.8971, 6.506836
462.3792, 16.49170
462.8613, 31.07520
463.3434, 39.17188
463.8256, 27.29590
464.3077, 15.59619
464.7898, 16.53369
465.2719, 32.93457
465.7540, 40.85010
466.2361, 22.42139
466.7183, 0.6977540
467.2004, 5.498047
467.6825, 28.04932
468.1646, 47.20801
468.6467, 37.37891
469.1288, 10.34912
469.6109, 9.983398
470.0930, 55.14600
470.5752, 93.05176
471.0573, 97.57959
471.5394, 62.17822
472.0215, 41.28369
472.5036, 37.76514
472.9857, 42.58691
473.4679, 46.48096
473.9500, 49.45508
474.4321, 50.08398
474.9142, 48.98193
475.3963, 44.74414
475.8784, 33.64404
476.3606, 16.02490
476.8427, 5.683594
477.3248, 42.72461
477.8069, 79.10303
478.2890, 80.51221
478.7711, 37.10889
479.2533, 12.18848
479.7354, 31.90088
480.2175, 34.63037
480.6996, 41.79590
481.1817, 78.61914
481.6638, 107.9824
482.1460, 93.67334
482.6281, 42.56299
483.1102, 19.00732
483.5923, 75.30566
484.0744, 145.3901
484.5565, 188.2686
485.0387, 184.8145
485.5208, 175.5635
486.0029, 154.1455
486.4850, 131.1548
486.9671, 124.5781
487.4492, 148.8682
487.9314, 167.5615
488.4135, 170.5806
488.8956, 158.6978
489.3777, 149.8745
489.8598, 143.9209
490.3419, 141.5215
490.8241, 144.5430
491.3062, 154.0635
491.7883, 171.1240
492.2704, 199.7290
492.7525, 226.2686
493.2346, 221.0459
493.7168, 188.6831
494.1989, 164.6108
494.6810, 169.0269
495.1631, 191.1387
495.6452, 214.5020
496.1273, 239.9292
496.6095, 266.9346
497.0916, 291.5190
497.5737, 313.9575
498.0558, 336.7710
498.5379, 364.2402
499.0201, 386.6084
499.5022, 398.1484
499.9843, 400.7764
500.4664, 398.6675
500.9485, 385.0264
501.4306, 375.9526
501.9127, 377.8491
502.3948, 390.7075
502.8770, 408.1338
503.3591, 438.0234
503.8412, 466.9746
504.3233, 484.8281
504.8054, 480.4512
505.2875, 485.2734
505.7697, 502.7153
506.2518, 529.6040
506.7339, 558.4575
507.2160, 589.4292
507.6981, 621.6226
508.1802, 655.7778
508.6624, 691.0029
509.1445, 718.4390
509.6266, 736.9692
510.1087, 757.9268
510.5908, 798.7397
511.0729, 851.6245
511.5551, 888.5576
512.0372, 896.4990
512.5193, 902.4556
513.0014, 937.7754
513.4835, 996.2334
513.9656, 1061.287
514.4478, 1130.638
514.9299, 1199.057
515.4120, 1259.830
515.8941, 1312.574
516.3762, 1371.611
516.8583, 1432.218
517.3405, 1506.743
517.8226, 1605.016
518.3047, 1755.469
518.7868, 1894.219
519.2689, 2015.280
519.7510, 2120.409
520.2332, 2211.241
520.7153, 2272.836
521.1974, 2341.187
521.6795, 2429.742
522.1616, 2538.402
522.6437, 2639.530
523.1259, 2738.492
523.6080, 2813.508
524.0901, 2838.419
524.5722, 2814.181
525.0543, 2792.217
525.5364, 2782.520
526.0186, 2766.786
526.5007, 2716.626
526.9828, 2635.783
527.4649, 2538.704
527.9470, 2433.135
528.4291, 2314.741
528.9113, 2163.999
529.3934, 1986.009
529.8755, 1818.065
530.3576, 1684.788
530.8397, 1571.650
531.3218, 1464.858
531.8040, 1364.642
532.2861, 1266.119
532.7682, 1172.553
533.2503, 1079.879
533.7324, 984.6055
534.2145, 871.3242
534.6967, 771.5054
535.1788, 693.1948
535.6609, 633.9507
536.1430, 569.8716
536.6251, 498.7446
537.1072, 433.7319
537.5894, 382.0840
538.0715, 344.3120
538.5536, 319.3711
539.0357, 311.6323
539.5178, 306.4131
539.9999, 279.3257
540.4821, 233.6235
540.9642, 196.8120
541.4463, 178.8120
541.9284, 171.5259
542.4105, 164.7729
542.8926, 157.7349
543.3748, 146.4761
543.8569, 122.7715
544.3390, 96.91992
544.8211, 80.48779
545.3032, 75.63184
545.7853, 68.79688
546.2675, 47.83008
546.7495, 24.01562
547.2316, 8.493652
547.7137, 16.31934
548.1959, 18.24072
548.6780, 4.489746
549.1601, 18.71240
549.6422, 33.21729
550.1243, 34.41699
550.6064, 33.47021
551.0886, 33.54004
551.5707, 34.64062
552.0528, 34.25488
552.5349, 30.14648
553.0170, 30.67334
553.4991, 50.18408
553.9813, 86.48682
554.4634, 102.3643
554.9455, 89.84814
555.4276, 63.43750
555.9097, 40.83398
556.3918, 21.71973
556.8740, 4.788574
557.3561, 14.17578
557.8382, 28.91162
558.3203, 28.38672
558.8024, 15.38379
559.2845, 8.192383
559.7667, 23.55127
560.2488, 43.15430
560.7309, 52.34131
561.2130, 41.94580
561.6951, 41.99170
562.1772, 76.05762
562.6594, 115.6416
563.1415, 127.0127
563.6236, 87.58545
564.1057, 54.73535
564.5878, 33.57373
565.0699, 24.16699
565.5521, 30.11035
566.0342, 56.82520
566.5163, 78.88184
566.9984, 81.94873
567.4805, 68.37207
567.9626, 55.26562
568.4448, 41.60156
568.9269, 38.31738
569.4090, 62.55322
569.8911, 104.1313
570.3732, 143.5928
570.8553, 181.3374
571.3375, 203.6982
571.8196, 186.0806
572.3017, 144.9141
572.7838, 111.7065
573.2659, 99.16016
573.7480, 96.91113
574.2302, 104.1636
574.7123, 119.8081
575.1944, 132.1118
575.6765, 139.3271
576.1586, 142.5146
576.6407, 140.2153
577.1229, 125.7749
577.6050, 129.5718
578.0871, 164.8076
578.5692, 201.7549
579.0513, 195.0762
579.5334, 136.8428
580.0156, 111.7886
580.4977, 147.8379
580.9798, 210.2051
581.4619, 224.2051
581.9440, 195.2539
582.4261, 162.4775
582.9083, 144.1421
583.3904, 135.9844
583.8725, 135.6348
584.3546, 142.2095
584.8367, 144.5137
585.3188, 124.5947
585.8010, 103.2930
586.2831, 102.6348
586.7652, 143.8828
587.2473, 167.2158
587.7294, 137.7607
588.2115, 87.86035
588.6937, 63.75342
589.1758, 93.22900
589.6579, 109.4849
590.1400, 94.85986
590.6221, 59.50244
591.1042, 49.60645
591.5864, 72.63672
592.0685, 95.90869
592.5506, 106.0220
593.0327, 103.2856
593.5148, 81.76660
593.9969, 38.93164
594.4791, 3.676758
594.9612, 9.027832
595.4433, 40.18311
595.9254, 67.04688
596.4075, 81.19385
596.8896, 96.98193
597.3718, 139.6147
597.8539, 189.2041
598.3360, 212.4580
598.8181, 166.4116
599.3002, 122.8994
599.7823, 113.5640
600.2645, 132.9863
600.7466, 141.5352
601.2287, 125.2773
601.7108, 109.5679
602.1929, 104.1699
602.6750, 110.6538
603.1572, 116.9761
603.6393, 123.5112
604.1214, 128.9907
604.6035, 129.5493
605.0856, 125.5542
605.5677, 132.7090
606.0499, 156.8169
606.5320, 180.9536
607.0141, 174.4653
607.4962, 148.1895
607.9783, 132.5254
608.4604, 147.8281
608.9425, 173.4414
609.4246, 197.8584
609.9067, 219.5581
610.3889, 230.6924
610.8710, 216.3823
611.3531, 198.3604
611.8352, 186.0869
612.3173, 181.5269
612.7994, 187.2700
613.2816, 206.0142
613.7637, 234.0454
614.2458, 270.8232
614.7279, 321.5083
615.2100, 361.0430
615.6921, 380.9766
616.1743, 398.0103
616.6564, 449.6938
617.1385, 533.4082
617.6206, 596.6416
618.1027, 613.4761
618.5848, 607.4209
619.0670, 615.2163
619.5491, 635.4951
620.0312, 661.8481
620.5133, 710.7461
620.9954, 750.0103
621.4775, 748.2588
621.9597, 701.3857
622.4418, 648.7686
622.9239, 606.4575
623.4060, 561.9473
623.8881, 504.1660
624.3702, 407.6270
624.8524, 341.8540
625.3345, 319.9243
625.8166, 318.5596
626.2987, 304.4990
626.7808, 273.4526
627.2629, 252.8066
627.7451, 253.2251
628.2272, 262.5415
628.7093, 245.3843
629.1914, 205.1392
629.6735, 175.7437
630.1556, 184.3423
630.6378, 210.6611
631.1199, 231.1470
631.6020, 245.2153
632.0841, 251.5815
632.5662, 250.0435
633.0483, 240.2666
633.5305, 217.0952
634.0126, 169.0737
634.4947, 142.8184
634.9768, 168.5200
635.4589, 208.4219
635.9410, 224.3853
636.4232, 198.4731
636.9053, 189.3281
637.3874, 213.5942
637.8695, 247.7559
638.3516, 237.9512
638.8337, 181.6377
639.3159, 125.1816
639.7980, 80.99170
640.2801, 49.83691
640.7622, 40.21875
641.2443, 49.12109
641.7264, 55.97266
642.2086, 44.60010
642.6907, 26.92090
643.1728, 13.92529
643.6549, 6.712891
644.1370, 1.973145
644.6191, 3.973145
645.1013, 6.378418
645.5834, 1.179688
646.0655, 21.71045
646.5476, 36.25195
647.0297, 42.20117
647.5118, 39.54443
647.9940, 24.38379
648.4761, 9.108398
648.9582, 29.49561
649.4403, 28.20068
649.9224, 13.79980
650.4045, 4.757324
650.8867, 0.2949220
651.3688, 6.078125
651.8509, 19.98584
652.3330, 36.18262
652.8151, 48.26758
653.2972, 56.59961
653.7794, 63.93506
654.2615, 63.49561
654.7436, 68.94629
655.2257, 96.39258
655.7078, 158.2300
656.1899, 192.1890
656.6721, 162.6924
657.1542, 122.4785
657.6363, 109.2598
658.1184, 132.7188
658.6005, 152.8340
659.0826, 165.5298
659.5648, 177.1572
660.0469, 196.2344
660.5290, 222.6787
661.0111, 257.0879
661.4932, 302.4956
661.9753, 351.1440
662.4575, 388.6606
662.9396, 419.5439
663.4217, 457.2759
663.9038, 514.5234
664.3859, 576.5874
664.8680, 629.3330
665.3502, 674.9014
665.8323, 735.0771
666.3144, 830.4561
666.7965, 927.6206
667.2786, 1008.211
667.7607, 1065.637
668.2429, 1139.950
668.7250, 1230.981
669.2071, 1338.953
669.6892, 1465.446
670.1713, 1610.267
670.6534, 1764.653
671.1355, 1927.925
671.6176, 2098.969
672.0997, 2261.781
672.5818, 2430.161
673.0640, 2640.706
673.5461, 2931.545
674.0282, 3228.817
674.5103, 3460.755
674.9924, 3667.251
675.4745, 3933.391
675.9567, 4307.593
676.4388, 4719.106
676.9209, 5142.054
677.4030, 5579.332
677.8851, 6068.702
678.3672, 6601.871
678.8494, 7195.122
679.3315, 7860.625
679.8136, 8592.784
680.2957, 9378.979
680.7778, 10203.26
681.2599, 11099.99
681.7421, 12078.53
682.2242, 13146.07
682.7063, 14309.68
683.1884, 15590.34
683.6705, 16879.53
684.1526, 18232.78
684.6348, 19492.74
685.1169, 20518.27
685.5990, 21352.88
686.0811, 21818.87
686.5632, 21902.21
687.0453, 21599.25
687.5275, 20840.78
688.0096, 19494.23
688.4917, 18019.98
688.9738, 16430.50
689.4559, 14795.13
689.9380, 13253.79
690.4202, 11812.96
690.9023, 10483.71
691.3844, 9276.748
691.8665, 8199.199
692.3486, 7242.055
692.8307, 6399.690
693.3129, 5689.601
693.7950, 5187.965
694.2771, 4774.131
694.7592, 4369.005
695.2413, 3957.123
695.7234, 3600.212
696.2056, 3342.132
696.6877, 3114.333
697.1698, 2881.102
697.6519, 2628.494
698.1340, 2430.353
698.6161, 2298.755
699.0983, 2192.014
699.5804, 2057.354
700.0625, 1905.170
700.5446, 1788.896
701.0267, 1724.701
701.5089, 1675.183
701.9910, 1599.963
702.4731, 1511.685
702.9552, 1431.966
703.4373, 1363.615
703.9194, 1310.882
704.4016, 1294.215
704.8837, 1293.569
705.3658, 1256.532
705.8479, 1150.346
706.3300, 1049.373
706.8121, 966.9644
707.2943, 901.5381
707.7764, 849.5786
708.2585, 812.7812
708.7406, 773.1982
709.2227, 714.8599
709.7048, 648.3716
710.1870, 607.5273
710.6691, 590.1855
711.1512, 570.8882
711.6333, 528.0063
712.1154, 477.3799
712.5975, 433.4717
713.0797, 398.1821
713.5618, 364.0854
714.0439, 328.7261
714.5260, 294.3374
715.0081, 262.2676
715.4902, 233.8926
715.9724, 203.2451
716.4545, 164.3325
716.9366, 133.6050
717.4187, 141.2256
717.9008, 183.1895
718.3829, 197.0742
718.8651, 166.2432
719.3472, 123.6274
719.8293, 106.9336
720.3114, 107.7178
720.7935, 109.3296
721.2756, 113.2930
721.7578, 107.6353
722.2399, 70.06104
722.7220, 19.07520
723.2041, 7.8130001E-03
723.6862, 50.46533
724.1683, 92.46289
724.6505, 111.4009
725.1326, 110.7412
725.6147, 102.5103
726.0968, 85.45020
726.5789, 68.10596
727.0610, 51.06982
727.5432, 37.75000
728.0253, 41.48096
728.5074, 60.09814
728.9895, 76.60449
729.4716, 76.18311
729.9537, 71.16113
730.4359, 75.33203
730.9180, 90.26221
731.4000, 94.50000
731.8821, 68.16748
732.3643, 40.85352
732.8464, 28.59180
733.3285, 33.07959
733.8106, 49.02490
734.2927, 84.49170
734.7748, 113.5068
735.2570, 109.2842
735.7391, 75.50830
736.2212, 33.87500
736.7033, 16.92725
737.1854, 54.18896
737.6675, 36.25928
738.1497, 4.755371
738.6318, 18.30176
739.1139, 28.91260
739.5960, 65.91650
740.0781, 55.96875
740.5602, 22.11572
741.0424, 2.090332
741.5245, 9.921387
742.0066, 17.80811
742.4887, 30.54248
742.9708, 41.59033
743.4529, 31.27051
743.9351, 1.087891
744.4172, 17.74854
744.8993, 0.2368160
745.3814, 31.09863
745.8635, 42.26367
746.3456, 39.33398
746.8278, 41.07227
747.3099, 63.05518
747.7920, 86.09668
748.2741, 103.2681
748.7562, 113.5107
749.2383, 112.0825
749.7205, 106.1797
750.2026, 78.33838
750.6847, 9.899414
751.1668, 91.65918
751.6489, 134.7080
752.1310, 113.6343
752.6132, 74.52832
753.0953, 47.05957
753.5774, 22.81396
754.0595, 24.38330
754.5416, 93.51904
755.0237, 153.1851
755.5059, 174.0405
755.9880, 182.6621
756.4701, 202.4233
756.9522, 238.9922
757.4343, 265.4595
757.9164, 269.5498
758.3986, 268.5391
758.8807, 272.2642
759.3628, 282.1191
759.8449, 290.5098
760.3270, 297.0874
760.8091, 304.2773
761.2913, 318.5615
761.7734, 336.0571
762.2555, 340.9419
762.7376, 328.2456
763.2197, 320.1250
763.7018, 339.4360
764.1840, 371.5938
764.6661, 400.9526
765.1482, 430.5317
765.6303, 444.2104
766.1124, 420.2168
766.5945, 389.3384
767.0767, 388.6772
767.5588, 426.9995
768.0409, 463.8467
768.5230, 496.6670
769.0051, 519.7734
769.4872, 518.7617
769.9694, 498.9751
770.4515, 483.4307
770.9336, 482.5049
771.4157, 483.0767
771.8978, 475.8003
772.3799, 461.3916
772.8621, 441.4087
773.3442, 409.9922
773.8263, 380.4995
774.3084, 348.1099
774.7905, 321.3940
775.2726, 328.1162
775.7548, 383.3359
776.2369, 418.1533
776.7190, 404.9902
777.2011, 365.2227
777.6832, 355.2402
778.1653, 369.0322
778.6475, 375.5991
779.1296, 350.4438
779.6117, 317.8955
780.0938, 299.2046
780.5759, 291.4316
781.0580, 280.4614
781.5402, 250.1577
782.0223, 229.2305
782.5044, 230.4404
782.9865, 250.3857
783.4686, 263.9834
783.9507, 272.4307
784.4329, 269.3340
784.9150, 245.4839
785.3971, 208.8896
785.8792, 185.1831
786.3613, 173.9463
786.8434, 170.5850
787.3256, 181.1431
787.8077, 191.5815
788.2898, 188.3716
788.7719, 171.1577
789.2540, 156.3940
789.7361, 145.1104
790.2183, 140.4312
790.7004, 146.3804
791.1825, 163.9292
791.6646, 170.3350
792.1467, 164.1006
792.6288, 152.7236
793.1110, 135.8301
793.5930, 118.8779
794.0751, 118.7017
794.5573, 134.1470
795.0394, 144.5015
795.5215, 136.3618
796.0036, 123.7739
796.4857, 114.1182
796.9678, 106.6143
797.4500, 99.72119
797.9321, 102.9668
798.4142, 105.3989
798.8963, 92.91162
799.3784, 62.29443
799.8605, 51.64893
800.3427, 63.89502
800.8248, 86.76660
801.3069, 113.7881
801.7890, 138.8013
802.2711, 150.9062
802.7532, 150.4380
803.2354, 142.3618
803.7175, 112.8115
804.1996, 86.80664
804.6817, 88.41260
805.1638, 143.3301
805.6459, 171.2607
806.1281, 160.2217
806.6102, 137.1733
807.0923, 124.5088
807.5744, 122.2261
808.0565, 125.7041
808.5386, 135.5303
809.0208, 135.0171
809.5029, 111.2456
809.9850, 79.36279
810.4671, 57.28174
810.9492, 47.54639
811.4313, 46.92773
811.9135, 58.61230
812.3956, 74.94678
812.8777, 92.09082
813.3598, 115.9863
813.8419, 126.1948
814.3240, 118.2510
814.8062, 104.6670
815.2883, 94.31885
815.7704, 89.24170
816.2525, 108.9053
816.7346, 163.4326
817.2167, 203.7515
817.6989, 158.5161
818.1810, 82.40576
818.6631, 46.84131
819.1452, 91.68604
819.6273, 127.1753
820.1094, 126.6270
820.5916, 113.5713
821.0737, 106.7407
821.5558, 105.7207
822.0379, 116.6602
822.5200, 144.8662
823.0021, 170.2891
823.4843, 159.9517
823.9664, 127.6382
824.4485, 108.3701
824.9306, 110.2124
825.4127, 123.7964
825.8948, 159.7622
826.3770, 195.5552
826.8591, 206.7534
827.3412, 158.5073
827.8233, 130.1714
828.3054, 125.7588
828.7875, 137.4175
829.2697, 163.6006
829.7518, 204.6260
830.2339, 220.5366
830.7160, 202.2427
831.1981, 177.3936
831.6802, 180.3496
832.1624, 196.6543
832.6445, 203.3403
833.1266, 191.2930
833.6087, 178.2656
834.0908, 169.4185
834.5729, 163.5801
835.0551, 161.1807
835.5372, 170.7202
836.0193, 156.3965
836.5014, 108.3779
836.9835, 55.66797
837.4656, 34.13135
837.9478, 38.98877
838.4299, 55.84863
838.9120, 85.76807
839.3941, 110.2173
839.8762, 104.7500
840.3583, 90.54492
840.8405, 93.07227
841.3226, 140.9849
841.8047, 158.2466
842.2868, 127.3154
842.7689, 79.18115
843.2510, 38.91846
843.7332, 5.623047
844.2153, 0.3535160
844.6974, 26.22559
845.1795, 61.06982
845.6616, 83.85059
846.1437, 94.82129
846.6259, 90.72412
847.1080, 65.64551
847.5901, 46.94824
848.0722, 50.95215
848.5543, 63.40674
849.0364, 73.54053
849.5186, 86.92139
850.0007, 77.03516
850.4828, 33.97559
850.9649, 6.282715
851.4470, 0.1269530
851.9291, 39.38672
852.4113, 67.05127
852.8934, 78.68701
853.3755, 76.11328
853.8576, 51.87256
854.3397, 19.70898
854.8218, 12.15674
855.3039, 49.89307
855.7860, 57.13721
856.2681, 7.562012
856.7502, 40.33008
857.2324, 37.88770
857.7145, 15.95801
858.1966, 34.60693
858.6787, 14.37793
859.1608, 13.61963
859.6429, 19.47900
860.1251, 18.72021
860.6072, 37.95410
861.0893, 81.51074
861.5714, 105.8618
862.0535, 67.59277
862.5356, 30.02979
863.0178, 34.48682
863.4999, 87.41162
863.9820, 103.2075
864.4641, 74.81006
864.9462, 40.02002
865.4283, 21.63623
865.9105, 17.38330
866.3926, 27.60254
866.8747, 50.39844
867.3568, 66.77197
867.8389, 58.60645
868.3210, 45.89453
868.8032, 35.52930
869.2853, 28.79834
869.7674, 48.07666
870.2495, 115.7222
870.7316, 164.1323
871.2137, 151.9932
871.6959, 97.38330
872.1780, 85.72900
872.6601, 112.8936
873.1422, 139.4985
873.6243, 127.8140
874.1064, 116.8066
874.5886, 151.4355
875.0707, 221.3423
875.5528, 267.7065
876.0349, 251.6826
876.5170, 241.3174
876.9991, 254.0342
877.4813, 284.1836
877.9634, 312.2026
878.4455, 338.1045
878.9276, 359.5859
879.4097, 370.5928
879.8918, 382.2793
880.3740, 414.8784
880.8561, 459.7788
881.3382, 495.6631
881.8203, 506.8359
882.3024, 516.7866
882.7845, 530.4443
883.2667, 547.8525
883.7488, 571.4614
884.2309, 603.5898
884.7130, 628.9658
885.1951, 644.1538
885.6772, 650.9766
886.1594, 643.8628
886.6415, 631.6177
887.1236, 637.0840
887.6057, 688.8232
888.0878, 723.2959
888.5699, 684.4331
889.0521, 623.1133
889.5342, 611.9663
890.0163, 684.5986
890.4984, 723.4658
890.9805, 716.9111
891.4626, 685.7993
891.9448, 646.8208
892.4269, 603.8301
892.9090, 568.5210
893.3911, 541.9966
893.8732, 527.0903
894.3553, 530.9463
894.8375, 543.6860
895.3196, 559.3545
895.8017, 589.3218
896.2838, 587.1978
896.7659, 537.5020
897.2480, 480.4214
897.7302, 448.2319
898.2123, 438.2661
898.6944, 431.2026
899.1765, 428.1387
899.6586, 422.7437
900.1407, 396.5835
900.6229, 372.2939
901.1050, 377.5649
901.5871, 418.0347
902.0692, 439.9541
902.5513, 431.7749
903.0334, 417.1025
903.5156, 395.7173
903.9977, 372.9062
904.4798, 406.4824
904.9619, 493.7466
905.4440, 573.3047
905.9261, 602.2935
906.4083, 608.1611
906.8904, 613.6558
907.3725, 619.6807
907.8546, 626.5039
908.3367, 630.4282
908.8188, 638.5386
909.3010, 650.4658
909.7831, 667.6655
910.2652, 700.6196
910.7473, 749.8066
911.2294, 785.6157
911.7115, 793.2983
912.1937, 793.3711
912.6758, 816.0469
913.1579, 846.4688
913.6400, 861.3789
914.1221, 836.3501
914.6042, 819.9209
915.0864, 818.6084
915.5685, 829.6768
916.0506, 857.0000
916.5327, 905.8301
917.0148, 944.3179
917.4969, 967.0381
917.9790, 979.5771
918.4611, 989.2192
918.9432, 992.3804
919.4254, 980.1602
919.9075, 945.2422
920.3896, 922.4512
920.8717, 946.0156
921.3538, 967.4937
921.8359, 948.6836
922.3181, 880.8613
922.8002, 837.2148
923.2823, 819.6128
923.7644, 812.2202
924.2465, 811.4551
924.7286, 807.9653
925.2108, 778.9531
925.6929, 726.1636
926.1750, 691.3540
926.6571, 731.0005
927.1392, 750.4780
927.6213, 691.3701
928.1035, 571.8105
928.5856, 520.7256
929.0677, 545.8047
929.5498, 577.0566
930.0319, 585.6660
930.5140, 580.8828
930.9962, 574.5195
931.4783, 566.9297
931.9604, 559.0142
932.4425, 553.9800
932.9246, 545.3384
933.4067, 529.9995
933.8889, 510.2920
934.3710, 488.7192
934.8531, 464.8755
935.3352, 442.0010
935.8173, 420.3237
936.2994, 401.8901
936.7816, 391.2031
937.2637, 385.3838
937.7458, 380.1792
938.2279, 375.6074
938.7100, 368.4492
939.1921, 356.9419
939.6743, 342.8291
940.1564, 326.0371
940.6385, 304.9678
941.1206, 293.4604
941.6027, 293.2368
942.0848, 290.5396
942.5670, 262.5146
943.0491, 230.3550
943.5312, 234.8882
944.0133, 275.3115
944.4954, 291.7778
944.9775, 227.3037
945.4597, 170.2422
945.9418, 163.4209
946.4239, 197.3042
946.9060, 207.7314
947.3881, 194.2686
947.8702, 167.7876
948.3524, 124.1250
948.8345, 79.97314
949.3166, 59.15625
949.7987, 55.64258
950.2808, 55.63135
950.7629, 56.44287
951.2451, 57.47852
951.7272, 61.57227
952.2093, 63.57666
952.6914, 52.09277
953.1735, 26.16895
953.6556, 12.11523
954.1378, 15.50977
954.6199, 25.35303
955.1020, 38.37354
955.5841, 47.06592
956.0662, 37.64648
956.5483, 1.905273
957.0305, 22.72559
957.5126, 7.274414
957.9947, 18.83154
958.4768, 46.64062
958.9589, 75.72949
959.4410, 72.29346
959.9232, 36.34570
960.4053, 2.621094
960.8874, 26.81738
961.3695, 42.68555
961.8516, 56.47803
962.3337, 67.80664
962.8159, 71.95801
963.2980, 61.22656
963.7801, 53.64990
964.2622, 53.59229
964.7443, 59.19971
965.2264, 69.83984
965.7086, 83.33105
966.1907, 84.42969
966.6728, 62.33740
967.1549, 38.02979
967.6370, 25.12158
968.1191, 21.77539
968.6013, 26.28613
969.0834, 43.31934
969.5655, 60.36426
970.0476, 80.72266
970.5297, 94.63281
971.0118, 88.18896
971.4940, 66.80371
971.9761, 49.20020
972.4582, 36.60303
972.9403, 31.93750
973.4224, 42.63281
973.9045, 56.76270
974.3867, 68.28027
974.8688, 76.63428
975.3509, 76.32129
975.8330, 67.12207
976.3151, 49.30127
976.7972, 15.54395
977.2794, 19.90527
977.7615, 22.24414
978.2435, 0.3007810
978.7256, 18.03223
979.2078, 22.15723
979.6899, 18.71875
980.1720, 4.976563
980.6541, 12.73535
981.1362, 26.89844
981.6183, 38.55176
982.1005, 36.82324
982.5826, 16.57812
983.0647, 0.9062500
983.5468, 18.43555
984.0289, 57.14355
984.5110, 106.8740
984.9932, 171.7373
985.4753, 204.7080
985.9574, 142.2432
986.4395, 94.56055
986.9216, 121.0518
987.4037, 214.6953
987.8859, 283.2783
988.3680, 326.4053
988.8501, 353.1084
989.3322, 346.6904
989.8143, 344.0303
990.2964, 391.0566
990.7786, 470.6582
991.2607, 535.5078
991.7428, 555.4600
992.2249, 591.8252
992.7070, 656.1660
993.1891, 735.3750
993.6713, 813.2881
994.1534, 887.6377
994.6355, 940.5254
995.1176, 962.3340
995.5997, 995.7930
996.0818, 1086.285
996.5640, 1192.206
997.0461, 1275.546
997.5282, 1328.474
998.0103, 1388.271
998.4924, 1457.493
998.9745, 1525.840
999.4567, 1578.663
999.9388, 1628.793
1000.421, 1703.419
1000.903, 1800.844
1001.385, 1913.535
1001.867, 2074.725
1002.349, 2207.113
1002.831, 2257.571
1003.314, 2268.225
1003.796, 2322.510
1004.278, 2425.068
1004.760, 2519.947
1005.242, 2596.328
1005.724, 2666.101
1006.206, 2750.226
1006.688, 2833.257
1007.171, 2896.768
1007.653, 2936.148
1008.135, 2964.661
1008.617, 2984.393
1009.099, 2995.693
1009.581, 2995.029
1010.063, 2985.124
1010.545, 2993.623
1011.027, 3016.061
1011.510, 3020.149
1011.992, 2992.459
1012.474, 2935.156
1012.956, 2824.746
1013.438, 2684.734
1013.920, 2596.827
1014.402, 2595.187
1014.884, 2543.391
1015.367, 2408.499
1015.849, 2246.176
1016.331, 2129.356
1016.813, 2046.545
1017.295, 1982.095
1017.777, 1941.886
1018.259, 1871.349
1018.741, 1701.620
1019.223, 1540.979
1019.706, 1464.043
1020.188, 1471.597
1020.670, 1415.103
1021.152, 1293.512
1021.634, 1183.535
1022.116, 1156.765
1022.598, 1145.389
1023.080, 1065.572
1023.563, 943.0303
1024.045, 855.9316
1024.527, 855.4912
1025.009, 834.8809
1025.491, 771.3906
1025.973, 696.8604
1026.455, 665.1670
1026.937, 662.4736
1027.419, 639.6113
1027.901, 586.6592
1028.384, 528.2959
1028.866, 472.4180
1029.348, 426.7949
1029.830, 399.1436
1030.312, 388.9795
1030.794, 378.3779
1031.276, 367.5928
1031.758, 348.1504
1032.241, 306.1973
1032.723, 263.2334
1033.205, 259.1406
1033.687, 279.1816
1034.169, 288.0508
1034.651, 262.9531
1035.133, 238.8594
1035.615, 212.8105
1036.098, 196.9082
1036.580, 210.9404
1037.062, 250.3750
1037.544, 287.0439
1038.026, 318.4629
1038.508, 337.8398
1038.990, 320.3037
1039.472, 305.1211
1039.954, 332.9658
1040.437, 401.7100
1040.919, 424.8330
1041.401, 382.9121
1041.883, 380.7461
1042.365, 477.4502
1042.847, 607.1992
1043.329, 647.2734
1043.811, 636.1943
1044.293, 654.3193
1044.776, 753.1357
1045.258, 839.7676
1045.740, 884.0771
1046.222, 923.5059
1046.704, 990.0771
1047.186, 1083.179
1047.668, 1188.272
1048.150, 1304.498
1048.633, 1427.810
1049.115, 1564.046
1049.597, 1696.784
1050.079, 1800.303
1050.561, 1884.906
1051.043, 2014.113
1051.525, 2191.792
1052.007, 2400.434
1052.490, 2643.348
1052.972, 2898.459
1053.454, 3125.232
1053.936, 3341.131
1054.418, 3576.350
1054.900, 3830.868
1055.382, 4120.734
1055.864, 4468.949
1056.346, 4832.840
1056.828, 5183.710
1057.311, 5525.642
1057.793, 5912.582
1058.275, 6343.704
1058.757, 6788.525
1059.239, 7232.876
1059.721, 7687.418
1060.203, 8146.652
1060.685, 8625.054
1061.168, 9161.620
1061.650, 9777.197
1062.132, 10368.46
1062.614, 10918.69
1063.096, 11443.53
1063.578, 11963.00
1064.060, 12463.94
1064.542, 12935.66
1065.025, 13376.76
1065.507, 13789.30
1065.989, 14205.15
1066.471, 14539.31
1066.953, 14764.32
1067.435, 14882.95
1067.917, 14891.53
1068.399, 14797.03
1068.881, 14634.44
1069.364, 14398.71
1069.846, 14128.73
1070.328, 13850.69
1070.810, 13547.36
1071.292, 13206.33
1071.774, 12825.99
1072.256, 12395.39
1072.738, 11908.50
1073.220, 11430.90
1073.703, 11049.18
1074.185, 10694.85
1074.667, 10285.75
1075.149, 9829.239
1075.631, 9387.243
1076.113, 8980.016
1076.595, 8583.418
1077.077, 8206.201
1077.559, 7825.435
1078.042, 7384.181
1078.524, 6910.204
1079.006, 6476.175
1079.488, 6098.081
1079.970, 5762.767
1080.452, 5486.889
1080.934, 5226.329
1081.416, 4945.393
1081.899, 4649.440
1082.381, 4382.450
1082.863, 4145.317
1083.345, 3935.180
1083.827, 3759.439
1084.309, 3597.404
1084.791, 3427.424
1085.273, 3254.905
1085.755, 3087.262
1086.238, 2917.719
1086.720, 2772.218
1087.202, 2657.910
1087.684, 2545.982
1088.166, 2399.210
1088.648, 2241.353
1089.130, 2112.426
1089.612, 2012.341
1090.094, 1926.540
1090.577, 1867.036
1091.059, 1798.837
1091.541, 1706.890
1092.023, 1608.400
1092.505, 1543.151
1092.987, 1502.458
1093.469, 1431.349
1093.951, 1310.412
1094.434, 1203.988
1094.916, 1171.191
1095.398, 1157.101
1095.880, 1116.149
1096.362, 1045.513
1096.844, 988.1738
1097.326, 945.3770
1097.808, 909.6592
1098.291, 876.8564
1098.773, 850.8350
1099.255, 844.7363
1099.737, 843.2051
1100.219, 823.7168
1100.701, 760.5264
1101.183, 720.5430
1101.665, 708.1475
1102.147, 706.6777
1102.630, 713.2363
1103.112, 722.4492
1103.594, 704.0205
1104.076, 658.5186
1104.558, 625.5479
1105.040, 641.0400
1105.522, 649.9893
1106.004, 637.3545
1106.486, 617.2910
1106.969, 614.8125
1107.451, 626.0391
1107.933, 628.2070
1108.415, 611.7080
1108.897, 598.8877
1109.379, 619.1602
1109.861, 645.9961
1110.343, 654.4844
1110.826, 643.2314
1111.308, 626.0664
1111.790, 604.8584
1112.272, 577.9131
1112.754, 542.4023
1113.236, 508.9736
1113.718, 485.1689
1114.200, 467.3701
1114.682, 453.9678
1115.165, 443.6055
1115.647, 441.6211
1116.129, 452.2910
1116.611, 455.3906
1117.093, 435.0654
1117.575, 398.3701
1118.057, 348.3164
1118.539, 291.8506
1119.021, 250.8672
1119.504, 237.4707
1119.986, 236.5771
1120.468, 253.7471
1120.950, 271.0498
1121.432, 250.8232
1121.914, 212.6602
1122.396, 234.3467
1122.878, 320.9229
1123.361, 389.0381
1123.843, 373.6143
1124.325, 353.7656
1124.807, 364.5205
1125.289, 395.0127
1125.771, 414.8750
1126.253, 425.0566
1126.735, 434.3896
1127.218, 441.4238
1127.700, 462.1191
1128.182, 530.9072
1128.664, 602.1230
1129.146, 625.3701
1129.628, 598.9746
1130.110, 622.2275
1130.592, 700.6299
1131.074, 759.9502
1131.557, 757.3877
1132.039, 726.7471
1132.521, 689.0322
1133.003, 655.8125
1133.485, 648.6074
1133.967, 692.7969
1134.449, 715.6270
1134.931, 715.7373
1135.413, 701.5703
1135.896, 669.8018
1136.378, 634.4434
1136.860, 629.8135
1137.342, 645.0332
1137.824, 633.4521
1138.306, 546.4697
1138.788, 479.1211
1139.270, 445.0010
1139.752, 431.7861
1140.235, 432.6533
1140.717, 439.3262
1141.199, 427.0361
1141.681, 393.1377
1142.163, 352.7676
1142.645, 301.1299
1143.127, 258.9463
1143.609, 235.1572
1144.092, 224.8477
1144.574, 224.6904
1145.056, 229.7871
1145.538, 204.8203
1146.020, 132.5820
1146.502, 65.91895
1146.984, 40.13672
1147.466, 35.04199
1147.948, 37.41602
1148.431, 46.70312
1148.913, 58.44531
1149.395, 71.98730
1149.877, 67.57227
1150.359, 19.12695
1150.841, 23.25488
1151.323, 2.887695
1151.805, 36.08203
1152.287, 28.91113
1152.770, 47.47070
1153.252, 66.98535
1153.734, 23.66992
1154.216, 17.65527
1154.698, 6.994141
1155.180, 26.00977
1155.662, 62.27441
1156.144, 95.47168
1156.627, 108.1191
1157.109, 93.28027
1157.591, 75.24512
1158.073, 54.36523
1158.555, 36.24316
1159.037, 15.80078
1159.519, 7.677734
1160.001, 51.83984
1160.484, 139.6787
1160.966, 176.2783
1161.448, 116.7256
1161.930, 63.00977
1162.412, 32.31250
1162.894, 22.28223
1163.376, 39.76562
1163.858, 71.95898
1164.340, 98.78418
1164.823, 118.9668
1165.305, 108.6055
1165.787, 18.44531
1166.269, 35.60449
1166.751, 4.574219
1167.233, 90.19727
1167.715, 97.06641
1168.197, 47.83105
1168.679, 6.375977
1169.162, 10.32617
1169.644, 14.08789
1170.126, 15.50293
1170.608, 29.86035
1171.090, 7.791992
1171.572, 82.55566
1172.054, 116.8164
1172.536, 116.8750
1173.019, 114.4512
1173.501, 117.4629
1173.983, 129.1357
1174.465, 158.5811
1174.947, 191.1641
1175.429, 214.9463
1175.911, 230.0703
1176.393, 242.9805
1176.875, 254.0439
1177.358, 266.7734
1177.840, 285.1104
1178.322, 303.7754
1178.804, 318.9814
1179.286, 333.3984
1179.768, 355.4756
1180.250, 385.4619
1180.732, 385.1738
1181.214, 350.8896
1181.697, 317.7217
1182.179, 317.0137
1182.661, 320.9131
1183.143, 311.9912
1183.625, 291.6318
1184.107, 261.4473
1184.589, 219.8164
1185.071, 193.8662
1185.554, 188.7305
1186.036, 195.5527
1186.518, 225.0566
1187.000, 248.4932
1187.482, 228.1680
1187.964, 172.6406
1188.446, 158.0469
1188.928, 189.2617
1189.411, 215.4561
1189.893, 222.8135
1190.375, 219.7090
1190.857, 208.5811
1191.339, 195.9658
1191.821, 189.1660
1192.303, 189.0830
1192.785, 190.8096
1193.267, 195.4414
1193.750, 192.4570
1194.232, 171.4756
1194.714, 151.2520
1195.196, 163.3564
1195.678, 184.9111
1196.160, 178.6445
1196.642, 122.9551
1197.124, 118.0557
1197.606, 173.0664
1198.089, 226.1230
1198.571, 240.9238
1199.053, 233.4033
1199.535, 209.4580
1200.017, 181.2422
1200.499, 173.6064
1200.981, 211.1768
1201.463, 213.7891
1201.945, 173.2520
1202.428, 133.4570
1202.910, 123.8320
1203.392, 138.1611
1203.874, 186.0537
1204.356, 250.6426
1204.838, 281.0801
1205.320, 256.1768
1205.802, 232.4229
1206.285, 211.3516
1206.767, 202.0801
1207.249, 228.6670
1207.731, 265.4824
1208.213, 264.3926
1208.695, 231.6240
1209.177, 232.5479
1209.659, 294.0439
1210.141, 331.6846
1210.624, 326.5566
1211.106, 309.7861
1211.588, 317.9502
1212.070, 339.3047
1212.552, 361.1299
1213.034, 380.1533
1213.516, 392.0205
1213.998, 398.0732
1214.480, 392.5879
1214.963, 371.4883
1215.445, 352.1650
1215.927, 367.4082
1216.409, 394.5342
1216.891, 402.0273
1217.373, 384.1650
1217.855, 352.1533
1218.337, 285.6836
1218.820, 264.1973
1219.302, 333.9248
1219.784, 430.1191
1220.266, 455.9512
1220.748, 440.5664
1221.230, 417.6934
1221.712, 387.0850
1222.194, 393.5000
1222.677, 455.4355
1223.159, 500.3398
1223.641, 494.6689
1224.123, 470.1279
1224.605, 471.5498
1225.087, 483.1875
1225.569, 492.4424
1226.051, 501.8008
1226.533, 500.1104
1227.016, 483.6396
1227.498, 459.7842
1227.980, 417.8604
1228.462, 385.2656
1228.944, 422.6240
1229.426, 495.2188
1229.908, 539.1279
1230.390, 527.3877
1230.872, 525.4092
1231.355, 535.0537
1231.837, 547.1777
1232.319, 559.7559
1232.801, 568.0176
1233.283, 560.9346
1233.765, 545.7021
1234.247, 537.4502
1234.729, 543.1514
1235.212, 542.4170
1235.694, 533.8145
1236.176, 524.7959
1236.658, 526.3232
1237.140, 525.4883
1237.622, 497.5771
1238.104, 456.9092
1238.586, 442.7900
1239.068, 474.0137
1239.551, 470.1094
1240.033, 422.2393
1240.515, 373.2627
1240.997, 360.6875
1241.479, 362.6426
1241.961, 360.7383
1242.443, 355.5186
1242.925, 348.1201
1243.407, 333.7910
1243.890, 347.2432
1244.372, 392.9658
1244.854, 437.0938
1245.336, 456.7744
1245.818, 454.6123
1246.300, 416.3115
1246.782, 357.6299
1247.264, 333.8369
1247.747, 349.2324
1248.229, 357.2988
1248.711, 353.5400
1249.193, 340.8975
1249.675, 321.4346
1250.157, 306.8301
1250.639, 318.9141
1251.121, 342.6748
1251.604, 328.8896
1252.086, 273.8379
1252.568, 225.3682
1253.050, 191.7041
1253.532, 165.8516
1254.014, 133.5166
1254.496, 119.4639
1254.978, 156.2686
1255.460, 217.9404
1255.943, 228.1172
1256.425, 190.4141
1256.907, 157.5410
1257.389, 138.3730
1257.871, 130.0273
1258.353, 138.1914
1258.835, 148.6484
1259.317, 157.9414
1259.799, 161.2930
1260.281, 135.1289
1260.764, 87.46484
1261.246, 60.38379
1261.728, 64.70508
1262.210, 81.79395
1262.692, 128.9697
1263.174, 154.9248
1263.656, 133.1191
1264.138, 79.13184
1264.621, 24.45215
1265.103, 24.76270
1265.585, 48.22754
1266.067, 38.40820
1266.549, 15.16211
1267.031, 26.16797
1267.513, 64.52051
1267.995, 91.59863
1268.478, 110.5732
1268.960, 124.2061
1269.442, 137.2793
1269.924, 167.4502
1270.406, 232.6455
1270.888, 248.0312
1271.370, 174.0049
1271.852, 117.5107
1272.334, 133.1221
1272.817, 183.3047
1273.299, 214.4658
1273.781, 223.7646
1274.263, 200.4678
1274.745, 125.1377
1275.227, 89.36328
1275.709, 106.7061
1276.191, 124.3359
1276.673, 112.7637
1277.156, 97.59082
1277.638, 127.7656
1278.120, 171.6270
1278.602, 178.0430
1279.084, 129.9688
1279.566, 110.5703
1280.048, 122.3955
1280.530, 142.2637
1281.013, 165.0469
1281.495, 179.6172
1281.977, 167.1748
1282.459, 149.9092
1282.941, 159.4160
1283.423, 179.0674
1283.905, 150.9111
1284.387, 92.84375
1284.870, 57.65039
1285.352, 87.05957
1285.834, 126.3047
1286.316, 153.5547
1286.798, 161.2236
1287.280, 137.4570
1287.762, 85.45508
1288.244, 66.21973
1288.726, 75.59961
1289.208, 83.20117
1289.691, 68.62305
1290.173, 62.26855
1290.655, 92.02734
1291.137, 118.9199
1291.619, 115.1914
1292.101, 85.77148
1292.583, 51.79004
1293.065, 18.14355
1293.548, 1.212891
1294.030, 9.216797
1294.512, 14.49805
1294.994, 5.568359
1295.476, 1.160156
1295.958, 11.23145
1296.440, 28.90918
1296.922, 18.61523
1297.405, 3.251953
1297.887, 6.457031
1298.369, 1.698242
1298.851, 7.565430
1299.333, 36.79492
1299.815, 48.85254
1300.297, 37.36328
1300.779, 0.0000000E+00
##END=



