##NAMES=Beryl
##RRUFFID=R050368
##IDEAL CHEMISTRY=Be_3_Al_2_Si_6_O_18_
##LOCALITY=Wah Wah Mountains, Utah, USA
##OWNER=RRUFF
##SOURCE=Eugene Schlepp
##DESCRIPTION=Red-violet hexagonal prism
##STATUS=The identification of this mineral has been confirmed by X-ray diffraction and chemical analysis
##URL=rruff.info/R050368
##MEASURED CHEMISTRY=(Be_0.99_Li_0.01_)_3_(Al_0.95_Fe^3+^_0.05_)_2_Si_6.00_O_18_Î‡K_0.02_Na_0.01_
115.6650, 0.0000000E+00
116.1471, 0.8965300
116.6293, 6.8236999E-02
117.1114, 6.4254999E-02
117.5935, 1.407501
118.0756, 2.897568
118.5577, 3.892700
119.0398, 4.612915
119.5220, 5.650192
120.0041, 7.442078
120.4862, 9.519867
120.9683, 10.80629
121.4504, 10.76347
121.9325, 10.87099
122.4147, 12.71538
122.8968, 16.46826
123.3789, 19.59451
123.8610, 20.12073
124.3431, 19.59210
124.8252, 19.33678
125.3074, 19.69641
125.7895, 20.59879
126.2716, 21.94812
126.7537, 23.92834
127.2358, 26.02882
127.7179, 28.15877
128.2001, 30.18597
128.6822, 31.94737
129.1643, 33.30971
129.6464, 34.28674
130.1285, 35.27684
130.6106, 35.84100
131.0928, 36.90564
131.5749, 39.19859
132.0570, 42.32959
132.5391, 45.46152
133.0212, 47.86708
133.5033, 49.38690
133.9855, 51.22252
134.4676, 53.60321
134.9497, 56.17557
135.4318, 58.95590
135.9139, 62.18761
136.3960, 65.60886
136.8782, 69.03630
137.3603, 72.45863
137.8424, 76.17107
138.3245, 80.37051
138.8066, 83.45261
139.2887, 84.26204
139.7709, 82.33766
140.2530, 78.52501
140.7351, 73.17833
141.2172, 66.47360
141.6993, 60.09438
142.1814, 53.33519
142.6636, 46.58955
143.1457, 41.02898
143.6278, 37.29015
144.1099, 34.51796
144.5920, 31.92072
145.0741, 29.43344
145.5563, 26.96129
146.0384, 24.32877
146.5205, 21.48462
147.0026, 18.72513
147.4847, 16.02550
147.9668, 13.52696
148.4490, 11.40173
148.9311, 9.761108
149.4132, 8.323547
149.8953, 6.705811
150.3774, 4.488052
150.8595, 3.050888
151.3417, 2.826614
151.8238, 3.096039
152.3059, 3.359055
152.7880, 3.460663
153.2701, 3.358032
153.7522, 3.007187
154.2344, 2.212097
154.7165, 1.376740
155.1986, 0.4010160
155.6807, 0.5948490
156.1628, 1.419113
156.6449, 1.966797
157.1271, 2.307678
157.6092, 2.716309
158.0913, 3.317520
158.5734, 3.805496
159.0555, 4.345306
159.5376, 4.784531
160.0198, 4.585739
160.5019, 3.241425
160.9840, 1.112518
161.4661, 0.3606570
161.9482, 0.8561250
162.4303, 1.085007
162.9125, 1.518311
163.3946, 2.130127
163.8767, 2.542252
164.3588, 2.361847
164.8409, 1.876160
165.3230, 1.609589
165.8052, 1.872055
166.2873, 2.140244
166.7694, 1.523392
167.2515, 0.4224240
167.7336, 1.611984
168.2157, 0.3101810
168.6979, 2.091980
169.1800, 4.001755
169.6621, 4.671432
170.1442, 4.470612
170.6263, 4.455307
171.1084, 4.870132
171.5906, 5.069397
172.0727, 4.654922
172.5548, 3.966278
173.0369, 3.505081
173.5190, 3.977859
174.0011, 4.930283
174.4833, 5.510498
174.9654, 5.147659
175.4475, 4.980347
175.9296, 5.177719
176.4117, 5.747986
176.8938, 6.719070
177.3760, 8.183548
177.8581, 10.16974
178.3402, 11.50662
178.8223, 11.34889
179.3044, 11.43709
179.7865, 12.86441
180.2687, 15.19531
180.7508, 16.99377
181.2329, 16.88164
181.7150, 14.60349
182.1971, 13.69901
182.6792, 14.94765
183.1614, 16.69188
183.6435, 18.23409
184.1256, 19.45077
184.6077, 20.26556
185.0898, 20.63866
185.5719, 20.49100
186.0540, 19.73537
186.5362, 17.38042
187.0183, 14.98396
187.5004, 14.28794
187.9825, 15.55022
188.4646, 17.04139
188.9467, 16.92258
189.4289, 15.61541
189.9110, 14.83717
190.3931, 15.33135
190.8752, 16.47070
191.3573, 17.38861
191.8394, 18.10028
192.3216, 18.35930
192.8037, 17.62953
193.2858, 16.29587
193.7679, 15.22730
194.2500, 14.83691
194.7321, 15.01407
195.2143, 15.48080
195.6964, 16.55835
196.1785, 17.40363
196.6606, 17.55925
197.1427, 17.18453
197.6248, 16.61818
198.1070, 16.03912
198.5891, 15.44576
199.0712, 14.83042
199.5533, 14.27277
200.0354, 13.58438
200.5175, 12.43667
200.9997, 11.08929
201.4818, 10.11115
201.9639, 10.03769
202.4460, 10.89440
202.9281, 11.56520
203.4102, 12.10856
203.8924, 12.38506
204.3745, 12.22118
204.8566, 11.71555
205.3387, 11.09744
205.8208, 10.54423
206.3029, 10.04332
206.7851, 9.738831
207.2672, 9.964401
207.7493, 10.05403
208.2314, 9.492592
208.7135, 8.474579
209.1956, 7.709366
209.6778, 7.906364
210.1599, 9.256226
210.6420, 10.05495
211.1241, 10.29744
211.6062, 10.11178
212.0883, 9.311729
212.5705, 8.029091
213.0526, 6.755173
213.5347, 5.928864
214.0168, 5.633545
214.4989, 5.312408
214.9810, 4.509331
215.4632, 4.038651
215.9453, 4.836029
216.4274, 6.817993
216.9095, 8.536758
217.3916, 8.672462
217.8737, 7.186478
218.3559, 6.027779
218.8380, 4.789268
219.3201, 4.201485
219.8022, 5.460129
220.2843, 8.641006
220.7664, 11.32520
221.2486, 11.05933
221.7307, 8.520752
222.2128, 6.730560
222.6949, 6.369820
223.1770, 6.813843
223.6591, 7.456047
224.1413, 8.287399
224.6234, 9.237717
225.1055, 10.48819
225.5876, 11.74213
226.0697, 12.55736
226.5518, 12.40128
227.0340, 11.83264
227.5161, 11.72875
227.9982, 12.17345
228.4803, 12.76514
228.9624, 13.18950
229.4445, 13.62701
229.9267, 14.34937
230.4088, 15.48168
230.8909, 16.92591
231.3730, 18.57378
231.8551, 20.59741
232.3372, 22.38017
232.8194, 23.36787
233.3015, 24.09395
233.7836, 25.29868
234.2657, 27.48457
234.7478, 30.01046
235.2299, 31.34098
235.7121, 30.93069
236.1942, 30.37943
236.6763, 29.94846
237.1584, 29.72090
237.6405, 29.83649
238.1227, 30.38550
238.6048, 31.20540
239.0869, 31.89661
239.5690, 32.47178
240.0511, 32.85355
240.5332, 33.12143
241.0154, 33.20264
241.4975, 32.89421
241.9796, 32.10227
242.4617, 31.14000
242.9438, 30.79523
243.4259, 31.25864
243.9081, 32.13277
244.3902, 33.53765
244.8723, 35.18750
245.3544, 36.78312
245.8365, 38.22730
246.3186, 39.69051
246.8007, 41.59975
247.2829, 44.35995
247.7650, 46.99237
248.2471, 48.96065
248.7292, 51.03935
249.2113, 54.05508
249.6934, 58.26159
250.1756, 63.12567
250.6577, 67.66956
251.1398, 72.54806
251.6219, 75.92218
252.1040, 78.93459
252.5861, 79.92458
253.0683, 76.84747
253.5504, 69.27258
254.0325, 59.06448
254.5146, 49.13309
254.9967, 39.09642
255.4788, 30.36768
255.9610, 22.80037
256.4431, 16.62769
256.9252, 12.27568
257.4073, 9.779633
257.8894, 8.437309
258.3716, 7.367554
258.8537, 6.721596
259.3358, 5.981689
259.8179, 5.112221
260.3000, 4.178291
260.7821, 3.102531
261.2643, 1.898300
261.7464, 0.9119720
262.2285, 0.5581510
262.7106, 1.002754
263.1927, 1.403557
263.6748, 2.012054
264.1570, 2.403915
264.6391, 1.934235
265.1212, 0.6065900
265.6033, 0.5461120
266.0854, 0.4748000
266.5675, 0.9081730
267.0497, 2.075294
267.5318, 3.198318
268.0139, 3.960808
268.4960, 3.861847
268.9781, 2.929298
269.4602, 2.029602
269.9424, 1.743408
270.4245, 2.099533
270.9066, 2.790154
271.3887, 4.135010
271.8708, 5.578209
272.3529, 6.821304
272.8351, 7.841927
273.3172, 8.461235
273.7993, 8.512314
274.2814, 8.057861
274.7635, 7.449661
275.2456, 6.431580
275.7278, 5.538979
276.2099, 5.167877
276.6920, 5.280479
277.1741, 5.630486
277.6562, 6.326019
278.1383, 7.046196
278.6204, 7.187569
279.1025, 6.429329
279.5847, 5.737328
280.0668, 5.667458
280.5489, 6.203583
281.0310, 7.192238
281.5131, 8.769058
281.9952, 10.56930
282.4774, 12.15466
282.9595, 13.59393
283.4416, 14.66379
283.9237, 15.18498
284.4058, 15.23282
284.8879, 14.94432
285.3701, 14.08111
285.8522, 13.24083
286.3343, 13.09237
286.8164, 13.60096
287.2985, 14.18137
287.7806, 14.48664
288.2628, 14.62065
288.7449, 14.95016
289.2270, 15.62592
289.7091, 16.25405
290.1912, 16.41820
290.6733, 16.26016
291.1555, 16.26719
291.6376, 16.77759
292.1197, 17.62814
292.6018, 18.32928
293.0839, 18.63001
293.5660, 19.22697
294.0482, 20.89800
294.5303, 23.16008
295.0124, 25.13704
295.4945, 26.09410
295.9766, 26.68750
296.4587, 28.42436
296.9409, 31.84032
297.4230, 34.90030
297.9051, 36.11827
298.3872, 36.52205
298.8693, 37.20149
299.3514, 38.32207
299.8336, 40.04479
300.3157, 42.84527
300.7978, 46.95000
301.2799, 51.10820
301.7620, 55.02307
302.2441, 58.69168
302.7263, 62.05904
303.2084, 65.08664
303.6905, 67.99005
304.1726, 70.99746
304.6547, 74.10931
305.1368, 77.25900
305.6190, 80.69287
306.1011, 83.94309
306.5832, 86.59727
307.0653, 88.64097
307.5474, 90.46155
308.0295, 91.92474
308.5117, 93.15068
308.9938, 95.77286
309.4759, 100.7882
309.9580, 106.3929
310.4401, 111.2141
310.9222, 115.4610
311.4044, 120.0193
311.8865, 125.5329
312.3686, 131.8135
312.8507, 138.0257
313.3328, 143.6910
313.8149, 150.1631
314.2971, 158.1185
314.7792, 167.3135
315.2613, 177.4266
315.7434, 188.4987
316.2255, 200.3307
316.7076, 212.1590
317.1898, 223.3838
317.6719, 236.6592
318.1540, 255.2331
318.6361, 275.6491
319.1182, 294.5594
319.6003, 311.3771
320.0825, 325.5155
320.5646, 337.4351
321.0467, 347.9885
321.5288, 350.8911
322.0109, 342.6017
322.4930, 326.0880
322.9752, 301.6310
323.4573, 269.1985
323.9394, 233.8839
324.4215, 198.7540
324.9036, 164.0659
325.3857, 133.2315
325.8679, 106.9224
326.3500, 85.29230
326.8321, 68.61834
327.3142, 56.47537
327.7963, 46.74995
328.2784, 38.36751
328.7606, 31.32505
329.2427, 25.58488
329.7248, 21.41640
330.2069, 18.19548
330.6890, 15.80885
331.1711, 13.97087
331.6533, 12.05094
332.1354, 9.483788
332.6175, 6.799080
333.0996, 5.255005
333.5817, 5.224632
334.0638, 5.104599
334.5460, 3.885910
335.0281, 2.197060
335.5102, 0.6341480
335.9923, 0.7780380
336.4744, 1.751396
336.9565, 1.692329
337.4387, 0.5191350
337.9208, 0.2709270
338.4029, 0.2314830
338.8850, 1.031807
339.3671, 1.051544
339.8492, 0.1520310
340.3314, 0.7208400
340.8135, 0.7738110
341.2956, 0.1348340
341.7777, 0.4071730
342.2598, 0.7277600
342.7419, 0.8906630
343.2241, 0.9174800
343.7062, 0.8350980
344.1883, 0.7749100
344.6704, 0.8022160
345.1525, 0.8947070
345.6346, 1.054108
346.1168, 1.345695
346.5989, 1.493774
347.0810, 1.069832
347.5631, 0.3786160
348.0452, 4.0268000E-02
348.5273, 5.2870000E-03
349.0095, 0.3184890
349.4916, 0.9067080
349.9737, 1.769333
350.4558, 2.327080
350.9379, 2.141129
351.4200, 1.570358
351.9022, 1.265564
352.3843, 1.397240
352.8664, 1.398293
353.3485, 0.5228880
353.8306, 0.8930130
354.3127, 1.373306
354.7949, 0.1438220
355.2770, 1.549408
355.7591, 2.158859
356.2412, 1.738632
356.7233, 0.9801480
357.2054, 0.1278460
357.6876, 1.340744
358.1697, 2.293144
358.6518, 2.939392
359.1339, 3.308807
359.6160, 3.244690
360.0981, 2.863907
360.5803, 2.805893
361.0624, 3.367950
361.5445, 4.115288
362.0266, 4.678558
362.5087, 5.081131
362.9908, 5.554626
363.4730, 6.236755
363.9551, 7.078300
364.4372, 7.946655
364.9193, 9.019760
365.4014, 9.828728
365.8835, 9.916847
366.3657, 9.626320
366.8478, 9.625351
367.3299, 10.12634
367.8120, 11.02148
368.2941, 12.26459
368.7762, 13.99445
369.2584, 15.43299
369.7405, 16.09069
370.2226, 16.62707
370.7047, 17.64051
371.1868, 19.22212
371.6689, 21.18353
372.1511, 23.38129
372.6332, 25.83744
373.1153, 28.55106
373.5974, 31.83098
374.0795, 35.06238
374.5616, 37.50826
375.0438, 39.64333
375.5259, 42.83199
376.0080, 47.91673
376.4901, 54.29128
376.9722, 59.78775
377.4543, 63.33469
377.9365, 67.38347
378.4186, 72.46716
378.9007, 78.05021
379.3828, 83.74615
379.8649, 89.38732
380.3470, 94.58515
380.8292, 98.78353
381.3113, 101.8053
381.7934, 104.2430
382.2755, 105.8681
382.7576, 107.1974
383.2397, 108.2496
383.7219, 109.2229
384.2040, 110.4310
384.6861, 112.0039
385.1682, 114.0175
385.6503, 117.7070
386.1324, 124.6426
386.6146, 131.5990
387.0967, 137.2787
387.5788, 142.8830
388.0609, 149.9678
388.5430, 159.1752
389.0251, 170.0542
389.5073, 181.8530
389.9894, 194.9270
390.4715, 208.2842
390.9536, 221.3059
391.4357, 234.9468
391.9178, 250.9559
392.4000, 268.7625
392.8821, 285.5007
393.3642, 298.8275
393.8463, 308.7224
394.3284, 314.4824
394.8105, 317.0085
395.2927, 313.9026
395.7748, 303.1495
396.2569, 286.6428
396.7390, 267.1347
397.2211, 245.6646
397.7032, 222.9252
398.1854, 200.1018
398.6675, 176.4639
399.1496, 154.6224
399.6317, 135.1140
400.1138, 117.6621
400.5959, 102.4390
401.0780, 89.48019
401.5602, 78.22729
402.0423, 68.36179
402.5244, 59.87614
403.0065, 52.61900
403.4886, 46.87540
403.9707, 42.04008
404.4529, 37.65100
404.9350, 33.76693
405.4171, 30.47675
405.8992, 27.92274
406.3813, 25.89063
406.8634, 24.00010
407.3456, 22.19660
407.8277, 20.87414
408.3098, 20.68620
408.7919, 20.96547
409.2740, 20.48221
409.7561, 18.84817
410.2383, 17.18034
410.7204, 16.36041
411.2025, 16.13895
411.6846, 15.49119
412.1667, 13.91190
412.6488, 12.22946
413.1310, 11.51375
413.6131, 11.78603
414.0952, 12.24952
414.5773, 13.07449
415.0594, 13.87662
415.5415, 14.21988
416.0237, 14.04322
416.5058, 13.53294
416.9879, 12.77172
417.4700, 11.84253
417.9521, 11.18955
418.4342, 10.83482
418.9164, 10.67715
419.3985, 10.86851
419.8806, 11.18481
420.3627, 11.39863
420.8448, 11.43266
421.3269, 11.08101
421.8091, 9.929474
422.2912, 7.378044
422.7733, 5.822365
423.2554, 5.835899
423.7375, 6.259659
424.2196, 6.588760
424.7018, 6.734695
425.1839, 6.687172
425.6660, 6.407700
426.1481, 5.958672
426.6302, 5.758385
427.1123, 5.700752
427.5945, 6.078568
428.0766, 7.302635
428.5587, 8.778969
429.0408, 9.955658
429.5229, 10.65581
430.0050, 11.03744
430.4872, 11.22243
430.9693, 11.07339
431.4514, 11.29902
431.9335, 12.12924
432.4156, 13.17757
432.8977, 14.28992
433.3799, 15.50193
433.8620, 16.91943
434.3441, 18.52637
434.8262, 20.43727
435.3083, 23.21115
435.7904, 27.39333
436.2726, 30.89200
436.7547, 32.04445
437.2368, 32.67362
437.7189, 34.47826
438.2010, 37.82856
438.6831, 41.50896
439.1653, 44.39378
439.6474, 46.66447
440.1295, 49.38499
440.6116, 52.83658
441.0937, 56.51867
441.5758, 60.17978
442.0580, 63.74588
442.5401, 66.91576
443.0222, 69.92425
443.5043, 72.26129
443.9864, 73.17982
444.4685, 72.79953
444.9507, 72.30243
445.4328, 72.43539
445.9149, 72.57091
446.3970, 71.15336
446.8791, 67.74781
447.3612, 64.40234
447.8434, 61.96430
448.3255, 59.74994
448.8076, 56.87726
449.2897, 53.19968
449.7718, 49.22562
450.2539, 45.45973
450.7361, 41.91354
451.2182, 37.88970
451.7003, 32.45711
452.1824, 27.63348
452.6645, 24.31812
453.1466, 22.04881
453.6288, 20.08218
454.1109, 18.08761
454.5930, 16.17229
455.0751, 14.51257
455.5572, 13.01296
456.0393, 12.00166
456.5215, 11.94424
457.0036, 11.89670
457.4857, 11.27368
457.9678, 10.12986
458.4499, 8.837219
458.9320, 7.623825
459.4142, 6.522186
459.8963, 5.752182
460.3784, 5.594727
460.8605, 5.270050
461.3426, 4.401184
461.8247, 3.375206
462.3069, 2.543983
462.7890, 1.995750
463.2711, 1.636734
463.7532, 1.437027
464.2353, 1.380630
464.7174, 1.266670
465.1996, 1.106270
465.6817, 0.8266600
466.1638, 0.1944960
466.6459, 0.5996250
467.1280, 1.047119
467.6101, 0.8037640
468.0923, 0.3003770
468.5744, 6.6215999E-02
469.0565, 0.2962880
469.5386, 0.3616100
470.0207, 0.2222900
470.5028, 5.2956000E-02
470.9850, 0.3683010
471.4671, 0.7447280
471.9492, 1.055168
472.4313, 1.444389
472.9134, 1.651924
473.3955, 1.202721
473.8777, 0.1476520
474.3598, 0.7619250
474.8419, 0.9016340
475.3240, 0.3747330
475.8061, 0.1998210
476.2882, 0.5272750
476.7704, 0.9687120
477.2525, 1.602562
477.7346, 2.242294
478.2167, 2.648163
478.6988, 2.766609
479.1809, 2.757156
479.6631, 2.865036
480.1452, 3.196808
480.6273, 3.086296
481.1094, 1.539139
481.5915, 0.5747070
482.0736, 1.249100
482.5558, 2.898582
483.0379, 4.360207
483.5200, 5.080093
484.0021, 5.346581
484.4842, 5.762886
484.9663, 6.451668
485.4485, 6.712143
485.9306, 5.851799
486.4127, 4.996750
486.8948, 4.835083
487.3769, 5.354996
487.8590, 6.266289
488.3412, 7.890945
488.8233, 9.646881
489.3054, 10.21119
489.7875, 9.484795
490.2696, 8.754539
490.7517, 8.493965
491.2339, 8.699997
491.7160, 9.356491
492.1981, 10.69076
492.6802, 11.82292
493.1623, 12.00509
493.6444, 11.86005
494.1266, 12.45158
494.6087, 13.94283
495.0908, 15.51000
495.5729, 16.40116
496.0550, 16.59016
496.5371, 16.85722
497.0193, 17.09927
497.5014, 17.47226
497.9835, 18.07550
498.4656, 18.85607
498.9477, 19.80007
499.4298, 20.88549
499.9120, 22.00210
500.3941, 23.02087
500.8762, 24.00822
501.3583, 24.47250
501.8404, 23.38048
502.3225, 22.79193
502.8047, 23.88650
503.2868, 25.98890
503.7689, 27.82698
504.2510, 28.80321
504.7331, 29.16953
505.2152, 29.25329
505.6974, 28.92668
506.1795, 28.96262
506.6616, 29.71114
507.1437, 30.72580
507.6258, 31.52898
508.1079, 32.20996
508.5901, 33.31860
509.0722, 35.73470
509.5543, 38.48942
510.0364, 40.08482
510.5185, 40.44989
511.0006, 40.41483
511.4828, 40.33641
511.9649, 40.48514
512.4470, 41.47362
512.9291, 43.45503
513.4112, 45.55429
513.8933, 47.69568
514.3754, 49.74849
514.8575, 51.34055
515.3397, 52.57423
515.8218, 54.21272
516.3039, 56.91104
516.7860, 60.48367
517.2681, 63.54482
517.7502, 65.22358
518.2324, 67.47474
518.7145, 70.95979
519.1966, 74.82514
519.6787, 78.16568
520.1608, 80.90034
520.6429, 83.75501
521.1251, 87.65372
521.6072, 92.55811
522.0893, 96.30397
522.5714, 98.22752
523.0535, 100.0301
523.5356, 102.2790
524.0178, 104.7505
524.4999, 107.4469
524.9820, 110.4720
525.4641, 112.6835
525.9462, 112.7170
526.4283, 110.9546
526.9105, 109.2931
527.3926, 108.2805
527.8747, 106.5175
528.3568, 102.4497
528.8389, 96.66516
529.3210, 91.17653
529.8032, 86.49517
530.2853, 81.80487
530.7674, 76.56174
531.2495, 71.07212
531.7316, 65.84467
532.2137, 60.96590
532.6959, 56.46968
533.1780, 52.44747
533.6601, 48.95860
534.1422, 45.55659
534.6243, 42.19540
535.1064, 38.93035
535.5886, 35.60896
536.0707, 32.45657
536.5528, 29.81841
537.0349, 27.84399
537.5170, 26.35553
537.9991, 25.27567
538.4813, 24.81046
538.9634, 23.68249
539.4455, 21.26414
539.9276, 18.79814
540.4097, 16.49668
540.8918, 14.62215
541.3740, 13.85333
541.8561, 15.00278
542.3382, 16.19316
542.8203, 14.72047
543.3024, 10.88914
543.7845, 7.579887
544.2667, 5.426376
544.7488, 4.142509
545.2309, 3.873016
545.7130, 4.465515
546.1951, 4.363152
546.6772, 2.568443
547.1594, 0.7236250
547.6415, 2.8221000E-02
548.1236, 0.1358640
548.6057, 7.3738001E-02
549.0878, 0.5534060
549.5699, 1.379486
550.0521, 1.779518
550.5342, 1.534019
551.0163, 1.526405
551.4984, 1.882721
551.9805, 2.308319
552.4626, 2.893867
552.9448, 3.416527
553.4269, 3.465080
553.9090, 2.825531
554.3911, 1.824860
554.8732, 0.9227290
555.3553, 5.9730999E-02
555.8375, 0.2944180
556.3196, 0.2145460
556.8017, 0.9283220
557.2838, 1.602188
557.7659, 2.144501
558.2480, 2.281441
558.7302, 1.745293
559.2123, 0.9666600
559.6944, 0.2780840
560.1765, 0.2995910
560.6586, 0.6603320
561.1407, 0.7685240
561.6229, 0.6537550
562.1050, 0.2763290
562.5871, 0.4331740
563.0692, 0.8482130
563.5513, 0.7172850
564.0334, 0.5352780
564.5156, 0.6153410
564.9977, 0.8108670
565.4798, 0.7497710
565.9619, 0.2951580
566.4440, 0.1676410
566.9261, 0.1535570
567.4083, 1.750725
567.8904, 2.128044
568.3725, 1.8417001E-02
568.8546, 2.083466
569.3367, 3.349823
569.8188, 3.899750
570.3010, 3.755638
570.7831, 2.777847
571.2652, 1.896080
571.7473, 2.547607
572.2294, 4.478264
572.7115, 5.482178
573.1937, 4.841911
573.6758, 4.142036
574.1579, 4.966438
574.6400, 6.879120
575.1221, 8.158752
575.6042, 7.892792
576.0864, 7.816963
576.5685, 9.012085
577.0506, 10.89193
577.5327, 12.53005
578.0148, 13.68704
578.4969, 14.58620
578.9791, 15.48994
579.4612, 16.41624
579.9433, 16.89575
580.4254, 16.43174
580.9075, 16.09682
581.3896, 15.96242
581.8718, 16.12053
582.3539, 16.76234
582.8360, 17.88630
583.3181, 19.09541
583.8002, 20.02840
584.2823, 20.70823
584.7645, 21.23991
585.2466, 21.52433
585.7287, 21.95602
586.2108, 22.80569
586.6929, 23.89068
587.1750, 25.02907
587.6572, 26.31478
588.1393, 27.18272
588.6214, 27.12913
589.1035, 26.63513
589.5856, 26.21786
590.0677, 25.96542
590.5499, 25.99168
591.0320, 26.38518
591.5141, 27.08961
591.9962, 27.89928
592.4783, 29.27100
592.9604, 30.07285
593.4426, 29.84947
593.9247, 29.42916
594.4068, 29.37231
594.8889, 29.65355
595.3710, 29.99176
595.8531, 30.25676
596.3353, 30.35816
596.8174, 29.94926
597.2995, 28.88236
597.7816, 28.18958
598.2637, 28.33311
598.7458, 28.68038
599.2280, 28.73767
599.7101, 28.52649
600.1922, 28.16437
600.6743, 27.53770
601.1564, 26.90407
601.6385, 26.51922
602.1207, 26.30563
602.6028, 25.97382
603.0849, 25.41118
603.5670, 24.92184
604.0491, 24.96008
604.5313, 25.68314
605.0134, 25.91207
605.4955, 25.45344
605.9776, 24.82092
606.4597, 23.72735
606.9418, 22.68242
607.4240, 22.56179
607.9061, 23.56563
608.3882, 24.74226
608.8703, 24.88130
609.3524, 24.04472
609.8345, 23.28606
610.3167, 22.46362
610.7988, 22.07911
611.2809, 22.91170
611.7630, 24.18018
612.2451, 24.72008
612.7272, 24.26715
613.2094, 23.84516
613.6915, 23.67491
614.1736, 23.82565
614.6557, 24.65318
615.1378, 26.05354
615.6199, 27.25370
616.1021, 27.78957
616.5842, 27.90211
617.0663, 28.16288
617.5484, 28.72149
618.0305, 29.14970
618.5126, 29.53223
618.9948, 29.66864
619.4769, 29.34653
619.9590, 28.68101
620.4411, 27.89352
620.9232, 27.08970
621.4053, 26.40527
621.8875, 26.25666
622.3696, 26.60661
622.8517, 26.00210
623.3338, 23.87210
623.8159, 21.45363
624.2980, 19.82140
624.7802, 18.68325
625.2623, 17.13799
625.7444, 14.87917
626.2265, 12.81728
626.7086, 10.88087
627.1907, 9.327911
627.6729, 8.735245
628.1550, 9.105415
628.6371, 9.643806
629.1192, 9.656738
629.6013, 9.205505
630.0834, 8.779808
630.5656, 8.270058
631.0477, 7.976250
631.5298, 8.289879
632.0119, 8.539169
632.4940, 8.009911
632.9761, 6.850006
633.4583, 5.986557
633.9404, 5.963783
634.4225, 6.558876
634.9046, 7.580734
635.3867, 8.993469
635.8688, 10.28957
636.3510, 11.33395
636.8331, 12.15102
637.3152, 12.72727
637.7973, 13.03601
638.2794, 13.41084
638.7615, 14.00796
639.2437, 14.50436
639.7258, 14.60957
640.2079, 14.59846
640.6900, 14.89046
641.1721, 15.57346
641.6542, 16.38014
642.1364, 17.10404
642.6185, 17.71944
643.1006, 17.78526
643.5827, 16.97909
644.0648, 16.33591
644.5469, 16.40905
645.0291, 16.69182
645.5112, 16.60549
645.9933, 16.12208
646.4754, 16.06889
646.9575, 17.35001
647.4396, 18.86224
647.9218, 19.27921
648.4039, 18.80828
648.8860, 18.47477
649.3681, 18.69498
649.8502, 19.20113
650.3323, 19.59689
650.8145, 19.85477
651.2966, 20.12788
651.7787, 20.00250
652.2608, 20.36456
652.7429, 21.94942
653.2250, 23.96233
653.7072, 25.24646
654.1893, 25.55821
654.6714, 25.95119
655.1535, 27.72350
655.6356, 30.36763
656.1177, 31.85709
656.5999, 31.90508
657.0820, 32.83340
657.5641, 36.00743
658.0462, 40.39940
658.5283, 44.10660
659.0104, 46.90002
659.4926, 50.25098
659.9747, 54.53733
660.4568, 59.25333
660.9389, 64.11563
661.4210, 69.16037
661.9031, 74.32351
662.3853, 79.63245
662.8674, 85.55134
663.3495, 92.97511
663.8316, 102.0321
664.3137, 110.7006
664.7958, 118.4278
665.2780, 126.7606
665.7601, 136.4834
666.2422, 147.2749
666.7243, 158.9233
667.2064, 171.4578
667.6885, 184.0273
668.1707, 196.5714
668.6528, 208.7379
669.1349, 219.6526
669.6170, 229.6512
670.0991, 240.3513
670.5812, 252.4700
671.0634, 265.4959
671.5455, 278.5099
672.0276, 290.9620
672.5097, 305.2943
672.9918, 321.1391
673.4739, 339.2399
673.9561, 359.8705
674.4382, 382.6910
674.9203, 407.1834
675.4024, 433.1447
675.8845, 461.9878
676.3666, 495.6118
676.8488, 532.5308
677.3309, 569.3660
677.8130, 606.0251
678.2951, 645.7003
678.7772, 690.7878
679.2593, 738.4250
679.7415, 784.5535
680.2236, 830.6509
680.7057, 869.7244
681.1878, 906.1504
681.6699, 931.3397
682.1520, 942.9568
682.6342, 940.4154
683.1163, 922.2460
683.5984, 888.2507
684.0805, 842.8176
684.5626, 787.6537
685.0447, 724.2754
685.5269, 659.2278
686.0090, 591.3725
686.4911, 527.4025
686.9732, 469.8039
687.4553, 418.3850
687.9374, 373.2060
688.4196, 334.2310
688.9017, 299.4964
689.3838, 269.0586
689.8659, 242.6162
690.3480, 220.9305
690.8301, 202.8675
691.3123, 186.6996
691.7944, 171.8270
692.2765, 158.2691
692.7586, 146.0079
693.2407, 135.0018
693.7228, 124.9791
694.2050, 115.7992
694.6871, 107.7975
695.1692, 101.7206
695.6513, 96.39989
696.1334, 90.33559
696.6155, 83.51713
697.0977, 77.58641
697.5798, 73.69434
698.0619, 70.19281
698.5440, 65.74124
699.0261, 60.78082
699.5082, 56.25920
699.9904, 52.46031
700.4725, 49.19804
700.9546, 46.30661
701.4367, 43.77757
701.9188, 41.41802
702.4009, 39.31465
702.8831, 37.21947
703.3652, 35.08065
703.8473, 32.90869
704.3294, 30.69168
704.8115, 28.43993
705.2936, 26.20010
705.7758, 23.54749
706.2579, 21.36121
706.7400, 20.87225
707.2221, 21.30401
707.7042, 20.77541
708.1863, 18.89153
708.6685, 16.82909
709.1505, 15.67953
709.6326, 15.30428
710.1147, 14.69410
710.5969, 13.82764
711.0790, 12.76034
711.5611, 11.12954
712.0432, 9.629898
712.5253, 8.837173
713.0074, 8.572136
713.4896, 8.231552
713.9717, 7.592186
714.4538, 6.786629
714.9359, 5.790924
715.4180, 4.743210
715.9001, 4.031578
716.3823, 3.696838
716.8644, 3.352768
717.3465, 2.701469
717.8286, 1.847847
718.3107, 1.161629
718.7928, 0.6502230
719.2750, 0.3052290
719.7571, 9.6069001E-02
720.2392, 7.1631998E-02
720.7213, 0.5151210
721.2034, 1.105354
721.6855, 1.238480
722.1677, 0.6826780
722.6498, 0.1714170
723.1319, 1.243233
723.6140, 2.307526
724.0961, 2.837257
724.5782, 2.823738
725.0604, 2.683945
725.5425, 2.649857
726.0246, 2.597816
726.5067, 2.245255
726.9888, 1.408966
727.4709, 0.8302540
727.9531, 0.3679960
728.4352, 0.3172610
728.9173, 1.164429
729.3994, 2.300087
729.8815, 3.015541
730.3636, 3.149498
730.8458, 2.826622
731.3279, 1.800964
731.8100, 0.5418090
732.2921, 0.1281810
732.7742, 0.2749560
733.2563, 0.5115660
733.7385, 1.107605
734.2206, 1.518463
734.7027, 0.9304280
735.1848, 0.7775040
735.6669, 1.694473
736.1490, 1.226830
736.6312, 0.7005000
737.1133, 0.1348270
737.5954, 0.2661130
738.0775, 0.2250060
738.5596, 0.1876070
739.0417, 0.5501020
739.5239, 0.7925800
740.0060, 0.7041700
740.4881, 0.1246800
740.9702, 1.485176
741.4523, 2.821373
741.9344, 4.012794
742.4166, 4.884521
742.8987, 5.264862
743.3808, 5.213173
743.8629, 5.017967
744.3450, 4.498619
744.8271, 4.168816
745.3093, 4.100800
745.7914, 4.174377
746.2735, 4.195641
746.7556, 4.338715
747.2377, 5.027512
747.7198, 6.529587
748.2020, 8.118690
748.6841, 9.466881
749.1662, 10.37747
749.6483, 10.30347
750.1304, 9.391960
750.6125, 8.703926
751.0947, 8.768600
751.5768, 9.454506
752.0589, 10.58221
752.5410, 12.33687
753.0231, 13.59944
753.5052, 14.13097
753.9874, 14.48398
754.4695, 14.70287
754.9516, 14.91165
755.4337, 15.26183
755.9158, 15.76616
756.3979, 16.26680
756.8801, 16.67039
757.3622, 17.10017
757.8443, 17.52630
758.3264, 18.01447
758.8085, 18.88824
759.2906, 20.19604
759.7728, 21.58691
760.2549, 22.70876
760.7370, 23.63852
761.2191, 24.68538
761.7012, 26.03475
762.1833, 27.00232
762.6655, 27.23996
763.1476, 27.29347
763.6297, 27.36040
764.1118, 27.54308
764.5939, 28.15812
765.0760, 29.52403
765.5582, 30.83669
766.0403, 31.51756
766.5224, 32.01210
767.0045, 33.07928
767.4866, 34.47258
767.9688, 35.05404
768.4509, 34.22276
768.9330, 32.81873
769.4151, 32.31210
769.8972, 32.74960
770.3793, 32.83196
770.8615, 32.56887
771.3436, 31.81969
771.8257, 30.25190
772.3078, 28.36108
772.7899, 26.79491
773.2720, 25.54176
773.7542, 24.73297
774.2363, 24.94960
774.7184, 24.99073
775.2005, 24.10746
775.6826, 22.76038
776.1647, 21.57409
776.6469, 20.65279
777.1290, 19.70549
777.6111, 18.48292
778.0932, 17.16079
778.5753, 16.06365
779.0574, 15.14550
779.5396, 14.32368
780.0217, 13.61855
780.5038, 12.93030
780.9859, 12.07012
781.4680, 11.11478
781.9501, 10.48982
782.4323, 10.76971
782.9144, 10.51507
783.3965, 9.197823
783.8786, 7.785164
784.3607, 6.552780
784.8428, 5.753113
785.3250, 5.907303
785.8071, 7.183243
786.2892, 8.222397
786.7713, 7.561401
787.2534, 5.943504
787.7355, 4.691895
788.2177, 3.881180
788.6998, 3.455559
789.1819, 3.460564
789.6640, 3.702621
790.1461, 3.935478
790.6282, 4.138054
791.1104, 3.881874
791.5925, 2.591660
792.0746, 1.805992
792.5567, 2.181244
793.0388, 2.713402
793.5209, 2.862717
794.0031, 2.726364
794.4852, 2.444328
794.9673, 1.907280
795.4494, 1.524200
795.9315, 1.696388
796.4136, 2.029221
796.8958, 1.978485
797.3779, 1.599190
797.8600, 1.381966
798.3421, 1.623848
798.8242, 1.994316
799.3063, 1.862160
799.7885, 1.198647
800.2706, 0.9008260
800.7527, 1.083145
801.2348, 1.301140
801.7169, 1.429337
802.1990, 1.461700
802.6812, 1.381088
803.1633, 1.192024
803.6454, 0.9260180
804.1275, 0.5217820
804.6096, 0.1218490
805.0917, 0.3831250
805.5739, 0.7450490
806.0560, 0.5797500
806.5381, 9.0790000E-03
807.0202, 0.5098270
807.5023, 0.6284870
807.9844, 0.5125050
808.4666, 0.2262120
808.9487, 0.1312940
809.4308, 9.1370001E-02
809.9129, 0.4068370
810.3950, 0.8578570
810.8771, 0.9675600
811.3593, 0.8669510
811.8414, 0.8300480
812.3235, 0.9123080
812.8056, 0.8450090
813.2877, 0.5395280
813.7698, 0.1892240
814.2520, 0.4237520
814.7341, 0.8819050
815.2162, 0.5853580
815.6983, 0.4137270
816.1804, 1.171806
816.6625, 1.261147
817.1447, 1.022995
817.6268, 0.3187560
818.1089, 0.3774570
818.5910, 0.1350940
819.0731, 1.012482
819.5552, 2.182251
820.0374, 2.829033
820.5195, 3.005638
821.0016, 2.739792
821.4837, 2.018776
821.9658, 1.228119
822.4479, 0.2216420
822.9301, 0.2369840
823.4122, 0.5510100
823.8943, 1.843155
824.3764, 2.263969
824.8585, 1.575356
825.3406, 1.274841
825.8228, 1.971336
826.3049, 2.382645
826.7870, 1.775444
827.2691, 0.8626860
827.7512, 0.3220370
828.2333, 0.2429810
828.7155, 0.4593510
829.1976, 0.9703980
829.6797, 1.572716
830.1618, 2.076714
830.6439, 2.486382
831.1260, 2.838928
831.6082, 3.124741
832.0903, 3.186394
832.5724, 2.908104
833.0545, 2.499695
833.5366, 2.471413
834.0187, 2.981750
834.5009, 2.671463
834.9830, 0.9581530
835.4651, 0.4038160
835.9472, 0.7322540
836.4293, 0.4287490
836.9114, 0.2335430
837.3936, 1.215965
837.8757, 1.809715
838.3578, 1.610565
838.8399, 1.376297
839.3220, 1.404564
839.8041, 1.524261
840.2863, 1.603134
840.7684, 1.606522
841.2505, 1.481071
841.7326, 1.176849
842.2147, 0.9078830
842.6968, 0.9158480
843.1790, 1.163261
843.6611, 1.679665
844.1432, 2.421471
844.6253, 2.836227
845.1074, 2.682564
845.5895, 2.129044
846.0717, 1.260544
846.5538, 7.3363997E-02
847.0359, 1.7120000E-02
847.5180, 1.773178
848.0001, 3.124031
848.4822, 3.478241
848.9644, 3.341438
849.4465, 2.823341
849.9286, 2.101738
850.4107, 1.682014
850.8928, 1.665741
851.3749, 1.905205
851.8571, 2.705078
852.3392, 3.426041
852.8213, 3.326981
853.3034, 2.789162
853.7855, 2.722305
854.2676, 3.374863
854.7498, 4.026962
855.2319, 3.753746
855.7140, 3.116463
856.1961, 3.681282
856.6782, 5.214897
857.1603, 6.020348
857.6425, 5.653160
858.1246, 4.825378
858.6067, 4.014038
859.0888, 3.354126
859.5709, 3.427895
860.0530, 4.669266
860.5352, 5.491005
861.0173, 5.603325
861.4994, 5.593575
861.9815, 5.582268
862.4636, 5.668678
862.9457, 6.063644
863.4279, 6.820801
863.9100, 7.323776
864.3921, 7.279945
864.8742, 7.122627
865.3563, 6.966927
865.8384, 6.892822
866.3206, 6.961136
866.8027, 7.183151
867.2848, 7.639236
867.7669, 8.429771
868.2490, 9.256187
868.7311, 9.744331
869.2133, 9.958687
869.6954, 9.925926
870.1775, 9.710770
870.6596, 10.01147
871.1417, 11.18152
871.6238, 12.68137
872.1060, 13.76765
872.5881, 14.44233
873.0702, 14.96442
873.5523, 15.28827
874.0344, 15.62424
874.5165, 15.96807
874.9987, 16.39537
875.4808, 17.09901
875.9629, 17.91125
876.4450, 18.40328
876.9271, 18.28098
877.4092, 18.41209
877.8914, 19.26346
878.3735, 20.11375
878.8556, 20.72328
879.3377, 20.95211
879.8198, 20.27954
880.3019, 18.76996
880.7841, 17.97726
881.2662, 19.56222
881.7483, 21.91656
882.2304, 23.01160
882.7125, 23.33208
883.1946, 24.16460
883.6768, 25.61621
884.1589, 26.69997
884.6410, 26.75587
885.1231, 26.21667
885.6052, 25.87890
886.0873, 25.75964
886.5695, 25.89588
887.0516, 26.35819
887.5337, 26.67820
888.0158, 26.59833
888.4979, 26.49311
888.9800, 26.91752
889.4622, 27.87791
889.9443, 28.12823
890.4264, 26.78419
890.9085, 26.02049
891.3906, 26.50262
891.8727, 27.18120
892.3549, 27.49187
892.8370, 27.50044
893.3191, 27.30807
893.8012, 26.88988
894.2833, 26.77216
894.7654, 27.28004
895.2476, 28.05105
895.7297, 28.95779
896.2118, 29.94188
896.6939, 30.93643
897.1760, 31.90499
897.6581, 32.78356
898.1403, 33.50399
898.6224, 34.26453
899.1045, 35.68436
899.5866, 37.48213
900.0687, 37.99932
900.5508, 37.11591
901.0330, 36.92825
901.5151, 38.49525
901.9972, 40.91644
902.4793, 42.91955
902.9614, 44.48874
903.4435, 45.65154
903.9257, 46.12920
904.4078, 47.05116
904.8899, 48.90034
905.3720, 50.91894
905.8541, 52.58969
906.3362, 53.97552
906.8184, 55.12555
907.3005, 55.66615
907.7826, 56.82022
908.2647, 59.31786
908.7468, 61.90367
909.2289, 64.01046
909.7111, 65.72540
910.1932, 67.10792
910.6753, 68.29223
911.1574, 69.76909
911.6395, 72.06450
912.1216, 74.18839
912.6038, 75.23899
913.0859, 75.76877
913.5680, 76.32669
914.0501, 77.11286
914.5322, 78.63770
915.0143, 81.03763
915.4965, 83.01064
915.9786, 83.11141
916.4607, 81.72139
916.9428, 79.85352
917.4249, 77.53049
917.9070, 75.09338
918.3892, 72.62254
918.8713, 69.92313
919.3534, 66.79739
919.8355, 63.44546
920.3176, 60.58281
920.7997, 58.40820
921.2819, 55.90406
921.7640, 52.85326
922.2461, 49.90220
922.7282, 47.25173
923.2103, 44.76671
923.6924, 42.24347
924.1746, 39.70350
924.6567, 37.78382
925.1388, 37.24643
925.6209, 36.29081
926.1030, 34.14617
926.5851, 31.91779
927.0673, 30.43738
927.5494, 29.39861
928.0315, 28.21278
928.5136, 26.75289
928.9957, 25.00921
929.4778, 22.35841
929.9600, 20.04618
930.4421, 19.31484
930.9242, 19.46637
931.4063, 19.53747
931.8884, 19.32297
932.3705, 18.88050
932.8527, 18.22956
933.3348, 17.44792
933.8169, 16.66300
934.2990, 15.81958
934.7811, 14.69868
935.2632, 13.34416
935.7454, 12.04165
936.2275, 10.88299
936.7096, 10.09950
937.1917, 9.976402
937.6738, 10.32531
938.1559, 10.52969
938.6381, 10.65353
939.1202, 9.911880
939.6023, 7.831520
940.0844, 6.242195
940.5665, 6.292671
941.0486, 7.063004
941.5308, 7.136230
942.0129, 6.463623
942.4950, 5.620255
942.9771, 4.330948
943.4592, 3.282990
943.9413, 2.321182
944.4235, 1.860863
944.9056, 2.670242
945.3877, 4.054909
945.8698, 4.404388
946.3519, 3.228035
946.8340, 2.352142
947.3162, 2.551552
947.7983, 2.808441
948.2804, 2.617661
948.7625, 2.180801
949.2446, 1.710114
949.7267, 1.248856
950.2089, 0.7693180
950.6910, 0.2070690
951.1731, 0.2029190
951.6552, 0.2617110
952.1373, 7.6759003E-02
952.6194, 0.6230390
953.1016, 1.378120
953.5837, 0.8017650
954.0658, 1.274460
954.5479, 3.027931
955.0300, 2.864296
955.5121, 1.693497
955.9943, 1.020950
956.4763, 0.8025670
956.9584, 1.024643
957.4406, 1.629585
957.9227, 1.916626
958.4048, 1.544067
958.8869, 0.9562450
959.3690, 0.7588580
959.8511, 0.8874130
960.3333, 0.7677610
960.8154, 0.3333130
961.2975, 0.2020260
961.7796, 0.6006470
962.2617, 0.9067460
962.7438, 0.6359710
963.2260, 0.1078410
963.7081, 2.9541001E-02
964.1902, 0.5171890
964.6723, 0.8179780
965.1544, 0.6605910
965.6365, 0.7761540
966.1187, 1.788681
966.6008, 2.694450
967.0829, 2.507561
967.5650, 1.609962
968.0471, 1.211739
968.5292, 1.649437
969.0114, 1.866974
969.4935, 1.376160
969.9756, 1.042953
970.4577, 1.314018
970.9398, 1.893852
971.4219, 2.762665
971.9041, 3.673744
972.3862, 3.659927
972.8683, 1.868889
973.3504, 0.2874370
973.8325, 9.0651996E-02
974.3146, 0.3954770
974.7968, 0.6466290
975.2789, 0.7238460
975.7610, 0.3898240
976.2431, 0.2977140
976.7252, 0.7017750
977.2073, 0.3157200
977.6895, 0.3712770
978.1716, 0.9288180
978.6537, 1.367302
979.1358, 2.025299
979.6179, 2.604492
980.1000, 1.780090
980.5822, 0.8344500
981.0643, 3.493065
981.5464, 4.375023
982.0285, 4.109062
982.5106, 3.895721
982.9927, 3.797623
983.4749, 4.148628
983.9570, 4.982277
984.4391, 6.155602
984.9212, 7.620956
985.4033, 9.068031
985.8854, 10.00191
986.3676, 10.49708
986.8497, 11.05618
987.3318, 11.62985
987.8139, 13.04899
988.2960, 15.73891
988.7781, 17.95822
989.2603, 18.35162
989.7424, 17.95793
990.2245, 19.05736
990.7066, 21.93932
991.1887, 23.88750
991.6708, 24.35766
992.1530, 25.26134
992.6351, 27.09084
993.1172, 29.42660
993.5993, 32.12560
994.0814, 35.05016
994.5635, 37.75311
995.0457, 40.14748
995.5278, 42.55735
996.0099, 44.89246
996.4920, 47.37801
996.9741, 50.13652
997.4562, 53.01271
997.9384, 55.99918
998.4205, 59.00183
998.9026, 61.63672
999.3847, 63.59283
999.8668, 65.83608
1000.349, 68.70889
1000.831, 71.72447
1001.313, 74.83053
1001.795, 77.80059
1002.277, 80.23924
1002.760, 82.34948
1003.242, 85.07758
1003.724, 89.16457
1004.206, 92.62360
1004.688, 93.79901
1005.170, 94.76250
1005.652, 97.82664
1006.134, 101.3606
1006.616, 102.4640
1007.099, 101.1327
1007.581, 100.1509
1008.063, 101.1591
1008.545, 102.2573
1009.027, 102.4850
1009.509, 101.5723
1009.991, 98.68250
1010.473, 94.55420
1010.956, 90.66293
1011.438, 87.30497
1011.920, 83.97790
1012.402, 80.53613
1012.884, 76.80813
1013.366, 72.15962
1013.848, 67.15561
1014.330, 62.93631
1014.812, 59.36534
1015.295, 55.79842
1015.777, 52.03632
1016.259, 48.25861
1016.741, 44.56226
1017.223, 40.97769
1017.705, 37.42657
1018.187, 34.07452
1018.669, 31.63092
1019.151, 30.03647
1019.634, 28.53350
1020.116, 26.85863
1020.598, 25.47948
1021.080, 25.04784
1021.562, 24.91502
1022.044, 22.77210
1022.526, 18.94968
1023.008, 17.16714
1023.491, 17.77175
1023.973, 18.17016
1024.455, 17.27660
1024.937, 16.12431
1025.419, 15.91152
1025.901, 16.34669
1026.383, 16.11121
1026.865, 15.15703
1027.348, 14.47639
1027.830, 14.12303
1028.312, 14.24049
1028.794, 15.02032
1029.276, 15.83736
1029.758, 15.87564
1030.240, 15.31585
1030.722, 15.17675
1031.204, 15.38322
1031.687, 16.20252
1032.169, 18.04242
1032.651, 19.30517
1033.133, 19.02515
1033.615, 18.17766
1034.097, 17.83990
1034.579, 18.04226
1035.061, 19.50198
1035.543, 22.75981
1036.026, 25.86386
1036.508, 28.80898
1036.990, 31.27353
1037.472, 32.85961
1037.954, 34.18781
1038.436, 35.96385
1038.918, 38.13461
1039.400, 40.54600
1039.883, 43.60095
1040.365, 46.08324
1040.847, 47.06314
1041.329, 48.60051
1041.811, 51.86131
1042.293, 56.01958
1042.775, 60.12429
1043.257, 64.16650
1043.740, 68.12354
1044.222, 71.16779
1044.704, 75.40916
1045.186, 81.68713
1045.668, 88.35627
1046.150, 94.93752
1046.632, 101.3775
1047.114, 107.3819
1047.596, 113.0269
1048.078, 119.3412
1048.561, 125.9425
1049.043, 133.9294
1049.525, 143.8916
1050.007, 154.7104
1050.489, 165.8034
1050.971, 177.5314
1051.453, 190.5529
1051.935, 204.7780
1052.418, 219.0018
1052.900, 232.6925
1053.382, 247.0214
1053.864, 262.0072
1054.346, 278.0974
1054.828, 295.8551
1055.310, 314.6639
1055.792, 333.4063
1056.275, 352.3280
1056.757, 372.8539
1057.239, 395.3292
1057.721, 419.3813
1058.203, 446.2050
1058.685, 473.1005
1059.167, 498.0725
1059.649, 522.5008
1060.131, 548.1903
1060.614, 575.0671
1061.096, 602.1688
1061.578, 628.7825
1062.060, 656.3453
1062.542, 686.9049
1063.024, 716.5673
1063.506, 745.2053
1063.988, 770.2663
1064.470, 788.1039
1064.953, 799.6584
1065.435, 809.7604
1065.917, 821.0027
1066.399, 826.5183
1066.881, 823.5032
1067.363, 814.1328
1067.845, 798.5654
1068.327, 778.1419
1068.810, 753.3026
1069.292, 725.0306
1069.774, 695.1960
1070.256, 664.3275
1070.738, 632.0881
1071.220, 596.8603
1071.702, 562.2950
1072.184, 530.1898
1072.667, 500.2411
1073.149, 473.4456
1073.631, 448.5388
1074.113, 422.2687
1074.595, 393.5257
1075.077, 367.4579
1075.559, 348.2126
1076.041, 330.3686
1076.523, 310.3889
1077.005, 290.8106
1077.488, 273.9133
1077.970, 259.4887
1078.452, 246.7945
1078.934, 235.6458
1079.416, 224.5386
1079.898, 211.9918
1080.380, 200.2670
1080.862, 190.8330
1081.344, 182.3832
1081.827, 173.9553
1082.309, 165.5468
1082.791, 157.5148
1083.273, 149.8887
1083.755, 142.5420
1084.237, 135.5094
1084.719, 128.5596
1085.201, 121.0171
1085.684, 114.0991
1086.166, 109.1307
1086.648, 105.2836
1087.130, 101.5685
1087.612, 97.69424
1088.094, 92.95718
1088.576, 86.34711
1089.058, 80.39964
1089.541, 76.43153
1090.023, 73.32172
1090.505, 70.49176
1090.987, 67.82618
1091.469, 65.28661
1091.951, 62.82596
1092.433, 60.34956
1092.915, 57.83185
1093.397, 55.40437
1093.880, 53.16797
1094.362, 51.09872
1094.844, 49.26932
1095.326, 47.37827
1095.808, 44.66328
1096.290, 41.79488
1096.772, 40.97820
1097.254, 43.43176
1097.736, 44.25654
1098.219, 40.40263
1098.701, 36.31465
1099.183, 33.57433
1099.665, 31.77429
1100.147, 31.23592
1100.629, 31.26796
1101.111, 30.31872
1101.593, 28.05014
1102.076, 26.26841
1102.558, 25.67937
1103.040, 25.20279
1103.522, 24.58026
1104.004, 23.73600
1104.486, 22.64956
1104.968, 21.48176
1105.450, 20.30180
1105.932, 19.16787
1106.415, 18.54444
1106.897, 19.19383
1107.379, 19.15710
1107.861, 17.35815
1108.343, 15.73670
1108.825, 15.47359
1109.307, 15.75821
1109.789, 15.68371
1110.271, 15.20634
1110.754, 14.44371
1111.236, 12.99939
1111.718, 12.09629
1112.200, 12.18454
1112.682, 12.38027
1113.164, 12.63836
1113.646, 12.64209
1114.128, 11.96181
1114.611, 10.80569
1115.093, 9.846992
1115.575, 9.017906
1116.057, 8.636887
1116.539, 9.138824
1117.021, 9.429939
1117.503, 9.440407
1117.985, 8.995361
1118.468, 7.454620
1118.950, 5.689018
1119.432, 5.531517
1119.914, 7.174416
1120.396, 8.091751
1120.878, 8.213463
1121.360, 7.700684
1121.842, 6.136986
1122.324, 4.719383
1122.807, 3.875000
1123.289, 3.701775
1123.771, 4.513580
1124.253, 6.135681
1124.735, 7.099876
1125.217, 7.320541
1125.699, 7.161171
1126.181, 6.533043
1126.663, 5.790115
1127.146, 4.892654
1127.628, 4.388451
1128.110, 4.910294
1128.592, 6.042412
1129.074, 6.554703
1129.556, 6.393089
1130.038, 6.149223
1130.520, 5.798752
1131.003, 5.564743
1131.485, 5.520523
1131.967, 5.418015
1132.449, 5.071762
1132.931, 4.691856
1133.413, 4.696045
1133.895, 4.970314
1134.377, 4.643295
1134.859, 3.732140
1135.342, 2.752575
1135.824, 1.785080
1136.306, 1.598473
1136.788, 2.553947
1137.270, 3.520718
1137.752, 3.206886
1138.234, 2.245308
1138.716, 2.279858
1139.198, 3.047928
1139.681, 3.420784
1140.163, 3.381870
1140.645, 3.393330
1141.127, 3.538696
1141.609, 3.230465
1142.091, 1.987919
1142.573, 0.6421320
1143.055, 0.6633680
1143.538, 1.249508
1144.020, 0.5624350
1144.502, 0.8704450
1144.984, 1.600098
1145.466, 1.536392
1145.948, 1.325958
1146.430, 1.258934
1146.912, 1.479786
1147.395, 2.384155
1147.877, 3.333778
1148.359, 3.656643
1148.841, 3.537491
1149.323, 3.030388
1149.805, 2.376480
1150.287, 1.951756
1150.769, 1.874622
1151.251, 2.258923
1151.734, 3.494339
1152.216, 4.357918
1152.698, 3.561073
1153.180, 2.552891
1153.662, 2.640038
1154.144, 3.176731
1154.626, 3.357147
1155.108, 3.108707
1155.590, 2.619686
1156.073, 1.941158
1156.555, 1.010181
1157.037, 0.9305690
1157.519, 2.151981
1158.001, 1.572121
1158.483, 0.3784140
1158.965, 0.8964730
1159.447, 1.968792
1159.930, 2.489483
1160.412, 2.430534
1160.894, 1.918327
1161.376, 0.2870480
1161.858, 0.7245940
1162.340, 0.6792680
1162.822, 0.3513950
1163.304, 0.3834500
1163.786, 0.8705100
1164.269, 0.2748790
1164.751, 1.013245
1165.233, 1.607819
1165.715, 1.267532
1166.197, 1.270664
1166.679, 1.560989
1167.161, 2.480175
1167.643, 4.541832
1168.125, 5.989616
1168.608, 5.605465
1169.090, 4.420052
1169.572, 3.886242
1170.054, 3.988037
1170.536, 4.827976
1171.018, 6.473843
1171.500, 7.271473
1171.982, 7.061893
1172.465, 6.584293
1172.947, 6.073803
1173.429, 5.798264
1173.911, 5.997555
1174.393, 6.495552
1174.875, 6.942825
1175.357, 7.408257
1175.839, 8.422050
1176.322, 9.712738
1176.804, 9.848583
1177.286, 8.861084
1177.768, 8.473980
1178.250, 9.453838
1178.732, 10.66999
1179.214, 11.11696
1179.696, 11.11325
1180.178, 10.83381
1180.661, 10.56304
1181.143, 10.89537
1181.625, 11.56031
1182.107, 11.82155
1182.589, 11.62447
1183.071, 11.62595
1183.553, 12.23409
1184.035, 12.68960
1184.517, 12.22638
1185.000, 11.77144
1185.482, 12.04995
1185.964, 12.62017
1186.446, 13.03852
1186.928, 13.32621
1187.410, 13.67782
1187.892, 14.13025
1188.374, 14.41957
1188.857, 14.07063
1189.339, 14.17411
1189.821, 15.68842
1190.303, 16.83115
1190.785, 16.21214
1191.267, 15.21533
1191.749, 15.47373
1192.231, 16.61617
1192.714, 17.17854
1193.196, 16.96225
1193.678, 16.96298
1194.160, 17.37136
1194.642, 17.45788
1195.124, 17.00891
1195.606, 16.39525
1196.088, 15.75824
1196.570, 15.25443
1197.052, 15.08388
1197.535, 15.25168
1198.017, 16.00864
1198.499, 17.31960
1198.981, 17.54021
1199.463, 16.61862
1199.945, 15.86214
1200.427, 15.65382
1200.909, 16.05336
1201.392, 17.19202
1201.874, 18.14085
1202.356, 17.16431
1202.838, 15.21475
1203.320, 14.35937
1203.802, 14.27554
1204.284, 14.06154
1204.766, 13.82547
1205.249, 14.68438
1205.731, 16.74574
1206.213, 17.74690
1206.695, 15.74251
1207.177, 13.62164
1207.659, 13.55986
1208.141, 14.36582
1208.623, 15.51895
1209.105, 16.47712
1209.588, 16.47369
1210.070, 15.76745
1210.552, 15.30107
1211.034, 15.27077
1211.516, 15.32286
1211.998, 15.51213
1212.480, 15.55259
1212.962, 15.45719
1213.444, 15.16742
1213.927, 14.34999
1214.409, 13.58840
1214.891, 13.46361
1215.373, 13.93033
1215.855, 15.09143
1216.337, 17.34240
1216.819, 18.15146
1217.301, 17.09452
1217.784, 16.34709
1218.266, 16.44176
1218.748, 16.61214
1219.230, 16.42530
1219.712, 16.54346
1220.194, 18.12850
1220.676, 20.22145
1221.158, 18.97359
1221.641, 15.35176
1222.123, 14.92151
1222.605, 17.35260
1223.087, 19.04864
1223.569, 19.12296
1224.051, 18.29279
1224.533, 17.05661
1225.015, 16.04577
1225.497, 15.93318
1225.979, 16.33976
1226.462, 17.35532
1226.944, 18.18519
1227.426, 17.28350
1227.908, 15.59800
1228.390, 15.39968
1228.872, 16.77167
1229.354, 17.50636
1229.836, 16.72971
1230.319, 15.61055
1230.801, 14.06041
1231.283, 12.88277
1231.765, 12.82506
1232.247, 12.87197
1232.729, 11.93830
1233.211, 10.71229
1233.693, 10.52143
1234.176, 11.32617
1234.658, 11.91528
1235.140, 12.07375
1235.622, 12.76921
1236.104, 14.32762
1236.586, 15.38758
1237.068, 15.52048
1237.550, 15.22250
1238.032, 14.84375
1238.515, 14.24947
1238.997, 13.04726
1239.479, 11.53675
1239.961, 11.06332
1240.443, 11.38380
1240.925, 11.41980
1241.407, 11.12527
1241.889, 10.85688
1242.371, 10.71497
1242.854, 10.58177
1243.336, 10.39267
1243.818, 10.14711
1244.300, 9.723782
1244.782, 9.366928
1245.264, 9.552002
1245.746, 9.755085
1246.228, 9.272991
1246.711, 8.330688
1247.193, 7.506447
1247.675, 6.872696
1248.157, 6.027866
1248.639, 4.554005
1249.121, 3.503731
1249.603, 3.199436
1250.085, 3.177433
1250.568, 3.597736
1251.050, 3.859093
1251.532, 3.536163
1252.014, 2.824886
1252.496, 1.930099
1252.978, 0.9315300
1253.460, 0.8016130
1253.942, 1.630672
1254.424, 2.420277
1254.906, 3.121151
1255.389, 3.230846
1255.871, 2.622784
1256.353, 2.112865
1256.835, 2.232132
1257.317, 2.588558
1257.799, 2.754734
1258.281, 2.748325
1258.763, 2.493881
1259.246, 2.154655
1259.728, 1.963028
1260.210, 1.960636
1260.692, 2.328518
1261.174, 2.945919
1261.656, 3.132793
1262.138, 2.525150
1262.620, 1.991188
1263.103, 1.834316
1263.585, 1.972233
1264.067, 2.928921
1264.549, 3.567101
1265.031, 2.626785
1265.513, 1.196682
1265.995, 0.9188690
1266.477, 1.554688
1266.959, 1.767414
1267.442, 1.334389
1267.924, 1.509548
1268.406, 2.565937
1268.888, 2.873535
1269.370, 2.024612
1269.852, 1.225498
1270.334, 1.083206
1270.816, 1.216595
1271.298, 1.277168
1271.781, 1.177811
1272.263, 0.4611630
1272.745, 0.4258540
1273.227, 0.2352030
1273.709, 0.6577720
1274.191, 1.290329
1274.673, 1.573620
1275.155, 1.828667
1275.638, 2.166153
1276.120, 2.563030
1276.602, 3.335922
1277.084, 3.201645
1277.566, 1.397415
1278.048, 6.4579003E-02
1278.530, 0.6273380
1279.012, 1.559547
1279.495, 1.365978
1279.977, 0.4421810
1280.459, 4.7229999E-03
1280.941, 0.0000000E+00
##END=



