##NAMES=Beta-fergusonite-(Ce)
##RRUFFID=R070225
##IDEAL CHEMISTRY=CeNbO_4_
##LOCALITY=Hongcheon, Kangwon-Do Province, Korea
##OWNER=RRUFF
##SOURCE=Michael Scott
##DESCRIPTION=Reddish brown subhedral crystal; associated with manganotantalite, siderite, pyrite in a polished grain mount
##STATUS=The identification of this mineral is not yet confirmed.
##URL=rruff.info/R070225
176.1783, 0.0000000E+00
176.6604, 20.14551
177.1425, 39.70117
177.6246, 47.47803
178.1067, 19.55371
178.5888, 3.026367
179.0710, 0.5498050
179.5531, 22.20801
180.0352, 46.07422
180.5173, 69.95020
180.9994, 89.46924
181.4815, 92.78174
181.9637, 77.18213
182.4458, 59.52979
182.9279, 50.11035
183.4100, 48.93701
183.8921, 56.23779
184.3742, 78.78711
184.8564, 106.9531
185.3385, 112.5107
185.8206, 94.20557
186.3027, 73.80664
186.7848, 76.36084
187.2669, 98.74609
187.7491, 117.6436
188.2312, 123.1978
188.7133, 119.8281
189.1954, 123.1484
189.6775, 134.1001
190.1596, 147.8262
190.6418, 159.0713
191.1239, 167.5703
191.6060, 172.6660
192.0881, 170.1035
192.5702, 161.0298
193.0524, 160.3145
193.5345, 169.4956
194.0166, 183.3506
194.4987, 193.2520
194.9808, 198.8428
195.4629, 206.7588
195.9451, 222.1660
196.4272, 247.0469
196.9093, 268.4912
197.3914, 289.8477
197.8735, 306.7124
198.3556, 316.2876
198.8378, 320.1113
199.3199, 321.6646
199.8020, 320.3862
200.2841, 310.9727
200.7662, 317.2051
201.2483, 338.9951
201.7305, 372.8223
202.2126, 412.7646
202.6947, 457.3965
203.1768, 506.0068
203.6589, 543.4858
204.1410, 556.9043
204.6232, 580.3511
205.1053, 608.6313
205.5874, 638.7158
206.0695, 668.4927
206.5516, 695.3633
207.0337, 712.1001
207.5159, 717.2866
207.9980, 710.9424
208.4801, 699.5957
208.9622, 690.7563
209.4443, 682.9370
209.9264, 664.1260
210.4086, 630.5869
210.8907, 593.4312
211.3728, 561.3789
211.8549, 535.4043
212.3370, 510.7661
212.8191, 487.8027
213.3013, 465.9839
213.7834, 439.9126
214.2655, 409.8135
214.7476, 374.9600
215.2297, 330.9287
215.7118, 268.0938
216.1940, 226.4888
216.6761, 226.5483
217.1582, 261.1748
217.6403, 269.8872
218.1224, 245.7720
218.6045, 216.2168
219.0867, 220.7617
219.5688, 284.6084
220.0509, 338.1743
220.5330, 359.5806
221.0151, 349.8501
221.4972, 319.1509
221.9794, 252.6567
222.4615, 178.0322
222.9436, 127.3086
223.4257, 110.4985
223.9078, 98.51123
224.3899, 84.44971
224.8721, 69.01221
225.3542, 58.85840
225.8363, 57.03564
226.3184, 57.82812
226.8005, 54.02002
227.2827, 42.09473
227.7648, 32.44629
228.2469, 29.69531
228.7290, 35.92334
229.2111, 31.17725
229.6932, 6.658691
230.1754, 21.79004
230.6575, 31.58643
231.1396, 9.449707
231.6217, 7.685059
232.1038, 7.331543
232.5859, 15.52881
233.0681, 28.24658
233.5502, 25.05957
234.0323, 10.35645
234.5144, 4.464355
234.9965, 12.75000
235.4786, 21.06494
235.9608, 25.72510
236.4429, 27.22510
236.9250, 23.65527
237.4071, 12.51953
237.8892, 2.020020
238.3713, 12.59082
238.8535, 13.30518
239.3356, 20.00635
239.8177, 39.41992
240.2998, 76.33545
240.7819, 108.1289
241.2640, 136.0874
241.7462, 158.8350
242.2283, 173.9795
242.7104, 179.6118
243.1925, 180.4995
243.6746, 175.5327
244.1567, 158.5405
244.6389, 158.5317
245.1210, 186.2646
245.6031, 224.5762
246.0852, 242.3652
246.5673, 231.0898
247.0494, 213.7749
247.5316, 198.0728
248.0137, 184.9185
248.4958, 169.9468
248.9779, 151.9453
249.4600, 132.8462
249.9421, 115.7666
250.4243, 98.35938
250.9064, 87.08447
251.3885, 87.18799
251.8706, 106.3672
252.3527, 110.4331
252.8348, 93.95459
253.3170, 65.80371
253.7991, 41.99951
254.2812, 22.55029
254.7633, 7.779297
255.2454, 0.2915040
255.7275, 2.344238
256.2097, 4.652344
256.6918, 28.41650
257.1739, 56.95166
257.6560, 66.04150
258.1381, 46.00781
258.6202, 26.52979
259.1024, 20.64600
259.5845, 34.34619
260.0666, 35.80371
260.5487, 17.49951
261.0308, 7.307129
261.5129, 14.15479
261.9951, 2.949219
262.4772, 24.04492
262.9593, 43.67334
263.4414, 64.11523
263.9235, 70.91113
264.4056, 58.25732
264.8878, 37.26904
265.3699, 27.78174
265.8520, 33.24121
266.3341, 39.82471
266.8162, 42.25586
267.2983, 40.06201
267.7805, 36.38232
268.2626, 29.29639
268.7447, 23.00928
269.2268, 26.78711
269.7089, 44.26367
270.1910, 58.83008
270.6732, 63.91943
271.1553, 58.87305
271.6374, 49.86523
272.1195, 35.36133
272.6016, 19.09863
273.0837, 8.549805
273.5659, 4.996582
274.0480, 1.823242
274.5301, 1.120605
275.0122, 3.619629
275.4943, 22.82275
275.9764, 64.01221
276.4586, 111.1221
276.9407, 141.9028
277.4228, 155.6455
277.9049, 158.5962
278.3870, 149.2764
278.8691, 128.4150
279.3513, 111.3828
279.8334, 96.89551
280.3155, 88.20752
280.7976, 95.46387
281.2798, 119.9604
281.7619, 137.1074
282.2440, 132.4302
282.7261, 109.9253
283.2082, 102.8643
283.6903, 114.5000
284.1725, 131.1265
284.6546, 133.2837
285.1367, 121.2080
285.6188, 113.2422
286.1009, 115.0811
286.5830, 126.8594
287.0652, 151.5249
287.5473, 190.1665
288.0294, 225.3975
288.5115, 235.1631
288.9936, 224.6567
289.4757, 219.1177
289.9579, 229.7671
290.4400, 248.2075
290.9221, 253.1016
291.4042, 244.2412
291.8863, 238.5801
292.3684, 255.7437
292.8506, 290.0796
293.3327, 321.7964
293.8148, 348.4795
294.2969, 367.4072
294.7790, 368.9229
295.2611, 353.5166
295.7433, 340.0386
296.2254, 342.3823
296.7075, 358.6997
297.1896, 385.1494
297.6717, 425.0459
298.1538, 472.2397
298.6360, 516.8853
299.1181, 559.3042
299.6002, 600.5117
300.0823, 645.3452
300.5644, 689.6396
301.0465, 724.5586
301.5287, 740.5337
302.0108, 755.2803
302.4929, 793.5767
302.9750, 851.5020
303.4571, 903.8726
303.9392, 920.5176
304.4214, 925.7319
304.9035, 955.4746
305.3856, 1028.669
305.8677, 1110.386
306.3498, 1166.040
306.8319, 1202.323
307.3141, 1244.380
307.7962, 1314.211
308.2783, 1392.804
308.7604, 1461.785
309.2425, 1512.143
309.7246, 1560.611
310.2068, 1619.272
310.6889, 1684.776
311.1710, 1749.130
311.6531, 1802.964
312.1352, 1857.612
312.6173, 1921.832
313.0995, 1998.932
313.5816, 2077.687
314.0637, 2153.083
314.5458, 2225.091
315.0279, 2295.907
315.5100, 2375.766
315.9922, 2451.394
316.4743, 2514.006
316.9564, 2559.850
317.4385, 2598.767
317.9206, 2629.551
318.4027, 2658.588
318.8849, 2692.972
319.3670, 2742.418
319.8491, 2789.228
320.3312, 2828.818
320.8133, 2862.155
321.2954, 2879.076
321.7776, 2873.958
322.2597, 2855.302
322.7418, 2831.429
323.2239, 2795.624
323.7060, 2760.466
324.1881, 2729.641
324.6703, 2703.882
325.1524, 2676.756
325.6345, 2650.112
326.1166, 2621.093
326.5987, 2586.986
327.0808, 2537.397
327.5630, 2493.972
328.0451, 2463.495
328.5272, 2445.345
329.0093, 2418.508
329.4914, 2384.670
329.9735, 2341.562
330.4557, 2285.893
330.9378, 2202.341
331.4199, 2132.321
331.9020, 2082.703
332.3841, 2049.421
332.8662, 2012.917
333.3484, 1972.929
333.8305, 1930.536
334.3126, 1882.468
334.7947, 1820.258
335.2768, 1784.150
335.7589, 1794.212
336.2411, 1821.541
336.7232, 1784.046
337.2053, 1659.032
337.6874, 1536.106
338.1695, 1460.503
338.6516, 1439.043
339.1338, 1409.417
339.6159, 1367.452
340.0980, 1322.483
340.5801, 1293.151
341.0622, 1280.962
341.5443, 1267.920
342.0265, 1245.803
342.5086, 1215.692
342.9907, 1187.448
343.4728, 1162.563
343.9549, 1134.456
344.4370, 1084.375
344.9192, 1016.819
345.4013, 975.2295
345.8834, 994.4004
346.3655, 1045.598
346.8476, 1045.670
347.3297, 993.1865
347.8119, 932.3843
348.2940, 898.7236
348.7761, 889.4883
349.2582, 899.7109
349.7403, 943.7593
350.2225, 990.5571
350.7046, 988.3867
351.1867, 942.6709
351.6688, 895.1870
352.1509, 878.5996
352.6331, 878.7598
353.1152, 873.7104
353.5973, 855.2236
354.0794, 836.7246
354.5615, 830.6797
355.0436, 834.5889
355.5258, 840.8286
356.0079, 847.4399
356.4900, 853.3096
356.9721, 857.9829
357.4542, 862.1025
357.9363, 862.6084
358.4185, 854.0229
358.9006, 841.0518
359.3827, 831.8335
359.8648, 832.2217
360.3469, 835.0557
360.8290, 836.6831
361.3112, 836.5610
361.7933, 836.9536
362.2754, 836.2686
362.7575, 837.3369
363.2396, 843.2632
363.7217, 864.3633
364.2039, 880.6953
364.6860, 888.1152
365.1681, 886.4419
365.6502, 875.8096
366.1323, 839.3042
366.6144, 804.0229
367.0966, 788.7437
367.5787, 814.4429
368.0608, 835.2729
368.5429, 845.7617
369.0250, 848.3477
369.5071, 856.1499
369.9893, 879.2300
370.4714, 895.8545
370.9535, 891.8579
371.4356, 846.2661
371.9177, 830.5176
372.3998, 861.7095
372.8820, 915.0430
373.3641, 931.6489
373.8462, 897.0337
374.3283, 863.2705
374.8104, 851.8560
375.2925, 864.5918
375.7747, 877.7607
376.2568, 891.3687
376.7389, 905.5898
377.2210, 920.9199
377.7031, 937.4844
378.1852, 953.0537
378.6674, 965.2183
379.1495, 975.9468
379.6316, 995.3428
380.1137, 1023.898
380.5958, 1055.297
381.0779, 1084.688
381.5601, 1112.257
382.0422, 1135.520
382.5243, 1150.055
383.0064, 1165.721
383.4885, 1203.722
383.9706, 1261.412
384.4528, 1316.842
384.9349, 1346.801
385.4170, 1366.993
385.8991, 1409.182
386.3812, 1486.045
386.8633, 1564.849
387.3455, 1611.160
387.8276, 1633.517
388.3097, 1655.143
388.7918, 1677.671
389.2739, 1710.571
389.7560, 1772.405
390.2382, 1869.227
390.7203, 1947.427
391.2024, 1950.722
391.6845, 1926.575
392.1666, 1931.928
392.6487, 2025.021
393.1309, 2116.503
393.6130, 2161.363
394.0951, 2163.499
394.5772, 2179.758
395.0593, 2243.639
395.5414, 2314.111
396.0236, 2365.415
396.5057, 2378.270
396.9878, 2391.858
397.4699, 2417.940
397.9520, 2448.826
398.4341, 2458.894
398.9163, 2430.548
399.3984, 2396.925
399.8805, 2372.272
400.3626, 2365.655
400.8447, 2341.904
401.3268, 2295.264
401.8090, 2233.499
402.2911, 2166.716
402.7732, 2095.608
403.2553, 2025.750
403.7374, 1958.928
404.2195, 1893.452
404.7017, 1812.544
405.1838, 1711.491
405.6659, 1610.308
406.1480, 1529.392
406.6301, 1468.555
407.1122, 1404.319
407.5944, 1331.325
408.0765, 1253.762
408.5586, 1182.042
409.0407, 1115.747
409.5228, 1053.351
410.0049, 991.5537
410.4871, 933.4370
410.9692, 888.9985
411.4513, 861.4238
411.9334, 838.3120
412.4155, 805.2988
412.8976, 764.4380
413.3798, 723.4146
413.8619, 689.6475
414.3440, 654.3667
414.8261, 602.2964
415.3082, 533.1279
415.7903, 472.2002
416.2725, 434.4570
416.7546, 414.1304
417.2367, 404.6162
417.7188, 420.8516
418.2009, 429.3252
418.6830, 409.0449
419.1652, 366.7231
419.6473, 328.0469
420.1294, 292.8916
420.6115, 269.6699
421.0937, 265.8022
421.5758, 298.1177
422.0579, 316.0396
422.5400, 303.7251
423.0221, 275.1074
423.5042, 252.5010
423.9864, 238.9683
424.4685, 229.2920
424.9506, 223.9297
425.4327, 223.7837
425.9148, 218.4121
426.3969, 206.3384
426.8791, 190.7432
427.3612, 171.5420
427.8433, 141.9932
428.3254, 132.7305
428.8075, 158.4385
429.2896, 203.4023
429.7718, 207.3086
430.2539, 161.8345
430.7360, 119.5835
431.2181, 121.6016
431.7002, 163.3613
432.1823, 174.0898
432.6645, 144.5249
433.1466, 103.0220
433.6287, 93.45215
434.1108, 108.9438
434.5929, 114.6846
435.0750, 84.95166
435.5572, 41.54932
436.0393, 22.81592
436.5214, 28.10693
437.0035, 42.87256
437.4856, 63.13330
437.9677, 83.61719
438.4499, 97.01611
438.9320, 101.3281
439.4141, 99.24854
439.8962, 91.21680
440.3783, 77.66455
440.8604, 59.51318
441.3426, 28.03516
441.8247, 0.5844730
442.3068, 13.75977
442.7889, 5.187500
443.2710, 4.312988
443.7531, 30.65137
444.2353, 64.11035
444.7174, 83.09277
445.1995, 71.94580
445.6816, 59.41162
446.1637, 47.63135
446.6458, 37.38281
447.1280, 34.68652
447.6101, 47.81641
448.0922, 58.51318
448.5743, 54.28809
449.0564, 23.84814
449.5385, 10.12500
450.0207, 20.45117
450.5028, 42.20312
450.9849, 51.36377
451.4670, 45.86084
451.9491, 37.29102
452.4312, 27.36816
452.9134, 17.27588
453.3955, 16.73389
453.8776, 26.19824
454.3597, 41.46777
454.8418, 64.40332
455.3239, 91.28809
455.8061, 104.0840
456.2882, 94.83203
456.7703, 76.26270
457.2524, 67.85156
457.7345, 66.63086
458.2166, 60.42725
458.6988, 29.06299
459.1809, 4.611328
459.6630, 9.776367
460.1451, 21.20850
460.6272, 47.17334
461.1093, 34.49414
461.5915, 3.864258
462.0736, 19.00879
462.5557, 18.04053
463.0378, 15.31543
463.5199, 20.02344
464.0020, 31.01758
464.4842, 38.54053
464.9663, 33.65918
465.4484, 29.95215
465.9305, 35.38232
466.4126, 61.83008
466.8947, 76.65234
467.3769, 73.59277
467.8590, 61.69287
468.3411, 55.06641
468.8232, 54.26855
469.3053, 58.08740
469.7874, 67.42334
470.2696, 81.87451
470.7517, 93.00049
471.2338, 99.00635
471.7159, 107.1484
472.1980, 128.7012
472.6801, 163.0527
473.1623, 180.4888
473.6444, 172.2129
474.1265, 154.4717
474.6086, 156.8101
475.0907, 176.3550
475.5728, 194.5264
476.0550, 198.0679
476.5371, 195.1470
477.0192, 199.2412
477.5013, 210.8164
477.9834, 224.6191
478.4655, 239.7144
478.9477, 253.6401
479.4298, 263.3433
479.9119, 269.8472
480.3940, 269.5029
480.8761, 254.4590
481.3582, 230.2676
481.8404, 213.2241
482.3225, 215.7529
482.8046, 220.7832
483.2867, 219.4404
483.7688, 207.6392
484.2509, 201.0815
484.7331, 207.2163
485.2152, 216.0645
485.6973, 217.4775
486.1794, 202.6357
486.6615, 196.2915
487.1436, 207.9688
487.6258, 231.0215
488.1079, 230.6396
488.5900, 198.4448
489.0721, 166.0967
489.5542, 150.5962
490.0363, 151.8735
490.5185, 163.4077
491.0006, 189.6963
491.4827, 210.6377
491.9648, 188.7612
492.4470, 133.1982
492.9291, 95.45166
493.4112, 103.2212
493.8933, 130.4702
494.3754, 140.8481
494.8575, 135.4741
495.3397, 121.7871
495.8218, 94.71533
496.3039, 66.67041
496.7860, 52.34961
497.2681, 55.70557
497.7502, 64.02441
498.2324, 71.62012
498.7145, 79.71436
499.1966, 89.95947
499.6787, 106.9829
500.1608, 122.5967
500.6429, 135.7290
501.1251, 144.5210
501.6072, 144.9507
502.0893, 132.0537
502.5714, 115.6597
503.0535, 98.82764
503.5356, 70.79004
504.0178, 69.04199
504.4999, 105.7974
504.9820, 158.4751
505.4641, 192.1304
505.9462, 203.7852
506.4283, 210.4170
506.9105, 216.1533
507.3926, 223.1138
507.8747, 234.1343
508.3568, 246.1968
508.8389, 264.5645
509.3210, 301.4102
509.8032, 351.0864
510.2853, 398.4595
510.7674, 442.9546
511.2495, 479.8584
511.7316, 494.5537
512.2137, 497.5850
512.6959, 511.1177
513.1780, 549.6221
513.6601, 598.3491
514.1422, 651.8105
514.6243, 709.5850
515.1064, 766.1797
515.5886, 821.0186
516.0707, 873.0117
516.5528, 921.6328
517.0349, 964.2705
517.5170, 1007.236
517.9991, 1042.501
518.4813, 1079.971
518.9634, 1135.019
519.4455, 1222.526
519.9276, 1302.933
520.4097, 1366.433
520.8918, 1414.650
521.3740, 1464.592
521.8561, 1517.280
522.3382, 1568.700
522.8203, 1616.326
523.3024, 1660.117
523.7845, 1704.144
524.2667, 1750.126
524.7488, 1790.678
525.2309, 1813.678
525.7130, 1823.457
526.1951, 1836.003
526.6772, 1861.539
527.1594, 1888.630
527.6415, 1911.881
528.1236, 1927.306
528.6057, 1918.572
529.0878, 1854.548
529.5699, 1777.408
530.0521, 1721.833
530.5342, 1697.236
531.0163, 1667.686
531.4984, 1616.096
531.9805, 1555.953
532.4626, 1501.210
532.9448, 1467.229
533.4269, 1422.125
533.9090, 1357.881
534.3911, 1279.480
534.8732, 1208.576
535.3553, 1143.933
535.8375, 1087.536
536.3196, 1044.231
536.8017, 1014.413
537.2838, 975.1919
537.7659, 925.3457
538.2480, 868.5645
538.7302, 805.2939
539.2123, 736.4824
539.6944, 672.1284
540.1765, 612.3296
540.6586, 561.6104
541.1407, 529.7017
541.6229, 512.2490
542.1050, 492.9277
542.5871, 462.8906
543.0692, 427.0742
543.5513, 386.8906
544.0334, 342.9858
544.5156, 305.8091
544.9977, 282.2856
545.4798, 266.3564
545.9619, 254.0542
546.4440, 249.8154
546.9261, 241.4116
547.4083, 224.5591
547.8904, 202.8726
548.3725, 183.0288
548.8546, 163.5708
549.3367, 148.4009
549.8188, 141.3550
550.3010, 140.9609
550.7831, 127.0205
551.2652, 94.77832
551.7473, 65.05029
552.2294, 56.04248
552.7115, 65.34717
553.1937, 70.04248
553.6758, 68.03906
554.1579, 61.74072
554.6400, 53.60107
555.1221, 44.28271
555.6042, 34.76074
556.0864, 25.55664
556.5685, 15.67627
557.0506, 0.5073240
557.5327, 17.08057
558.0148, 26.18018
558.4969, 13.42285
558.9791, 3.403320
559.4612, 11.86670
559.9433, 7.798340
560.4254, 10.47021
560.9075, 36.68506
561.3896, 63.12354
561.8718, 69.49658
562.3539, 39.03809
562.8360, 18.42334
563.3181, 17.18408
563.8002, 25.21143
564.2823, 13.33008
564.7645, 25.45947
565.2466, 51.54248
565.7287, 43.29395
566.2108, 8.934082
566.6929, 12.04150
567.1750, 19.25781
567.6572, 19.01660
568.1393, 11.04199
568.6214, 0.3164060
569.1035, 1.249512
569.5856, 10.12744
570.0677, 22.46289
570.5499, 26.28662
571.0320, 24.41504
571.5141, 21.32080
571.9962, 18.05542
572.4783, 14.44604
572.9604, 8.874023
573.4426, 2.394775
573.9247, 7.3729999E-02
574.4068, 8.994141
574.8889, 16.48608
575.3710, 16.00000
575.8531, 4.302002
576.3353, 2.715088
576.8174, 15.10986
577.2995, 31.99341
577.7816, 44.80469
578.2637, 53.23315
578.7458, 61.14404
579.2280, 70.39917
579.7101, 76.99585
580.1922, 70.96851
580.6743, 54.46606
581.1564, 39.67578
581.6385, 29.44580
582.1207, 25.57593
582.6028, 35.08057
583.0849, 55.98438
583.5670, 73.11133
584.0491, 69.62476
584.5313, 63.81567
585.0134, 72.24194
585.4955, 103.9407
585.9776, 128.2539
586.4597, 128.2808
586.9418, 120.6892
587.4240, 124.9080
587.9061, 154.8662
588.3882, 175.4744
588.8703, 179.5498
589.3524, 172.8215
589.8345, 172.1021
590.3167, 178.5098
590.7988, 186.6689
591.2809, 194.4021
591.7630, 201.9639
592.2451, 210.3965
592.7272, 219.6833
593.2094, 230.2903
593.6915, 245.9023
594.1736, 262.4412
594.6557, 270.4697
595.1378, 266.3081
595.6199, 262.7144
596.1021, 271.6243
596.5842, 286.5139
597.0663, 298.1077
597.5485, 295.4924
598.0306, 297.2764
598.5127, 314.0315
598.9948, 341.3574
599.4769, 360.0410
599.9590, 364.5728
600.4412, 365.8916
600.9233, 367.0779
601.4054, 368.1277
601.8875, 368.9641
602.3696, 369.9058
602.8517, 369.9192
603.3339, 365.7043
603.8160, 358.0488
604.2981, 360.6409
604.7802, 377.1638
605.2623, 396.6025
605.7444, 403.4185
606.2266, 401.5742
606.7087, 401.7864
607.1908, 411.5842
607.6729, 421.1655
608.1550, 421.2441
608.6371, 414.3948
609.1193, 408.7886
609.6014, 410.2119
610.0835, 411.2710
610.5656, 406.1633
611.0477, 392.3223
611.5298, 390.1140
612.0120, 409.5654
612.4941, 431.2590
612.9762, 442.3792
613.4583, 440.8452
613.9404, 436.0557
614.4225, 428.0845
614.9047, 417.1345
615.3868, 398.3335
615.8689, 373.2808
616.3510, 362.9868
616.8331, 377.7437
617.3152, 403.4546
617.7974, 424.8035
618.2795, 440.3137
618.7616, 445.3584
619.2437, 422.5183
619.7258, 398.5574
620.2079, 396.6548
620.6901, 417.8982
621.1722, 435.0544
621.6543, 436.5459
622.1364, 432.1670
622.6185, 426.5266
623.1006, 418.6013
623.5828, 415.0432
624.0649, 417.9854
624.5470, 424.3970
625.0291, 433.2666
625.5112, 445.2727
625.9933, 455.1248
626.4755, 461.3916
626.9576, 465.6472
627.4397, 472.2510
627.9218, 480.4971
628.4039, 485.0581
628.8860, 482.0361
629.3682, 474.0242
629.8503, 459.2959
630.3324, 440.2056
630.8145, 433.6562
631.2966, 465.4473
631.7787, 501.9656
632.2609, 516.5930
632.7430, 497.9465
633.2251, 488.7393
633.7072, 505.8989
634.1893, 531.2578
634.6714, 550.2046
635.1536, 561.6343
635.6357, 564.5627
636.1178, 556.0964
636.5999, 544.3953
637.0820, 543.9485
637.5641, 553.0457
638.0463, 555.5461
638.5284, 542.8740
639.0105, 526.5496
639.4926, 528.5750
639.9747, 544.6907
640.4568, 558.0618
640.9390, 561.6841
641.4211, 557.8782
641.9032, 542.3003
642.3853, 514.3435
642.8674, 497.8022
643.3495, 516.9299
643.8317, 541.6736
644.3138, 549.8665
644.7959, 522.8235
645.2780, 509.5771
645.7601, 518.5950
646.2422, 535.9104
646.7244, 544.9373
647.2065, 544.1807
647.6886, 537.8059
648.1707, 522.9609
648.6528, 508.4028
649.1349, 517.0232
649.6171, 545.5798
650.0992, 568.4050
650.5813, 568.2644
651.0634, 557.8105
651.5455, 552.3545
652.0276, 551.6587
652.5098, 551.9231
652.9919, 552.0061
653.4740, 549.4539
653.9561, 542.3252
654.4382, 529.7969
654.9203, 522.3723
655.4025, 517.1948
655.8846, 520.2771
656.3667, 538.5425
656.8488, 581.9436
657.3309, 606.7578
657.8130, 607.4475
658.2952, 598.6340
658.7773, 602.0369
659.2594, 615.7346
659.7415, 620.3113
660.2236, 606.5391
660.7057, 591.2053
661.1879, 600.2100
661.6700, 625.4797
662.1521, 646.9451
662.6342, 654.5200
663.1163, 656.6128
663.5984, 657.1167
664.0806, 655.7251
664.5627, 651.7161
665.0448, 636.3577
665.5269, 626.8228
666.0090, 634.5613
666.4911, 664.5903
666.9733, 673.7725
667.4554, 654.8098
667.9375, 629.7576
668.4196, 616.5364
668.9017, 614.7188
669.3839, 613.8430
669.8660, 613.9924
670.3481, 611.6836
670.8302, 598.5684
671.3123, 580.2114
671.7944, 569.0347
672.2766, 573.5715
672.7587, 577.8879
673.2408, 571.6990
673.7229, 558.1877
674.2050, 543.2644
674.6871, 528.9702
675.1693, 513.1904
675.6514, 493.7346
676.1335, 471.6243
676.6156, 453.2607
677.0977, 440.8108
677.5798, 427.0059
678.0620, 406.4658
678.5441, 380.7891
679.0262, 370.5393
679.5083, 376.8013
679.9904, 379.5378
680.4725, 351.3418
680.9547, 312.1050
681.4368, 301.1194
681.9189, 325.8269
682.4010, 351.1492
682.8831, 357.5559
683.3652, 350.5154
683.8474, 334.6636
684.3295, 303.0725
684.8116, 275.3181
685.2937, 252.6431
685.7758, 235.9890
686.2579, 228.7842
686.7401, 236.6755
687.2222, 237.9507
687.7043, 226.4893
688.1864, 208.3225
688.6685, 198.5632
689.1506, 196.7000
689.6328, 194.6792
690.1149, 191.6626
690.5970, 184.5603
691.0791, 162.2646
691.5612, 128.9893
692.0433, 106.5894
692.5255, 121.8225
693.0076, 139.1987
693.4897, 129.2065
693.9718, 85.72632
694.4539, 66.72314
694.9360, 112.6135
695.4182, 154.5310
695.9003, 150.7598
696.3824, 84.00928
696.8645, 47.47241
697.3466, 48.10522
697.8287, 60.67358
698.3109, 57.52856
698.7930, 42.00537
699.2751, 32.20630
699.7572, 32.11060
700.2393, 35.32471
700.7214, 34.50146
701.2036, 32.56909
701.6857, 34.55493
702.1678, 50.00146
702.6499, 60.62964
703.1320, 55.62378
703.6141, 40.85767
704.0963, 31.24829
704.5784, 31.19263
705.0605, 30.95728
705.5426, 29.30615
706.0247, 25.83716
706.5068, 17.22827
706.9890, 2.525635
707.4711, 9.485596
707.9532, 11.41138
708.4353, 7.917480
708.9174, 13.65820
709.3995, 27.38477
709.8817, 36.74927
710.3638, 26.19043
710.8459, 12.07495
711.3280, 10.19458
711.8101, 23.55200
712.2922, 36.04272
712.7744, 45.88867
713.2565, 51.20483
713.7386, 50.15991
714.2207, 37.69873
714.7028, 32.57056
715.1849, 37.26636
715.6671, 44.75879
716.1492, 43.87793
716.6313, 36.17944
717.1134, 42.31177
717.5955, 69.59668
718.0776, 99.34668
718.5598, 106.7600
719.0419, 100.0671
719.5240, 95.35303
720.0061, 102.8792
720.4882, 108.0229
720.9703, 102.5386
721.4525, 89.83057
721.9346, 77.56177
722.4167, 64.92822
722.8988, 54.86230
723.3809, 48.11157
723.8630, 44.29712
724.3452, 42.55078
724.8273, 43.29712
725.3094, 43.15308
725.7915, 38.43091
726.2736, 32.51440
726.7557, 35.10645
727.2379, 45.42090
727.7200, 57.26392
728.2021, 73.31738
728.6842, 84.47583
729.1663, 80.36572
729.6484, 59.72583
730.1306, 41.17334
730.6127, 27.87695
731.0948, 20.11450
731.5769, 18.77539
732.0590, 26.38647
732.5411, 29.24585
733.0233, 26.35767
733.5054, 20.94092
733.9875, 18.32251
734.4696, 16.90454
734.9517, 2.377441
735.4338, 29.25073
735.9160, 60.08936
736.3981, 72.56128
736.8802, 72.31323
737.3623, 66.68726
737.8444, 53.20728
738.3266, 43.27075
738.8087, 39.80444
739.2908, 42.87549
739.7729, 52.76489
740.2551, 70.89453
740.7372, 93.62500
741.2193, 126.6865
741.7014, 159.0093
742.1835, 158.1377
742.6656, 123.3738
743.1478, 109.9038
743.6299, 145.1492
744.1120, 199.1938
744.5941, 226.2051
745.0762, 232.0906
745.5583, 236.4595
746.0405, 244.9282
746.5226, 258.0532
747.0047, 280.3735
747.4868, 309.3032
747.9689, 329.6782
748.4510, 337.7949
748.9332, 338.3174
749.4153, 326.2534
749.8974, 304.6597
750.3795, 313.4351
750.8616, 356.1240
751.3438, 399.9907
751.8259, 420.2163
752.3080, 426.8384
752.7901, 448.9292
753.2722, 485.2998
753.7543, 514.6362
754.2365, 509.3389
754.7186, 498.6592
755.2007, 508.4780
755.6828, 545.6743
756.1649, 582.6265
756.6470, 620.5996
757.1292, 651.7529
757.6113, 670.3877
758.0934, 673.3110
758.5755, 676.1138
759.0576, 675.8857
759.5397, 685.7964
760.0219, 730.1206
760.5040, 796.6938
760.9861, 845.2930
761.4682, 867.4922
761.9503, 878.5552
762.4324, 880.7148
762.9146, 883.4390
763.3967, 898.2422
763.8788, 934.6201
764.3609, 971.7139
764.8430, 1006.810
765.3251, 1039.786
765.8073, 1072.464
766.2894, 1106.832
766.7715, 1132.154
767.2536, 1142.752
767.7357, 1150.097
768.2178, 1174.250
768.7000, 1213.303
769.1821, 1257.250
769.6642, 1305.660
770.1463, 1352.165
770.6284, 1389.584
771.1105, 1421.771
771.5927, 1456.019
772.0748, 1498.896
772.5569, 1540.021
773.0390, 1574.337
773.5211, 1604.738
774.0032, 1638.030
774.4854, 1673.426
774.9675, 1716.874
775.4496, 1774.222
775.9317, 1835.136
776.4138, 1870.433
776.8959, 1885.515
777.3781, 1907.317
777.8602, 1957.972
778.3423, 2013.647
778.8244, 2052.623
779.3065, 2079.718
779.7886, 2114.562
780.2708, 2162.108
780.7529, 2219.976
781.2350, 2292.547
781.7171, 2376.932
782.1992, 2444.682
782.6813, 2489.725
783.1635, 2539.387
783.6456, 2615.114
784.1277, 2704.900
784.6098, 2764.877
785.0919, 2798.041
785.5740, 2838.826
786.0562, 2920.840
786.5383, 3012.427
787.0204, 3087.132
787.5025, 3144.464
787.9846, 3199.078
788.4667, 3249.362
788.9489, 3301.748
789.4310, 3358.683
789.9131, 3419.363
790.3952, 3490.134
790.8773, 3573.893
791.3594, 3652.180
791.8416, 3704.404
792.3237, 3740.531
792.8058, 3790.546
793.2879, 3855.875
793.7700, 3913.624
794.2521, 3933.902
794.7343, 3949.566
795.2164, 3990.721
795.6985, 4069.757
796.1806, 4135.924
796.6627, 4181.801
797.1448, 4216.887
797.6270, 4245.743
798.1091, 4268.030
798.5912, 4287.098
799.0733, 4303.451
799.5554, 4314.957
800.0375, 4320.011
800.5197, 4318.640
801.0018, 4310.137
801.4839, 4294.074
801.9660, 4273.834
802.4481, 4251.509
802.9302, 4225.875
803.4124, 4194.898
803.8945, 4151.903
804.3766, 4119.643
804.8587, 4107.781
805.3408, 4093.920
805.8229, 4054.553
806.3051, 3989.874
806.7872, 3930.633
807.2693, 3880.274
807.7514, 3829.001
808.2335, 3762.096
808.7156, 3688.498
809.1978, 3622.985
809.6799, 3571.919
810.1620, 3517.867
810.6441, 3441.676
811.1262, 3365.725
811.6083, 3314.967
812.0905, 3311.905
812.5726, 3279.434
813.0547, 3207.162
813.5368, 3123.341
814.0189, 3061.311
814.5010, 3017.844
814.9832, 2971.567
815.4653, 2916.885
815.9474, 2871.517
816.4295, 2865.347
816.9116, 2871.982
817.3937, 2858.894
817.8759, 2816.571
818.3580, 2757.334
818.8401, 2659.392
819.3222, 2562.213
819.8043, 2506.649
820.2864, 2504.290
820.7686, 2490.478
821.2507, 2459.411
821.7328, 2416.827
822.2149, 2370.237
822.6970, 2318.681
823.1791, 2256.852
823.6613, 2180.965
824.1434, 2105.562
824.6255, 2033.322
825.1076, 1970.704
825.5897, 1926.234
826.0718, 1933.291
826.5540, 1909.990
827.0361, 1842.389
827.5182, 1759.730
828.0003, 1696.307
828.4824, 1652.424
828.9645, 1604.251
829.4467, 1547.516
829.9288, 1490.736
830.4109, 1447.328
830.8930, 1409.346
831.3751, 1364.414
831.8572, 1311.095
832.3394, 1247.598
832.8215, 1149.640
833.3036, 1053.780
833.7857, 1002.758
834.2678, 1022.732
834.7499, 1009.644
835.2321, 948.0498
835.7142, 874.2246
836.1963, 836.6592
836.6784, 825.6641
837.1605, 806.2363
837.6426, 770.1372
838.1248, 733.4883
838.6069, 709.6875
839.0890, 691.8013
839.5711, 671.9932
840.0532, 640.3320
840.5353, 623.4312
841.0175, 633.4634
841.4996, 647.2080
841.9817, 634.9648
842.4638, 594.6221
842.9459, 584.3398
843.4280, 614.5244
843.9102, 649.3066
844.3923, 638.1743
844.8744, 608.8188
845.3565, 610.5718
845.8386, 663.7471
846.3207, 707.8843
846.8029, 704.6987
847.2850, 690.6768
847.7671, 697.8047
848.2492, 732.9570
848.7313, 771.2139
849.2134, 810.9443
849.6956, 857.5654
850.1777, 920.9258
850.6598, 997.0503
851.1419, 1068.996
851.6240, 1133.082
852.1061, 1198.456
852.5883, 1271.973
853.0704, 1353.367
853.5525, 1442.498
854.0346, 1537.111
854.5167, 1641.669
854.9988, 1756.216
855.4810, 1881.572
855.9631, 2023.122
856.4452, 2181.815
856.9273, 2325.510
857.4094, 2450.687
857.8915, 2584.275
858.3737, 2753.435
858.8558, 2942.580
859.3379, 3131.030
859.8200, 3313.758
860.3021, 3505.626
860.7842, 3702.873
861.2664, 3916.868
861.7485, 4151.458
862.2306, 4410.160
862.7127, 4670.450
863.1948, 4932.152
863.6769, 5205.225
864.1591, 5499.284
864.6412, 5810.370
865.1233, 6139.517
865.6054, 6489.506
866.0875, 6851.258
866.5696, 7229.157
867.0518, 7612.357
867.5339, 7991.431
868.0160, 8370.084
868.4981, 8761.591
868.9802, 9167.130
869.4623, 9583.459
869.9445, 10010.91
870.4266, 10446.78
870.9087, 10880.36
871.3908, 11314.46
871.8729, 11722.88
872.3550, 12076.04
872.8372, 12413.81
873.3193, 12782.51
873.8014, 13173.00
874.2835, 13515.58
874.7656, 13795.97
875.2477, 14024.05
875.7299, 14196.62
876.2120, 14317.27
876.6941, 14410.11
877.1762, 14474.91
877.6583, 14491.93
878.1404, 14449.65
878.6226, 14359.66
879.1047, 14242.35
879.5869, 14088.10
880.0690, 13872.01
880.5511, 13548.99
881.0332, 13204.27
881.5153, 12868.04
881.9974, 12526.52
882.4796, 12138.26
882.9617, 11697.80
883.4438, 11234.05
883.9259, 10754.61
884.4080, 10264.30
884.8901, 9765.534
885.3723, 9264.797
885.8544, 8777.381
886.3365, 8332.556
886.8186, 7870.723
887.3007, 7342.629
887.7828, 6797.438
888.2650, 6304.102
888.7471, 5884.575
889.2292, 5470.654
889.7113, 5051.434
890.1934, 4648.160
890.6755, 4283.016
891.1577, 3952.586
891.6398, 3633.883
892.1219, 3325.279
892.6040, 3032.132
893.0861, 2764.896
893.5682, 2515.149
894.0504, 2274.022
894.5325, 2032.881
895.0146, 1828.208
895.4967, 1673.566
895.9788, 1531.288
896.4609, 1365.418
896.9431, 1182.965
897.4252, 1034.320
897.9073, 922.3889
898.3894, 827.3057
898.8715, 736.2046
899.3536, 650.9204
899.8358, 569.6201
900.3179, 492.3350
900.8000, 429.5435
901.2821, 387.5291
901.7642, 352.3650
902.2463, 319.4304
902.7285, 288.5435
903.2106, 252.4456
903.6927, 211.2776
904.1748, 163.9531
904.6569, 92.38599
905.1390, 26.47314
905.6212, 3.407471
906.1033, 14.98145
906.5854, 20.65649
907.0675, 8.219727
907.5496, 11.18140
908.0317, 41.54810
908.5139, 74.28662
908.9960, 78.12305
909.4781, 52.80176
909.9602, 35.77051
910.4423, 44.17749
910.9244, 60.24353
911.4066, 61.30237
911.8887, 54.56421
912.3708, 53.50928
912.8529, 67.16931
913.3350, 81.29980
913.8171, 96.00952
914.2993, 107.8464
914.7814, 110.3888
915.2635, 102.7487
915.7456, 98.51526
916.2277, 100.4979
916.7098, 102.5295
917.1920, 95.45837
917.6741, 84.40515
918.1562, 76.90674
918.6383, 75.04150
919.1204, 74.65332
919.6025, 75.04883
920.0847, 76.10657
920.5668, 78.46924
921.0489, 83.08362
921.5310, 80.89685
922.0131, 70.83240
922.4952, 62.69678
922.9774, 68.59790
923.4595, 79.43994
923.9416, 81.37952
924.4237, 73.95007
924.9058, 64.75403
925.3879, 58.62463
925.8701, 49.18762
926.3522, 31.00354
926.8343, 6.304810
927.3164, 5.827759
927.7985, 4.329346
928.2806, 0.1597900
928.7628, 4.494995
929.2449, 7.109497
929.7270, 5.667114
930.2091, 0.5810550
930.6912, 6.702515
931.1733, 21.65527
931.6555, 31.63135
932.1376, 27.25452
932.6197, 17.96777
933.1018, 19.53821
933.5839, 32.95532
934.0660, 51.94788
934.5482, 78.69080
935.0303, 100.6050
935.5124, 92.25964
935.9945, 70.24731
936.4766, 64.92407
936.9587, 88.97803
937.4409, 113.6823
937.9230, 138.1527
938.4051, 153.1212
938.8872, 148.1080
939.3693, 116.9027
939.8514, 102.6730
940.3336, 107.1382
940.8157, 118.0052
941.2978, 127.1876
941.7799, 135.3329
942.2620, 144.1245
942.7441, 153.4448
943.2263, 159.7909
943.7084, 160.3381
944.1905, 158.8462
944.6726, 154.5157
945.1547, 149.0914
945.6368, 156.6122
946.1190, 178.1218
946.6011, 194.2618
947.0832, 192.9631
947.5653, 185.4829
948.0474, 186.6548
948.5295, 193.4167
949.0117, 198.6537
949.4938, 193.5317
949.9759, 195.2019
950.4580, 210.6119
950.9401, 231.3677
951.4222, 245.9247
951.9044, 254.2770
952.3865, 254.4702
952.8686, 244.5615
953.3507, 234.3611
953.8328, 232.2114
954.3149, 236.9637
954.7971, 249.3831
955.2792, 273.8091
955.7613, 289.1555
956.2434, 286.3661
956.7255, 280.9478
957.2076, 281.9595
957.6898, 289.2175
958.1719, 297.3206
958.6540, 306.2506
959.1361, 313.5919
959.6182, 317.6244
960.1003, 319.4326
960.5825, 318.1516
961.0646, 314.8450
961.5467, 315.6323
962.0288, 327.7909
962.5109, 334.0359
962.9930, 327.8500
963.4752, 315.4528
963.9573, 311.8507
964.4394, 316.3582
964.9215, 324.8578
965.4036, 337.4457
965.8857, 349.5742
966.3679, 361.1410
966.8500, 369.4373
967.3321, 370.2131
967.8142, 352.2961
968.2963, 344.7484
968.7784, 350.9198
969.2606, 360.4897
969.7427, 362.6172
970.2248, 358.9852
970.7069, 355.6945
971.1890, 353.2139
971.6711, 350.2230
972.1533, 343.2626
972.6354, 338.4939
973.1175, 343.2797
973.5996, 356.9816
974.0817, 360.5158
974.5638, 351.2017
975.0460, 341.6251
975.5281, 335.9809
976.0102, 334.1484
976.4923, 340.0522
976.9744, 349.8046
977.4565, 352.1511
977.9387, 334.9678
978.4208, 317.8486
978.9029, 308.3954
979.3850, 302.7742
979.8671, 294.7883
980.3492, 282.5934
980.8314, 279.3214
981.3135, 288.3372
981.7956, 297.0535
982.2777, 290.6408
982.7598, 275.9738
983.2419, 260.9955
983.7241, 246.4826
984.2062, 237.9438
984.6883, 238.4425
985.1704, 244.3665
985.6525, 257.7665
986.1346, 276.2235
986.6168, 272.0261
987.0989, 246.0292
987.5810, 221.7928
988.0631, 214.5219
988.5452, 214.1847
989.0273, 211.0742
989.5095, 207.3032
989.9916, 208.9546
990.4737, 226.5431
990.9558, 234.4894
991.4379, 227.8433
991.9200, 214.5983
992.4022, 204.4030
992.8843, 197.6783
993.3664, 198.0872
993.8485, 207.4149
994.3306, 214.7321
994.8127, 210.6375
995.2949, 203.7437
995.7770, 201.6311
996.2591, 205.0565
996.7412, 207.9763
997.2233, 209.8074
997.7054, 210.4551
998.1876, 211.3856
998.6697, 211.2257
999.1518, 205.5151
999.6339, 195.2777
1000.116, 184.7617
1000.598, 173.8595
1001.080, 165.1354
1001.562, 159.1543
1002.044, 155.7390
1002.527, 155.0229
1003.009, 157.0831
1003.491, 161.3417
1003.973, 168.8945
1004.455, 174.2100
1004.937, 168.4442
1005.419, 157.6755
1005.901, 149.6558
1006.384, 146.1082
1006.866, 144.6559
1007.348, 148.4110
1007.830, 148.4480
1008.312, 136.4106
1008.794, 116.0920
1009.276, 111.1610
1009.758, 120.0812
1010.240, 130.2693
1010.723, 134.4856
1011.205, 137.2994
1011.687, 143.2618
1012.169, 149.9828
1012.651, 150.5876
1013.133, 142.1644
1013.615, 136.3755
1014.097, 135.0195
1014.580, 136.2023
1015.062, 138.6102
1015.544, 141.2291
1016.026, 142.6228
1016.508, 142.9449
1016.990, 139.2992
1017.472, 127.6333
1017.954, 113.9983
1018.436, 99.87769
1018.919, 85.80371
1019.401, 83.97034
1019.883, 94.50464
1020.365, 105.9178
1020.847, 111.7950
1021.329, 115.0331
1021.811, 119.9996
1022.293, 124.6099
1022.776, 123.5719
1023.258, 111.8689
1023.740, 100.9980
1024.222, 91.66492
1024.704, 84.11377
1025.186, 77.86768
1025.668, 73.53357
1026.150, 74.49597
1026.632, 81.62036
1027.115, 89.68628
1027.597, 98.17358
1028.079, 104.1541
1028.561, 106.0421
1029.043, 103.9763
1029.525, 95.45557
1030.007, 79.41248
1030.489, 66.82031
1030.972, 64.16296
1031.454, 66.29260
1031.936, 66.33508
1032.418, 65.41565
1032.900, 65.92151
1033.382, 71.57153
1033.864, 74.35803
1034.346, 72.60559
1034.828, 69.19263
1035.311, 65.75342
1035.793, 62.92542
1036.275, 67.92712
1036.757, 81.46960
1037.239, 91.49622
1037.721, 86.69373
1038.203, 77.81799
1038.685, 71.53857
1039.167, 67.99353
1039.650, 64.78601
1040.132, 61.40845
1040.614, 61.84851
1041.096, 69.75378
1041.578, 78.54443
1042.060, 75.13635
1042.542, 65.82324
1043.024, 62.21680
1043.507, 73.40088
1043.989, 79.25989
1044.471, 73.68420
1044.953, 64.55615
1045.435, 56.21558
1045.917, 49.13770
1046.399, 50.10278
1046.881, 58.87476
1047.364, 67.42004
1047.846, 69.44897
1048.328, 70.40417
1048.810, 76.55005
1049.292, 84.79724
1049.774, 81.71472
1050.256, 62.76697
1050.738, 48.76550
1051.220, 44.75635
1051.703, 44.97375
1052.185, 41.77307
1052.667, 36.81091
1053.149, 32.70935
1053.631, 29.82642
1054.113, 28.89954
1054.595, 30.86792
1055.077, 34.05627
1055.559, 38.11279
1056.042, 42.75037
1056.524, 46.23511
1057.006, 48.58435
1057.488, 50.22656
1057.970, 52.18518
1058.452, 52.77539
1058.934, 48.29443
1059.416, 42.61792
1059.899, 43.56714
1060.381, 54.06067
1060.863, 61.23096
1061.345, 63.83911
1061.827, 64.01538
1062.309, 62.49268
1062.791, 60.66797
1063.273, 62.16052
1063.755, 67.07959
1064.238, 67.22253
1064.720, 53.80176
1065.202, 44.24048
1065.684, 46.07324
1066.166, 53.40369
1066.648, 46.99365
1067.130, 30.51831
1067.612, 20.68860
1068.094, 25.20288
1068.577, 31.79053
1069.059, 33.08850
1069.541, 32.98083
1070.023, 36.60815
1070.505, 46.47278
1070.987, 42.59998
1071.469, 23.34119
1071.951, 7.960938
1072.434, 13.54163
1072.916, 25.66663
1073.398, 26.45496
1073.880, 20.08960
1074.362, 22.07483
1074.844, 46.06018
1075.326, 60.73877
1075.808, 60.25476
1076.291, 52.94666
1076.773, 51.79187
1077.255, 53.42896
1077.737, 46.38306
1078.219, 27.01379
1078.701, 11.60754
1079.183, 13.79773
1079.665, 18.81519
1080.147, 19.57800
1080.630, 16.47632
1081.112, 10.63196
1081.594, 2.264038
1082.076, 2.109741
1082.558, 0.6595460
1083.040, 6.685425
1083.522, 14.71667
1084.004, 22.98071
1084.486, 28.97852
1084.969, 32.45996
1085.451, 34.47900
1085.933, 35.46265
1086.415, 33.35498
1086.897, 22.55371
1087.379, 9.822388
1087.861, 10.14526
1088.343, 20.73669
1088.826, 26.36047
1089.308, 12.75464
1089.790, 2.822510
1090.272, 2.124634
1090.754, 6.868530
1091.236, 12.67432
1091.718, 18.93018
1092.200, 22.16516
1092.682, 21.58862
1093.165, 21.50964
1093.647, 29.77441
1094.129, 34.51892
1094.611, 25.78491
1095.093, 6.158691
1095.575, 6.974609
1096.057, 13.62268
1096.539, 12.83667
1097.022, 0.2224120
1097.504, 12.34338
1097.986, 1.210571
1098.468, 16.76538
1098.950, 16.68323
1099.432, 19.21057
1099.914, 32.27429
1100.396, 15.69385
1100.879, 1.884399
1101.361, 4.746582
1101.843, 21.96045
1102.325, 21.69287
1102.807, 8.817017
1103.289, 1.633423
1103.771, 17.16284
1104.253, 24.71667
1104.735, 15.49963
1105.218, 0.7025150
1105.700, 3.599243
1106.182, 1.282104
1106.664, 8.960938
1107.146, 18.97253
1107.628, 27.00928
1108.110, 30.09290
1108.592, 28.73340
1109.074, 20.80933
1109.557, 9.410278
1110.039, 8.613281
1110.521, 18.59216
1111.003, 24.95166
1111.485, 22.78430
1111.967, 17.82104
1112.449, 14.01843
1112.931, 11.10071
1113.414, 8.462891
1113.896, 6.209717
1114.378, 9.541138
1114.860, 18.77209
1115.342, 24.24683
1115.824, 16.48083
1116.306, 4.839355
1116.788, 4.837036
1117.271, 12.57654
1117.753, 19.38196
1118.235, 20.78027
1118.717, 24.49902
1119.199, 34.05505
1119.681, 41.04114
1120.163, 32.64465
1120.645, 15.54846
1121.127, 8.681274
1121.609, 12.17859
1122.092, 18.56421
1122.574, 30.52588
1123.056, 36.59509
1123.538, 30.65930
1124.020, 18.85425
1124.502, 13.20837
1124.984, 13.14587
1125.466, 14.09851
1125.949, 15.50244
1126.431, 15.82629
1126.913, 13.71851
1127.395, 10.34705
1127.877, 6.593872
1128.359, 2.441772
1128.841, 5.684814
1129.323, 18.62842
1129.806, 17.93323
1130.288, 10.30017
1130.770, 39.52429
1131.252, 38.07983
1131.734, 23.49060
1132.216, 19.70984
1132.698, 34.97131
1133.180, 40.77393
1133.662, 36.39307
1134.145, 25.31104
1134.627, 0.5919190
1135.109, 23.53674
1135.591, 18.16211
1136.073, 5.941284
1136.555, 21.23718
1137.037, 11.82446
1137.519, 5.234497
1138.001, 3.684204
1138.484, 4.046143
1138.966, 1.717651
1139.448, 0.8605960
1139.930, 4.014282
1140.412, 15.85986
1140.894, 25.60095
1141.376, 32.83032
1141.858, 32.53577
1142.341, 20.31531
1142.823, 3.805664
1143.305, 2.531494
1143.787, 0.7017820
1144.269, 0.7493900
1144.751, 0.5758060
1145.233, 2.243530
1145.715, 15.93054
1146.198, 24.18616
1146.680, 16.13843
1147.162, 3.991211
1147.644, 15.89795
1148.126, 20.22327
1148.608, 24.81128
1149.090, 33.19482
1149.572, 40.02698
1150.054, 38.93274
1150.536, 36.07446
1151.019, 38.97083
1151.501, 48.87744
1151.983, 46.39026
1152.465, 30.97021
1152.947, 16.52600
1153.429, 11.52002
1153.911, 9.568848
1154.393, 1.229492
1154.876, 6.733521
1155.358, 0.7637940
1155.840, 28.62732
1156.322, 42.77808
1156.804, 40.00598
1157.286, 29.85376
1157.768, 13.08972
1158.250, 2.665649
1158.733, 8.388794
1159.215, 4.784546
1159.697, 4.825684
1160.179, 29.31909
1160.661, 36.96985
1161.143, 19.89746
1161.625, 2.664551
1162.107, 10.10852
1162.589, 6.616699
1163.072, 3.057495
1163.554, 17.70728
1164.036, 22.68213
1164.518, 5.046265
1165.000, 6.643677
1165.482, 4.401001
1165.964, 5.292847
1166.446, 11.59680
1166.928, 15.98096
1167.411, 23.58997
1167.893, 36.79736
1168.375, 42.21509
1168.857, 27.44934
1169.339, 14.93323
1169.821, 15.54211
1170.303, 22.65771
1170.785, 12.51892
1171.268, 7.944092
1171.750, 15.52283
1172.232, 2.784790
1172.714, 19.95898
1173.196, 25.40698
1173.678, 25.94604
1174.160, 24.55237
1174.642, 20.52844
1175.125, 16.77979
1175.607, 13.95667
1176.089, 10.92529
1176.571, 2.235107
1177.053, 0.4211430
1177.535, 15.20752
1178.017, 35.67981
1178.499, 53.44910
1178.981, 67.25830
1179.464, 61.95691
1179.946, 38.79541
1180.428, 20.17297
1180.910, 24.52661
1181.392, 31.48083
1181.874, 29.60291
1182.356, 23.99988
1182.838, 19.93042
1183.320, 16.78418
1183.803, 19.40027
1184.285, 24.64661
1184.767, 27.74536
1185.249, 19.06494
1185.731, 12.86609
1186.213, 23.69666
1186.695, 44.10535
1187.177, 52.68054
1187.660, 47.87048
1188.142, 46.07483
1188.624, 48.73291
1189.106, 50.32458
1189.588, 46.01990
1190.070, 41.13379
1190.552, 34.54700
1191.034, 24.87854
1191.516, 19.70410
1191.999, 19.61365
1192.481, 21.15320
1192.963, 26.54126
1193.445, 33.01990
1193.927, 38.71240
1194.409, 40.99011
1194.891, 34.26379
1195.373, 18.40576
1195.855, 8.221802
1196.338, 15.22437
1196.820, 21.21204
1197.302, 17.81458
1197.784, 14.52551
1198.266, 25.96594
1198.748, 40.87317
1199.230, 44.73975
1199.712, 31.85437
1200.195, 22.77136
1200.677, 17.92786
1201.159, 15.04089
1201.641, 12.30042
1202.123, 11.85364
1202.605, 17.83374
1203.087, 26.50586
1203.569, 32.92749
1204.052, 36.88489
1204.534, 34.89917
1205.016, 25.47864
1205.498, 19.38428
1205.980, 30.92773
1206.462, 44.48523
1206.944, 34.94714
1207.426, 13.88892
1207.908, 10.35046
1208.391, 39.42944
1208.873, 49.13525
1209.355, 34.48938
1209.837, 18.46008
1210.319, 23.76086
1210.801, 35.95105
1211.283, 40.13928
1211.765, 37.48352
1212.247, 32.42371
1212.730, 22.71704
1213.212, 21.42603
1213.694, 32.15747
1214.176, 40.34351
1214.658, 26.23950
1215.140, 6.221558
1215.622, 0.5927730
1216.104, 4.883545
1216.587, 11.02710
1217.069, 18.44482
1217.551, 19.57544
1218.033, 7.606567
1218.515, 3.1860001E-02
1218.997, 6.883667
1219.479, 0.0000000E+00
##END=



