##NAMES=Bikitaite
##RRUFFID=R050160
##IDEAL CHEMISTRY=LiAlSi_2_O_6_&#183;H_2_O
##LOCALITY=Foote mine, Kings Mountain, Cleveland County, North Carolina, USA
##OWNER=RRUFF
##SOURCE=Jim McGlasson
##DESCRIPTION=Colorless prismatic crystals
##STATUS=The identification of this mineral has been confirmed by X-ray diffraction and chemical analysis
##URL=rruff.info/R050160
##MEASURED CHEMISTRY=Li_1.00_Si_2.00_O_6_Â·1.25H_2_O ; Li not measured but estimated by stoichiometry
128.4585, 0.0000000E+00
128.9406, 2.347931
129.4227, 0.1091610
129.9048, 1.309906
130.3869, 0.6396480
130.8691, 3.024902
131.3512, 10.81671
131.8333, 20.84171
132.3154, 31.49286
132.7975, 44.20697
133.2796, 59.41452
133.7618, 76.11963
134.2439, 94.12964
134.7260, 114.0151
135.2081, 136.2208
135.6902, 160.8086
136.1723, 188.2801
136.6545, 218.5303
137.1366, 251.3473
137.6187, 288.6273
138.1008, 331.5367
138.5829, 377.9466
139.0650, 424.4623
139.5472, 471.5602
140.0293, 517.5845
140.5114, 563.0452
140.9935, 609.6906
141.4756, 650.9389
141.9577, 686.8493
142.4399, 717.2397
142.9220, 741.1332
143.4041, 758.6793
143.8862, 769.4714
144.3683, 772.8998
144.8504, 767.1707
145.3326, 758.4163
145.8147, 747.5668
146.2968, 734.5076
146.7789, 719.2873
147.2610, 701.9799
147.7431, 682.4974
148.2253, 660.2074
148.7074, 632.6837
149.1895, 605.9689
149.6716, 581.6400
150.1537, 559.9071
150.6358, 538.0804
151.1180, 515.8634
151.6001, 494.1919
152.0822, 474.5452
152.5643, 457.1962
153.0464, 444.6043
153.5285, 436.7390
154.0107, 434.0246
154.4928, 432.0053
154.9749, 429.4797
155.4570, 426.4728
155.9391, 423.2106
156.4212, 419.5199
156.9034, 414.7085
157.3855, 408.3397
157.8676, 401.5508
158.3497, 394.8104
158.8318, 389.4161
159.3139, 384.2642
159.7961, 377.3141
160.2782, 367.4103
160.7603, 356.0823
161.2424, 343.8473
161.7245, 330.2758
162.2066, 316.9606
162.6888, 304.6800
163.1709, 293.0335
163.6530, 281.1452
164.1351, 268.2015
164.6172, 255.1681
165.0993, 242.6246
165.5815, 230.5250
166.0636, 219.1283
166.5457, 208.8958
167.0278, 199.4611
167.5099, 189.7134
167.9921, 179.1066
168.4742, 167.9294
168.9563, 156.4135
169.4384, 144.4221
169.9205, 132.3075
170.4026, 120.3669
170.8848, 108.5053
171.3669, 96.52567
171.8490, 83.79568
172.3311, 71.06961
172.8132, 59.23282
173.2953, 48.53870
173.7775, 38.77255
174.2596, 29.86322
174.7417, 21.72974
175.2238, 14.07419
175.7059, 6.378204
176.1880, 0.8833920
176.6702, 6.864075
177.1523, 10.96268
177.6344, 13.89810
178.1165, 16.47403
178.5986, 18.71365
179.0807, 20.53766
179.5629, 21.97528
180.0450, 22.98352
180.5271, 23.43842
181.0092, 23.24353
181.4913, 22.52521
181.9734, 21.50610
182.4556, 20.19977
182.9377, 18.51538
183.4198, 16.30157
183.9019, 13.60202
184.3840, 10.63232
184.8661, 7.590973
185.3483, 4.301971
185.8304, 0.1423030
186.3125, 5.441956
186.7946, 11.43030
187.2767, 17.42926
187.7588, 23.47845
188.2409, 29.42825
188.7231, 34.80276
189.2052, 39.99014
189.6873, 46.44522
190.1694, 54.24503
190.6515, 63.19858
191.1336, 73.26547
191.6158, 84.41385
192.0979, 96.14285
192.5800, 108.4893
193.0621, 121.3559
193.5442, 134.0352
194.0263, 146.3016
194.5085, 159.5066
194.9906, 175.5338
195.4727, 194.3590
195.9548, 214.7803
196.4369, 235.5964
196.9190, 256.9665
197.4012, 281.5947
197.8833, 309.3300
198.3654, 340.5973
198.8475, 375.1454
199.3296, 413.1120
199.8117, 454.1984
200.2939, 498.9120
200.7760, 547.0845
201.2581, 597.0337
201.7402, 650.2729
202.2223, 702.2981
202.7044, 747.0124
203.1866, 784.7715
203.6687, 811.2763
204.1508, 825.0827
204.6329, 826.3592
205.1150, 812.5291
205.5971, 781.2828
206.0793, 737.8256
206.5614, 689.7070
207.0435, 635.5729
207.5256, 583.8630
208.0077, 537.7228
208.4898, 496.9159
208.9720, 463.0767
209.4541, 436.3563
209.9362, 416.4332
210.4183, 403.1026
210.9004, 397.2137
211.3825, 395.6682
211.8647, 397.1081
212.3468, 401.3802
212.8289, 409.3487
213.3110, 421.2990
213.7931, 436.9005
214.2752, 455.4248
214.7574, 477.7263
215.2395, 501.5692
215.7216, 526.3296
216.2037, 551.8679
216.6858, 578.0995
217.1679, 606.1951
217.6501, 634.1720
218.1322, 657.4294
218.6143, 676.4247
219.0964, 690.3442
219.5785, 698.9627
220.0606, 703.3184
220.5428, 699.5780
221.0249, 686.8141
221.5070, 666.3676
221.9891, 641.4413
222.4712, 610.8363
222.9533, 577.4913
223.4355, 542.9557
223.9176, 505.8474
224.3997, 469.9430
224.8818, 434.4488
225.3639, 400.3586
225.8460, 368.9880
226.3282, 340.7139
226.8103, 314.8688
227.2924, 291.7941
227.7745, 271.3561
228.2566, 253.0676
228.7387, 237.1801
229.2209, 223.2904
229.7030, 210.8326
230.1851, 199.3843
230.6672, 189.8435
231.1493, 182.7245
231.6314, 178.6840
232.1136, 175.1294
232.5957, 171.7535
233.0778, 168.9229
233.5599, 167.4901
234.0420, 167.3943
234.5241, 168.2534
235.0063, 170.0925
235.4884, 173.0269
235.9705, 176.7491
236.4526, 181.2281
236.9347, 186.6041
237.4168, 193.2572
237.8990, 201.5708
238.3811, 210.6028
238.8632, 219.9110
239.3453, 229.3597
239.8274, 239.6591
240.3095, 250.4637
240.7917, 262.4150
241.2738, 276.7547
241.7559, 293.8641
242.2380, 312.7793
242.7201, 332.9794
243.2022, 354.3659
243.6844, 377.8199
244.1665, 403.7632
244.6486, 431.4985
245.1307, 460.0917
245.6128, 489.8358
246.0949, 519.9118
246.5771, 550.3457
247.0592, 581.6768
247.5413, 611.4305
248.0234, 639.8363
248.5055, 666.2911
248.9876, 689.3345
249.4697, 709.0072
249.9519, 725.4566
250.4340, 738.3032
250.9161, 746.9633
251.3982, 754.7836
251.8803, 760.2307
252.3624, 766.0466
252.8446, 776.0390
253.3267, 791.6309
253.8088, 808.8231
254.2909, 827.6136
254.7730, 848.8767
255.2551, 865.8089
255.7373, 879.7717
256.2194, 888.0687
256.7015, 887.5522
257.1836, 878.5642
257.6657, 859.9418
258.1479, 829.8987
258.6300, 788.1674
259.1121, 743.8646
259.5942, 696.2418
260.0763, 646.8134
260.5584, 595.1508
261.0406, 540.2398
261.5227, 487.0063
262.0048, 436.0312
262.4869, 387.7941
262.9690, 343.0992
263.4511, 302.2734
263.9333, 264.7039
264.4154, 229.9363
264.8975, 197.4921
265.3796, 168.5110
265.8617, 143.3242
266.3438, 121.9564
266.8260, 101.9666
267.3081, 83.19312
267.7902, 66.33633
268.2723, 52.75375
268.7544, 42.90634
269.2365, 33.74103
269.7187, 24.70932
270.2008, 15.93045
270.6829, 8.565002
271.1650, 2.777191
271.6471, 1.999756
272.1292, 6.011902
272.6114, 9.098969
273.0935, 11.34363
273.5756, 12.62225
274.0577, 12.84039
274.5398, 11.37360
275.0219, 8.260742
275.5041, 4.134369
275.9862, 0.8631290
276.4683, 6.777527
276.9504, 12.35709
277.4325, 17.07065
277.9146, 21.37579
278.3968, 26.56165
278.8788, 32.66080
279.3610, 39.05164
279.8431, 45.14813
280.3252, 50.85135
280.8073, 57.71768
281.2894, 66.23007
281.7715, 75.96881
282.2537, 85.53354
282.7358, 94.79892
283.2179, 105.2227
283.7000, 117.6766
284.1821, 132.1718
284.6642, 147.1987
285.1464, 162.5717
285.6285, 179.0512
286.1106, 198.0386
286.5927, 219.5350
287.0748, 242.0005
287.5569, 265.2120
288.0391, 289.0743
288.5212, 312.4930
289.0033, 335.8005
289.4854, 357.7456
289.9675, 377.1272
290.4496, 393.9806
290.9318, 407.8478
291.4139, 418.9140
291.8960, 427.0098
292.3781, 431.4392
292.8602, 432.2505
293.3423, 429.4573
293.8245, 423.4333
294.3066, 413.9699
294.7887, 399.8502
295.2708, 379.8962
295.7529, 355.6865
296.2350, 329.2219
296.7172, 300.6415
297.1993, 273.2166
297.6814, 249.1848
298.1635, 228.1649
298.6456, 209.4662
299.1277, 192.6432
299.6099, 178.0097
300.0920, 167.1918
300.5741, 159.7035
301.0562, 153.1904
301.5383, 146.4305
302.0204, 139.3352
302.5026, 131.7865
302.9847, 123.5608
303.4668, 115.1538
303.9489, 106.7670
304.4310, 98.59055
304.9131, 90.73618
305.3953, 82.42178
305.8774, 74.85095
306.3595, 69.77884
306.8416, 67.59238
307.3237, 67.28525
307.8058, 68.34946
308.2880, 70.66089
308.7701, 73.92969
309.2522, 77.93225
309.7343, 82.91150
310.2164, 89.54819
310.6985, 98.16229
311.1807, 106.4834
311.6628, 113.8694
312.1449, 119.8939
312.6270, 123.6751
313.1091, 125.4141
313.5912, 124.4963
314.0734, 120.0071
314.5555, 111.9520
315.0376, 102.5375
315.5197, 92.74280
316.0018, 82.17004
316.4839, 70.65274
316.9661, 55.56476
317.4482, 41.77216
317.9303, 31.51810
318.4124, 24.53928
318.8945, 18.83887
319.3766, 13.24371
319.8588, 8.935425
320.3409, 6.858307
320.8230, 8.158234
321.3051, 10.40378
321.7872, 12.82861
322.2693, 15.67963
322.7515, 19.71158
323.2336, 25.99231
323.7157, 32.82794
324.1978, 39.57217
324.6799, 46.59720
325.1620, 52.48032
325.6442, 57.96179
326.1263, 62.06708
326.6084, 63.06708
327.0905, 59.24448
327.5726, 53.71890
328.0547, 47.25534
328.5369, 39.80823
329.0190, 31.63513
329.5011, 22.21289
329.9832, 12.22092
330.4653, 2.457977
330.9474, 8.269043
331.4296, 17.14175
331.9117, 23.21017
332.3938, 26.22458
332.8759, 29.08157
333.3580, 32.56238
333.8401, 35.04330
334.3223, 35.30301
334.8044, 32.77371
335.2865, 29.24255
335.7686, 24.77988
336.2507, 19.44821
336.7328, 13.96838
337.2150, 8.548309
337.6971, 2.591766
338.1792, 4.465057
338.6613, 12.79837
339.1434, 21.18555
339.6255, 29.47739
340.1077, 37.82910
340.5898, 47.05289
341.0719, 57.19278
341.5540, 67.26779
342.0361, 76.47455
342.5182, 84.80206
343.0004, 94.06265
343.4825, 104.5096
343.9646, 115.1216
344.4467, 124.1835
344.9288, 131.5740
345.4109, 138.8219
345.8931, 146.4932
346.3752, 154.4245
346.8573, 161.6262
347.3394, 168.1681
347.8215, 173.9937
348.3036, 179.0036
348.7858, 183.2446
349.2679, 186.8837
349.7500, 189.6766
350.2321, 192.1799
350.7142, 195.8422
351.1964, 200.4471
351.6785, 204.0970
352.1606, 205.5164
352.6427, 204.9311
353.1248, 202.8091
353.6069, 199.1876
354.0891, 194.1284
354.5712, 187.4593
355.0533, 179.4034
355.5354, 170.4380
356.0175, 159.7151
356.4996, 148.8864
356.9818, 139.5391
357.4639, 131.8462
357.9460, 125.2628
358.4281, 118.8195
358.9102, 113.3322
359.3923, 110.0900
359.8745, 110.4473
360.3566, 112.5192
360.8387, 115.1622
361.3208, 118.4023
361.8029, 122.8225
362.2850, 129.1956
362.7672, 136.5999
363.2493, 144.2411
363.7314, 150.9620
364.2135, 159.0926
364.6956, 169.3433
365.1777, 181.5330
365.6599, 194.9928
366.1420, 210.3829
366.6241, 226.4444
367.1062, 242.2117
367.5883, 256.7075
368.0704, 273.1342
368.5526, 292.5232
369.0347, 313.8232
369.5168, 335.7300
369.9989, 357.8159
370.4810, 380.8994
370.9631, 404.8900
371.4453, 429.4982
371.9274, 457.3702
372.4095, 489.2294
372.8916, 523.3594
373.3737, 558.5153
373.8558, 594.3143
374.3380, 632.0536
374.8201, 672.2499
375.3022, 714.9064
375.7843, 758.7623
376.2664, 804.3693
376.7485, 850.9567
377.2307, 897.7117
377.7128, 944.5418
378.1949, 993.9821
378.6770, 1046.592
379.1591, 1101.104
379.6412, 1154.596
380.1234, 1207.784
380.6055, 1257.924
381.0876, 1304.106
381.5697, 1346.166
382.0518, 1384.813
382.5339, 1419.930
383.0161, 1450.516
383.4982, 1474.944
383.9803, 1493.532
384.4624, 1506.562
384.9445, 1513.093
385.4266, 1515.042
385.9088, 1515.226
386.3909, 1513.667
386.8730, 1510.963
387.3551, 1506.870
387.8372, 1501.874
388.3193, 1496.544
388.8015, 1490.327
389.2836, 1484.804
389.7657, 1481.118
390.2478, 1479.529
390.7299, 1480.228
391.2120, 1483.592
391.6942, 1489.300
392.1763, 1498.207
392.6584, 1510.532
393.1405, 1521.747
393.6226, 1530.579
394.1047, 1536.757
394.5869, 1539.785
395.0690, 1541.707
395.5511, 1538.373
396.0332, 1529.433
396.5153, 1514.185
396.9974, 1489.916
397.4796, 1455.834
397.9617, 1412.657
398.4438, 1360.561
398.9259, 1297.316
399.4080, 1229.183
399.8901, 1153.180
400.3723, 1072.843
400.8544, 995.6929
401.3365, 920.3060
401.8186, 849.1675
402.3007, 783.1100
402.7828, 722.3492
403.2649, 664.5131
403.7470, 608.4638
404.2292, 556.3375
404.7113, 511.0241
405.1934, 473.6947
405.6755, 438.7855
406.1576, 405.8710
406.6397, 374.9532
407.1219, 346.5966
407.6040, 320.8513
408.0861, 297.4432
408.5682, 276.0446
409.0503, 256.9948
409.5324, 240.5562
410.0146, 227.1015
410.4967, 215.2381
410.9788, 202.6364
411.4609, 189.6156
411.9430, 178.2269
412.4251, 169.7034
412.9073, 163.2553
413.3894, 156.5878
413.8715, 149.7085
414.3536, 143.8488
414.8357, 140.1492
415.3178, 138.0800
415.8000, 136.8174
416.2821, 136.4847
416.7642, 136.2574
417.2463, 134.9246
417.7284, 133.0080
418.2105, 131.9247
418.6927, 132.9211
419.1748, 134.6678
419.6569, 136.5281
420.1390, 138.5780
420.6211, 139.5108
421.1032, 138.2767
421.5854, 135.8187
422.0675, 133.1707
422.5496, 130.8907
423.0317, 128.1531
423.5138, 124.9343
423.9959, 121.1589
424.4781, 116.1926
424.9602, 109.0673
425.4423, 101.4952
425.9244, 94.19781
426.4065, 87.19653
426.8886, 80.53043
427.3708, 74.01364
427.8529, 67.85083
428.3350, 62.41565
428.8171, 58.28265
429.2992, 53.79852
429.7813, 48.38016
430.2635, 42.09116
430.7456, 36.31967
431.2277, 31.20840
431.7098, 26.38824
432.1919, 21.35147
432.6740, 15.99612
433.1562, 11.82797
433.6383, 9.260040
434.1204, 7.637115
434.6025, 5.567963
435.0846, 3.071838
435.5667, 0.9821470
436.0489, 0.1863400
436.5310, 0.6258540
437.0131, 0.9848020
437.4952, 1.298187
437.9773, 1.247803
438.4594, 0.4182430
438.9416, 1.001923
439.4237, 2.613007
439.9058, 4.294373
440.3879, 6.131195
440.8700, 8.336212
441.3521, 10.81830
441.8343, 13.24353
442.3164, 15.98459
442.7985, 18.24860
443.2806, 19.23395
443.7627, 18.55896
444.2448, 17.82681
444.7270, 18.25626
445.2091, 18.80228
445.6912, 18.22470
446.1733, 15.59848
446.6554, 12.43893
447.1375, 9.149231
447.6197, 5.699158
448.1018, 1.780548
448.5839, 4.051117
449.0660, 9.133148
449.5481, 12.05945
450.0302, 11.62463
450.5124, 11.54578
450.9945, 11.79776
451.4766, 12.40637
451.9587, 13.71332
452.4408, 16.47253
452.9229, 17.81485
453.4051, 16.83746
453.8872, 13.72501
454.3693, 10.03613
454.8514, 5.871582
455.3335, 0.6082760
455.8156, 6.705139
456.2978, 15.85272
456.7799, 24.87955
457.2620, 33.42755
457.7441, 42.20416
458.2262, 52.18622
458.7083, 63.31949
459.1905, 75.82278
459.6726, 90.15073
460.1547, 105.6376
460.6368, 121.1065
461.1189, 136.7007
461.6010, 153.3600
462.0832, 172.5914
462.5653, 193.0009
463.0474, 212.7687
463.5295, 231.9240
464.0116, 250.0201
464.4937, 266.8882
464.9759, 282.5456
465.4580, 296.5016
465.9401, 309.0009
466.4222, 319.4849
466.9043, 327.2458
467.3864, 331.9644
467.8686, 336.2370
468.3507, 339.1679
468.8328, 342.5004
469.3149, 347.4632
469.7970, 354.3188
470.2791, 362.3190
470.7613, 371.3287
471.2434, 381.4232
471.7255, 392.7956
472.2076, 405.4412
472.6897, 419.3895
473.1718, 435.2238
473.6540, 452.8823
474.1361, 469.9125
474.6182, 486.0468
475.1003, 502.5356
475.5824, 521.0574
476.0645, 541.4451
476.5467, 561.4349
477.0288, 580.9272
477.5109, 599.5193
477.9930, 616.0790
478.4751, 630.9564
478.9572, 645.8007
479.4394, 661.6511
479.9215, 678.0011
480.4036, 693.1213
480.8857, 706.9169
481.3678, 723.2168
481.8499, 745.9120
482.3321, 772.0842
482.8142, 798.1266
483.2963, 821.9031
483.7784, 847.2384
484.2605, 876.3159
484.7426, 907.9713
485.2248, 939.1862
485.7069, 968.2675
486.1890, 997.3221
486.6711, 1027.125
487.1532, 1057.903
487.6353, 1088.755
488.1175, 1118.959
488.5996, 1149.199
489.0817, 1179.668
489.5638, 1209.053
490.0459, 1241.297
490.5280, 1277.487
491.0102, 1316.234
491.4923, 1354.526
491.9744, 1392.142
492.4565, 1431.740
492.9386, 1475.816
493.4207, 1523.845
493.9029, 1571.581
494.3850, 1619.630
494.8671, 1665.193
495.3492, 1706.570
495.8313, 1743.859
496.3134, 1778.410
496.7956, 1811.550
497.2777, 1839.507
497.7598, 1859.192
498.2419, 1870.368
498.7240, 1871.868
499.2061, 1863.900
499.6883, 1845.508
500.1704, 1815.354
500.6525, 1773.480
501.1346, 1723.192
501.6167, 1662.669
502.0988, 1595.630
502.5810, 1524.715
503.0631, 1447.781
503.5452, 1369.339
504.0273, 1288.804
504.5094, 1207.284
504.9915, 1129.057
505.4737, 1054.533
505.9558, 983.0325
506.4379, 914.6117
506.9200, 849.1952
507.4021, 787.7780
507.8842, 729.7034
508.3664, 675.8597
508.8485, 626.4303
509.3306, 581.4034
509.8127, 538.7236
510.2948, 498.3789
510.7769, 460.4204
511.2591, 425.4737
511.7412, 393.3801
512.2233, 364.3735
512.7054, 339.0536
513.1875, 316.2079
513.6696, 293.7167
514.1517, 271.8066
514.6339, 251.7895
515.1160, 235.1004
515.5981, 220.3206
516.0802, 206.0701
516.5623, 192.2465
517.0444, 178.6523
517.5266, 164.2639
518.0087, 150.4237
518.4908, 138.6008
518.9729, 130.6330
519.4550, 122.9864
519.9371, 114.8606
520.4193, 106.4851
520.9014, 99.15475
521.3835, 93.06668
521.8656, 87.66656
522.3477, 82.78299
522.8298, 78.41833
523.3120, 74.51419
523.7941, 71.19778
524.2762, 68.33728
524.7583, 65.79407
525.2404, 63.53036
525.7225, 61.88651
526.2047, 60.97046
526.6868, 60.53970
527.1689, 60.23300
527.6510, 60.04227
528.1331, 59.91934
528.6152, 59.86755
529.0974, 59.86447
529.5795, 59.63098
530.0616, 59.21960
530.5437, 59.37335
531.0258, 60.90173
531.5079, 63.02679
531.9901, 64.89029
532.4722, 65.97015
532.9543, 67.83008
533.4364, 71.97528
533.9185, 76.98648
534.4006, 80.98425
534.8828, 82.17691
535.3649, 83.88120
535.8470, 86.88943
536.3291, 91.00897
536.8112, 95.14090
537.2933, 99.42639
537.7755, 103.4927
538.2576, 107.1811
538.7397, 110.5195
539.2218, 113.4431
539.7039, 115.9984
540.1860, 117.9462
540.6682, 119.3043
541.1503, 119.9936
541.6324, 118.9290
542.1145, 115.7426
542.5966, 111.0081
543.0787, 105.2426
543.5609, 98.60561
544.0430, 91.68701
544.5251, 84.70712
545.0072, 77.63885
545.4893, 70.43304
545.9714, 63.12398
546.4536, 56.13622
546.9357, 49.30786
547.4178, 43.12866
547.8999, 38.11665
548.3820, 34.96939
548.8641, 31.54367
549.3463, 26.94252
549.8284, 21.99062
550.3105, 17.75935
550.7926, 14.46121
551.2747, 11.60497
551.7568, 9.093658
552.2390, 6.928375
552.7211, 5.019623
553.2032, 3.336411
553.6853, 2.019913
554.1674, 1.254150
554.6495, 0.9976500
555.1317, 0.5577700
555.6138, 6.3827999E-02
556.0959, 0.6324460
556.5780, 0.8555150
557.0601, 0.8345340
557.5422, 0.8114780
558.0244, 0.7805790
558.5065, 0.9096980
558.9886, 1.381363
559.4707, 2.136414
559.9528, 3.008591
560.4349, 4.545486
560.9171, 5.649841
561.3992, 5.350937
561.8813, 3.892242
562.3634, 2.960205
562.8455, 3.593857
563.3276, 4.374939
563.8098, 4.585083
564.2919, 3.972473
564.7740, 3.591644
565.2561, 3.653061
565.7382, 3.738922
566.2203, 3.351563
566.7025, 2.255341
567.1846, 1.776459
567.6667, 2.338287
568.1488, 3.275360
568.6309, 2.960434
569.1130, 1.466293
569.5952, 0.3135830
570.0773, 0.3321380
570.5594, 1.033554
571.0415, 1.712051
571.5236, 2.343796
572.0057, 2.654099
572.4879, 2.259567
572.9700, 1.571793
573.4521, 1.018158
573.9342, 0.6857600
574.4163, 0.3471830
574.8984, 7.5759999E-02
575.3806, 0.5696720
575.8627, 1.114929
576.3448, 1.970322
576.8269, 2.566513
577.3090, 2.681976
577.7911, 2.518890
578.2733, 2.509552
578.7554, 2.719437
579.2375, 2.988800
579.7196, 3.323669
580.2017, 3.688736
580.6838, 3.741302
581.1660, 3.416504
581.6481, 3.190308
582.1302, 3.513260
582.6123, 4.251541
583.0944, 4.826523
583.5765, 5.177582
584.0587, 5.563507
584.5408, 6.454788
585.0229, 7.521378
585.5050, 8.170731
585.9871, 8.004715
586.4692, 7.729446
586.9514, 7.624313
587.4335, 7.723495
587.9156, 8.115204
588.3977, 9.200180
588.8798, 10.20551
589.3619, 10.85117
589.8441, 11.12708
590.3262, 11.34563
590.8083, 11.42239
591.2904, 11.55992
591.7725, 11.89671
592.2546, 12.49353
592.7368, 12.88657
593.2189, 12.98820
593.7010, 13.11316
594.1831, 13.80046
594.6652, 14.93105
595.1473, 15.50151
595.6295, 15.15334
596.1116, 14.58663
596.5937, 14.82701
597.0758, 15.61812
597.5579, 16.27522
598.0400, 16.38546
598.5222, 16.32375
599.0043, 16.26642
599.4864, 16.23908
599.9685, 16.35320
600.4506, 16.75049
600.9327, 17.22294
601.4149, 17.71468
601.8970, 18.27625
602.3791, 18.57426
602.8612, 18.35013
603.3433, 18.10826
603.8254, 18.32466
604.3076, 19.22515
604.7897, 19.61481
605.2718, 19.19579
605.7539, 18.63912
606.2360, 19.24658
606.7181, 20.89492
607.2003, 22.18016
607.6824, 22.52937
608.1645, 22.47170
608.6466, 22.82775
609.1287, 23.50714
609.6108, 24.16751
610.0930, 24.70675
610.5751, 25.08575
611.0572, 25.03016
611.5393, 24.54603
612.0214, 24.62912
612.5035, 26.18200
612.9857, 28.00750
613.4678, 29.36571
613.9499, 29.93818
614.4320, 30.64824
614.9141, 31.74828
615.3962, 32.78587
615.8784, 33.13647
616.3605, 32.51036
616.8426, 32.49701
617.3247, 33.41099
617.8068, 34.85568
618.2889, 36.06261
618.7711, 37.08147
619.2532, 38.12167
619.7353, 39.26222
620.2174, 40.54388
620.6995, 42.11336
621.1816, 43.88081
621.6638, 45.42810
622.1459, 46.21428
622.6280, 47.01648
623.1101, 48.63086
623.5922, 51.23766
624.0743, 53.14128
624.5565, 53.41985
625.0386, 53.19753
625.5207, 53.27002
626.0028, 54.40869
626.4849, 54.17351
626.9670, 52.08815
627.4492, 49.27321
627.9313, 47.30981
628.4134, 46.34789
628.8955, 44.32735
629.3776, 40.60454
629.8597, 36.04178
630.3419, 31.81435
630.8240, 28.03100
631.3061, 25.11453
631.7882, 23.96528
632.2703, 23.30721
632.7524, 21.55045
633.2346, 18.96053
633.7167, 16.82646
634.1988, 16.30685
634.6809, 16.04269
635.1630, 15.24915
635.6451, 13.77872
636.1273, 12.22009
636.6094, 10.34790
637.0915, 8.684052
637.5736, 7.603683
638.0557, 7.270813
638.5378, 6.995705
639.0200, 6.748344
639.5021, 6.551491
639.9842, 6.546219
640.4663, 6.715042
640.9484, 6.591576
641.4305, 5.964569
641.9127, 5.185654
642.3948, 4.691505
642.8769, 4.458717
643.3590, 4.389900
643.8411, 4.754875
644.3232, 4.970482
644.8054, 4.467323
645.2875, 3.413605
645.7696, 2.599266
646.2517, 2.314270
646.7338, 2.306160
647.2159, 2.555908
647.6981, 3.092316
648.1802, 3.422951
648.6623, 3.544456
649.1444, 3.470139
649.6265, 3.180435
650.1086, 2.666092
650.5908, 2.102570
651.0729, 1.449371
651.5550, 0.9120710
652.0371, 0.7727810
652.5192, 0.9533690
653.0013, 1.242699
653.4835, 1.665512
653.9656, 1.951775
654.4477, 1.738312
654.9298, 1.260635
655.4119, 0.8968120
655.8940, 0.7784580
656.3762, 0.7909010
656.8583, 0.9943770
657.3404, 1.312172
657.8225, 1.465744
658.3046, 1.272614
658.7867, 1.152557
659.2689, 1.140060
659.7510, 1.268028
660.2331, 2.080078
660.7152, 3.756096
661.1973, 5.138092
661.6794, 5.268219
662.1616, 4.496124
662.6437, 4.073921
663.1258, 4.035919
663.6079, 4.173737
664.0900, 4.318169
664.5721, 4.562408
665.0543, 5.030777
665.5364, 5.780197
666.0185, 6.593925
666.5006, 7.617508
666.9827, 8.560707
667.4648, 9.117409
667.9470, 8.578476
668.4291, 8.539902
668.9112, 9.132797
669.3933, 10.21043
669.8754, 11.59599
670.3575, 13.39410
670.8397, 14.99424
671.3218, 16.13254
671.8039, 17.08036
672.2860, 18.50410
672.7681, 20.33858
673.2502, 22.32643
673.7324, 24.39765
674.2145, 26.50160
674.6966, 28.49268
675.1787, 30.41973
675.6608, 32.52843
676.1429, 35.03062
676.6251, 37.64058
677.1072, 40.12428
677.5893, 42.38092
678.0714, 45.21129
678.5535, 49.25441
679.0356, 53.21806
679.5178, 56.22366
679.9999, 58.10863
680.4820, 59.99902
680.9641, 61.88226
681.4462, 63.94263
681.9283, 66.66721
682.4105, 69.82950
682.8926, 72.50266
683.3747, 74.62231
683.8568, 75.95876
684.3389, 76.21466
684.8210, 75.61574
685.3032, 74.52380
685.7853, 73.11421
686.2674, 71.14572
686.7495, 68.16917
687.2316, 64.59399
687.7137, 61.31023
688.1959, 58.51755
688.6780, 55.71440
689.1601, 52.50500
689.6422, 49.24887
690.1243, 47.43402
690.6064, 47.19649
691.0886, 47.21579
691.5707, 46.78987
692.0528, 46.19577
692.5349, 45.94272
693.0170, 46.07355
693.4991, 46.92464
693.9813, 48.95825
694.4634, 51.65829
694.9455, 54.66089
695.4276, 57.91708
695.9097, 61.20139
696.3918, 63.77748
696.8740, 66.84477
697.3561, 71.29320
697.8382, 77.51050
698.3203, 83.77907
698.8024, 90.15381
699.2845, 96.50722
699.7667, 102.6046
700.2488, 108.4713
700.7309, 114.3567
701.2130, 120.2506
701.6951, 126.3144
702.1772, 133.1325
702.6594, 140.2548
703.1415, 146.6058
703.6236, 151.9410
704.1057, 156.4490
704.5878, 160.1985
705.0699, 163.2187
705.5521, 165.5541
706.0342, 167.6433
706.5163, 168.5005
706.9984, 168.0643
707.4805, 166.3375
707.9626, 163.1295
708.4448, 158.0966
708.9269, 152.7399
709.4090, 147.7024
709.8911, 141.4220
710.3732, 136.1577
710.8553, 128.4331
711.3374, 120.7917
711.8195, 113.7194
712.3016, 107.3159
712.7838, 102.0102
713.2659, 97.69743
713.7480, 93.29472
714.2301, 87.89200
714.7122, 82.62735
715.1943, 77.94142
715.6765, 73.86873
716.1586, 70.58672
716.6407, 68.60098
717.1228, 66.66316
717.6049, 63.81696
718.0870, 59.89342
718.5692, 57.04655
719.0513, 55.37590
719.5334, 54.15639
720.0155, 52.56915
720.4976, 50.94072
720.9797, 50.07884
721.4619, 50.20551
721.9440, 50.43311
722.4261, 50.11572
722.9082, 49.56667
723.3903, 49.09933
723.8724, 48.81564
724.3546, 48.57092
724.8367, 48.51099
725.3188, 48.38612
725.8009, 47.96559
726.2830, 47.33528
726.7651, 46.09006
727.2473, 44.12341
727.7294, 41.57751
728.2115, 38.34282
728.6936, 34.59050
729.1757, 31.48036
729.6578, 29.63643
730.1400, 28.16835
730.6221, 26.27597
731.1042, 24.01868
731.5863, 21.55823
732.0684, 18.64923
732.5505, 15.87563
733.0327, 13.38306
733.5148, 11.18576
733.9969, 9.379807
734.4790, 8.315155
734.9611, 6.965790
735.4432, 4.840958
735.9254, 2.257782
736.4075, 0.5542300
736.8896, 0.2713620
737.3717, 0.6795960
737.8538, 0.6116790
738.3359, 0.4373020
738.8181, 0.8872220
739.3002, 1.840073
739.7823, 2.541397
740.2644, 2.372330
740.7465, 2.006531
741.2286, 1.802994
741.7108, 1.795609
742.1929, 1.908585
742.6750, 2.380432
743.1571, 2.644547
743.6392, 2.301392
744.1213, 1.312271
744.6035, 0.9639740
745.0856, 1.359558
745.5677, 1.708282
746.0498, 1.226227
746.5319, 0.2464140
747.0140, 0.4097140
747.4962, 0.6598510
747.9783, 1.189285
748.4604, 2.766785
748.9425, 4.665466
749.4246, 6.177505
749.9067, 6.952484
750.3889, 8.094925
750.8710, 10.08932
751.3531, 12.18506
751.8352, 13.75064
752.3173, 14.56554
752.7994, 15.93280
753.2816, 17.98694
753.7637, 20.35121
754.2458, 22.73105
754.7279, 25.10287
755.2100, 27.43918
755.6921, 29.69194
756.1743, 32.10976
756.6564, 34.88194
757.1385, 37.84285
757.6206, 40.87093
758.1027, 44.38440
758.5848, 47.44209
759.0670, 49.73383
759.5491, 51.49609
760.0312, 52.99707
760.5133, 54.13531
760.9954, 55.55153
761.4775, 57.42044
761.9597, 59.43640
762.4418, 61.24866
762.9239, 62.78384
763.4060, 63.73318
763.8881, 63.92365
764.3702, 63.65526
764.8524, 62.91660
765.3345, 61.97478
765.8166, 61.26830
766.2987, 61.20683
766.7808, 61.02327
767.2629, 60.64627
767.7451, 60.02818
768.2272, 59.00642
768.7093, 57.57127
769.1914, 55.74496
769.6735, 53.34706
770.1556, 50.78760
770.6378, 49.01144
771.1199, 47.91303
771.6020, 46.96349
772.0841, 46.18300
772.5662, 45.20024
773.0483, 43.35419
773.5305, 41.03130
774.0126, 39.22390
774.4947, 38.41028
774.9768, 38.00710
775.4589, 38.20023
775.9410, 38.67784
776.4232, 38.20088
776.9053, 36.39535
777.3874, 34.91284
777.8695, 34.29169
778.3516, 34.41325
778.8337, 34.90866
779.3159, 35.73640
779.7980, 36.83267
780.2801, 38.46420
780.7622, 40.09167
781.2443, 40.90840
781.7264, 41.26781
782.2086, 42.37239
782.6907, 45.46329
783.1728, 48.35419
783.6549, 50.25899
784.1370, 51.32867
784.6191, 52.61700
785.1013, 54.29247
785.5834, 55.39671
786.0655, 55.17162
786.5476, 54.18838
787.0297, 54.34090
787.5118, 55.44124
787.9940, 56.15910
788.4761, 55.83388
788.9582, 54.82359
789.4403, 53.13251
789.9224, 50.81109
790.4045, 48.46834
790.8867, 46.62881
791.3688, 44.31610
791.8509, 41.01102
792.3330, 36.83183
792.8151, 33.55597
793.2972, 31.23376
793.7794, 29.38569
794.2615, 27.98466
794.7436, 26.78203
795.2257, 25.00439
795.7078, 22.76493
796.1899, 20.85027
796.6721, 19.94839
797.1542, 19.27742
797.6363, 18.43947
798.1184, 17.42044
798.6005, 16.09255
799.0826, 14.23746
799.5648, 12.34029
800.0469, 10.50170
800.5290, 8.754601
801.0111, 7.527290
801.4932, 6.865814
801.9753, 6.360878
802.4575, 5.694672
802.9396, 4.996368
803.4217, 4.593849
803.9038, 4.457619
804.3859, 4.203850
804.8680, 3.440842
805.3502, 2.653069
805.8323, 2.061470
806.3144, 1.687965
806.7965, 1.555618
807.2786, 1.866150
807.7607, 2.049332
808.2429, 1.804047
808.7250, 1.193306
809.2071, 0.6909100
809.6892, 0.3115620
810.1713, 0.1282730
810.6534, 0.3730010
811.1356, 0.7017590
811.6177, 0.7664340
812.0998, 0.5854030
812.5819, 0.2804950
813.0640, 0.4879000
813.5461, 0.9655300
814.0283, 0.5772170
814.5104, 0.5126110
814.9925, 0.5896000
815.4746, 0.6660310
815.9567, 1.683083
816.4388, 1.641777
816.9210, 0.8187480
817.4031, 0.1366810
817.8852, 1.170181
818.3673, 1.766914
818.8494, 1.160347
819.3315, 0.3432620
819.8137, 9.6236996E-02
820.2958, 0.3813630
820.7779, 0.6421510
821.2600, 0.8765410
821.7421, 0.9289020
822.2242, 0.6478580
822.7064, 0.1170430
823.1885, 1.0338000E-02
823.6706, 0.3081360
824.1527, 0.5781780
824.6348, 0.4153590
825.1169, 0.1503520
825.5991, 0.3981700
826.0812, 1.047043
826.5633, 1.688629
827.0454, 2.484688
827.5275, 2.937737
828.0096, 2.606453
828.4918, 1.647026
828.9739, 1.023506
829.4560, 0.8373790
829.9381, 0.7893750
830.4202, 0.8066480
830.9023, 0.8853300
831.3845, 0.9738540
831.8666, 1.061745
832.3487, 1.240135
832.8308, 1.683037
833.3129, 2.146950
833.7950, 2.564423
834.2772, 2.809433
834.7593, 2.621384
835.2414, 1.155426
835.7235, 0.1880570
836.2056, 0.2396700
836.6877, 0.9957660
837.1699, 1.858574
837.6520, 2.888878
838.1341, 3.066650
838.6162, 1.750526
839.0983, 1.8707000E-02
839.5804, 0.1420590
840.0626, 0.7905430
840.5447, 1.568741
841.0268, 1.551849
841.5089, 1.401535
841.9910, 1.460434
842.4731, 1.610786
842.9553, 1.583961
843.4374, 1.111916
843.9195, 0.9955220
844.4016, 1.570496
844.8837, 2.239578
845.3658, 1.693916
845.8480, 0.1944200
846.3301, 0.6382520
846.8122, 0.2855000
847.2943, 0.4820400
847.7764, 1.096596
848.2585, 1.556236
848.7407, 1.910210
849.2228, 2.338387
849.7049, 2.543915
850.1870, 2.110497
850.6691, 1.600586
851.1512, 1.899956
851.6334, 3.189522
852.1155, 3.727829
852.5976, 3.217560
853.0797, 2.444267
853.5618, 2.289894
854.0439, 2.485283
854.5261, 2.557442
855.0082, 2.382011
855.4903, 2.279984
855.9724, 2.624977
856.4545, 2.923584
856.9366, 2.693222
857.4188, 1.613182
857.9009, 1.083595
858.3830, 1.242172
858.8651, 1.649185
859.3472, 2.007515
859.8293, 2.255074
860.3115, 2.143013
860.7936, 1.658669
861.2757, 1.288506
861.7578, 1.585701
862.2399, 1.998726
862.7220, 2.012772
863.2042, 1.506729
863.6863, 1.245369
864.1684, 1.478127
864.6505, 1.674950
865.1326, 1.474419
865.6147, 0.9395680
866.0969, 1.047234
866.5790, 1.796356
867.0611, 2.375153
867.5432, 1.932724
868.0253, 1.228233
868.5074, 1.344078
868.9896, 2.113686
869.4717, 2.453148
869.9538, 1.511131
870.4359, 0.5698930
870.9180, 7.3555000E-02
871.4001, 0.3760450
871.8823, 2.3406999E-02
872.3644, 1.265701
872.8465, 2.339111
873.3286, 2.893814
873.8107, 2.940544
874.2928, 2.305405
874.7750, 1.262947
875.2571, 0.4915540
875.7392, 0.2658770
876.2213, 0.2971270
876.7034, 0.6734770
877.1855, 1.181206
877.6677, 1.386971
878.1498, 1.222023
878.6319, 0.9925770
879.1140, 0.6866610
879.5961, 0.4445340
880.0782, 0.5729680
880.5604, 0.9495770
881.0425, 1.243744
881.5246, 1.411270
882.0067, 1.414886
882.4888, 0.9587940
882.9709, 0.4325870
883.4531, 0.3238830
883.9352, 1.117813
884.4173, 1.572105
884.8994, 1.633400
885.3815, 1.440407
885.8636, 1.026245
886.3458, 0.4416430
886.8279, 7.4805997E-02
887.3100, 3.6812000E-02
887.7921, 3.8474999E-02
888.2742, 0.1115260
888.7563, 9.0530001E-02
889.2385, 0.3136900
889.7206, 1.234314
890.2027, 1.644615
890.6848, 0.9035340
891.1669, 0.2877040
891.6490, 0.5541230
892.1312, 1.607079
892.6133, 2.100548
893.0954, 2.030197
893.5775, 1.579544
894.0596, 0.5198820
894.5417, 0.5084300
895.0239, 0.7761990
895.5060, 0.4000470
895.9881, 1.0530000E-03
896.4702, 0.3633960
896.9523, 0.4935840
897.4344, 0.3253630
897.9166, 1.7402999E-02
898.3987, 0.1025090
898.8808, 3.8681000E-02
899.3629, 1.5769999E-02
899.8450, 0.1530380
900.3271, 0.2815480
900.8093, 2.0683000E-02
901.2914, 0.3993760
901.7735, 0.5304720
902.2556, 3.6263000E-02
902.7377, 0.5071790
903.2198, 1.064842
903.7020, 1.575417
904.1841, 1.919502
904.6662, 2.027107
905.1483, 1.754982
905.6304, 0.9958110
906.1125, 0.3057020
906.5947, 0.6314010
907.0768, 1.380669
907.5589, 1.323875
908.0410, 0.1166460
908.5231, 0.7964860
909.0052, 0.5579220
909.4874, 3.7108999E-02
909.9695, 0.4826050
910.4516, 0.7799680
910.9337, 0.7996750
911.4158, 0.4654160
911.8979, 0.1823350
912.3801, 0.3948750
912.8622, 0.8044050
913.3443, 0.6450810
913.8264, 5.6530000E-03
914.3085, 0.5080800
914.7906, 0.6596370
915.2728, 0.5125660
915.7549, 0.1305620
916.2370, 1.052711
916.7191, 1.444969
917.2012, 1.215263
917.6833, 0.7820280
918.1655, 0.1824340
918.6476, 0.4011380
919.1297, 0.5675660
919.6118, 0.4689870
920.0939, 0.4723050
920.5760, 0.8430710
921.0582, 1.089119
921.5403, 0.6608350
922.0224, 0.1543500
922.5045, 0.3757630
922.9866, 1.611687
923.4688, 2.799141
923.9509, 4.050186
924.4330, 4.869774
924.9151, 4.212379
925.3972, 2.698639
925.8793, 1.869514
926.3615, 1.963661
926.8436, 2.404175
927.3257, 3.070427
927.8078, 3.734032
928.2899, 4.191025
928.7720, 4.424446
929.2542, 4.824196
929.7363, 5.484909
930.2184, 6.227486
930.7005, 6.911018
931.1826, 7.549927
931.6647, 8.299583
932.1469, 9.096153
932.6290, 9.653381
933.1111, 9.447922
933.5932, 9.369835
934.0753, 10.09657
934.5574, 11.27583
935.0396, 11.74467
935.5217, 11.02663
936.0038, 11.17663
936.4859, 12.75845
936.9680, 14.94220
937.4501, 16.64107
937.9323, 17.93931
938.4144, 18.83366
938.8965, 19.06397
939.3786, 19.76217
939.8607, 21.83500
940.3428, 24.39272
940.8250, 26.57002
941.3071, 28.14946
941.7892, 30.19928
942.2713, 32.63910
942.7534, 35.72138
943.2355, 39.92123
943.7177, 44.83756
944.1998, 49.67361
944.6819, 54.44331
945.1640, 59.74911
945.6461, 65.45481
946.1282, 72.15517
946.6104, 80.51151
947.0925, 90.14040
947.5746, 99.57732
948.0567, 108.6429
948.5388, 118.4242
949.0209, 129.2030
949.5031, 140.9611
949.9852, 153.4665
950.4673, 166.9695
950.9494, 181.7432
951.4315, 197.5036
951.9136, 215.3645
952.3958, 235.2610
952.8779, 257.7565
953.3600, 283.5085
953.8421, 312.6365
954.3242, 343.9521
954.8063, 376.8989
955.2885, 413.6747
955.7706, 457.0175
956.2527, 504.9247
956.7348, 555.1846
957.2169, 607.5493
957.6990, 661.1348
958.1811, 719.7401
958.6632, 775.3095
959.1453, 828.1257
959.6274, 876.1530
960.1096, 909.9680
960.5917, 929.5539
961.0738, 931.8875
961.5559, 914.8793
962.0380, 881.4105
962.5201, 828.2642
963.0023, 762.3256
963.4844, 695.2476
963.9665, 624.3121
964.4486, 560.6954
964.9307, 504.2266
965.4128, 455.4098
965.8950, 415.9956
966.3771, 385.6561
966.8592, 361.0315
967.3413, 342.1968
967.8234, 326.1078
968.3055, 312.4670
968.7877, 299.1269
969.2698, 284.3116
969.7519, 267.7506
970.2340, 250.9083
970.7161, 233.3158
971.1982, 216.2794
971.6804, 199.8753
972.1625, 184.5131
972.6446, 170.7596
973.1267, 158.7785
973.6088, 149.0448
974.0909, 142.5471
974.5731, 137.4053
975.0552, 133.4284
975.5373, 129.8624
976.0194, 125.3650
976.5015, 119.8877
976.9836, 113.4980
977.4658, 106.2028
977.9479, 98.23690
978.4300, 89.78336
978.9121, 81.04370
979.3942, 71.94540
979.8763, 62.48865
980.3585, 54.29676
980.8406, 48.59587
981.3227, 44.17938
981.8048, 40.45683
982.2869, 37.39914
982.7690, 34.77982
983.2512, 32.61237
983.7333, 30.74849
984.2154, 29.12604
984.6975, 27.77140
985.1796, 26.63603
985.6617, 25.78207
986.1439, 25.35902
986.6260, 25.77664
987.1081, 26.12901
987.5902, 25.96642
988.0723, 26.01318
988.5544, 27.18963
989.0366, 29.48725
989.5187, 31.85429
990.0008, 34.16843
990.4829, 36.50038
990.9650, 38.65535
991.4471, 41.16705
991.9293, 44.44388
992.4114, 48.44127
992.8935, 52.55511
993.3756, 56.55444
993.8577, 61.14946
994.3398, 66.45866
994.8220, 72.56729
995.3041, 79.50616
995.7862, 87.29365
996.2683, 96.43501
996.7504, 107.1701
997.2325, 119.0534
997.7147, 131.8987
998.1968, 145.8127
998.6789, 161.1378
999.1610, 178.3804
999.6431, 195.3284
1000.125, 211.6843
1000.607, 227.2811
1001.089, 243.4253
1001.572, 257.7744
1002.054, 266.7284
1002.536, 270.0568
1003.018, 268.5623
1003.500, 261.2027
1003.982, 250.0974
1004.464, 235.3947
1004.946, 217.9230
1005.429, 199.9136
1005.911, 181.3533
1006.393, 165.0048
1006.875, 151.4922
1007.357, 140.3631
1007.839, 131.2162
1008.321, 123.8437
1008.803, 117.7773
1009.285, 113.0191
1009.768, 110.0005
1010.250, 109.0104
1010.732, 109.1055
1011.214, 109.5873
1011.696, 110.6171
1012.178, 112.5528
1012.660, 115.4107
1013.142, 119.4932
1013.625, 125.3685
1014.107, 132.1514
1014.589, 139.2737
1015.071, 147.0115
1015.553, 155.7964
1016.035, 165.6609
1016.517, 176.3791
1016.999, 187.8627
1017.481, 200.2467
1017.964, 214.0495
1018.446, 228.4954
1018.928, 242.7832
1019.410, 256.8264
1019.892, 270.3629
1020.374, 283.5919
1020.856, 296.0684
1021.338, 308.0563
1021.820, 319.1394
1022.303, 327.2593
1022.785, 332.2981
1023.267, 333.0884
1023.749, 329.4370
1024.231, 320.8810
1024.713, 305.7143
1025.195, 285.7860
1025.677, 264.0153
1026.160, 240.0152
1026.642, 216.4919
1027.124, 193.3362
1027.606, 171.6291
1028.088, 152.4457
1028.570, 135.5834
1029.052, 120.4151
1029.534, 106.9871
1030.016, 94.78636
1030.499, 83.57344
1030.981, 73.72069
1031.463, 65.27947
1031.945, 58.13239
1032.427, 51.99799
1032.909, 46.89511
1033.391, 42.30820
1033.873, 38.12943
1034.356, 34.41019
1034.838, 31.46155
1035.320, 28.81329
1035.802, 25.89960
1036.284, 22.35236
1036.766, 19.28469
1037.248, 16.66630
1037.730, 14.63155
1038.213, 13.52026
1038.695, 13.01732
1039.177, 12.62822
1039.659, 12.21056
1040.141, 11.19585
1040.623, 8.302483
1041.105, 6.018143
1041.587, 5.454338
1042.069, 5.716263
1042.552, 5.471695
1043.034, 4.713364
1043.516, 3.981857
1043.998, 3.341354
1044.480, 2.694077
1044.962, 1.859299
1045.444, 1.013542
1045.926, 0.2466740
1046.408, 0.4362640
1046.891, 0.5900960
1047.373, 0.1693950
1047.855, 0.4255520
1048.337, 0.6699140
1048.819, 2.179726
1049.301, 1.793152
1049.783, 0.2390980
1050.265, 0.6685940
1050.748, 6.7162000E-02
1051.230, 0.7620850
1051.712, 1.757469
1052.194, 2.495689
1052.676, 2.572243
1053.158, 1.949379
1053.640, 1.439171
1054.122, 1.045456
1054.604, 0.9358520
1055.087, 1.496902
1055.569, 2.152283
1056.051, 2.615067
1056.533, 2.786476
1057.015, 2.315002
1057.497, 0.7548140
1057.979, 0.2852020
1058.461, 0.5774380
1058.943, 0.3006130
1059.426, 0.6659850
1059.908, 1.917610
1060.390, 2.712021
1060.872, 2.939629
1061.354, 2.842140
1061.836, 2.131317
1062.318, 1.537277
1062.800, 1.434113
1063.283, 1.655373
1063.765, 1.426559
1064.247, 0.8125610
1064.729, 0.4266590
1065.211, 0.6714630
1065.693, 0.8098830
1066.175, 1.8204000E-02
1066.657, 1.091911
1067.140, 1.553589
1067.622, 1.270233
1068.104, 0.7586440
1068.586, 5.5984002E-02
1069.068, 0.6863170
1069.550, 0.7434390
1070.032, 0.4202040
1070.514, 0.1300890
1070.996, 0.8099820
1071.479, 1.328949
1071.961, 1.151375
1072.443, 1.483063
1072.925, 2.743629
1073.407, 4.209267
1073.889, 4.831863
1074.371, 4.809937
1074.853, 4.957283
1075.335, 5.361588
1075.818, 6.009277
1076.300, 7.130547
1076.782, 8.259979
1077.264, 9.106094
1077.746, 9.730179
1078.228, 10.31313
1078.710, 10.84966
1079.192, 11.47346
1079.675, 12.23283
1080.157, 13.05299
1080.639, 13.77970
1081.121, 14.57101
1081.603, 15.69388
1082.085, 17.45614
1082.567, 18.55437
1083.049, 18.76210
1083.531, 18.91729
1084.014, 19.63348
1084.496, 20.55135
1084.978, 20.85322
1085.460, 20.65117
1085.942, 20.27110
1086.424, 19.42932
1086.906, 19.00383
1087.388, 19.50845
1087.870, 20.10356
1088.353, 19.82197
1088.835, 18.76267
1089.317, 17.92478
1089.799, 17.35239
1090.281, 17.00031
1090.763, 17.01702
1091.245, 17.06875
1091.727, 16.88898
1092.209, 16.58762
1092.692, 16.46567
1093.174, 16.50993
1093.656, 16.82661
1094.138, 17.45090
1094.620, 18.27301
1095.102, 19.13655
1095.584, 20.15460
1096.066, 21.60958
1096.549, 23.57639
1097.031, 24.93092
1097.513, 25.23559
1097.995, 25.86087
1098.477, 27.36981
1098.959, 29.43529
1099.441, 31.45235
1099.923, 33.47441
1100.406, 35.72871
1100.888, 38.39864
1101.370, 41.01977
1101.852, 43.46605
1102.334, 45.81245
1102.816, 48.22565
1103.298, 50.60255
1103.780, 52.13330
1104.262, 52.86493
1104.745, 53.45827
1105.227, 54.50821
1105.709, 55.30325
1106.191, 55.74919
1106.673, 55.45128
1107.155, 53.94987
1107.637, 51.13326
1108.119, 48.58735
1108.601, 46.35750
1109.084, 44.03917
1109.566, 41.05678
1110.048, 38.02615
1110.530, 35.65378
1111.012, 33.00754
1111.494, 30.52821
1111.976, 28.65456
1112.458, 26.66460
1112.941, 24.63469
1113.423, 23.46196
1113.905, 22.23955
1114.387, 21.14806
1114.869, 20.57932
1115.351, 20.66033
1115.833, 20.68921
1116.315, 20.22507
1116.797, 20.04910
1117.280, 20.49719
1117.762, 21.20569
1118.244, 21.20473
1118.726, 20.82330
1119.208, 20.99288
1119.690, 22.16991
1120.172, 23.44241
1120.654, 24.31210
1121.136, 25.19680
1121.619, 26.33412
1122.101, 27.75552
1122.583, 29.56789
1123.065, 31.71941
1123.547, 34.09280
1124.029, 36.73357
1124.511, 39.53396
1124.993, 42.86070
1125.476, 46.05159
1125.958, 48.11469
1126.440, 48.67052
1126.922, 50.33580
1127.404, 53.25086
1127.886, 56.07632
1128.368, 58.10561
1128.850, 59.32991
1129.333, 59.41895
1129.815, 58.70702
1130.297, 58.24391
1130.779, 58.49551
1131.261, 57.86848
1131.743, 56.16649
1132.225, 53.72215
1132.707, 50.51291
1133.189, 47.00940
1133.672, 43.63998
1134.154, 40.47980
1134.636, 37.85942
1135.118, 36.36427
1135.600, 34.42336
1136.082, 31.45629
1136.564, 28.34167
1137.046, 26.65092
1137.528, 25.84888
1138.011, 24.68240
1138.493, 22.90141
1138.975, 21.21681
1139.457, 19.72371
1139.939, 18.62413
1140.421, 18.07771
1140.903, 17.93304
1141.385, 17.66383
1141.868, 17.36098
1142.350, 17.40047
1142.832, 17.96444
1143.314, 18.66129
1143.796, 19.08150
1144.278, 19.79305
1144.760, 21.37038
1145.242, 23.67590
1145.724, 24.67480
1146.207, 24.53298
1146.689, 24.89892
1147.171, 26.90474
1147.653, 29.07925
1148.135, 30.36523
1148.617, 31.30729
1149.099, 32.48315
1149.581, 33.84001
1150.063, 35.92256
1150.546, 38.74062
1151.028, 41.60432
1151.510, 43.83801
1151.992, 46.04865
1152.474, 48.68048
1152.956, 51.67937
1153.438, 54.90202
1153.920, 58.43752
1154.403, 61.75705
1154.885, 64.78322
1155.367, 67.84987
1155.849, 71.32957
1156.331, 74.86298
1156.813, 78.06673
1157.295, 80.95983
1157.777, 83.69544
1158.260, 86.35649
1158.742, 88.69900
1159.224, 90.73476
1159.706, 92.29192
1160.188, 92.94201
1160.670, 93.09447
1161.152, 93.48862
1161.634, 94.08374
1162.116, 93.83906
1162.599, 92.49302
1163.081, 90.51949
1163.563, 87.86510
1164.045, 84.98171
1164.527, 82.58125
1165.009, 80.53169
1165.491, 78.68324
1165.973, 77.07901
1166.455, 74.82214
1166.938, 71.05293
1167.420, 67.43573
1167.902, 64.50417
1168.384, 62.03737
1168.866, 59.69887
1169.348, 57.40291
1169.830, 54.93591
1170.312, 52.12754
1170.795, 49.26802
1171.277, 46.48267
1171.759, 43.82803
1172.241, 41.20018
1172.723, 38.64167
1173.205, 36.80212
1173.687, 35.54513
1174.169, 34.23811
1174.651, 32.54833
1175.134, 30.74740
1175.616, 28.54089
1176.098, 26.63617
1176.580, 25.72200
1177.062, 25.59396
1177.544, 24.30955
1178.026, 22.14323
1178.508, 20.63536
1178.990, 21.09620
1179.473, 21.44592
1179.955, 20.69485
1180.437, 19.59328
1180.919, 18.80637
1181.401, 18.30922
1181.883, 17.23389
1182.365, 15.63535
1182.847, 14.33373
1183.330, 13.84330
1183.812, 13.72385
1184.294, 14.31183
1184.776, 14.80515
1185.258, 14.02585
1185.740, 11.93733
1186.222, 10.54321
1186.704, 9.912437
1187.187, 9.471603
1187.669, 8.752754
1188.151, 8.176514
1188.633, 8.217155
1189.115, 8.498421
1189.597, 8.306343
1190.079, 7.638420
1190.561, 7.184731
1191.043, 6.950302
1191.526, 6.891945
1192.008, 7.236885
1192.490, 7.490494
1192.972, 7.213341
1193.454, 6.586998
1193.936, 6.091591
1194.418, 5.715851
1194.900, 5.428680
1195.382, 5.244774
1195.865, 4.955002
1196.347, 4.287827
1196.829, 3.540939
1197.311, 2.754265
1197.793, 2.067253
1198.275, 2.138039
1198.757, 3.063820
1199.239, 3.426041
1199.722, 2.872368
1200.204, 2.160942
1200.686, 1.866600
1201.168, 1.811058
1201.650, 1.966118
1202.132, 2.238235
1202.614, 2.071182
1203.096, 1.411858
1203.578, 0.9454960
1204.061, 0.8699800
1204.543, 0.9690630
1205.025, 1.197418
1205.507, 1.380745
1205.989, 1.194260
1206.471, 0.6934130
1206.953, 0.9510420
1207.435, 2.041557
1207.917, 2.467690
1208.400, 1.492577
1208.882, 0.4950640
1209.364, 1.020775
1209.846, 2.072357
1210.328, 2.728760
1210.810, 2.964012
1211.292, 2.425224
1211.774, 1.047142
1212.257, 5.8983002E-02
1212.739, 7.0160002E-02
1213.221, 0.2951810
1213.703, 2.8008001E-02
1214.185, 0.5470580
1214.667, 0.9210510
1215.149, 1.148598
1215.631, 0.9935910
1216.114, 0.4425430
1216.596, 3.2879999E-03
1217.078, 0.1013410
1217.560, 1.9230000E-03
1218.042, 0.5017700
1218.524, 0.9457240
1219.006, 0.6530690
1219.488, 0.4823000
1219.970, 0.7108460
1220.453, 9.7350003E-03
1220.935, 0.6199950
1221.417, 0.6071700
1221.899, 0.4274900
1222.381, 0.3514630
1222.863, 0.3906780
1223.345, 0.6103520
1223.827, 1.057793
1224.309, 1.133377
1224.792, 0.8355410
1225.274, 0.3997270
1225.756, 0.3524400
1226.238, 0.8114850
1226.720, 0.1696470
1227.202, 0.7852550
1227.684, 0.9973600
1228.166, 0.3354490
1228.649, 0.3736420
1229.131, 1.067688
1229.613, 1.423180
1230.095, 0.1862030
1230.577, 0.8333280
1231.059, 0.1008300
1231.541, 1.204613
1232.023, 1.674934
1232.505, 1.279739
1232.988, 0.4005510
1233.470, 0.9032590
1233.952, 1.849426
1234.434, 1.924690
1234.916, 1.560432
1235.398, 0.5272520
1235.880, 0.5042420
1236.362, 0.6723630
1236.844, 6.4849998E-03
1237.327, 0.1282120
1237.809, 0.2425840
1238.291, 0.5341340
1238.773, 0.4273530
1239.255, 0.1208570
1239.737, 0.4833680
1240.219, 1.090523
1240.701, 1.369873
1241.184, 1.357117
1241.666, 1.393852
1242.148, 1.488434
1242.630, 1.456886
1243.112, 1.048950
1243.594, 0.7683940
1244.076, 0.8508830
1244.558, 1.037079
1245.041, 1.047562
1245.523, 0.9088290
1246.005, 0.7410510
1246.487, 0.5511320
1246.969, 0.3283080
1247.451, 0.2966160
1247.933, 0.4011760
1248.415, 0.4609150
1248.897, 1.560997
1249.380, 2.280487
1249.862, 2.591949
1250.344, 2.182068
1250.826, 1.192810
1251.308, 0.4250340
1251.790, 0.3213270
1252.272, 0.3283840
1252.754, 0.3903500
1253.236, 0.4720230
1253.719, 0.4320370
1254.201, 0.4272460
1254.683, 0.9167630
1255.165, 1.786598
1255.647, 2.402039
1256.129, 2.468925
1256.611, 2.470917
1257.093, 2.484100
1257.576, 2.359756
1258.058, 1.765327
1258.540, 1.046013
1259.022, 0.6130680
1259.504, 0.5117570
1259.986, 0.8899150
1260.468, 2.044228
1260.950, 2.684036
1261.432, 2.606575
1261.915, 2.324066
1262.397, 2.407082
1262.879, 2.219490
1263.361, 2.497726
1263.843, 2.059792
1264.325, 1.881706
1264.807, 1.918259
1265.289, 1.984955
1265.771, 2.234612
1266.254, 2.471413
1266.736, 2.340988
1267.218, 2.276985
1267.700, 2.071106
1268.182, 2.204170
1268.664, 2.647118
1269.146, 3.397148
1269.628, 3.436378
1270.111, 2.397438
1270.593, 1.514275
1271.075, 1.874023
1271.557, 2.493889
1272.039, 2.242294
1272.521, 1.654823
1273.003, 1.442604
1273.485, 1.484970
1273.968, 1.914925
1274.450, 2.704811
1274.932, 3.138466
1275.414, 2.346069
1275.896, 1.700302
1276.378, 1.748169
1276.860, 1.939735
1277.342, 2.088852
1277.824, 2.114655
1278.307, 2.391747
1278.789, 2.786217
1279.271, 2.921028
1279.753, 2.210922
1280.235, 1.871826
1280.717, 2.425446
1281.199, 3.027008
1281.681, 2.525185
1282.163, 1.448067
1282.646, 1.114883
1283.128, 1.683990
1283.610, 2.035385
1284.092, 1.434692
1284.574, 1.235077
1285.056, 1.652046
1285.538, 2.162567
1286.020, 2.195465
1286.503, 2.002762
1286.985, 1.884155
1287.467, 1.879982
1287.949, 2.003258
1288.431, 2.324036
1288.913, 2.356163
1289.395, 1.969360
1289.877, 1.561325
1290.359, 1.403290
1290.842, 1.417953
1291.324, 1.869614
1291.806, 2.423981
1292.288, 2.252083
1292.770, 1.262726
1293.252, 0.7599950
1293.734, 0.8193360
1294.216, 0.9662550
1294.698, 1.112762
1295.181, 1.087929
1295.663, 0.6637040
1296.145, 0.1734390
1296.627, 7.4919998E-03
1297.109, 0.1371150
1297.591, 0.4948650
1298.073, 1.005676
1298.555, 1.197914
1299.038, 0.1749340
1299.520, 0.2342990
1300.002, 0.5427780
1300.484, 1.755493
1300.966, 2.901337
1301.448, 3.684402
1301.930, 3.188301
1302.412, 1.776344
1302.895, 0.8389430
1303.377, 2.931633
1303.859, 3.571083
1304.341, 2.195641
1304.823, 0.6491550
1305.305, 0.0000000E+00
##END=



