##NAMES=Billietite
##RRUFFID=R070588
##IDEAL CHEMISTRY=Ba(UO_2_)_6_O_4_(OH)_6_&#183;8H_2_O
##LOCALITY=Musonoi mine, Kolwezi, Katanga, Zaire
##OWNER=RRUFF
##SOURCE=James Shigley
##DESCRIPTION=Pseudo-hexagonal amber yellow crystals
##STATUS=The identification of this mineral has been confirmed by single-crystal X-ray diffraction.
##URL=rruff.info/R070588
95.64258, 0.0000000E+00
96.12469, 21.06128
96.60681, 5.773438
97.08893, 11.26270
97.57104, 17.64160
98.05316, 89.34180
98.53528, 204.9741
99.01740, 350.3433
99.49951, 497.8740
99.98163, 647.7510
100.4637, 796.5181
100.9459, 946.2251
101.4280, 1094.614
101.9101, 1232.311
102.3922, 1342.355
102.8743, 1269.411
103.3564, 1236.371
103.8386, 1268.868
104.3207, 1315.341
104.8028, 1327.645
105.2849, 1301.214
105.7670, 1273.991
106.2491, 1272.372
106.7313, 1284.640
107.2134, 1294.572
107.6955, 1299.400
108.1776, 1297.322
108.6597, 1279.700
109.1418, 1240.725
109.6240, 1190.261
110.1061, 1128.376
110.5882, 1058.146
111.0703, 988.8174
111.5524, 929.7837
112.0345, 882.9775
112.5167, 835.5176
112.9988, 779.4385
113.4809, 726.6147
113.9630, 687.9556
114.4451, 664.7256
114.9272, 645.8857
115.4094, 608.3848
115.8915, 517.5298
116.3736, 453.6372
116.8557, 429.7852
117.3378, 430.0249
117.8199, 438.4912
118.3021, 447.3550
118.7842, 455.9639
119.2663, 459.9443
119.7484, 454.8701
120.2305, 450.5728
120.7127, 452.0039
121.1948, 457.6221
121.6769, 461.2051
122.1590, 457.0474
122.6411, 444.8828
123.1232, 437.4712
123.6054, 433.6528
124.0875, 435.0518
124.5696, 445.2900
125.0517, 465.7100
125.5338, 487.3296
126.0159, 501.3062
126.4981, 509.0005
126.9802, 513.5205
127.4623, 511.8765
127.9444, 507.2480
128.4265, 509.7510
128.9086, 522.6909
129.3907, 542.4243
129.8729, 565.4199
130.3550, 591.6523
130.8371, 619.9800
131.3192, 645.3301
131.8013, 665.4380
132.2834, 701.8745
132.7656, 780.1772
133.2477, 864.7666
133.7298, 930.4033
134.2119, 969.2925
134.6940, 997.9634
135.1761, 1048.916
135.6583, 1135.785
136.1404, 1222.914
136.6225, 1305.645
137.1046, 1384.765
137.5867, 1459.739
138.0688, 1530.115
138.5510, 1596.749
139.0331, 1667.341
139.5152, 1738.817
139.9973, 1817.685
140.4794, 1914.348
140.9615, 2020.163
141.4437, 2115.823
141.9258, 2184.523
142.4079, 2221.543
142.8900, 2278.090
143.3721, 2363.880
143.8542, 2456.919
144.3364, 2546.684
144.8185, 2631.841
145.3006, 2715.682
145.7827, 2802.722
146.2648, 2894.606
146.7469, 2981.750
147.2291, 3057.702
147.7112, 3131.207
148.1933, 3212.853
148.6754, 3306.479
149.1575, 3404.653
149.6396, 3498.149
150.1218, 3588.099
150.6039, 3670.355
151.0860, 3740.577
151.5681, 3801.349
152.0502, 3860.595
152.5324, 3916.165
153.0145, 3976.419
153.4966, 4041.412
153.9787, 4129.646
154.4608, 4216.957
154.9429, 4284.613
155.4251, 4332.255
155.9072, 4370.754
156.3893, 4401.089
156.8714, 4424.888
157.3535, 4443.623
157.8356, 4458.048
158.3178, 4466.150
158.7999, 4462.693
159.2820, 4441.883
159.7641, 4422.997
160.2462, 4420.647
160.7283, 4421.228
161.2105, 4408.192
161.6926, 4370.966
162.1747, 4315.579
162.6568, 4269.020
163.1389, 4244.927
163.6210, 4213.158
164.1032, 4156.254
164.5853, 4090.131
165.0674, 4037.343
165.5495, 4016.280
166.0316, 4027.454
166.5137, 4028.452
166.9959, 4020.251
167.4780, 4003.459
167.9601, 3969.024
168.4422, 3921.339
168.9243, 3874.775
169.4064, 3845.555
169.8886, 3839.968
170.3707, 3828.901
170.8528, 3807.371
171.3349, 3783.237
171.8170, 3761.019
172.2991, 3741.512
172.7813, 3722.859
173.2634, 3701.784
173.7455, 3672.854
174.2276, 3655.904
174.7097, 3661.680
175.1918, 3674.633
175.6740, 3676.643
176.1561, 3663.132
176.6382, 3647.326
177.1203, 3656.716
177.6024, 3705.829
178.0845, 3742.620
178.5667, 3746.923
179.0488, 3733.236
179.5309, 3725.179
180.0130, 3729.090
180.4951, 3748.035
180.9772, 3790.986
181.4594, 3870.701
181.9415, 3943.419
182.4236, 3979.292
182.9057, 3987.103
183.3878, 4005.585
183.8699, 4053.000
184.3521, 4122.041
184.8342, 4192.679
185.3163, 4262.997
185.7984, 4336.831
186.2805, 4421.078
186.7626, 4516.153
187.2448, 4605.649
187.7269, 4678.975
188.2090, 4741.629
188.6911, 4798.750
189.1732, 4846.616
189.6553, 4894.244
190.1375, 4955.114
190.6196, 5032.702
191.1017, 5112.596
191.5838, 5193.323
192.0659, 5271.093
192.5480, 5340.665
193.0302, 5395.276
193.5123, 5442.167
193.9944, 5501.755
194.4765, 5584.529
194.9586, 5661.242
195.4408, 5726.170
195.9229, 5777.692
196.4050, 5813.410
196.8871, 5832.803
197.3692, 5835.357
197.8513, 5815.715
198.3335, 5750.104
198.8156, 5688.054
199.2977, 5655.164
199.7798, 5638.565
200.2619, 5611.476
200.7440, 5553.854
201.2262, 5465.170
201.7083, 5363.385
202.1904, 5240.955
202.6725, 5111.571
203.1546, 4983.754
203.6367, 4853.342
204.1189, 4708.335
204.6010, 4533.984
205.0831, 4321.315
205.5652, 4125.681
206.0473, 3962.378
206.5294, 3799.961
207.0116, 3621.899
207.4937, 3428.468
207.9758, 3233.186
208.4579, 3050.739
208.9400, 2882.587
209.4221, 2722.120
209.9043, 2574.598
210.3864, 2429.044
210.8685, 2280.288
211.3506, 2127.229
211.8327, 1970.081
212.3148, 1807.847
212.7970, 1627.767
213.2791, 1478.672
213.7612, 1383.378
214.2433, 1302.673
214.7254, 1204.067
215.2075, 1080.736
215.6897, 948.2886
216.1718, 830.8887
216.6539, 734.4043
217.1360, 643.4248
217.6181, 557.4248
218.1002, 477.1699
218.5824, 406.3027
219.0645, 346.0146
219.5466, 289.9146
220.0287, 226.0312
220.5108, 150.0986
220.9929, 76.78369
221.4751, 0.7109380
221.9572, 72.12549
222.4393, 119.7075
222.9214, 135.5610
223.4035, 135.6206
223.8856, 153.1157
224.3678, 198.2388
224.8499, 230.6714
225.3320, 231.9619
225.8141, 214.8252
226.2962, 204.4053
226.7783, 211.4087
227.2605, 224.3354
227.7426, 220.4517
228.2247, 197.4258
228.7068, 170.3965
229.1889, 143.1514
229.6710, 116.0479
230.1532, 89.82275
230.6353, 64.54639
231.1174, 40.79443
231.5995, 21.63086
232.0816, 11.94238
232.5637, 6.981934
233.0459, 49.72803
233.5280, 111.2954
234.0101, 172.1460
234.4922, 224.3008
234.9743, 272.2764
235.4564, 323.3662
235.9386, 376.3096
236.4207, 431.7041
236.9028, 494.6104
237.3849, 564.0054
237.8670, 626.7949
238.3491, 672.5903
238.8313, 710.2109
239.3134, 754.3052
239.7955, 806.6914
240.2776, 862.9927
240.7597, 923.0835
241.2418, 986.5771
241.7240, 1043.129
242.2061, 1085.662
242.6882, 1120.942
243.1703, 1156.704
243.6524, 1193.290
244.1345, 1228.855
244.6167, 1260.072
245.0988, 1287.045
245.5809, 1319.481
246.0630, 1368.779
246.5451, 1419.816
247.0272, 1456.438
247.5094, 1474.279
247.9915, 1486.311
248.4736, 1502.264
248.9557, 1521.864
249.4378, 1550.273
249.9199, 1600.009
250.4021, 1653.552
250.8842, 1691.301
251.3663, 1706.570
251.8484, 1723.921
252.3305, 1775.508
252.8126, 1866.302
253.2948, 1948.521
253.7769, 2003.400
254.2590, 2044.987
254.7411, 2080.135
255.2232, 2108.832
255.7053, 2140.135
256.1875, 2187.786
256.6696, 2255.429
257.1517, 2316.866
257.6338, 2361.099
258.1159, 2397.928
258.5981, 2432.679
259.0802, 2466.433
259.5623, 2498.807
260.0444, 2537.289
260.5265, 2588.826
261.0086, 2606.770
261.4908, 2542.224
261.9729, 2459.672
262.4550, 2401.973
262.9371, 2378.763
263.4192, 2364.400
263.9013, 2327.567
264.3835, 2264.664
264.8656, 2199.472
265.3477, 2143.991
265.8298, 2083.705
266.3119, 2005.637
266.7940, 1907.661
267.2762, 1804.214
267.7583, 1714.297
268.2404, 1641.132
268.7225, 1564.583
269.2046, 1471.826
269.6867, 1379.899
270.1689, 1298.460
270.6510, 1229.289
271.1331, 1168.639
271.6152, 1117.087
272.0973, 1078.351
272.5794, 1026.256
273.0616, 934.0862
273.5437, 842.2725
274.0258, 774.5557
274.5079, 733.3091
274.9900, 702.6919
275.4721, 664.3130
275.9543, 615.6960
276.4364, 574.7388
276.9185, 547.6287
277.4006, 526.2896
277.8827, 509.6953
278.3648, 496.6711
278.8470, 482.8765
279.3291, 462.2754
279.8112, 431.0259
280.2933, 399.8687
280.7754, 372.5764
281.2575, 347.1453
281.7397, 320.5176
282.2218, 291.4214
282.7039, 263.7017
283.1860, 244.2507
283.6681, 235.0627
284.1502, 220.8020
284.6324, 192.7456
285.1145, 164.1309
285.5966, 143.2476
286.0787, 130.3264
286.5608, 120.0137
287.0429, 107.6243
287.5251, 93.15356
288.0072, 80.12988
288.4893, 69.63281
288.9714, 59.24854
289.4535, 47.65552
289.9356, 34.61230
290.4178, 21.51123
290.8999, 8.795898
291.3820, 4.618164
291.8641, 15.52954
292.3462, 26.20605
292.8283, 30.88135
293.3105, 22.26318
293.7926, 5.685791
294.2747, 5.794922
294.7568, 0.5002440
295.2389, 20.29639
295.7210, 26.92969
296.2032, 12.10791
296.6853, 4.856934
297.1674, 17.01660
297.6495, 25.02051
298.1316, 30.00879
298.6137, 31.35815
299.0959, 30.47388
299.5780, 31.19409
300.0601, 29.10645
300.5422, 37.37598
301.0243, 66.09180
301.5064, 105.8904
301.9886, 144.3010
302.4707, 177.3669
302.9528, 203.6812
303.4349, 215.0852
303.9170, 199.5486
304.3991, 198.6062
304.8813, 241.9641
305.3634, 303.4426
305.8455, 352.7686
306.3276, 376.8320
306.8097, 388.0081
307.2918, 403.6218
307.7740, 421.6335
308.2561, 451.8003
308.7382, 512.5444
309.2203, 580.5276
309.7024, 634.0752
310.1845, 665.5757
310.6667, 687.5081
311.1488, 711.6108
311.6309, 736.9021
312.1130, 773.8601
312.5951, 838.9656
313.0772, 911.4014
313.5594, 970.2297
314.0415, 1010.239
314.5236, 1049.252
315.0057, 1105.717
315.4878, 1179.100
315.9699, 1247.871
316.4521, 1304.532
316.9342, 1356.087
317.4163, 1408.727
317.8984, 1463.153
318.3805, 1518.810
318.8626, 1579.636
319.3448, 1642.313
319.8269, 1687.765
320.3090, 1700.593
320.7911, 1713.595
321.2732, 1762.898
321.7553, 1844.727
322.2375, 1916.675
322.7196, 1953.555
323.2017, 1964.974
323.6838, 1975.396
324.1659, 1986.410
324.6480, 2000.417
325.1302, 2019.775
325.6123, 2043.729
326.0944, 2070.930
326.5765, 2105.709
327.0586, 2141.882
327.5407, 2168.994
328.0229, 2185.122
328.5050, 2197.577
328.9871, 2212.525
329.4692, 2228.582
329.9513, 2240.253
330.4334, 2243.616
330.9156, 2243.885
331.3977, 2248.065
331.8798, 2256.302
332.3619, 2259.285
332.8440, 2247.718
333.3261, 2226.256
333.8083, 2213.583
334.2904, 2222.987
334.7725, 2229.903
335.2546, 2215.818
335.7367, 2184.109
336.2188, 2151.610
336.7010, 2126.634
337.1831, 2106.205
337.6652, 2080.883
338.1473, 2051.585
338.6294, 2017.278
339.1115, 1974.547
339.5937, 1926.589
340.0758, 1880.166
340.5579, 1837.627
341.0400, 1797.721
341.5221, 1758.336
342.0042, 1720.723
342.4864, 1680.080
342.9685, 1632.020
343.4506, 1581.755
343.9327, 1535.643
344.4148, 1495.446
344.8969, 1459.331
345.3791, 1426.463
345.8612, 1402.854
346.3433, 1364.816
346.8254, 1290.486
347.3075, 1215.984
347.7896, 1174.886
348.2718, 1168.281
348.7539, 1169.256
349.2360, 1151.900
349.7181, 1114.636
350.2002, 1067.398
350.6823, 992.0063
351.1645, 926.2988
351.6466, 897.8230
352.1287, 896.6160
352.6108, 891.1055
353.0929, 857.2883
353.5750, 797.7229
354.0572, 745.6396
354.5393, 702.3030
355.0214, 664.8860
355.5035, 635.3162
355.9856, 610.3193
356.4677, 585.3005
356.9499, 557.8850
357.4320, 528.7073
357.9141, 499.3589
358.3962, 467.9675
358.8783, 440.7729
359.3604, 422.2668
359.8426, 405.6169
360.3247, 383.3164
360.8068, 353.2261
361.2889, 320.2415
361.7710, 293.4927
362.2531, 275.8652
362.7353, 256.4316
363.2174, 233.6145
363.6995, 209.3088
364.1816, 183.4570
364.6637, 156.6682
365.1458, 131.3960
365.6280, 108.5771
366.1101, 87.63574
366.5922, 76.27197
367.0743, 85.63940
367.5564, 93.46533
368.0385, 91.04370
368.5207, 78.87622
369.0028, 59.45337
369.4849, 29.09424
369.9670, 7.264160
370.4491, 29.05420
370.9312, 30.80688
371.4134, 29.06665
371.8955, 33.21558
372.3776, 39.09473
372.8597, 39.75537
373.3418, 30.22192
373.8239, 17.74414
374.3061, 12.10254
374.7882, 13.68823
375.2703, 18.96802
375.7524, 31.86694
376.2345, 44.60132
376.7166, 44.84253
377.1988, 26.14185
377.6809, 10.63306
378.1630, 21.57275
378.6451, 51.15991
379.1272, 64.90918
379.6093, 48.86816
380.0915, 20.26953
380.5736, 1.971191
381.0557, 5.954102
381.5378, 11.56958
382.0199, 15.81396
382.5020, 19.84399
382.9842, 26.00562
383.4663, 34.81396
383.9484, 42.99365
384.4305, 46.50732
384.9126, 44.86792
385.3947, 47.10938
385.8769, 55.79590
386.3590, 66.52344
386.8411, 77.63379
387.3232, 88.46387
387.8053, 96.06128
388.2874, 96.62036
388.7696, 92.48291
389.2517, 104.0454
389.7338, 148.7876
390.2159, 186.2834
390.6980, 200.1387
391.1801, 201.6445
391.6623, 209.1663
392.1444, 230.5339
392.6265, 258.0588
393.1086, 274.3542
393.5907, 261.5532
394.0728, 264.7849
394.5550, 295.2549
395.0371, 333.2988
395.5192, 367.1624
396.0013, 393.2188
396.4834, 411.2671
396.9655, 417.9788
397.4477, 408.6389
397.9298, 413.5632
398.4119, 450.4927
398.8940, 485.5261
399.3761, 504.5078
399.8582, 511.1472
400.3404, 516.5583
400.8225, 527.8103
401.3046, 543.9282
401.7867, 560.8967
402.2688, 580.9541
402.7509, 597.5635
403.2331, 605.9409
403.7152, 611.1819
404.1973, 619.4990
404.6794, 633.4324
405.1615, 649.3704
405.6436, 663.2939
406.1258, 675.3066
406.6079, 684.4412
407.0900, 688.8518
407.5721, 691.4106
408.0542, 693.6648
408.5363, 695.4575
409.0185, 701.2676
409.5006, 715.5659
409.9827, 735.8413
410.4648, 755.1060
410.9469, 771.7136
411.4290, 789.2578
411.9112, 814.5415
412.3933, 845.4565
412.8754, 866.8640
413.3575, 866.1067
413.8396, 862.0061
414.3217, 872.5850
414.8039, 896.7361
415.2860, 920.2568
415.7681, 932.6589
416.2502, 938.2991
416.7323, 959.2432
417.2144, 1009.370
417.6966, 1055.642
418.1787, 1086.039
418.6608, 1107.947
419.1429, 1130.743
419.6250, 1157.920
420.1071, 1190.256
420.5893, 1229.886
421.0714, 1281.243
421.5535, 1330.749
422.0356, 1380.296
422.5177, 1426.656
422.9998, 1462.781
423.4820, 1491.792
423.9641, 1527.883
424.4462, 1586.186
424.9283, 1667.276
425.4104, 1735.276
425.8925, 1778.409
426.3747, 1821.642
426.8568, 1864.551
427.3389, 1912.444
427.8210, 1973.279
428.3031, 2051.835
428.7852, 2140.935
429.2674, 2224.857
429.7495, 2303.064
430.2316, 2377.296
430.7137, 2440.983
431.1958, 2506.011
431.6779, 2582.650
432.1601, 2671.058
432.6422, 2759.030
433.1243, 2833.561
433.6064, 2898.652
434.0885, 2977.767
434.5706, 3081.382
435.0528, 3186.083
435.5349, 3269.797
436.0170, 3335.920
436.4991, 3396.955
436.9812, 3448.929
437.4633, 3506.031
437.9455, 3586.619
438.4276, 3687.915
438.9097, 3785.199
439.3918, 3867.583
439.8739, 3935.325
440.3560, 3989.409
440.8382, 4020.411
441.3203, 4054.831
441.8024, 4103.270
442.2845, 4157.948
442.7666, 4208.887
443.2487, 4253.020
443.7309, 4293.343
444.2130, 4334.342
444.6951, 4380.897
445.1772, 4409.622
445.6593, 4420.588
446.1414, 4416.483
446.6236, 4393.284
447.1057, 4355.628
447.5878, 4315.017
448.0699, 4280.570
448.5520, 4248.696
449.0341, 4199.683
449.5163, 4123.796
449.9984, 4044.766
450.4805, 3967.258
450.9626, 3889.522
451.4447, 3810.914
451.9268, 3731.216
452.4090, 3648.416
452.8911, 3559.127
453.3732, 3463.093
453.8553, 3370.625
454.3374, 3297.521
454.8195, 3211.480
455.3017, 3077.051
455.7838, 2905.956
456.2659, 2755.962
456.7480, 2673.540
457.2301, 2619.658
457.7122, 2529.429
458.1944, 2398.861
458.6765, 2268.011
459.1586, 2158.475
459.6407, 2065.969
460.1229, 1972.887
460.6050, 1881.770
461.0871, 1786.707
461.5692, 1677.110
462.0513, 1563.289
462.5334, 1463.444
463.0156, 1383.161
463.4977, 1315.042
463.9798, 1249.885
464.4619, 1189.744
464.9440, 1125.901
465.4261, 1053.632
465.9083, 982.1924
466.3904, 912.5940
466.8725, 847.4788
467.3546, 795.3816
467.8367, 764.3052
468.3188, 747.5632
468.8010, 710.5991
469.2831, 634.6155
469.7652, 567.1504
470.2473, 516.5977
470.7294, 477.3228
471.2115, 445.9927
471.6937, 421.4568
472.1758, 399.4219
472.6579, 376.5525
473.1400, 352.8479
473.6221, 323.9731
474.1042, 284.8052
474.5864, 247.4243
475.0685, 220.5442
475.5506, 201.8513
476.0327, 184.2153
476.5148, 163.0305
476.9969, 142.9211
477.4791, 132.0303
477.9612, 129.5422
478.4433, 122.8291
478.9254, 104.9780
479.4075, 80.16431
479.8896, 57.75879
480.3718, 34.95020
480.8539, 19.81226
481.3360, 23.06372
481.8181, 30.91846
482.3002, 24.67603
482.7823, 2.281738
483.2645, 20.87305
483.7466, 28.18018
484.2287, 17.55859
484.7108, 14.83838
485.1929, 29.69214
485.6750, 41.20508
486.1572, 40.52075
486.6393, 32.87915
487.1214, 26.39526
487.6035, 24.67847
488.0856, 26.58936
488.5677, 31.42676
489.0499, 42.13525
489.5320, 45.70190
490.0141, 31.22925
490.4962, 16.07666
490.9783, 10.65283
491.4604, 14.36792
491.9426, 19.31421
492.4247, 20.75586
492.9068, 19.81665
493.3889, 19.16650
493.8710, 18.93921
494.3531, 18.41211
494.8353, 18.01904
495.3174, 16.65820
495.7995, 12.34937
496.2816, 5.441406
496.7637, 5.167969
497.2458, 25.68213
497.7280, 48.94922
498.2101, 60.24243
498.6922, 55.63452
499.1743, 46.97949
499.6564, 48.54077
500.1385, 63.11987
500.6207, 74.04663
501.1028, 77.34668
501.5849, 81.50903
502.0670, 92.49792
502.5491, 106.9869
503.0313, 117.7448
503.5134, 120.7136
503.9955, 119.2965
504.4776, 121.3811
504.9597, 126.8425
505.4418, 136.2966
505.9240, 154.6416
506.4061, 173.2527
506.8882, 186.3115
507.3703, 193.9067
507.8524, 200.4844
508.3345, 209.5292
508.8167, 219.8899
509.2988, 227.5100
509.7809, 231.3027
510.2630, 237.0831
510.7451, 249.2783
511.2272, 265.3596
511.7094, 279.6993
512.1915, 291.3606
512.6736, 302.3640
513.1557, 314.6575
513.6378, 326.6750
514.1199, 333.7585
514.6021, 334.7894
515.0842, 337.5774
515.5663, 351.8557
516.0484, 380.4619
516.5305, 401.8003
517.0126, 410.8021
517.4948, 419.1445
517.9769, 432.8735
518.4590, 448.8328
518.9411, 459.8546
519.4232, 462.2766
519.9053, 462.7657
520.3875, 476.4877
520.8696, 509.6057
521.3517, 534.6284
521.8338, 541.7150
522.3159, 545.1370
522.7980, 550.1207
523.2802, 557.7870
523.7623, 570.1056
524.2444, 591.5837
524.7265, 617.1299
525.2086, 636.1479
525.6907, 648.1997
526.1729, 662.1281
526.6550, 681.2339
527.1371, 705.4009
527.6192, 735.1720
528.1013, 774.4597
528.5834, 808.3882
529.0656, 832.8765
529.5477, 849.7229
530.0298, 855.8496
530.5119, 853.2771
530.9940, 856.7904
531.4761, 881.1074
531.9583, 924.8037
532.4404, 953.9596
532.9225, 947.8418
533.4046, 950.7994
533.8867, 977.3513
534.3688, 1012.766
534.8510, 1040.235
535.3331, 1055.085
535.8152, 1067.401
536.2973, 1091.572
536.7794, 1127.536
537.2615, 1151.611
537.7437, 1153.060
538.2258, 1157.840
538.7079, 1189.516
539.1900, 1235.332
539.6721, 1267.291
540.1542, 1268.927
540.6364, 1266.753
541.1185, 1282.144
541.6006, 1311.570
542.0827, 1344.352
542.5648, 1377.704
543.0469, 1407.375
543.5291, 1427.726
544.0112, 1436.155
544.4933, 1447.173
544.9754, 1461.189
545.4575, 1476.958
545.9396, 1495.675
546.4218, 1515.239
546.9039, 1531.916
547.3860, 1544.248
547.8681, 1553.243
548.3502, 1559.474
548.8323, 1562.598
549.3145, 1562.082
549.7966, 1548.098
550.2787, 1538.476
550.7608, 1548.600
551.2429, 1574.011
551.7250, 1593.033
552.2072, 1589.120
552.6893, 1574.099
553.1714, 1571.567
553.6535, 1581.569
554.1356, 1577.166
554.6177, 1538.887
555.0999, 1487.203
555.5820, 1466.569
556.0641, 1485.177
556.5462, 1496.547
557.0283, 1493.962
557.5104, 1479.020
557.9926, 1446.686
558.4747, 1401.781
558.9568, 1361.070
559.4389, 1338.062
559.9210, 1327.692
560.4031, 1304.553
560.8853, 1255.043
561.3674, 1216.348
561.8495, 1199.066
562.3316, 1188.828
562.8137, 1175.903
563.2958, 1158.949
563.7780, 1140.759
564.2601, 1125.911
564.7422, 1110.828
565.2243, 1083.035
565.7064, 1039.983
566.1885, 1001.627
566.6707, 982.2334
567.1528, 971.4856
567.6349, 946.2151
568.1170, 897.6497
568.5991, 855.2781
569.0812, 833.5363
569.5634, 821.1719
570.0455, 806.2336
570.5276, 786.4927
571.0097, 763.9038
571.4918, 739.2991
571.9739, 713.2864
572.4561, 691.3076
572.9382, 680.4122
573.4203, 663.8505
573.9024, 633.2314
574.3845, 599.6891
574.8666, 573.8535
575.3488, 557.3634
575.8309, 543.5881
576.3130, 526.9227
576.7951, 508.0288
577.2772, 489.1699
577.7593, 469.1956
578.2415, 455.4150
578.7236, 458.7256
579.2057, 468.4855
579.6878, 459.5745
580.1699, 420.8362
580.6520, 385.4706
581.1342, 368.9277
581.6163, 361.4279
582.0984, 350.8213
582.5805, 335.4482
583.0626, 322.1176
583.5447, 318.2378
584.0269, 322.2485
584.5090, 311.7990
584.9911, 265.3744
585.4732, 233.7944
585.9553, 237.3730
586.4374, 250.8677
586.9196, 250.7748
587.4017, 233.2858
587.8838, 211.5001
588.3659, 193.1506
588.8480, 170.8345
589.3301, 176.9139
589.8123, 178.1901
590.2944, 174.8910
590.7765, 153.2445
591.2586, 154.9324
591.7407, 147.1022
592.2228, 138.8457
592.7050, 143.7003
593.1871, 124.4358
593.6692, 129.2052
594.1513, 124.4203
594.6334, 123.9770
595.1155, 114.0181
595.5977, 107.0012
596.0798, 109.5093
596.5619, 106.7579
597.0440, 95.71179
597.5261, 95.47443
598.0082, 75.81415
598.4904, 73.14032
598.9725, 77.78101
599.4546, 67.03015
599.9367, 66.81427
600.4188, 62.63641
600.9009, 40.26562
601.3831, 49.64667
601.8652, 45.24835
602.3473, 35.11914
602.8294, 31.96924
603.3115, 27.72656
603.7936, 25.02789
604.2758, 24.83478
604.7579, 23.57935
605.2400, 19.77045
605.7221, 15.46997
606.2042, 12.39746
606.6863, 10.42664
607.1685, 8.302673
607.6506, 5.145508
608.1327, 1.791992
608.6148, 0.7292480
609.0969, 2.536499
609.5790, 4.753967
610.0612, 7.931152
610.5433, 10.54181
611.0254, 12.98138
611.5075, 14.44727
611.9896, 11.37299
612.4717, 3.917419
612.9539, 20.07202
613.4360, 23.96387
613.9181, 17.70740
614.4002, 9.950195
614.8823, 3.439148
615.3644, 1.456360
615.8466, 4.031494
616.3287, 3.626709
616.8108, 3.190857
617.2929, 3.130615
617.7750, 2.632324
618.2571, 8.8988997E-02
618.7393, 3.108093
619.2214, 2.572266
619.7035, 3.221069
620.1856, 9.748657
620.6677, 9.512634
621.1498, 2.744446
621.6320, 1.108887
622.1141, 9.136047
622.5962, 15.40143
623.0783, 7.969177
623.5604, 7.621033
624.0425, 16.09631
624.5247, 12.27881
625.0068, 5.857605
625.4889, 1.041565
625.9710, 7.024353
626.4531, 9.173706
626.9352, 7.354675
627.4174, 5.245850
627.8995, 6.429810
628.3816, 10.73175
628.8637, 14.45026
629.3458, 17.68781
629.8279, 20.03577
630.3101, 20.96429
630.7922, 21.22961
631.2743, 21.01703
631.7564, 20.54260
632.2385, 21.31488
632.7206, 24.34814
633.2028, 29.37665
633.6849, 37.73669
634.1670, 49.07977
634.6491, 55.52673
635.1312, 51.86292
635.6133, 43.10175
636.0955, 39.91443
636.5776, 46.23700
637.0597, 50.78070
637.5418, 52.31299
638.0239, 52.99414
638.5060, 53.52979
638.9882, 54.44373
639.4703, 56.90814
639.9524, 61.64569
640.4345, 66.31238
640.9166, 66.51929
641.3987, 62.21002
641.8809, 60.23993
642.3630, 61.76514
642.8451, 65.49371
643.3272, 73.71252
643.8093, 83.99057
644.2914, 87.24496
644.7736, 74.41473
645.2557, 62.44479
645.7378, 60.20477
646.2199, 63.62000
646.7020, 65.96179
647.1841, 66.26263
647.6663, 69.69183
648.1484, 81.82562
648.6305, 100.8447
649.1126, 113.5013
649.5947, 119.3643
650.0768, 121.3710
650.5590, 116.1363
651.0411, 110.0397
651.5232, 109.4888
652.0053, 115.0989
652.4874, 120.0956
652.9695, 119.1180
653.4517, 117.0741
653.9338, 120.2023
654.4159, 127.5821
654.8980, 134.8779
655.3801, 140.5085
655.8622, 145.8988
656.3444, 152.9873
656.8265, 163.3103
657.3086, 167.1125
657.7907, 158.5975
658.2728, 152.5872
658.7549, 155.5932
659.2371, 164.2645
659.7192, 174.0596
660.2013, 184.5964
660.6834, 193.3848
661.1655, 193.2111
661.6476, 185.7910
662.1298, 184.4533
662.6119, 192.4222
663.0940, 200.9805
663.5761, 203.9053
664.0582, 201.3735
664.5403, 197.2235
665.0225, 189.2499
665.5046, 184.7311
665.9867, 185.9170
666.4688, 189.8669
666.9509, 194.7775
667.4330, 199.5043
667.9152, 202.9399
668.3973, 205.0743
668.8794, 206.8214
669.3615, 207.6771
669.8436, 206.9100
670.3257, 207.1550
670.8079, 209.0182
671.2900, 211.2590
671.7721, 213.4167
672.2542, 215.2299
672.7363, 214.3571
673.2184, 208.0248
673.7006, 201.5282
674.1827, 197.5887
674.6648, 195.0168
675.1469, 191.4893
675.6290, 186.7445
676.1111, 183.2926
676.5933, 184.2619
677.0754, 189.2543
677.5575, 191.6659
678.0396, 190.7684
678.5217, 188.4330
679.0038, 184.0516
679.4860, 179.1375
679.9681, 175.0290
680.4502, 171.6376
680.9323, 169.5869
681.4144, 170.5963
681.8965, 171.2158
682.3787, 168.2887
682.8608, 162.8790
683.3429, 157.6196
683.8250, 153.3792
684.3071, 150.5690
684.7892, 150.8195
685.2714, 155.5869
685.7535, 154.4193
686.2356, 141.5096
686.7177, 130.5388
687.1998, 126.4963
687.6819, 126.8206
688.1641, 129.0110
688.6462, 132.9269
689.1283, 135.4204
689.6104, 135.5239
690.0925, 132.5726
690.5746, 123.4621
691.0568, 109.3635
691.5389, 97.76672
692.0210, 92.62973
692.5031, 92.46881
692.9852, 94.65320
693.4673, 102.0422
693.9495, 104.5568
694.4316, 97.87976
694.9137, 91.10852
695.3958, 89.86102
695.8779, 90.59003
696.3600, 85.57806
696.8422, 70.66983
697.3243, 57.05237
697.8064, 56.53351
698.2885, 63.57397
698.7706, 65.93280
699.2527, 62.26291
699.7349, 58.27985
700.2170, 58.13922
700.6991, 60.13678
701.1812, 58.03815
701.6633, 46.87518
702.1454, 40.20184
702.6276, 43.07404
703.1097, 45.25891
703.5918, 41.29327
704.0739, 32.26172
704.5560, 20.45593
705.0381, 4.610596
705.5203, 7.675232
706.0024, 4.344604
706.4845, 8.930481
706.9666, 14.58954
707.4487, 9.563293
707.9308, 2.760071
708.4130, 0.9645390
708.8951, 3.042725
709.3772, 3.165894
709.8593, 1.663574
710.3414, 2.304626
710.8235, 12.86920
711.3057, 22.39557
711.7878, 23.90070
712.2699, 19.75189
712.7520, 18.69507
713.2341, 27.21942
713.7162, 36.15417
714.1984, 31.15564
714.6805, 17.27942
715.1626, 14.11078
715.6447, 26.21588
716.1268, 38.56244
716.6089, 37.32947
717.0911, 25.19208
717.5732, 22.16821
718.0553, 39.93982
718.5374, 50.61841
719.0195, 45.90063
719.5016, 39.01947
719.9838, 40.68268
720.4659, 48.84332
720.9480, 53.06378
721.4301, 45.54095
721.9122, 36.16956
722.3943, 37.82391
722.8765, 47.60699
723.3586, 56.29193
723.8407, 62.06555
724.3228, 62.66888
724.8049, 54.44379
725.2870, 39.14429
725.7692, 32.97424
726.2513, 45.13123
726.7334, 52.92603
727.2155, 52.57904
727.6976, 49.00214
728.1797, 45.30457
728.6619, 41.49298
729.1440, 36.29950
729.6261, 27.81732
730.1082, 19.58527
730.5903, 16.15002
731.0724, 16.00323
731.5546, 14.49023
732.0367, 10.63678
732.5188, 7.511658
733.0009, 8.105347
733.4830, 11.62921
733.9651, 12.47479
734.4473, 9.242371
734.9294, 5.465942
735.4115, 2.847900
735.8936, 1.155396
736.3757, 9.799866
736.8578, 21.41138
737.3400, 30.11523
737.8221, 31.83069
738.3042, 32.66223
738.7863, 38.52283
739.2684, 47.31384
739.7505, 55.45667
740.2327, 62.11621
740.7148, 65.07300
741.1969, 61.86414
741.6790, 54.57715
742.1611, 52.15271
742.6432, 54.07178
743.1254, 62.43164
743.6075, 84.24377
744.0896, 106.0424
744.5717, 121.8331
745.0538, 131.5519
745.5359, 135.0073
746.0181, 128.4506
746.5002, 122.1973
746.9823, 123.0193
747.4644, 127.7542
747.9465, 132.2814
748.4286, 135.8413
748.9108, 138.6649
749.3929, 141.0702
749.8750, 143.0226
750.3571, 144.5052
750.8392, 145.8313
751.3214, 145.6324
751.8035, 142.8479
752.2856, 139.3136
752.7677, 135.2974
753.2498, 131.7506
753.7319, 130.8893
754.2141, 133.6941
754.6962, 137.0375
755.1783, 140.1465
755.6604, 143.5673
756.1425, 149.6399
756.6246, 156.3610
757.1068, 156.8434
757.5889, 146.8347
758.0710, 134.2146
758.5531, 134.6008
759.0352, 147.5715
759.5173, 151.3667
759.9995, 140.5977
760.4816, 133.0269
760.9637, 141.5056
761.4458, 159.0739
761.9279, 167.4451
762.4100, 163.4216
762.8922, 158.4738
763.3743, 150.8031
763.8564, 146.7913
764.3385, 151.4213
764.8206, 162.0825
765.3027, 174.5294
765.7849, 187.3616
766.2670, 199.4327
766.7491, 209.8453
767.2312, 218.4596
767.7133, 224.7682
768.1954, 228.5035
768.6776, 230.8109
769.1597, 231.0936
769.6418, 234.0306
770.1239, 248.1909
770.6060, 277.7841
771.0881, 301.5261
771.5703, 316.5085
772.0524, 330.2983
772.5345, 343.6887
773.0166, 357.8240
773.4987, 374.8323
773.9808, 394.9785
774.4630, 414.1420
774.9451, 429.0253
775.4272, 442.2231
775.9093, 452.6171
776.3914, 463.7368
776.8735, 487.3108
777.3557, 526.8286
777.8378, 574.4161
778.3199, 623.5034
778.8020, 673.3066
779.2841, 704.1967
779.7662, 702.8188
780.2484, 711.7939
780.7305, 745.8816
781.2126, 790.9062
781.6947, 836.3649
782.1768, 882.3115
782.6589, 930.8286
783.1411, 979.9761
783.6232, 1034.663
784.1053, 1099.765
784.5874, 1169.667
785.0695, 1233.355
785.5516, 1292.896
786.0338, 1367.587
786.5159, 1475.409
786.9980, 1598.000
787.4801, 1687.711
787.9622, 1744.825
788.4443, 1825.436
788.9265, 1943.633
789.4086, 2069.564
789.8907, 2181.804
790.3728, 2283.330
790.8549, 2387.797
791.3370, 2486.625
791.8192, 2600.763
792.3013, 2730.273
792.7834, 2876.037
793.2655, 3052.208
793.7476, 3241.321
794.2297, 3405.406
794.7119, 3527.699
795.1940, 3647.489
795.6761, 3802.253
796.1582, 3977.149
796.6403, 4146.774
797.1224, 4308.900
797.6046, 4461.755
798.0867, 4603.709
798.5688, 4747.019
799.0509, 4916.781
799.5330, 5121.626
800.0151, 5292.627
800.4973, 5408.667
800.9794, 5523.556
801.4615, 5662.270
801.9436, 5806.181
802.4257, 5937.930
802.9078, 6055.756
803.3900, 6170.048
803.8721, 6283.605
804.3542, 6395.012
804.8363, 6499.920
805.3184, 6604.383
805.8005, 6715.212
806.2827, 6834.703
806.7648, 6964.530
807.2469, 7107.875
807.7290, 7260.531
808.2111, 7406.958
808.6932, 7547.866
809.1754, 7709.845
809.6575, 7902.245
810.1396, 8096.715
810.6217, 8261.633
811.1038, 8405.728
811.5859, 8591.127
812.0681, 8832.411
812.5502, 9095.179
813.0323, 9390.904
813.5144, 9694.749
813.9965, 9981.635
814.4786, 10267.61
814.9608, 10591.21
815.4429, 10963.17
815.9250, 11372.96
816.4071, 11803.42
816.8892, 12270.68
817.3713, 12795.93
817.8535, 13380.25
818.3356, 14022.99
818.8177, 14723.93
819.2998, 15478.89
819.7819, 16278.77
820.2640, 17127.93
820.7462, 18035.59
821.2283, 19004.05
821.7104, 20028.36
822.1925, 21085.57
822.6746, 22214.98
823.1567, 23461.93
823.6389, 24839.57
824.1210, 26254.50
824.6031, 27681.32
825.0852, 29181.01
825.5673, 30809.45
826.0494, 32490.25
826.5316, 34140.44
827.0137, 35752.93
827.4958, 37379.01
827.9779, 39060.46
828.4600, 40733.23
828.9421, 42378.14
829.4243, 43949.22
829.9064, 45358.41
830.3885, 46588.56
830.8707, 47584.02
831.3528, 48309.31
831.8349, 48777.46
832.3170, 49030.44
832.7991, 49075.04
833.2813, 48873.14
833.7634, 48416.39
834.2455, 47722.29
834.7276, 46757.07
835.2097, 45567.61
835.6918, 44243.73
836.1740, 42764.44
836.6561, 41251.11
837.1382, 39731.14
837.6203, 38163.67
838.1024, 36527.20
838.5845, 34834.73
839.0667, 33087.02
839.5488, 31288.58
840.0309, 29512.28
840.5130, 27819.23
840.9951, 26173.32
841.4772, 24488.54
841.9594, 22793.17
842.4415, 21173.75
842.9236, 19661.13
843.4057, 18203.23
843.8878, 16749.95
844.3699, 15329.06
844.8521, 14013.03
845.3342, 12810.48
845.8163, 11712.46
846.2984, 10733.03
846.7805, 9844.764
847.2626, 9032.786
847.7448, 8294.644
848.2269, 7619.360
848.7090, 7009.706
849.1911, 6455.088
849.6732, 5956.390
850.1553, 5507.065
850.6375, 5108.105
851.1196, 4751.609
851.6017, 4432.423
852.0838, 4146.051
852.5659, 3879.615
853.0480, 3618.895
853.5302, 3373.313
854.0123, 3159.801
854.4944, 2973.573
854.9765, 2795.428
855.4586, 2621.621
855.9407, 2451.608
856.4229, 2284.160
856.9050, 2123.042
857.3871, 1982.805
857.8692, 1866.790
858.3513, 1761.597
858.8334, 1665.005
859.3156, 1578.182
859.7977, 1505.625
860.2798, 1443.332
860.7619, 1376.262
861.2440, 1302.328
861.7261, 1228.892
862.2083, 1156.432
862.6904, 1083.856
863.1725, 1003.655
863.6546, 925.2689
864.1367, 865.0989
864.6188, 826.3420
865.1010, 795.3408
865.5831, 769.7694
866.0652, 741.2539
866.5473, 695.8566
867.0294, 639.9908
867.5115, 588.7792
867.9937, 546.6445
868.4758, 511.8539
868.9579, 483.2648
869.4400, 459.6954
869.9221, 439.4491
870.4042, 423.1016
870.8864, 404.0804
871.3685, 380.9791
871.8506, 355.9357
872.3327, 328.6248
872.8148, 301.1780
873.2969, 280.3893
873.7791, 271.1810
874.2612, 257.6711
874.7433, 234.1600
875.2254, 213.2675
875.7075, 200.9712
876.1896, 193.3560
876.6718, 185.5358
877.1539, 176.9019
877.6360, 168.0349
878.1181, 160.2342
878.6002, 151.2521
879.0823, 138.1733
879.5645, 123.5475
880.0466, 110.6880
880.5287, 100.3575
881.0108, 92.38342
881.4929, 86.66724
881.9750, 82.96143
882.4572, 81.61792
882.9393, 82.00763
883.4214, 81.43860
883.9035, 79.64227
884.3856, 76.43909
884.8677, 71.48401
885.3499, 66.13739
885.8320, 63.73706
886.3141, 65.43536
886.7962, 61.94202
887.2783, 51.12183
887.7604, 39.42737
888.2426, 27.82037
888.7247, 17.03796
889.2068, 7.975464
889.6889, 0.6769410
890.1710, 6.352966
890.6531, 12.47937
891.1353, 19.38513
891.6174, 28.42700
892.0995, 37.77747
892.5816, 46.37073
893.0637, 53.88489
893.5458, 59.79718
894.0280, 63.68829
894.5101, 67.25775
894.9922, 74.00067
895.4743, 79.96411
895.9564, 78.50635
896.4385, 71.48242
896.9207, 64.65784
897.4028, 60.20410
897.8849, 58.05127
898.3670, 59.45966
898.8491, 62.64221
899.3312, 59.46222
899.8134, 49.98383
900.2955, 45.67731
900.7776, 50.05017
901.2597, 55.11145
901.7418, 54.30835
902.2239, 48.95258
902.7061, 44.75574
903.1882, 42.17682
903.6703, 39.68295
904.1524, 37.17862
904.6345, 34.97507
905.1166, 33.57788
905.5988, 32.30295
906.0809, 29.52634
906.5630, 24.58554
907.0451, 22.87213
907.5272, 31.45264
908.0093, 36.23627
908.4915, 28.41458
908.9736, 15.25223
909.4557, 1.968781
909.9378, 8.934845
910.4199, 12.09073
910.9020, 1.076813
911.3842, 10.87289
911.8663, 10.90781
912.3484, 4.516724
912.8305, 0.5657350
913.3126, 3.567596
913.7947, 5.914368
914.2769, 8.301178
914.7590, 9.856140
915.2411, 7.544159
915.7232, 3.152344
916.2053, 6.947571
916.6874, 18.88965
917.1696, 29.06769
917.6517, 34.64783
918.1338, 36.61102
918.6159, 35.29889
919.0980, 31.58582
919.5801, 30.40720
920.0623, 31.83286
920.5444, 35.87402
921.0265, 45.02426
921.5086, 52.93332
921.9907, 54.64731
922.4728, 53.15863
922.9550, 54.62585
923.4371, 59.60028
923.9192, 65.22174
924.4013, 73.91504
924.8834, 80.00143
925.3655, 77.99136
925.8477, 74.50659
926.3298, 77.97040
926.8119, 87.69595
927.2940, 94.48611
927.7761, 92.81201
928.2582, 90.14490
928.7404, 90.06909
929.2225, 92.45898
929.7046, 98.16736
930.1867, 106.1409
930.6688, 113.8274
931.1509, 120.1035
931.6331, 125.3400
932.1152, 129.7311
932.5973, 133.6199
933.0794, 137.6898
933.5615, 141.9225
934.0436, 145.7408
934.5258, 149.0567
935.0079, 154.0136
935.4900, 162.9423
935.9721, 174.0629
936.4542, 180.6517
936.9363, 182.2737
937.4185, 186.3165
937.9006, 194.3165
938.3827, 201.9904
938.8648, 207.2343
939.3469, 210.7773
939.8290, 214.2074
940.3112, 218.3401
940.7933, 217.7812
941.2754, 207.5900
941.7575, 200.4528
942.2396, 200.4786
942.7217, 203.8462
943.2039, 210.5538
943.6860, 218.6274
944.1681, 219.0740
944.6502, 203.1945
945.1323, 192.9230
945.6144, 198.8718
946.0966, 205.3911
946.5787, 200.9970
947.0608, 190.9599
947.5429, 184.3897
948.0250, 183.2379
948.5071, 184.4464
948.9893, 188.6251
949.4714, 192.1649
949.9535, 192.1572
950.4356, 189.5398
950.9177, 184.6599
951.3998, 178.4653
951.8820, 173.4524
952.3641, 170.7267
952.8462, 170.3483
953.3283, 175.6408
953.8104, 182.9580
954.2925, 182.0129
954.7747, 173.7550
955.2568, 165.7419
955.7389, 160.6615
956.2210, 159.1770
956.7031, 163.4615
957.1852, 171.1109
957.6674, 170.7260
958.1495, 161.8328
958.6316, 154.8861
959.1137, 152.0155
959.5958, 148.5745
960.0779, 140.7960
960.5601, 132.3310
961.0422, 132.3995
961.5243, 144.2106
962.0064, 145.5178
962.4885, 129.2770
962.9706, 118.1531
963.4528, 122.1994
963.9349, 130.5000
964.4170, 131.6007
964.8991, 126.3077
965.3812, 124.7892
965.8633, 132.2408
966.3455, 136.8359
966.8276, 136.2798
967.3097, 135.1926
967.7918, 137.2593
968.2739, 138.9433
968.7560, 133.4907
969.2382, 119.6228
969.7203, 107.9896
970.2024, 100.8910
970.6845, 98.06927
971.1666, 102.9666
971.6487, 109.1885
972.1309, 109.8096
972.6130, 105.6693
973.0951, 102.2561
973.5772, 102.2948
974.0593, 100.9756
974.5414, 90.42560
975.0236, 80.59148
975.5057, 86.41803
975.9878, 100.1697
976.4699, 104.0429
976.9520, 94.60629
977.4341, 83.49045
977.9163, 78.54678
978.3984, 78.40408
978.8805, 84.08322
979.3626, 92.23654
979.8447, 93.21977
980.3268, 87.21085
980.8090, 82.47165
981.2911, 82.98135
981.7732, 85.94635
982.2553, 88.23138
982.7374, 89.69293
983.2195, 89.02769
983.7017, 86.39406
984.1838, 86.57899
984.6659, 91.11847
985.1480, 93.14029
985.6301, 86.69281
986.1122, 75.55341
986.5944, 70.19518
987.0765, 71.59727
987.5586, 69.59027
988.0407, 62.01750
988.5228, 59.43591
989.0049, 67.71484
989.4871, 78.67606
989.9692, 83.12152
990.4513, 81.54062
990.9334, 79.64619
991.4155, 77.80952
991.8976, 74.54727
992.3798, 67.13167
992.8619, 62.03979
993.3440, 55.36783
993.8261, 66.44307
994.3082, 72.69046
994.7903, 74.36179
995.2725, 57.80264
995.7546, 64.74391
996.2367, 62.24265
996.7188, 59.33739
997.2009, 69.53653
997.6830, 55.54048
998.1652, 65.49861
998.6473, 65.87138
999.1294, 70.60779
999.6115, 65.84500
1000.094, 63.98990
1000.576, 71.61136
1001.058, 73.96486
1001.540, 68.04910
1002.022, 72.97173
1002.504, 58.45830
1002.986, 60.87962
1003.468, 70.66333
1003.951, 65.11081
1004.433, 70.06934
1004.915, 70.90427
1005.397, 53.40062
1005.879, 67.62151
1006.361, 68.09953
1006.843, 54.49471
1007.325, 67.65399
1007.807, 56.00385
1008.290, 53.18376
1008.772, 56.98969
1009.254, 53.80797
1009.736, 61.53558
1010.218, 58.70718
1010.700, 54.96613
1011.182, 55.41832
1011.664, 44.30598
1012.147, 54.83559
1012.629, 50.54887
1013.111, 53.55881
1013.593, 58.21184
1014.075, 52.41940
1014.557, 47.74252
1015.039, 43.74678
1015.521, 44.82202
1016.003, 48.21054
1016.486, 50.17200
1016.968, 51.06004
1017.450, 52.42784
1017.932, 53.82721
1018.414, 51.48651
1018.896, 44.44891
1019.378, 38.21941
1019.860, 37.77986
1020.343, 40.87416
1020.825, 42.11147
1021.307, 41.84637
1021.789, 43.15814
1022.271, 46.27588
1022.753, 46.50493
1023.235, 41.50667
1023.717, 35.90526
1024.199, 35.49982
1024.682, 39.34149
1025.164, 42.33295
1025.646, 44.61658
1026.128, 43.71466
1026.610, 38.61736
1027.092, 33.83487
1027.574, 31.96014
1028.056, 31.73297
1028.538, 31.88968
1029.021, 32.69099
1029.503, 32.37357
1029.985, 29.94203
1030.467, 30.55237
1030.949, 36.80832
1031.431, 42.35809
1031.913, 41.99606
1032.395, 38.18263
1032.878, 37.68407
1033.360, 41.88629
1033.842, 43.71863
1034.324, 41.98917
1034.806, 40.32112
1035.288, 39.99825
1035.770, 39.68752
1036.252, 38.11055
1036.734, 35.62923
1037.217, 33.73102
1037.699, 34.09012
1038.181, 30.91977
1038.663, 18.99654
1039.145, 11.58501
1039.627, 17.02547
1040.109, 25.97461
1040.591, 27.79189
1041.073, 23.31616
1041.556, 22.24344
1042.038, 28.86406
1042.520, 32.26668
1043.002, 28.76987
1043.484, 25.92076
1043.966, 28.18633
1044.448, 32.79088
1044.930, 37.48790
1045.413, 41.80479
1045.895, 41.73888
1046.377, 35.40605
1046.859, 27.08636
1047.341, 12.31961
1047.823, 1.290070
1048.305, 2.762802
1048.787, 11.13467
1049.270, 17.72200
1049.752, 21.70522
1050.234, 25.42140
1050.716, 31.46512
1051.198, 34.24619
1051.680, 29.80096
1052.162, 24.35973
1052.644, 21.44977
1053.126, 20.76994
1053.609, 21.58556
1054.091, 23.90965
1054.573, 26.25900
1055.055, 31.16362
1055.537, 32.40092
1056.019, 23.89172
1056.501, 14.77098
1056.983, 13.69997
1057.465, 18.24281
1057.948, 20.17805
1058.430, 16.64815
1058.912, 16.68324
1059.394, 28.84642
1059.876, 38.05736
1060.358, 35.45190
1060.840, 27.76627
1061.322, 19.74390
1061.805, 12.87019
1062.287, 9.792450
1062.769, 12.27940
1063.251, 14.12825
1063.733, 11.81848
1064.215, 9.863083
1064.697, 11.02229
1065.179, 13.77531
1065.661, 17.15012
1066.144, 20.40884
1066.626, 21.86832
1067.108, 20.79471
1067.590, 17.96848
1068.072, 10.66302
1068.554, 4.914978
1069.036, 5.245483
1069.518, 9.064346
1070.000, 14.77756
1070.483, 20.72597
1070.965, 22.03119
1071.447, 15.29489
1071.929, 7.997726
1072.411, 1.723679
1072.893, 2.122818
1073.375, 2.002716
1073.857, 0.9235990
1074.340, 6.307159
1074.822, 13.14864
1075.304, 17.45775
1075.786, 16.06647
1076.268, 15.45145
1076.750, 22.00352
1077.232, 27.05342
1077.714, 20.77032
1078.197, 10.61377
1078.679, 8.822586
1079.161, 15.73885
1079.643, 21.26894
1080.125, 21.67323
1080.607, 19.80530
1081.089, 14.76642
1081.571, 10.31119
1082.053, 10.30626
1082.536, 12.18407
1083.018, 12.61208
1083.500, 10.83409
1083.982, 6.078720
1084.464, 6.012741
1084.946, 13.89752
1085.428, 9.019974
1085.910, 1.117325
1086.393, 3.547745
1086.875, 5.561966
1087.357, 6.415543
1087.839, 6.454941
1088.321, 5.999405
1088.803, 4.619049
1089.285, 3.629456
1089.767, 3.749878
1090.250, 4.289886
1090.732, 4.870560
1091.214, 5.448456
1091.696, 6.346298
1092.178, 7.443436
1092.660, 7.275757
1093.142, 3.410614
1093.624, 1.094025
1094.106, 4.078568
1094.589, 7.526443
1095.071, 8.183090
1095.553, 6.932236
1096.035, 4.509659
1096.517, 1.417740
1096.999, 0.9577030
1097.481, 7.970230
1097.963, 12.29465
1098.445, 8.514847
1098.928, 3.351791
1099.410, 1.045227
1099.892, 0.5671390
1100.374, 10.11684
1100.856, 0.9125370
1101.338, 7.130280
1101.820, 8.799454
1102.302, 7.755829
1102.785, 0.7946620
1103.267, 3.256989
1103.749, 6.092499
1104.231, 4.209457
1104.713, 9.643616
1105.195, 0.4389650
1105.677, 0.8912350
1106.159, 5.731506
1106.641, 1.125854
1107.124, 0.5482330
1107.606, 7.269028
1108.088, 9.831024
1108.570, 4.142441
1109.052, 9.320007
1109.534, 4.890732
1110.016, 2.094803
1110.498, 8.038376
1110.980, 2.830200
1111.463, 8.185440
1111.945, 9.783218
1112.427, 6.478485
1112.909, 8.903061
1113.391, 10.08829
1113.873, 2.909225
1114.355, 10.83435
1114.837, 0.2337340
1115.320, 2.448364
1115.802, 1.999985
1116.284, 0.4965520
1116.766, 7.957581
1117.248, 5.864777
1117.730, 6.504227
1118.212, 15.34496
1118.694, 17.20604
1119.177, 6.337585
1119.659, 2.024643
1120.141, 9.206543
1120.623, 13.35393
1121.105, 7.452637
1121.587, 2.7892999E-02
1122.069, 0.3482970
1122.551, 4.424957
1123.033, 4.997910
1123.516, 0.5153350
1123.998, 3.840683
1124.480, 4.628464
1124.962, 3.681030
1125.444, 0.5792080
1125.926, 1.923157
1126.408, 0.9186250
1126.890, 1.954620
1127.372, 1.649979
1127.855, 2.329498
1128.337, 5.884018
1128.819, 9.166245
1129.301, 10.88763
1129.783, 10.69998
1130.265, 9.160553
1130.747, 5.488144
1131.229, 0.9814150
1131.712, 2.347427
1132.194, 9.281021
1132.676, 10.23906
1133.158, 5.196716
1133.640, 3.540253
1134.122, 7.418045
1134.604, 9.987869
1135.086, 6.679550
1135.568, 1.179565
1136.051, 0.5927890
1136.533, 0.5646820
1137.015, 1.414673
1137.497, 1.893692
1137.979, 1.288391
1138.461, 0.3385770
1138.943, 1.293716
1139.425, 0.6817170
1139.907, 0.2718510
1140.390, 0.4399110
1140.872, 1.397568
1141.354, 0.9257660
1141.836, 5.409546
1142.318, 9.488739
1142.800, 12.37341
1143.282, 13.28943
1143.764, 11.92723
1144.247, 10.39252
1144.729, 10.73189
1145.211, 11.40115
1145.693, 9.235657
1146.175, 6.541870
1146.657, 7.760773
1147.139, 11.68221
1147.621, 14.51750
1148.104, 15.18559
1148.586, 14.72226
1149.068, 13.38420
1149.550, 11.84737
1150.032, 10.81213
1150.514, 9.684113
1150.996, 7.478699
1151.478, 4.925385
1151.960, 3.115280
1152.443, 2.295807
1152.925, 2.353317
1153.407, 2.549316
1153.889, 5.220657
1154.371, 15.59715
1154.853, 24.12608
1155.335, 24.42560
1155.817, 19.57642
1156.299, 10.65291
1156.782, 9.0576001E-02
1157.264, 3.693405
1157.746, 4.215057
1158.228, 9.507660
1158.710, 6.918625
1159.192, 4.866623
1159.674, 7.979843
1160.156, 11.11169
1160.639, 9.704514
1161.121, 5.288773
1161.603, 2.655121
1162.085, 1.792358
1162.567, 3.927612
1163.049, 13.83669
1163.531, 18.85619
1164.013, 14.13786
1164.495, 8.572830
1164.978, 7.539749
1165.460, 8.691605
1165.942, 7.921951
1166.424, 5.280777
1166.906, 4.813263
1167.388, 7.103378
1167.870, 8.353027
1168.352, 8.250580
1168.834, 5.273560
1169.317, 2.181366
1169.799, 8.501648
1170.281, 6.792755
1170.763, 0.8825840
1171.245, 5.285431
1171.727, 6.627045
1172.209, 9.156281
1172.691, 12.89337
1173.174, 14.68239
1173.656, 13.69533
1174.138, 11.42599
1174.620, 8.788788
1175.102, 7.097504
1175.584, 10.64682
1176.066, 16.00243
1176.548, 12.20580
1177.031, 3.126877
1177.513, 3.268936
1177.995, 13.04446
1178.477, 18.58208
1178.959, 12.42747
1179.441, 3.917374
1179.923, 1.044159
1180.405, 1.042526
1180.887, 1.808746
1181.370, 2.771072
1181.852, 1.802429
1182.334, 0.6600490
1182.816, 5.501709
1183.298, 18.05347
1183.780, 26.36134
1184.262, 21.71507
1184.744, 14.91170
1185.226, 9.131607
1185.709, 5.570541
1186.191, 7.716415
1186.673, 11.10620
1187.155, 6.665710
1187.637, 5.293900
1188.119, 9.609665
1188.601, 2.367661
1189.083, 11.81085
1189.566, 18.06612
1190.048, 19.98248
1190.530, 14.10167
1191.012, 6.850235
1191.494, 3.237427
1191.976, 3.300781
1192.458, 8.021667
1192.940, 19.93750
1193.422, 23.80418
1193.905, 16.04967
1194.387, 13.62796
1194.869, 22.35739
1195.351, 28.24718
1195.833, 21.42421
1196.315, 9.782837
1196.797, 6.898621
1197.279, 11.15079
1197.761, 10.62927
1198.244, 5.745346
1198.726, 7.955673
1199.208, 17.85870
1199.690, 22.60295
1200.172, 17.19846
1200.654, 8.752106
1201.136, 2.794815
1201.618, 0.4879150
1202.101, 6.379883
1202.583, 15.95103
1203.065, 20.72086
1203.547, 21.31021
1204.029, 20.63907
1204.511, 19.40511
1204.993, 16.89351
1205.475, 12.39951
1205.958, 8.304489
1206.440, 5.663239
1206.922, 4.835144
1207.404, 6.411865
1207.886, 9.722046
1208.368, 15.83145
1208.850, 22.58151
1209.332, 23.92027
1209.814, 17.98445
1210.297, 16.03343
1210.779, 27.84058
1211.261, 33.55821
1211.743, 21.94762
1212.225, 10.48744
1212.707, 10.02028
1213.189, 14.29140
1213.671, 16.86978
1214.153, 17.53831
1214.636, 13.54034
1215.118, 0.7289730
1215.600, 2.028366
1216.082, 8.709518
1216.564, 16.91226
1217.046, 17.40636
1217.528, 15.81586
1218.010, 15.97649
1218.493, 18.10886
1218.975, 24.36504
1219.457, 33.20175
1219.939, 32.74554
1220.421, 24.61557
1220.903, 18.53786
1221.385, 15.78590
1221.867, 13.55754
1222.349, 10.67238
1222.832, 9.028534
1223.314, 11.20251
1223.796, 14.34256
1224.278, 15.04147
1224.760, 14.34218
1225.242, 11.46556
1225.724, 9.305862
1226.206, 12.20435
1226.688, 19.02905
1227.171, 23.77457
1227.653, 23.48373
1228.135, 22.94402
1228.617, 25.10373
1229.099, 26.58376
1229.581, 26.54655
1230.063, 24.47675
1230.545, 16.59993
1231.028, 7.570969
1231.510, 8.598526
1231.992, 22.61778
1232.474, 27.42697
1232.956, 17.16341
1233.438, 10.10197
1233.920, 9.117767
1234.402, 6.946793
1234.885, 3.648865
1235.367, 1.959381
1235.849, 6.873566
1236.331, 15.49237
1236.813, 18.87170
1237.295, 17.19608
1237.777, 15.38858
1238.259, 13.57326
1238.741, 11.22565
1239.224, 8.503586
1239.706, 8.467651
1240.188, 12.97569
1240.670, 17.15712
1241.152, 14.18239
1241.634, 9.067642
1242.116, 7.260040
1242.598, 8.066116
1243.080, 12.13161
1243.563, 17.30872
1244.045, 18.98866
1244.527, 16.72217
1245.009, 14.71703
1245.491, 15.02530
1245.973, 15.19051
1246.455, 14.43513
1246.937, 12.97562
1247.420, 9.307098
1247.902, 6.169388
1248.384, 7.555161
1248.866, 12.15250
1249.348, 13.13806
1249.830, 9.821136
1250.312, 9.223038
1250.794, 12.67021
1251.276, 14.99431
1251.759, 15.35788
1252.241, 15.44258
1252.723, 16.03101
1253.205, 16.44757
1253.687, 16.22002
1254.169, 14.65936
1254.651, 7.694656
1255.133, 2.231522
1255.615, 0.3229680
1256.098, 10.30051
1256.580, 12.95683
1257.062, 6.316177
1257.544, 2.633362
1258.026, 7.559235
1258.508, 13.28116
1258.990, 11.77510
1259.472, 9.212921
1259.955, 3.583344
1260.437, 14.51833
1260.919, 20.63783
1261.401, 22.20154
1261.883, 5.551086
1262.365, 12.41951
1262.847, 9.862778
1263.329, 6.918915
1263.812, 17.09622
1264.294, 3.097443
1264.776, 13.09108
1265.258, 13.51779
1265.740, 18.32637
1266.222, 13.65485
1266.704, 11.91618
1267.186, 19.66745
1267.668, 22.16971
1268.151, 15.46342
1268.633, 20.53511
1269.115, 6.196304
1269.597, 8.897675
1270.079, 18.94144
1270.561, 13.64304
1271.043, 18.89558
1271.525, 20.13078
1272.007, 3.106812
1272.490, 17.83200
1272.972, 18.82979
1273.454, 5.723282
1273.936, 19.35855
1274.418, 8.223999
1274.900, 19.48866
1275.382, 23.61818
1275.864, 20.42409
1276.347, 15.12978
1276.829, 6.934006
1277.311, 1.249863
1277.793, 0.3885800
1278.275, 0.5490110
1278.757, 5.809021
1279.239, 7.664413
1279.721, 4.775955
1280.203, 0.0000000E+00
##END=



