##NAMES=Blodite
##RRUFFID=R050341
##IDEAL CHEMISTRY=Na_2_Mg(SO_4_)_2_&#183;4H_2_O
##LOCALITY=Soda Lake, San Luis Obispo County, California, USA
##OWNER=RRUFF
##SOURCE=George Rossman
##DESCRIPTION=Gray to colorless equant crystal
##STATUS=The identification of this mineral has been confirmed by X-ray diffraction and chemical analysis
##URL=rruff.info/R050341
##MEASURED CHEMISTRY=Na_2.00_Mg_1.00_(S_1.00_O_4_)_2_Â·4H_2_O
73.842, 0.000
75.239, 45.802
76.635, 63.083
78.031, 142.204
79.427, 59.473
80.823, 19.052
82.218, 63.709
83.614, 62.025
85.009, 121.039
86.404, 148.057
87.798, 162.562
89.193, 218.158
90.587, 317.547
91.981, 340.499
93.375, 454.819
94.768, 526.343
96.161, 616.929
97.554, 733.455
98.947, 815.816
100.340, 942.924
101.732, 978.713
103.124, 1082.125
104.516, 989.111
105.908, 995.651
107.300, 860.727
108.691, 733.291
110.082, 685.293
111.473, 521.693
112.864, 513.456
114.254, 418.549
115.644, 407.947
117.034, 395.615
118.424, 388.526
119.813, 346.659
121.203, 420.996
122.592, 320.522
123.981, 424.226
125.369, 446.113
126.758, 427.157
128.146, 482.417
129.534, 453.916
130.922, 554.558
132.309, 546.331
133.696, 533.271
135.083, 517.514
136.470, 564.040
137.857, 497.960
139.243, 607.116
140.630, 587.355
142.016, 679.642
143.401, 661.969
144.787, 646.328
146.172, 565.721
147.557, 565.158
148.942, 606.639
150.327, 586.157
151.711, 584.711
153.096, 578.300
154.480, 526.924
155.863, 398.586
157.247, 295.255
158.630, 307.864
160.013, 215.440
161.396, 156.002
162.779, 114.561
164.161, 84.537
165.544, 81.705
166.926, 73.301
168.308, 68.919
169.689, 76.562
171.070, 66.232
172.452, 75.931
173.833, 32.661
175.213, 38.116
176.594, 27.338
177.974, 26.500
179.354, 41.353
180.734, 49.432
182.114, 119.934
183.493, 83.091
184.872, 132.485
186.251, 86.423
187.630, 132.473
189.008, 138.465
190.387, 213.490
191.765, 171.400
193.143, 179.286
194.520, 235.008
195.898, 194.604
197.275, 234.292
198.652, 208.484
200.029, 219.359
201.405, 237.357
202.782, 238.392
204.158, 269.864
205.534, 307.620
206.909, 332.547
208.285, 306.719
209.660, 422.236
211.035, 442.243
212.410, 445.279
213.784, 534.343
215.159, 500.436
216.533, 508.555
217.907, 521.702
219.281, 443.876
220.654, 493.943
222.027, 529.168
223.400, 455.429
224.773, 431.900
226.146, 419.217
227.518, 380.568
228.891, 352.690
230.263, 362.410
231.634, 276.870
233.006, 271.356
234.377, 226.721
235.748, 251.454
237.119, 197.072
238.490, 195.704
239.860, 196.131
241.231, 189.140
242.601, 225.540
243.970, 170.237
245.340, 157.175
246.709, 171.312
248.079, 221.623
249.448, 256.083
250.816, 288.676
252.185, 267.388
253.553, 283.207
254.921, 325.123
256.289, 403.127
257.657, 330.214
259.024, 326.375
260.391, 352.606
261.758, 297.901
263.125, 309.257
264.492, 253.669
265.858, 207.133
267.224, 171.647
268.590, 155.208
269.956, 63.813
271.321, 107.459
272.687, 123.144
274.052, 34.866
275.416, 12.378
276.781, 141.410
278.146, 92.229
279.510, 29.077
280.874, 35.954
282.237, 16.857
283.601, 49.787
284.964, 4.259
286.327, 10.718
287.690, 3.282
289.053, 72.261
290.416, 24.231
291.778, 91.815
293.140, 9.120
294.502, 46.962
295.863, 7.063
297.225, 28.180
298.586, 26.313
299.947, 18.539
301.308, 57.619
302.668, 93.790
304.029, 42.970
305.389, 32.162
306.749, 26.363
308.108, 12.425
309.468, 9.207
310.827, 32.981
312.186, 41.308
313.545, 30.524
314.903, 50.293
316.262, 18.064
317.620, 13.829
318.978, 54.590
320.336, 39.355
321.693, 3.120
323.051, 67.878
324.408, 65.642
325.765, 50.412
327.121, 69.799
328.478, 6.964
329.834, 31.738
331.190, 36.511
332.546, 41.717
333.902, 6.048
335.257, 29.193
336.612, 16.442
337.967, 30.699
339.322, 42.961
340.677, 9.231
342.031, 10.508
343.385, 6.791
344.739, 100.079
346.093, 39.354
347.446, 94.630
348.799, 82.910
350.153, 125.205
351.505, 90.501
352.858, 85.804
354.210, 96.113
355.563, 72.127
356.915, 53.730
358.267, 51.020
359.618, 37.802
360.969, 74.862
362.321, 29.116
363.672, 12.338
365.022, 8.529
366.373, 102.218
367.723, 84.160
369.073, 78.856
370.423, 48.042
371.773, 103.313
373.122, 20.787
374.471, 80.344
375.821, 145.485
377.169, 81.344
378.518, 132.583
379.866, 87.127
381.215, 106.640
382.563, 172.283
383.910, 108.540
385.258, 132.801
386.605, 172.435
387.952, 182.704
389.299, 115.548
390.646, 126.418
391.992, 122.862
393.339, 195.841
394.685, 163.615
396.031, 118.975
397.376, 252.285
398.722, 220.597
400.067, 315.913
401.412, 345.695
402.757, 245.795
404.101, 344.156
405.446, 346.731
406.790, 214.116
408.134, 303.512
409.478, 301.953
410.821, 432.366
412.165, 366.796
413.508, 355.233
414.851, 459.681
416.193, 413.135
417.536, 359.593
418.878, 433.057
420.220, 502.540
421.562, 471.026
422.904, 539.517
424.245, 563.011
425.586, 606.508
426.927, 596.007
428.268, 706.517
429.609, 677.028
430.949, 722.542
432.289, 789.058
433.629, 941.574
434.969, 917.106
436.309, 998.638
437.648, 1084.881
438.987, 1137.414
440.326, 1240.950
441.665, 1324.486
443.003, 1526.023
444.342, 1793.561
445.680, 1983.098
447.018, 2272.510
448.355, 2618.046
449.693, 2959.469
451.030, 3320.104
452.367, 3684.797
453.704, 4072.335
455.041, 4092.548
456.377, 4235.091
457.713, 4007.634
459.049, 3912.176
460.385, 3646.722
461.721, 3420.520
463.056, 3176.062
464.391, 2960.603
465.726, 2860.156
467.061, 2838.710
468.395, 2655.260
469.730, 2438.198
471.064, 2417.241
472.398, 2194.272
473.731, 2085.900
475.065, 1695.998
476.398, 1512.185
477.731, 1331.806
479.064, 1220.583
480.397, 992.485
481.729, 854.071
483.062, 790.241
484.394, 604.386
485.725, 511.611
487.057, 466.571
488.389, 351.529
489.720, 299.442
491.051, 307.214
492.382, 266.836
493.712, 240.402
495.043, 147.292
496.373, 183.864
497.703, 68.429
499.032, 137.998
500.362, 143.564
501.691, 88.947
503.020, 87.351
504.349, 54.624
505.678, 91.236
507.007, 75.797
508.335, 53.345
509.663, 78.406
510.991, 76.948
512.319, 125.486
513.646, 50.021
514.973, 102.554
516.300, 84.083
517.627, 108.608
518.954, 59.130
520.280, 26.648
521.607, 81.159
522.933, 64.667
524.259, 94.856
525.584, 18.897
526.910, 8.610
528.235, 18.863
529.560, 84.328
530.885, 39.789
532.209, 29.662
533.534, 25.939
534.858, 10.618
536.182, 15.503
537.506, 55.567
538.829, 33.026
540.152, 1.928
541.476, 26.287
542.799, 76.637
544.121, 78.978
545.444, 0.337
546.766, 90.662
548.088, 19.385
549.410, 18.694
550.732, 13.007
552.053, 22.017
553.375, 0.456
554.696, 10.382
556.017, 68.292
557.337, 91.491
558.658, 171.934
559.978, 42.122
561.298, 47.833
562.618, 159.093
563.938, 39.262
565.257, 101.423
566.576, 76.906
567.895, 52.054
569.214, 128.312
570.533, 186.542
571.851, 127.671
573.170, 94.789
574.488, 162.998
575.805, 99.107
577.123, 103.209
578.440, 101.812
579.758, 116.038
581.075, 119.118
582.391, 69.192
583.708, 104.208
585.024, 117.317
586.341, 174.175
587.657, 137.219
588.972, 245.397
590.288, 264.426
591.603, 210.447
592.918, 172.606
594.233, 226.612
595.548, 215.633
596.863, 296.624
598.177, 206.997
599.491, 261.077
600.805, 286.313
602.119, 276.368
603.432, 352.318
604.746, 395.294
606.059, 446.251
607.372, 515.803
608.685, 487.119
609.997, 657.041
611.309, 718.311
612.621, 813.220
613.933, 1006.729
615.245, 1155.703
616.557, 1124.661
617.868, 1145.652
619.179, 1091.520
620.490, 962.457
621.801, 776.311
623.111, 813.989
624.421, 584.881
625.731, 586.707
627.041, 434.548
628.351, 488.467
629.660, 366.331
630.970, 305.261
632.279, 324.062
633.588, 269.091
634.896, 308.890
636.205, 279.806
637.513, 213.961
638.821, 240.815
640.129, 243.577
641.437, 202.543
642.744, 172.336
644.051, 98.322
645.358, 117.411
646.665, 164.388
647.972, 125.214
649.278, 64.103
650.584, 106.887
651.890, 79.381
653.196, 173.148
654.502, 93.019
655.807, 156.889
657.113, 101.741
658.418, 144.466
659.722, 184.216
661.027, 130.922
662.331, 69.619
663.636, 75.402
664.940, 174.130
666.244, 9.794
667.547, 141.453
668.851, 95.199
670.154, 148.818
671.457, 119.677
672.760, 125.275
674.062, 163.862
675.365, 154.961
676.667, 163.793
677.969, 149.295
679.271, 135.840
680.572, 128.160
681.874, 118.626
683.175, 97.910
684.476, 105.651
685.777, 89.631
687.077, 89.118
688.378, 8.514
689.678, 118.694
690.978, 100.787
692.278, 28.292
693.577, 13.928
694.877, 140.457
696.176, 29.604
697.475, 173.703
698.774, 67.667
700.072, 182.035
701.371, 64.366
702.669, 156.320
703.967, 34.633
705.265, 100.364
706.562, 134.062
707.860, 34.182
709.157, 18.241
710.454, 77.524
711.751, 22.699
713.047, 84.914
714.344, 34.121
715.640, 61.316
716.936, 20.632
718.232, 45.442
719.527, 85.589
720.823, 90.525
722.118, 27.655
723.413, 73.774
724.708, 41.848
726.002, 15.052
727.297, 120.021
728.591, 2.085
729.885, 43.132
731.179, 124.170
732.472, 67.200
733.766, 38.779
735.059, 38.203
736.352, 61.176
737.645, 85.141
738.937, 85.097
740.230, 86.045
741.522, 13.014
742.814, 101.902
744.106, 35.811
745.397, 65.709
746.689, 92.600
747.980, 35.517
749.271, 144.331
750.562, 53.171
751.853, 109.003
753.143, 15.827
754.433, 37.640
755.723, 22.444
757.013, 38.238
758.303, 67.023
759.592, 50.036
760.881, 52.570
762.170, 52.333
763.459, 58.087
764.748, 90.834
766.036, 10.426
767.325, 63.294
768.613, 14.994
769.901, 37.697
771.188, 39.379
772.476, 7.946
773.763, 121.712
775.050, 38.362
776.337, 65.005
777.624, 52.359
778.910, 42.236
780.196, 59.825
781.482, 49.406
782.768, 29.980
784.054, 41.454
785.339, 26.921
786.625, 110.586
787.910, 92.913
789.195, 104.528
790.479, 34.962
791.764, 0.388
793.048, 36.805
794.332, 10.786
795.616, 15.607
796.900, 48.993
798.183, 13.372
799.467, 3.743
800.750, 14.105
802.033, 40.458
803.316, 24.805
804.598, 120.052
805.880, 41.614
807.163, 103.690
808.445, 19.988
809.726, 17.278
811.008, 18.562
812.289, 100.838
813.570, 37.109
814.851, 49.374
816.132, 49.632
817.413, 20.826
818.693, 31.062
819.973, 63.302
821.253, 37.020
822.533, 13.249
823.813, 84.472
825.092, 2.311
826.371, 134.898
827.650, 90.104
828.929, 29.305
830.208, 163.501
831.486, 137.693
832.764, 71.881
834.042, 66.067
835.320, 115.268
836.598, 73.463
837.875, 103.657
839.152, 81.875
840.429, 40.089
841.706, 189.304
842.983, 76.117
844.259, 35.345
845.536, 194.586
846.812, 122.133
848.088, 154.726
849.363, 9.968
850.639, 126.641
851.914, 138.897
853.189, 19.154
854.464, 119.406
855.739, 160.652
857.013, 157.922
858.288, 119.786
859.562, 89.052
860.836, 150.317
862.110, 125.237
863.383, 47.997
864.656, 91.285
865.930, 117.108
867.203, 130.400
868.475, 151.442
869.748, 53.731
871.020, 78.489
872.292, 125.691
873.564, 112.976
874.836, 166.259
876.108, 151.406
877.379, 94.495
878.650, 131.658
879.922, 105.840
881.192, 97.117
882.463, 66.396
883.733, 49.576
885.004, 47.241
886.274, 90.119
887.544, 45.882
888.813, 69.013
890.083, 81.281
891.352, 31.548
892.621, 135.815
893.890, 7.081
895.159, 143.540
896.427, 99.804
897.695, 142.927
898.964, 139.190
900.232, 64.454
901.499, 96.571
902.767, 83.833
904.034, 91.072
905.301, 45.335
906.568, 104.208
907.835, 143.366
909.102, 66.361
910.368, 94.529
911.634, 61.794
912.900, 102.027
914.166, 132.271
915.432, 143.515
916.697, 80.784
917.962, 20.053
919.227, 169.974
920.492, 95.246
921.757, 140.915
923.021, 149.108
924.285, 154.310
925.550, 242.474
926.813, 179.751
928.077, 234.958
929.341, 237.238
930.604, 210.688
931.867, 216.915
933.130, 126.199
934.393, 186.460
935.655, 278.641
936.918, 183.870
938.180, 274.035
939.442, 226.331
940.703, 219.395
941.965, 221.698
943.226, 231.927
944.488, 231.841
945.749, 198.086
947.009, 243.424
948.270, 264.666
949.530, 321.973
950.791, 342.096
952.051, 321.127
953.311, 299.270
954.570, 259.566
955.830, 408.945
957.089, 285.285
958.348, 481.039
959.607, 374.384
960.866, 501.617
962.124, 403.845
963.383, 514.083
964.641, 505.566
965.899, 622.891
967.156, 769.255
968.414, 702.622
969.671, 781.896
970.928, 913.219
972.185, 1027.596
973.442, 1207.111
974.699, 1353.385
975.955, 1526.779
977.211, 1708.925
978.468, 1884.508
979.723, 2420.065
980.979, 2967.706
982.234, 3632.212
983.490, 4939.637
984.745, 6050.512
986.000, 8834.396
987.254, 13246.911
988.509, 20487.342
989.763, 32662.484
991.017, 45811.930
992.271, 52281.262
993.525, 46575.121
994.779, 34083.891
996.032, 22475.777
997.285, 14847.478
998.538, 10050.134
999.791, 6634.619
1001.044, 4981.250
1002.296, 3496.011
1003.548, 2837.007
1004.800, 2271.668
1006.052, 1867.986
1007.304, 1605.511
1008.555, 1309.023
1009.807, 1206.667
1011.058, 1069.195
1012.309, 890.746
1013.559, 829.755
1014.810, 752.324
1016.060, 610.052
1017.310, 629.896
1018.560, 539.495
1019.810, 461.396
1021.060, 532.189
1022.309, 340.975
1023.558, 373.628
1024.807, 411.299
1026.056, 371.975
1027.305, 323.657
1028.553, 315.340
1029.801, 371.029
1031.049, 357.740
1032.297, 367.816
1033.545, 187.166
1034.793, 358.880
1036.040, 237.595
1037.287, 203.329
1038.534, 277.076
1039.781, 270.824
1041.027, 271.571
1042.274, 296.439
1043.520, 220.061
1044.766, 294.805
1046.012, 196.557
1047.257, 163.307
1048.503, 270.057
1049.748, 294.804
1050.993, 227.551
1052.238, 281.310
1053.483, 374.070
1054.727, 325.912
1055.971, 311.668
1057.216, 328.778
1058.459, 340.072
1059.703, 373.062
1060.947, 438.043
1062.190, 438.037
1063.433, 533.975
1064.676, 523.877
1065.919, 600.784
1067.162, 556.611
1068.404, 611.957
1069.646, 654.743
1070.888, 572.646
1072.130, 598.390
1073.372, 530.130
1074.613, 537.249
1075.855, 465.986
1077.096, 382.321
1078.337, 364.052
1079.578, 289.368
1080.818, 360.520
1082.059, 217.294
1083.299, 207.027
1084.539, 248.981
1085.779, 323.823
1087.018, 291.376
1088.258, 247.116
1089.497, 125.851
1090.736, 77.604
1091.975, 90.402
1093.213, 24.636
1094.452, 44.380
1095.690, 82.120
1096.928, 4.859
1098.166, 70.595
1099.404, 50.848
1100.642, 32.573
1101.879, 82.294
1103.116, 51.835
1104.353, 3.547
1105.590, 129.620
1106.827, 8.367
1108.063, 46.273
1109.299, 43.092
1110.536, 45.088
1111.771, 62.119
1113.007, 14.081
1114.243, 130.820
1115.478, 185.777
1116.713, 123.657
1117.948, 142.670
1119.183, 101.693
1120.418, 81.644
1121.652, 15.664
1122.886, 61.295
1124.120, 97.911
1125.354, 135.547
1126.588, 9.671
1127.821, 17.441
1129.055, 1.401
1130.288, 33.542
1131.521, 54.499
1132.753, 7.615
1133.986, 79.701
1135.218, 40.403
1136.450, 141.163
1137.682, 81.856
1138.914, 130.014
1140.146, 17.280
1141.377, 76.490
1142.609, 0.026
1143.840, 60.170
1145.071, 12.481
1146.301, 26.004
1147.532, 89.458
1148.762, 19.002
1149.992, 9.963
1151.222, 5.757
1152.452, 30.612
1153.682, 32.001
1154.911, 34.952
1156.140, 114.921
1157.369, 47.439
1158.598, 86.485
1159.827, 110.119
1161.055, 1.000
1162.284, 111.642
1163.512, 51.067
1164.740, 36.553
1165.967, 125.816
1167.195, 27.588
1168.422, 53.988
1169.650, 67.659
1170.877, 233.000
1172.103, 198.169
1173.330, 230.544
1174.557, 177.825
1175.783, 238.178
1177.009, 309.650
1178.235, 140.541
1179.461, 272.656
1180.686, 239.868
1181.912, 227.738
1183.137, 429.025
1184.362, 531.557
1185.587, 583.436
1186.811, 484.508
1188.036, 589.319
1189.260, 664.262
1190.484, 529.317
1191.708, 581.335
1192.932, 555.237
1194.155, 397.127
1195.378, 309.974
1196.602, 274.646
1197.825, 314.560
1199.047, 209.471
1200.270, 268.007
1201.492, 115.598
1202.715, 206.479
1203.937, 52.126
1205.159, 163.150
1206.380, 153.670
1207.602, 143.172
1208.823, 80.810
1210.044, 94.276
1211.265, 102.763
1212.486, 101.499
1213.707, 120.911
1214.927, 21.306
1216.147, 132.023
1217.367, 103.403
1218.587, 165.060
1219.807, 198.415
1221.027, 53.746
1222.246, 153.057
1223.465, 26.350
1224.684, 158.621
1225.903, 183.906
1227.121, 204.472
1228.340, 139.691
1229.558, 245.892
1230.776, 96.073
1231.994, 122.234
1233.212, 15.575
1234.429, 154.688
1235.646, 204.887
1236.864, 11.960
1238.081, 142.011
1239.297, 47.135
1240.514, 240.133
1241.730, 196.137
1242.947, 177.126
1244.163, 159.261
1245.378, 45.213
1246.594, 213.146
1247.810, 211.056
1249.025, 1.043
1250.240, 157.835
1251.455, 70.548
1252.670, 147.387
1253.885, 111.079
1255.099, 130.932
1256.313, 87.719
1257.527, 78.485
1258.741, 94.227
1259.955, 145.822
1261.168, 92.513
1262.382, 110.184
1263.595, 76.835
1264.808, 73.467
1266.021, 98.080
1267.233, 65.667
1268.446, 163.148
1269.658, 188.688
1270.870, 159.061
1272.082, 55.645
1273.294, 123.893
1274.505, 50.113
1275.716, 78.184
1276.928, 73.367
1278.139, 12.580
1279.349, 78.318
1280.560, 43.002
1281.770, 98.037
1282.981, 9.866
1284.191, 59.478
1285.401, 90.493
1286.610, 65.614
1287.820, 128.170
1289.029, 46.814
1290.239, 68.315
1291.448, 95.978
1292.656, 109.670
1293.865, 85.522
1295.073, 2.862
1296.282, 142.680
1297.490, 6.966
1298.698, 110.540
1299.906, 14.463
1301.113, 22.159
1302.320, 59.849
1303.528, 23.610
1304.735, 64.977
1305.942, 18.614
1307.148, 38.728
1308.355, 66.271
1309.561, 79.364
1310.767, 97.864
1311.973, 4.683
1313.179, 59.447
1314.384, 51.338
1315.590, 30.377
1316.795, 43.801
1318.000, 0.485
1319.205, 1.743
1320.410, 54.974
1321.614, 1.819
1322.819, 24.641
1324.023, 94.503
1325.227, 67.624
1326.431, 145.721
1327.634, 51.799
1328.838, 52.146
1330.041, 131.870
1331.244, 81.869
1332.447, 139.850
1333.650, 104.814
1334.852, 73.762
1336.055, 78.692
1337.257, 102.605
1338.459, 101.503
1339.661, 107.496
1340.862, 145.252
1342.064, 83.104
1343.265, 79.939
1344.466, 11.761
1345.667, 149.564
1346.868, 74.272
1348.068, 126.050
1349.269, 46.462
1350.469, 181.212
1351.669, 223.951
1352.869, 110.682
1354.069, 178.160
1355.268, 137.684
1356.468, 73.346
1357.667, 167.880
1358.866, 212.558
1360.065, 63.639
1361.263, 257.115
1362.462, 81.132
1363.660, 148.814
1364.858, 188.501
1366.056, 155.808
1367.254, 152.503
1368.451, 248.606
1369.649, 143.315
1370.846, 72.033
1372.043, 221.337
1373.240, 186.559
1374.436, 265.755
1375.633, 187.631
1376.829, 100.515
1378.025, 151.631
1379.221, 121.522
1380.417, 170.429
1381.613, 197.991
1382.808, 125.076
1384.003, 223.625
1385.199, 285.606
1386.393, 208.099
1387.588, 78.643
1388.783, 159.624
1389.977, 157.671
1391.171, 188.335
1392.365, 253.288
1393.559, 232.438
1394.753, 324.480
1395.946, 208.937
1397.140, 182.137
1398.333, 135.690
1399.526, 257.976
1400.719, 194.209
1401.911, 206.298
1403.104, 155.345
1404.296, 150.893
1405.488, 149.418
1406.680, 255.438
1407.872, 174.805
1409.063, 193.302
1410.255, 253.141
1411.446, 127.471
1412.637, 232.438
1413.828, 183.129
1415.018, 232.750
1416.209, 317.372
1417.399, 323.207
1418.589, 258.997
1419.779, 266.557
1420.969, 229.213
1422.159, 153.114
1423.348, 231.946
1424.537, 232.360
1425.726, 142.895
1426.915, 294.984
1428.104, 285.583
1429.293, 258.877
1430.481, 245.150
1431.669, 130.567
1432.857, 216.079
1434.045, 230.067
1435.233, 183.459
1436.420, 378.368
1437.608, 320.196
1438.795, 200.740
1439.982, 291.927
1441.169, 392.670
1442.355, 264.739
1443.542, 223.788
1444.728, 231.336
1445.914, 291.856
1447.100, 354.668
1448.286, 166.112
1449.472, 277.530
1450.657, 217.544
1451.842, 261.719
1453.027, 296.881
1454.212, 219.155
1455.397, 406.777
1456.581, 249.932
1457.766, 322.025
1458.950, 373.056
1460.134, 273.023
1461.318, 376.817
1462.501, 236.674
1463.685, 147.517
1464.868, 362.330
1466.051, 317.074
1467.234, 438.632
1468.417, 277.362
1469.600, 251.246
1470.782, 355.301
1471.965, 337.681
1473.147, 317.814
1474.329, 440.906
1475.510, 253.729
1476.692, 150.575
1477.873, 135.442
1479.055, 231.372
1480.236, 242.337
1481.416, 278.326
1482.597, 198.346
1483.778, 250.415
1484.958, 277.528
1486.138, 222.693
1487.318, 234.925
1488.498, 311.227
1489.678, 176.626
1490.857, 233.120
1492.037, 152.735
1493.216, 321.492
1494.395, 280.411
1495.574, 180.528
1496.752, 168.846
1497.931, 62.347
1499.109, 265.023
1500.287, 76.885
1501.465, 276.951
1502.643, 68.749
1503.820, 34.816
1504.998, 155.686
1506.175, 247.901
1507.352, 164.516
1508.529, 243.578
1509.706, 169.142
1510.882, 319.854
1512.059, 239.520
1513.235, 191.887
1514.411, 178.499
1515.587, 83.503
1516.762, 194.501
1517.938, 58.856
1519.113, 96.315
1520.288, 53.402
1521.463, 0.000
##END=



