##NAMES=Blodite
##RRUFFID=R050317
##IDEAL CHEMISTRY=Na_2_Mg(SO_4_)_2_&#183;4H_2_O
##LOCALITY=Stassfurt, Germany
##OWNER=RRUFF
##SOURCE=American Museum of Natural History
##DESCRIPTION=Colorless fragment
##STATUS=The identification of this mineral has been confirmed by X-ray diffraction and chemical analysis
##URL=rruff.info/R050317
##MEASURED CHEMISTRY=Na_2.00_Mg_1.00_(S_1.00_O_4_)_2_Â·4H_2_O
114.7008, 0.0000000E+00
115.1829, 1.776825
115.6650, 3.247223
116.1471, 3.517761
116.6293, 0.5466000
117.1114, 0.6001590
117.5935, 0.9125670
118.0756, 2.577362
118.5577, 3.385437
119.0398, 3.847656
119.5220, 5.303314
120.0041, 8.608459
120.4862, 13.14630
120.9683, 17.32492
121.4504, 21.09946
121.9325, 24.56671
122.4147, 27.67599
122.8968, 30.38342
123.3789, 32.98447
123.8610, 36.00690
124.3431, 38.84378
124.8252, 40.79648
125.3074, 41.55756
125.7895, 41.75305
126.2716, 42.25836
126.7537, 43.35843
127.2358, 43.91945
127.7179, 43.55154
128.2001, 42.65216
128.6822, 41.39438
129.1643, 39.79898
129.6464, 37.94310
130.1285, 36.64677
130.6107, 37.33228
131.0928, 37.30151
131.5749, 35.17204
132.0570, 31.70471
132.5391, 28.74020
133.0212, 28.11604
133.5034, 30.47340
133.9855, 30.59674
134.4676, 27.44716
134.9497, 23.42319
135.4318, 19.54370
135.9139, 16.06689
136.3960, 13.14456
136.8782, 10.83768
137.3603, 9.068298
137.8424, 8.020477
138.3245, 7.952469
138.8066, 9.441635
139.2887, 12.01907
139.7709, 15.35199
140.2530, 18.74043
140.7351, 21.04836
141.2172, 21.39323
141.6993, 22.36252
142.1814, 24.94444
142.6636, 27.66289
143.1457, 29.92902
143.6278, 30.88367
144.1099, 31.88654
144.5920, 34.30212
145.0741, 38.15898
145.5563, 42.29536
146.0384, 45.46620
146.5205, 47.44069
147.0026, 50.20410
147.4847, 55.22139
147.9668, 60.38564
148.4490, 64.67516
148.9311, 67.84663
149.4132, 70.26611
149.8953, 72.53661
150.3774, 75.21149
150.8595, 76.44388
151.3417, 75.95270
151.8238, 74.37250
152.3059, 72.12808
152.7880, 69.41006
153.2701, 66.17668
153.7522, 62.36047
154.2344, 57.35056
154.7165, 52.40997
155.1986, 47.55850
155.6807, 42.79323
156.1628, 38.11003
156.6449, 33.52843
157.1271, 29.01967
157.6092, 24.48009
158.0913, 19.05972
158.5734, 14.48262
159.0555, 11.58653
159.5376, 9.976105
160.0198, 8.678085
160.5019, 7.284882
160.9840, 5.724808
161.4661, 3.848511
161.9482, 1.164047
162.4303, 1.324478
162.9125, 2.913483
163.3946, 3.627045
163.8767, 3.933990
164.3588, 3.823547
164.8409, 3.544220
165.3230, 3.567947
165.8052, 4.295883
166.2873, 5.062088
166.7694, 4.741852
167.2515, 2.901840
167.7336, 1.478729
168.2157, 2.157501
168.6979, 3.582336
169.1800, 4.083511
169.6621, 2.654510
170.1442, 6.3950002E-02
170.6263, 1.456543
171.1084, 1.150665
171.5906, 0.9270630
172.0727, 1.346100
172.5548, 2.660767
173.0369, 4.197174
173.5190, 5.855072
174.0011, 7.605560
174.4833, 9.207535
174.9654, 10.78897
175.4475, 12.09129
175.9296, 12.75089
176.4117, 13.03421
176.8938, 13.42209
177.3760, 14.28923
177.8581, 15.65083
178.3402, 16.90324
178.8223, 17.69888
179.3044, 18.72668
179.7865, 20.43245
180.2687, 22.63490
180.7508, 24.77863
181.2329, 26.37917
181.7150, 27.38243
182.1971, 28.39975
182.6792, 29.26562
183.1614, 30.27211
183.6435, 31.52437
184.1256, 33.04890
184.6077, 34.96259
185.0898, 37.58086
185.5719, 40.92670
186.0541, 43.36752
186.5362, 44.11565
187.0183, 44.37431
187.5004, 45.15858
187.9825, 46.57649
188.4646, 48.42686
188.9468, 50.88084
189.4289, 53.72748
189.9110, 56.09296
190.3931, 57.27396
190.8752, 58.00783
191.3573, 59.56328
191.8395, 62.29604
192.3216, 65.10434
192.8037, 67.05043
193.2858, 68.41425
193.7679, 69.78874
194.2500, 71.55652
194.7322, 73.55052
195.2143, 75.39461
195.6964, 77.63686
196.1785, 78.71043
196.6606, 77.09373
197.1427, 73.82651
197.6249, 71.24133
198.1070, 71.44794
198.5891, 74.02699
199.0712, 74.69273
199.5533, 71.67395
200.0354, 68.56268
200.5176, 66.78201
200.9997, 66.02008
201.4818, 65.41980
201.9639, 64.28972
202.4460, 62.61353
202.9281, 61.26622
203.4103, 60.17108
203.8924, 59.52850
204.3745, 59.53008
204.8566, 60.07278
205.3387, 60.95390
205.8208, 62.06638
206.3030, 63.49281
206.7851, 64.38358
207.2672, 63.72157
207.7493, 63.52159
208.2314, 64.89534
208.7135, 67.56047
209.1957, 70.37350
209.6778, 72.23752
210.1599, 72.91852
210.6420, 74.52092
211.1241, 77.94646
211.6062, 81.31277
212.0884, 83.80653
212.5705, 85.34131
213.0526, 86.06903
213.5347, 85.94281
214.0168, 84.81097
214.4989, 84.59375
214.9811, 85.93129
215.4632, 87.56831
215.9453, 88.79504
216.4274, 89.54204
216.9095, 89.98532
217.3916, 90.36420
217.8737, 90.61298
218.3559, 90.11868
218.8380, 88.17987
219.3201, 85.92191
219.8022, 84.42525
220.2843, 83.70226
220.7664, 82.80518
221.2486, 80.74905
221.7307, 77.87053
222.2128, 75.62650
222.6949, 74.45488
223.1770, 73.89191
223.6591, 73.64238
224.1413, 73.79367
224.6234, 73.56334
225.1055, 72.09392
225.5876, 69.90216
226.0697, 67.75180
226.5518, 65.58936
227.0340, 63.71770
227.5161, 62.86719
227.9982, 63.44569
228.4803, 63.85359
228.9624, 62.86946
229.4445, 61.18985
229.9267, 59.72134
230.4088, 59.00679
230.8909, 58.53305
231.3730, 57.16090
231.8551, 54.39285
232.3372, 52.00459
232.8194, 50.79260
233.3015, 50.28619
233.7836, 50.03209
234.2657, 49.91389
234.7478, 49.84247
235.2299, 49.55597
235.7121, 48.83353
236.1942, 48.34946
236.6763, 48.37595
237.1584, 48.66277
237.6405, 48.94769
238.1227, 49.10846
238.6048, 49.24167
239.0869, 49.57436
239.5690, 50.07440
240.0511, 50.85300
240.5332, 52.18878
241.0154, 53.64996
241.4975, 54.72867
241.9796, 55.20253
242.4617, 55.38179
242.9438, 56.01907
243.4259, 57.37788
243.9081, 58.81778
244.3902, 60.72917
244.8723, 62.47128
245.3544, 63.13841
245.8365, 62.41721
246.3186, 61.18689
246.8008, 61.48230
247.2829, 64.34602
247.7650, 67.41437
248.2471, 71.49484
248.7292, 75.23787
249.2113, 77.05852
249.6935, 76.50255
250.1756, 74.89066
250.6577, 74.81068
251.1398, 77.41386
251.6219, 80.05745
252.1040, 83.22240
252.5862, 86.24374
253.0683, 88.34128
253.5504, 89.28062
254.0325, 89.51118
254.5146, 89.75871
254.9967, 89.99638
255.4789, 90.31433
255.9610, 91.13872
256.4431, 91.78770
256.9252, 91.52435
257.4073, 90.23076
257.8894, 88.63243
258.3716, 87.78593
258.8537, 88.33733
259.3358, 87.68724
259.8179, 85.12939
260.3000, 81.67427
260.7821, 77.90681
261.2643, 74.00565
261.7464, 70.62590
262.2285, 68.77435
262.7106, 68.98137
263.1927, 67.84822
263.6748, 64.23746
264.1570, 59.85031
264.6391, 55.91681
265.1212, 52.61885
265.6033, 49.91978
266.0854, 48.06635
266.5675, 47.09604
267.0497, 45.26784
267.5318, 41.60063
268.0139, 37.69266
268.4960, 34.92551
268.9781, 33.34496
269.4602, 31.92206
269.9424, 29.87683
270.4245, 27.28940
270.9066, 24.92551
271.3887, 22.62596
271.8708, 20.68535
272.3529, 19.53992
272.8351, 19.12210
273.3172, 18.67117
273.7993, 17.76599
274.2814, 16.44356
274.7635, 14.94751
275.2456, 12.93002
275.7278, 11.13711
276.2099, 10.26605
276.6920, 10.21507
277.1741, 10.11028
277.6562, 9.458984
278.1383, 8.563400
278.6205, 8.097260
279.1026, 8.278915
279.5847, 8.406250
280.0668, 7.688904
280.5489, 6.345871
281.0310, 5.846725
281.5132, 7.320938
281.9953, 9.240921
282.4774, 9.284286
282.9595, 7.126404
283.4416, 5.047455
283.9237, 4.623199
284.4059, 5.481201
284.8880, 5.999222
285.3701, 5.559158
285.8522, 4.985733
286.3343, 5.239952
286.8164, 6.276421
287.2986, 7.242134
287.7807, 7.744019
288.2628, 7.826622
288.7449, 7.487671
289.2270, 6.331306
289.7091, 5.493164
290.1913, 6.340363
290.6734, 8.384651
291.1555, 9.857208
291.6376, 9.509537
292.1197, 8.044312
292.6018, 7.036514
293.0840, 6.511368
293.5661, 6.587677
294.0482, 8.000610
294.5303, 9.999100
295.0124, 11.14478
295.4945, 10.38985
295.9767, 8.709648
296.4588, 7.846626
296.9409, 7.953766
297.4230, 8.359734
297.9051, 9.243530
298.3872, 10.06788
298.8694, 10.03428
299.3515, 8.605125
299.8336, 6.772911
300.3157, 5.992363
300.7978, 6.480896
301.2799, 6.669640
301.7621, 5.389381
302.2442, 3.828568
302.7263, 3.207764
303.2084, 3.889763
303.6905, 4.641388
304.1726, 3.918976
304.6548, 1.636597
305.1369, 7.4310000E-03
305.6190, 0.2491150
306.1011, 0.1958080
306.5832, 1.017860
307.0653, 2.155952
307.5475, 3.016144
308.0296, 3.078178
308.5117, 2.387970
308.9938, 1.422569
309.4759, 0.1154170
309.9580, 1.482338
310.4402, 2.167107
310.9223, 2.269478
311.4044, 2.188828
311.8865, 2.147179
312.3686, 2.121353
312.8507, 1.965401
313.3329, 1.504181
313.8150, 1.227310
314.2971, 1.481071
314.7792, 2.071083
315.2613, 2.686058
315.7434, 3.380989
316.2256, 3.889214
316.7077, 3.456261
317.1898, 1.656784
317.6719, 9.0476997E-02
318.1540, 0.6307300
318.6361, 0.7225880
319.1183, 0.2357940
319.6004, 0.9964750
320.0825, 2.284325
320.5646, 2.677673
321.0467, 2.114182
321.5288, 1.421700
322.0110, 0.5053480
322.4931, 0.2850880
322.9752, 0.5659790
323.4573, 0.2448270
323.9394, 0.2127690
324.4215, 0.3773880
324.9037, 0.2530900
325.3858, 4.8004001E-02
325.8679, 0.2718200
326.3500, 0.5898670
326.8321, 0.7398990
327.3142, 0.7534330
327.7964, 0.9098510
328.2785, 1.521255
328.7606, 2.470901
329.2427, 3.209244
329.7248, 3.722420
330.2069, 3.987488
330.6891, 3.819092
331.1712, 3.397652
331.6533, 3.145874
332.1354, 3.160950
332.6175, 3.504494
333.0996, 4.381218
333.5818, 5.931412
334.0639, 7.571648
334.5460, 9.629730
335.0281, 11.40147
335.5102, 11.76567
335.9923, 9.964111
336.4745, 7.774551
336.9566, 7.412621
337.4387, 8.987671
337.9208, 10.54016
338.4029, 11.39897
338.8850, 11.98294
339.3671, 12.67068
339.8492, 13.49596
340.3314, 14.41325
340.8135, 15.48677
341.2956, 16.67049
341.7777, 17.53673
342.2598, 17.66301
342.7419, 17.98574
343.2241, 19.48819
343.7062, 21.94942
344.1883, 24.25256
344.6704, 25.75172
345.1525, 26.74619
345.6346, 27.89143
346.1168, 29.26469
346.5989, 30.63171
347.0810, 31.74297
347.5631, 32.72810
348.0452, 33.84158
348.5273, 35.25522
349.0095, 36.73051
349.4916, 38.04520
349.9737, 39.19012
350.4558, 40.14987
350.9379, 41.08393
351.4200, 41.68254
351.9022, 41.47830
352.3843, 40.24982
352.8664, 38.76420
353.3485, 37.46883
353.8306, 36.32715
354.3127, 35.23235
354.7949, 34.22816
355.2770, 33.13986
355.7591, 31.58286
356.2412, 29.55955
356.7233, 27.87315
357.2054, 27.37410
357.6876, 27.20499
358.1697, 25.80714
358.6518, 22.83928
359.1339, 19.70484
359.6160, 17.67488
360.0981, 16.56076
360.5803, 15.38840
361.0624, 13.73456
361.5445, 12.22935
362.0266, 11.59269
362.5087, 11.70555
362.9908, 11.62517
363.4730, 10.72444
363.9551, 9.350960
364.4372, 8.520058
364.9193, 8.571259
365.4014, 8.556786
365.8835, 8.103714
366.3657, 7.304985
366.8478, 6.144768
367.3299, 4.469154
367.8120, 2.938705
368.2941, 3.033066
368.7762, 5.320137
369.2584, 6.800858
369.7405, 6.629456
370.2226, 5.716255
370.7047, 4.889885
371.1868, 4.284096
371.6689, 3.628136
372.1511, 2.544441
372.6332, 0.9938510
373.1153, 0.2202610
373.5974, 0.8909300
374.0795, 1.593765
374.5616, 1.831902
375.0438, 1.700783
375.5259, 1.253059
376.0080, 0.4012830
376.4901, 0.7199940
376.9722, 1.563560
377.4543, 2.413567
377.9365, 2.799782
378.4186, 2.123932
378.9007, 1.064232
379.3828, 0.5100250
379.8649, 0.6688540
380.3470, 0.9816130
380.8292, 0.6209720
381.3113, 0.8944850
381.7934, 1.485748
382.2755, 0.4916080
382.7576, 0.6779940
383.2397, 1.387833
383.7219, 1.561996
384.2040, 1.253342
384.6861, 0.4384460
385.1682, 0.8237610
385.6503, 1.604630
386.1324, 1.697235
386.6146, 1.496368
387.0967, 0.5391690
387.5788, 0.5043030
388.0609, 0.6846310
388.5430, 0.3957980
389.0251, 2.102066
389.5073, 3.143494
389.9894, 3.161102
390.4715, 3.247925
390.9536, 3.903748
391.4357, 4.309998
391.9178, 3.500610
392.4000, 1.680328
392.8821, 0.2386630
393.3642, 0.7840420
393.8463, 3.404648
394.3284, 5.030746
394.8105, 4.684921
395.2927, 4.443192
395.7748, 5.084320
396.2569, 6.288162
396.7390, 7.536209
397.2211, 8.623856
397.7032, 9.491257
398.1854, 9.959671
398.6675, 9.932129
399.1496, 9.803711
399.6317, 9.623795
400.1138, 9.422318
400.5959, 9.113373
401.0781, 8.694901
401.5602, 8.537277
402.0423, 9.152863
402.5244, 10.45581
403.0065, 11.45381
403.4886, 11.72916
403.9708, 12.13420
404.4529, 13.65105
404.9350, 15.80721
405.4171, 17.25278
405.8992, 17.14983
406.3813, 16.12912
406.8635, 14.88446
407.3456, 13.31311
407.8277, 12.46040
408.3098, 12.92975
408.7919, 14.46486
409.2740, 16.74173
409.7562, 20.26729
410.2383, 23.16235
410.7204, 23.86240
411.2025, 23.01508
411.6846, 22.47729
412.1667, 22.68684
412.6489, 23.39816
413.1310, 24.50446
413.6131, 26.00044
414.0952, 27.23639
414.5773, 27.78506
415.0594, 28.24051
415.5416, 29.32613
416.0237, 30.97485
416.5058, 32.25955
416.9879, 32.35680
417.4700, 31.65587
417.9521, 32.29391
418.4343, 35.74083
418.9164, 38.53044
419.3985, 38.82237
419.8806, 38.15309
420.3627, 39.13701
420.8448, 42.59219
421.3270, 46.60051
421.8091, 48.17857
422.2912, 45.93355
422.7733, 45.20395
423.2554, 46.84061
423.7375, 49.11395
424.2197, 51.32262
424.7018, 53.28076
425.1839, 54.72975
425.6660, 55.34543
426.1481, 55.41661
426.6302, 57.02274
427.1124, 62.10376
427.5945, 66.37750
428.0766, 68.96466
428.5587, 70.69098
429.0408, 72.14050
429.5229, 73.57617
430.0051, 75.49342
430.4872, 78.92204
430.9693, 84.48665
431.4514, 88.87682
431.9335, 90.52643
432.4156, 92.30275
432.8978, 95.51996
433.3799, 99.82257
433.8620, 104.1374
434.3441, 107.6686
434.8262, 110.7749
435.3083, 114.4723
435.7905, 118.8116
436.2726, 123.7093
436.7547, 129.3891
437.2368, 135.4891
437.7189, 141.8463
438.2010, 148.4654
438.6832, 154.8634
439.1653, 160.1526
439.6474, 164.6558
440.1295, 170.4993
440.6116, 178.5840
441.0938, 186.8599
441.5759, 192.8304
442.0580, 197.4120
442.5401, 203.5872
443.0222, 213.2819
443.5043, 224.1082
443.9865, 233.5053
444.4686, 241.6477
444.9507, 250.6078
445.4328, 261.5176
445.9149, 273.6724
446.3970, 285.4011
446.8792, 296.4629
447.3613, 307.7407
447.8434, 319.1471
448.3255, 331.0794
448.8076, 344.1203
449.2897, 358.3705
449.7719, 373.3652
450.2540, 388.8628
450.7361, 405.0120
451.2182, 420.1973
451.7003, 434.8151
452.1824, 448.1978
452.6646, 459.4865
453.1467, 469.4814
453.6288, 479.9978
454.1109, 491.8929
454.5930, 503.2667
455.0751, 510.3835
455.5573, 512.1938
456.0394, 511.4457
456.5215, 507.9808
457.0036, 502.4808
457.4857, 494.8487
457.9678, 485.5161
458.4500, 475.3339
458.9321, 464.8602
459.4142, 454.0747
459.8963, 442.8698
460.3784, 431.3730
460.8605, 419.2567
461.3427, 405.3135
461.8248, 391.3631
462.3069, 379.0602
462.7890, 368.7463
463.2711, 359.3842
463.7532, 350.1930
464.2354, 341.1459
464.7175, 332.1739
465.1996, 322.9648
465.6817, 314.4209
466.1638, 307.1537
466.6459, 300.9210
467.1281, 295.2588
467.6102, 290.3041
468.0923, 285.6668
468.5744, 280.9813
469.0565, 276.2395
469.5386, 271.7560
470.0208, 267.9867
470.5029, 264.0151
470.9850, 258.0677
471.4671, 249.9133
471.9492, 241.7024
472.4313, 234.0449
472.9135, 226.5697
473.3956, 218.8240
473.8777, 210.7419
474.3598, 202.3094
474.8419, 193.4894
475.3240, 184.3342
475.8062, 175.4142
476.2883, 167.1142
476.7704, 158.5081
477.2525, 149.2949
477.7346, 139.7403
478.2167, 129.9235
478.6989, 119.9324
479.1810, 110.5125
479.6631, 102.5086
480.1452, 96.12340
480.6273, 90.39763
481.1094, 86.13599
481.5916, 81.73663
482.0737, 76.46880
482.5558, 70.73952
483.0379, 65.24908
483.5200, 60.29476
484.0021, 55.79899
484.4843, 51.64382
484.9664, 47.85287
485.4485, 44.20023
485.9306, 40.32568
486.4127, 36.88495
486.8948, 34.54877
487.3770, 33.14490
487.8591, 31.70810
488.3412, 29.38907
488.8233, 26.76743
489.3054, 25.17332
489.7875, 24.74878
490.2697, 24.11476
490.7518, 22.50099
491.2339, 20.26795
491.7160, 18.00533
492.1981, 15.34486
492.6802, 13.76247
493.1624, 15.29137
493.6445, 17.78114
494.1266, 17.52657
494.6087, 13.96735
495.0908, 10.13397
495.5729, 8.766388
496.0551, 9.843010
496.5372, 10.20308
497.0193, 9.534431
497.5014, 8.635239
497.9835, 7.572319
498.4656, 6.485237
498.9478, 5.560295
499.4299, 4.853828
499.9120, 4.249847
500.3941, 3.561775
500.8762, 2.692932
501.3583, 2.107727
501.8405, 1.849464
502.3226, 1.834122
502.8047, 2.390106
503.2868, 3.115578
503.7689, 3.247261
504.2510, 2.343651
504.7331, 0.9666670
505.2152, 0.1212460
505.6974, 0.1394880
506.1795, 0.1928560
506.6616, 0.2083050
507.1437, 0.4817730
507.6258, 0.1100920
508.1079, 0.8109360
508.5901, 1.704361
509.0722, 2.499847
509.5543, 3.003937
510.0364, 2.755180
510.5185, 1.767258
511.0006, 0.8870470
511.4828, 0.4805830
511.9649, 0.4535680
512.4470, 0.6755980
512.9291, 1.284355
513.4113, 1.646988
513.8934, 1.368164
514.3755, 0.9041440
514.8576, 0.7895890
515.3397, 1.026215
515.8218, 1.214371
516.3040, 1.065956
516.7861, 0.6054690
517.2682, 1.4671000E-02
517.7503, 1.523727
518.2324, 2.143005
518.7145, 0.7433930
519.1967, 1.090729
519.6788, 1.812164
520.1609, 1.211792
520.6430, 0.1838000
521.1251, 0.4544370
521.6072, 0.7087330
522.0894, 0.6486360
522.5715, 4.3136999E-02
523.0536, 0.5413740
523.5357, 0.3676150
524.0178, 3.6635999E-02
524.4999, 0.1761930
524.9821, 7.8194000E-02
525.4642, 0.5571210
525.9463, 1.305611
526.4284, 2.193245
526.9105, 2.649773
527.3926, 2.579926
527.8748, 2.096848
528.3569, 0.8582000
528.8390, 0.7598800
529.3211, 1.447380
529.8032, 0.3596950
530.2853, 0.8715290
530.7675, 1.549088
531.2496, 1.710716
531.7317, 1.328262
532.2138, 0.3863370
532.6959, 0.8092350
533.1780, 1.974968
533.6602, 3.245567
534.1423, 3.588425
534.6244, 2.132751
535.1065, 0.8526540
535.5886, 0.6076280
536.0707, 0.9880830
536.5529, 1.334404
537.0350, 1.379822
537.5171, 1.283325
537.9992, 1.290810
538.4813, 1.422203
538.9634, 1.541786
539.4456, 1.370667
539.9277, 1.509758
540.4098, 2.600266
540.8919, 4.141380
541.3740, 5.108109
541.8561, 4.975266
542.3383, 4.379539
542.8204, 3.963837
543.3025, 3.734879
543.7846, 3.857552
544.2667, 4.600456
544.7488, 5.254211
545.2310, 4.707710
545.7131, 3.135765
546.1952, 2.279778
546.6773, 2.873749
547.1594, 3.821487
547.6415, 4.482391
548.1237, 4.923767
548.6058, 5.461838
549.0879, 6.234589
549.5700, 6.909325
550.0521, 6.829254
550.5342, 5.386681
551.0164, 5.090401
551.4985, 7.114822
551.9806, 8.906960
552.4627, 9.020393
552.9448, 8.138748
553.4269, 7.681404
553.9091, 8.334587
554.3912, 9.566795
554.8733, 10.45103
555.3554, 10.92223
555.8375, 11.53337
556.3196, 12.59497
556.8018, 13.52264
557.2839, 13.88937
557.7660, 13.84259
558.2481, 13.80728
558.7302, 14.06595
559.2123, 14.24002
559.6945, 13.70557
560.1766, 12.67923
560.6587, 12.15279
561.1408, 12.45685
561.6229, 13.27563
562.1050, 14.35975
562.5872, 15.79312
563.0693, 16.69310
563.5514, 16.42226
564.0335, 16.27675
564.5156, 17.10056
564.9977, 18.49223
565.4799, 19.67781
565.9620, 20.32001
566.4441, 20.67914
566.9262, 21.24686
567.4083, 22.25931
567.8904, 22.65224
568.3726, 21.45782
568.8547, 20.72787
569.3368, 21.37785
569.8189, 22.84879
570.3010, 24.28417
570.7831, 25.40972
571.2653, 26.16415
571.7474, 26.29547
572.2295, 25.92506
572.7116, 25.97361
573.1937, 26.66331
573.6758, 27.53825
574.1580, 28.23946
574.6401, 28.84959
575.1222, 29.63658
575.6043, 30.68420
576.0864, 31.81394
576.5685, 33.23518
577.0507, 34.51009
577.5328, 34.88187
578.0149, 34.29050
578.4970, 33.72888
578.9791, 34.27934
579.4612, 35.97953
579.9434, 37.15328
580.4255, 37.26020
580.9076, 37.40511
581.3897, 37.69879
581.8718, 38.25693
582.3539, 39.28983
582.8361, 40.77202
583.3182, 42.20865
583.8003, 42.92989
584.2824, 43.07628
584.7645, 43.89618
585.2466, 45.73024
585.7288, 47.43383
586.2108, 48.23871
586.6929, 48.72232
587.1750, 49.67039
587.6572, 51.24887
588.1393, 52.71849
588.6214, 53.88358
589.1035, 54.77348
589.5856, 55.30729
590.0677, 55.55704
590.5499, 55.79228
591.0320, 56.09789
591.5141, 56.58482
591.9962, 57.66811
592.4783, 59.94949
592.9604, 61.99477
593.4426, 63.40282
593.9247, 64.89010
594.4068, 66.99136
594.8889, 69.63652
595.3710, 72.54534
595.8531, 75.67187
596.3353, 78.63248
596.8174, 80.16878
597.2995, 79.81643
597.7816, 80.73509
598.2637, 84.22099
598.7458, 88.59647
599.2280, 92.38099
599.7101, 95.71110
600.1922, 99.38184
600.6743, 104.0353
601.1564, 108.7801
601.6385, 112.9318
602.1207, 116.5741
602.6028, 119.9247
603.0849, 123.0197
603.5670, 126.0657
604.0491, 129.2551
604.5313, 132.4946
605.0134, 136.4909
605.4955, 141.5652
605.9776, 146.9291
606.4597, 152.3729
606.9418, 157.9598
607.4240, 163.7644
607.9061, 169.7884
608.3882, 175.8929
608.8703, 181.8110
609.3524, 187.5686
609.8345, 193.5400
610.3167, 199.3828
610.7988, 206.2837
611.2809, 215.7255
611.7630, 226.1810
612.2451, 235.6782
612.7272, 243.9756
613.2094, 251.6226
613.6915, 258.9225
614.1736, 265.6909
614.6557, 271.8097
615.1378, 277.2213
615.6199, 281.6158
616.1021, 284.8806
616.5842, 286.7779
617.0663, 286.6013
617.5484, 283.9895
618.0305, 279.6988
618.5126, 273.6561
618.9948, 266.1769
619.4769, 257.2480
619.9590, 247.0482
620.4411, 235.8936
620.9232, 223.7783
621.4053, 211.1711
621.8875, 198.6550
622.3696, 186.2567
622.8517, 174.1549
623.3338, 162.4491
623.8159, 150.9728
624.2980, 139.4860
624.7802, 128.1561
625.2623, 117.6118
625.7444, 108.0845
626.2265, 99.16964
626.7086, 90.20214
627.1907, 81.89702
627.6729, 75.38882
628.1550, 70.80737
628.6371, 67.49041
629.1192, 65.06645
629.6013, 63.28625
630.0834, 60.06903
630.5656, 53.77452
631.0477, 48.76981
631.5298, 46.49048
632.0119, 44.95567
632.4940, 42.66362
632.9761, 39.65252
633.4583, 36.90068
633.9404, 35.21712
634.4225, 33.89507
634.9046, 31.62999
635.3867, 28.52213
635.8688, 25.99503
636.3510, 24.65782
636.8331, 23.62407
637.3152, 21.60954
637.7973, 18.43906
638.2794, 16.60811
638.7615, 17.44616
639.2437, 18.00941
639.7258, 16.90288
640.2079, 14.93690
640.6900, 13.26627
641.1721, 12.19596
641.6542, 11.33303
642.1364, 10.15804
642.6185, 8.743980
643.1006, 8.253654
643.5827, 9.421867
644.0648, 9.881752
644.5469, 7.750549
645.0291, 5.190529
645.5112, 4.369408
645.9933, 5.421471
646.4754, 6.338516
646.9575, 5.810455
647.4396, 4.762672
647.9218, 4.259399
648.4039, 4.283401
648.8860, 4.429306
649.3681, 4.533112
649.8502, 4.714325
650.3323, 5.263504
650.8145, 6.511879
651.2966, 6.626862
651.7787, 4.253868
652.2608, 2.318901
652.7429, 1.841560
653.2250, 2.240211
653.7072, 2.923470
654.1893, 3.693001
654.6714, 4.257362
655.1535, 3.948624
655.6356, 3.165314
656.1177, 3.340691
656.5999, 4.638359
657.0820, 5.851974
657.5641, 6.514069
658.0462, 6.691429
658.5283, 6.367668
659.0104, 5.421707
659.4926, 4.706657
659.9747, 4.260590
660.4568, 4.156799
660.9389, 4.693611
661.4210, 5.604546
661.9031, 6.308380
662.3853, 6.537018
662.8674, 6.488029
663.3495, 6.450928
663.8316, 6.441002
664.3137, 6.146744
664.7958, 5.296028
665.2780, 4.657822
665.7601, 4.707275
666.2422, 5.084908
666.7243, 5.379852
667.2064, 5.524261
667.6885, 5.801804
668.1707, 6.509651
668.6528, 7.314217
669.1349, 8.073723
669.6170, 8.751701
670.0991, 8.749252
670.5812, 7.651787
671.0634, 6.110336
671.5455, 5.330925
672.0276, 5.647247
672.5097, 5.591873
672.9918, 4.789406
673.4739, 4.049232
673.9561, 3.612518
674.4382, 3.386200
674.9203, 3.247490
675.4024, 3.166405
675.8845, 3.142998
676.3666, 3.291458
676.8488, 3.464531
677.3309, 3.295036
677.8130, 2.772537
678.2951, 2.204376
678.7772, 1.718796
679.2593, 1.401871
679.7415, 1.243591
680.2236, 1.407799
680.7057, 1.432243
681.1878, 1.457687
681.6699, 1.220184
682.1520, 0.2401810
682.6342, 0.9569320
683.1163, 1.553886
683.5984, 1.331619
684.0805, 0.7808610
684.5626, 0.3994060
685.0447, 0.1573560
685.5269, 0.2365880
686.0090, 0.8806230
686.4911, 1.234932
686.9732, 0.8856960
687.4553, 0.2781220
687.9374, 0.2249760
688.4196, 0.8232420
688.9017, 1.076904
689.3838, 0.5900960
689.8659, 5.1826000E-02
690.3480, 0.6671520
690.8301, 1.136467
691.3123, 1.254829
691.7944, 0.9747470
692.2765, 0.5638350
692.7586, 0.3215100
693.2407, 0.2053300
693.7228, 5.6678999E-02
694.2050, 0.6550140
694.6871, 0.8086850
695.1692, 0.3277970
695.6513, 1.592056
696.1334, 1.546867
696.6155, 0.1915440
697.0977, 0.7275160
697.5798, 0.3332600
698.0619, 0.3485030
698.5440, 0.7308500
699.0261, 0.7917250
699.5082, 0.3831410
699.9904, 0.4809490
700.4725, 1.202682
700.9546, 1.051178
701.4367, 0.1247250
701.9188, 5.0949000E-02
702.4009, 1.295006
702.8831, 1.901718
703.3652, 0.1772610
703.8473, 1.691086
704.3294, 1.968300
704.8115, 0.7963490
705.2936, 0.3872380
705.7758, 1.201630
706.2579, 1.633438
706.7400, 1.520058
707.2221, 1.040977
707.7042, 0.4776380
708.1863, 6.8184003E-02
708.6685, 0.2726750
709.1506, 0.2432480
709.6327, 1.334717
710.1148, 1.876755
710.5969, 1.635971
711.0790, 1.232224
711.5612, 0.2756650
712.0433, 0.3799290
712.5254, 0.1874540
713.0075, 1.546455
713.4896, 2.271706
713.9717, 1.449547
714.4539, 0.5200200
714.9360, 1.046692
715.4181, 2.381447
715.9002, 3.046997
716.3823, 2.818695
716.8644, 2.199982
717.3466, 1.500237
717.8287, 0.7704090
718.3108, 0.1766660
718.7929, 0.4191440
719.2750, 0.5933690
719.7571, 4.1053999E-02
720.2393, 0.7037200
720.7214, 1.028168
721.2035, 1.086990
721.6856, 1.041306
722.1677, 0.9197690
722.6498, 0.8790280
723.1320, 1.090279
723.6141, 1.462814
724.0962, 1.938461
724.5783, 2.467361
725.0604, 2.612480
725.5425, 2.137741
726.0247, 1.159714
726.5068, 0.2026520
726.9889, 2.452652
727.4710, 3.544044
727.9531, 2.764877
728.4352, 1.658859
728.9174, 0.4665070
729.3995, 0.6404800
729.8816, 1.508080
730.3637, 2.091042
730.8458, 2.334557
731.3279, 2.010017
731.8101, 1.427582
732.2922, 1.039352
732.7743, 0.8564450
733.2564, 0.8583680
733.7385, 1.043701
734.2206, 1.366699
734.7028, 1.861603
735.1849, 2.588158
735.6670, 2.593552
736.1491, 0.6072240
736.6312, 0.4506380
737.1133, 0.8226780
737.5955, 2.508224
738.0776, 2.871170
738.5597, 1.947517
739.0418, 0.9482800
739.5239, 0.4089050
740.0060, 0.1737980
740.4882, 0.1447910
740.9703, 0.2495730
741.4524, 0.2073140
741.9345, 3.2341000E-02
742.4166, 1.0269000E-02
742.8987, 0.7907410
743.3809, 2.130257
743.8630, 3.197342
744.3451, 4.277611
744.8272, 4.539558
745.3093, 3.094994
745.7914, 1.701004
746.2736, 1.419807
746.7557, 1.865715
747.2378, 2.122841
747.7199, 1.848572
748.2020, 1.577499
748.6841, 2.029022
749.1663, 2.641174
749.6484, 2.167618
750.1305, 0.7230530
750.6126, 0.2626500
751.0947, 1.8669000E-02
751.5768, 0.8259200
752.0590, 1.115234
752.5411, 0.6812360
753.0232, 0.4868930
753.5053, 0.7389530
753.9874, 0.9088820
754.4695, 0.6898650
754.9517, 0.4191740
755.4338, 0.5835110
755.9159, 1.201477
756.3980, 1.696091
756.8801, 1.601982
757.3622, 1.470047
757.8444, 2.161400
758.3265, 3.158485
758.8086, 2.922485
759.2907, 1.169220
759.7728, 0.3877560
760.2549, 3.8711999E-02
760.7371, 2.055550
761.2192, 3.218788
761.7013, 3.170898
762.1834, 2.998817
762.6655, 2.984818
763.1476, 2.915039
763.6298, 2.388863
764.1119, 1.680717
764.5940, 1.605782
765.0761, 2.711662
765.5582, 3.687866
766.0403, 4.030563
766.5225, 3.812012
767.0046, 2.684387
767.4867, 1.023544
767.9688, 0.1961210
768.4509, 0.9148330
768.9330, 2.272293
769.4152, 2.661766
769.8973, 2.001289
770.3794, 1.975121
770.8615, 2.847260
771.3436, 3.637230
771.8257, 4.021118
772.3079, 4.007607
772.7900, 3.475227
773.2721, 2.358192
773.7542, 1.615990
774.2363, 1.496101
774.7184, 1.674423
775.2006, 2.181755
775.6827, 2.793648
776.1648, 3.319748
776.6469, 3.637314
777.1290, 3.525482
777.6111, 2.630302
778.0933, 1.521660
778.5754, 1.758972
779.0575, 3.275848
779.5396, 4.199722
780.0217, 4.100693
780.5038, 3.586700
780.9860, 2.928741
781.4681, 2.281380
781.9502, 2.339546
782.4323, 3.927238
782.9144, 4.838097
783.3965, 4.449631
783.8787, 3.882507
784.3608, 3.774582
784.8429, 3.789169
785.3250, 3.456680
785.8071, 2.722466
786.2892, 1.985413
786.7714, 1.353096
787.2535, 1.023033
787.7356, 1.613342
788.2177, 2.952751
788.6998, 3.866135
789.1819, 3.915688
789.6641, 3.444122
790.1462, 2.768097
790.6283, 1.890808
791.1104, 1.611549
791.5925, 2.341621
792.0746, 2.995346
792.5568, 3.570946
793.0389, 3.850937
793.5210, 3.374649
794.0031, 2.411957
794.4852, 1.975845
794.9673, 2.913193
795.4495, 3.702423
795.9316, 3.056282
796.4137, 1.904671
796.8958, 1.442886
797.3779, 1.680450
797.8600, 2.114861
798.3422, 2.503448
798.8243, 2.762589
799.3064, 2.618378
799.7885, 2.030136
800.2706, 1.951904
800.7527, 2.653931
801.2349, 3.163940
801.7170, 3.000275
802.1991, 2.510452
802.6812, 2.111099
803.1633, 1.795975
803.6454, 1.610802
804.1276, 1.599190
804.6097, 1.693207
805.0918, 1.759842
805.5739, 1.977600
806.0560, 2.785271
806.5381, 3.989212
807.0203, 4.717110
807.5024, 4.341805
807.9845, 3.575745
808.4666, 3.465973
808.9487, 3.887512
809.4308, 4.117638
809.9130, 4.038010
810.3951, 3.869835
810.8772, 3.766357
811.3593, 3.647697
811.8414, 3.245705
812.3235, 2.284172
812.8057, 2.022659
813.2878, 3.346069
813.7699, 4.308960
814.2520, 4.038712
814.7341, 3.375900
815.2162, 3.272713
815.6984, 3.746758
816.1805, 3.953117
816.6626, 3.222031
817.1447, 2.414070
817.6268, 2.058861
818.1089, 2.127541
818.5911, 2.606270
819.0732, 3.339966
819.5553, 3.891869
820.0374, 3.963173
820.5195, 3.788536
821.0016, 3.826057
821.4838, 4.075157
821.9659, 4.561249
822.4480, 5.505798
822.9301, 5.964287
823.4122, 5.209145
823.8943, 3.884323
824.3765, 3.067497
824.8586, 2.787117
825.3407, 2.837585
825.8228, 3.501953
826.3049, 4.181870
826.7870, 4.830231
827.2692, 5.248978
827.7513, 5.179848
828.2334, 4.702164
828.7155, 4.215096
829.1976, 3.885658
829.6797, 3.694359
830.1619, 3.597076
830.6440, 3.646309
831.1261, 4.093559
831.6082, 4.896492
832.0903, 5.439919
832.5724, 5.336693
833.0546, 4.986687
833.5367, 5.255714
834.0188, 6.312256
834.5009, 6.774422
834.9830, 6.338150
835.4651, 5.920006
835.9473, 6.054214
836.4294, 6.209694
836.9115, 5.518677
837.3936, 4.042702
837.8757, 3.467247
838.3578, 4.967262
838.8400, 6.312103
839.3221, 6.506821
839.8042, 6.169868
840.2863, 5.831932
840.7684, 5.671684
841.2505, 5.893089
841.7327, 6.665825
842.2148, 7.325417
842.6969, 6.954430
843.1790, 5.857925
843.6611, 4.716461
844.1432, 3.619537
844.6254, 3.070625
845.1075, 3.296455
845.5896, 4.165588
846.0717, 5.646423
846.5538, 7.709885
847.0359, 8.386848
847.5181, 6.826538
848.0002, 5.543228
848.4823, 5.007042
848.9644, 4.935081
849.4465, 5.301033
849.9286, 5.939178
850.4108, 6.465111
850.8929, 6.905823
851.3750, 7.018379
851.8571, 6.362564
852.3392, 5.654114
852.8214, 5.578850
853.3035, 5.899300
853.7856, 6.046295
854.2677, 5.840446
854.7498, 5.527054
855.2319, 5.326744
855.7141, 5.221550
856.1962, 4.938797
856.6783, 4.517311
857.1604, 4.645767
857.6425, 5.536766
858.1246, 6.254883
858.6068, 5.727501
859.0889, 4.385284
859.5710, 4.262779
860.0531, 6.277275
860.5352, 7.189308
861.0173, 5.918434
861.4995, 4.780807
861.9816, 5.052132
862.4637, 5.850632
862.9458, 6.024231
863.4279, 5.472511
863.9100, 5.107010
864.3922, 5.341957
864.8743, 5.646698
865.3564, 5.813972
865.8385, 5.720840
866.3206, 5.083618
866.8027, 4.098801
867.2849, 3.652977
867.7670, 4.435097
868.2491, 5.502632
868.7312, 5.422462
869.2133, 4.563057
869.6954, 3.883286
870.1776, 3.460472
870.6597, 3.183846
871.1418, 3.004860
871.6239, 2.974564
872.1060, 3.236641
872.5881, 3.785065
873.0703, 3.770905
873.5524, 2.870689
874.0345, 2.234955
874.5166, 2.157761
874.9987, 2.367538
875.4808, 2.684494
875.9630, 3.113991
876.4451, 3.758522
876.9272, 5.145660
877.4093, 5.621468
877.8914, 3.860733
878.3735, 2.121590
878.8557, 1.967850
879.3378, 2.677826
879.8199, 3.010658
880.3020, 2.708702
880.7841, 2.366417
881.2662, 2.381149
881.7484, 2.576065
882.2305, 2.989799
882.7126, 3.358337
883.1947, 2.749252
883.6768, 1.203773
884.1589, 0.1810380
884.6411, 0.6818160
885.1232, 1.866219
885.6053, 1.958672
886.0874, 0.9196470
886.5695, 0.4474260
887.0516, 0.7348860
887.5338, 0.9301830
888.0159, 0.6515580
888.4980, 0.2332840
888.9801, 4.9552999E-02
889.4622, 0.1004490
889.9443, 0.2751240
890.4265, 0.5798870
890.9086, 0.9978640
891.3907, 1.779800
891.8728, 2.430977
892.3549, 2.689888
892.8370, 2.582970
893.3192, 2.046860
893.8013, 0.9654690
894.2834, 0.3373340
894.7655, 1.378883
895.2476, 2.379662
895.7297, 1.439400
896.2119, 0.3689880
896.6940, 1.092186
897.1761, 0.4688110
897.6582, 0.4037700
898.1403, 0.8143310
898.6224, 0.9167940
899.1046, 0.8896100
899.5867, 0.7711640
900.0688, 0.7553480
900.5509, 0.8565060
901.0330, 0.9174350
901.5151, 0.8688430
901.9973, 0.7071990
902.4794, 0.3707350
902.9615, 0.1411670
903.4436, 0.1743620
903.9257, 0.4926380
904.4078, 1.076431
904.8900, 1.539886
905.3721, 1.713623
905.8542, 1.154045
906.3363, 0.2221680
906.8184, 8.8019997E-02
907.3005, 1.227814
907.7827, 2.035934
908.2648, 2.284256
908.7469, 2.195984
909.2290, 1.637764
909.7111, 0.9451070
910.1932, 0.4120790
910.6754, 0.1303790
911.1575, 0.2776950
911.6396, 1.429070
912.1217, 2.306946
912.6038, 1.294189
913.0859, 0.2972790
913.5681, 0.2741240
914.0502, 1.021347
914.5323, 1.512260
915.0144, 0.3054730
915.4965, 1.243164
915.9786, 1.377411
916.4607, 0.5506440
916.9428, 0.4117810
917.4249, 0.9116670
917.9070, 1.469215
918.3892, 1.970879
918.8713, 2.158081
919.3534, 1.760170
919.8355, 1.005615
920.3176, 0.5888600
920.7997, 0.5437930
921.2819, 0.7603070
921.7640, 1.608643
922.2461, 1.974449
922.7282, 1.068153
923.2103, 0.2447740
923.6924, 1.012794
924.1746, 1.249245
924.6567, 0.9870680
925.1388, 0.7276380
925.6209, 1.593582
926.1030, 0.5404660
926.5851, 0.8575900
927.0673, 1.712151
927.5494, 2.072594
928.0315, 2.086067
928.5136, 1.771072
928.9957, 1.590660
929.4778, 2.000648
929.9600, 2.428772
930.4421, 2.448006
930.9242, 2.157661
931.4063, 1.437965
931.8884, 0.5309750
932.3705, 0.4770280
932.8527, 1.995186
933.3348, 3.614014
933.8169, 2.978249
934.2990, 1.040321
934.7811, 0.5186610
935.2632, 1.347923
935.7454, 2.133385
936.2275, 2.415939
936.7096, 2.656235
937.1917, 3.348305
937.6738, 4.301315
938.1559, 4.771439
938.6381, 4.707321
939.1202, 4.523056
939.6023, 4.204254
940.0844, 3.910782
940.5665, 3.575096
941.0486, 3.531815
941.5308, 4.517105
942.0129, 6.731834
942.4950, 7.662857
942.9771, 6.163605
943.4592, 5.101273
943.9413, 4.742409
944.4235, 5.035255
944.9056, 6.611427
945.3877, 8.679100
945.8698, 9.342361
946.3519, 7.898964
946.8340, 7.171310
947.3162, 8.781639
947.7983, 10.26226
948.2804, 9.899788
948.7625, 8.989098
949.2446, 9.245453
949.7267, 10.51932
950.2089, 11.28323
950.6910, 10.66105
951.1731, 10.05694
951.6552, 10.83456
952.1373, 12.05055
952.6194, 12.44054
953.1016, 12.29670
953.5837, 12.55022
954.0658, 13.40428
954.5479, 14.48014
955.0300, 15.61586
955.5121, 16.76122
955.9943, 17.71490
956.4764, 18.54969
956.9585, 19.73257
957.4406, 21.25674
957.9227, 22.09130
958.4048, 21.68668
958.8870, 21.43726
959.3691, 23.45454
959.8512, 27.31157
960.3333, 29.31585
960.8154, 29.09335
961.2975, 29.68865
961.7797, 31.85464
962.2618, 34.21697
962.7439, 35.77489
963.2260, 37.06728
963.7081, 39.24457
964.1902, 42.40774
964.6724, 45.93347
965.1545, 50.44318
965.6366, 54.28658
966.1187, 56.42786
966.6008, 58.39845
967.0829, 61.02826
967.5651, 64.44665
968.0472, 69.16290
968.5293, 75.90554
969.0114, 82.09679
969.4935, 86.81038
969.9756, 91.61781
970.4578, 96.20638
970.9399, 101.9398
971.4220, 110.8209
971.9041, 122.4814
972.3862, 134.1845
972.8683, 144.0462
973.3505, 155.8076
973.8326, 172.2220
974.3147, 190.9815
974.7968, 208.7004
975.2789, 227.5247
975.7610, 251.1494
976.2432, 280.4420
976.7253, 314.7104
977.2074, 353.5540
977.6895, 396.8734
978.1716, 445.2799
978.6537, 497.5079
979.1359, 553.9930
979.6180, 612.9690
980.1001, 669.1387
980.5822, 720.7902
981.0643, 769.8244
981.5464, 816.5198
982.0286, 863.1758
982.5107, 912.5299
982.9928, 965.4332
983.4749, 1026.156
983.9570, 1095.337
984.4391, 1174.531
984.9213, 1264.257
985.4034, 1364.205
985.8855, 1472.261
986.3676, 1590.145
986.8497, 1728.791
987.3318, 1888.215
987.8140, 2067.251
988.2961, 2264.204
988.7782, 2487.710
989.2603, 2746.164
989.7424, 3033.817
990.2245, 3348.847
990.7067, 3701.056
991.1888, 4011.539
991.6709, 4317.093
992.1530, 4497.747
992.6351, 4534.845
993.1172, 4424.688
993.5994, 4131.981
994.0815, 3696.943
994.5636, 3236.772
995.0457, 2720.276
995.5278, 2267.903
996.0099, 1881.181
996.4921, 1552.837
996.9742, 1290.828
997.4563, 1078.226
997.9384, 909.6126
998.4205, 778.3561
998.9026, 667.0527
999.3848, 576.4684
999.8669, 499.7684
1000.349, 439.4457
1000.831, 388.3575
1001.313, 344.7765
1001.795, 307.5130
1002.277, 276.0183
1002.760, 249.7921
1003.242, 226.8280
1003.724, 207.3905
1004.206, 189.4015
1004.688, 171.1621
1005.170, 154.6547
1005.652, 141.7165
1006.134, 131.2607
1006.617, 121.8410
1007.099, 113.0515
1007.581, 104.7065
1008.063, 96.58685
1008.545, 89.09725
1009.027, 82.78110
1009.509, 77.09061
1009.991, 71.25840
1010.473, 65.49239
1010.956, 60.26508
1011.438, 55.76604
1011.920, 52.50827
1012.402, 51.32436
1012.884, 50.29271
1013.366, 46.40642
1013.848, 41.27794
1014.330, 38.22417
1014.813, 36.83595
1015.295, 34.71042
1015.777, 31.16984
1016.259, 27.74046
1016.741, 25.78131
1017.223, 24.62059
1017.705, 23.04078
1018.187, 21.19432
1018.669, 19.64263
1019.152, 18.40690
1019.634, 17.27760
1020.116, 16.17303
1020.598, 15.08736
1021.080, 14.04081
1021.562, 12.98930
1022.044, 11.77812
1022.526, 10.43096
1023.008, 9.162254
1023.491, 7.990829
1023.973, 7.214340
1024.455, 6.997574
1024.937, 6.819832
1025.419, 6.010796
1025.901, 4.803185
1026.383, 4.389107
1026.865, 4.847939
1027.348, 4.844467
1027.830, 4.187775
1028.312, 3.419800
1028.794, 2.763542
1029.276, 2.169998
1029.758, 1.581680
1030.240, 1.001053
1030.722, 0.4820020
1031.204, 5.0308000E-02
1031.687, 0.4257130
1032.169, 0.9658510
1032.651, 1.536758
1033.133, 2.146019
1033.615, 2.754982
1034.097, 3.420227
1034.579, 4.086998
1035.061, 3.766441
1035.544, 1.804108
1036.026, 0.5821530
1036.508, 0.5461120
1036.990, 0.8093260
1037.472, 1.112694
1037.954, 1.350388
1038.436, 1.405258
1038.918, 1.276421
1039.401, 0.8923490
1039.883, 5.7854000E-02
1040.365, 0.6657640
1040.847, 1.298805
1041.329, 1.745171
1041.811, 1.909264
1042.293, 1.902504
1042.775, 1.765747
1043.257, 1.511856
1043.740, 1.625031
1044.222, 2.563049
1044.704, 3.161087
1045.186, 2.656113
1045.668, 2.621735
1046.150, 4.349937
1046.632, 6.534988
1047.114, 7.583679
1047.596, 7.513161
1048.079, 7.299072
1048.561, 6.315331
1049.043, 6.276848
1049.525, 8.042252
1050.007, 10.03893
1050.489, 11.50726
1050.971, 12.80301
1051.453, 14.54581
1051.936, 16.64982
1052.418, 18.12801
1052.900, 18.20741
1053.382, 18.72133
1053.864, 19.92945
1054.346, 21.76718
1054.828, 24.85112
1055.310, 28.11457
1055.792, 30.06572
1056.275, 30.88435
1056.757, 32.23138
1057.239, 34.55882
1057.721, 37.26052
1058.203, 40.44612
1058.685, 43.65081
1059.167, 46.74096
1059.649, 49.60840
1060.131, 52.04359
1060.614, 54.14626
1061.096, 56.39859
1061.578, 58.87030
1062.060, 61.60496
1062.542, 64.89857
1063.024, 68.11922
1063.506, 71.01046
1063.988, 73.56090
1064.471, 75.85729
1064.953, 77.81953
1065.435, 79.01391
1065.917, 78.95271
1066.399, 79.51472
1066.881, 82.25618
1067.363, 84.89226
1067.845, 86.35544
1068.328, 86.81634
1068.810, 86.19803
1069.292, 84.82793
1069.774, 83.59576
1070.256, 82.85477
1070.738, 81.63027
1071.220, 78.98906
1071.702, 76.36354
1072.184, 74.91248
1072.667, 73.65320
1073.149, 71.58251
1073.631, 68.79548
1074.113, 65.78799
1074.595, 62.67349
1075.077, 59.64834
1075.559, 57.01204
1076.041, 54.26819
1076.523, 51.27339
1077.006, 47.93021
1077.488, 43.56258
1077.970, 38.92769
1078.452, 35.72202
1078.934, 34.35364
1079.416, 33.19647
1079.898, 31.96568
1080.380, 30.20903
1080.862, 26.91146
1081.345, 23.62078
1081.827, 21.99438
1082.309, 21.35847
1082.791, 20.28917
1083.273, 18.52058
1083.755, 16.82709
1084.237, 15.46897
1084.719, 14.33138
1085.202, 13.48629
1085.684, 12.75346
1086.166, 12.01428
1086.648, 11.33325
1087.130, 10.81000
1087.612, 10.39320
1088.094, 9.909721
1088.576, 9.128967
1089.058, 8.771973
1089.541, 9.810852
1090.023, 10.62106
1090.505, 9.831100
1090.987, 8.193771
1091.469, 6.583153
1091.951, 5.265800
1092.433, 4.464409
1092.915, 4.322975
1093.397, 4.560425
1093.880, 5.576309
1094.362, 6.240959
1094.844, 5.379807
1095.326, 4.228798
1095.808, 4.273323
1096.290, 5.247009
1096.772, 6.014381
1097.254, 6.304626
1097.737, 6.451126
1098.219, 6.001228
1098.701, 6.088951
1099.183, 7.780045
1099.665, 9.749748
1100.147, 10.74329
1100.629, 11.08582
1101.111, 11.69453
1101.594, 12.74723
1102.076, 13.85021
1102.558, 14.79543
1103.040, 15.86162
1103.522, 17.60976
1104.004, 19.05032
1104.486, 18.86208
1104.968, 18.19881
1105.450, 19.03099
1105.932, 21.51071
1106.415, 24.05666
1106.897, 26.83517
1107.379, 28.95767
1107.861, 29.53734
1108.343, 30.23658
1108.825, 32.25679
1109.307, 34.64604
1109.789, 36.29964
1110.272, 37.20251
1110.754, 37.75790
1111.236, 37.49804
1111.718, 37.89192
1112.200, 39.80758
1112.682, 41.45337
1113.164, 41.79188
1113.646, 41.96753
1114.129, 43.31410
1114.611, 45.34949
1115.093, 46.45258
1115.575, 46.59929
1116.057, 45.79049
1116.539, 42.83109
1117.021, 40.75060
1117.503, 41.18737
1117.985, 41.39395
1118.468, 39.01741
1118.950, 35.56225
1119.432, 34.15657
1119.914, 35.10516
1120.396, 34.27122
1120.878, 30.20995
1121.360, 27.57703
1121.842, 27.92458
1122.324, 27.86877
1122.807, 25.46401
1123.289, 22.20110
1123.771, 19.79437
1124.253, 18.25547
1124.735, 17.83183
1125.217, 19.24411
1125.699, 19.06020
1126.181, 16.51491
1126.664, 14.32066
1127.146, 13.56891
1127.628, 13.00141
1128.110, 11.33760
1128.592, 9.169167
1129.074, 8.434555
1129.556, 9.374870
1130.038, 8.972488
1130.521, 6.912399
1131.003, 5.955482
1131.485, 6.933960
1131.967, 7.664879
1132.449, 6.694572
1132.931, 4.873573
1133.413, 3.425888
1133.895, 2.421669
1134.377, 2.717964
1134.859, 4.236153
1135.342, 4.276100
1135.824, 2.506210
1136.306, 0.8840710
1136.788, 0.2638780
1137.270, 3.6757998E-02
1137.752, 0.4533770
1138.234, 0.9731290
1138.716, 0.8212050
1139.199, 0.1884840
1139.681, 6.6338003E-02
1140.163, 4.1175999E-02
1140.645, 9.4299003E-02
1141.127, 2.6320999E-02
1141.609, 0.3053360
1142.091, 0.7793730
1142.573, 1.073479
1143.056, 0.5186080
1143.538, 0.5111920
1144.020, 1.513817
1144.502, 2.285126
1144.984, 2.121307
1145.466, 1.199562
1145.948, 0.6582640
1146.430, 0.9753950
1146.912, 1.461746
1147.395, 1.663116
1147.877, 1.549355
1148.359, 0.7344440
1148.841, 0.1744690
1149.323, 9.7427003E-02
1149.805, 0.5448760
1150.287, 0.6035840
1150.769, 0.1112370
1151.251, 0.8615570
1151.734, 1.413406
1152.216, 1.513069
1152.698, 0.4843290
1153.180, 0.5413740
1153.662, 0.6941830
1154.144, 0.2101820
1154.626, 0.8704220
1155.108, 2.204628
1155.591, 2.820404
1156.073, 2.337532
1156.555, 1.929031
1157.037, 1.956558
1157.519, 2.205986
1158.001, 3.054893
1158.483, 3.635384
1158.965, 2.447441
1159.448, 0.9342880
1159.930, 2.196411
1160.412, 6.394333
1160.894, 8.484131
1161.376, 5.714485
1161.858, 4.291260
1162.340, 5.628120
1162.822, 7.244469
1163.304, 8.210876
1163.786, 9.093498
1164.269, 10.56665
1164.751, 12.35457
1165.233, 13.47971
1165.715, 13.73031
1166.197, 14.22863
1166.679, 14.97520
1167.161, 15.97030
1167.643, 17.22330
1168.126, 18.70856
1168.608, 20.40269
1169.090, 22.37218
1169.572, 24.82451
1170.054, 27.63632
1170.536, 29.72158
1171.018, 31.05242
1171.500, 32.74715
1171.983, 34.92262
1172.465, 36.86765
1172.947, 38.33775
1173.429, 39.49950
1173.911, 40.45615
1174.393, 41.36633
1174.875, 42.29427
1175.357, 43.47916
1175.839, 46.20072
1176.322, 50.04852
1176.804, 53.11877
1177.286, 55.27617
1177.768, 57.83401
1178.250, 61.38618
1178.732, 64.97220
1179.214, 67.42155
1179.696, 69.78243
1180.178, 73.37674
1180.661, 77.91238
1181.143, 83.23096
1181.625, 88.99629
1182.107, 94.46795
1182.589, 99.56615
1183.071, 104.9510
1183.553, 111.1327
1184.035, 116.7279
1184.518, 120.6832
1185.000, 123.9156
1185.482, 127.5498
1185.964, 130.4088
1186.446, 130.5141
1186.928, 128.9930
1187.410, 128.8922
1187.892, 130.7867
1188.375, 131.0612
1188.857, 128.6496
1189.339, 124.8651
1189.821, 119.6675
1190.303, 113.5316
1190.785, 105.7798
1191.267, 97.86639
1191.749, 91.70420
1192.231, 86.63116
1192.714, 79.75570
1193.196, 69.95933
1193.678, 62.81416
1194.160, 59.42482
1194.642, 55.56923
1195.124, 50.18353
1195.606, 44.97559
1196.088, 41.06024
1196.570, 37.53627
1197.053, 32.90852
1197.535, 27.69501
1198.017, 24.75575
1198.499, 24.04277
1198.981, 23.27602
1199.463, 22.29625
1199.945, 21.13907
1200.427, 19.80048
1200.910, 18.26391
1201.392, 16.45428
1201.874, 14.59726
1202.356, 12.94385
1202.838, 11.60095
1203.320, 10.77798
1203.802, 10.35671
1204.284, 10.48289
1204.766, 10.70750
1205.249, 9.419861
1205.731, 6.372795
1206.213, 3.891342
1206.695, 3.423920
1207.177, 3.810181
1207.659, 4.838333
1208.141, 5.672386
1208.623, 5.485062
1209.105, 4.743416
1209.588, 4.027702
1210.070, 3.349030
1210.552, 2.250931
1211.034, 0.4460370
1211.516, 0.1326520
1211.998, 2.285820
1212.480, 4.131187
1212.962, 4.207047
1213.445, 3.838249
1213.927, 3.602951
1214.409, 3.330170
1214.891, 2.694672
1215.373, 1.868713
1215.855, 1.690071
1216.337, 2.447739
1216.819, 2.479164
1217.302, 1.470299
1217.784, 1.009819
1218.266, 1.546989
1218.748, 1.963013
1219.230, 1.615761
1219.712, 0.9872510
1220.194, 0.6737820
1220.676, 0.6156620
1221.158, 0.6678390
1221.641, 0.8166430
1222.123, 0.8431020
1222.605, 0.7800750
1223.087, 0.8237000
1223.569, 1.010368
1224.051, 1.268707
1224.533, 1.548592
1225.015, 1.707977
1225.497, 1.636833
1225.980, 1.334335
1226.462, 0.4957660
1226.944, 0.3420180
1227.426, 0.4064870
1227.908, 6.8085000E-02
1228.390, 0.4336240
1228.872, 0.6488040
1229.354, 1.348473
1229.837, 3.132484
1230.319, 4.296120
1230.801, 3.522583
1231.283, 2.973900
1231.765, 4.056366
1232.247, 5.240776
1232.729, 5.385368
1233.211, 4.756729
1233.693, 3.718079
1234.176, 2.308716
1234.658, 1.717979
1235.140, 2.219589
1235.622, 2.759338
1236.104, 3.408699
1236.586, 3.608170
1237.068, 3.067223
1237.550, 2.678230
1238.032, 3.146263
1238.515, 3.881271
1238.997, 3.903709
1239.479, 3.349670
1239.961, 2.685005
1240.443, 1.950058
1240.925, 1.253441
1241.407, 0.6698530
1241.889, 0.5074620
1242.372, 0.8039470
1242.854, 1.168884
1243.336, 1.367165
1243.818, 1.537071
1244.300, 1.859810
1244.782, 2.161285
1245.264, 2.226883
1245.746, 2.206703
1246.229, 2.296829
1246.711, 2.436394
1247.193, 2.509377
1247.675, 2.472023
1248.157, 2.308937
1248.639, 1.800850
1249.121, 1.603928
1249.603, 2.082321
1250.085, 2.545036
1250.568, 2.818993
1251.050, 2.935715
1251.532, 2.871841
1252.014, 2.735535
1252.496, 2.748001
1252.978, 2.871674
1253.460, 2.533157
1253.942, 1.613785
1254.424, 1.630783
1254.907, 2.825233
1255.389, 3.388046
1255.871, 2.832275
1256.353, 2.191971
1256.835, 2.133759
1257.317, 2.247833
1257.799, 1.901833
1258.281, 1.482559
1258.764, 1.968330
1259.246, 2.721336
1259.728, 2.394661
1260.210, 1.413383
1260.692, 0.9723660
1261.174, 1.225975
1261.656, 1.599785
1262.138, 1.929855
1262.620, 2.029106
1263.103, 1.471252
1263.585, 1.120041
1264.067, 1.523323
1264.549, 2.093925
1265.031, 2.468254
1265.513, 2.726265
1265.995, 3.146744
1266.477, 3.590736
1266.959, 3.233559
1267.442, 1.698311
1267.924, 0.9841380
1268.406, 1.317780
1268.888, 1.406860
1269.370, 0.9886170
1269.852, 0.4364470
1270.334, 8.9821003E-02
1270.816, 0.3647080
1271.299, 0.1090090
1271.781, 0.4506610
1272.263, 0.7917100
1272.745, 1.106964
1273.227, 2.181862
1273.709, 3.522697
1274.191, 3.712753
1274.673, 2.908760
1275.156, 2.377350
1275.638, 2.533569
1276.120, 2.662003
1276.602, 2.858521
1277.084, 3.182693
1277.566, 4.254974
1278.048, 4.643051
1278.530, 2.342316
1279.012, 2.4094000E-02
1279.495, 0.5619200
1279.977, 2.912376
1280.459, 2.196228
1280.941, 0.0000000E+00
##END=



