##NAMES=Bobdownsite
##RRUFFID=R050109
##IDEAL CHEMISTRY=Ca_9_Mg(PO_4_)_6_(PO_3_F)
##LOCALITY=Big Fish River, Yukon Territory, Canada
##OWNER=RRUFF
##SOURCE=Rock Currier
##DESCRIPTION=Colorless hexagonal tabular crystals, type sample
##STATUS=The identification of this mineral is confirmed by single-crystal X-ray diffraction and chemical analysis.
##URL=rruff.info/R050109
##MEASURED CHEMISTRY=(Ca_8.76_Na_0.24_)_Σ=9_(Mg_0.72_Fe^3+^_0.13_Al_0.11_Fe^2+^_0.04_)_Σ=1_(P_1.00_O_4_)_6_(P_1.00_O_3_F_1.00_); Fe^2+^ and Fe^3+^ by charge balance
52.866, 0.000
54.266, 12.493
55.666, 15.375
57.065, 31.783
58.464, 24.472
59.863, 5.461
61.262, 3.154
62.661, 2.109
64.059, 3.625
65.458, 5.885
66.856, 0.957
68.253, 8.770
69.651, 28.441
71.048, 55.878
72.445, 71.006
73.842, 111.767
75.239, 171.109
76.635, 209.979
78.031, 248.330
79.427, 286.118
80.823, 341.307
82.218, 421.863
83.614, 498.756
85.009, 551.963
86.404, 598.459
87.798, 721.225
89.193, 870.249
90.587, 1116.532
91.981, 1322.078
93.375, 1564.878
94.768, 1827.911
96.161, 1941.154
97.554, 2083.585
98.947, 1994.187
100.340, 1769.943
101.732, 1482.844
103.124, 1288.880
104.516, 1110.042
105.908, 1011.323
107.300, 904.717
108.691, 781.218
110.082, 719.823
111.473, 657.526
112.864, 616.323
114.254, 640.211
115.644, 619.187
117.034, 669.247
118.424, 647.389
119.813, 603.610
121.203, 680.907
122.592, 658.279
123.981, 703.769
125.369, 736.435
126.758, 785.292
128.146, 895.354
129.534, 937.639
130.922, 994.069
132.309, 1018.563
133.696, 975.082
135.083, 967.626
136.470, 945.183
137.857, 881.712
139.243, 889.219
140.630, 864.705
142.016, 879.179
143.401, 873.647
144.787, 931.119
146.172, 1041.598
147.557, 1156.088
148.942, 1253.592
150.327, 1460.111
151.711, 1636.649
153.096, 1780.206
154.480, 1999.784
155.863, 2093.385
157.247, 2193.008
158.630, 2270.656
160.013, 2178.328
161.396, 2124.026
162.779, 2001.749
164.161, 1960.498
165.544, 1783.273
166.926, 1706.075
168.308, 1715.903
169.689, 1701.758
171.070, 1710.640
172.452, 1855.548
173.833, 1924.483
175.213, 1903.446
176.594, 1850.434
177.974, 1743.448
179.354, 1580.488
180.734, 1410.554
182.114, 1258.646
183.493, 1142.763
184.872, 1092.905
186.251, 992.073
187.630, 945.265
189.008, 884.482
190.387, 874.724
191.765, 824.990
193.143, 798.365
194.520, 793.496
195.898, 770.893
197.275, 769.279
198.652, 708.166
200.029, 730.007
201.405, 685.288
202.782, 662.386
204.158, 707.829
205.534, 657.521
206.909, 722.564
208.285, 702.345
209.660, 720.716
211.035, 718.973
212.410, 708.168
213.784, 705.557
215.159, 701.883
216.533, 709.231
217.907, 727.602
219.281, 762.531
220.654, 767.530
222.027, 771.581
223.400, 775.646
224.773, 773.687
226.146, 786.902
227.518, 769.942
228.891, 761.280
230.263, 764.723
231.634, 771.221
233.006, 769.886
234.377, 742.619
235.748, 734.416
237.119, 744.273
238.490, 684.187
239.860, 738.154
241.231, 727.172
242.601, 707.238
243.970, 749.351
245.340, 774.508
246.709, 786.706
248.079, 796.945
249.448, 851.223
250.816, 892.539
252.185, 905.890
253.553, 928.276
254.921, 923.696
256.289, 916.148
257.657, 904.631
259.024, 936.144
260.391, 945.686
261.758, 969.255
263.125, 886.852
264.492, 917.475
265.858, 870.123
267.224, 867.797
268.590, 866.494
269.956, 829.215
271.321, 846.959
272.687, 830.726
274.052, 879.516
275.416, 942.326
276.781, 1042.158
278.146, 1109.011
279.510, 1117.885
280.874, 1166.778
282.237, 1203.692
283.601, 1149.625
284.964, 1077.577
286.327, 966.547
287.690, 885.536
289.053, 748.543
290.416, 635.567
291.778, 581.608
293.140, 473.663
294.502, 479.733
295.863, 374.817
297.225, 369.914
298.586, 353.025
299.947, 328.148
301.308, 329.285
302.668, 273.435
304.029, 285.599
305.389, 306.776
306.749, 255.966
308.108, 244.171
309.468, 223.389
310.827, 207.620
312.186, 163.865
313.545, 126.124
314.903, 123.396
316.262, 111.682
317.620, 114.981
318.978, 78.904
320.336, 43.618
321.693, 15.956
323.051, 25.307
324.408, 19.671
325.765, 15.047
327.121, 13.437
328.478, 11.855
329.834, 23.748
331.190, 1.673
332.546, 4.893
333.902, 33.449
335.257, 19.998
336.612, 43.536
337.967, 34.067
339.322, 9.592
340.677, 52.108
342.031, 19.620
343.385, 42.126
344.739, 29.622
346.093, 18.110
347.446, 42.586
348.799, 40.057
350.153, 72.521
351.505, 37.984
352.858, 45.432
354.210, 52.876
355.563, 35.319
356.915, 13.760
358.267, 23.202
359.618, 47.651
360.969, 23.106
362.321, 6.433
363.672, 1.028
365.022, 23.511
366.373, 21.037
367.723, 47.558
369.073, 19.073
370.423, 15.592
371.773, 19.108
373.122, 9.643
374.471, 12.194
375.821, 67.763
377.169, 47.344
378.518, 69.941
379.866, 69.550
381.215, 81.170
382.563, 142.807
383.910, 177.463
385.258, 236.135
386.605, 295.480
387.952, 390.535
389.299, 434.271
390.646, 488.025
391.992, 586.792
393.339, 645.575
394.685, 719.376
396.031, 755.189
397.376, 871.017
398.722, 913.857
400.067, 1079.717
401.412, 1202.588
402.757, 1320.474
404.101, 1501.376
405.446, 1565.288
406.790, 1575.211
408.134, 1583.153
409.478, 1543.108
410.821, 1468.076
412.165, 1454.060
413.508, 1303.054
414.851, 1306.062
416.193, 1203.077
417.536, 1133.102
418.878, 1116.135
420.220, 1182.180
421.562, 1159.241
422.904, 1170.310
424.245, 1305.394
425.586, 1372.486
426.927, 1434.584
428.268, 1547.691
429.609, 1561.806
430.949, 1574.932
432.289, 1636.064
433.629, 1655.210
434.969, 1567.364
436.309, 1563.540
437.648, 1513.730
438.987, 1543.925
440.326, 1530.135
441.665, 1487.355
443.003, 1534.581
444.342, 1613.817
445.680, 1675.058
447.018, 1656.317
448.355, 1764.590
449.693, 1719.872
451.030, 1757.159
452.367, 1785.462
453.704, 1840.780
455.041, 1777.106
456.377, 1815.437
457.713, 1768.772
459.049, 1756.113
460.385, 1644.456
461.721, 1545.802
463.056, 1487.156
464.391, 1362.512
465.726, 1164.871
467.061, 1125.232
468.395, 1000.601
469.730, 956.972
471.064, 935.345
472.398, 841.721
473.731, 860.098
475.065, 805.476
476.398, 823.856
477.731, 882.240
479.064, 917.627
480.397, 1007.017
481.729, 1088.408
483.062, 1072.808
484.394, 1078.207
485.725, 1058.608
487.057, 964.010
488.389, 852.414
489.720, 743.820
491.051, 632.313
492.382, 535.718
493.712, 458.982
495.043, 369.192
496.373, 308.492
497.703, 274.133
499.032, 185.157
500.362, 147.210
501.691, 164.819
503.020, 102.437
504.349, 104.481
505.678, 137.364
507.007, 72.224
508.335, 84.307
509.663, 34.094
510.991, 41.216
512.319, 69.026
513.646, 39.854
514.973, 56.546
516.300, 33.274
517.627, 38.321
518.954, 44.159
520.280, 35.558
521.607, 50.098
522.933, 65.900
524.259, 38.287
525.584, 62.654
526.910, 113.813
528.235, 162.023
529.560, 167.950
530.885, 211.418
532.209, 221.768
533.534, 295.628
534.858, 377.927
536.182, 456.892
537.506, 574.507
538.829, 714.584
540.152, 998.247
541.476, 1191.019
542.799, 1478.769
544.121, 1650.495
545.444, 1782.352
546.766, 1795.372
548.088, 1690.561
549.410, 1720.137
550.732, 1772.590
552.053, 1826.128
553.375, 2014.563
554.696, 2249.924
556.017, 2437.657
557.337, 2638.043
558.658, 2738.281
559.978, 2654.648
561.298, 2479.842
562.618, 2279.192
563.938, 1913.463
565.257, 1645.895
566.576, 1328.121
567.895, 1080.402
569.214, 945.120
570.533, 801.134
571.851, 657.611
573.170, 524.734
574.488, 495.921
575.805, 471.228
577.123, 408.677
578.440, 389.566
579.758, 450.665
581.075, 499.846
582.391, 524.906
583.708, 634.057
585.024, 747.210
586.341, 968.597
587.657, 1118.985
588.972, 1280.148
590.288, 1366.252
591.603, 1278.954
592.918, 1215.388
594.233, 1207.390
595.548, 1118.124
596.863, 1187.148
598.177, 1275.369
599.491, 1537.267
600.805, 1833.476
602.119, 2165.678
603.432, 2328.611
604.746, 2339.691
606.059, 2251.705
607.372, 1980.840
608.685, 1718.747
609.997, 1526.393
611.309, 1358.917
612.621, 1266.814
613.933, 1254.841
615.245, 1373.782
616.557, 1471.835
617.868, 1627.681
619.179, 1719.492
620.490, 1803.185
621.801, 1780.944
623.111, 1785.655
624.421, 1699.379
625.731, 1752.243
627.041, 1659.937
628.351, 1693.670
629.660, 1585.320
630.970, 1528.935
632.279, 1453.536
633.588, 1197.119
634.896, 926.462
636.205, 648.037
637.513, 509.227
638.821, 348.863
640.129, 237.782
641.437, 163.267
642.744, 158.950
644.051, 79.400
645.358, 76.303
646.665, 112.087
647.972, 56.803
649.278, 75.253
650.584, 46.623
651.890, 36.628
653.196, 15.175
654.502, 3.495
655.807, 50.187
657.113, 61.476
658.418, 21.750
659.722, 60.011
661.027, 1.393
662.331, 15.009
663.636, 4.965
664.940, 22.960
666.244, 6.192
667.547, 6.338
668.851, 25.531
670.154, 26.137
671.457, 17.744
672.760, 14.950
674.062, 42.301
675.365, 30.622
676.667, 7.632
677.969, 8.650
679.271, 5.093
680.572, 11.108
681.874, 14.708
683.175, 20.522
684.476, 18.755
685.777, 29.017
687.077, 11.821
688.378, 4.402
689.678, 3.385
690.978, 3.876
692.278, 25.765
693.577, 7.413
694.877, 21.031
696.176, 38.624
697.475, 32.195
698.774, 32.744
700.072, 33.270
701.371, 26.774
702.669, 20.254
703.967, 20.290
705.265, 39.122
706.562, 47.513
707.860, 39.884
709.157, 7.234
710.454, 55.555
711.751, 26.858
713.047, 49.137
714.344, 7.602
715.640, 48.622
716.936, 9.828
718.232, 6.006
719.527, 61.157
720.823, 37.289
722.118, 9.599
723.413, 5.478
724.708, 19.528
726.002, 7.446
727.297, 28.547
728.591, 6.520
729.885, 74.467
731.179, 36.396
732.472, 25.307
733.766, 9.197
735.059, 11.936
736.352, 44.896
737.645, 12.289
738.937, 45.492
740.230, 41.255
741.522, 20.001
742.814, 18.728
744.106, 0.565
745.397, 39.115
746.689, 10.222
747.980, 12.410
749.271, 47.978
750.562, 12.417
751.853, 39.113
753.143, 21.373
754.433, 0.895
755.723, 13.558
757.013, 7.007
758.303, 43.401
759.592, 38.207
760.881, 21.857
762.170, 8.542
763.459, 28.747
764.748, 33.979
766.036, 32.745
767.325, 7.549
768.613, 6.622
769.901, 8.776
771.188, 3.914
772.476, 12.034
773.763, 13.440
775.050, 8.769
776.337, 16.299
777.624, 26.353
778.910, 14.393
780.196, 14.580
781.482, 11.422
782.768, 2.410
784.054, 11.384
785.339, 37.345
786.625, 14.293
787.910, 21.228
789.195, 11.849
790.479, 3.054
791.764, 11.056
793.048, 1.185
794.332, 24.327
795.616, 16.505
796.900, 4.674
798.183, 13.132
799.467, 11.073
800.750, 9.293
802.033, 8.529
803.316, 22.780
804.598, 42.949
805.880, 33.364
807.163, 6.851
808.445, 19.162
809.726, 47.280
811.008, 9.317
812.289, 22.946
813.570, 17.029
814.851, 12.361
816.132, 7.256
817.413, 41.413
818.693, 25.044
819.973, 3.076
821.253, 2.292
822.533, 5.662
823.813, 20.928
825.092, 19.931
826.371, 54.194
827.650, 13.639
828.929, 13.424
830.208, 12.554
831.486, 1.238
832.764, 19.989
834.042, 4.942
835.320, 1.380
836.598, 4.843
837.875, 29.506
839.152, 19.891
840.429, 22.986
841.706, 22.313
842.983, 3.250
844.259, 15.668
845.536, 3.142
846.812, 21.939
848.088, 46.081
849.363, 44.752
850.639, 3.831
851.914, 51.793
853.189, 41.770
854.464, 33.763
855.739, 97.618
857.013, 95.303
858.288, 63.812
859.562, 52.927
860.836, 57.158
862.110, 57.297
863.383, 101.532
864.656, 103.838
865.930, 73.769
867.203, 121.048
868.475, 93.473
869.748, 122.769
871.020, 114.236
872.292, 142.540
873.564, 104.920
874.836, 78.136
876.108, 133.567
877.379, 120.946
878.650, 120.885
879.922, 123.522
881.192, 152.709
882.463, 187.245
883.733, 135.717
885.004, 111.075
886.274, 199.289
887.544, 190.059
888.813, 230.614
890.083, 241.081
891.352, 229.663
892.621, 285.150
893.890, 240.628
895.159, 345.867
896.427, 367.101
897.695, 348.555
898.964, 409.069
900.232, 457.980
901.499, 500.154
902.767, 487.755
904.034, 513.620
905.301, 527.189
906.568, 585.817
907.835, 638.243
909.102, 749.613
910.368, 829.986
911.634, 958.625
912.900, 1137.110
914.166, 1343.659
915.432, 1730.081
916.697, 2146.726
917.962, 2740.631
919.227, 3888.652
920.492, 5026.297
921.757, 6726.806
923.021, 8609.397
924.285, 10479.873
925.550, 11430.556
926.813, 11081.265
928.077, 9287.091
929.341, 6899.848
930.604, 4793.647
931.867, 3441.431
933.130, 2483.072
934.393, 2102.880
935.655, 1900.646
936.918, 1680.490
938.180, 1727.366
939.442, 1769.255
940.703, 1875.157
941.965, 1959.298
943.226, 2051.203
944.488, 2091.491
945.749, 2408.330
947.009, 2766.884
948.270, 3238.869
949.530, 3808.654
950.791, 4614.667
952.051, 5827.229
953.311, 7510.907
954.570, 9921.654
955.830, 14096.671
957.089, 19931.768
958.348, 27899.223
959.607, 36752.145
960.866, 45739.293
962.124, 52008.074
963.383, 55260.258
964.641, 57215.461
965.899, 58298.672
967.156, 60524.574
968.414, 60249.652
969.671, 58745.184
970.928, 55987.688
972.185, 50545.941
973.442, 43595.309
974.699, 35064.684
975.955, 26613.525
977.211, 18770.432
978.468, 12866.761
979.723, 9042.950
980.979, 6528.177
982.234, 5075.716
983.490, 4506.257
984.745, 3754.383
986.000, 3705.944
987.254, 3662.607
988.509, 3582.309
989.763, 3805.034
991.017, 3809.370
992.271, 3931.161
993.525, 4130.979
994.779, 4244.783
996.032, 4415.662
997.285, 4473.586
998.538, 4592.537
999.791, 4574.515
1001.044, 4796.527
1002.296, 4643.560
1003.548, 4604.619
1004.800, 4324.705
1006.052, 3988.818
1007.304, 3494.959
1008.555, 3074.131
1009.807, 2876.336
1011.058, 2759.565
1012.309, 2730.823
1013.559, 2722.103
1014.810, 2746.174
1016.060, 2745.732
1017.310, 2830.296
1018.560, 2819.662
1019.810, 2895.452
1021.060, 3009.385
1022.309, 3174.205
1023.558, 3168.234
1024.807, 3399.489
1026.056, 3397.267
1027.305, 3486.757
1028.553, 3559.942
1029.801, 3786.686
1031.049, 3904.605
1032.297, 3981.285
1033.545, 4180.571
1034.793, 4248.667
1036.040, 4053.150
1037.287, 3841.274
1038.534, 3496.063
1039.781, 3078.880
1041.027, 2647.719
1042.274, 2319.586
1043.520, 2014.472
1044.766, 1768.376
1046.012, 1635.303
1047.257, 1466.424
1048.503, 1497.673
1049.748, 1590.676
1050.993, 1529.696
1052.238, 1619.737
1053.483, 1653.813
1054.727, 1670.916
1055.971, 1773.039
1057.216, 1878.190
1058.459, 1833.362
1059.703, 1923.554
1060.947, 1834.768
1062.190, 1972.999
1063.433, 1994.261
1064.676, 1967.549
1065.919, 2040.859
1067.162, 1848.187
1068.404, 1848.544
1069.646, 1636.929
1070.888, 1538.336
1072.130, 1515.762
1073.372, 1478.205
1074.613, 1420.664
1075.855, 1487.139
1077.096, 1483.631
1078.337, 1592.144
1079.578, 1762.672
1080.818, 1813.217
1082.059, 2054.777
1083.299, 2303.358
1084.539, 2493.955
1085.779, 2756.568
1087.018, 2907.197
1088.258, 3099.839
1089.497, 3068.497
1090.736, 3028.169
1091.975, 2950.859
1093.213, 2690.565
1094.452, 2521.288
1095.690, 2426.026
1096.928, 2200.849
1098.166, 2221.622
1099.404, 2099.410
1100.642, 1947.280
1101.879, 1868.099
1103.116, 1857.968
1104.353, 1739.863
1105.590, 1738.730
1106.827, 1653.611
1108.063, 1575.562
1109.299, 1351.476
1110.536, 1210.402
1111.771, 1042.586
1113.007, 888.042
1114.243, 700.620
1115.478, 650.691
1116.713, 495.570
1117.948, 460.680
1119.183, 385.792
1120.418, 340.839
1121.652, 376.903
1122.886, 342.168
1124.120, 321.362
1125.354, 242.181
1126.588, 205.375
1127.821, 208.443
1129.055, 123.890
1130.288, 207.632
1131.521, 193.888
1132.753, 157.344
1133.986, 127.837
1135.218, 133.988
1136.450, 214.413
1137.682, 166.001
1138.914, 193.372
1140.146, 147.778
1141.377, 119.376
1142.609, 102.347
1143.840, 177.822
1145.071, 267.195
1146.301, 265.559
1147.532, 235.870
1148.762, 316.925
1149.992, 258.774
1151.222, 225.213
1152.452, 221.283
1153.682, 216.777
1154.911, 100.029
1156.140, 205.306
1157.369, 68.880
1158.598, 101.906
1159.827, 34.342
1161.055, 89.067
1162.284, 29.437
1163.512, 24.098
1164.740, 54.679
1165.967, 34.285
1167.195, 43.220
1168.422, 19.947
1169.650, 14.620
1170.877, 20.130
1172.103, 25.508
1173.330, 78.033
1174.557, 51.829
1175.783, 20.505
1177.009, 5.233
1178.235, 91.234
1179.461, 5.947
1180.686, 42.716
1181.912, 58.327
1183.137, 22.979
1184.362, 12.356
1185.587, 20.978
1186.811, 5.230
1188.036, 110.452
1189.260, 75.047
1190.484, 145.534
1191.708, 89.433
1192.932, 48.432
1194.155, 5.311
1195.378, 31.909
1196.602, 1.583
1197.825, 38.801
1199.047, 10.998
1200.270, 27.492
1201.492, 69.853
1202.715, 32.609
1203.937, 66.666
1205.159, 65.986
1206.380, 87.172
1207.602, 54.121
1208.823, 52.308
1210.044, 31.240
1211.265, 40.345
1212.486, 52.335
1213.707, 52.465
1214.927, 46.716
1216.147, 65.681
1217.367, 53.730
1218.587, 26.942
1219.807, 50.811
1221.027, 45.671
1222.246, 97.597
1223.465, 61.615
1224.684, 65.578
1225.903, 80.452
1227.121, 30.614
1228.340, 35.424
1229.558, 47.493
1230.776, 75.376
1231.994, 36.316
1233.212, 40.087
1234.429, 85.847
1235.646, 50.778
1236.864, 40.610
1238.081, 32.439
1239.297, 51.153
1240.514, 123.948
1241.730, 105.652
1242.947, 18.351
1244.163, 99.264
1245.378, 98.946
1246.594, 22.766
1247.810, 55.494
1249.025, 4.782
1250.240, 32.919
1251.455, 59.557
1252.670, 91.187
1253.885, 36.809
1255.099, 94.413
1256.313, 70.993
1257.527, 15.566
1258.741, 41.113
1259.955, 47.623
1261.168, 38.136
1262.382, 3.622
1263.595, 38.066
1264.808, 43.686
1266.021, 70.171
1267.233, 64.188
1268.446, 15.084
1269.658, 41.195
1270.870, 10.735
1272.082, 12.038
1273.294, 7.287
1274.505, 25.452
1275.716, 16.589
1276.928, 5.723
1278.139, 13.212
1279.349, 29.176
1280.560, 9.868
1281.770, 11.169
1282.981, 27.768
1284.191, 57.132
1285.401, 42.737
1286.610, 30.580
1287.820, 1.598
1289.029, 40.208
1290.239, 39.023
1291.448, 10.701
1292.656, 12.400
1293.865, 0.932
1295.073, 26.709
1296.282, 11.126
1297.490, 20.944
1298.698, 6.483
1299.906, 17.068
1301.113, 2.356
1302.320, 45.132
1303.528, 25.237
1304.735, 3.956
1305.942, 38.457
1307.148, 13.846
1308.355, 87.449
1309.561, 3.797
1310.767, 68.673
1311.973, 0.021
1313.179, 14.867
1314.384, 21.289
1315.590, 49.567
1316.795, 39.215
1318.000, 49.635
1319.205, 6.472
1320.410, 59.715
1321.614, 70.208
1322.819, 4.861
1324.023, 78.899
1325.227, 47.895
1326.431, 39.285
1327.634, 38.856
1328.838, 4.959
1330.041, 38.580
1331.244, 43.455
1332.447, 2.310
1333.650, 22.140
1334.852, 75.954
1336.055, 57.740
1337.257, 5.506
1338.459, 48.249
1339.661, 33.796
1340.862, 26.221
1342.064, 0.888
1343.265, 51.542
1344.466, 26.177
1345.667, 34.791
1346.868, 14.384
1348.068, 59.955
1349.269, 44.505
1350.469, 51.034
1351.669, 100.544
1352.869, 50.036
1354.069, 104.509
1355.268, 58.964
1356.468, 85.436
1357.667, 54.978
1358.866, 41.394
1360.065, 86.778
1361.263, 65.146
1362.462, 43.498
1363.660, 139.842
1364.858, 113.162
1366.056, 87.467
1367.254, 63.758
1368.451, 75.034
1369.649, 94.297
1370.846, 44.541
1372.043, 134.984
1373.240, 54.202
1374.436, 86.456
1375.633, 70.682
1376.829, 143.867
1378.025, 136.918
1379.221, 65.910
1380.417, 86.821
1381.613, 84.675
1382.808, 113.457
1384.003, 89.972
1385.199, 169.396
1386.393, 130.856
1387.588, 65.218
1388.783, 133.491
1389.977, 79.856
1391.171, 101.139
1392.365, 101.196
1393.559, 104.366
1394.753, 117.559
1395.946, 122.928
1397.140, 123.740
1398.333, 129.293
1399.526, 138.196
1400.719, 113.794
1401.911, 137.823
1403.104, 136.223
1404.296, 100.301
1405.488, 92.475
1406.680, 98.476
1407.872, 54.712
1409.063, 67.863
1410.255, 144.810
1411.446, 72.024
1412.637, 106.564
1413.828, 33.053
1415.018, 122.934
1416.209, 52.725
1417.399, 89.163
1418.589, 87.208
1419.779, 71.412
1420.969, 118.824
1422.159, 145.836
1423.348, 60.731
1424.537, 81.855
1425.726, 114.322
1426.915, 30.382
1428.104, 137.554
1429.293, 125.324
1430.481, 129.132
1431.669, 62.021
1432.857, 101.738
1434.045, 143.705
1435.233, 102.147
1436.420, 113.807
1437.608, 105.546
1438.795, 56.586
1439.982, 75.561
1441.169, 114.480
1442.355, 57.806
1443.542, 45.649
1444.728, 100.266
1445.914, 111.291
1447.100, 78.852
1448.286, 127.184
1449.472, 112.670
1450.657, 95.131
1451.842, 186.015
1453.027, 78.313
1454.212, 102.897
1455.397, 112.425
1456.581, 28.563
1457.766, 148.761
1458.950, 201.892
1460.134, 63.065
1461.318, 133.249
1462.501, 107.397
1463.685, 104.496
1464.868, 125.617
1466.051, 81.742
1467.234, 141.208
1468.417, 90.335
1469.600, 126.994
1470.782, 71.060
1471.965, 114.500
1473.147, 150.963
1474.329, 99.411
1475.510, 90.038
1476.692, 37.115
1477.873, 84.758
1479.055, 134.365
1480.236, 65.063
1481.416, 143.789
1482.597, 46.430
1483.778, 113.090
1484.958, 69.570
1486.138, 68.238
1487.318, 61.915
1488.498, 67.087
1489.678, 78.275
1490.857, 116.543
1492.037, 95.255
1493.216, 146.003
1494.395, 103.795
1495.574, 37.637
1496.752, 50.562
1497.931, 26.572
1499.109, 11.407
1500.287, 31.745
1501.465, 41.867
1502.643, 38.307
1503.820, 62.353
1504.998, 33.980
1506.175, 62.979
1507.352, 47.584
1508.529, 111.209
1509.706, 87.954
1510.882, 71.829
1512.059, 55.066
1513.235, 10.118
1514.411, 53.988
1515.587, 33.099
1516.762, 39.424
1517.938, 93.071
1519.113, 22.946
1520.288, 48.616
1521.463, 28.115
1522.638, 1.767
1523.813, 0.000
##END=



