##NAMES=Bobdownsite
##RRUFFID=R100215
##IDEAL CHEMISTRY=Ca_9_Mg(PO_4_)_6_(PO_3_F)
##LOCALITY=Tip Top mine, Custer County, South Dakota, USA
##OWNER=RRUFF
##SOURCE=Tom Loomis, Dakota Matrix Minerals 
##DESCRIPTION=Crust of colorless crystals on quartz
##STATUS=The identification of this mineral is confirmed by single-crystal X-ray diffraction and chemical analysis.
##URL=rruff.info/R100215
##MEASURED CHEMISTRY=Ca_9.00_(Mg_0.89_Na_0.07_Sr_0.01_)_Σ=0.97_(P_1.00_O_4_)_6_(P_0.88_O_3_(F_0.74_(OH)_0.26_)_Σ=1.00_)
169.6203, 0.0000000E+00
170.1024, 0.9390260
170.5845, 3.8573999E-02
171.0666, 1.599915
171.5487, 1.235779
172.0309, 0.1865230
172.5130, 0.8487550
172.9951, 0.9090580
173.4772, 4.123047
173.9593, 7.337524
174.4414, 10.17383
174.9236, 12.58539
175.4057, 14.33655
175.8878, 15.44611
176.3699, 16.29297
176.8520, 17.02380
177.3341, 17.73035
177.8163, 18.63934
178.2984, 19.99451
178.7805, 21.51495
179.2626, 22.84430
179.7447, 23.93811
180.2268, 24.75800
180.7090, 25.33069
181.1911, 25.59760
181.6732, 25.34045
182.1553, 24.07318
182.6374, 22.26630
183.1195, 20.79529
183.6017, 19.62592
184.0838, 19.03809
184.5659, 19.64740
185.0480, 21.23981
185.5301, 22.82477
186.0123, 23.58295
186.4944, 23.91602
186.9765, 25.30243
187.4586, 28.05115
187.9407, 30.92584
188.4228, 31.91223
188.9050, 31.18085
189.3871, 30.62946
189.8692, 30.42487
190.3513, 30.92084
190.8334, 35.04535
191.3155, 44.04626
191.7977, 53.73346
192.2798, 56.42578
192.7619, 52.15796
193.2440, 48.09631
193.7261, 48.36127
194.2082, 52.56091
194.6904, 56.30396
195.1725, 59.57751
195.6546, 61.96826
196.1367, 61.92328
196.6188, 59.22388
197.1009, 57.06104
197.5831, 57.50836
198.0652, 60.55444
198.5473, 63.08221
199.0294, 64.91644
199.5115, 66.13623
199.9937, 67.19238
200.4758, 68.26752
200.9579, 67.97064
201.4400, 64.66974
201.9221, 58.00281
202.4042, 53.30280
202.8864, 50.91437
203.3685, 50.56836
203.8506, 52.50818
204.3327, 57.58032
204.8148, 61.42627
205.2969, 60.86810
205.7791, 55.04938
206.2612, 51.27325
206.7433, 50.60840
207.2254, 51.72070
207.7075, 50.92108
208.1896, 47.44653
208.6718, 44.28375
209.1539, 43.31665
209.6360, 45.11267
210.1181, 46.30573
210.6002, 46.80011
211.0823, 46.56146
211.5645, 45.36456
212.0466, 42.96289
212.5287, 40.21198
213.0108, 37.29742
213.4929, 33.78784
213.9750, 31.87518
214.4572, 32.21503
214.9393, 34.01166
215.4214, 34.94226
215.9035, 34.80194
216.3856, 34.20459
216.8678, 33.24017
217.3499, 31.39795
217.8320, 30.97461
218.3141, 32.95282
218.7962, 36.13763
219.2783, 36.50757
219.7605, 32.74097
220.2426, 28.52887
220.7247, 25.80829
221.2068, 24.94586
221.6889, 24.60522
222.1710, 25.17975
222.6532, 26.14490
223.1353, 25.60455
223.6174, 22.51721
224.0995, 19.66516
224.5816, 18.48853
225.0637, 19.48218
225.5459, 21.01721
226.0280, 23.73859
226.5101, 26.83258
226.9922, 27.42371
227.4743, 23.56976
227.9564, 19.87402
228.4386, 18.80804
228.9207, 22.29816
229.4028, 23.64520
229.8849, 21.81525
230.3670, 17.99298
230.8492, 15.49390
231.3313, 14.69153
231.8134, 14.62885
232.2955, 14.91919
232.7776, 15.60571
233.2597, 16.61053
233.7419, 18.33069
234.2240, 20.27716
234.7061, 20.95062
235.1882, 19.32086
235.6703, 18.00952
236.1524, 18.31927
236.6346, 21.49084
237.1167, 23.38672
237.5988, 23.42627
238.0809, 22.41541
238.5630, 22.35883
239.0451, 24.19873
239.5273, 25.55164
240.0094, 25.20465
240.4915, 21.94647
240.9736, 20.12585
241.4557, 20.07678
241.9378, 21.27734
242.4200, 22.82819
242.9021, 25.53674
243.3842, 27.33386
243.8663, 27.12048
244.3484, 23.70471
244.8306, 21.92657
245.3127, 22.58032
245.7948, 24.46216
246.2769, 25.21332
246.7590, 23.75500
247.2411, 23.00909
247.7233, 24.36658
248.2054, 28.90216
248.6875, 31.44537
249.1696, 31.09442
249.6517, 29.35077
250.1338, 28.60797
250.6160, 29.16638
251.0981, 30.20929
251.5802, 31.62012
252.0623, 33.57953
252.5444, 34.99689
253.0265, 35.60431
253.5087, 35.88562
253.9908, 36.54510
254.4729, 37.83636
254.9550, 39.00891
255.4371, 39.83026
255.9192, 40.24756
256.4014, 40.70642
256.8835, 41.28351
257.3656, 41.82562
257.8477, 42.05969
258.3298, 41.61902
258.8120, 41.71527
259.2941, 42.84210
259.7762, 45.09601
260.2583, 46.74060
260.7404, 47.67749
261.2225, 48.29730
261.7047, 48.73596
262.1868, 48.54364
262.6689, 49.38898
263.1510, 52.19501
263.6331, 56.82959
264.1152, 59.23456
264.5974, 58.54779
265.0795, 57.03162
265.5616, 56.74060
266.0437, 57.86206
266.5258, 59.46204
267.0079, 61.53900
267.4901, 64.09338
267.9722, 65.38623
268.4543, 65.26123
268.9364, 64.33392
269.4185, 62.73358
269.9006, 60.03198
270.3828, 58.41138
270.8649, 58.27008
271.3470, 59.37311
271.8291, 60.72144
272.3112, 62.50629
272.7933, 64.14032
273.2755, 64.90570
273.7576, 64.70245
274.2397, 64.94946
274.7218, 66.06317
275.2039, 67.86438
275.6860, 69.60895
276.1682, 71.09393
276.6503, 72.69653
277.1324, 74.87988
277.6145, 77.83057
278.0966, 79.87122
278.5787, 80.90393
279.0609, 81.35034
279.5430, 82.14532
280.0251, 83.21606
280.5072, 84.45111
280.9893, 86.10413
281.4715, 88.20380
281.9536, 89.26428
282.4357, 88.94116
282.9178, 87.99438
283.3999, 87.96613
283.8820, 88.95013
284.3642, 89.22638
284.8463, 87.46948
285.3284, 83.84119
285.8105, 80.98596
286.2926, 78.86334
286.7747, 77.40692
287.2569, 77.02222
287.7390, 77.66187
288.2211, 77.37183
288.7032, 74.66589
289.1853, 70.21820
289.6674, 67.16132
290.1496, 65.65790
290.6317, 64.46655
291.1138, 62.09131
291.5959, 58.73450
292.0780, 55.67780
292.5602, 53.29742
293.0423, 51.47284
293.5244, 50.11511
294.0065, 49.29022
294.4886, 48.22614
294.9707, 46.02832
295.4529, 42.99518
295.9350, 40.24384
296.4171, 38.05646
296.8992, 36.27856
297.3813, 34.62982
297.8634, 33.13159
298.3456, 31.96265
298.8277, 32.17676
299.3098, 32.79291
299.7919, 31.29047
300.2740, 26.27167
300.7561, 20.52100
301.2383, 17.98486
301.7204, 18.11212
302.2025, 18.57831
302.6846, 17.74493
303.1667, 16.36511
303.6488, 15.73560
304.1310, 16.33832
304.6131, 16.82581
305.0952, 15.31348
305.5773, 12.52313
306.0594, 10.41467
306.5415, 10.67047
307.0237, 11.83423
307.5058, 12.34583
307.9879, 12.08997
308.4700, 11.30951
308.9521, 9.703308
309.4343, 7.741516
309.9164, 6.217590
310.3985, 5.576111
310.8806, 5.417419
311.3627, 5.585999
311.8448, 6.078674
312.3270, 6.460205
312.8091, 6.638123
313.2912, 6.488831
313.7733, 5.890503
314.2554, 4.080505
314.7375, 2.432617
315.2197, 1.819580
315.7018, 2.129272
316.1839, 2.412720
316.6660, 2.420044
317.1481, 2.128601
317.6302, 1.467041
318.1124, 0.5498660
318.5945, 1.740173
319.0766, 0.7031860
319.5587, 1.905701
320.0408, 3.827209
320.5229, 4.271667
321.0051, 3.890320
321.4872, 2.939209
321.9693, 0.9945070
322.4514, 0.6267090
322.9335, 2.017212
323.4156, 2.882324
323.8978, 2.653381
324.3799, 0.7133790
324.8620, 3.502319
325.3441, 4.183411
325.8262, 1.878662
326.3083, 0.1205440
326.7905, 1.696106
327.2726, 2.798523
327.7547, 3.351196
328.2368, 2.707153
328.7189, 2.197449
329.2010, 2.328857
329.6832, 3.249634
330.1653, 3.110718
330.6474, 0.3245850
331.1295, 2.379395
331.6116, 2.647461
332.0938, 1.882080
332.5759, 5.097717
333.0580, 6.023804
333.5401, 4.910095
334.0222, 3.388245
334.5043, 0.6105960
334.9865, 1.430298
335.4686, 1.144714
335.9507, 3.101318
336.4328, 5.065674
336.9149, 3.536682
337.3970, 4.4617001E-02
337.8792, 1.681641
338.3613, 0.8492430
338.8434, 0.3429570
339.3255, 0.8825070
339.8076, 0.6166380
340.2898, 0.9203490
340.7719, 1.964050
341.2540, 3.265686
341.7361, 4.298950
342.2182, 5.097229
342.7003, 5.095642
343.1825, 3.495972
343.6646, 0.7454220
344.1467, 0.3682860
344.6288, 2.746765
345.1109, 5.548218
345.5930, 6.267334
346.0752, 5.098328
346.5573, 4.101868
347.0394, 3.982056
347.5215, 4.163086
348.0036, 3.159424
348.4857, 1.004700
348.9679, 1.224792
349.4500, 3.157593
349.9321, 4.579773
350.4142, 4.518616
350.8963, 2.249329
351.3784, 3.9611999E-02
351.8606, 1.255920
352.3427, 5.226013
352.8248, 8.541748
353.3069, 8.467957
353.7890, 6.924561
354.2711, 6.675415
354.7533, 8.059143
355.2354, 9.565369
355.7175, 9.970703
356.1996, 9.595581
356.6817, 8.997620
357.1638, 8.099365
357.6460, 7.290405
358.1281, 7.089905
358.6102, 7.425476
359.0923, 7.385193
359.5744, 6.058228
360.0565, 4.275208
360.5387, 2.822266
361.0208, 1.766846
361.5029, 1.269592
361.9850, 2.077515
362.4671, 3.633972
362.9492, 4.203979
363.4314, 1.768433
363.9135, 0.7834470
364.3956, 1.723755
364.8777, 5.2306999E-02
365.3598, 1.409668
365.8419, 1.889465
366.3241, 1.847229
366.8062, 1.964661
367.2883, 2.918579
367.7704, 3.477783
368.2526, 3.121765
368.7347, 1.604980
369.2168, 0.5275270
369.6989, 0.4021610
370.1810, 0.7017820
370.6631, 0.1121830
371.1453, 3.451782
371.6274, 5.783875
372.1095, 6.348633
372.5916, 5.452515
373.0737, 5.067566
373.5558, 5.152954
374.0380, 5.803040
374.5201, 7.188843
375.0022, 9.561035
375.4843, 11.85040
375.9664, 14.16980
376.4485, 16.11829
376.9307, 16.76648
377.4128, 15.70746
377.8949, 15.11566
378.3770, 16.09167
378.8591, 18.53394
379.3412, 20.68048
379.8234, 22.52661
380.3055, 23.89142
380.7876, 24.22363
381.2697, 23.65546
381.7518, 23.97107
382.2339, 26.06586
382.7161, 29.14227
383.1982, 31.76678
383.6803, 33.93274
384.1624, 36.04926
384.6445, 38.15247
385.1266, 40.47339
385.6088, 43.65985
386.0909, 48.00885
386.5730, 52.85822
387.0551, 57.25922
387.5372, 61.35626
388.0193, 65.87549
388.5015, 71.30219
388.9836, 77.37122
389.4657, 83.93097
389.9478, 90.79639
390.4299, 97.45251
390.9120, 103.2424
391.3942, 109.0509
391.8763, 115.7510
392.3584, 124.3818
392.8405, 133.3490
393.3226, 141.5389
393.8047, 148.9650
394.2869, 156.9031
394.7690, 166.3560
395.2511, 176.5827
395.7332, 186.8677
396.2154, 196.8298
396.6975, 207.1165
397.1796, 217.9790
397.6617, 229.4451
398.1438, 241.3317
398.6259, 252.7712
399.1081, 265.4456
399.5902, 280.2796
400.0723, 297.7098
400.5544, 314.3918
401.0365, 329.1221
401.5186, 344.2922
402.0008, 361.6398
402.4829, 382.8453
402.9650, 402.6915
403.4471, 420.5803
403.9292, 436.9895
404.4113, 453.0398
404.8935, 468.9655
405.3756, 484.0258
405.8577, 498.2156
406.3398, 511.6503
406.8219, 523.5080
407.3040, 534.5447
407.7862, 542.3301
408.2683, 542.6894
408.7504, 535.4854
409.2325, 526.0687
409.7146, 515.8779
410.1967, 505.0670
410.6789, 493.6599
411.1610, 481.6823
411.6431, 468.7179
412.1252, 454.2491
412.6073, 438.5778
413.0894, 422.3302
413.5716, 405.4664
414.0537, 389.1919
414.5358, 375.2639
415.0179, 363.3997
415.5000, 352.2207
415.9821, 340.6943
416.4643, 329.7463
416.9464, 320.7493
417.4285, 313.9520
417.9106, 307.1754
418.3927, 298.8014
418.8748, 289.6797
419.3570, 280.9744
419.8391, 272.5543
420.3212, 265.0325
420.8033, 258.8677
421.2854, 253.8839
421.7675, 249.0809
422.2497, 244.3852
422.7318, 239.6897
423.2139, 234.8099
423.6960, 229.3494
424.1781, 224.5944
424.6602, 220.5742
425.1424, 217.4111
425.6245, 215.3768
426.1066, 215.8196
426.5887, 215.6611
427.0709, 213.7060
427.5530, 209.9453
428.0351, 208.3367
428.5172, 209.8307
428.9993, 212.1611
429.4814, 213.8475
429.9636, 214.9033
430.4457, 215.2045
430.9278, 214.6599
431.4099, 213.4271
431.8920, 211.7014
432.3741, 209.3928
432.8563, 207.1765
433.3384, 205.4496
433.8205, 204.1100
434.3026, 202.6831
434.7847, 201.2263
435.2668, 199.2023
435.7490, 196.0547
436.2311, 191.8672
436.7132, 186.8872
437.1953, 180.6487
437.6774, 174.3862
438.1595, 169.8043
438.6417, 166.6401
439.1238, 163.8025
439.6059, 160.6772
440.0880, 157.5271
440.5701, 154.6444
441.0522, 152.0723
441.5344, 149.6400
442.0165, 147.4700
442.4986, 145.3062
442.9807, 142.8419
443.4628, 139.3536
443.9449, 136.1533
444.4271, 134.0483
444.9092, 132.8217
445.3913, 131.1019
445.8734, 127.4462
446.3555, 124.1185
446.8376, 122.2513
447.3198, 122.2048
447.8019, 123.1133
448.2840, 126.3047
448.7661, 129.8751
449.2482, 131.0336
449.7303, 127.8693
450.2125, 125.3984
450.6946, 124.7602
451.1767, 125.9018
451.6588, 127.3277
452.1409, 129.1897
452.6230, 130.9586
453.1052, 132.1198
453.5873, 132.5784
454.0694, 133.2694
454.5515, 134.3190
455.0337, 135.6944
455.5158, 137.0703
455.9979, 138.4415
456.4800, 140.3038
456.9621, 142.9749
457.4442, 146.2019
457.9264, 149.3828
458.4085, 152.5458
458.8906, 156.2816
459.3727, 161.3432
459.8548, 167.3657
460.3369, 173.4620
460.8191, 179.1764
461.3012, 185.3035
461.7833, 193.1983
462.2654, 202.1650
462.7475, 210.6462
463.2296, 219.0864
463.7118, 226.0548
464.1939, 230.7448
464.6760, 233.0287
465.1581, 233.0581
465.6402, 230.7856
466.1223, 226.5414
466.6045, 220.5566
467.0866, 212.6265
467.5687, 203.2686
468.0508, 191.4315
468.5329, 178.1616
469.0150, 165.6705
469.4972, 153.8463
469.9793, 143.2219
470.4614, 134.3817
470.9435, 127.3589
471.4256, 119.8215
471.9077, 111.2386
472.3899, 103.2925
472.8720, 97.72046
473.3541, 94.64160
473.8362, 91.83484
474.3183, 88.92285
474.8004, 86.19470
475.2826, 84.43854
475.7647, 83.57904
476.2468, 82.57324
476.7289, 80.86853
477.2110, 78.62909
477.6931, 76.04834
478.1753, 73.11835
478.6574, 70.48676
479.1395, 68.55365
479.6216, 67.29431
480.1037, 66.83234
480.5858, 67.80194
481.0680, 68.44336
481.5501, 66.69055
482.0322, 63.75848
482.5143, 62.19745
482.9964, 64.35663
483.4786, 66.96173
483.9607, 68.78461
484.4428, 69.74652
484.9249, 69.48065
485.4070, 67.31689
485.8892, 64.28491
486.3713, 61.03857
486.8534, 56.41479
487.3355, 53.44049
487.8176, 53.15082
488.2997, 54.22974
488.7819, 53.82855
489.2640, 51.45758
489.7461, 48.65448
490.2282, 45.81976
490.7103, 42.93152
491.1924, 40.09192
491.6746, 37.23895
492.1567, 34.58386
492.6388, 32.41339
493.1209, 30.64935
493.6030, 28.99585
494.0851, 27.50739
494.5673, 25.76208
495.0494, 22.94672
495.5315, 19.29742
496.0136, 15.77899
496.4957, 12.16595
496.9778, 9.299866
497.4600, 8.539612
497.9421, 9.682190
498.4242, 10.64673
498.9063, 10.18939
499.3884, 9.015808
499.8705, 7.707825
500.3527, 6.395691
500.8348, 4.935242
501.3169, 2.806885
501.7990, 0.6549680
502.2811, 0.6184690
502.7632, 0.1707760
503.2454, 0.7838750
503.7275, 0.5545040
504.2096, 0.4046630
504.6917, 0.8456420
505.1738, 0.3081670
505.6559, 0.1455690
506.1381, 0.1605830
506.6202, 1.565796
507.1023, 2.213684
507.5844, 1.820496
508.0665, 1.165588
508.5486, 1.430725
509.0308, 2.645325
509.5129, 3.638855
509.9950, 4.148560
510.4771, 4.242249
510.9592, 3.766113
511.4413, 2.827942
511.9235, 2.325317
512.4056, 3.386108
512.8877, 5.046875
513.3698, 5.909424
513.8519, 5.858826
514.3340, 5.265076
514.8162, 3.956604
515.2983, 2.420105
515.7804, 1.211243
516.2625, 0.1549680
516.7446, 0.1303710
517.2267, 1.391113
517.7089, 3.880859
518.1910, 5.273865
518.6731, 3.814880
519.1552, 2.402771
519.6373, 2.108276
520.1194, 3.030273
520.6016, 4.020020
521.0837, 5.677063
521.5658, 6.737244
522.0479, 6.016785
522.5300, 2.798096
523.0121, 0.4943850
523.4943, 0.5228270
523.9764, 0.7147220
524.4585, 0.6524050
524.9406, 0.3175050
525.4227, 0.5395510
525.9048, 2.134583
526.3870, 4.238281
526.8691, 4.242004
527.3513, 2.302002
527.8334, 0.7442020
528.3155, 1.440491
528.7976, 3.486633
529.2797, 5.791321
529.7618, 8.351318
530.2440, 10.40247
530.7261, 11.02905
531.2082, 10.92548
531.6903, 10.96753
532.1724, 10.85736
532.6545, 11.54712
533.1367, 14.29907
533.6188, 18.27960
534.1009, 20.62415
534.5830, 18.29730
535.0651, 16.78503
535.5472, 18.20453
536.0294, 23.11578
536.5115, 27.07117
536.9936, 29.89813
537.4757, 32.02063
537.9578, 33.45398
538.4399, 33.91656
538.9221, 35.70105
539.4042, 39.35992
539.8863, 43.91907
540.3684, 47.83252
540.8505, 51.11816
541.3326, 53.96387
541.8148, 56.05658
542.2969, 57.97858
542.7790, 60.89862
543.2611, 64.72131
543.7432, 68.76123
544.2253, 73.00366
544.7075, 76.99182
545.1896, 80.19019
545.6717, 82.44708
546.1538, 84.37518
546.6359, 86.02301
547.1180, 87.61096
547.6002, 89.34943
548.0823, 90.99829
548.5644, 93.13806
549.0465, 96.40704
549.5286, 100.2775
550.0107, 103.1780
550.4929, 104.4417
550.9750, 105.7329
551.4571, 107.6934
551.9392, 110.3336
552.4213, 112.3671
552.9034, 113.8227
553.3856, 114.6233
553.8677, 114.7820
554.3498, 114.2758
554.8319, 112.6014
555.3140, 109.4833
555.7961, 106.0169
556.2783, 103.7986
556.7604, 102.4319
557.2425, 100.7694
557.7246, 97.72961
558.2067, 94.90857
558.6888, 94.44489
559.1710, 95.66394
559.6531, 96.26971
560.1352, 94.24170
560.6173, 91.98907
561.0994, 91.31934
561.5815, 92.69983
562.0637, 92.72998
562.5458, 89.68213
563.0279, 85.75079
563.5100, 82.47437
563.9921, 80.11639
564.4742, 77.88965
564.9564, 76.08099
565.4385, 74.25183
565.9206, 71.28119
566.4027, 66.72827
566.8848, 62.99817
567.3669, 61.12524
567.8491, 60.46082
568.3312, 59.05127
568.8133, 56.94922
569.2954, 54.41754
569.7775, 51.04742
570.2596, 47.39185
570.7418, 44.99493
571.2239, 44.03333
571.7060, 42.79846
572.1881, 39.25427
572.6702, 35.11633
573.1523, 32.36987
573.6345, 32.60217
574.1166, 32.25909
574.5987, 28.91443
575.0808, 24.21838
575.5629, 20.97308
576.0450, 22.27606
576.5272, 22.44781
577.0093, 19.44568
577.4914, 13.98248
577.9735, 11.27972
578.4556, 12.37634
578.9377, 14.09564
579.4199, 15.29517
579.9020, 16.08197
580.3841, 15.67261
580.8662, 13.85205
581.3483, 11.60883
581.8304, 9.582642
582.3126, 7.923096
582.7947, 7.223267
583.2768, 7.717285
583.7589, 8.978821
584.2410, 10.70270
584.7231, 12.75360
585.2053, 14.86780
585.6874, 17.35840
586.1696, 19.44971
586.6517, 20.61707
587.1338, 20.92828
587.6159, 20.84467
588.0980, 19.37677
588.5801, 18.49689
589.0623, 19.41187
589.5444, 22.53809
590.0265, 24.53137
590.5086, 24.93762
590.9907, 24.80078
591.4728, 24.80688
591.9550, 24.91150
592.4371, 25.64716
592.9192, 27.25891
593.4013, 29.06000
593.8834, 30.05005
594.3655, 30.31189
594.8477, 30.33875
595.3298, 30.09344
595.8119, 29.91638
596.2940, 30.27551
596.7761, 31.12268
597.2582, 32.30756
597.7404, 34.19116
598.2225, 36.02557
598.7046, 37.07678
599.1867, 37.30713
599.6688, 37.94806
600.1509, 39.77960
600.6331, 41.82654
601.1152, 43.46094
601.5973, 44.51727
602.0794, 45.47986
602.5615, 46.08020
603.0436, 46.83539
603.5258, 48.61658
604.0079, 51.83276
604.4900, 53.75848
604.9721, 53.61438
605.4542, 52.46857
605.9363, 52.24542
606.4185, 52.92474
606.9006, 54.28870
607.3827, 56.73224
607.8648, 59.47839
608.3469, 61.32831
608.8290, 62.39276
609.3112, 63.17517
609.7933, 63.50922
610.2754, 64.07318
610.7575, 65.45288
611.2396, 67.60291
611.7217, 70.33759
612.2039, 73.63910
612.6860, 77.20453
613.1681, 80.98090
613.6502, 85.70911
614.1323, 89.39838
614.6144, 91.60730
615.0966, 93.09961
615.5787, 94.76263
616.0608, 96.38812
616.5429, 99.53137
617.0250, 105.0195
617.5071, 111.7235
617.9893, 117.0024
618.4714, 121.1287
618.9535, 124.9830
619.4356, 128.4990
619.9177, 132.0502
620.3998, 136.8045
620.8820, 142.6469
621.3641, 148.2653
621.8462, 152.6890
622.3283, 156.8580
622.8104, 161.5240
623.2925, 167.0496
623.7747, 172.0596
624.2568, 176.2457
624.7389, 179.8204
625.2210, 182.9005
625.7031, 185.1762
626.1852, 187.6862
626.6674, 190.6342
627.1495, 193.5687
627.6316, 195.5867
628.1137, 196.6491
628.5958, 197.8770
629.0779, 199.9736
629.5601, 201.9993
630.0422, 201.8481
630.5243, 199.8551
631.0064, 197.5700
631.4885, 196.2049
631.9706, 194.7242
632.4528, 192.8285
632.9349, 190.3227
633.4170, 185.2715
633.8991, 175.1378
634.3812, 163.4871
634.8633, 152.1760
635.3455, 141.4657
635.8276, 131.3276
636.3097, 122.6777
636.7918, 113.7444
637.2739, 102.4558
637.7560, 87.64691
638.2382, 75.63232
638.7203, 67.36987
639.2024, 61.34021
639.6845, 55.62006
640.1666, 50.10712
640.6487, 44.18335
641.1309, 37.00232
641.6130, 30.10516
642.0951, 25.92529
642.5772, 23.88452
643.0594, 22.55695
643.5415, 21.86188
644.0236, 21.10291
644.5057, 19.55957
644.9879, 17.36523
645.4700, 15.90240
645.9521, 17.13489
646.4342, 17.65460
646.9163, 15.68286
647.3984, 10.65362
647.8806, 7.025452
648.3627, 5.139160
648.8448, 4.000854
649.3269, 2.880981
649.8090, 1.790100
650.2911, 0.7518920
650.7733, 0.2789920
651.2554, 1.075012
651.7375, 1.399841
652.2196, 1.288940
652.7017, 0.7834470
653.1838, 0.2888180
653.6660, 1.365784
654.1481, 2.045349
654.6302, 2.403992
655.1123, 2.591125
655.5944, 2.449402
656.0765, 2.325928
656.5587, 2.352966
657.0408, 2.476868
657.5229, 2.438660
658.0050, 1.922546
658.4871, 1.789246
658.9692, 2.615356
659.4514, 4.223694
659.9335, 4.385864
660.4156, 2.914124
660.8977, 1.546448
661.3798, 1.967529
661.8619, 3.424500
662.3441, 3.807556
662.8262, 2.980774
663.3083, 1.889404
663.7904, 1.025696
664.2725, 0.4487920
664.7546, 0.2319340
665.2368, 0.4457400
665.7189, 0.8986210
666.2010, 2.537109
666.6831, 3.962097
667.1652, 3.445618
667.6473, 0.8299560
668.1295, 4.088318
668.6116, 6.099976
669.0937, 6.893677
669.5758, 6.209839
670.0579, 3.871216
670.5400, 1.620667
671.0222, 0.1807860
671.5043, 1.407898
671.9864, 1.524902
672.4685, 0.7310180
672.9506, 4.3579001E-02
673.4327, 0.1745000
673.9149, 0.5413210
674.3970, 0.7844850
674.8791, 0.8436280
675.3612, 0.4448240
675.8433, 1.741394
676.3254, 3.379883
676.8076, 2.944397
677.2897, 8.4105998E-02
677.7718, 2.416931
678.2539, 3.953125
678.7360, 4.937561
679.2181, 5.355713
679.7003, 5.116516
680.1824, 5.456238
680.6645, 6.534180
681.1466, 7.688599
681.6287, 8.620178
682.1108, 9.053467
682.5930, 7.707642
683.0751, 3.567139
683.5572, 0.2185670
684.0393, 1.924683
684.5214, 5.950562
685.0035, 8.392822
685.4857, 6.497131
685.9678, 4.630859
686.4499, 3.778381
686.9320, 3.622925
687.4141, 3.639099
687.8962, 3.872070
688.3784, 4.346069
688.8605, 5.221680
689.3426, 6.288513
689.8247, 6.880310
690.3068, 7.015991
690.7889, 6.668701
691.2711, 5.353455
691.7532, 3.769958
692.2353, 3.553223
692.7174, 4.505249
693.1995, 5.400208
693.6816, 5.309143
694.1638, 5.031921
694.6459, 5.425659
695.1280, 6.612671
695.6101, 7.021362
696.0922, 4.752258
696.5743, 2.622314
697.0565, 2.589966
697.5386, 5.527588
698.0207, 7.142212
698.5028, 7.086792
698.9849, 6.474609
699.4670, 6.482605
699.9492, 7.000061
700.4313, 6.600525
700.9135, 4.945129
701.3956, 3.304871
701.8777, 3.083313
702.3598, 3.824707
702.8419, 4.833740
703.3240, 6.174561
703.8062, 7.186218
704.2883, 7.140808
704.7704, 6.642212
705.2525, 6.580078
705.7346, 7.542664
706.2167, 8.394104
706.6989, 9.025146
707.1810, 9.495117
707.6631, 10.12457
708.1452, 11.09686
708.6273, 10.98315
709.1094, 8.771851
709.5916, 5.774048
710.0737, 5.325317
710.5558, 7.007263
711.0379, 8.518738
711.5200, 8.024292
712.0021, 7.204529
712.4843, 7.733582
712.9664, 9.361877
713.4485, 10.70306
713.9306, 11.32080
714.4127, 11.43011
714.8948, 11.03290
715.3770, 10.13843
715.8591, 8.930603
716.3412, 7.074524
716.8233, 5.572266
717.3054, 5.123108
717.7875, 5.687012
718.2697, 6.301758
718.7518, 6.992859
719.2339, 7.411133
719.7160, 7.289246
720.1981, 6.720459
720.6802, 5.580994
721.1624, 3.773865
721.6445, 2.523499
722.1266, 3.067200
722.6087, 4.186218
723.0908, 4.873474
723.5729, 4.981079
724.0551, 4.549377
724.5372, 3.029297
725.0193, 1.486877
725.5014, 0.9510500
725.9835, 1.387878
726.4656, 2.334229
726.9478, 4.113525
727.4299, 5.785950
727.9120, 5.544128
728.3941, 4.024902
728.8762, 3.277039
729.3583, 4.013550
729.8405, 5.059998
730.3226, 5.471558
730.8047, 5.514709
731.2868, 5.669739
731.7689, 6.874390
732.2510, 7.174805
732.7332, 5.080994
733.2153, 2.040100
733.6974, 1.012207
734.1795, 2.943665
734.6616, 4.503052
735.1437, 4.934082
735.6259, 4.490967
736.1080, 4.144287
736.5901, 3.884399
737.0722, 3.632935
737.5543, 3.148254
738.0364, 2.799194
738.5186, 3.284729
739.0007, 4.327393
739.4828, 4.980103
739.9649, 4.517090
740.4470, 3.875183
740.9291, 3.567566
741.4113, 3.538269
741.8934, 2.996277
742.3755, 1.606750
742.8576, 0.2637330
743.3397, 0.8676760
743.8218, 1.689209
744.3040, 0.9548950
744.7861, 1.383728
745.2682, 3.197021
745.7503, 2.209534
746.2324, 0.1043700
746.7145, 0.1214600
747.1967, 1.500305
747.6788, 2.822266
748.1609, 2.333435
748.6430, 1.331665
749.1251, 0.5338130
749.6072, 5.6580000E-02
750.0894, 6.8542004E-02
750.5715, 1.566528
751.0536, 2.925110
751.5357, 3.164795
752.0178, 2.219788
752.4999, 0.6317140
752.9821, 1.846802
753.4642, 3.367065
753.9463, 0.9428710
754.4284, 3.392700
754.9105, 5.283386
755.3926, 3.978088
755.8748, 2.491699
756.3569, 3.158264
756.8390, 4.291626
757.3211, 4.236267
757.8032, 1.625793
758.2853, 0.3289180
758.7675, 1.187744
759.2496, 2.771851
759.7318, 3.871887
760.2139, 4.436951
760.6960, 4.670837
761.1781, 4.502136
761.6602, 4.303284
762.1423, 4.631714
762.6245, 5.291382
763.1066, 5.883484
763.5887, 6.464478
764.0708, 6.504395
764.5529, 4.930969
765.0350, 2.890137
765.5172, 1.738098
765.9993, 2.613953
766.4814, 3.253357
766.9635, 3.210815
767.4456, 3.076050
767.9277, 3.721802
768.4099, 5.306641
768.8920, 6.682922
769.3741, 7.768433
769.8562, 8.316101
770.3383, 7.598206
770.8204, 6.094482
771.3026, 5.021240
771.7847, 4.720093
772.2668, 4.894287
772.7489, 6.156311
773.2310, 7.577759
773.7131, 7.680847
774.1953, 4.560059
774.6774, 2.186035
775.1595, 0.9464720
775.6416, 0.7102660
776.1237, 1.619568
776.6058, 3.961243
777.0880, 5.127502
777.5701, 4.200378
778.0522, 2.331726
778.5343, 1.181885
779.0164, 0.6740110
779.4985, 0.5934450
779.9807, 1.085449
780.4628, 1.663574
780.9449, 1.892456
781.4270, 1.999939
781.9091, 2.477478
782.3912, 3.572021
782.8734, 4.848877
783.3555, 6.419434
783.8376, 8.085266
784.3197, 9.273315
784.8018, 9.983643
785.2839, 10.48065
785.7661, 10.81250
786.2482, 11.00427
786.7303, 11.60297
787.2124, 12.13354
787.6945, 11.25214
788.1766, 5.635925
788.6588, 1.177673
789.1409, 2.268921
789.6230, 6.874573
790.1051, 8.986572
790.5872, 6.051086
791.0693, 3.762939
791.5515, 3.407349
792.0336, 4.476746
792.5157, 5.489075
792.9978, 6.512207
793.4799, 7.573120
793.9620, 9.014038
794.4442, 10.15411
794.9263, 9.391357
795.4084, 7.446045
795.8905, 6.338562
796.3726, 7.998291
796.8547, 9.627808
797.3369, 9.953796
797.8190, 9.274414
798.3011, 8.714050
798.7832, 8.042908
799.2653, 8.190430
799.7474, 9.905029
800.2296, 12.26898
800.7117, 12.12073
801.1938, 9.659058
801.6759, 7.851440
802.1580, 8.593750
802.6401, 10.23853
803.1223, 11.36127
803.6044, 11.81372
804.0865, 11.15442
804.5686, 6.905090
805.0507, 4.097412
805.5328, 5.682190
806.0150, 9.825989
806.4971, 11.59180
806.9792, 10.11243
807.4613, 9.176880
807.9434, 9.942688
808.4255, 11.65881
808.9077, 13.37286
809.3898, 14.82056
809.8719, 14.64014
810.3540, 10.56989
810.8361, 6.225525
811.3182, 4.644470
811.8004, 5.311462
812.2825, 6.314331
812.7646, 7.481750
813.2467, 8.488831
813.7288, 9.453125
814.2109, 10.28339
814.6931, 10.73431
815.1752, 10.88507
815.6573, 9.920959
816.1394, 7.161804
816.6215, 3.974243
817.1037, 2.498108
817.5858, 2.432800
818.0679, 2.960754
818.5500, 4.261536
819.0322, 5.492737
819.5143, 5.680115
819.9964, 5.557129
820.4785, 6.836548
820.9606, 11.28430
821.4427, 13.81995
821.9249, 13.25800
822.4070, 10.81006
822.8891, 8.554749
823.3712, 6.546204
823.8533, 5.433105
824.3354, 5.591370
824.8176, 6.366577
825.2997, 7.284241
825.7818, 8.100586
826.2639, 8.436401
826.7460, 8.615784
827.2281, 7.961182
827.7103, 5.257751
828.1924, 2.176636
828.6745, 0.9745480
829.1566, 2.001892
829.6387, 3.055420
830.1208, 3.975586
830.6030, 4.679260
831.0851, 4.989502
831.5672, 4.931641
832.0493, 4.695190
832.5314, 4.270142
833.0135, 4.100464
833.4957, 4.684875
833.9778, 5.525391
834.4599, 6.044983
834.9420, 6.045776
835.4241, 5.533875
835.9063, 4.228699
836.3884, 2.922424
836.8705, 2.687805
837.3526, 3.567993
837.8347, 4.215576
838.3168, 4.360535
838.7990, 4.193665
839.2811, 3.914673
839.7632, 3.761536
840.2453, 4.147461
840.7274, 5.456360
841.2095, 6.267883
841.6917, 5.483948
842.1738, 4.394531
842.6559, 4.051331
843.1380, 4.716187
843.6201, 5.195740
844.1022, 5.481995
844.5844, 5.612061
845.0665, 5.775513
845.5486, 5.804199
846.0307, 4.897339
846.5128, 2.934998
846.9949, 1.606995
847.4771, 3.160217
847.9592, 4.980164
848.4413, 4.623474
848.9234, 1.059570
849.4055, 0.2146610
849.8876, 2.302368
850.3698, 4.925415
850.8519, 5.288513
851.3340, 3.609436
851.8161, 2.720581
852.2982, 2.611450
852.7803, 2.762146
853.2625, 3.037170
853.7446, 3.203003
854.2267, 2.795227
854.7088, 1.892334
855.1909, 1.535156
855.6730, 3.108948
856.1552, 4.186035
856.6373, 3.703369
857.1194, 1.875000
857.6015, 0.2134400
858.0836, 1.377014
858.5657, 2.044434
859.0479, 0.7734990
859.5300, 1.259460
860.0121, 1.628113
860.4942, 0.7260740
860.9763, 9.5642000E-02
861.4584, 0.2222290
861.9406, 4.5348998E-02
862.4227, 0.5103760
862.9048, 1.225159
863.3869, 1.425842
863.8690, 0.9616090
864.3511, 0.2640990
864.8333, 0.8047490
865.3154, 1.763672
865.7975, 1.301208
866.2796, 0.2473750
866.7617, 1.400513
867.2438, 1.318542
867.7260, 1.234558
868.2081, 2.820007
868.6902, 4.791443
869.1723, 5.211731
869.6544, 1.277649
870.1365, 0.6870120
870.6187, 0.5158080
871.1008, 2.819031
871.5829, 3.189697
872.0650, 1.754761
872.5471, 1.069580
873.0292, 1.602844
873.5114, 2.535583
873.9935, 3.145752
874.4756, 3.582703
874.9577, 4.161438
875.4399, 5.246216
875.9220, 5.603394
876.4041, 4.041992
876.8862, 2.394409
877.3683, 1.882324
877.8505, 2.697937
878.3326, 3.220093
878.8147, 3.368530
879.2968, 3.702515
879.7789, 5.547424
880.2610, 7.528748
880.7432, 7.028625
881.2253, 3.973999
881.7074, 1.027527
882.1895, 1.081177
882.6716, 2.237488
883.1537, 1.976013
883.6359, 0.4281620
884.1180, 0.3683470
884.6001, 0.3410640
885.0822, 9.7655997E-02
885.5643, 1.149048
886.0464, 2.278687
886.5286, 1.625122
887.0107, 0.3636470
887.4928, 1.621521
887.9749, 6.0669001E-02
888.4570, 1.562439
888.9391, 1.438843
889.4213, 0.2594600
889.9034, 0.3838500
890.3855, 2.600647
890.8676, 4.423035
891.3497, 5.449402
891.8318, 5.687988
892.3140, 4.691406
892.7961, 2.850464
893.2782, 1.682739
893.7603, 1.712341
894.2424, 2.441711
894.7245, 4.440186
895.2067, 6.478088
895.6888, 7.061279
896.1709, 4.605164
896.6530, 2.860229
897.1351, 1.996643
897.6172, 1.604370
898.0994, 1.496643
898.5815, 1.560242
899.0636, 1.016907
899.5457, 0.1953740
900.0278, 1.645569
900.5099, 3.254883
900.9921, 4.811218
901.4742, 6.149841
901.9563, 7.233215
902.4384, 8.024780
902.9205, 8.060730
903.4026, 8.465759
903.8848, 10.07208
904.3669, 12.57599
904.8490, 13.40326
905.3311, 12.71948
905.8132, 12.63733
906.2953, 14.64954
906.7775, 17.58276
907.2596, 20.56909
907.7417, 23.80444
908.2238, 27.38812
908.7059, 31.80304
909.1880, 35.78284
909.6702, 38.66486
910.1523, 41.23724
910.6344, 45.48419
911.1165, 51.38159
911.5986, 57.53748
912.0807, 63.70337
912.5629, 69.61206
913.0450, 74.17438
913.5271, 78.61725
914.0092, 84.76599
914.4913, 93.31061
914.9734, 103.0497
915.4556, 114.9738
915.9377, 126.7893
916.4198, 135.9629
916.9019, 142.3410
917.3840, 151.3989
917.8661, 163.5426
918.3483, 176.4308
918.8304, 187.9073
919.3125, 199.1747
919.7946, 211.8129
920.2767, 225.9030
920.7589, 240.3759
921.2410, 256.6255
921.7231, 271.2742
922.2052, 283.2375
922.6873, 292.5236
923.1694, 299.5715
923.6516, 304.4110
924.1337, 306.8687
924.6158, 306.9424
925.0979, 304.2677
925.5800, 298.3017
926.0621, 289.3243
926.5443, 277.8540
927.0264, 263.2416
927.5085, 247.0309
927.9906, 228.9377
928.4727, 209.8308
928.9548, 190.7783
929.4370, 171.7969
929.9191, 153.1490
930.4012, 134.7839
930.8833, 117.9750
931.3654, 104.7936
931.8475, 93.86316
932.3297, 82.69690
932.8118, 69.98859
933.2939, 60.48547
933.7761, 57.77747
934.2582, 56.08173
934.7403, 51.70898
935.2224, 44.49866
935.7045, 40.33685
936.1866, 39.26007
936.6688, 39.29871
937.1509, 39.46033
937.6330, 39.71875
938.1151, 39.65936
938.5972, 39.55511
939.0793, 40.69238
939.5615, 44.72852
940.0436, 48.50043
940.5257, 50.78046
941.0078, 52.62103
941.4899, 56.90247
941.9720, 63.47278
942.4542, 69.53516
942.9363, 73.98798
943.4184, 78.49390
943.9005, 84.88922
944.3826, 92.55359
944.8647, 100.6521
945.3469, 107.9468
945.8290, 117.3281
946.3111, 128.7562
946.7932, 142.3478
947.2753, 158.7628
947.7574, 177.9837
948.2396, 195.3594
948.7217, 210.7915
949.2038, 228.4370
949.6859, 252.0853
950.1680, 279.1344
950.6501, 307.7968
951.1323, 337.8310
951.6144, 368.3051
952.0965, 396.9159
952.5786, 428.9317
953.0607, 466.1718
953.5428, 505.3744
954.0250, 548.4284
954.5071, 596.1744
954.9892, 645.7029
955.4713, 700.0198
955.9534, 758.9343
956.4355, 821.2852
956.9177, 888.2433
957.3998, 962.6666
957.8819, 1045.916
958.3640, 1134.175
958.8461, 1226.788
959.3282, 1326.442
959.8104, 1437.431
960.2925, 1556.379
960.7746, 1670.291
961.2567, 1778.472
961.7388, 1877.696
962.2209, 1974.611
962.7031, 2056.267
963.1852, 2110.124
963.6673, 2136.625
964.1494, 2154.849
964.6315, 2163.222
965.1136, 2167.820
965.5958, 2169.792
966.0779, 2170.590
966.5600, 2171.472
967.0421, 2173.692
967.5242, 2180.850
968.0063, 2200.021
968.4885, 2216.635
968.9706, 2225.313
969.4527, 2228.431
969.9348, 2229.614
970.4169, 2229.843
970.8990, 2224.308
971.3812, 2213.567
971.8633, 2192.747
972.3454, 2159.176
972.8275, 2111.750
973.3096, 2048.653
973.7917, 1969.839
974.2739, 1874.017
974.7560, 1756.852
975.2381, 1625.771
975.7202, 1478.552
976.2023, 1319.742
976.6844, 1167.797
977.1666, 1021.589
977.6487, 884.4962
978.1308, 756.7816
978.6129, 643.0792
979.0950, 549.2957
979.5771, 472.0734
980.0593, 405.1483
980.5414, 348.0410
981.0235, 300.8624
981.5056, 264.1955
981.9877, 235.4580
982.4698, 212.1094
982.9520, 193.9055
983.4341, 180.2443
983.9162, 170.9836
984.3983, 164.4074
984.8804, 159.9918
985.3625, 157.4014
985.8447, 156.6163
986.3268, 157.4634
986.8089, 158.3921
987.2910, 159.7031
987.7731, 160.7256
988.2552, 161.2210
988.7374, 161.1751
989.2195, 159.7509
989.7016, 157.8145
990.1837, 158.0758
990.6658, 163.6123
991.1479, 167.3601
991.6301, 164.4775
992.1122, 159.6208
992.5944, 157.5388
993.0765, 159.1632
993.5586, 157.7935
994.0407, 153.2203
994.5228, 148.0123
995.0049, 144.0479
995.4871, 140.7814
995.9692, 137.7928
996.4513, 134.7995
996.9334, 130.7941
997.4155, 123.8542
997.8976, 117.9532
998.3798, 114.7531
998.8619, 112.6716
999.3440, 107.6582
999.8261, 100.0041
1000.308, 92.79846
1000.790, 87.16724
1001.272, 81.08655
1001.755, 71.31299
1002.237, 60.95990
1002.719, 53.75635
1003.201, 51.48572
1003.683, 47.79608
1004.165, 42.10187
1004.647, 36.39294
1005.129, 31.94324
1005.612, 28.41998
1006.094, 24.39850
1006.576, 20.20508
1007.058, 17.17242
1007.540, 17.33539
1008.022, 17.36981
1008.504, 15.13354
1008.986, 12.17029
1009.468, 11.42804
1009.951, 13.31158
1010.433, 14.03247
1010.915, 12.87250
1011.397, 11.07672
1011.879, 9.497437
1012.361, 8.403015
1012.843, 8.159790
1013.325, 8.857727
1013.807, 10.17950
1014.290, 13.33801
1014.772, 15.16064
1015.254, 13.73602
1015.736, 10.01569
1016.218, 7.393005
1016.700, 5.935547
1017.182, 6.091125
1017.664, 9.298645
1018.147, 12.56696
1018.629, 13.74878
1019.111, 13.88416
1019.593, 14.65381
1020.075, 16.53864
1020.557, 17.89160
1021.039, 18.71875
1021.521, 18.73077
1022.003, 17.01257
1022.486, 14.55090
1022.968, 13.19446
1023.450, 12.96210
1023.932, 12.78882
1024.414, 12.00049
1024.896, 11.56189
1025.378, 12.08466
1025.860, 13.01746
1026.343, 12.47534
1026.825, 10.60846
1027.307, 9.436951
1027.789, 9.612610
1028.271, 10.30011
1028.753, 11.17700
1029.235, 11.92371
1029.717, 12.20074
1030.199, 11.98181
1030.682, 11.00970
1031.164, 8.894592
1031.646, 7.092590
1032.128, 6.733337
1032.610, 7.250854
1033.092, 7.398499
1033.574, 7.164124
1034.056, 6.497559
1034.539, 4.060730
1035.021, 2.821960
1035.503, 4.848022
1035.985, 7.817322
1036.467, 8.499573
1036.949, 6.821045
1037.431, 5.700195
1037.913, 5.551086
1038.396, 5.023438
1038.878, 2.160583
1039.360, 1.122681
1039.842, 3.111755
1040.324, 3.614868
1040.806, 3.416016
1041.288, 1.885071
1041.770, 1.443359
1042.252, 3.424561
1042.734, 6.175110
1043.217, 5.844543
1043.699, 3.528931
1044.181, 2.205811
1044.663, 3.304443
1045.145, 4.211182
1045.627, 3.851074
1046.109, 2.932556
1046.591, 1.713501
1047.074, 0.1301270
1047.556, 6.7443997E-02
1048.038, 1.528198
1048.520, 3.392151
1049.002, 5.849670
1049.484, 7.539673
1049.966, 6.430786
1050.448, 3.612915
1050.931, 2.260010
1051.413, 3.453613
1051.895, 4.474060
1052.377, 5.253235
1052.859, 5.225891
1053.341, 2.848633
1053.823, 0.6460570
1054.305, 2.344482
1054.787, 1.906006
1055.270, 1.387329
1055.752, 0.3790890
1056.234, 1.111572
1056.716, 5.422852
1057.198, 11.85260
1057.680, 14.04517
1058.162, 12.30420
1058.644, 11.49567
1059.126, 13.47388
1059.609, 16.13062
1060.091, 17.63202
1060.573, 18.71521
1061.055, 20.21875
1061.537, 22.35516
1062.019, 24.27924
1062.501, 25.80469
1062.983, 27.86401
1063.466, 32.10901
1063.948, 36.73853
1064.430, 37.57825
1064.912, 35.89868
1065.394, 35.49310
1065.876, 38.70764
1066.358, 42.24463
1066.840, 46.12549
1067.323, 49.38641
1067.805, 49.79016
1068.287, 48.09882
1068.769, 50.28754
1069.251, 56.80750
1069.733, 63.73950
1070.215, 68.95947
1070.697, 73.04401
1071.179, 75.71405
1071.661, 77.41138
1072.144, 79.98285
1072.626, 83.69464
1073.108, 86.12360
1073.590, 86.26550
1074.072, 86.02472
1074.554, 87.76276
1075.036, 90.60065
1075.518, 93.62952
1076.001, 97.01691
1076.483, 98.93146
1076.965, 98.70648
1077.447, 98.22064
1077.929, 98.18103
1078.411, 98.73480
1078.893, 100.5948
1079.375, 103.4362
1079.858, 106.2220
1080.340, 108.8496
1080.822, 110.9202
1081.304, 111.2906
1081.786, 111.6654
1082.268, 114.0134
1082.750, 118.3782
1083.232, 120.6409
1083.714, 120.7756
1084.197, 122.1350
1084.679, 128.6495
1085.161, 135.8084
1085.643, 140.0276
1086.125, 142.0498
1086.607, 144.8530
1087.089, 148.5754
1087.571, 152.9694
1088.054, 158.1537
1088.536, 163.4377
1089.018, 167.7950
1089.500, 171.8491
1089.982, 176.9125
1090.464, 183.1658
1090.946, 187.4922
1091.428, 188.3553
1091.911, 188.7524
1092.393, 189.5953
1092.875, 190.5299
1093.357, 190.9343
1093.839, 190.7277
1094.321, 189.7216
1094.803, 187.9518
1095.285, 185.0063
1095.767, 179.5526
1096.250, 173.9250
1096.732, 169.7792
1097.214, 167.0273
1097.696, 163.8679
1098.178, 160.3298
1098.660, 156.2074
1099.142, 150.3294
1099.624, 145.1102
1100.106, 143.4807
1100.589, 143.1130
1101.071, 140.5048
1101.553, 135.0532
1102.035, 129.1565
1102.517, 122.5953
1102.999, 116.2103
1103.481, 110.7825
1103.963, 106.0574
1104.446, 102.1232
1104.928, 98.71967
1105.410, 94.60596
1105.892, 88.39624
1106.374, 83.17859
1106.856, 79.36469
1107.338, 76.54120
1107.820, 75.02002
1108.302, 74.03955
1108.785, 70.77087
1109.267, 64.77307
1109.749, 59.55298
1110.231, 57.84399
1110.713, 55.97791
1111.195, 52.11780
1111.677, 47.38562
1112.159, 44.38892
1112.641, 43.04626
1113.124, 41.65796
1113.606, 39.57428
1114.088, 37.46887
1114.570, 35.78729
1115.052, 34.29694
1115.534, 33.04926
1116.016, 32.00659
1116.498, 29.29095
1116.981, 24.86328
1117.463, 21.55524
1117.945, 20.89386
1118.427, 21.21558
1118.909, 20.87286
1119.391, 20.38281
1119.873, 20.63873
1120.355, 22.51532
1120.838, 22.49579
1121.320, 20.15430
1121.802, 17.68036
1122.284, 16.91803
1122.766, 16.74432
1123.248, 15.04578
1123.730, 12.48059
1124.212, 10.79871
1124.694, 11.41925
1125.177, 11.76099
1125.659, 11.51959
1126.141, 11.21954
1126.623, 11.66809
1127.105, 12.35675
1127.587, 11.68359
1128.069, 9.739563
1128.551, 7.829895
1129.033, 5.971008
1129.516, 4.979553
1129.998, 5.237610
1130.480, 6.176941
1130.962, 6.882202
1131.444, 7.412903
1131.926, 8.289734
1132.408, 9.610962
1132.890, 10.28131
1133.373, 9.355591
1133.855, 7.942505
1134.337, 6.480347
1134.819, 5.113220
1135.301, 4.392700
1135.783, 4.314087
1136.265, 4.282532
1136.747, 4.244568
1137.229, 3.878967
1137.712, 2.227295
1138.194, 0.5383910
1138.676, 0.3638920
1139.158, 1.720215
1139.640, 2.158264
1140.122, 1.596191
1140.604, 0.8562010
1141.086, 3.3264000E-02
1141.569, 0.3859860
1142.051, 0.4526370
1142.533, 1.847595
1143.015, 2.916626
1143.497, 3.545349
1143.979, 3.637390
1144.461, 2.961670
1144.943, 2.661011
1145.426, 3.838196
1145.908, 5.469238
1146.390, 5.980164
1146.872, 5.654114
1147.354, 5.092407
1147.836, 3.561340
1148.318, 3.320374
1148.800, 5.136780
1149.282, 6.695129
1149.765, 5.552979
1150.247, 2.909119
1150.729, 1.269226
1151.211, 0.6179200
1151.693, 0.5336300
1152.175, 1.424316
1152.657, 2.147949
1153.139, 2.642700
1153.621, 2.762756
1154.104, 2.037476
1154.586, 0.8122560
1155.068, 0.2006230
1155.550, 0.2592160
1156.032, 0.7739870
1156.514, 2.310120
1156.996, 3.411316
1157.478, 3.448730
1157.961, 4.154663
1158.443, 3.214355
1158.925, 3.910828
1159.407, 3.781311
1159.889, 2.606750
1160.371, 1.976196
1160.853, 3.856628
1161.335, 5.449646
1161.818, 5.121460
1162.300, 3.517090
1162.782, 2.190430
1163.264, 1.200256
1163.746, 1.551270
1164.228, 3.781372
1164.710, 5.374512
1165.192, 3.431641
1165.674, 1.104980
1166.156, 1.247498
1166.639, 3.251526
1167.121, 2.435181
1167.603, 1.160522
1168.085, 2.714661
1168.567, 0.1777950
1169.049, 2.951477
1169.531, 0.5937500
1170.013, 3.085449
1170.496, 4.111877
1170.978, 2.375549
1171.460, 0.8331300
1171.942, 0.5307620
1172.424, 1.453003
1172.906, 1.862122
1173.388, 1.666382
1173.870, 0.1647950
1174.353, 2.192261
1174.835, 2.272339
1175.317, 6.3842997E-02
1175.799, 2.181946
1176.281, 4.212341
1176.763, 5.148010
1177.245, 3.818481
1177.727, 1.785767
1178.209, 0.6063840
1178.692, 7.2205000E-02
1179.174, 0.1331180
1179.656, 4.0771000E-02
1180.138, 6.2194999E-02
1180.620, 0.5316770
1181.102, 0.7581180
1181.584, 4.1499999E-03
1182.066, 0.9703980
1182.548, 0.9078980
1183.031, 1.931519
1183.513, 0.7536620
1183.995, 3.116394
1184.477, 4.458862
1184.959, 4.541443
1185.441, 4.022827
1185.923, 3.134583
1186.405, 2.247070
1186.888, 1.895569
1187.370, 2.006836
1187.852, 2.306519
1188.334, 3.036804
1188.816, 3.034607
1189.298, 1.689087
1189.780, 1.270081
1190.262, 6.093994
1190.745, 12.21692
1191.227, 12.91699
1191.709, 8.914124
1192.191, 6.015503
1192.673, 6.311157
1193.155, 5.901917
1193.637, 4.066284
1194.119, 1.911804
1194.601, 0.1511230
1195.084, 0.7534180
1195.566, 0.3944700
1196.048, 3.431458
1196.530, 6.068176
1197.012, 8.382202
1197.494, 9.249084
1197.976, 8.119385
1198.458, 6.192993
1198.941, 4.483398
1199.423, 3.431702
1199.905, 4.449524
1200.387, 7.559998
1200.869, 9.393738
1201.351, 8.976746
1201.833, 7.840820
1202.315, 6.082825
1202.797, 4.326721
1203.280, 3.897522
1203.762, 4.081238
1204.244, 3.174622
1204.726, 0.8146360
1205.208, 0.7115480
1205.690, 5.325562
1206.172, 8.241333
1206.654, 6.869995
1207.136, 4.104675
1207.619, 5.723877
1208.101, 9.311462
1208.583, 10.20264
1209.065, 7.057739
1209.547, 5.659973
1210.029, 7.823120
1210.511, 9.445313
1210.993, 8.592896
1211.476, 7.149902
1211.958, 9.565125
1212.440, 13.55029
1212.922, 14.68420
1213.404, 11.45062
1213.886, 9.070801
1214.368, 8.369507
1214.850, 7.985901
1215.333, 7.266113
1215.815, 6.689697
1216.297, 7.336487
1216.779, 8.706848
1217.261, 9.898499
1217.743, 10.69098
1218.225, 11.55255
1218.707, 13.01361
1219.189, 13.24115
1219.672, 10.66412
1220.154, 7.275330
1220.636, 7.130371
1221.118, 8.700500
1221.600, 9.184814
1222.082, 7.289185
1222.564, 6.426514
1223.046, 6.867188
1223.528, 7.927979
1224.011, 9.523743
1224.493, 11.31885
1224.975, 13.13330
1225.457, 14.41168
1225.939, 14.28748
1226.421, 12.05908
1226.903, 10.82532
1227.385, 10.86151
1227.868, 10.38684
1228.350, 8.005066
1228.832, 5.651794
1229.314, 6.947876
1229.796, 9.846680
1230.278, 10.63715
1230.760, 7.156921
1231.242, 6.030579
1231.724, 7.705627
1232.207, 9.222229
1232.689, 9.063904
1233.171, 8.005310
1233.653, 5.975647
1234.135, 3.774292
1234.617, 2.965210
1235.099, 4.611267
1235.581, 4.222534
1236.063, 1.414185
1236.546, 0.6192020
1237.028, 1.145447
1237.510, 3.641174
1237.992, 3.032410
1238.474, 1.104065
1238.956, 1.068909
1239.438, 3.862183
1239.920, 5.533020
1240.403, 6.005066
1240.885, 5.540710
1241.367, 2.904907
1241.849, 0.7825320
1242.331, 2.104431
1242.813, 5.091492
1243.295, 7.117004
1243.777, 8.056091
1244.260, 8.190491
1244.742, 7.528198
1245.224, 6.703552
1245.706, 5.518677
1246.188, 4.962830
1246.670, 6.885498
1247.152, 9.227356
1247.634, 8.928711
1248.116, 5.726013
1248.599, 3.676697
1249.081, 2.693726
1249.563, 2.702393
1250.045, 3.980286
1250.527, 5.505798
1251.009, 7.421936
1251.491, 8.795349
1251.973, 8.430786
1252.455, 6.394958
1252.938, 5.282349
1253.420, 4.986633
1253.902, 4.459595
1254.384, 2.392822
1254.866, 1.186829
1255.348, 2.386597
1255.830, 3.979675
1256.313, 3.981689
1256.795, 2.721313
1257.277, 1.873169
1257.759, 1.547729
1258.241, 2.144287
1258.723, 4.988586
1259.205, 7.162537
1259.687, 8.138794
1260.169, 8.293762
1260.651, 7.653503
1261.134, 6.498413
1261.616, 5.659851
1262.098, 5.116028
1262.580, 4.753113
1263.062, 4.343018
1263.544, 4.559631
1264.026, 5.970947
1264.508, 6.793335
1264.991, 4.465515
1265.473, 1.105957
1265.955, 1.017395
1266.437, 3.310120
1266.919, 5.578613
1267.401, 8.072205
1267.883, 8.624084
1268.365, 6.700623
1268.848, 4.847351
1269.330, 5.581970
1269.812, 7.022522
1270.294, 6.407043
1270.776, 8.324463
1271.258, 5.899414
1271.740, 10.85284
1272.222, 13.65393
1272.704, 14.14862
1273.187, 12.63269
1273.669, 6.355774
1274.151, 0.9516600
1274.633, 3.381592
1275.115, 9.078430
1275.597, 10.51764
1276.079, 6.778381
1276.561, 4.294739
1277.043, 3.089905
1277.526, 2.326111
1278.008, 1.311584
1278.490, 0.8496090
1278.972, 2.214722
1279.454, 3.817078
1279.936, 3.813904
1280.418, 2.284363
1280.900, 1.823914
1281.383, 2.237305
1281.865, 2.294373
1282.347, 0.4400020
1282.829, 0.5356450
1283.311, 0.7940060
1283.793, 2.687378
1284.275, 4.005127
1284.757, 4.786560
1285.240, 5.126343
1285.722, 5.096619
1286.204, 4.921143
1286.686, 4.676331
1287.168, 4.291748
1287.650, 3.612549
1288.132, 3.192749
1288.614, 3.525024
1289.096, 4.315063
1289.578, 5.126831
1290.061, 5.877869
1290.543, 6.398682
1291.025, 6.627014
1291.507, 6.636169
1291.989, 6.494934
1292.471, 5.681396
1292.953, 3.149536
1293.435, 0.7175900
1293.918, 0.4778440
1294.400, 1.588318
1294.882, 3.148987
1295.364, 5.292175
1295.846, 5.582642
1296.328, 4.010803
1296.810, 2.283630
1297.292, 0.6246950
1297.775, 3.4851000E-02
1298.257, 2.783264
1298.739, 5.664734
1299.221, 5.088745
1299.703, 1.528687
1300.185, 7.9773001E-02
1300.667, 2.3071000E-02
1301.149, 0.3662720
1301.631, 0.1709590
1302.114, 3.1740000E-03
1302.596, 0.0000000E+00
##END=



