##NAMES=Bobkingite
##RRUFFID=R141030
##IDEAL CHEMISTRY=Cu^2+^_5_Cl_2_(OH)_8_&#183;2H_2_O
##LOCALITY=Cerro Minado Mines, Cuesta Alta, Huércal-Overa, Almería, Andalusia, Spain
##OWNER=RRUFF
##SOURCE=William W. Pinch and Robert Pecorini
##DESCRIPTION=Aggregates of acicular to bladed bundles of blue crystals on quartz
##STATUS=The identification of this mineral has been confirmed only by single crystal X-ray diffraction.
##URL=rruff.info/R141030
90.74744, 0.0000000E+00
91.22955, 4.6082001E-02
91.71167, 9.5787004E-02
92.19379, 1.675331
92.67590, 4.863968
93.15802, 7.715782
93.64014, 8.213768
94.12225, 7.216202
94.60437, 7.265739
95.08649, 9.426086
95.56860, 12.67590
96.05072, 14.64776
96.53284, 15.30933
97.01495, 15.86005
97.49707, 17.39269
97.97919, 19.86586
98.46130, 22.83479
98.94342, 26.42171
99.42554, 30.54903
99.90765, 33.80683
100.3898, 35.95619
100.8719, 37.92833
101.3540, 41.21740
101.8361, 46.08821
102.3182, 51.08839
102.8004, 55.78653
103.2825, 60.14436
103.7646, 64.29926
104.2467, 68.23728
104.7288, 71.98507
105.2109, 75.59772
105.6931, 79.25222
106.1752, 82.61406
106.6573, 85.62010
107.1394, 88.56716
107.6215, 90.72877
108.1036, 92.09457
108.5858, 92.71238
109.0679, 92.87854
109.5500, 92.63329
110.0321, 91.91290
110.5142, 90.68153
110.9963, 90.15353
111.4785, 88.85648
111.9606, 86.34461
112.4427, 82.25601
112.9248, 77.43736
113.4069, 71.32159
113.8890, 65.04975
114.3712, 59.47023
114.8533, 55.33936
115.3354, 51.41340
115.8175, 47.26070
116.2996, 42.75962
116.7817, 38.47019
117.2639, 34.38174
117.7460, 30.61018
118.2281, 27.30504
118.7102, 24.95909
119.1923, 22.77071
119.6744, 20.20304
120.1566, 17.08275
120.6387, 14.08974
121.1208, 11.50813
121.6029, 9.362907
122.0850, 7.743256
122.5671, 6.980179
123.0493, 6.633194
123.5314, 6.310631
124.0135, 6.016045
124.4956, 5.559753
124.9777, 4.684814
125.4598, 3.464310
125.9420, 2.194618
126.4241, 0.9548950
126.9062, 0.1918640
127.3883, 1.149498
127.8704, 1.946442
128.3525, 2.456615
128.8347, 2.377007
129.3168, 1.754543
129.7989, 1.102676
130.2810, 0.8140830
130.7631, 0.8414340
131.2452, 1.013058
131.7274, 1.392628
132.2095, 1.828232
132.6916, 1.905102
133.1737, 1.558620
133.6558, 0.8783610
134.1379, 4.0217999E-02
134.6201, 0.9386440
135.1022, 2.029758
135.5843, 3.182213
136.0664, 4.283722
136.5485, 5.281631
137.0306, 6.283398
137.5128, 7.299858
137.9949, 8.257961
138.4770, 9.029411
138.9591, 9.515312
139.4412, 9.939255
139.9233, 10.25154
140.4055, 10.49435
140.8876, 10.78000
141.3697, 11.07222
141.8518, 11.46334
142.3339, 12.01447
142.8160, 12.53616
143.2982, 12.95230
143.7803, 13.12141
144.2624, 13.64142
144.7445, 14.60861
145.2266, 15.89988
145.7087, 17.21114
146.1909, 18.62363
146.6730, 19.97210
147.1551, 21.18008
147.6372, 21.86720
148.1193, 23.03908
148.6014, 24.78036
149.0836, 27.01508
149.5657, 29.65294
150.0478, 33.06174
150.5299, 36.50737
151.0120, 39.69183
151.4941, 42.11067
151.9763, 44.82150
152.4584, 48.56381
152.9405, 52.89978
153.4226, 55.72227
153.9047, 56.47915
154.3868, 55.93642
154.8690, 54.51075
155.3511, 52.17495
155.8332, 49.04167
156.3153, 44.71827
156.7974, 39.37477
157.2795, 34.36708
157.7617, 29.94910
158.2438, 25.99239
158.7259, 22.40440
159.2080, 19.12997
159.6901, 16.25531
160.1722, 13.83518
160.6544, 11.86383
161.1365, 10.21957
161.6186, 8.914246
162.1007, 7.903606
162.5828, 7.110504
163.0649, 6.857449
163.5471, 6.544170
164.0292, 5.799160
164.5113, 4.609306
164.9934, 3.507282
165.4755, 2.625313
165.9576, 2.013077
166.4398, 1.743027
166.9219, 2.150871
167.4040, 2.680580
167.8861, 2.962025
168.3682, 2.970467
168.8503, 2.911983
169.3325, 2.905148
169.8146, 2.918621
170.2967, 2.906551
170.7788, 2.886490
171.2609, 2.809040
171.7430, 2.597519
172.2252, 2.230129
172.7073, 1.872368
173.1894, 1.718967
173.6715, 1.676342
174.1536, 1.547668
174.6357, 1.134033
175.1179, 0.6192630
175.6000, 0.1984480
176.0821, 0.1152380
176.5642, 0.2908550
177.0463, 0.1799320
177.5284, 0.1240080
178.0106, 0.3351020
178.4927, 0.2212870
178.9748, 6.6832997E-02
179.4569, 0.2935450
179.9390, 0.4533350
180.4211, 0.5009160
180.9033, 0.2978940
181.3854, 0.1008640
181.8675, 0.4330020
182.3496, 0.5584640
182.8317, 0.5078470
183.3138, 0.3137510
183.7960, 5.7819001E-02
184.2781, 0.4591520
184.7602, 0.7462080
185.2423, 0.9454150
185.7244, 0.9707150
186.2065, 0.4993710
186.6887, 0.2948150
187.1708, 0.5776140
187.6529, 0.1178670
188.1350, 0.6184770
188.6171, 0.7503050
189.0992, 0.3026850
189.5814, 0.1476670
190.0635, 0.1624980
190.5456, 0.1620670
191.0277, 0.2643010
191.5098, 9.5060002E-03
191.9919, 0.4212610
192.4741, 0.5626370
192.9562, 0.3935090
193.4383, 0.2747000
193.9204, 0.5929260
194.4025, 1.305096
194.8846, 1.611546
195.3668, 1.306267
195.8489, 0.6697010
196.3310, 0.3609960
196.8131, 0.4033930
197.2952, 0.6025890
197.7773, 0.8648950
198.2595, 1.192249
198.7416, 1.523380
199.2237, 1.882797
199.7058, 2.214912
200.1879, 2.289337
200.6700, 2.033344
201.1522, 1.847919
201.6343, 2.096237
202.1164, 2.841362
202.5985, 3.355259
203.0806, 3.478088
203.5627, 3.349899
204.0449, 3.438271
204.5270, 3.799923
205.0091, 4.191452
205.4912, 4.392834
205.9733, 4.337910
206.4554, 4.514153
206.9376, 5.068455
207.4197, 5.866783
207.9018, 6.375965
208.3839, 6.490894
208.8660, 6.585918
209.3481, 6.989136
209.8303, 7.834572
210.3124, 8.367622
210.7945, 8.392113
211.2766, 8.061699
211.7587, 7.995262
212.2408, 8.223766
212.7230, 8.654079
213.2051, 9.335175
213.6872, 10.46658
214.1693, 11.10271
214.6514, 10.89942
215.1335, 10.12364
215.6157, 10.11555
216.0978, 11.22703
216.5799, 12.45253
217.0620, 13.06176
217.5441, 12.71625
218.0262, 12.79136
218.5084, 13.67351
218.9905, 15.09726
219.4726, 15.61494
219.9547, 14.78363
220.4368, 13.81515
220.9189, 13.53815
221.4011, 14.27180
221.8832, 14.84654
222.3653, 15.12957
222.8474, 15.18011
223.3295, 15.26880
223.8116, 15.36832
224.2938, 15.55152
224.7759, 15.93307
225.2580, 16.76039
225.7401, 17.15430
226.2222, 16.89943
226.7043, 16.16297
227.1865, 15.59339
227.6686, 15.11126
228.1507, 14.93092
228.6328, 15.28110
229.1149, 16.59412
229.5970, 17.40507
230.0792, 17.49177
230.5613, 17.00961
231.0434, 16.54667
231.5255, 16.06387
232.0076, 15.66922
232.4897, 15.45217
232.9719, 15.55658
233.4540, 15.46812
233.9361, 14.98864
234.4182, 14.32022
234.9003, 14.20615
235.3824, 15.02914
235.8646, 15.87930
236.3467, 16.24076
236.8288, 15.69924
237.3109, 15.58046
237.7930, 16.13120
238.2751, 17.10485
238.7573, 17.69401
239.2394, 17.59865
239.7215, 17.57055
240.2036, 18.00920
240.6857, 19.33817
241.1678, 20.12686
241.6500, 20.16445
242.1321, 19.69699
242.6142, 19.35695
243.0963, 19.18554
243.5784, 19.11712
244.0605, 19.20470
244.5427, 19.66092
245.0248, 19.72980
245.5069, 19.26087
245.9890, 18.40252
246.4711, 17.60354
246.9532, 16.97738
247.4354, 16.30414
247.9175, 15.40924
248.3996, 14.05099
248.8817, 13.23403
249.3638, 13.23125
249.8459, 13.63313
250.3281, 13.69178
250.8102, 13.28117
251.2923, 12.74005
251.7744, 12.17062
252.2565, 11.58810
252.7386, 10.92377
253.2208, 10.04290
253.7029, 9.172230
254.1850, 8.682703
254.6671, 8.728848
255.1492, 8.871527
255.6313, 9.021183
256.1135, 9.204727
256.5956, 9.204262
257.0777, 8.970093
257.5598, 8.620644
258.0419, 8.219534
258.5240, 7.655344
259.0062, 7.328320
259.4883, 7.459948
259.9704, 8.104038
260.4525, 8.362495
260.9346, 8.062836
261.4167, 7.612160
261.8989, 7.508488
262.3810, 7.938345
262.8631, 8.158501
263.3452, 7.814760
263.8273, 6.935705
264.3094, 6.707956
264.7916, 7.397284
265.2737, 8.320225
265.7558, 8.824465
266.2379, 8.806847
266.7200, 8.690889
267.2021, 8.487938
267.6843, 8.223438
268.1664, 8.246183
268.6485, 8.689583
269.1306, 9.104555
269.6127, 9.044268
270.0948, 8.374546
270.5770, 7.854164
271.0591, 7.621471
271.5412, 7.636389
272.0233, 7.658529
272.5054, 7.677601
272.9875, 7.812494
273.4697, 8.257431
273.9518, 9.151039
274.4339, 9.459877
274.9160, 8.839203
275.3981, 7.699177
275.8802, 7.340801
276.3624, 7.940912
276.8445, 8.622929
277.3266, 8.765053
277.8087, 8.321106
278.2908, 8.150524
278.7729, 8.376911
279.2551, 8.823263
279.7372, 9.081450
280.2193, 9.145496
280.7014, 9.233198
281.1835, 9.507626
281.6656, 9.966108
282.1478, 10.30154
282.6299, 10.49836
283.1120, 10.57692
283.5941, 10.47935
284.0762, 10.18942
284.5583, 10.07347
285.0405, 10.44986
285.5226, 11.24557
286.0047, 11.66463
286.4868, 11.63271
286.9689, 11.43021
287.4510, 11.53211
287.9332, 11.91151
288.4153, 11.97482
288.8974, 11.21125
289.3795, 9.916077
289.8616, 9.385771
290.3438, 9.712551
290.8259, 10.24826
291.3080, 10.28139
291.7901, 9.880711
292.2722, 9.462875
292.7543, 9.209145
293.2365, 9.012249
293.7186, 8.576691
294.2007, 7.906147
294.6828, 7.195469
295.1649, 6.547705
295.6470, 5.992760
296.1292, 5.631250
296.6113, 5.587776
297.0934, 5.647774
297.5755, 5.428316
298.0576, 4.952707
298.5397, 4.483772
299.0219, 4.227373
299.5040, 4.113037
299.9861, 3.995712
300.4682, 3.849691
300.9503, 3.688450
301.4324, 3.476427
301.9146, 3.244087
302.3967, 3.109592
302.8788, 3.275133
303.3609, 3.546347
303.8430, 3.656477
304.3251, 3.574560
304.8073, 3.310680
305.2894, 2.699589
305.7715, 1.897224
306.2536, 1.266356
306.7357, 1.150499
307.2178, 1.223499
307.7000, 1.097513
308.1821, 0.7094040
308.6642, 0.4502930
309.1463, 0.7845540
309.6284, 1.407618
310.1105, 1.849669
310.5927, 1.720095
311.0748, 1.471172
311.5569, 1.480936
312.0390, 1.753456
312.5211, 1.898331
313.0032, 1.615534
313.4854, 1.121733
313.9675, 0.6504800
314.4496, 5.6547001E-02
314.9317, 0.2947200
315.4138, 4.1809000E-02
315.8959, 0.7035480
316.3781, 1.261021
316.8602, 1.281811
317.3423, 1.029406
317.8244, 0.6781520
318.3065, 0.1463930
318.7886, 0.3073410
319.2708, 0.6724870
319.7529, 0.9031640
320.2350, 0.8692020
320.7171, 0.1319470
321.1992, 0.5786090
321.6813, 0.8755610
322.1635, 0.5390800
322.6456, 0.1780240
323.1277, 0.1337200
323.6098, 0.3927120
324.0919, 0.5938110
324.5740, 0.7798650
325.0562, 0.8658730
325.5383, 0.7918130
326.0204, 0.4999940
326.5025, 0.2756200
326.9846, 0.1772580
327.4667, 0.1383170
327.9489, 8.5550003E-02
328.4310, 0.1354480
328.9131, 0.1961140
329.3952, 9.5717996E-02
329.8773, 0.7584320
330.3594, 0.9759500
330.8416, 0.3556330
331.3237, 0.3786320
331.8058, 0.6972540
332.2879, 0.2767390
332.7700, 4.3239999E-03
333.2521, 3.3020000E-03
333.7343, 0.2036550
334.2164, 0.2321970
334.6985, 2.7422000E-02
335.1806, 0.2955040
335.6627, 0.4397560
336.1448, 0.4691200
336.6270, 0.3120990
337.1091, 0.1523380
337.5912, 0.7121240
338.0733, 0.8700500
338.5554, 0.4733030
339.0375, 0.1681860
339.5197, 0.3009130
340.0018, 0.9102340
340.4839, 1.190292
340.9660, 1.075499
341.4481, 0.7632500
341.9302, 0.4547120
342.4124, 0.1390500
342.8945, 5.1367000E-02
343.3766, 3.3167001E-02
343.8587, 0.1388780
344.3408, 0.2104210
344.8229, 0.1712530
345.3051, 9.6341997E-02
345.7872, 2.0912001E-02
346.2693, 0.1489240
346.7514, 3.8311001E-02
347.2335, 0.4491440
347.7156, 1.087757
348.1978, 1.480925
348.6799, 1.631126
349.1620, 1.564230
349.6441, 1.054932
350.1262, 0.3558330
350.6083, 0.1251660
351.0905, 0.5169770
351.5726, 1.098763
352.0547, 1.462469
352.5368, 1.618511
353.0189, 1.598223
353.5010, 1.179028
353.9832, 0.7040520
354.4653, 0.6760810
354.9474, 1.132179
355.4295, 1.580708
355.9116, 1.469269
356.3937, 1.135763
356.8759, 1.088259
357.3580, 1.769245
357.8401, 2.582853
358.3222, 3.141911
358.8043, 3.477623
359.2864, 3.743145
359.7686, 3.969990
360.2507, 4.190174
360.7328, 4.454424
361.2149, 4.934374
361.6970, 5.192705
362.1791, 4.728790
362.6613, 3.904064
363.1434, 3.549498
363.6255, 4.441557
364.1076, 5.449862
364.5897, 6.028328
365.0718, 5.974125
365.5540, 5.947170
366.0361, 5.988552
366.5182, 6.139904
367.0003, 6.456654
367.4824, 7.200705
367.9645, 7.846231
368.4467, 8.188217
368.9288, 8.196323
369.4109, 8.474686
369.8930, 9.344513
370.3751, 10.24000
370.8572, 10.77029
371.3394, 10.67471
371.8215, 10.64022
372.3036, 10.71182
372.7857, 10.86198
373.2678, 11.07174
373.7499, 11.35095
374.2321, 11.65662
374.7142, 11.94432
375.1963, 12.17012
375.6784, 12.58066
376.1605, 13.21772
376.6426, 13.95610
377.1248, 14.66648
377.6069, 15.40659
378.0890, 15.88906
378.5711, 15.92856
379.0532, 15.60080
379.5353, 15.69781
380.0175, 16.29548
380.4996, 16.96920
380.9817, 17.30029
381.4638, 17.31029
381.9459, 17.23972
382.4280, 17.08127
382.9102, 16.96956
383.3923, 17.20718
383.8744, 17.77847
384.3565, 18.40140
384.8386, 19.02755
385.3207, 19.55338
385.8029, 19.65947
386.2850, 19.26312
386.7671, 18.81095
387.2492, 18.93778
387.7313, 19.31650
388.2134, 19.30512
388.6956, 18.48295
389.1777, 17.30489
389.6598, 15.95492
390.1419, 14.46538
390.6240, 13.22447
391.1061, 12.62140
391.5883, 12.35021
392.0704, 12.07101
392.5525, 11.73086
393.0346, 11.25505
393.5167, 10.45804
393.9988, 9.498894
394.4810, 8.776642
394.9631, 8.881720
395.4452, 8.910423
395.9273, 8.319862
396.4094, 6.773146
396.8915, 5.478565
397.3737, 4.605923
397.8558, 4.127441
398.3379, 4.007624
398.8200, 4.811462
399.3021, 5.363197
399.7842, 5.177450
400.2664, 4.257236
400.7485, 4.139874
401.2306, 5.487221
401.7127, 7.021534
402.1948, 7.890697
402.6769, 7.703236
403.1591, 7.677481
403.6412, 7.862883
404.1233, 8.249594
404.6054, 8.893497
405.0875, 9.892342
405.5696, 10.85220
406.0518, 11.63760
406.5339, 12.24924
407.0160, 12.57061
407.4981, 12.46132
407.9802, 12.44759
408.4623, 13.34755
408.9445, 15.14899
409.4266, 16.56638
409.9087, 17.07419
410.3908, 17.14466
410.8729, 17.97398
411.3550, 19.54491
411.8372, 21.14592
412.3193, 22.11220
412.8014, 22.75595
413.2835, 23.89413
413.7656, 25.73794
414.2477, 27.69445
414.7299, 29.19632
415.2120, 30.31144
415.6941, 31.16199
416.1762, 31.47418
416.6583, 31.77466
417.1404, 32.66044
417.6226, 34.12176
418.1047, 35.46115
418.5868, 36.43362
419.0689, 37.02388
419.5510, 37.22004
420.0331, 36.86580
420.5153, 36.31212
420.9974, 35.74629
421.4795, 35.08713
421.9616, 34.14555
422.4437, 32.64111
422.9258, 31.03356
423.4080, 29.56422
423.8901, 28.35355
424.3722, 26.85473
424.8543, 24.72520
425.3364, 22.43391
425.8185, 20.44827
426.3007, 18.89760
426.7828, 17.44455
427.2649, 16.13380
427.7470, 14.91689
428.2291, 13.34712
428.7112, 11.11114
429.1934, 9.087803
429.6755, 7.772514
430.1576, 7.298466
430.6397, 6.933468
431.1218, 6.723461
431.6039, 6.512009
432.0861, 5.977802
432.5682, 5.092587
433.0503, 4.324944
433.5324, 3.910946
434.0145, 3.719875
434.4966, 3.268959
434.9788, 2.551922
435.4609, 1.783524
435.9430, 1.071873
436.4251, 0.4413600
436.9072, 4.1103002E-02
437.3893, 0.3684200
437.8715, 0.5439950
438.3536, 0.4778310
438.8357, 0.2489400
439.3178, 7.7964999E-02
439.7999, 0.1444090
440.2820, 0.2791900
440.7642, 0.3067550
441.2463, 0.2176970
441.7284, 0.1769030
442.2105, 0.2883150
442.6926, 0.4858630
443.1747, 0.7113840
443.6569, 1.084181
444.1390, 1.321898
444.6211, 1.339329
445.1032, 1.154631
445.5853, 0.8193170
446.0674, 3.3932000E-02
446.5496, 0.6305390
447.0317, 0.9483870
447.5138, 0.8343200
447.9959, 0.6169430
448.4780, 0.1598210
448.9601, 0.3057560
449.4423, 0.5652770
449.9244, 0.5964050
450.4065, 0.4502450
450.8886, 6.2328000E-02
451.3707, 0.4918020
451.8528, 0.8829000
452.3350, 1.057251
452.8171, 1.236427
453.2992, 1.563988
453.7813, 2.043621
454.2634, 2.450687
454.7455, 2.757553
455.2277, 3.074211
455.7098, 3.610725
456.1919, 4.321022
456.6740, 4.919621
457.1561, 5.237740
457.6382, 5.440456
458.1204, 5.791584
458.6025, 6.283218
459.0846, 6.832195
459.5667, 7.453381
460.0488, 8.077446
460.5309, 8.616955
461.0131, 9.053528
461.4952, 9.428314
461.9773, 9.621948
462.4594, 9.799206
462.9415, 10.20572
463.4236, 11.15850
463.9058, 12.14411
464.3879, 12.99197
464.8700, 13.68624
465.3521, 14.24857
465.8342, 14.36930
466.3163, 14.59539
466.7985, 15.25981
467.2806, 16.72812
467.7627, 18.00893
468.2448, 19.07090
468.7269, 19.93124
469.2090, 20.60791
469.6912, 20.99047
470.1733, 21.40348
470.6554, 21.93450
471.1375, 22.56742
471.6196, 23.14808
472.1017, 23.67115
472.5839, 24.15775
473.0660, 24.55770
473.5481, 24.86692
474.0302, 25.52143
474.5123, 26.64407
474.9944, 27.87783
475.4766, 28.62485
475.9587, 28.96428
476.4408, 29.40375
476.9229, 30.20322
477.4050, 31.18584
477.8871, 32.10408
478.3693, 32.95452
478.8514, 33.69898
479.3335, 34.09605
479.8156, 34.46636
480.2977, 35.27928
480.7798, 36.78172
481.2620, 38.14605
481.7441, 38.79448
482.2262, 39.01720
482.7083, 39.24245
483.1904, 39.61223
483.6725, 40.00623
484.1547, 40.47321
484.6368, 40.98415
485.1189, 41.21210
485.6010, 40.55138
486.0831, 40.03843
486.5652, 40.24491
487.0474, 41.72066
487.5295, 42.73565
488.0116, 43.15593
488.4937, 43.20329
488.9758, 43.12003
489.4579, 42.78297
489.9401, 42.71696
490.4222, 43.16133
490.9043, 43.95897
491.3864, 44.31109
491.8685, 44.14575
492.3506, 44.04028
492.8328, 44.48550
493.3149, 45.35037
493.7970, 46.03931
494.2791, 46.49533
494.7612, 46.84526
495.2433, 47.19032
495.7255, 47.54471
496.2076, 47.94541
496.6897, 48.40130
497.1718, 48.91899
497.6539, 49.58019
498.1360, 50.31996
498.6182, 50.91277
499.1003, 50.94971
499.5824, 50.99650
500.0645, 51.52176
500.5466, 52.72459
501.0287, 53.73864
501.5109, 54.12035
501.9930, 54.27525
502.4751, 54.60710
502.9572, 55.95855
503.4393, 56.54691
503.9214, 55.78495
504.4036, 54.09048
504.8857, 52.98973
505.3678, 52.72756
505.8499, 52.60088
506.3320, 52.47636
506.8141, 52.39330
507.2963, 51.43618
507.7784, 49.34952
508.2605, 47.07329
508.7426, 45.61868
509.2247, 44.92600
509.7068, 44.08551
510.1890, 42.86922
510.6711, 41.47813
511.1532, 40.27942
511.6353, 39.24690
512.1174, 38.28425
512.5995, 37.47625
513.0817, 36.62594
513.5638, 35.34199
514.0459, 33.65073
514.5280, 32.20976
515.0101, 31.70925
515.4922, 31.49205
515.9744, 30.91344
516.4565, 29.60751
516.9386, 28.44364
517.4207, 27.78499
517.9028, 27.35619
518.3849, 26.74723
518.8671, 25.64049
519.3492, 24.64850
519.8313, 23.97188
520.3134, 23.58392
520.7955, 22.94815
521.2776, 21.78525
521.7598, 20.79154
522.2419, 20.47135
522.7240, 21.04700
523.2061, 21.11496
523.6882, 20.49598
524.1703, 19.70551
524.6525, 19.55522
525.1346, 19.98864
525.6167, 20.07869
526.0988, 19.48751
526.5809, 18.53009
527.0630, 17.61208
527.5452, 16.77220
528.0273, 16.23325
528.5094, 16.47035
528.9915, 16.92351
529.4736, 16.92333
529.9557, 16.40935
530.4379, 15.77108
530.9200, 15.20316
531.4021, 14.65674
531.8842, 14.06186
532.3663, 13.36113
532.8484, 12.66781
533.3306, 11.86987
533.8127, 11.10672
534.2948, 10.70228
534.7769, 10.95964
535.2590, 11.27655
535.7411, 11.60938
536.2233, 11.94508
536.7054, 11.88254
537.1875, 11.31077
537.6696, 10.53301
538.1517, 9.589855
538.6339, 8.471594
539.1160, 7.913275
539.5981, 8.077061
540.0802, 8.467297
540.5623, 8.428253
541.0444, 8.022980
541.5266, 7.601400
542.0087, 7.262651
542.4908, 6.970341
542.9729, 6.673981
543.4550, 6.385139
543.9371, 6.129307
544.4193, 5.987543
544.9014, 5.845598
545.3835, 5.536888
545.8656, 5.036449
546.3477, 4.686806
546.8298, 4.812881
547.3120, 5.044027
547.7941, 5.071953
548.2762, 4.681227
548.7583, 4.305897
549.2404, 3.874838
549.7225, 3.510452
550.2047, 3.482052
550.6868, 4.148415
551.1689, 4.446960
551.6510, 3.952513
552.1331, 2.832209
552.6152, 2.250744
553.0974, 2.296745
553.5795, 2.444977
554.0616, 2.332174
554.5437, 2.012245
555.0258, 1.833258
555.5079, 1.839548
555.9901, 1.812263
556.4722, 1.401302
556.9543, 0.8002380
557.4364, 0.4183880
557.9185, 0.4532010
558.4006, 0.6155090
558.8828, 0.7646680
559.3649, 0.8647860
559.8470, 0.8351570
560.3291, 0.5093020
560.8112, 0.1688770
561.2933, 8.7902002E-02
561.7755, 0.2579990
562.2576, 0.3282850
562.7397, 0.1869540
563.2218, 1.8299000E-02
563.7039, 8.4948003E-02
564.1860, 8.7288000E-02
564.6682, 0.1310830
565.1503, 0.2739660
565.6324, 0.3868410
566.1145, 0.2413250
566.5966, 0.2041950
567.0787, 0.4551980
567.5609, 0.3319420
568.0430, 1.9189999E-03
568.5251, 0.2008610
569.0072, 0.2793790
569.4893, 0.3405740
569.9714, 0.5134030
570.4536, 0.6700500
570.9357, 0.5479050
571.4178, 0.1856650
571.8999, 8.0935001E-02
572.3820, 0.2744810
572.8641, 0.7162550
573.3463, 0.6930010
573.8284, 0.1455670
574.3105, 0.7796880
574.7926, 0.7277810
575.2747, 0.3477540
575.7568, 8.6268999E-02
576.2390, 4.5623999E-02
576.7211, 3.1330001E-02
577.2032, 1.5337000E-02
577.6853, 2.9140001E-03
578.1674, 2.1683000E-02
578.6495, 0.1504040
579.1317, 0.1490800
579.6138, 0.1767440
580.0959, 0.7595120
580.5780, 0.9851890
581.0601, 0.8346480
581.5422, 0.5682620
582.0244, 0.3807810
582.5065, 0.2497310
582.9886, 0.1067710
583.4707, 8.0475003E-02
583.9528, 0.2218690
584.4349, 0.2929380
584.9171, 0.2348350
585.3992, 4.7628000E-02
585.8813, 1.019300
586.3634, 1.721067
586.8455, 1.608229
587.3276, 0.9290260
587.8098, 0.3541240
588.2919, 9.9674001E-02
588.7740, 0.3071250
589.2561, 0.1376690
589.7382, 0.4192700
590.2203, 0.7394310
590.7025, 0.7680660
591.1846, 0.6515670
591.6667, 0.4496650
592.1488, 0.1511820
592.6309, 0.1027850
593.1130, 0.3104930
593.5952, 0.4645160
594.0773, 0.6257970
594.5594, 0.7416170
595.0415, 0.5633390
595.5236, 0.1030540
596.0057, 0.8374920
596.4879, 1.200031
596.9700, 1.264050
597.4521, 1.195107
597.9342, 0.9481770
598.4163, 0.6977440
598.8984, 0.5123440
599.3806, 0.3930680
599.8627, 0.3730410
600.3448, 0.6446210
600.8269, 0.8588140
601.3090, 0.8064420
601.7911, 0.3536300
602.2733, 0.1843050
602.7554, 0.4387250
603.2375, 0.7789330
603.7196, 0.8605100
604.2017, 0.6509020
604.6838, 0.5202790
605.1660, 0.5120560
605.6481, 0.5959630
606.1302, 0.8217330
606.6123, 1.129612
607.0944, 1.228951
607.5765, 0.8630560
608.0587, 0.3865660
608.5408, 0.2047330
609.0229, 0.2638800
609.5050, 0.3650380
609.9871, 0.4257760
610.4692, 0.4842360
610.9514, 0.5570600
611.4335, 0.6355630
611.9156, 0.7360150
612.3977, 0.9847580
612.8798, 1.161180
613.3619, 1.110359
613.8441, 0.6322770
614.3262, 0.4173770
614.8083, 0.5447220
615.2904, 0.8241730
615.7725, 1.048162
616.2546, 1.219057
616.7368, 1.294415
617.2189, 1.260475
617.7010, 1.137413
618.1831, 0.8441090
618.6652, 0.4598010
619.1473, 0.3060230
619.6295, 0.7786850
620.1116, 1.393551
620.5937, 1.627964
621.0758, 1.563768
621.5579, 1.571266
622.0400, 2.053242
622.5222, 2.381683
623.0043, 2.040882
623.4864, 0.7510930
623.9685, 0.1580980
624.4506, 1.057198
624.9327, 2.144644
625.4149, 2.558413
625.8970, 2.009487
626.3791, 1.715149
626.8612, 1.844101
627.3433, 2.018394
627.8254, 1.512720
628.3076, 0.3787730
628.7897, 0.2004760
629.2718, 0.2691270
629.7539, 1.100672
630.2360, 1.116856
630.7181, 0.5643350
631.2003, 0.2460170
631.6824, 1.006306
632.1645, 1.762695
632.6466, 1.558180
633.1287, 0.5660710
633.6108, 0.1186310
634.0930, 8.8500999E-02
634.5751, 0.4452860
635.0572, 0.5686170
635.5393, 0.3637560
636.0214, 0.3418120
636.5035, 0.5998250
636.9857, 0.9178750
637.4678, 1.174923
637.9499, 1.367414
638.4320, 1.311964
638.9141, 0.9433310
639.3962, 0.4844300
639.8784, 0.1854710
640.3605, 3.9845001E-02
640.8426, 4.3683998E-02
641.3247, 0.2796360
641.8068, 0.5023690
642.2889, 0.3443410
642.7711, 1.8440001E-02
643.2532, 0.1939110
643.7353, 8.4660001E-02
644.2174, 0.4715290
644.6995, 0.9091970
645.1816, 1.356318
645.6638, 1.587805
646.1459, 1.408909
646.6280, 1.138285
647.1101, 0.8673760
647.5922, 0.6038630
648.0743, 0.4571300
648.5565, 0.4352910
649.0386, 0.5071160
649.5207, 0.7007850
650.0028, 0.9852600
650.4849, 1.114248
650.9670, 1.055151
651.4492, 0.9525170
651.9313, 0.9338250
652.4134, 0.9854340
652.8955, 1.118593
653.3776, 1.445173
653.8597, 1.673294
654.3419, 1.562298
654.8240, 1.246553
655.3061, 0.9329220
655.7882, 0.4259830
656.2703, 0.2141060
656.7524, 0.6308560
657.2346, 1.419621
657.7167, 1.816570
658.1988, 1.704216
658.6809, 1.467691
659.1630, 1.152880
659.6451, 0.8071140
660.1273, 0.8304120
660.6094, 1.256611
661.0915, 1.657104
661.5736, 1.748110
662.0557, 1.607286
662.5378, 1.329914
663.0200, 0.9249710
663.5021, 0.5913930
663.9842, 0.5097500
664.4663, 0.5426750
664.9484, 0.5672650
665.4305, 0.5595400
665.9127, 0.5372180
666.3948, 0.5467280
666.8769, 0.5317820
667.3590, 0.4082910
667.8411, 5.6840000E-03
668.3232, 0.1174410
668.8054, 0.2507550
669.2875, 0.7930640
669.7696, 0.9107510
670.2517, 0.5944840
670.7338, 0.4089280
671.2159, 0.5664460
671.6981, 0.8771110
672.1802, 1.017101
672.6623, 1.035780
673.1444, 1.094275
673.6265, 1.432209
674.1086, 1.707441
674.5908, 1.539330
675.0729, 1.013918
675.5550, 0.7105640
676.0371, 1.151052
676.5192, 1.536339
677.0013, 1.494099
677.4835, 0.9975850
677.9656, 0.4592700
678.4477, 0.2982220
678.9298, 0.7967010
679.4119, 0.5443440
679.8940, 0.4703960
680.3762, 1.052811
680.8583, 1.126688
681.3404, 1.052711
681.8225, 1.209965
682.3046, 1.524576
682.7867, 1.799625
683.2689, 2.036854
683.7510, 2.068136
684.2331, 1.488586
684.7152, 0.7266240
685.1973, 0.3407420
685.6794, 0.9796850
686.1616, 1.389717
686.6437, 1.149317
687.1258, 0.6285270
687.6079, 0.3761180
688.0900, 0.4579470
688.5721, 0.6127850
689.0543, 0.8636360
689.5364, 1.109222
690.0185, 0.8391930
690.5006, 7.5451002E-02
690.9827, 0.4832710
691.4648, 0.3472040
691.9470, 0.1517030
692.4291, 0.5373330
692.9112, 0.7887550
693.3933, 0.8294620
693.8754, 0.3783700
694.3575, 9.5224001E-02
694.8397, 0.2472970
695.3218, 2.4412001E-02
695.8039, 0.1048110
696.2860, 3.2028001E-02
696.7681, 0.1772590
697.2502, 0.2193810
697.7324, 0.1629830
698.2145, 6.9747999E-02
698.6966, 0.5708690
699.1787, 1.022995
699.6608, 1.022654
700.1429, 0.6600020
700.6251, 0.3947330
701.1072, 0.2918620
701.5893, 0.2992150
702.0714, 0.4008730
702.5535, 0.5259440
703.0356, 0.5591870
703.5178, 0.3543530
703.9999, 0.2471430
704.4820, 0.3219760
704.9641, 0.5840820
705.4462, 1.070816
705.9283, 2.168764
706.4105, 2.852230
706.8926, 2.865938
707.3747, 2.468798
707.8568, 2.305723
708.3389, 2.403202
708.8210, 2.336069
709.3032, 1.823425
709.7853, 1.188927
710.2674, 1.105110
710.7495, 1.494665
711.2316, 2.037458
711.7137, 2.771109
712.1959, 3.416519
712.6780, 3.733000
713.1601, 3.750349
713.6422, 3.713890
714.1243, 3.769632
714.6064, 3.707043
715.0886, 3.332243
715.5707, 2.620956
716.0528, 2.416477
716.5349, 2.862682
717.0170, 3.445122
717.4991, 3.856932
717.9813, 4.114435
718.4634, 4.333717
718.9455, 4.509596
719.4276, 4.794836
719.9097, 5.505974
720.3918, 6.327509
720.8740, 6.776299
721.3561, 6.726826
721.8382, 6.679750
722.3203, 6.683266
722.8024, 6.907103
723.2845, 7.526421
723.7667, 9.005461
724.2488, 10.09602
724.7309, 10.76220
725.2130, 11.08751
725.6951, 11.01309
726.1772, 10.48235
726.6594, 10.47623
727.1415, 11.24720
727.6236, 12.25966
728.1057, 12.68973
728.5878, 12.77471
729.0699, 13.15963
729.5521, 14.23337
730.0342, 15.38178
730.5163, 16.21061
730.9984, 16.82445
731.4805, 17.40959
731.9626, 18.09809
732.4448, 18.65030
732.9269, 18.97396
733.4090, 19.15051
733.8911, 19.40724
734.3732, 19.77845
734.8553, 20.07891
735.3375, 20.24397
735.8196, 20.30490
736.3017, 20.44725
736.7838, 20.58615
737.2659, 20.36327
737.7480, 19.11231
738.2302, 17.72156
738.7123, 17.19598
739.1944, 17.35213
739.6765, 17.23480
740.1586, 16.39217
740.6407, 15.29094
741.1229, 13.93197
741.6050, 12.34444
742.0871, 11.47634
742.5692, 11.57498
743.0513, 11.80008
743.5334, 11.76053
744.0156, 11.46948
744.4977, 11.04274
744.9798, 10.47923
745.4619, 9.777975
745.9440, 8.749001
746.4261, 7.688667
746.9083, 6.982622
747.3904, 6.668583
747.8725, 6.469936
748.3546, 6.241541
748.8367, 6.094975
749.3188, 6.177521
749.8010, 6.639624
750.2831, 6.795780
750.7652, 6.603567
751.2473, 6.168066
751.7294, 5.401461
752.2115, 4.319016
752.6937, 3.821960
753.1758, 4.020882
753.6579, 4.467596
754.1400, 4.851137
754.6221, 5.124645
755.1042, 5.214430
755.5864, 5.097214
756.0685, 4.841307
756.5506, 4.315660
757.0327, 3.748690
757.5148, 3.384546
757.9969, 3.400534
758.4791, 3.385769
758.9612, 3.333530
759.4433, 3.257839
759.9254, 3.175903
760.4075, 3.094551
760.8896, 3.039278
761.3718, 3.032360
761.8539, 2.997141
762.3360, 2.705515
762.8181, 2.328215
763.3002, 2.197462
763.7823, 2.545603
764.2645, 2.931107
764.7466, 3.012268
765.2287, 2.959890
765.7108, 3.009787
766.1929, 3.477249
766.6750, 3.624886
767.1572, 3.197226
767.6393, 2.565023
768.1214, 2.526793
768.6035, 3.142588
769.0856, 3.403311
769.5677, 2.869329
770.0499, 2.212065
770.5320, 2.791567
771.0141, 4.123255
771.4962, 4.915623
771.9783, 4.055645
772.4604, 3.067453
772.9426, 2.856543
773.4247, 3.115915
773.9068, 3.104025
774.3889, 2.347380
774.8710, 1.904482
775.3531, 2.008276
775.8353, 2.487736
776.3174, 2.888399
776.7995, 3.214945
777.2816, 3.305117
777.7637, 2.948002
778.2458, 2.477551
778.7280, 2.585985
779.2101, 3.090820
779.6922, 3.392570
780.1743, 3.037825
780.6564, 2.569780
781.1385, 2.184860
781.6207, 1.919168
782.1028, 1.836935
782.5849, 2.175251
783.0670, 2.353806
783.5491, 2.152895
784.0313, 1.692974
784.5134, 1.473135
784.9955, 1.491480
785.4776, 1.543573
785.9597, 1.586584
786.4418, 1.568081
786.9240, 1.238571
787.4061, 0.7215980
787.8882, 0.4790550
788.3703, 1.059855
788.8524, 1.707415
789.3345, 1.994543
789.8167, 1.971119
790.2988, 1.892725
790.7809, 1.769335
791.2630, 1.578747
791.7451, 1.266212
792.2272, 0.8898430
792.7094, 0.6643370
793.1915, 0.5915390
793.6736, 0.6755850
794.1557, 1.105951
794.6378, 1.580666
795.1199, 1.718451
795.6021, 1.550018
796.0842, 1.235838
796.5663, 0.5115380
797.0484, 2.2402000E-02
797.5305, 3.6750998E-02
798.0126, 0.6044650
798.4948, 0.9749490
798.9769, 1.147272
799.4590, 1.119034
799.9411, 0.7528000
800.4232, 0.2379150
800.9053, 0.5556660
801.3875, 1.596727
801.8696, 2.274971
802.3517, 1.465601
802.8338, 0.3204840
803.3159, 6.2651001E-02
803.7980, 0.5607780
804.2802, 0.8911170
804.7623, 0.5990220
805.2444, 0.2478980
805.7265, 2.2905000E-02
806.2086, 0.1961190
806.6907, 7.2719999E-02
807.1729, 0.4184760
807.6550, 0.9088710
808.1371, 1.280313
808.6192, 1.504885
809.1013, 1.432564
809.5834, 1.110424
810.0656, 0.8069270
810.5477, 0.5938010
811.0298, 0.5300870
811.5119, 0.7672480
811.9940, 1.246899
812.4761, 1.523088
812.9583, 1.420334
813.4404, 1.238119
813.9225, 1.017405
814.4046, 0.7869190
814.8867, 0.7723450
815.3688, 0.9901580
815.8510, 1.092873
816.3331, 0.8148800
816.8152, 0.3582710
817.2973, 2.7243000E-02
817.7794, 0.1891920
818.2615, 0.3271120
818.7437, 0.5219350
819.2258, 0.5260140
819.7079, 8.9339996E-03
820.1900, 0.9385010
820.6721, 1.185638
821.1542, 0.3036730
821.6364, 0.2507170
822.1185, 0.1568640
822.6006, 1.162565
823.0827, 1.588438
823.5648, 1.478729
824.0469, 1.221849
824.5291, 0.8464370
825.0112, 0.5532590
825.4933, 0.6683580
825.9754, 1.040848
826.4575, 1.192396
826.9396, 0.8078140
827.4218, 0.3601250
827.9039, 0.1125300
828.3860, 0.5410160
828.8681, 0.6405260
829.3502, 0.3584400
829.8323, 4.6909001E-02
830.3145, 0.2235970
830.7966, 0.3971960
831.2787, 0.2530960
831.7608, 9.4426997E-02
832.2429, 0.2865600
832.7250, 3.6635999E-02
833.2072, 0.3612310
833.6893, 0.3756240
834.1714, 0.1847590
834.6535, 6.5552004E-02
835.1356, 2.2015000E-02
835.6177, 8.7736003E-02
836.0999, 0.3278580
836.5820, 0.6278840
837.0641, 0.7358300
837.5462, 0.6599410
838.0283, 0.4602150
838.5104, 3.4860998E-02
838.9926, 0.2833770
839.4747, 9.2178002E-02
839.9568, 0.7897970
840.4389, 1.165468
840.9210, 0.6959740
841.4031, 0.2434250
841.8853, 7.7924997E-02
842.3674, 0.2419870
842.8495, 0.1778140
843.3316, 0.1496160
843.8137, 0.5953880
844.2958, 1.243967
844.7780, 1.726105
845.2601, 1.131168
845.7422, 2.9570000E-02
846.2243, 0.4571230
846.7064, 0.4821410
847.1885, 1.487595
847.6707, 1.972660
848.1528, 2.057114
848.6349, 1.834696
849.1170, 0.9064240
849.5991, 0.4686700
850.0812, 0.7117600
850.5634, 1.181120
851.0455, 1.318913
851.5276, 1.172091
852.0097, 1.214737
852.4918, 1.539227
852.9739, 1.909212
853.4561, 2.149586
853.9382, 2.288105
854.4203, 2.392149
854.9024, 2.560019
855.3845, 2.375132
855.8666, 1.088255
856.3488, 2.5782000E-02
856.8309, 0.2560330
857.3130, 2.045507
857.7951, 3.021208
858.2772, 3.102665
858.7593, 2.819845
859.2415, 2.429615
859.7236, 2.063334
860.2057, 1.929680
860.6878, 2.048405
861.1699, 2.353003
861.6520, 3.065357
862.1342, 3.743263
862.6163, 4.060848
863.0984, 4.000458
863.5805, 4.125921
864.0626, 4.540436
864.5447, 4.824883
865.0269, 4.607698
865.5090, 4.074654
865.9911, 3.947296
866.4732, 4.172668
866.9553, 4.380753
867.4374, 4.299692
867.9196, 4.157728
868.4017, 4.008615
868.8838, 3.897715
869.3659, 4.163298
869.8480, 5.318884
870.3301, 5.975506
870.8123, 5.467775
871.2944, 4.299059
871.7765, 4.337618
872.2586, 5.474705
872.7407, 6.570993
873.2228, 7.206718
873.7050, 7.469336
874.1871, 7.177763
874.6692, 6.606606
875.1513, 6.346554
875.6334, 7.178274
876.1155, 7.545080
876.5977, 6.802372
877.0798, 5.702848
877.5619, 5.788589
878.0440, 7.144043
878.5261, 8.059673
879.0082, 8.138376
879.4904, 7.801096
879.9725, 7.469593
880.4546, 7.212982
880.9367, 7.210400
881.4188, 7.635635
881.9009, 8.042274
882.3831, 8.524410
882.8652, 8.746296
883.3473, 8.302586
883.8294, 6.891558
884.3115, 6.014589
884.7936, 5.802837
885.2758, 5.823170
885.7579, 5.611702
886.2400, 5.273144
886.7221, 5.160755
887.2042, 5.356897
887.6863, 5.400654
888.1685, 4.866812
888.6506, 4.184303
889.1327, 3.604122
889.6148, 3.100517
890.0969, 2.981955
890.5790, 3.484652
891.0612, 3.850590
891.5433, 3.402905
892.0254, 2.463440
892.5075, 2.384993
892.9896, 3.061451
893.4717, 3.630733
893.9539, 3.572306
894.4360, 3.219011
894.9181, 2.635956
895.4002, 1.902229
895.8823, 1.479046
896.3644, 1.468489
896.8466, 1.596317
897.3287, 1.952545
897.8108, 2.325409
898.2929, 2.066456
898.7750, 1.282476
899.2571, 0.6488250
899.7393, 0.4263400
900.2214, 0.4180360
900.7035, 0.4999310
901.1856, 0.7031970
901.6677, 1.041929
902.1498, 1.939917
902.6320, 2.363789
903.1141, 2.141277
903.5962, 1.552311
904.0783, 0.8871140
904.5604, 0.2157420
905.0425, 0.2761210
905.5247, 0.5477940
906.0068, 0.6962180
906.4889, 0.7653140
906.9710, 0.7876660
907.4531, 0.8143620
907.9352, 0.8868410
908.4174, 0.8274230
908.8995, 0.5383190
909.3816, 0.2020780
909.8637, 5.1380001E-02
910.3458, 0.2256790
910.8279, 0.5805840
911.3101, 1.121891
911.7922, 1.541994
912.2743, 1.587805
912.7564, 1.413942
913.2385, 1.091188
913.7206, 0.6650640
914.2028, 0.3846720
914.6849, 0.4685690
915.1670, 0.6002180
915.6491, 0.6960930
916.1312, 0.7627530
916.6133, 0.8209110
917.0955, 0.8708340
917.5776, 0.9297540
918.0597, 1.021585
918.5418, 1.100334
919.0239, 1.053539
919.5060, 0.9604820
919.9882, 0.9745270
920.4703, 1.111437
920.9524, 1.421331
921.4345, 2.096693
921.9166, 2.790995
922.3987, 3.063187
922.8809, 2.893860
923.3630, 2.510075
923.8451, 1.871231
924.3272, 1.404127
924.8093, 1.737843
925.2914, 2.441422
925.7736, 2.942446
926.2557, 3.128643
926.7378, 3.298649
927.2199, 3.685192
927.7020, 3.922995
928.1841, 3.728983
928.6663, 3.105621
929.1484, 2.945763
929.6305, 3.266394
930.1126, 3.648273
930.5947, 3.849810
931.0768, 3.946589
931.5590, 3.991262
932.0411, 4.006645
932.5232, 4.073792
933.0053, 4.258408
933.4874, 4.462788
933.9695, 4.746626
934.4517, 4.994034
934.9338, 4.820679
935.4159, 4.214903
935.8980, 3.843025
936.3801, 3.893433
936.8622, 4.237244
937.3444, 4.944532
937.8265, 5.767658
938.3086, 6.342871
938.7907, 6.475569
939.2728, 6.533468
939.7549, 6.534321
940.2371, 6.525429
940.7192, 6.568573
941.2013, 6.668148
941.6834, 6.612164
942.1655, 6.385746
942.6476, 6.166819
943.1298, 6.025826
943.6119, 6.025229
944.0940, 6.376600
944.5761, 7.061188
945.0582, 7.376793
945.5403, 6.668131
946.0225, 6.180939
946.5046, 6.416822
946.9867, 7.147923
947.4688, 7.382957
947.9509, 7.154781
948.4330, 7.025558
948.9152, 7.331499
949.3973, 7.699966
949.8794, 7.830963
950.3615, 7.755573
950.8436, 7.528030
951.3257, 6.661228
951.8079, 6.421228
952.2900, 7.144220
952.7721, 8.146770
953.2542, 8.560406
953.7363, 8.471148
954.2184, 8.560741
954.7006, 8.923916
955.1827, 9.248024
955.6648, 9.281006
956.1469, 9.163885
956.6290, 8.954008
957.1111, 8.627399
957.5933, 8.586159
958.0754, 9.001501
958.5575, 9.374811
959.0396, 9.411373
959.5217, 9.243769
960.0038, 9.398867
960.4860, 9.805916
960.9681, 10.09780
961.4502, 10.06771
961.9323, 9.873360
962.4144, 9.440224
962.8965, 8.927227
963.3787, 8.716694
963.8608, 8.929829
964.3429, 9.184763
964.8250, 9.472717
965.3071, 9.712803
965.7892, 9.690062
966.2714, 9.547703
966.7535, 9.736202
967.2356, 10.40352
967.7177, 10.80862
968.1998, 10.17987
968.6819, 9.423138
969.1641, 9.247448
969.6462, 9.713490
970.1283, 9.903488
970.6104, 9.799711
971.0925, 9.532589
971.5746, 9.067516
972.0568, 8.577599
972.5389, 8.330204
973.0210, 8.218876
973.5031, 8.099510
973.9852, 7.907564
974.4673, 7.707455
974.9495, 7.523016
975.4316, 7.338734
975.9137, 7.043907
976.3958, 6.609400
976.8779, 6.710939
977.3600, 7.594524
977.8422, 8.453396
978.3243, 8.220360
978.8064, 7.553818
979.2885, 7.371843
979.7706, 8.010237
980.2527, 8.195728
980.7349, 7.191772
981.2170, 6.366978
981.6991, 6.664604
982.1812, 7.863613
982.6633, 8.127548
983.1454, 7.532627
983.6276, 6.940491
984.1097, 6.908169
984.5918, 7.026737
985.0739, 7.092726
985.5560, 7.062639
986.0381, 6.770266
986.5203, 5.768309
987.0024, 5.537012
987.4845, 6.546896
987.9666, 7.836683
988.4487, 7.823778
988.9308, 6.966030
989.4130, 6.569996
989.8951, 6.892508
990.3772, 7.353979
990.8593, 7.958267
991.3414, 8.291279
991.8235, 7.865767
992.3057, 6.627298
992.7878, 6.113016
993.2699, 6.419502
993.7520, 6.817064
994.2341, 6.852079
994.7162, 6.749907
995.1984, 6.876532
995.6805, 7.175158
996.1626, 7.487974
996.6447, 7.983624
997.1268, 8.183771
997.6089, 7.903765
998.0911, 7.367014
998.5732, 6.775827
999.0553, 6.130844
999.5374, 6.000463
1000.020, 6.540102
1000.502, 7.056957
1000.984, 6.834110
1001.466, 6.294649
1001.948, 5.764847
1002.430, 5.273821
1002.912, 5.041414
1003.394, 5.171671
1003.876, 5.386852
1004.359, 5.698666
1004.841, 5.935389
1005.323, 5.309959
1005.805, 4.069389
1006.287, 3.253269
1006.769, 3.678930
1007.251, 4.154739
1007.733, 4.026028
1008.216, 3.594875
1008.698, 3.300114
1009.180, 3.199083
1009.662, 3.008751
1010.144, 2.692574
1010.626, 2.361120
1011.108, 2.191925
1011.590, 2.056238
1012.072, 1.525478
1012.555, 0.6361600
1013.037, 0.3965700
1013.519, 2.144411
1014.001, 3.492895
1014.483, 3.423115
1014.965, 2.428572
1015.447, 2.390043
1015.929, 3.200754
1016.411, 3.458586
1016.894, 2.476061
1017.376, 1.358175
1017.858, 1.096161
1018.340, 1.242685
1018.822, 1.236025
1019.304, 0.8816320
1019.786, 0.6786000
1020.268, 0.6569750
1020.751, 0.7201670
1021.233, 0.8660950
1021.715, 1.020380
1022.197, 0.8998990
1022.679, 0.5621190
1023.161, 0.3675750
1023.643, 0.7395940
1024.125, 1.014349
1024.607, 0.7472420
1025.090, 0.2695080
1025.572, 0.3691080
1026.054, 1.105433
1026.536, 1.520098
1027.018, 1.406986
1027.500, 1.081844
1027.982, 0.8564870
1028.464, 0.6232810
1028.947, 0.1518480
1029.429, 0.7281190
1029.911, 0.9969120
1030.393, 0.3070510
1030.875, 0.4269850
1031.357, 0.7533860
1031.839, 0.7663060
1032.321, 0.7526340
1032.803, 0.7060410
1033.286, 0.5962140
1033.768, 0.2786560
1034.250, 5.0159000E-02
1034.732, 0.1118950
1035.214, 0.2960830
1035.696, 0.4113080
1036.178, 0.4850580
1036.660, 0.3195530
1037.143, 0.1474900
1037.625, 0.5417650
1038.107, 0.4563470
1038.589, 0.1434190
1039.071, 0.1360890
1039.553, 0.3561150
1040.035, 0.4763830
1040.517, 0.3945940
1041.000, 0.3222870
1041.482, 0.3083670
1041.964, 0.3883880
1042.446, 0.6189630
1042.928, 0.9401150
1043.410, 1.079969
1043.892, 0.9051530
1044.374, 0.6989820
1044.856, 0.7028600
1045.339, 0.7039510
1045.821, 0.4248120
1046.303, 0.2499580
1046.785, 0.1967300
1047.267, 0.6811050
1047.749, 1.431211
1048.231, 1.228910
1048.713, 0.6642090
1049.195, 0.5018580
1049.677, 0.6099070
1050.160, 0.5994360
1050.642, 0.1094250
1051.124, 0.1299360
1051.606, 5.1886000E-02
1052.088, 0.3797660
1052.570, 0.4761560
1053.052, 0.3988190
1053.534, 0.3734340
1054.017, 0.4320340
1054.499, 0.4913060
1054.981, 0.4969640
1055.463, 0.4818730
1055.945, 0.4802970
1056.427, 0.4563370
1056.909, 0.2208180
1057.391, 0.2642270
1057.874, 0.4365290
1058.356, 1.9441999E-02
1058.838, 0.6131570
1059.320, 1.176645
1059.802, 1.589169
1060.284, 1.732014
1060.766, 1.441248
1061.248, 1.173981
1061.730, 0.8868270
1062.213, 0.7459180
1062.695, 1.035971
1063.177, 1.555592
1063.659, 1.390461
1064.141, 0.7197170
1064.623, 0.4018440
1065.105, 1.556944
1065.587, 2.359402
1066.070, 1.627237
1066.552, 0.3563800
1067.034, 0.1649460
1067.516, 1.104197
1067.998, 1.391273
1068.480, 0.7571720
1068.962, 8.8182002E-02
1069.444, 0.4117470
1069.927, 0.9083120
1070.409, 0.6916730
1070.891, 0.2848610
1071.373, 0.7591040
1071.855, 0.5675370
1072.337, 0.2174630
1072.819, 0.2335470
1073.301, 0.6191980
1073.783, 0.5232470
1074.266, 0.1621020
1074.748, 1.6721999E-02
1075.230, 0.2999000
1075.712, 0.4815220
1076.194, 0.2609690
1076.676, 8.2670003E-02
1077.158, 0.2783830
1077.640, 0.7899210
1078.122, 0.9771540
1078.604, 0.8764110
1079.087, 0.7967030
1079.569, 0.9035170
1080.051, 1.093180
1080.533, 1.366896
1081.015, 1.660280
1081.497, 1.881323
1081.979, 2.046171
1082.461, 1.996794
1082.944, 1.685711
1083.426, 1.405062
1083.908, 1.592436
1084.390, 1.870213
1084.872, 1.675211
1085.354, 1.037376
1085.836, 0.7178320
1086.318, 0.9568070
1086.801, 1.275456
1087.283, 1.600965
1087.765, 1.819446
1088.247, 1.579738
1088.729, 1.081639
1089.211, 0.9935900
1089.693, 1.576619
1090.175, 1.928313
1090.657, 1.451429
1091.140, 0.8298640
1091.622, 0.3513720
1092.104, 4.3476999E-02
1092.586, 0.2751430
1093.068, 0.9863530
1093.550, 1.450203
1094.032, 1.169316
1094.514, 0.7978560
1094.997, 0.8214400
1095.479, 1.014419
1095.961, 1.152702
1096.443, 1.351818
1096.925, 0.9409620
1097.407, 0.2249340
1097.889, 1.116708
1098.371, 0.6526640
1098.854, 0.3627350
1099.336, 1.038280
1099.818, 1.378403
1100.300, 1.498061
1100.782, 1.199759
1101.264, 1.084511
1101.746, 1.281516
1102.228, 1.573511
1102.710, 1.674083
1103.193, 1.640758
1103.675, 1.592058
1104.157, 1.528663
1104.639, 1.527221
1105.121, 1.610533
1105.603, 1.795883
1106.085, 2.238214
1106.567, 2.714224
1107.049, 2.313219
1107.531, 1.184764
1108.014, 0.6008570
1108.496, 1.040733
1108.978, 1.569767
1109.460, 1.665256
1109.942, 1.478899
1110.424, 1.082205
1110.906, 0.4677450
1111.388, 8.4165998E-02
1111.871, 5.9711002E-02
1112.353, 0.1066390
1112.835, 0.1941910
1113.317, 0.1314130
1113.799, 0.4712210
1114.281, 1.297344
1114.763, 1.827840
1115.245, 1.841885
1115.728, 1.747245
1116.210, 1.544102
1116.692, 1.378787
1117.174, 1.438398
1117.656, 1.594412
1118.138, 1.486659
1118.620, 1.233171
1119.102, 1.333807
1119.584, 2.660379
1120.067, 3.324701
1120.549, 2.821020
1121.031, 1.899515
1121.513, 1.599524
1121.995, 1.728349
1122.477, 1.543499
1122.959, 0.9835530
1123.441, 0.6691830
1123.924, 1.243073
1124.406, 1.780000
1124.888, 1.814466
1125.370, 1.562015
1125.852, 1.661757
1126.334, 2.067167
1126.816, 2.234965
1127.298, 2.047051
1127.781, 1.657804
1128.263, 0.9074710
1128.745, 0.1931840
1129.227, 0.1071490
1129.709, 2.8315000E-02
1130.191, 0.4055870
1130.673, 1.064833
1131.155, 1.331861
1131.637, 0.6234640
1132.120, 2.6349001E-02
1132.602, 0.8382710
1133.084, 2.322115
1133.566, 3.085073
1134.048, 2.751056
1134.530, 2.428459
1135.012, 2.106051
1135.494, 1.906122
1135.976, 2.038255
1136.458, 2.271846
1136.941, 2.138326
1137.423, 1.740068
1137.905, 1.393365
1138.387, 1.096250
1138.869, 1.087795
1139.351, 1.485769
1139.833, 1.942458
1140.315, 2.121299
1140.798, 2.094144
1141.280, 2.008497
1141.762, 1.875153
1142.244, 1.714873
1142.726, 1.520995
1143.208, 1.298684
1143.690, 0.9353270
1144.172, 0.6826690
1144.655, 1.150632
1145.137, 2.075777
1145.619, 2.268550
1146.101, 1.573671
1146.583, 1.096511
1147.065, 1.857851
1147.547, 2.530418
1148.029, 2.475464
1148.511, 1.909139
1148.994, 1.351137
1149.476, 0.8168850
1149.958, 0.4979380
1150.440, 0.4828640
1150.922, 0.5648970
1151.404, 0.5687350
1151.886, 0.6249270
1152.368, 0.8657310
1152.851, 1.263856
1153.333, 1.543017
1153.815, 1.701385
1154.297, 1.940857
1154.779, 2.422418
1155.261, 2.786273
1155.743, 2.608541
1156.225, 2.253336
1156.708, 2.045212
1157.190, 1.947174
1157.672, 2.019077
1158.154, 2.295948
1158.636, 2.434070
1159.118, 2.171006
1159.600, 1.751218
1160.082, 1.280961
1160.564, 0.8980700
1161.047, 0.8764800
1161.529, 1.508668
1162.011, 1.856202
1162.493, 1.861341
1162.975, 1.816912
1163.457, 1.992139
1163.939, 2.242569
1164.421, 2.329582
1164.903, 2.260877
1165.385, 2.214838
1165.868, 2.349011
1166.350, 2.358150
1166.832, 2.161767
1167.314, 1.988992
1167.796, 2.184450
1168.278, 2.520004
1168.760, 2.656935
1169.242, 2.555379
1169.725, 2.147763
1170.207, 0.8826740
1170.689, 0.1354350
1171.171, 0.2449670
1171.653, 0.7462970
1172.135, 1.037299
1172.617, 1.150436
1173.099, 1.088822
1173.582, 0.8630010
1174.064, 0.8597550
1174.546, 1.434832
1175.028, 1.993037
1175.510, 2.411983
1175.992, 2.689827
1176.474, 2.803778
1176.956, 2.771053
1177.438, 2.651181
1177.921, 2.390038
1178.403, 2.037991
1178.885, 1.287923
1179.367, 0.8480090
1179.849, 1.109941
1180.331, 1.801530
1180.813, 2.151596
1181.295, 2.191209
1181.778, 1.986159
1182.260, 1.440197
1182.742, 1.062684
1183.224, 1.160892
1183.706, 1.437420
1184.188, 1.831045
1184.670, 2.253445
1185.152, 2.043272
1185.635, 1.347156
1186.117, 0.9237830
1186.599, 1.175718
1187.081, 1.491130
1187.563, 1.725233
1188.045, 1.801518
1188.527, 1.594417
1189.009, 1.138710
1189.491, 0.9430900
1189.974, 0.9746070
1190.456, 1.078796
1190.938, 1.114315
1191.420, 1.232936
1191.902, 1.870501
1192.384, 2.362667
1192.866, 1.903434
1193.348, 0.4580430
1193.830, 0.3484840
1194.313, 0.5277680
1194.795, 0.2588560
1195.277, 0.8371010
1195.759, 1.811821
1196.241, 2.082793
1196.723, 1.954488
1197.205, 1.751480
1197.687, 1.467577
1198.169, 1.400841
1198.652, 1.553269
1199.134, 1.590908
1199.616, 0.9853120
1200.098, 0.5180540
1200.580, 0.8463090
1201.062, 1.536461
1201.544, 1.917901
1202.026, 1.989712
1202.509, 1.662622
1202.991, 0.9168220
1203.473, 0.4202610
1203.955, 0.8395520
1204.437, 1.482112
1204.919, 2.067801
1205.401, 2.497065
1205.883, 2.506111
1206.365, 2.084352
1206.848, 1.731544
1207.330, 1.507745
1207.812, 1.418189
1208.294, 1.607440
1208.776, 1.803325
1209.258, 1.711007
1209.740, 1.488066
1210.222, 1.677247
1210.705, 2.288095
1211.187, 2.504746
1211.669, 2.158397
1212.151, 1.659031
1212.633, 1.157979
1213.115, 0.7892520
1213.597, 0.7313140
1214.079, 0.8932340
1214.562, 0.9130330
1215.044, 0.8069770
1215.526, 1.071008
1216.008, 1.944604
1216.490, 2.512971
1216.972, 1.592574
1217.454, 0.4911800
1217.936, 0.3023770
1218.418, 0.8254180
1218.901, 1.044766
1219.383, 0.9723820
1219.865, 0.8345050
1220.347, 0.7061320
1220.829, 0.4837320
1221.311, 0.2611010
1221.793, 0.7991560
1222.275, 0.5045450
1222.757, 0.4877820
1223.240, 1.194487
1223.722, 1.630877
1224.204, 2.005933
1224.686, 2.429558
1225.168, 2.690652
1225.650, 2.570460
1226.132, 2.296308
1226.614, 2.046000
1227.096, 1.814651
1227.579, 1.459870
1228.061, 1.017178
1228.543, 0.8342390
1229.025, 1.205422
1229.507, 1.506174
1229.989, 1.109084
1230.471, 0.7370210
1230.953, 1.049449
1231.436, 1.912873
1231.918, 2.213495
1232.400, 2.012551
1232.882, 1.707975
1233.364, 1.476311
1233.846, 1.151076
1234.328, 0.1920170
1234.810, 0.4464700
1235.292, 0.1458160
1235.775, 1.744052
1236.257, 2.502838
1236.739, 2.526937
1237.221, 2.380565
1237.703, 2.283600
1238.185, 2.098165
1238.667, 1.617861
1239.149, 1.200352
1239.632, 1.171333
1240.114, 1.441487
1240.596, 1.456859
1241.078, 1.269605
1241.560, 1.100135
1242.042, 1.081459
1242.524, 1.043790
1243.006, 0.9210350
1243.489, 0.8012150
1243.971, 0.7807740
1244.453, 0.8141800
1244.935, 0.6657780
1245.417, 0.4238820
1245.899, 0.4600600
1246.381, 1.559175
1246.863, 1.948385
1247.345, 1.072514
1247.828, 7.3642001E-02
1248.310, 1.3090000E-03
1248.792, 0.5610690
1249.274, 0.6690020
1249.756, 0.4186010
1250.238, 0.2594720
1250.720, 0.3667070
1251.202, 0.5954910
1251.684, 1.032994
1252.167, 1.353895
1252.649, 1.101556
1253.131, 0.6222020
1253.613, 0.6630940
1254.095, 1.079514
1254.577, 1.371437
1255.059, 1.357095
1255.541, 1.322723
1256.023, 1.292351
1256.506, 1.206602
1256.988, 0.8425970
1257.470, 0.5083890
1257.952, 0.8832900
1258.434, 1.652481
1258.916, 1.765495
1259.398, 0.6696110
1259.880, 0.3005600
1260.363, 0.8661230
1260.845, 1.578469
1261.327, 1.851141
1261.809, 1.828332
1262.291, 1.507059
1262.773, 1.207789
1263.255, 1.052727
1263.737, 1.080096
1264.219, 1.070851
1264.702, 1.003306
1265.184, 1.012894
1265.666, 1.336495
1266.148, 1.650230
1266.630, 1.731514
1267.112, 1.598868
1267.594, 1.250875
1268.076, 0.6453240
1268.559, 0.5242610
1269.041, 1.044835
1269.523, 1.416825
1270.005, 0.9237170
1270.487, 0.3474610
1270.969, 4.3285999E-02
1271.451, 0.1194190
1271.933, 0.5397460
1272.416, 1.832026
1272.898, 2.419429
1273.380, 2.254392
1273.862, 1.847141
1274.344, 1.235861
1274.826, 0.7736680
1275.308, 0.5771560
1275.790, 0.5637280
1276.272, 0.5959900
1276.755, 0.6759970
1277.237, 0.8674310
1277.719, 1.121053
1278.201, 1.135920
1278.683, 0.2152160
1279.165, 7.0347004E-02
1279.647, 0.8391410
1280.129, 1.897307
1280.611, 1.785053
1281.094, 1.030104
1281.576, 0.8320720
1282.058, 1.105148
1282.540, 1.133359
1283.022, 0.3437220
1283.504, 7.9337999E-02
1283.986, 0.5767300
1284.468, 1.254009
1284.950, 1.579545
1285.433, 1.703942
1285.915, 1.896062
1286.397, 2.058115
1286.879, 1.698002
1287.361, 0.6667490
1287.843, 1.5951000E-02
1288.325, 0.1492590
1288.807, 2.1237001E-02
1289.290, 0.7123400
1289.772, 1.393537
1290.254, 1.569214
1290.736, 1.340644
1291.218, 1.170083
1291.700, 1.035336
1292.182, 0.7480740
1292.664, 0.2932550
1293.146, 3.6644001E-02
1293.629, 0.1183090
1294.111, 0.3199220
1294.593, 0.1643040
1295.075, 1.1068000E-02
1295.557, 0.4134860
1296.039, 1.456596
1296.521, 1.958736
1297.003, 1.902744
1297.486, 1.658131
1297.968, 1.007104
1298.450, 0.7610390
1298.932, 1.169150
1299.414, 1.737719
1299.896, 1.671142
1300.378, 1.213086
1300.860, 0.5537510
1301.343, 2.6850000E-03
1301.825, 0.0000000E+00
##END=



