##NAMES=Bohmite
##RRUFFID=R120123
##IDEAL CHEMISTRY=AlO(OH)
##LOCALITY=Sagasen, Telemark, Norway
##OWNER=RRUFF
##SOURCE=Marcus Origlieri
##DESCRIPTION=Pale green hexagonal tablets, associated with natrolite R120124
##STATUS=The identification of this mineral has been confirmed by single-crystal X-ray diffraction.
##URL=rruff.info/R120123
140.8576, 0.0000000E+00
141.3397, 2.0935001E-02
141.8218, 5.0156001E-02
142.3039, 1.5144000E-02
142.7860, 5.0514001E-02
143.2681, 0.2489550
143.7503, 0.4288100
144.2324, 0.5219570
144.7145, 0.6928480
145.1966, 1.076347
145.6787, 1.563583
146.1608, 1.997169
146.6430, 2.247040
147.1251, 2.327934
147.6072, 2.161758
148.0893, 1.166595
148.5714, 0.2864530
149.0535, 0.2797700
149.5357, 1.149826
150.0178, 2.137474
150.4999, 2.614449
150.9820, 2.348518
151.4641, 2.234772
151.9462, 2.432640
152.4284, 2.786621
152.9105, 3.217041
153.3926, 3.629848
153.8747, 3.980579
154.3568, 4.045376
154.8389, 3.633057
155.3211, 3.037720
155.8032, 2.133549
156.2853, 1.175343
156.7674, 0.4144710
157.2495, 1.6609000E-02
157.7316, 9.4760999E-02
158.2138, 0.1595340
158.6959, 0.9105000
159.1780, 1.633530
159.6601, 2.224735
160.1422, 2.679245
160.6243, 2.990818
161.1065, 3.107723
161.5886, 2.985043
162.0707, 2.753895
162.5528, 2.406113
163.0349, 2.011539
163.5170, 1.574409
163.9991, 1.151775
164.4813, 0.9463390
164.9634, 1.072140
165.4455, 1.329105
165.9276, 1.412464
166.4097, 1.183754
166.8918, 0.8901330
167.3740, 0.8498990
167.8561, 1.126869
168.3382, 1.709183
168.8203, 2.421780
169.3024, 3.170544
169.7845, 3.739849
170.2667, 3.636227
170.7488, 2.947342
171.2309, 2.468571
171.7130, 2.342667
172.1951, 2.302135
172.6772, 2.248112
173.1594, 2.159592
173.6415, 1.946613
174.1236, 1.471142
174.6057, 0.8326110
175.0878, 0.5053370
175.5699, 0.7832220
176.0521, 1.050823
176.5342, 1.086178
177.0163, 0.9983670
177.4984, 1.016068
177.9805, 1.356968
178.4626, 2.039001
178.9448, 2.314590
179.4269, 1.782368
179.9090, 1.244247
180.3911, 0.8399930
180.8732, 0.6031340
181.3553, 0.5419460
181.8375, 0.6867370
182.3196, 1.077538
182.8017, 1.261219
183.2838, 1.095440
183.7659, 0.8983690
184.2480, 0.8531420
184.7301, 0.9440650
185.2123, 1.013615
185.6944, 0.9089780
186.1765, 0.5985450
186.6586, 0.3401070
187.1407, 0.1067470
187.6228, 5.7551999E-02
188.1050, 0.1171530
188.5871, 6.8382002E-02
189.0692, 7.0739999E-02
189.5513, 0.3433570
190.0334, 0.7377010
190.5155, 0.9622120
190.9977, 0.8368110
191.4798, 0.5946580
191.9619, 0.5209470
192.4440, 0.6744190
192.9261, 0.8543550
193.4082, 0.8884930
193.8904, 0.8015860
194.3725, 0.6131130
194.8546, 0.1234250
195.3367, 0.4325560
195.8188, 0.4921230
196.3009, 0.2373730
196.7831, 0.9140320
197.2652, 0.8035550
197.7473, 0.1448970
198.2294, 0.4747050
198.7115, 0.7255820
199.1936, 0.7060970
199.6758, 0.4839740
200.1579, 0.1216620
200.6400, 0.6794660
201.1221, 0.9788170
201.6042, 1.057228
202.0863, 1.004353
202.5685, 0.7801360
203.0506, 0.4090500
203.5327, 0.3555490
204.0148, 1.028240
204.4969, 1.607567
204.9790, 1.641766
205.4612, 1.312862
205.9433, 1.096279
206.4254, 1.467583
206.9075, 2.483047
207.3896, 3.055447
207.8717, 2.752026
208.3539, 2.364929
208.8360, 2.077343
209.3181, 1.911213
209.8002, 1.837631
210.2823, 1.846798
210.7644, 1.957661
211.2466, 1.985233
211.7287, 1.783440
212.2108, 1.642204
212.6929, 1.630127
213.1750, 1.772053
213.6571, 2.131817
214.1393, 2.830711
214.6214, 4.004948
215.1035, 4.474525
215.5856, 3.732811
216.0677, 2.926128
216.5498, 2.661880
217.0320, 2.894073
217.5141, 3.144787
217.9962, 2.922905
218.4783, 2.126625
218.9604, 1.924732
219.4425, 2.703983
219.9247, 3.685928
220.4068, 4.585438
220.8889, 5.321312
221.3710, 5.643665
221.8531, 5.195862
222.3352, 3.915180
222.8174, 3.165936
223.2995, 3.258495
223.7816, 3.647869
224.2637, 3.963879
224.7458, 4.179482
225.2279, 4.411438
225.7100, 4.799137
226.1922, 5.303280
226.6743, 5.647297
227.1564, 5.583855
227.6385, 5.494820
228.1206, 5.817764
228.6027, 6.583931
229.0849, 7.305336
229.5670, 7.607796
230.0491, 7.581509
230.5312, 7.486183
231.0133, 7.494438
231.4954, 7.377663
231.9776, 6.706974
232.4597, 5.370338
232.9418, 4.237694
233.4239, 4.069664
233.9060, 4.449226
234.3881, 4.783306
234.8703, 4.898403
235.3524, 4.903721
235.8345, 4.914570
236.3166, 4.915119
236.7987, 5.012844
237.2808, 5.435345
237.7630, 5.895691
238.2451, 6.060513
238.7272, 5.714096
239.2093, 5.191948
239.6914, 5.052784
240.1735, 5.409416
240.6557, 5.803699
241.1378, 6.175346
241.6199, 6.443882
242.1020, 6.514664
242.5841, 6.341354
243.0662, 5.998158
243.5484, 5.524475
244.0305, 4.739044
244.5126, 4.330162
244.9947, 4.808846
245.4768, 5.540508
245.9589, 6.038570
246.4410, 6.148289
246.9232, 5.948635
247.4053, 5.475719
247.8874, 4.468365
248.3695, 3.818737
248.8516, 3.883018
249.3337, 4.191597
249.8159, 4.389606
250.2980, 4.373913
250.7801, 4.297924
251.2622, 4.457249
251.7443, 5.065472
252.2264, 5.410725
252.7086, 5.190506
253.1907, 4.846741
253.6728, 4.760300
254.1549, 5.054043
254.6370, 5.499283
255.1191, 5.748985
255.6013, 5.541222
256.0834, 5.665157
256.5655, 6.719601
257.0476, 7.681057
257.5297, 7.789028
258.0118, 6.975700
258.4940, 5.761879
258.9761, 4.861053
259.4582, 4.395138
259.9403, 3.945744
260.4224, 3.526222
260.9045, 3.100006
261.3867, 2.597858
261.8688, 2.049187
262.3509, 1.588436
262.8330, 1.388531
263.3151, 1.553928
263.7972, 1.597595
264.2794, 1.282303
264.7615, 1.071888
265.2436, 1.322895
265.7257, 1.971672
266.2078, 2.651501
266.6899, 3.010906
267.1721, 3.012508
267.6542, 2.885605
268.1363, 2.579300
268.6184, 2.221527
269.1005, 1.748077
269.5826, 1.245209
270.0648, 0.9956440
270.5469, 1.298584
271.0290, 2.189327
271.5111, 2.510689
271.9932, 1.830643
272.4753, 1.138241
272.9575, 0.8742870
273.4396, 0.9509280
273.9217, 1.049252
274.4038, 0.9482800
274.8859, 0.6753430
275.3680, 0.5507010
275.8501, 0.7519800
276.3322, 0.8674350
276.8144, 0.6992650
277.2965, 0.3458750
277.7786, 1.0950000E-03
278.2607, 0.2492790
278.7428, 0.3882600
279.2249, 0.3188930
279.7071, 0.1929320
280.1892, 0.5957760
280.6713, 0.6318930
281.1534, 0.4807320
281.6355, 0.4922520
282.1176, 0.8407670
282.5998, 1.358791
283.0819, 1.602997
283.5640, 1.507385
284.0461, 1.324257
284.5282, 1.017147
285.0103, 0.6747740
285.4925, 0.4228520
285.9746, 0.3019520
286.4567, 0.2863920
286.9388, 0.3587040
287.4209, 0.5612340
287.9030, 0.7010190
288.3852, 0.6973800
288.8673, 0.6348720
289.3494, 0.6473350
289.8315, 0.7702030
290.3136, 0.8535190
290.7957, 0.6394840
291.2779, 5.6473002E-02
291.7600, 0.2238540
292.2421, 0.2140430
292.7242, 0.7865450
293.2063, 0.8283390
293.6884, 0.2641790
294.1706, 0.3264120
294.6527, 0.3870510
295.1348, 0.1009860
295.6169, 0.4939460
296.0990, 0.8511200
296.5811, 1.047592
297.0633, 0.8884540
297.5454, 0.4036520
298.0275, 6.6543996E-02
298.5096, 0.2948190
298.9917, 0.2914660
299.4738, 0.2506640
299.9560, 0.1315960
300.4381, 1.2905000E-02
300.9202, 4.3961000E-02
301.4023, 5.4313999E-02
301.8844, 9.9113002E-02
302.3665, 0.2444110
302.8487, 0.4342580
303.3308, 0.5006520
303.8129, 0.3717120
304.2950, 0.2497670
304.7771, 0.2200510
305.2592, 0.2654650
305.7414, 0.3603130
306.2235, 0.5202030
306.7056, 0.6780400
307.1877, 0.6614950
307.6698, 0.3996700
308.1519, 0.2637710
308.6341, 0.5376010
309.1162, 0.9820750
309.5983, 1.155231
310.0804, 0.9157680
310.5625, 0.5145840
311.0446, 0.2571950
311.5268, 0.1361770
312.0089, 9.8224998E-02
312.4910, 0.1502910
312.9731, 0.2728840
313.4552, 0.5008350
313.9373, 0.8465770
314.4195, 1.104115
314.9016, 1.013966
315.3837, 0.6049840
315.8658, 0.3691940
316.3479, 0.3730960
316.8300, 0.5452730
317.3121, 0.9287680
317.7943, 1.496246
318.2764, 1.944584
318.7585, 2.022240
319.2406, 1.812920
319.7227, 1.771160
320.2048, 1.966633
320.6870, 2.251686
321.1691, 2.614449
321.6512, 3.017494
322.1333, 3.296093
322.6154, 3.302761
323.0975, 3.227230
323.5797, 3.614460
324.0618, 4.827717
324.5439, 5.657070
325.0260, 5.348492
325.5081, 4.412472
325.9902, 3.777107
326.4724, 3.721569
326.9545, 4.090294
327.4366, 4.776573
327.9187, 5.873287
328.4008, 6.711376
328.8829, 6.984665
329.3651, 7.016094
329.8472, 7.159531
330.3293, 7.473339
330.8114, 7.867863
331.2935, 8.260410
331.7756, 8.651886
332.2578, 9.109203
332.7399, 9.631508
333.2220, 10.21711
333.7041, 10.86648
334.1862, 11.57796
334.6683, 12.35417
335.1505, 13.17047
335.6326, 14.05901
336.1147, 15.15800
336.5968, 16.48388
337.0789, 17.99334
337.5610, 19.79778
338.0432, 21.77692
338.5253, 23.69806
339.0074, 25.48768
339.4895, 27.07327
339.9716, 28.19862
340.4537, 28.71642
340.9359, 29.13106
341.4180, 28.83080
341.9001, 28.73175
342.3822, 29.87318
342.8643, 32.54202
343.3464, 36.81607
343.8286, 43.01619
344.3107, 52.13025
344.7928, 60.48194
345.2749, 68.89407
345.7570, 75.84534
346.2391, 79.87049
346.7213, 81.01930
347.2034, 80.56086
347.6855, 79.33192
348.1676, 77.26752
348.6497, 76.43280
349.1318, 76.71912
349.6140, 78.06153
350.0961, 80.62019
350.5782, 84.22231
351.0603, 88.55135
351.5424, 93.41402
352.0245, 98.81927
352.5067, 104.9474
352.9888, 112.4081
353.4709, 119.8169
353.9530, 126.5354
354.4351, 133.2950
354.9172, 140.8459
355.3994, 149.4758
355.8815, 159.1884
356.3636, 169.9410
356.8457, 180.8162
357.3278, 195.1225
357.8099, 212.7123
358.2920, 233.4714
358.7741, 257.4574
359.2563, 284.6226
359.7384, 314.6783
360.2205, 348.1406
360.7026, 385.8182
361.1847, 418.9556
361.6668, 463.6395
362.1490, 487.7024
362.6311, 476.5824
363.1132, 436.9431
363.5953, 379.1553
364.0774, 307.7359
364.5595, 228.2496
365.0417, 164.3909
365.5238, 122.1207
366.0059, 89.36480
366.4880, 67.35782
366.9701, 52.25573
367.4522, 41.18961
367.9344, 33.08174
368.4165, 27.22160
368.8986, 22.66982
369.3807, 19.78602
369.8628, 17.33077
370.3449, 15.35700
370.8271, 13.71175
371.3092, 12.31119
371.7913, 11.14148
372.2734, 10.15862
372.7555, 9.346066
373.2376, 8.699745
373.7198, 8.027725
374.2019, 7.277403
374.6840, 6.570765
375.1661, 5.932148
375.6482, 5.360327
376.1303, 4.851618
376.6125, 4.394035
377.0946, 4.012136
377.5767, 3.758606
378.0588, 3.641930
378.5409, 3.638510
379.0230, 4.069229
379.5052, 4.412342
379.9873, 4.101456
380.4694, 3.035992
380.9515, 1.940887
381.4336, 1.682194
381.9157, 2.237068
382.3979, 2.457275
382.8800, 1.976070
383.3621, 1.379597
383.8442, 1.053751
384.3263, 0.9552840
384.8084, 0.9039190
385.2906, 0.8370740
385.7727, 0.7466810
386.2548, 0.5743960
386.7369, 0.2685850
387.2190, 7.1432002E-02
387.7011, 0.2486210
388.1833, 0.5890880
388.6654, 0.7888030
389.1475, 0.7403240
389.6296, 0.6330220
390.1117, 0.6530930
390.5938, 0.7789630
391.0760, 0.8378660
391.5581, 0.7586900
392.0402, 0.6046640
392.5223, 0.4459300
393.0044, 0.2758900
393.4865, 0.1631950
393.9687, 0.1788080
394.4508, 0.2548390
394.9329, 0.2665840
395.4150, 0.1881980
395.8971, 0.1359060
396.3792, 0.2562690
396.8614, 0.5213870
397.3435, 0.6223320
397.8256, 0.4044630
398.3077, 0.1426370
398.7898, 1.5907001E-02
399.2719, 4.3300001E-04
399.7540, 2.6660000E-03
400.2361, 2.8387001E-02
400.7183, 8.8224001E-02
401.2004, 0.2298910
401.6825, 0.5922050
402.1646, 0.7854540
402.6467, 0.6296140
403.1288, 0.3211230
403.6110, 5.3644001E-02
404.0931, 0.1203630
404.5752, 0.1923240
405.0573, 0.1181980
405.5394, 0.1794850
406.0215, 0.2015210
406.5037, 0.3644120
406.9858, 0.8732490
407.4679, 0.9858510
407.9500, 0.7761060
408.4321, 0.4726720
408.9142, 0.2040060
409.3964, 1.9177999E-02
409.8785, 0.1524930
410.3606, 0.1192230
410.8427, 8.8969998E-02
411.3248, 0.1498280
411.8069, 0.1805440
412.2891, 8.2869995E-03
412.7712, 0.4342840
413.2533, 0.8484820
413.7354, 0.8728850
414.2175, 0.3629130
414.6996, 4.3694999E-02
415.1818, 7.8560002E-03
415.6639, 6.8979003E-02
416.1460, 0.3355220
416.6281, 0.6945900
417.1102, 0.9417060
417.5923, 0.9373860
418.0745, 0.7367940
418.5566, 0.4934540
419.0387, 0.1119920
419.5208, 9.0124004E-02
420.0029, 0.1551760
420.4850, 0.5211770
420.9672, 0.7142540
421.4493, 0.6635590
421.9314, 0.4881170
422.4135, 0.2329330
422.8956, 8.9608997E-02
423.3777, 0.2126920
423.8599, 3.5999000E-02
424.3420, 0.3113940
424.8241, 0.3203930
425.3062, 0.1278860
425.7883, 3.2448001E-02
426.2704, 2.0795999E-02
426.7526, 0.1242810
427.2347, 7.7592999E-02
427.7168, 0.6198960
428.1989, 0.8742330
428.6810, 0.3307820
429.1631, 0.6374680
429.6453, 1.178690
430.1274, 1.175793
430.6095, 1.007040
431.0916, 0.7704370
431.5737, 0.5130270
432.0558, 0.3199020
432.5380, 0.2104740
433.0201, 0.1840710
433.5022, 0.2452720
433.9843, 0.4026450
434.4664, 0.6246510
434.9485, 0.9697650
435.4307, 1.328726
435.9128, 1.680235
436.3949, 1.990301
436.8770, 2.148739
437.3591, 2.069307
437.8412, 1.834831
438.3234, 1.763691
438.8055, 2.002186
439.2876, 2.220453
439.7697, 2.375216
440.2518, 2.512518
440.7339, 2.684563
441.2160, 2.896263
441.6982, 3.099333
442.1803, 3.219877
442.6624, 3.226669
443.1445, 3.382429
443.6266, 3.854065
444.1087, 4.302530
444.5909, 4.625669
445.0730, 4.853037
445.5551, 5.027565
446.0372, 5.157778
446.5193, 5.305107
447.0014, 5.620914
447.4836, 6.159231
447.9657, 6.704449
448.4478, 7.192156
448.9299, 7.696781
449.4120, 8.297588
449.8941, 8.982889
450.3763, 9.635017
450.8584, 10.34278
451.3405, 10.97879
451.8226, 10.87405
452.3047, 9.762379
452.7868, 8.549513
453.2690, 7.715807
453.7511, 7.130877
454.2332, 6.658777
454.7153, 6.335642
455.1974, 5.999052
455.6795, 5.474436
456.1617, 4.808739
456.6438, 4.155960
457.1259, 3.494678
457.6080, 3.008266
458.0901, 3.082758
458.5722, 3.713963
459.0544, 4.100899
459.5365, 3.988245
460.0186, 3.642513
460.5007, 3.204870
460.9828, 2.739489
461.4649, 2.431845
461.9471, 2.407753
462.4292, 2.590752
462.9113, 2.689009
463.3934, 2.632252
463.8755, 2.569504
464.3576, 2.466551
464.8398, 2.404421
465.3219, 2.506306
465.8040, 2.781202
466.2861, 3.109760
466.7682, 3.362284
467.2503, 3.527662
467.7325, 3.696060
468.2146, 3.874353
468.6967, 4.070204
469.1788, 4.310802
469.6609, 4.557859
470.1430, 4.737232
470.6252, 4.796930
471.1073, 4.855371
471.5894, 5.163212
472.0715, 5.797901
472.5536, 6.323586
473.0357, 6.464005
473.5179, 6.670429
474.0000, 7.226818
474.4821, 8.085556
474.9642, 9.003857
475.4463, 9.711678
475.9284, 10.42138
476.4106, 11.66162
476.8927, 13.49366
477.3748, 15.43047
477.8569, 17.22439
478.3390, 19.04016
478.8211, 21.20967
479.3033, 23.90976
479.7854, 26.34117
480.2675, 27.97647
480.7496, 29.10040
481.2317, 30.21949
481.7138, 31.42840
482.1959, 32.63512
482.6780, 33.77710
483.1602, 34.86394
483.6423, 36.13155
484.1244, 37.45456
484.6065, 39.09164
485.0886, 41.20914
485.5707, 43.66842
486.0529, 46.29500
486.5350, 49.07415
487.0171, 52.01243
487.4992, 55.05087
487.9813, 58.03983
488.4634, 61.72846
488.9456, 66.05417
489.4277, 70.92841
489.9098, 76.32108
490.3919, 82.26600
490.8740, 88.80686
491.3561, 95.99892
491.8383, 103.6532
492.3204, 111.4332
492.8025, 119.7707
493.2846, 127.0455
493.7667, 133.4304
494.2488, 138.1676
494.7310, 141.2066
495.2131, 142.2875
495.6952, 140.0359
496.1773, 132.4829
496.6594, 120.9715
497.1415, 108.7968
497.6237, 95.79776
498.1058, 83.16343
498.5879, 71.01758
499.0700, 59.79404
499.5521, 50.21421
500.0342, 42.39635
500.5164, 35.94000
500.9985, 30.81622
501.4806, 26.82596
501.9627, 23.69678
502.4448, 21.39402
502.9269, 19.48173
503.4091, 17.58769
503.8912, 15.70091
504.3733, 14.17005
504.8554, 13.21821
505.3375, 12.33196
505.8196, 11.23223
506.3018, 10.10736
506.7839, 9.292387
507.2660, 8.898956
507.7481, 8.718136
508.2302, 8.450890
508.7123, 8.104256
509.1945, 7.634123
509.6766, 6.839998
510.1587, 6.129589
510.6408, 5.680799
511.1229, 5.426754
511.6050, 5.221209
512.0872, 4.995251
512.5693, 4.787767
513.0514, 4.687782
513.5335, 4.715267
514.0156, 4.681465
514.4977, 4.417131
514.9799, 4.215136
515.4620, 4.440334
515.9441, 5.004402
516.4262, 5.322685
516.9083, 5.062912
517.3904, 4.484911
517.8726, 3.808542
518.3547, 3.060499
518.8368, 2.511856
519.3189, 2.334257
519.8010, 2.380436
520.2831, 2.328749
520.7653, 2.154661
521.2474, 1.979630
521.7295, 1.801767
522.2116, 1.646410
522.6937, 1.558201
523.1758, 1.523939
523.6580, 1.468626
524.1401, 1.332037
524.6222, 1.139809
525.1043, 1.022108
525.5864, 1.057573
526.0685, 1.059208
526.5507, 0.9254550
527.0328, 0.8115270
527.5149, 0.8840350
527.9970, 1.134979
528.4791, 1.384480
528.9612, 1.443739
529.4434, 1.358620
529.9255, 1.444775
530.4076, 1.816130
530.8897, 2.093075
531.3718, 2.114141
531.8539, 1.954355
532.3361, 1.591152
532.8182, 0.9639630
533.3003, 0.5217420
533.7824, 0.7357860
534.2645, 1.311384
534.7466, 1.608130
535.2288, 1.532497
535.7109, 1.332226
536.1930, 1.192112
536.6751, 1.085182
537.1572, 0.8579690
537.6393, 0.3196140
538.1215, 9.7294003E-02
538.6036, 0.3091260
539.0857, 0.3158020
539.5678, 1.7851001E-02
540.0499, 0.6560960
540.5320, 1.180197
541.0142, 1.094469
541.4963, 0.3736340
541.9784, 2.4178000E-02
542.4604, 0.3851170
542.9426, 0.6994820
543.4247, 0.9266740
543.9068, 1.017677
544.3889, 0.8170340
544.8710, 0.2704280
545.3531, 0.3336940
545.8353, 0.7933640
546.3174, 1.069298
546.7995, 0.5422800
547.2816, 1.329670
547.7637, 2.920614
548.2458, 2.987888
548.7280, 2.145540
549.2101, 1.254114
549.6922, 0.3139080
550.1743, 0.3378510
550.6564, 0.3533500
551.1385, 8.0570001E-03
551.6207, 0.3142590
552.1028, 0.4743770
552.5849, 0.4908640
553.0670, 0.3264290
553.5491, 1.3544000E-02
554.0313, 0.1231710
554.5134, 0.1290950
554.9955, 0.3829840
555.4776, 0.5648480
555.9597, 0.7000660
556.4418, 0.8346410
556.9240, 0.9790900
557.4061, 1.070190
557.8882, 1.011156
558.3703, 0.7902700
558.8524, 0.5498920
559.3345, 0.1065900
559.8167, 5.7833001E-02
560.2988, 0.4961320
560.7809, 1.255568
561.2630, 1.550432
561.7451, 1.180170
562.2272, 0.6876010
562.7094, 0.5547350
563.1915, 0.6819380
563.6736, 0.7337420
564.1557, 0.6619050
564.6378, 0.5583250
565.1199, 0.4423260
565.6021, 0.3535460
566.0842, 0.4397600
566.5663, 0.9665220
567.0484, 1.290586
567.5305, 0.9427450
568.0126, 0.3932290
568.4948, 0.2634930
568.9769, 0.6390080
569.4590, 1.150944
569.9411, 1.470346
570.4232, 1.603216
570.9053, 1.641542
571.3875, 1.616306
571.8696, 1.441345
572.3517, 0.8523120
572.8338, 0.2702520
573.3159, 0.1465760
573.7980, 0.5148810
574.2802, 0.9706730
574.7623, 1.184063
575.2444, 1.195190
575.7265, 1.150684
576.2086, 1.031832
576.6907, 0.9379600
577.1729, 0.9410860
577.6550, 0.9833490
578.1371, 0.9639050
578.6192, 0.8634260
579.1013, 0.7815170
579.5834, 0.7537690
580.0656, 0.7653540
580.5477, 0.8020310
581.0298, 0.8615380
581.5119, 0.9626060
581.9940, 1.136982
582.4761, 1.322603
582.9583, 1.302221
583.4404, 0.8167150
583.9225, 0.5183510
584.4046, 0.5172670
584.8867, 0.6102310
585.3688, 0.6733820
585.8510, 0.7080150
586.3331, 0.7778090
586.8152, 0.9345950
587.2973, 1.128365
587.7794, 1.265591
588.2615, 1.358023
588.7437, 1.292204
589.2258, 0.8843710
589.7079, 0.4823670
590.1900, 0.4796620
590.6721, 0.8057060
591.1542, 1.000532
591.6364, 0.7900350
592.1185, 0.5103090
592.6006, 0.4609910
593.0827, 0.5813640
593.5648, 0.6766550
594.0469, 0.6749310
594.5291, 0.6448380
595.0112, 0.6891610
595.4933, 0.8387410
595.9754, 0.9084170
596.4575, 0.8849180
596.9396, 0.8050370
597.4218, 0.6716900
597.9039, 0.4993920
598.3860, 0.2997470
598.8681, 8.0941997E-02
599.3502, 9.1886997E-02
599.8323, 8.5170999E-02
600.3145, 9.3689002E-02
600.7966, 7.4331000E-02
601.2787, 0.3127630
601.7608, 0.5735210
602.2429, 0.2866380
602.7250, 0.2649750
603.2072, 0.6542610
603.6893, 0.8339820
604.1714, 0.8461550
604.6535, 0.6496910
605.1356, 0.4006400
605.6177, 0.3064750
606.0999, 0.3798200
606.5820, 0.4105220
607.0641, 0.2220800
607.5462, 0.1052400
608.0283, 0.2130720
608.5104, 0.2482810
608.9926, 0.5131720
609.4747, 0.4157370
609.9568, 0.1949020
610.4389, 5.3707000E-02
610.9210, 0.2765730
611.4031, 0.3867780
611.8853, 0.2996220
612.3674, 9.1839001E-02
612.8495, 4.2146999E-02
613.3316, 0.1004100
613.8137, 8.0261000E-02
614.2958, 7.6211996E-02
614.7780, 0.2357830
615.2601, 0.2871590
615.7422, 0.2359010
616.2243, 7.4827000E-02
616.7064, 0.3950460
617.1885, 0.7755530
617.6707, 0.7103200
618.1528, 0.4093910
618.6349, 0.2520160
619.1170, 0.3501820
619.5991, 0.5459650
620.0812, 0.6624280
620.5634, 0.7005390
621.0455, 0.6655120
621.5276, 0.3770980
622.0097, 0.2408850
622.4918, 0.5280250
622.9739, 0.8988930
623.4561, 0.9716680
623.9382, 0.6895540
624.4203, 0.3473990
624.9023, 9.1316000E-02
625.3845, 3.4334000E-02
625.8666, 0.2148670
626.3487, 0.8957900
626.8308, 1.295992
627.3129, 0.9063910
627.7950, 0.2174840
628.2772, 0.2505170
628.7593, 1.168430
629.2414, 1.864964
629.7235, 2.179022
630.2056, 2.222857
630.6877, 1.895390
631.1699, 1.375572
631.6520, 1.040541
632.1341, 1.058229
632.6162, 1.290430
633.0983, 1.551128
633.5804, 1.882011
634.0626, 2.018099
634.5447, 1.767910
635.0268, 1.567495
635.5089, 1.605680
635.9910, 1.809158
636.4731, 2.124750
636.9553, 2.603176
637.4374, 2.897497
637.9195, 2.580853
638.4016, 1.963587
638.8837, 1.668032
639.3658, 1.755951
639.8480, 1.844286
640.3301, 1.678406
640.8122, 1.336079
641.2943, 1.073870
641.7764, 0.8525330
642.2585, 0.7833730
642.7407, 0.9087520
643.2228, 1.147507
643.7049, 1.549164
644.1870, 2.017035
644.6691, 2.352722
645.1512, 2.449024
645.6334, 2.371706
646.1155, 2.181305
646.5976, 1.879421
647.0797, 1.625607
647.5618, 1.421265
648.0439, 1.311962
648.5261, 1.332298
649.0082, 1.478752
649.4903, 1.752462
649.9724, 2.262798
650.4545, 2.729563
650.9366, 3.055756
651.4188, 3.271818
651.9009, 3.396938
652.3830, 3.442539
652.8651, 3.403458
653.3472, 3.243984
653.8293, 3.065151
654.3115, 3.298002
654.7936, 4.193327
655.2757, 4.894640
655.7578, 5.107605
656.2399, 5.233959
656.7220, 5.413771
657.2042, 5.680090
657.6863, 6.117607
658.1684, 6.877819
658.6505, 7.636353
659.1326, 7.941181
659.6147, 7.994934
660.0969, 8.436527
660.5790, 9.411589
661.0611, 10.50382
661.5432, 11.39275
662.0253, 12.08844
662.5074, 12.68147
662.9896, 12.91897
663.4717, 13.39117
663.9538, 14.30539
664.4359, 15.35693
664.9180, 16.22002
665.4001, 16.95956
665.8823, 17.98659
666.3644, 19.70010
666.8465, 21.65355
667.3286, 23.06526
667.8107, 23.94821
668.2928, 24.73935
668.7750, 25.45374
669.2571, 26.27504
669.7392, 27.44085
670.2213, 28.91999
670.7034, 30.23046
671.1855, 31.27698
671.6677, 32.24570
672.1498, 33.10988
672.6319, 33.95113
673.1140, 35.02458
673.5961, 36.24771
674.0782, 37.13450
674.5604, 37.28561
675.0425, 36.85492
675.5246, 36.34347
676.0067, 35.74034
676.4888, 35.11904
676.9709, 34.61102
677.4531, 33.94396
677.9352, 32.93481
678.4173, 31.60962
678.8994, 30.03670
679.3815, 27.98053
679.8636, 26.00318
680.3458, 24.50070
680.8279, 23.26715
681.3100, 21.96718
681.7921, 20.55110
682.2742, 19.14608
682.7563, 17.86429
683.2385, 16.70418
683.7206, 15.58788
684.2027, 14.53945
684.6848, 13.43307
685.1669, 12.05443
685.6490, 10.79560
686.1312, 9.966312
686.6133, 9.467089
687.0954, 8.942734
687.5775, 8.237652
688.0596, 7.578785
688.5417, 7.226116
689.0239, 7.080679
689.5060, 6.859203
689.9881, 6.495941
690.4702, 6.078541
690.9523, 5.675020
691.4344, 5.300844
691.9166, 4.918255
692.3987, 4.505899
692.8808, 4.119740
693.3629, 3.671499
693.8450, 3.332212
694.3271, 3.312035
694.8093, 3.493942
695.2914, 3.523098
695.7735, 3.182663
696.2556, 2.825451
696.7377, 3.028025
697.2198, 3.555435
697.7020, 3.436443
698.1841, 2.476883
698.6662, 1.631815
699.1483, 1.645540
699.6304, 2.237167
700.1125, 2.376047
700.5947, 1.601381
701.0768, 1.081194
701.5589, 0.8892140
702.0410, 0.9003520
702.5231, 1.230032
703.0052, 1.671513
703.4874, 1.782396
703.9695, 1.370165
704.4516, 0.8487910
704.9337, 0.8375680
705.4158, 1.230785
705.8979, 1.376156
706.3801, 1.189142
706.8622, 0.8995090
707.3442, 0.5481110
707.8264, 0.2509100
708.3085, 0.3566470
708.7906, 1.143988
709.2727, 1.599852
709.7548, 1.464590
710.2369, 1.170034
710.7191, 0.9148310
711.2012, 0.6994590
711.6833, 0.4669840
712.1654, 0.1978000
712.6475, 2.5799001E-02
713.1296, 0.1137050
713.6118, 7.4354000E-02
714.0939, 5.9514999E-02
714.5760, 0.2981030
715.0581, 0.5657310
715.5402, 0.8635180
716.0223, 1.132977
716.5045, 1.276886
716.9866, 1.295643
717.4687, 1.211788
717.9508, 0.8869900
718.4329, 0.6087460
718.9150, 0.5142150
719.3972, 0.5588760
719.8793, 0.7236160
720.3614, 0.9756090
720.8435, 1.154932
721.3256, 1.045273
721.8077, 0.7490650
722.2899, 0.7051810
722.7720, 0.9495470
723.2541, 1.133970
723.7362, 1.098152
724.2183, 1.034922
724.7004, 1.230869
725.1826, 1.678408
725.6647, 1.890081
726.1468, 1.588020
726.6289, 1.350111
727.1110, 1.421360
727.5931, 1.644615
728.0753, 1.874479
728.5574, 2.069101
729.0395, 2.218924
729.5216, 2.324581
730.0037, 2.366961
730.4858, 2.263796
730.9680, 2.007488
731.4501, 1.839323
731.9322, 1.828650
732.4143, 1.861387
732.8964, 1.853512
733.3785, 1.810699
733.8607, 1.770994
734.3428, 1.793976
734.8249, 1.728619
735.3070, 1.448055
735.7891, 1.144258
736.2712, 1.005119
736.7534, 0.9830210
737.2355, 0.8879990
737.7176, 0.6161560
738.1997, 0.3177740
738.6818, 0.2851350
739.1639, 0.4715420
739.6461, 0.3653340
740.1282, 0.1520160
740.6103, 0.6018220
741.0924, 0.7168450
741.5745, 0.5947090
742.0566, 0.4126090
742.5388, 0.1033780
743.0209, 3.5896000E-02
743.5030, 0.2841660
743.9851, 0.5038680
744.4672, 0.1205750
744.9493, 0.4787140
745.4315, 0.6306820
745.9136, 0.1772190
746.3957, 0.3900990
746.8778, 0.6668380
747.3599, 0.6755640
747.8420, 0.4057620
748.3242, 0.1518820
748.8063, 0.6462360
749.2884, 0.9917600
749.7705, 1.150696
750.2526, 1.045399
750.7347, 0.6592290
751.2169, 0.2992950
751.6990, 0.1716610
752.1811, 0.4411470
752.6632, 0.3740790
753.1453, 0.1259990
753.6274, 0.2974660
754.1096, 0.7837640
754.5917, 1.011435
755.0738, 0.7299440
755.5559, 0.2514760
756.0380, 5.0299000E-02
756.5201, 0.1781220
757.0023, 6.8471998E-02
757.4844, 0.3091240
757.9665, 0.5885830
758.4486, 0.4658220
758.9307, 9.3915999E-02
759.4128, 2.7409999E-03
759.8950, 0.5731530
760.3771, 0.7240580
760.8592, 4.9968999E-02
761.3413, 0.6829720
761.8234, 0.5472240
762.3055, 1.8337000E-02
762.7877, 0.4538920
763.2698, 0.6030350
763.7519, 0.6825620
764.2340, 0.8046250
764.7161, 0.9836180
765.1982, 1.316595
765.6804, 1.754612
766.1625, 2.031792
766.6446, 2.047205
767.1267, 1.853672
767.6088, 1.468622
768.0909, 0.8685570
768.5731, 0.6477870
769.0552, 1.133764
769.5373, 1.462799
770.0194, 1.276470
770.5015, 0.9984340
770.9836, 1.027840
771.4658, 1.305222
771.9479, 1.401169
772.4300, 0.9625700
772.9121, 0.5584550
773.3942, 0.7193030
773.8763, 1.114006
774.3585, 1.143312
774.8406, 0.8032420
775.3227, 0.6333080
775.8048, 1.017340
776.2869, 1.660807
776.7690, 1.813066
777.2512, 1.371635
777.7333, 1.136499
778.2154, 1.225964
778.6975, 1.401543
779.1796, 1.601391
779.6617, 1.778608
780.1439, 1.828955
780.6260, 1.708254
781.1081, 1.669550
781.5902, 1.902048
782.0723, 2.106607
782.5544, 2.077499
783.0366, 1.891891
783.5187, 1.645538
784.0008, 1.388128
784.4829, 1.232620
784.9650, 1.347456
785.4471, 1.603655
785.9293, 1.542038
786.4114, 1.155403
786.8935, 0.9836310
787.3756, 1.202497
787.8577, 1.549185
788.3398, 1.820669
788.8220, 2.012878
789.3040, 2.080011
789.7861, 1.821272
790.2682, 1.733004
790.7504, 2.104324
791.2325, 2.423203
791.7146, 2.251545
792.1967, 1.788765
792.6788, 1.499672
793.1609, 1.561514
793.6431, 1.730213
794.1252, 1.812609
794.6073, 1.847538
795.0894, 1.876505
795.5715, 1.916853
796.0536, 2.085335
796.5358, 2.444775
797.0179, 2.800667
797.5000, 2.868811
797.9821, 2.624630
798.4642, 2.421991
798.9464, 2.269875
799.4285, 2.204123
799.9106, 2.238922
800.3927, 2.369768
800.8748, 2.636620
801.3569, 2.978815
801.8391, 3.226082
802.3212, 3.477036
802.8033, 3.480818
803.2854, 2.757509
803.7675, 1.929798
804.2496, 1.801523
804.7318, 2.295137
805.2139, 2.821981
805.6960, 3.074329
806.1781, 3.164106
806.6602, 3.215664
807.1423, 3.230021
807.6245, 3.229118
808.1066, 3.226555
808.5887, 3.116949
809.0708, 2.757954
809.5529, 2.392817
810.0350, 2.452183
810.5172, 3.062170
810.9993, 3.398577
811.4814, 3.278374
811.9635, 3.101740
812.4456, 2.869698
812.9277, 2.708256
813.4099, 2.797121
813.8920, 3.081024
814.3741, 3.287514
814.8562, 3.254044
815.3383, 3.182878
815.8204, 3.342430
816.3026, 3.606901
816.7847, 3.674770
817.2668, 3.527901
817.7489, 3.362083
818.2310, 3.290009
818.7131, 3.249741
819.1953, 3.059080
819.6774, 2.692904
820.1595, 2.644114
820.6416, 3.037567
821.1237, 3.443832
821.6058, 3.720600
822.0880, 3.917952
822.5701, 4.124115
823.0522, 4.333464
823.5343, 4.358719
824.0164, 3.911690
824.4985, 3.574316
824.9807, 3.723618
825.4628, 4.033962
825.9449, 4.085714
826.4270, 3.919956
826.9091, 3.927639
827.3912, 4.368092
827.8734, 4.884754
828.3555, 4.889669
828.8376, 4.526274
829.3197, 4.454597
829.8018, 4.734716
830.2839, 4.873238
830.7661, 4.587856
831.2482, 4.144302
831.7303, 3.983273
832.2124, 4.148510
832.6945, 4.282459
833.1766, 4.398605
833.6588, 4.460440
834.1409, 4.425701
834.6230, 4.364126
835.1051, 4.326094
835.5872, 4.312635
836.0693, 4.304117
836.5515, 4.248135
837.0336, 4.269991
837.5157, 4.620363
837.9978, 4.964478
838.4799, 4.775742
838.9620, 4.201900
839.4442, 3.830961
839.9263, 3.940407
840.4084, 4.315174
840.8905, 4.838783
841.3726, 5.409634
841.8547, 5.275732
842.3369, 4.369215
842.8190, 3.724703
843.3011, 3.745407
843.7832, 4.088099
844.2653, 4.389963
844.7474, 4.651882
845.2296, 4.895706
845.7117, 5.326477
846.1938, 5.426262
846.6759, 4.815285
847.1580, 4.187464
847.6401, 3.981302
848.1223, 4.092165
848.6044, 4.247643
849.0865, 4.398174
849.5686, 4.502695
850.0507, 4.479469
850.5328, 4.456745
851.0150, 4.614573
851.4971, 4.858168
851.9792, 4.958374
852.4613, 4.846918
852.9434, 4.634541
853.4255, 4.403183
853.9077, 4.163113
854.3898, 3.916174
854.8719, 3.661760
855.3540, 3.601358
855.8361, 3.814011
856.3182, 4.051430
856.8004, 4.087732
857.2825, 4.024387
857.7646, 4.264608
858.2467, 5.169899
858.7288, 5.595228
859.2109, 5.058506
859.6931, 4.606796
860.1752, 4.753979
860.6573, 5.095465
861.1394, 5.066563
861.6215, 4.630739
862.1036, 4.367277
862.5858, 4.724850
863.0679, 5.096367
863.5500, 5.049911
864.0321, 4.768518
864.5142, 4.455467
864.9963, 4.170439
865.4785, 3.962791
865.9606, 3.873596
866.4427, 3.917778
866.9248, 4.102013
867.4069, 4.354940
867.8890, 4.332888
868.3712, 4.005627
868.8533, 3.792692
869.3354, 3.902348
869.8175, 4.071215
870.2996, 3.915958
870.7817, 3.431297
871.2639, 3.225754
871.7459, 3.494009
872.2280, 3.742989
872.7101, 3.992586
873.1923, 4.052696
873.6744, 3.634766
874.1565, 2.985165
874.6386, 2.693359
875.1207, 3.010286
875.6028, 3.208546
876.0850, 2.877182
876.5671, 2.505453
877.0492, 2.428505
877.5313, 2.545643
878.0134, 2.654070
878.4955, 2.696285
878.9777, 2.702360
879.4598, 2.674856
879.9419, 2.649122
880.4240, 2.746531
880.9061, 2.898952
881.3882, 2.769869
881.8704, 2.331381
882.3525, 2.069845
882.8346, 2.319244
883.3167, 2.822535
883.7988, 3.051325
884.2809, 2.981129
884.7631, 2.809677
885.2452, 2.488979
885.7273, 2.191841
886.2094, 1.934219
886.6915, 1.759518
887.1736, 1.751347
887.6558, 1.895884
888.1379, 1.981178
888.6200, 1.986238
889.1021, 1.970770
889.5842, 1.990465
890.0663, 1.957600
890.5485, 1.650049
891.0306, 1.271147
891.5127, 1.292856
891.9948, 1.864433
892.4769, 2.336882
892.9590, 2.171877
893.4412, 1.816553
893.9233, 1.776306
894.4054, 1.910427
894.8875, 1.856115
895.3696, 1.588295
895.8517, 1.373381
896.3339, 1.442070
896.8160, 1.655195
897.2981, 1.772282
897.7802, 1.780458
898.2623, 1.456533
898.7444, 0.7404980
899.2266, 0.2658390
899.7087, 0.3791390
900.1908, 0.7456000
900.6729, 0.8671040
901.1550, 0.7294480
901.6371, 0.6697030
902.1193, 0.7182140
902.6014, 0.7897300
903.0835, 0.9294760
903.5656, 1.023533
904.0477, 0.9571630
904.5298, 0.7937320
905.0120, 0.7092780
905.4941, 0.7859330
905.9762, 0.7601110
906.4583, 0.4838750
906.9404, 0.1774100
907.4225, 6.7800999E-02
907.9047, 0.2376290
908.3868, 0.3324510
908.8689, 0.3344920
909.3510, 0.2267400
909.8331, 7.2453000E-02
910.3152, 0.3703310
910.7974, 0.4466090
911.2795, 0.4047090
911.7616, 0.4744000
912.2437, 0.6290000
912.7258, 0.6066150
913.2079, 0.2825510
913.6901, 0.1101400
914.1722, 0.2470420
914.6543, 0.1751420
915.1364, 0.2120700
915.6185, 0.3678550
916.1006, 0.2966520
916.5828, 0.1409840
917.0649, 0.5856590
917.5470, 0.7426070
918.0291, 0.6737020
918.5112, 0.6011140
918.9933, 0.5228040
919.4755, 0.4379430
919.9576, 0.3055900
920.4397, 0.2269690
920.9218, 0.2629660
921.4039, 0.3598630
921.8860, 0.5513820
922.3682, 0.8180480
922.8503, 0.7597140
923.3324, 0.1674190
923.8145, 0.7734600
924.2966, 0.4684200
924.7787, 5.7819001E-02
925.2609, 0.2905410
925.7430, 0.3044830
926.2251, 0.3776820
926.7072, 0.5951420
927.1893, 0.7346310
927.6714, 0.6572720
928.1536, 0.4249060
928.6357, 6.5940998E-02
929.1178, 0.6078870
929.5999, 0.7914220
930.0820, 0.5837590
930.5641, 0.2301350
931.0463, 0.1325260
931.5284, 0.4481200
932.0105, 0.6543660
932.4926, 0.7361910
932.9747, 0.5372470
933.4568, 7.9195000E-02
933.9390, 0.1334760
934.4211, 0.1054950
934.9032, 0.4552120
935.3853, 0.5343590
935.8674, 0.4055520
936.3495, 0.4397090
936.8317, 0.6637760
937.3138, 0.9515690
937.7959, 1.369684
938.2780, 1.673351
938.7601, 1.712345
939.2422, 1.566175
939.7244, 1.343245
940.2065, 1.005814
940.6886, 0.8162500
941.1707, 0.9846730
941.6528, 1.006510
942.1349, 0.5870210
942.6171, 0.1689780
943.0992, 0.1045440
943.5813, 0.3003730
944.0634, 0.5197160
944.5455, 0.7859760
945.0276, 0.7948420
945.5098, 5.2979998E-02
945.9919, 0.5717370
946.4740, 0.3366720
946.9561, 0.2785320
947.4382, 0.6371170
947.9203, 0.6517940
948.4025, 0.5387710
948.8846, 0.3404870
949.3667, 0.2448350
949.8488, 0.5371070
950.3309, 0.9860570
950.8130, 1.330872
951.2952, 1.496426
951.7773, 1.244619
952.2594, 0.5413090
952.7415, 4.9736001E-02
953.2236, 9.2244998E-02
953.7057, 0.6320210
954.1878, 0.6964550
954.6699, 0.3766960
955.1520, 0.3155400
955.6342, 0.6022260
956.1163, 0.8569790
956.5984, 0.8748150
957.0805, 0.7610870
957.5626, 0.6734870
958.0447, 0.6097930
958.5269, 0.5567090
959.0090, 0.5160450
959.4911, 0.4719350
959.9732, 0.4093530
960.4553, 0.4081950
960.9374, 0.5465870
961.4196, 0.7740800
961.9017, 0.8968870
962.3838, 0.8797320
962.8659, 0.8646930
963.3480, 0.7963180
963.8301, 0.8062080
964.3123, 1.132523
964.7944, 1.384251
965.2765, 1.097197
965.7586, 0.4043690
966.2407, 2.7527001E-02
966.7228, 3.6885999E-02
967.2050, 7.2366998E-02
967.6871, 0.3656710
968.1692, 0.6178380
968.6513, 0.6436650
969.1334, 0.5884530
969.6155, 0.6636490
970.0977, 0.8793490
970.5798, 1.070047
971.0619, 1.185858
971.5440, 1.220064
972.0261, 1.138668
972.5082, 1.004936
972.9904, 0.8210540
973.4725, 0.6253260
973.9546, 0.5288070
974.4367, 0.5664540
974.9188, 0.6144560
975.4009, 0.5760690
975.8831, 0.5444890
976.3652, 0.6303620
976.8473, 0.7811830
977.3294, 0.8098180
977.8115, 0.7185330
978.2936, 0.6497310
978.7758, 0.6717820
979.2579, 0.6913830
979.7400, 0.5410390
980.2221, 0.3127160
980.7042, 0.3436510
981.1863, 0.5922600
981.6685, 0.8491840
982.1506, 1.133194
982.6327, 1.306612
983.1148, 1.220245
983.5969, 1.035578
984.0790, 1.101749
984.5612, 1.421959
985.0433, 1.481796
985.5254, 1.227203
986.0075, 1.025356
986.4896, 0.9549270
986.9717, 0.9606400
987.4539, 1.095135
987.9360, 1.281689
988.4181, 1.177626
988.9002, 0.6220950
989.3823, 0.3216060
989.8644, 0.3455280
990.3466, 0.4974380
990.8287, 0.8490100
991.3108, 1.154890
991.7929, 1.144014
992.2750, 0.8924390
992.7571, 0.6822740
993.2393, 0.4827710
993.7214, 0.3718830
994.2035, 0.4213920
994.6856, 0.4744930
995.1677, 0.3615570
995.6498, 0.2980330
996.1320, 0.6695020
996.6141, 1.380411
997.0962, 1.656248
997.5783, 0.9616870
998.0604, 0.4727000
998.5425, 0.6602210
999.0247, 0.9579850
999.5068, 1.098833
999.9889, 1.078876
1000.471, 0.8367610
1000.953, 0.4165690
1001.435, 0.1825750
1001.917, 0.4299340
1002.399, 0.6611600
1002.882, 0.5388220
1003.364, 0.3275180
1003.846, 0.2500900
1004.328, 0.3106270
1004.810, 0.3658470
1005.292, 0.3572880
1005.774, 0.4234140
1006.256, 0.6717740
1006.739, 1.006212
1007.221, 1.576696
1007.703, 2.032358
1008.185, 1.647987
1008.667, 0.6917760
1009.149, 4.7109999E-02
1009.631, 1.8944001E-02
1010.113, 0.2258360
1010.595, 0.3777690
1011.078, 0.5117440
1011.560, 0.6561570
1012.042, 0.7843170
1012.524, 0.8840660
1013.006, 0.9294050
1013.488, 0.8104780
1013.970, 0.4793950
1014.452, 0.1426240
1014.935, 4.0228002E-02
1015.417, 9.6253999E-02
1015.899, 0.1682760
1016.381, 0.2314530
1016.863, 8.5189998E-02
1017.345, 0.2591400
1017.827, 0.3142190
1018.309, 0.1866170
1018.791, 0.8233410
1019.274, 0.9732460
1019.756, 0.7663060
1020.238, 0.8838670
1020.720, 1.310175
1021.202, 1.655441
1021.684, 1.857527
1022.166, 1.852911
1022.648, 1.581146
1023.130, 1.199280
1023.613, 0.9540730
1024.095, 0.8248480
1024.577, 0.6808470
1025.059, 0.5112170
1025.541, 0.5169540
1026.023, 0.7739510
1026.505, 1.006968
1026.987, 1.062267
1027.469, 0.9446390
1027.952, 0.5974390
1028.434, 1.0174000E-02
1028.916, 5.8168001E-02
1029.398, 0.6945500
1029.880, 1.132269
1030.362, 0.9281620
1030.844, 0.6674190
1031.326, 0.7960380
1031.809, 1.036766
1032.291, 0.7493880
1032.773, 0.2032850
1033.255, 0.4742640
1033.737, 0.3931600
1034.219, 0.9159090
1034.701, 0.5070970
1035.183, 0.1785560
1035.666, 0.7837850
1036.148, 1.803471
1036.630, 2.088417
1037.112, 1.444389
1037.594, 1.171558
1038.076, 1.545073
1038.558, 1.845123
1039.040, 1.956450
1039.522, 1.966820
1040.005, 1.953747
1040.487, 1.866379
1040.969, 1.535196
1041.451, 0.8490160
1041.933, 0.5017700
1042.415, 0.7636260
1042.897, 1.001877
1043.379, 1.042622
1043.861, 1.082968
1044.344, 1.287710
1044.826, 1.570438
1045.308, 1.775391
1045.790, 1.899944
1046.272, 1.890779
1046.754, 1.557158
1047.236, 1.356396
1047.718, 1.577198
1048.201, 1.798092
1048.683, 1.659525
1049.165, 1.320709
1049.647, 1.089029
1050.129, 1.002943
1050.611, 0.9840070
1051.093, 1.124786
1051.575, 1.183603
1052.057, 1.031042
1052.540, 0.8285050
1053.022, 0.6312100
1053.504, 0.4918580
1053.986, 0.5197680
1054.468, 0.7353630
1054.950, 0.8984200
1055.432, 0.9369910
1055.914, 0.9253540
1056.396, 0.8164630
1056.879, 0.7369460
1057.361, 0.8678910
1057.843, 1.060705
1058.325, 0.9679090
1058.807, 0.5508770
1059.289, 0.4120540
1059.771, 1.072182
1060.253, 1.612566
1060.736, 1.560694
1061.218, 1.381454
1061.700, 1.453060
1062.182, 1.638367
1062.664, 1.665865
1063.146, 1.499245
1063.628, 1.299807
1064.110, 1.042032
1064.593, 0.8796980
1065.075, 1.006174
1065.557, 1.122974
1066.039, 0.8912470
1066.521, 0.5505910
1067.003, 0.4974400
1067.485, 0.7721920
1067.967, 1.125368
1068.449, 1.712423
1068.932, 1.920988
1069.414, 0.9217610
1069.896, 5.6860000E-03
1070.378, 0.3920270
1070.860, 1.341986
1071.342, 1.772863
1071.824, 1.571335
1072.306, 1.196814
1072.788, 0.6204850
1073.271, 0.3519120
1073.753, 0.9603920
1074.235, 1.615461
1074.717, 1.659891
1075.199, 1.399223
1075.681, 1.252041
1076.163, 1.300756
1076.645, 1.495853
1077.127, 1.942924
1077.610, 2.157887
1078.092, 1.694071
1078.574, 1.169796
1079.056, 0.9466500
1079.538, 0.9398210
1080.020, 1.138300
1080.502, 1.427917
1080.984, 1.477201
1081.467, 1.122147
1081.949, 0.8520980
1082.431, 0.9730420
1082.913, 1.144077
1083.395, 1.107626
1083.877, 1.052179
1084.359, 1.266254
1084.841, 1.634699
1085.323, 1.805166
1085.806, 1.672239
1086.288, 1.442074
1086.770, 1.017094
1087.252, 0.7828660
1087.734, 1.195572
1088.216, 1.661142
1088.698, 1.536289
1089.180, 1.046343
1089.662, 0.7676890
1090.145, 0.8191360
1090.627, 0.8266140
1091.109, 0.6182160
1091.591, 0.4092810
1092.073, 0.1398580
1092.555, 1.6298000E-02
1093.037, 0.2402990
1093.519, 0.6327230
1094.002, 0.6401200
1094.484, 0.2196600
1094.966, 0.1003670
1095.448, 0.2597500
1095.930, 0.1161120
1096.412, 0.7521460
1096.894, 1.497679
1097.376, 1.540318
1097.859, 1.239714
1098.341, 0.9884590
1098.823, 0.8597770
1099.305, 0.9492340
1099.787, 1.442175
1100.269, 1.811129
1100.751, 1.987534
1101.233, 1.931862
1101.715, 1.388744
1102.198, 0.7669870
1102.680, 0.7143690
1103.162, 1.064342
1103.644, 1.048521
1104.126, 0.4001710
1104.608, 0.1154270
1105.090, 0.4257650
1105.572, 0.4999790
1106.054, 0.1919730
1106.537, 0.2296430
1107.019, 0.6394500
1107.501, 0.9762500
1107.983, 1.097866
1108.465, 0.9540620
1108.947, 0.8324170
1109.429, 0.7120860
1109.911, 0.6774600
1110.394, 0.9000190
1110.876, 1.051180
1111.358, 0.7521930
1111.840, 0.3378280
1112.322, 0.4629940
1112.804, 1.177729
1113.286, 1.501369
1113.768, 1.206758
1114.250, 0.8914180
1114.733, 0.4687210
1115.215, 0.2069030
1115.697, 0.3369030
1116.179, 0.5768570
1116.661, 0.6011450
1117.143, 0.4377800
1117.625, 0.2862870
1118.107, 7.5777002E-02
1118.589, 5.5783998E-02
1119.072, 0.3192010
1119.554, 0.6015820
1120.036, 0.8810960
1120.518, 1.045977
1121.000, 0.9413070
1121.482, 0.6924550
1121.964, 0.6941070
1122.446, 1.020460
1122.929, 1.126848
1123.411, 0.9331380
1123.893, 0.8065870
1124.375, 0.8615400
1124.857, 0.8534050
1125.339, 0.5669290
1125.821, 0.2623500
1126.303, 0.4517310
1126.786, 1.087072
1127.268, 1.217970
1127.750, 0.7624130
1128.232, 0.5300940
1128.714, 0.6436350
1129.196, 0.8600600
1129.678, 1.095877
1130.160, 1.230524
1130.642, 1.099981
1131.125, 0.7975180
1131.607, 0.6231330
1132.089, 0.5793430
1132.571, 0.8227400
1133.053, 1.345121
1133.535, 1.440094
1134.017, 0.8933940
1134.499, 0.4617440
1134.981, 0.7590170
1135.464, 1.379562
1135.946, 1.653335
1136.428, 1.609935
1136.910, 1.189327
1137.392, 0.5357830
1137.874, 0.4364020
1138.356, 0.9433410
1138.838, 1.284081
1139.321, 1.062523
1139.803, 0.7228280
1140.285, 0.8152710
1140.767, 1.070415
1141.249, 0.9908400
1141.731, 0.6898080
1142.213, 0.3171820
1142.695, 3.0108999E-02
1143.177, 0.1267910
1143.660, 8.1285000E-02
1144.142, 0.4266740
1144.624, 0.8779350
1145.106, 1.210545
1145.588, 1.073676
1146.070, 0.7771670
1146.552, 0.7585200
1147.034, 0.8592130
1147.516, 0.6796050
1147.999, 0.2488740
1148.481, 1.2910001E-03
1148.963, 0.1339070
1149.445, 0.3226820
1149.927, 0.3836460
1150.409, 0.3942050
1150.891, 0.3723980
1151.373, 0.3936000
1151.856, 0.6929540
1152.338, 1.041763
1152.820, 0.7919750
1153.302, 0.1898980
1153.784, 0.7650820
1154.266, 0.3152130
1154.748, 0.2422010
1155.230, 0.7356940
1155.713, 1.104873
1156.195, 1.267044
1156.677, 1.316005
1157.159, 1.459176
1157.641, 1.640485
1158.123, 1.388879
1158.605, 0.1480460
1159.087, 0.4316110
1159.569, 0.3484840
1160.052, 0.9810720
1160.534, 0.9651650
1161.016, 0.7868070
1161.498, 0.7926770
1161.980, 0.8906490
1162.462, 0.8632310
1162.944, 0.6822570
1163.426, 0.5789720
1163.908, 0.5802330
1164.391, 0.6965230
1164.873, 1.000834
1165.355, 1.132661
1165.837, 0.8441770
1166.319, 0.5269220
1166.801, 0.6954620
1167.283, 1.170515
1167.765, 1.137190
1168.247, 0.5687410
1168.730, 0.3696930
1169.212, 0.5887740
1169.694, 0.8055400
1170.176, 0.9103040
1170.658, 0.9480600
1171.140, 0.9448860
1171.622, 0.9147570
1172.104, 0.8583010
1172.587, 0.8023810
1173.069, 0.8873050
1173.551, 1.056377
1174.033, 1.044360
1174.515, 0.8689960
1174.997, 0.8068230
1175.479, 0.9580420
1175.961, 1.166378
1176.443, 1.336827
1176.926, 1.432128
1177.408, 1.337623
1177.890, 1.184440
1178.372, 1.151617
1178.854, 1.214313
1179.336, 1.391140
1179.818, 1.600853
1180.300, 1.500103
1180.782, 0.8879900
1181.265, 0.4460060
1181.747, 0.7754200
1182.229, 1.188361
1182.711, 1.215960
1183.193, 1.124519
1183.675, 1.175163
1184.157, 1.331532
1184.639, 1.543203
1185.122, 1.780938
1185.604, 1.761844
1186.086, 1.161060
1186.568, 0.7221350
1187.050, 0.6016650
1187.532, 0.6218740
1188.014, 0.8622180
1188.496, 1.076206
1188.979, 0.9530900
1189.461, 0.6533810
1189.943, 0.6769330
1190.425, 1.046194
1190.907, 1.304130
1191.389, 1.491446
1191.871, 1.413313
1192.353, 0.9020650
1192.835, 0.5370590
1193.318, 0.6364260
1193.800, 0.9258320
1194.282, 1.085693
1194.764, 1.137871
1195.246, 1.161241
1195.728, 1.156669
1196.210, 1.087510
1196.692, 0.9621770
1197.174, 1.066899
1197.657, 1.453219
1198.139, 1.686469
1198.621, 1.482637
1199.103, 1.194962
1199.585, 1.343266
1200.067, 1.695778
1200.549, 1.850510
1201.031, 1.815586
1201.514, 1.509457
1201.996, 1.068611
1202.478, 0.9128650
1202.960, 1.090000
1203.442, 1.220339
1203.924, 1.040983
1204.406, 0.8473000
1204.888, 0.9271110
1205.370, 1.016495
1205.853, 0.9007910
1206.335, 0.6591630
1206.817, 0.2375320
1207.299, 0.1703620
1207.781, 4.6383001E-02
1208.263, 0.7466030
1208.745, 1.412113
1209.227, 1.827101
1209.709, 1.995127
1210.192, 1.798977
1210.674, 1.495516
1211.156, 1.037910
1211.638, 0.6351640
1212.120, 0.6419680
1212.602, 0.9399170
1213.084, 1.069469
1213.566, 0.9954170
1214.049, 0.9170740
1214.531, 0.8407310
1215.013, 0.6942500
1215.495, 0.4036880
1215.977, 0.4013730
1216.459, 0.9846990
1216.941, 1.530767
1217.423, 1.295637
1217.906, 0.5942670
1218.388, 0.5824150
1218.870, 1.090403
1219.352, 1.209597
1219.834, 0.9857560
1220.316, 0.9877970
1220.798, 1.290524
1221.280, 1.432669
1221.762, 1.160934
1222.245, 0.7939360
1222.727, 0.5795880
1223.209, 0.4926740
1223.691, 0.5393450
1224.173, 0.6609290
1224.655, 0.8745020
1225.137, 1.064682
1225.619, 0.9229850
1226.101, 0.4962040
1226.584, 0.3693290
1227.066, 0.9317950
1227.548, 1.279209
1228.030, 0.8339860
1228.512, 0.4669080
1228.994, 0.6460690
1229.476, 0.9431040
1229.958, 1.091066
1230.441, 1.083263
1230.923, 0.8680270
1231.405, 0.4578230
1231.887, 0.3261430
1232.369, 0.5923390
1232.851, 0.7706090
1233.333, 0.8298020
1233.815, 0.8565410
1234.297, 0.8859480
1234.780, 0.8005050
1235.262, 0.4503380
1235.744, 0.2146110
1236.226, 0.9090400
1236.708, 2.194199
1237.190, 2.625734
1237.672, 2.349703
1238.154, 1.946337
1238.636, 1.495996
1239.119, 0.9122470
1239.601, 0.2383820
1240.083, 2.9003000E-02
1240.565, 0.5071680
1241.047, 1.119667
1241.529, 1.053978
1242.011, 0.7855820
1242.493, 0.7823830
1242.975, 0.8549630
1243.458, 0.6885910
1243.940, 0.4158500
1244.422, 0.4009650
1244.904, 0.6794820
1245.386, 0.8734070
1245.868, 0.9170040
1246.350, 0.7737290
1246.832, 2.1957001E-02
1247.315, 0.3728010
1247.797, 0.2807640
1248.279, 0.9554810
1248.761, 0.8753510
1249.243, 0.3995040
1249.725, 0.1401540
1250.207, 9.5039003E-02
1250.689, 0.3433250
1251.172, 0.9352550
1251.654, 1.205425
1252.136, 1.095362
1252.618, 0.8846510
1253.100, 0.6584450
1253.582, 0.5485520
1254.064, 0.6543750
1254.546, 0.8238890
1255.028, 0.8280890
1255.510, 0.7554950
1255.993, 0.8247620
1256.475, 0.9208490
1256.957, 0.7915020
1257.439, 0.5167500
1257.921, 0.3505550
1258.403, 0.3255330
1258.885, 0.2345100
1259.367, 9.6104003E-02
1259.850, 0.1854190
1260.332, 0.4739190
1260.814, 1.056379
1261.296, 1.127514
1261.778, 1.007008
1262.260, 0.8266720
1262.742, 0.6972470
1263.224, 0.7129500
1263.707, 0.8561550
1264.189, 0.9924600
1264.671, 1.156240
1265.153, 1.174755
1265.635, 0.9625820
1266.117, 0.8986570
1266.599, 1.301912
1267.081, 1.569555
1267.563, 1.417435
1268.046, 1.071232
1268.528, 0.7149050
1269.010, 0.4472960
1269.492, 0.5722850
1269.974, 0.9324800
1270.456, 1.196657
1270.938, 1.324903
1271.420, 1.201517
1271.902, 0.8515700
1272.385, 0.6424140
1272.867, 0.8156170
1273.349, 0.8835770
1273.831, 0.4339890
1274.313, 5.6223001E-02
1274.795, 2.3409000E-02
1275.277, 0.1864300
1275.759, 0.6274810
1276.242, 1.062567
1276.724, 1.131752
1277.206, 0.9406680
1277.688, 0.8849790
1278.170, 1.009672
1278.652, 0.8483370
1279.134, 0.1993920
1279.616, 3.3154000E-02
1280.099, 0.4537640
1280.581, 0.8190380
1281.063, 0.7550180
1281.545, 0.5228370
1282.027, 0.1737750
1282.509, 4.8520002E-03
1282.991, 6.4590000E-02
1283.473, 0.1605820
1283.955, 0.0000000E+00
##END=



