##NAMES=Borcarite
##RRUFFID=R060591
##IDEAL CHEMISTRY=Ca_4_MgB_4_O_6_(CO_3_)_2_(OH)_6_
##LOCALITY=Fuka mine, Bitchu-cho, Takahashi, Kawakami-gun, Okayama Prefecture, Chugoku Region, Japan
##OWNER=RRUFF
##SOURCE=Michael Scott
##DESCRIPTION=Mass of green indistinct crystals
##STATUS=The identification of this mineral is confirmed by single-crystal X-ray diffraction and chemical analysis.
##URL=rruff.info/R060591
##MEASURED CHEMISTRY=Ca_4.00_(Mg_0.96_Fe_0.04_)_Î£=1_B_4_O_6_(CO_3_)_2_(OH)_6_ ; trace amounts of Mg; B, C, H not measured but assumed by stoichiometry.
151.8681, 0.0000000E+00
152.3502, 0.1156460
152.8323, 0.1148610
153.3145, 0.9709630
153.7966, 2.207977
154.2787, 3.715416
154.7608, 5.427246
155.2429, 7.302689
155.7250, 9.382149
156.2072, 11.70930
156.6893, 14.03136
157.1714, 16.14349
157.6535, 18.30531
158.1356, 20.59590
158.6177, 23.05071
159.0999, 25.79198
159.5820, 28.94645
160.0641, 32.51482
160.5462, 36.04395
161.0283, 39.27805
161.5104, 42.39654
161.9926, 45.52232
162.4747, 48.68283
162.9568, 51.95317
163.4389, 55.36983
163.9210, 58.94861
164.4031, 62.78751
164.8853, 66.95733
165.3674, 71.77155
165.8495, 77.65683
166.3316, 84.97910
166.8137, 93.05547
167.2958, 101.5559
167.7780, 110.3427
168.2601, 117.8393
168.7422, 123.7335
169.2243, 127.6548
169.7064, 128.1115
170.1885, 124.9251
170.6707, 118.8873
171.1528, 110.2654
171.6349, 99.46526
172.1170, 88.00403
172.5991, 76.63835
173.0812, 65.31780
173.5634, 55.16798
174.0455, 46.73787
174.5276, 39.17336
175.0097, 32.21159
175.4918, 25.82966
175.9739, 20.16479
176.4561, 15.44639
176.9382, 11.77149
177.4203, 8.671890
177.9024, 6.256676
178.3845, 4.254364
178.8666, 2.625229
179.3488, 1.325310
179.8309, 0.2440800
180.3130, 0.7581860
180.7951, 1.764885
181.2772, 2.443031
181.7593, 2.628944
182.2415, 2.638405
182.7236, 2.729477
183.2057, 2.953835
183.6878, 3.143906
184.1699, 3.041222
184.6520, 2.497314
185.1342, 1.906380
185.6163, 1.370750
186.0984, 0.7513200
186.5805, 9.6869998E-02
187.0626, 1.217278
187.5447, 2.565468
188.0269, 4.122192
188.5090, 5.924255
188.9911, 7.737366
189.4732, 9.465866
189.9553, 11.17744
190.4374, 13.02127
190.9196, 15.13609
191.4017, 17.21976
191.8838, 18.84599
192.3659, 20.01431
192.8480, 21.03490
193.3301, 21.95240
193.8123, 22.81039
194.2944, 23.76685
194.7765, 24.82430
195.2586, 26.05174
195.7407, 27.48608
196.2228, 29.12516
196.7050, 30.87753
197.1871, 32.65427
197.6692, 34.46346
198.1513, 36.45180
198.6334, 38.68745
199.1155, 41.10854
199.5977, 43.64732
200.0798, 46.31027
200.5619, 49.14385
201.0440, 52.22346
201.5261, 55.59055
202.0082, 59.05856
202.4904, 62.49146
202.9725, 66.13036
203.4546, 70.07887
203.9367, 74.36960
204.4188, 79.04945
204.9009, 84.14085
205.3831, 89.60583
205.8652, 95.62314
206.3473, 102.1745
206.8294, 109.2108
207.3115, 117.0197
207.7936, 125.4712
208.2758, 133.9338
208.7579, 141.7173
209.2400, 149.8559
209.7221, 154.6965
210.2042, 156.7311
210.6863, 155.7039
211.1685, 150.9514
211.6506, 142.5614
212.1327, 131.6788
212.6148, 119.6776
213.0969, 105.5490
213.5790, 92.68494
214.0612, 80.54211
214.5433, 69.89042
215.0254, 61.36734
215.5075, 55.14925
215.9896, 50.57127
216.4717, 46.80659
216.9539, 43.96859
217.4360, 41.90860
217.9181, 40.71483
218.4002, 40.24445
218.8823, 40.46614
219.3644, 41.37776
219.8466, 42.69157
220.3287, 43.98245
220.8108, 45.14848
221.2929, 46.91451
221.7750, 49.66402
222.2571, 52.95995
222.7393, 56.24856
223.2214, 59.38950
223.7035, 62.63386
224.1856, 66.32059
224.6677, 70.39191
225.1498, 74.63188
225.6320, 79.23527
226.1141, 83.91520
226.5962, 88.16607
227.0783, 91.85036
227.5604, 95.29213
228.0425, 99.10375
228.5247, 103.0983
229.0068, 106.3389
229.4889, 108.1634
229.9710, 108.9814
230.4531, 109.6739
230.9352, 110.2865
231.4174, 110.8360
231.8995, 111.3965
232.3816, 111.9240
232.8637, 112.2688
233.3458, 112.2116
233.8279, 111.9013
234.3101, 111.7739
234.7922, 111.7113
235.2743, 112.0910
235.7564, 113.1125
236.2385, 114.6465
236.7206, 116.4723
237.2028, 118.4978
237.6849, 120.6964
238.1670, 123.0033
238.6491, 125.3071
239.1312, 127.9540
239.6133, 131.2730
240.0955, 134.9925
240.5776, 138.6603
241.0597, 141.9109
241.5418, 144.9069
242.0239, 148.4049
242.5060, 152.9420
242.9882, 157.3490
243.4703, 161.6017
243.9524, 165.4942
244.4345, 168.8616
244.9166, 171.6750
245.3987, 173.7239
245.8809, 174.0800
246.3630, 172.2003
246.8451, 169.0550
247.3272, 165.0226
247.8093, 159.8924
248.2914, 153.2605
248.7736, 144.8425
249.2557, 134.9908
249.7378, 125.2108
250.2199, 115.0096
250.7020, 105.5252
251.1841, 96.96263
251.6663, 89.19633
252.1484, 82.08649
252.6305, 75.51689
253.1126, 69.65839
253.5947, 64.90972
254.0768, 62.02390
254.5590, 59.55057
255.0411, 57.22184
255.5232, 55.31127
256.0053, 54.21457
256.4874, 54.10119
256.9695, 54.64330
257.4517, 55.04944
257.9338, 54.97079
258.4159, 55.18484
258.8980, 55.74911
259.3801, 56.58452
259.8622, 57.60855
260.3444, 58.79250
260.8265, 60.17028
261.3086, 61.81562
261.7907, 64.03492
262.2728, 66.06108
262.7549, 67.42796
263.2371, 68.82715
263.7192, 70.93449
264.2013, 73.93372
264.6834, 77.55219
265.1655, 81.42530
265.6476, 85.62295
266.1298, 89.93696
266.6119, 94.46644
267.0940, 99.07525
267.5761, 103.5759
268.0582, 107.9591
268.5403, 112.3998
269.0225, 117.1966
269.5046, 122.5246
269.9867, 127.2517
270.4688, 131.1899
270.9509, 134.6046
271.4330, 137.6868
271.9152, 140.4622
272.3973, 142.9754
272.8794, 145.4328
273.3615, 147.7868
273.8436, 148.7372
274.3257, 148.2907
274.8079, 146.4219
275.2900, 143.0079
275.7721, 138.0609
276.2542, 131.9204
276.7363, 124.6603
277.2184, 116.2616
277.7006, 107.3086
278.1827, 97.26756
278.6648, 87.16008
279.1469, 77.52553
279.6290, 68.42809
280.1111, 60.07500
280.5933, 52.61229
281.0754, 46.09986
281.5575, 40.21600
282.0396, 35.02837
282.5217, 30.38199
283.0038, 26.20730
283.4860, 22.49824
283.9681, 19.17995
284.4502, 16.24203
284.9323, 13.69888
285.4144, 11.48449
285.8965, 9.638428
286.3787, 7.994766
286.8608, 6.411343
287.3429, 4.947079
287.8250, 3.814095
288.3071, 3.152699
288.7892, 2.774612
289.2714, 2.388329
289.7535, 1.983051
290.2356, 1.647415
290.7177, 1.432083
291.1998, 1.317368
291.6819, 1.260948
292.1641, 1.279896
292.6462, 1.303211
293.1283, 1.248104
293.6104, 1.124451
294.0925, 0.9855610
294.5746, 0.8570250
295.0568, 0.7278100
295.5389, 0.5660060
296.0210, 0.3554230
296.5031, 0.1605030
296.9852, 4.9507000E-02
297.4673, 9.4599999E-04
297.9495, 5.0732002E-02
298.4316, 8.8638000E-02
298.9137, 0.1436040
299.3958, 0.2323110
299.8779, 0.3447380
300.3600, 0.5457840
300.8422, 1.081451
301.3243, 1.731342
301.8064, 2.062981
302.2885, 1.784115
302.7706, 1.301224
303.2527, 1.104691
303.7349, 1.211620
304.2170, 1.298519
304.6991, 1.234283
305.1812, 1.065666
305.6633, 0.8584400
306.1454, 0.6216960
306.6276, 0.3019290
307.1097, 0.1335260
307.5918, 0.6618730
308.0739, 1.232197
308.5560, 1.841385
309.0381, 2.514072
309.5203, 3.271515
310.0024, 4.107040
310.4845, 4.905037
310.9666, 5.532417
311.4487, 6.079208
311.9308, 6.898098
312.4130, 8.134743
312.8951, 9.533131
313.3772, 10.85106
313.8593, 12.10253
314.3414, 13.35320
314.8235, 14.60891
315.3057, 15.88643
315.7878, 17.27220
316.2699, 18.81566
316.7520, 20.35521
317.2341, 21.83961
317.7162, 23.23956
318.1984, 24.45955
318.6805, 25.40946
319.1626, 26.15971
319.6447, 26.84799
320.1268, 27.49255
320.6089, 28.00336
321.0911, 28.29456
321.5732, 28.42868
322.0553, 28.46444
322.5374, 28.37892
323.0195, 28.22581
323.5016, 28.08169
323.9838, 27.94681
324.4659, 27.74742
324.9480, 27.29689
325.4301, 26.89596
325.9122, 26.95815
326.3943, 27.58498
326.8765, 28.23764
327.3586, 28.47237
327.8407, 28.37072
328.3228, 28.39123
328.8049, 28.67513
329.2870, 29.06869
329.7692, 29.34342
330.2513, 29.51925
330.7334, 29.89229
331.2155, 30.62913
331.6976, 31.66260
332.1797, 32.88705
332.6619, 34.36015
333.1440, 35.83118
333.6261, 37.13260
334.1082, 38.28038
334.5903, 39.27441
335.0724, 40.09148
335.5546, 40.75842
336.0367, 41.40011
336.5188, 42.05093
337.0009, 42.30186
337.4830, 41.94419
337.9651, 40.97269
338.4473, 39.37725
338.9294, 36.89139
339.4115, 34.19908
339.8936, 31.82391
340.3757, 29.72637
340.8578, 27.67932
341.3400, 25.52962
341.8221, 23.45879
342.3042, 21.70255
342.7863, 20.26572
343.2684, 19.01881
343.7505, 17.92960
344.2327, 16.98084
344.7148, 16.14127
345.1969, 15.41607
345.6790, 14.76699
346.1611, 14.20121
346.6432, 13.70226
347.1254, 13.12744
347.6075, 12.43125
348.0896, 11.64465
348.5717, 10.79204
349.0538, 9.868069
349.5359, 8.957600
350.0181, 8.106373
350.5002, 7.319750
350.9823, 6.594837
351.4644, 5.995256
351.9465, 5.408009
352.4286, 4.711952
352.9108, 3.944096
353.3929, 3.267939
353.8750, 2.778355
354.3571, 2.422377
354.8392, 2.067776
355.3214, 1.726522
355.8035, 1.363340
356.2856, 0.9153580
356.7677, 0.4475560
357.2498, 5.6561001E-02
357.7319, 0.2403490
358.2141, 0.4031560
358.6962, 0.3207230
359.1783, 6.7556001E-02
359.6604, 0.2709870
360.1425, 0.1769160
360.6246, 5.6887001E-02
361.1068, 0.3484900
361.5889, 0.6836010
362.0710, 0.9618070
362.5531, 1.077168
363.0352, 1.030821
363.5173, 1.069592
363.9995, 1.357534
364.4816, 1.561026
364.9637, 1.439379
365.4458, 1.105936
365.9279, 0.8682250
366.4100, 0.9064410
366.8922, 1.100218
367.3743, 1.045708
367.8564, 0.4497550
368.3385, 3.7094001E-02
368.8206, 2.4909999E-02
369.3027, 0.1901050
369.7849, 0.2922710
370.2670, 0.2610130
370.7491, 0.1516110
371.2312, 3.8118001E-02
371.7133, 7.1549997E-02
372.1954, 0.2156260
372.6776, 0.4174840
373.1597, 0.6310160
373.6418, 0.8663440
374.1239, 1.097242
374.6060, 1.237375
375.0881, 1.197208
375.5703, 0.9871180
376.0524, 0.9514060
376.5345, 1.251240
377.0166, 1.535606
377.4987, 1.761669
377.9808, 1.914791
378.4630, 1.928242
378.9451, 1.769077
379.4272, 1.587317
379.9093, 1.760286
380.3914, 2.609800
380.8735, 3.288033
381.3557, 3.761484
381.8378, 4.076393
382.3199, 4.191395
382.8020, 4.145578
383.2841, 4.110821
383.7662, 4.283367
384.2484, 4.689529
384.7305, 5.122066
385.2126, 5.588251
385.6947, 6.077564
386.1768, 6.614037
386.6589, 7.170103
387.1411, 7.691866
387.6232, 8.141947
388.1053, 8.545898
388.5874, 8.955984
389.0695, 9.202026
389.5516, 9.800385
390.0338, 11.08224
390.5159, 12.60107
390.9980, 13.93348
391.4801, 14.96640
391.9622, 15.92427
392.4443, 17.09647
392.9265, 18.50211
393.4086, 19.92089
393.8907, 21.38173
394.3728, 22.79055
394.8549, 24.03374
395.3370, 25.15930
395.8192, 26.34177
396.3013, 27.76814
396.7834, 29.33751
397.2655, 30.66675
397.7476, 31.64314
398.2297, 32.66678
398.7119, 33.93452
399.1940, 35.38056
399.6761, 36.95139
400.1582, 38.66434
400.6403, 40.43041
401.1224, 42.07605
401.6046, 43.63486
402.0867, 45.48762
402.5688, 47.89312
403.0509, 50.48725
403.5330, 52.78646
404.0151, 54.78091
404.4973, 56.89233
404.9794, 59.26641
405.4615, 61.90025
405.9436, 64.87220
406.4257, 68.20828
406.9078, 71.56948
407.3900, 74.69207
407.8721, 77.56074
408.3542, 80.27369
408.8363, 83.15774
409.3184, 85.63664
409.8005, 87.41306
410.2827, 88.47619
410.7648, 88.74907
411.2469, 88.17019
411.7290, 86.83997
412.2111, 84.90037
412.6932, 82.36151
413.1754, 79.34597
413.6575, 75.65459
414.1396, 71.61488
414.6217, 67.39954
415.1038, 63.09538
415.5859, 58.94149
416.0681, 55.15926
416.5502, 51.77246
417.0323, 48.86451
417.5144, 46.42927
417.9965, 44.35005
418.4786, 42.57758
418.9608, 41.12066
419.4429, 40.06796
419.9250, 39.49098
420.4071, 39.19439
420.8892, 38.60291
421.3713, 37.30644
421.8535, 36.31601
422.3356, 35.78209
422.8177, 35.47961
423.2998, 35.30026
423.7819, 35.18357
424.2640, 35.04574
424.7462, 34.80113
425.2283, 34.45697
425.7104, 34.16883
426.1925, 33.76383
426.6746, 33.56944
427.1567, 33.73238
427.6389, 34.14900
428.1210, 34.69115
428.6031, 35.32187
429.0852, 35.95834
429.5673, 36.38610
430.0494, 36.51323
430.5316, 36.77501
431.0137, 37.32771
431.4958, 38.01334
431.9779, 38.74326
432.4600, 39.50705
432.9421, 40.32907
433.4243, 41.33475
433.9064, 42.44053
434.3885, 43.26242
434.8706, 43.72886
435.3527, 44.03148
435.8348, 44.40605
436.3170, 44.68519
436.7991, 44.54165
437.2812, 43.84447
437.7633, 42.77682
438.2454, 41.45219
438.7275, 39.87415
439.2097, 38.14312
439.6918, 36.28757
440.1739, 34.31160
440.6560, 32.15973
441.1381, 29.79563
441.6202, 27.59174
442.1024, 25.78337
442.5845, 24.12213
443.0666, 22.28582
443.5487, 20.26000
444.0308, 18.35173
444.5129, 16.79786
444.9951, 15.57850
445.4772, 14.39749
445.9593, 13.22561
446.4414, 12.15014
446.9235, 11.17766
447.4056, 10.28194
447.8878, 9.444202
448.3699, 8.660818
448.8520, 7.998867
449.3341, 7.579475
449.8162, 7.570543
450.2983, 7.321249
450.7805, 6.749224
451.2626, 6.054104
451.7447, 5.188196
452.2268, 4.278688
452.7089, 3.617250
453.1910, 3.435738
453.6732, 3.585657
454.1553, 3.428181
454.6374, 2.733950
455.1195, 2.114622
455.6016, 1.625202
456.0837, 1.267311
456.5659, 1.077005
457.0480, 1.046017
457.5301, 1.079830
458.0122, 1.118580
458.4943, 1.160189
458.9764, 1.070574
459.4586, 0.7466550
459.9407, 0.4390750
460.4228, 0.3095070
460.9049, 0.2791310
461.3870, 0.2058240
461.8691, 2.6946999E-02
462.3513, 0.1927850
462.8334, 0.3962420
463.3155, 0.5817870
463.7976, 0.7079980
464.2797, 0.7836110
464.7618, 0.7628270
465.2440, 0.5313110
465.7261, 8.1078000E-02
466.2082, 0.2380940
466.6903, 0.2233730
467.1724, 6.1964002E-02
467.6545, 4.2397000E-02
468.1367, 7.0992999E-02
468.6188, 4.1267000E-02
469.1009, 4.4822998E-02
469.5830, 0.1777230
470.0651, 0.3114910
470.5472, 0.4487740
471.0294, 0.5821910
471.5115, 0.6661760
471.9936, 0.7628670
472.4757, 1.007936
472.9578, 1.418005
473.4399, 1.786610
473.9221, 1.838432
474.4042, 1.483007
474.8863, 1.337646
475.3684, 1.504383
475.8505, 1.744146
476.3326, 1.971079
476.8148, 2.210314
477.2969, 2.544781
477.7790, 3.017477
478.2611, 3.524029
478.7432, 3.808146
479.2253, 3.751484
479.7075, 3.806030
480.1896, 4.037552
480.6717, 4.379675
481.1538, 4.867205
481.6359, 5.454287
482.1180, 5.989792
482.6002, 6.329456
483.0823, 6.555450
483.5644, 6.920298
484.0465, 7.457441
484.5286, 8.006941
485.0107, 8.552299
485.4929, 9.041126
485.9750, 9.372154
486.4571, 9.489033
486.9392, 9.674679
487.4213, 10.24905
487.9034, 10.99496
488.3856, 11.39257
488.8677, 11.33697
489.3498, 11.14434
489.8319, 11.10843
490.3140, 11.19378
490.7961, 11.03651
491.2783, 10.50163
491.7604, 9.868784
492.2425, 9.221523
492.7246, 8.571585
493.2067, 7.935328
493.6888, 7.320900
494.1710, 6.710352
494.6531, 6.085705
495.1352, 5.444122
495.6173, 4.796886
496.0994, 4.070963
496.5815, 3.410284
497.0637, 2.925760
497.5458, 2.560894
498.0279, 2.175577
498.5100, 1.682533
498.9921, 1.162775
499.4742, 0.8240740
499.9564, 0.7317390
500.4385, 0.6591300
500.9206, 0.6279790
501.4027, 0.5634000
501.8848, 0.4065910
502.3669, 0.1651120
502.8491, 0.1031880
503.3312, 0.4443000
503.8133, 0.7648410
504.2954, 0.7390900
504.7775, 0.2783600
505.2596, 0.1025050
505.7418, 6.2726997E-02
506.2239, 0.1379430
506.7060, 0.1113030
507.1881, 0.2119500
507.6702, 0.5506080
508.1523, 0.8072590
508.6345, 0.9744800
509.1166, 0.9764190
509.5987, 0.8014320
510.0808, 0.7072980
510.5629, 0.9392240
511.0450, 1.459930
511.5272, 1.823273
512.0093, 1.925299
512.4914, 2.018154
512.9735, 2.166458
513.4556, 2.351328
513.9377, 2.565496
514.4199, 2.799759
514.9020, 3.005260
515.3841, 3.089325
515.8662, 3.000607
516.3483, 3.142799
516.8304, 3.725504
517.3126, 4.321518
517.7947, 4.703863
518.2768, 5.074268
518.7589, 5.809237
519.2410, 7.078756
519.7231, 8.394058
520.2053, 8.952297
520.6874, 8.675686
521.1695, 8.578785
521.6516, 8.829979
522.1337, 9.259140
522.6158, 9.771618
523.0980, 10.38880
523.5801, 11.10919
524.0622, 11.90857
524.5443, 12.78703
525.0264, 13.73059
525.5085, 14.75097
525.9907, 15.90093
526.4728, 17.25690
526.9549, 18.64389
527.4370, 19.75796
527.9191, 20.54694
528.4012, 21.48815
528.8834, 22.61919
529.3655, 23.90635
529.8476, 25.39131
530.3297, 27.02165
530.8118, 28.67888
531.2939, 30.29968
531.7761, 31.86948
532.2582, 33.33548
532.7403, 34.53635
533.2224, 35.93319
533.7045, 37.63061
534.1866, 39.40559
534.6688, 41.13857
535.1509, 42.83535
535.6330, 44.55365
536.1151, 46.32178
536.5972, 48.15009
537.0793, 50.15096
537.5615, 52.40509
538.0436, 54.45086
538.5257, 55.93019
539.0078, 57.30088
539.4899, 58.99630
539.9720, 61.01505
540.4542, 62.98321
540.9363, 64.73708
541.4184, 66.31905
541.9005, 67.77702
542.3826, 69.11503
542.8647, 70.35127
543.3469, 71.50107
543.8290, 72.55816
544.3111, 73.53508
544.7932, 74.59290
545.2753, 75.21794
545.7574, 75.13971
546.2396, 74.74241
546.7217, 74.47520
547.2038, 74.25123
547.6859, 73.56402
548.1680, 72.03294
548.6501, 69.79715
549.1323, 67.46721
549.6144, 65.11796
550.0965, 62.54476
550.5786, 59.52174
551.0607, 56.44444
551.5428, 53.61656
552.0250, 51.04154
552.5071, 48.53670
552.9892, 46.00874
553.4713, 43.43252
553.9534, 40.64026
554.4355, 37.56646
554.9177, 34.60830
555.3998, 31.82417
555.8819, 29.31824
556.3640, 27.20449
556.8461, 25.51780
557.3282, 23.96921
557.8104, 22.53947
558.2925, 21.12380
558.7746, 19.54114
559.2567, 17.80864
559.7388, 16.21912
560.2209, 14.94705
560.7031, 13.92026
561.1852, 12.90026
561.6673, 11.72433
562.1494, 10.78602
562.6315, 10.25606
563.1136, 9.854340
563.5958, 9.429003
564.0779, 8.943714
564.5600, 8.406929
565.0421, 7.824581
565.5242, 7.189369
566.0063, 6.438162
566.4885, 5.463497
566.9706, 4.698683
567.4527, 4.435457
567.9348, 4.284309
568.4169, 3.969669
568.8990, 3.503138
569.3812, 3.076406
569.8633, 2.830898
570.3454, 2.665739
570.8275, 2.452511
571.3096, 2.190084
571.7917, 1.860441
572.2739, 1.414703
572.7560, 0.9583590
573.2381, 0.7094650
573.7202, 0.7480870
574.2023, 0.6608720
574.6844, 0.2670630
575.1666, 0.1409850
575.6487, 0.3898350
576.1308, 0.4835220
576.6129, 0.4924890
577.0950, 0.4561410
577.5771, 0.3235360
578.0593, 0.1105210
578.5414, 1.189932
579.0235, 1.626373
579.5056, 0.6722110
579.9877, 0.3058010
580.4698, 0.6952340
580.9520, 0.6264710
581.4341, 0.4812090
581.9162, 0.4062650
582.3983, 0.3767320
582.8804, 0.3650700
583.3625, 0.3708990
583.8447, 0.3921760
584.3268, 0.4326630
584.8089, 0.4796700
585.2910, 0.5447540
585.7731, 0.6184540
586.2552, 0.5950950
586.7374, 0.4205890
587.2195, 0.1936420
587.7016, 0.1254710
588.1837, 0.4385530
588.6658, 0.5226840
589.1479, 0.3257870
589.6301, 0.1047020
590.1122, 0.1957360
590.5943, 0.6444890
591.0764, 0.9673670
591.5585, 0.9639030
592.0406, 1.070551
592.5228, 1.509127
593.0049, 2.056118
593.4870, 2.443317
593.9691, 2.604383
594.4512, 2.674051
594.9333, 2.736956
595.4155, 2.809814
595.8976, 2.964100
596.3797, 3.204823
596.8618, 3.525515
597.3439, 3.969088
597.8260, 4.473150
598.3082, 4.887213
598.7903, 5.201912
599.2724, 5.451246
599.7545, 5.515064
600.2366, 5.600021
600.7188, 6.006258
601.2009, 6.695038
601.6830, 7.314758
602.1651, 7.618975
602.6472, 7.702362
603.1293, 7.927664
603.6115, 8.465881
604.0936, 8.826921
604.5757, 8.762154
605.0578, 8.717421
605.5399, 9.018490
606.0220, 9.589214
606.5042, 10.11880
606.9863, 10.40251
607.4684, 10.59772
607.9505, 10.97293
608.4326, 11.52444
608.9147, 12.07948
609.3969, 12.61470
609.8790, 13.09995
610.3611, 13.47169
610.8432, 13.74325
611.3253, 14.05930
611.8074, 14.50502
612.2896, 14.92577
612.7717, 15.15390
613.2538, 15.32617
613.7359, 15.71608
614.2180, 16.39147
614.7001, 17.12459
615.1823, 17.64920
615.6644, 17.95566
616.1465, 18.24183
616.6286, 18.35365
617.1107, 18.66725
617.5928, 19.47194
618.0750, 20.39720
618.5571, 21.02708
619.0392, 21.29132
619.5213, 21.52423
620.0034, 21.92541
620.4855, 22.48719
620.9677, 23.28939
621.4498, 24.34605
621.9319, 25.22806
622.4140, 25.69713
622.8961, 25.89231
623.3782, 26.07990
623.8604, 26.22658
624.3425, 26.46885
624.8246, 26.86335
625.3067, 27.31958
625.7888, 27.79693
626.2709, 28.28405
626.7531, 28.78909
627.2352, 29.31461
627.7173, 29.82563
628.1994, 30.24464
628.6815, 30.55295
629.1636, 30.88197
629.6458, 31.33118
630.1279, 31.67595
630.6100, 31.71577
631.0921, 31.61298
631.5742, 31.68507
632.0563, 32.07266
632.5385, 32.44037
633.0206, 32.45490
633.5027, 32.28160
633.9848, 32.32016
634.4669, 32.64229
634.9490, 32.96534
635.4312, 33.05584
635.9133, 32.95626
636.3954, 32.90312
636.8775, 32.97494
637.3596, 33.03701
637.8417, 32.97364
638.3239, 32.91510
638.8060, 32.99764
639.2881, 33.23247
639.7702, 33.59387
640.2523, 34.11393
640.7344, 34.62747
641.2166, 34.72429
641.6987, 34.37754
642.1808, 34.23763
642.6629, 34.52565
643.1450, 34.86371
643.6271, 34.89664
644.1093, 34.71793
644.5914, 34.62604
645.0735, 34.80091
645.5556, 34.91562
646.0377, 34.86013
646.5198, 34.60469
647.0020, 34.10479
647.4841, 33.35984
647.9662, 32.41726
648.4483, 31.32134
648.9304, 30.06873
649.4125, 28.53483
649.8947, 26.44305
650.3768, 24.61450
650.8589, 23.46202
651.3410, 22.39804
651.8231, 20.96117
652.3052, 19.20502
652.7874, 17.53739
653.2695, 16.12887
653.7516, 14.94100
654.2337, 13.97148
654.7158, 13.19918
655.1979, 12.56134
655.6801, 12.06252
656.1622, 11.55222
656.6443, 10.81128
657.1264, 9.811522
657.6085, 9.177364
658.0906, 9.057741
658.5728, 9.061346
659.0549, 9.228083
659.5370, 9.391682
660.0191, 9.337059
660.5012, 9.068911
660.9833, 8.833710
661.4655, 8.881128
661.9476, 9.087774
662.4297, 9.009638
662.9118, 8.590355
663.3939, 8.347561
663.8760, 8.530096
664.3582, 8.848019
664.8403, 8.940994
665.3224, 8.829992
665.8045, 8.774822
666.2866, 8.710506
666.7687, 8.822262
667.2509, 9.343105
667.7330, 10.06658
668.2151, 10.61656
668.6972, 10.91546
669.1793, 11.23009
669.6614, 11.84188
670.1436, 12.73763
670.6257, 13.71263
671.1078, 14.76075
671.5899, 15.90606
672.0720, 17.20454
672.5541, 18.58144
673.0363, 20.08478
673.5184, 21.67421
674.0005, 23.03181
674.4826, 24.26354
674.9647, 25.02190
675.4468, 24.94259
675.9290, 24.10527
676.4111, 22.69442
676.8932, 20.76592
677.3753, 18.46836
677.8574, 15.92476
678.3395, 13.11397
678.8217, 10.60630
679.3038, 8.381311
679.7859, 6.513136
680.2680, 5.065172
680.7501, 3.958370
681.2322, 3.219688
681.7144, 2.797070
682.1965, 2.416969
682.6786, 1.826717
683.1607, 1.230373
683.6428, 1.055731
684.1249, 1.244776
684.6071, 1.275898
685.0892, 0.9531590
685.5713, 0.5649950
686.0534, 0.4497890
686.5355, 0.6286450
687.0176, 0.7236800
687.4998, 0.7780460
687.9819, 0.7041340
688.4640, 0.3475190
688.9461, 6.4525999E-02
689.4282, 0.3133790
689.9103, 0.3707120
690.3925, 0.3248020
690.8746, 0.1900860
691.3567, 4.8496000E-02
691.8388, 0.1623520
692.3209, 0.5475540
692.8030, 0.7555960
693.2852, 0.6015990
693.7673, 0.3610860
694.2494, 0.3475670
694.7315, 0.5379700
695.2136, 0.5695510
695.6957, 0.2639260
696.1779, 2.6990001E-03
696.6600, 9.7499996E-02
697.1421, 8.8988997E-02
697.6242, 3.2212999E-02
698.1063, 5.0395999E-02
698.5884, 0.1386700
699.0706, 0.2287080
699.5527, 0.2937660
700.0348, 0.2283310
700.5169, 2.9200001E-04
700.9990, 0.1464460
701.4811, 0.1300280
701.9633, 6.9095999E-02
702.4454, 1.0584000E-02
702.9275, 1.8120000E-02
703.4096, 9.7708002E-02
703.8917, 0.5292360
704.3738, 0.8925590
704.8560, 0.9904880
705.3381, 0.9569440
705.8202, 0.8659970
706.3023, 0.7870390
706.7844, 0.9430290
707.2665, 1.524824
707.7487, 2.305861
708.2308, 2.581642
708.7129, 2.182425
709.1950, 2.097740
709.6771, 2.709232
710.1592, 3.303036
710.6414, 3.375109
711.1235, 3.108932
711.6056, 2.869772
712.0877, 2.680387
712.5698, 2.610857
713.0519, 2.739260
713.5341, 2.980507
714.0162, 3.295153
714.4983, 3.635988
714.9804, 3.849522
715.4625, 3.836773
715.9446, 3.737625
716.4268, 3.844116
716.9089, 4.178217
717.3910, 4.632729
717.8731, 5.333103
718.3552, 5.982260
718.8373, 6.308739
719.3195, 6.555485
719.8016, 7.123899
720.2837, 8.139843
720.7658, 9.080027
721.2479, 9.545586
721.7300, 9.914995
722.2122, 10.70412
722.6943, 11.79299
723.1764, 12.65836
723.6585, 13.10220
724.1406, 13.38850
724.6227, 13.93854
725.1049, 14.80708
725.5870, 15.45760
726.0691, 15.60136
726.5512, 16.00400
727.0333, 16.99846
727.5154, 18.29627
727.9976, 19.71371
728.4797, 21.22784
728.9618, 22.59387
729.4439, 23.49221
729.9260, 24.37063
730.4081, 25.53066
730.8903, 27.00607
731.3724, 28.95424
731.8545, 31.39136
732.3366, 33.90022
732.8187, 36.06443
733.3008, 37.89907
733.7830, 39.69281
734.2651, 41.73804
734.7472, 43.11200
735.2293, 43.57699
735.7114, 43.29776
736.1935, 42.28789
736.6757, 40.60396
737.1578, 38.43533
737.6399, 35.50854
738.1220, 32.54170
738.6041, 29.81895
739.0862, 27.45407
739.5684, 25.72165
740.0505, 24.61410
740.5326, 23.80015
741.0147, 23.03213
741.4968, 22.41424
741.9789, 22.28690
742.4611, 22.74683
742.9432, 23.35660
743.4253, 24.26860
743.9074, 25.07437
744.3895, 25.38485
744.8716, 25.47839
745.3538, 25.88633
745.8359, 26.75542
746.3180, 27.72289
746.8001, 28.59326
747.2822, 29.48035
747.7643, 30.61186
748.2465, 31.89282
748.7286, 33.02451
749.2107, 33.86478
749.6928, 34.49091
750.1749, 34.95694
750.6570, 35.25524
751.1392, 35.92112
751.6213, 37.23030
752.1034, 38.28609
752.5855, 38.72240
753.0676, 38.71595
753.5497, 38.43866
754.0319, 37.88388
754.5140, 37.32101
754.9961, 37.04819
755.4782, 36.53202
755.9603, 35.34054
756.4424, 33.73935
756.9246, 32.13993
757.4067, 30.62232
757.8888, 28.99015
758.3709, 26.99800
758.8530, 24.81486
759.3351, 23.09755
759.8173, 21.91798
760.2994, 20.60140
760.7815, 18.94499
761.2636, 17.26125
761.7457, 15.78535
762.2278, 14.50499
762.7100, 13.34676
763.1921, 12.36390
763.6742, 11.42629
764.1563, 10.46171
764.6384, 9.571848
765.1205, 8.917109
765.6027, 8.401575
766.0848, 7.765079
766.5669, 6.881245
767.0490, 5.893250
767.5311, 4.859863
768.0132, 3.855330
768.4954, 3.394398
768.9775, 3.575228
769.4596, 3.710361
769.9417, 3.470459
770.4238, 2.994598
770.9059, 2.487404
771.3881, 1.892834
771.8702, 1.517702
772.3523, 1.609383
772.8344, 1.616755
773.3165, 1.242083
773.7986, 0.7485870
774.2808, 0.4131620
774.7629, 0.2843550
775.2450, 0.2772600
775.7271, 0.3970720
776.2092, 0.5483070
776.6913, 0.5805610
777.1735, 0.5176700
777.6556, 0.4743820
778.1377, 0.4798430
778.6198, 0.4060000
779.1019, 0.1033210
779.5840, 0.3422450
780.0662, 0.4672970
780.5483, 3.1190000E-03
781.0304, 0.2710610
781.5125, 0.1967620
781.9946, 3.8451999E-02
782.4767, 0.1058710
782.9589, 0.2357620
783.4410, 0.3812710
783.9231, 0.5718290
784.4052, 0.6666680
784.8873, 0.4966220
785.3694, 0.2410430
785.8516, 0.1291140
786.3337, 0.1329670
786.8158, 0.1041490
787.2979, 1.3624000E-02
787.7800, 0.1322590
788.2621, 0.1205770
788.7443, 9.7180000E-03
789.2264, 3.3360999E-02
789.7085, 6.5986998E-02
790.1906, 0.2342660
790.6727, 0.5432830
791.1548, 0.8324870
791.6370, 0.9087430
792.1191, 0.8052390
792.6012, 0.7511920
793.0833, 0.7819840
793.5654, 0.8648760
794.0475, 1.034994
794.5297, 1.218122
795.0118, 1.270315
795.4939, 1.254431
795.9760, 1.443859
796.4581, 2.018961
796.9402, 2.671242
797.4224, 2.875576
797.9045, 2.711752
798.3866, 2.714451
798.8687, 2.937086
799.3508, 3.246405
799.8329, 3.614407
800.3151, 3.964394
800.7972, 4.115671
801.2793, 3.943861
801.7614, 4.072826
802.2435, 4.784203
802.7256, 5.421652
803.2078, 5.722496
803.6899, 5.903105
804.1720, 6.232378
804.6541, 6.705544
805.1362, 7.063032
805.6183, 7.034250
806.1005, 6.980900
806.5826, 7.322599
807.0647, 7.917320
807.5468, 8.478191
808.0289, 8.946959
808.5110, 9.314947
808.9932, 9.571798
809.4753, 9.741304
809.9574, 9.852623
810.4395, 9.842857
810.9216, 10.08847
811.4037, 10.80575
811.8859, 11.44625
812.3680, 11.59498
812.8501, 11.56740
813.3322, 11.85042
813.8143, 12.51688
814.2964, 13.09582
814.7786, 13.47950
815.2607, 13.74939
815.7428, 13.91576
816.2249, 14.01406
816.7070, 14.08635
817.1891, 14.14056
817.6713, 14.15854
818.1534, 14.12060
818.6355, 14.04614
819.1176, 13.98867
819.5997, 13.93722
820.0818, 13.84548
820.5640, 13.72524
821.0461, 13.35709
821.5282, 12.51905
822.0103, 11.39342
822.4924, 10.55602
822.9745, 10.21616
823.4567, 9.683264
823.9388, 8.757971
824.4209, 7.866901
824.9030, 7.165373
825.3851, 6.577442
825.8672, 5.988899
826.3494, 5.383406
826.8315, 4.888227
827.3136, 4.653584
827.7957, 4.466789
828.2778, 4.154543
828.7599, 3.760351
829.2421, 3.348137
829.7242, 2.942923
830.2063, 2.578911
830.6884, 2.276756
831.1705, 2.042725
831.6526, 1.928272
832.1348, 1.941401
832.6169, 1.820736
833.0990, 1.486908
833.5811, 1.178963
834.0632, 1.048721
834.5453, 1.026760
835.0275, 0.9505730
835.5096, 0.7667870
835.9917, 0.6939960
836.4738, 0.9185680
836.9559, 1.035397
837.4380, 0.7629130
837.9202, 0.3707330
838.4023, 0.1798320
838.8844, 0.1981260
839.3665, 0.2689840
839.8486, 0.3491670
840.3307, 0.3913080
840.8129, 0.3086050
841.2950, 0.1639180
841.7771, 0.1062890
842.2592, 0.1451280
842.7413, 0.1569860
843.2234, 5.3658001E-02
843.7056, 0.1066250
844.1877, 0.2035710
844.6698, 0.2362440
845.1519, 0.1831150
845.6340, 9.0429997E-03
846.1161, 0.1336860
846.5983, 0.1265600
847.0804, 0.1065160
847.5625, 0.3219360
848.0446, 0.7972300
848.5267, 1.068792
849.0089, 0.9533920
849.4910, 0.8442650
849.9731, 0.8196740
850.4552, 0.8720170
850.9373, 1.042957
851.4194, 1.282219
851.9016, 1.442972
852.3837, 1.444830
852.8658, 1.426159
853.3479, 1.506535
853.8300, 1.630884
854.3121, 1.674126
854.7943, 1.649609
855.2764, 1.668669
855.7585, 1.779457
856.2406, 1.929676
856.7227, 2.067781
857.2048, 2.186724
857.6870, 2.143833
858.1691, 1.830595
858.6512, 1.831036
859.1333, 2.453871
859.6154, 3.165434
860.0975, 3.450775
860.5797, 3.408810
861.0618, 3.588186
861.5439, 4.281639
862.0260, 4.734463
862.5081, 4.562202
862.9902, 4.403469
863.4724, 4.672764
863.9545, 5.169817
864.4366, 5.556944
864.9187, 5.791595
865.4008, 6.124350
865.8829, 6.880758
866.3651, 7.639698
866.8472, 7.777208
867.3293, 7.588800
867.8114, 7.802244
868.2935, 8.537289
868.7756, 9.399210
869.2578, 10.09306
869.7399, 10.69974
870.2220, 11.45554
870.7041, 12.07643
871.1862, 13.08138
871.6683, 13.42414
872.1505, 13.83979
872.6326, 14.49530
873.1147, 15.37624
873.5968, 16.57520
874.0789, 18.29642
874.5610, 19.33438
875.0432, 19.60707
875.5253, 19.37679
876.0074, 18.52255
876.4895, 17.28999
876.9716, 15.74254
877.4537, 13.98971
877.9359, 12.29280
878.4180, 10.67763
878.9001, 9.269335
879.3822, 8.238071
879.8643, 7.378504
880.3464, 6.393969
880.8286, 5.371965
881.3107, 4.620279
881.7928, 4.240784
882.2749, 3.999218
882.7570, 3.633909
883.2391, 3.430212
883.7213, 3.015791
884.2034, 3.015049
884.6855, 2.935795
885.1676, 2.700308
885.6497, 2.474899
886.1318, 2.383869
886.6140, 2.407696
887.0961, 2.494139
887.5782, 2.713787
888.0603, 2.810537
888.5424, 2.700754
889.0245, 2.581135
889.5067, 2.445904
889.9888, 2.392406
890.4709, 2.614067
890.9530, 3.111803
891.4351, 3.412346
891.9172, 3.284187
892.3994, 3.109903
892.8815, 2.966305
893.3636, 2.908602
893.8457, 3.052736
894.3278, 3.326004
894.8099, 3.533390
895.2921, 3.596476
895.7742, 3.538696
896.2563, 3.325529
896.7384, 3.035534
897.2205, 2.737576
897.7026, 2.483463
898.1848, 2.522293
898.6669, 2.912764
899.1490, 3.252405
899.6311, 3.126030
900.1132, 2.667696
900.5953, 2.394949
901.0775, 2.327599
901.5596, 2.209734
902.0417, 1.982845
902.5238, 1.787197
903.0059, 1.731840
903.4880, 1.739933
903.9702, 1.614737
904.4523, 1.255836
904.9344, 1.170479
905.4165, 1.819672
905.8986, 2.143717
906.3807, 1.556877
906.8629, 0.8299900
907.3450, 0.7031820
907.8271, 1.056402
908.3092, 1.237322
908.7913, 1.023380
909.2734, 0.7339060
909.7556, 0.3422430
910.2377, 8.2355000E-02
910.7198, 0.3034760
911.2019, 0.7788310
911.6840, 1.022333
912.1661, 0.9064350
912.6483, 0.7506940
913.1304, 0.8762130
913.6125, 1.074829
914.0946, 0.9682520
914.5767, 0.6469710
915.0588, 0.3884810
915.5410, 0.2418190
916.0231, 0.1542700
916.5052, 8.9037001E-02
916.9873, 8.1606001E-02
917.4694, 0.2770840
917.9515, 0.6954560
918.4337, 0.6992910
918.9158, 0.1825850
919.3979, 0.2877940
919.8800, 0.5562930
920.3621, 0.6204570
920.8442, 0.3880880
921.3264, 8.6525001E-02
921.8085, 0.2119620
922.2906, 0.4077320
922.7727, 0.7272610
923.2548, 0.4466130
923.7369, 0.1476780
924.2191, 0.1481950
924.7012, 0.2814060
925.1833, 0.2760350
925.6654, 9.5248997E-02
926.1475, 6.0807999E-02
926.6296, 0.1862680
927.1118, 0.2092270
927.5939, 5.0499000E-02
928.0760, 0.1990240
928.5581, 0.5230260
929.0402, 0.8438570
929.5223, 0.9720150
930.0045, 0.8141820
930.4866, 0.5199450
930.9687, 5.4882001E-02
931.4508, 0.3586390
931.9329, 0.2125300
932.4150, 0.2931230
932.8972, 0.4519080
933.3793, 9.5799997E-02
933.8614, 0.3267330
934.3435, 0.4242500
934.8256, 0.3209610
935.3077, 0.3258320
935.7899, 0.4254150
936.2720, 0.4498560
936.7541, 0.3677270
937.2362, 0.3879720
937.7183, 0.6462970
938.2004, 0.9526980
938.6826, 0.9993110
939.1647, 0.7771380
939.6468, 0.7203290
940.1289, 0.8543990
940.6110, 1.099072
941.0931, 1.532602
941.5753, 1.951107
942.0574, 2.240240
942.5395, 2.400532
943.0216, 2.425589
943.5037, 2.244776
943.9858, 2.144709
944.4680, 2.186178
944.9501, 2.265539
945.4322, 2.366693
945.9143, 2.471087
946.3964, 2.540962
946.8785, 2.593855
947.3607, 2.721224
947.8428, 3.019365
948.3249, 3.255791
948.8070, 3.152990
949.2891, 3.061171
949.7712, 3.468153
950.2534, 4.098166
950.7355, 4.329058
951.2176, 4.030523
951.6997, 3.641001
952.1818, 3.426590
952.6639, 3.383495
953.1461, 3.602888
953.6282, 3.965874
954.1103, 4.182076
954.5924, 4.236732
955.0745, 4.297083
955.5566, 4.447735
956.0388, 4.575714
956.5209, 4.512268
957.0030, 4.294209
957.4851, 4.092817
957.9672, 3.907495
958.4493, 3.749289
958.9315, 3.604136
959.4136, 3.649925
959.8957, 4.083664
960.3778, 4.668550
960.8599, 4.736401
961.3420, 4.120163
961.8242, 3.862337
962.3063, 4.109293
962.7884, 4.369049
963.2705, 4.560385
963.7526, 4.593628
964.2347, 4.260160
964.7169, 3.649618
965.1990, 3.421146
965.6811, 3.916864
966.1632, 4.274212
966.6453, 4.397066
967.1274, 4.490215
967.6096, 4.768211
968.0917, 4.981468
968.5738, 4.723459
969.0559, 4.002420
969.5380, 3.556080
970.0201, 3.893375
970.5023, 4.087366
970.9844, 3.514339
971.4665, 2.936821
971.9486, 3.112350
972.4307, 3.723030
972.9128, 4.034290
973.3950, 3.855452
973.8771, 3.628914
974.3592, 3.668379
974.8413, 3.723034
975.3234, 3.500156
975.8055, 3.192902
976.2877, 3.166203
976.7698, 3.357075
977.2519, 3.346870
977.7340, 2.953959
978.2161, 2.512754
978.6982, 2.403818
979.1804, 2.510204
979.6625, 2.599056
980.1446, 2.619408
980.6267, 2.605705
981.1088, 2.579821
981.5909, 2.327637
982.0731, 1.631666
982.5552, 0.9017580
983.0373, 1.067060
983.5194, 1.970573
984.0015, 2.358665
984.4836, 2.191370
984.9658, 1.920708
985.4479, 1.669975
985.9300, 1.467127
986.4121, 1.347734
986.8942, 1.286438
987.3763, 1.209465
987.8585, 1.136505
988.3406, 1.057945
988.8227, 0.9741440
989.3048, 0.9067460
989.7869, 0.8642600
990.2690, 0.8090080
990.7512, 0.7597030
991.2333, 0.7366910
991.7154, 0.5701710
992.1975, 5.2460000E-02
992.6796, 0.1965640
993.1617, 5.4196998E-02
993.6439, 0.3153100
994.1260, 0.3289850
994.6081, 0.2370340
995.0902, 0.2384380
995.5723, 0.3357680
996.0544, 0.4449520
996.5366, 0.6595250
997.0187, 0.7477530
997.5008, 0.5023210
997.9829, 0.2938180
998.4650, 0.4464510
998.9471, 0.7499660
999.4293, 0.8039840
999.9114, 0.5422460
1000.393, 0.3625930
1000.876, 0.4153460
1001.358, 0.5194090
1001.840, 0.6240410
1002.322, 0.7269840
1002.804, 0.8600670
1003.286, 0.9842110
1003.768, 0.9962440
1004.250, 0.8606130
1004.733, 0.7527940
1005.215, 0.8257580
1005.697, 0.8982890
1006.179, 0.6852420
1006.661, 0.4861580
1007.143, 0.7994480
1007.625, 1.503084
1008.107, 2.052868
1008.589, 2.213633
1009.072, 2.280928
1009.554, 2.517620
1010.036, 2.782181
1010.518, 2.930096
1011.000, 2.965698
1011.482, 2.835403
1011.964, 2.596285
1012.446, 2.502359
1012.929, 2.698330
1013.411, 3.027977
1013.893, 3.363388
1014.375, 3.667830
1014.857, 3.833538
1015.339, 3.902048
1015.821, 4.024185
1016.303, 4.230564
1016.785, 4.450129
1017.268, 4.629194
1017.750, 4.831470
1018.232, 5.265331
1018.714, 5.814539
1019.196, 5.873978
1019.678, 5.507824
1020.160, 5.434841
1020.642, 5.854006
1021.125, 6.551220
1021.607, 7.405788
1022.089, 8.250288
1022.571, 8.594320
1023.053, 9.166491
1023.535, 9.656141
1024.017, 9.753475
1024.499, 10.39264
1024.981, 10.47219
1025.464, 10.56522
1025.946, 11.21275
1026.428, 12.23185
1026.910, 13.04841
1027.392, 13.64060
1027.874, 14.22083
1028.356, 14.77228
1028.838, 15.44333
1029.321, 16.32309
1029.803, 17.22983
1030.285, 17.98953
1030.767, 18.63661
1031.249, 19.34190
1031.731, 20.17076
1032.213, 20.78122
1032.695, 21.01886
1033.177, 21.42402
1033.660, 22.24273
1034.142, 23.23020
1034.624, 24.17453
1035.106, 25.06546
1035.588, 25.77651
1036.070, 26.12315
1036.552, 26.75282
1037.034, 27.91678
1037.516, 28.95780
1037.999, 29.68697
1038.481, 30.10886
1038.963, 30.04903
1039.445, 29.64035
1039.927, 29.82739
1040.409, 31.14968
1040.891, 32.04193
1041.373, 32.23370
1041.855, 32.40213
1042.338, 32.86304
1042.820, 33.31274
1043.302, 33.43390
1043.784, 33.29594
1044.266, 33.24486
1044.748, 33.29979
1045.230, 33.29035
1045.712, 33.20527
1046.195, 33.14077
1046.677, 33.24731
1047.159, 33.29709
1047.641, 32.99892
1048.123, 32.40471
1048.605, 31.88408
1049.087, 31.56958
1049.569, 31.15042
1050.052, 30.36939
1050.534, 29.67940
1051.016, 29.33197
1051.498, 29.14892
1051.980, 28.92790
1052.462, 28.67540
1052.944, 28.50242
1053.426, 28.29700
1053.908, 28.48793
1054.391, 29.27954
1054.873, 30.31427
1055.355, 31.27373
1055.837, 32.46145
1056.319, 33.98719
1056.801, 36.03677
1057.283, 39.28415
1057.765, 43.87923
1058.248, 49.65395
1058.730, 56.71247
1059.212, 64.79413
1059.694, 74.97193
1060.176, 85.24845
1060.658, 93.65737
1061.140, 100.0951
1061.622, 104.9571
1062.104, 107.4940
1062.587, 110.8393
1063.069, 115.8056
1063.551, 122.2200
1064.033, 129.9741
1064.515, 139.1393
1064.997, 149.9140
1065.479, 162.1867
1065.961, 175.5032
1066.443, 189.4462
1066.926, 205.3567
1067.408, 223.6918
1067.890, 244.2168
1068.372, 264.9660
1068.854, 289.2664
1069.336, 321.3691
1069.818, 360.4456
1070.300, 404.9424
1070.782, 457.7507
1071.265, 500.2927
1071.747, 534.3392
1072.229, 544.5157
1072.711, 515.7302
1073.193, 462.7494
1073.675, 392.7756
1074.157, 314.6584
1074.639, 243.6694
1075.122, 183.4881
1075.604, 134.6966
1076.086, 99.75841
1076.568, 73.59559
1077.050, 55.79598
1077.532, 43.20885
1078.014, 33.88214
1078.496, 26.96138
1078.979, 21.62443
1079.461, 17.68176
1079.943, 14.59352
1080.425, 12.45691
1080.907, 10.74195
1081.389, 9.257423
1081.871, 7.986105
1082.353, 6.959063
1082.835, 6.124474
1083.318, 5.401239
1083.800, 4.770414
1084.282, 4.197266
1084.764, 3.651584
1085.246, 3.179508
1085.728, 2.809872
1086.210, 2.517612
1086.692, 2.323182
1087.175, 2.171898
1087.657, 1.944735
1088.139, 1.634231
1088.621, 1.443397
1089.103, 1.642029
1089.585, 1.710498
1090.067, 1.302731
1090.549, 0.8002060
1091.031, 0.3841840
1091.514, 0.1301610
1091.996, 0.2116570
1092.478, 0.5847190
1092.960, 0.7892870
1093.442, 0.5858690
1093.924, 0.3544010
1094.406, 0.2051520
1094.888, 0.1055500
1095.370, 9.5261000E-02
1095.853, 8.1922002E-02
1096.335, 0.1182520
1096.817, 0.4500320
1097.299, 0.5551990
1097.781, 0.1929220
1098.263, 2.2814000E-02
1098.745, 0.2857900
1099.227, 0.5723550
1099.709, 0.3991290
1100.192, 0.1734920
1100.674, 0.5045960
1101.156, 1.175580
1101.638, 1.309299
1102.120, 0.5516980
1102.602, 2.0256000E-02
1103.084, 2.1159999E-02
1103.566, 4.8627999E-02
1104.049, 1.6011000E-02
1104.531, 8.4004000E-02
1105.013, 3.0257000E-02
1105.495, 0.1123510
1105.977, 0.2921900
1106.459, 0.5464270
1106.941, 0.5406450
1107.423, 7.5682998E-02
1107.906, 0.5503740
1108.388, 0.6193650
1108.870, 0.5437360
1109.352, 0.4844520
1109.834, 0.4064170
1110.316, 0.1617570
1110.798, 0.2804220
1111.280, 0.3863600
1111.762, 0.2181640
1112.245, 0.6600540
1112.727, 0.6613570
1113.209, 0.6724570
1113.691, 1.076373
1114.173, 1.508453
1114.655, 1.412951
1115.137, 0.8427190
1115.619, 0.5316830
1116.102, 0.6695520
1116.584, 0.7348500
1117.066, 0.7416410
1117.548, 0.6380220
1118.030, 0.2651290
1118.512, 7.2135001E-02
1118.994, 4.2335998E-02
1119.476, 0.2558710
1119.958, 0.4216130
1120.441, 0.3985070
1120.923, 0.4340450
1121.405, 0.6158200
1121.887, 0.6405640
1122.369, 0.3109080
1122.851, 3.0517001E-02
1123.333, 0.1283730
1123.815, 0.4529700
1124.297, 0.6910540
1124.780, 0.8507270
1125.262, 0.7752530
1125.744, 0.3327570
1126.226, 0.1960530
1126.708, 0.6062190
1127.190, 0.8857180
1127.672, 0.5996070
1128.154, 0.1415090
1128.636, 0.1050620
1129.119, 0.4268740
1129.601, 0.5624120
1130.083, 0.4916870
1130.565, 0.4747020
1131.047, 0.5488790
1131.529, 0.5377280
1132.011, 0.3471300
1132.493, 0.2275070
1132.976, 0.4630220
1133.458, 0.8990820
1133.940, 1.074538
1134.422, 1.012521
1134.904, 1.293642
1135.386, 0.8780900
1135.868, 1.218321
1136.350, 1.347158
1136.833, 0.6361120
1137.315, 1.006160
1137.797, 0.9408040
1138.279, 0.8561430
1138.761, 1.374043
1139.243, 0.7772980
1139.725, 1.282581
1140.207, 1.345850
1140.689, 1.609215
1141.172, 1.434545
1141.654, 1.393160
1142.136, 1.786970
1142.618, 1.937464
1143.100, 1.706449
1143.582, 1.973571
1144.064, 1.346471
1144.546, 1.501226
1145.029, 1.992502
1145.511, 1.775898
1145.993, 2.043460
1146.475, 2.124537
1146.957, 1.363480
1147.439, 2.062850
1147.921, 2.128466
1148.403, 1.543397
1148.885, 2.188154
1149.368, 1.689568
1149.850, 1.597031
1150.332, 1.809707
1150.814, 1.701121
1151.296, 2.095141
1151.778, 2.002007
1152.260, 1.863981
1152.742, 1.913543
1153.224, 1.786846
1153.707, 1.930083
1154.189, 1.743622
1154.671, 1.872447
1155.153, 2.069401
1155.635, 1.700595
1156.117, 1.964518
1156.599, 1.206100
1157.081, 0.8626790
1157.563, 1.021918
1158.046, 1.251702
1158.528, 1.273436
1159.010, 1.131717
1159.492, 0.9619080
1159.974, 0.8212590
1160.456, 0.6438280
1160.938, 0.2689420
1161.420, 5.1231999E-02
1161.903, 3.8968001E-02
1162.385, 0.1613790
1162.867, 0.5613110
1163.349, 0.8797690
1163.831, 0.7967210
1164.313, 0.4476170
1164.795, 0.1684840
1165.277, 1.7096000E-02
1165.760, 1.8661000E-02
1166.242, 0.3924290
1166.724, 0.5668230
1167.206, 0.3854040
1167.688, 0.2483610
1168.170, 0.3896250
1168.652, 0.5510600
1169.134, 0.4173700
1169.616, 0.1299150
1170.099, 0.1754280
1170.581, 0.5568190
1171.063, 0.8221090
1171.545, 0.9439210
1172.027, 1.009003
1172.509, 1.044427
1172.991, 1.017923
1173.473, 0.8984320
1173.956, 0.7388930
1174.438, 0.6333040
1174.920, 0.5588160
1175.402, 0.3864540
1175.884, 0.1806880
1176.366, 0.2513340
1176.848, 0.5817950
1177.330, 0.7091170
1177.813, 0.4157550
1178.295, 0.2053720
1178.777, 0.6554040
1179.259, 1.227530
1179.741, 1.164966
1180.223, 0.8521140
1180.705, 0.8396330
1181.187, 1.040308
1181.669, 1.108858
1182.151, 1.020314
1182.634, 1.078416
1183.116, 1.441713
1183.598, 1.883940
1184.080, 2.517130
1184.562, 2.911283
1185.044, 2.451914
1185.526, 1.860150
1186.008, 2.060757
1186.490, 2.703265
1186.973, 2.737452
1187.455, 1.935984
1187.937, 1.425715
1188.419, 1.646407
1188.901, 1.848825
1189.383, 1.889210
1189.865, 1.874987
1190.347, 1.807187
1190.830, 1.761035
1191.312, 1.851015
1191.794, 1.784470
1192.276, 1.753790
1192.758, 1.778874
1193.240, 1.642284
1193.722, 1.675639
1194.204, 1.645077
1194.687, 1.464007
1195.169, 1.306933
1195.651, 1.269305
1196.133, 1.357874
1196.615, 1.636170
1197.097, 1.550363
1197.579, 2.017244
1198.061, 1.629778
1198.543, 1.504303
1199.026, 1.680652
1199.508, 1.813126
1199.990, 1.783898
1200.472, 1.655516
1200.954, 1.453228
1201.436, 1.292202
1201.918, 1.397438
1202.400, 1.642148
1202.883, 1.832589
1203.365, 1.925672
1203.847, 1.742164
1204.329, 1.385158
1204.811, 1.263548
1205.293, 1.522983
1205.775, 1.907202
1206.257, 2.466449
1206.740, 2.773572
1207.222, 2.195792
1207.704, 1.539242
1208.186, 1.647232
1208.668, 2.104652
1209.150, 2.207236
1209.632, 1.968085
1210.114, 1.924738
1210.596, 2.340663
1211.078, 2.474878
1211.561, 1.825102
1212.043, 1.366847
1212.525, 1.546082
1213.007, 1.846341
1213.489, 1.979788
1213.971, 1.994186
1214.453, 1.941502
1214.935, 1.826270
1215.417, 1.801237
1215.900, 1.934158
1216.382, 1.852612
1216.864, 1.453107
1217.346, 1.238338
1217.828, 1.394689
1218.310, 1.620473
1218.792, 1.692124
1219.274, 1.661598
1219.757, 1.635261
1220.239, 1.597020
1220.721, 1.352090
1221.203, 0.9992750
1221.685, 1.171598
1222.167, 1.810937
1222.649, 2.150028
1223.131, 1.939407
1223.614, 1.622850
1224.096, 1.527877
1224.578, 1.480651
1225.060, 1.211836
1225.542, 0.9555960
1226.024, 1.120934
1226.506, 1.418575
1226.988, 1.301503
1227.470, 0.8889270
1227.953, 0.7612050
1228.435, 1.096094
1228.917, 1.309202
1229.399, 1.066097
1229.881, 0.8269610
1230.363, 0.6900460
1230.845, 0.6573190
1231.327, 0.8322410
1231.810, 1.038636
1232.292, 1.095723
1232.774, 1.005990
1233.256, 0.7509310
1233.738, 0.2461400
1234.220, 7.3977001E-02
1234.702, 0.2363740
1235.184, 5.8586001E-02
1235.667, 0.6327090
1236.149, 1.092282
1236.631, 0.8936240
1237.113, 0.4742160
1237.595, 0.3420290
1238.077, 0.4224700
1238.559, 0.5170630
1239.041, 0.6195600
1239.523, 0.7446340
1240.005, 0.8534990
1240.488, 0.6872650
1240.970, 0.2618120
1241.452, 4.2860000E-03
1241.934, 9.5205002E-02
1242.416, 0.2919310
1242.898, 0.2577340
1243.380, 0.2930560
1243.862, 0.9995990
1244.344, 1.681769
1244.827, 1.361525
1245.309, 0.5398930
1245.791, 0.1328380
1246.273, 0.1958440
1246.755, 0.2249360
1247.237, 5.5739000E-02
1247.719, 2.2919999E-02
1248.201, 0.1592250
1248.684, 0.2918780
1249.166, 0.1971940
1249.648, 0.1315280
1250.130, 0.2840650
1250.612, 0.5015250
1251.094, 0.5831560
1251.576, 0.5446260
1252.058, 0.4717440
1252.541, 0.3482860
1253.023, 0.3239710
1253.505, 0.4129870
1253.987, 0.4722670
1254.469, 0.4682560
1254.951, 0.4528400
1255.433, 0.4561730
1255.915, 0.4560250
1256.397, 0.4323350
1256.880, 0.3770010
1257.362, 0.2259600
1257.844, 5.8152001E-02
1258.326, 7.2384998E-02
1258.808, 0.1930300
1259.290, 0.1841760
1259.772, 4.8661999E-02
1260.254, 5.1970002E-03
1260.737, 0.2265970
1261.219, 0.3926690
1261.701, 0.1877480
1262.183, 9.0970002E-02
1262.665, 0.5728570
1263.147, 0.9950740
1263.629, 0.7381740
1264.111, 0.2313680
1264.594, 0.1670220
1265.076, 0.4469860
1265.558, 0.3590280
1266.040, 0.3449340
1266.522, 0.4867280
1267.004, 0.1734690
1267.486, 0.5791140
1267.968, 0.4890850
1268.450, 0.3973270
1268.932, 0.5633460
1269.415, 0.7700870
1269.897, 0.7802780
1270.379, 0.6381150
1270.861, 0.3937010
1271.343, 0.1044510
1271.825, 7.6468997E-02
1272.307, 0.1429910
1272.789, 7.0541002E-02
1273.271, 0.1049650
1273.754, 0.2368370
1274.236, 0.2636420
1274.718, 0.3045580
1275.200, 0.4721190
1275.682, 0.6049500
1276.164, 0.5227450
1276.646, 0.4456780
1277.128, 0.6015010
1277.611, 0.8096290
1278.093, 0.8382580
1278.575, 0.7272650
1279.057, 0.5294560
1279.539, 0.5453170
1280.021, 0.4899690
1280.503, 0.1801650
1280.985, 2.0078000E-02
1281.468, 6.8448998E-02
1281.950, 0.1895600
1282.432, 0.3683020
1282.914, 0.4932670
1283.396, 0.3606990
1283.878, 0.1545460
1284.360, 9.5126003E-02
1284.842, 0.1059110
1285.324, 0.0000000E+00
##END=



