##NAMES=Boussingaultite
##RRUFFID=R070597
##IDEAL CHEMISTRY=(NH_4_)_2_Mg(SO_4_)_2_&#183;6H_2_O
##LOCALITY=The Geysers, near Cloverdale, Sonoma County, California, USA
##OWNER=RRUFF
##SOURCE=James Shigley
##DESCRIPTION=Unconsolidated aggregate of transparent to translucent colorless to white grains
##STATUS=The identification of this mineral has been confirmed by single-crystal X-ray diffraction.
##URL=rruff.info/R070597
137.5867, 0.0000000E+00
138.0688, 33.95117
138.5510, 17.44336
139.0331, 12.59570
139.5152, 15.35547
139.9973, 2.855469
140.4794, 35.08594
140.9615, 80.73828
141.4437, 140.6777
141.9258, 216.4102
142.4079, 306.4902
142.8900, 410.4824
143.3721, 515.3145
143.8542, 640.4336
144.3364, 806.4941
144.8185, 1010.676
145.3006, 1221.547
145.7827, 1401.326
146.2648, 1531.844
146.7469, 1705.342
147.2291, 1959.393
147.7112, 2243.391
148.1933, 2502.043
148.6754, 2721.723
149.1575, 2918.973
149.6396, 3114.225
150.1218, 3304.783
150.6039, 3503.066
151.0860, 3739.693
151.5681, 3991.600
152.0502, 4192.916
152.5324, 4313.014
153.0145, 4374.717
153.4966, 4423.205
153.9787, 4459.160
154.4608, 4479.961
154.9429, 4488.412
155.4251, 4485.252
155.9072, 4451.971
156.3893, 4360.869
156.8714, 4243.174
157.3535, 4121.324
157.8356, 3998.322
158.3178, 3879.018
158.7999, 3773.443
159.2820, 3687.793
159.7641, 3599.652
160.2462, 3496.037
160.7283, 3387.570
161.2105, 3286.213
161.6926, 3197.725
162.1747, 3120.133
162.6568, 3048.947
163.1389, 2998.963
163.6210, 2937.086
164.1032, 2833.771
164.5853, 2713.990
165.0674, 2621.002
165.5495, 2592.646
166.0316, 2631.699
166.5137, 2648.650
166.9959, 2617.328
167.4780, 2587.744
167.9601, 2575.533
168.4422, 2580.691
168.9243, 2595.541
169.4064, 2612.672
169.8886, 2631.270
170.3707, 2656.795
170.8528, 2684.836
171.3349, 2721.217
171.8170, 2767.436
172.2991, 2824.605
172.7813, 2896.141
173.2634, 2988.871
173.7455, 3122.322
174.2276, 3234.891
174.7097, 3309.891
175.1918, 3371.488
175.6740, 3442.771
176.1561, 3530.789
176.6382, 3628.422
177.1203, 3725.232
177.6024, 3827.904
178.0845, 3914.875
178.5667, 3974.629
179.0488, 4016.551
179.5309, 4054.180
180.0130, 4088.855
180.4951, 4128.826
180.9772, 4193.080
181.4594, 4290.982
181.9415, 4388.490
182.4236, 4481.547
182.9057, 4566.531
183.3878, 4623.391
183.8699, 4617.938
184.3521, 4576.711
184.8342, 4549.582
185.3163, 4543.215
185.7984, 4533.457
186.2805, 4505.400
186.7626, 4460.379
187.2448, 4394.883
187.7269, 4288.490
188.2090, 4166.561
188.6911, 4064.320
189.1732, 4003.672
189.6553, 3950.566
190.1375, 3856.500
190.6196, 3712.152
191.1017, 3555.830
191.5838, 3396.602
192.0659, 3238.676
192.5480, 3082.945
193.0302, 2924.504
193.5123, 2773.340
193.9944, 2658.131
194.4765, 2595.518
194.9586, 2542.486
195.4408, 2479.838
195.9229, 2413.584
196.4050, 2338.365
196.8871, 2246.182
197.3692, 2141.705
197.8513, 2054.096
198.3335, 1998.301
198.8156, 1943.160
199.2977, 1877.699
199.7798, 1804.939
200.2619, 1730.469
200.7440, 1657.168
201.2262, 1584.578
201.7083, 1527.699
202.1904, 1521.035
202.6725, 1504.158
203.1546, 1452.787
203.6367, 1370.809
204.1189, 1274.463
204.6010, 1178.289
205.0831, 1079.045
205.5652, 1015.102
206.0473, 1014.260
206.5294, 1022.723
207.0116, 1030.725
207.4937, 1028.385
207.9758, 995.3398
208.4579, 902.1621
208.9400, 706.9434
209.4221, 591.2188
209.9043, 602.3379
210.3864, 640.8340
210.8685, 651.1621
211.3506, 623.9258
211.8327, 575.4414
212.3148, 521.9688
212.7970, 439.1641
213.2791, 422.6426
213.7612, 516.3379
214.2433, 641.3496
214.7254, 741.1895
215.2075, 802.8984
215.6897, 838.1133
216.1718, 854.3965
216.6539, 811.5332
217.1360, 825.9531
217.6181, 931.6152
218.1002, 1082.219
218.5824, 1258.994
219.0645, 1456.533
219.5466, 1610.674
220.0287, 1601.510
220.5108, 1364.855
220.9929, 1125.682
221.4751, 893.0000
221.9572, 679.7051
222.4393, 504.7988
222.9214, 373.1777
223.4035, 273.4219
223.8856, 193.8887
224.3678, 130.9805
224.8499, 94.91016
225.3320, 109.5996
225.8141, 149.6582
226.2962, 169.4492
226.7783, 153.8984
227.2605, 111.1094
227.7426, 46.94727
228.2247, 57.34961
228.7068, 127.7949
229.1889, 109.0547
229.6710, 33.78125
230.1532, 14.65039
230.6353, 1.544922
231.1174, 44.74219
231.5995, 72.95312
232.0816, 81.79297
232.5637, 81.49023
233.0459, 75.77148
233.5280, 64.56445
234.0101, 48.57227
234.4922, 31.44336
234.9743, 4.060547
235.4564, 50.42578
235.9386, 145.4453
236.4207, 227.9902
236.9028, 254.0859
237.3849, 231.7559
237.8670, 216.0293
238.3491, 229.6230
238.8313, 258.4805
239.3134, 279.3008
239.7955, 287.8203
240.2776, 299.1602
240.7597, 333.4004
241.2418, 388.1484
241.7240, 421.9531
242.2061, 396.3418
242.6882, 359.0371
243.1703, 372.0879
243.6524, 453.5312
244.1345, 541.8887
244.6167, 583.4004
245.0988, 577.7402
245.5809, 560.1875
246.0630, 532.7207
246.5451, 504.5996
247.0272, 487.9668
247.5094, 488.1875
247.9915, 485.4531
248.4736, 456.1660
248.9557, 398.1133
249.4378, 343.7246
249.9199, 293.9102
250.4021, 258.3223
250.8842, 250.8828
251.3663, 277.8457
251.8484, 313.1699
252.3305, 333.7012
252.8126, 339.8867
253.2948, 327.3379
253.7769, 270.2734
254.2590, 207.3809
254.7411, 169.5039
255.2232, 164.0469
255.7053, 173.2930
256.1875, 182.4004
256.6696, 193.4961
257.1517, 190.4082
257.6338, 158.7695
258.1159, 115.6172
258.5981, 69.47656
259.0802, 21.54492
259.5623, 23.49023
260.0444, 65.05664
260.5265, 107.3320
261.0086, 123.3262
261.4908, 69.50391
261.9729, 7.158203
262.4550, 22.38281
262.9371, 9.705078
263.4192, 21.39648
263.9013, 48.68555
264.3835, 74.05859
264.8656, 84.20117
265.3477, 59.31055
265.8298, 27.83789
266.3119, 8.025391
266.7940, 3.562500
267.2762, 2.902344
267.7583, 10.82617
268.2404, 42.38867
268.7225, 62.11523
269.2046, 60.79102
269.6867, 47.65625
270.1689, 19.60547
270.6510, 22.55664
271.1331, 58.59961
271.6152, 56.82617
272.0973, 6.453125
272.5794, 20.55859
273.0616, 16.41016
273.5437, 61.05469
274.0258, 81.17871
274.5079, 73.07031
274.9900, 57.66895
275.4721, 62.73730
275.9543, 94.71875
276.4364, 106.0713
276.9185, 62.41406
277.4006, 16.21289
277.8827, 5.285156
278.3648, 3.4180000E-02
278.8470, 15.49512
279.3291, 30.57520
279.8112, 47.69141
280.2933, 44.77734
280.7754, 10.57520
281.2575, 63.28418
281.7397, 81.14258
282.2218, 65.95605
282.7039, 46.16602
283.1860, 49.22852
283.6681, 76.91211
284.1502, 103.3379
284.6324, 135.2100
285.1145, 157.6465
285.5966, 152.3301
286.0787, 125.4756
286.5608, 106.0020
287.0429, 133.0762
287.5251, 209.0254
288.0072, 257.5479
288.4893, 246.7822
288.9714, 235.8682
289.4535, 250.4268
289.9356, 288.4648
290.4178, 337.9424
290.8999, 401.0771
291.3820, 475.7061
291.8641, 512.6650
292.3462, 478.4766
292.8283, 444.6777
293.3105, 439.1934
293.7926, 458.3643
294.2747, 491.0654
294.7568, 534.1123
295.2389, 585.5625
295.7210, 632.9268
296.2032, 672.2549
296.6853, 713.5273
297.1674, 771.6016
297.6495, 834.0215
298.1316, 874.5957
298.6137, 865.0938
299.0959, 826.5381
299.5780, 842.7959
300.0601, 959.8711
300.5422, 1048.663
301.0243, 1040.171
301.5064, 978.1338
301.9886, 923.4844
302.4707, 903.2051
302.9528, 909.0801
303.4349, 924.1758
303.9170, 950.3281
304.3991, 981.6318
304.8813, 1024.689
305.3634, 1068.332
305.8455, 1096.001
306.3276, 1095.527
306.8097, 1088.129
307.2918, 1114.918
307.7740, 1189.218
308.2561, 1250.054
308.7382, 1262.633
309.2203, 1256.088
309.7024, 1255.344
310.1845, 1268.333
310.6667, 1283.896
311.1488, 1284.381
311.6309, 1266.288
312.1130, 1259.047
312.5951, 1289.125
313.0772, 1324.294
313.5594, 1332.148
314.0415, 1304.079
314.5236, 1273.962
315.0057, 1279.422
315.4878, 1319.688
315.9699, 1348.789
316.4521, 1357.451
316.9342, 1346.154
317.4163, 1306.784
317.8984, 1237.269
318.3805, 1174.842
318.8626, 1156.390
319.3448, 1178.114
319.8269, 1192.229
320.3090, 1185.128
320.7911, 1165.946
321.2732, 1144.247
321.7553, 1120.184
322.2375, 1093.297
322.7196, 1063.916
323.2017, 1034.486
323.6838, 1004.221
324.1659, 968.3018
324.6480, 938.5283
325.1302, 933.7432
325.6123, 948.0840
326.0944, 953.1797
326.5765, 929.3730
327.0586, 891.5410
327.5407, 863.6885
328.0229, 847.9580
328.5050, 834.1182
328.9871, 815.7676
329.4692, 796.3789
329.9513, 783.1904
330.4334, 789.3525
330.9156, 788.1396
331.3977, 743.3945
331.8798, 656.7803
332.3619, 584.0889
332.8440, 564.7754
333.3261, 589.3486
333.8083, 611.5234
334.2904, 650.1602
334.7725, 674.0918
335.2546, 645.2471
335.7367, 574.0625
336.2188, 519.5303
336.7010, 516.6035
337.1831, 546.3750
337.6652, 550.6279
338.1473, 520.6660
338.6294, 488.1182
339.1115, 451.5322
339.5937, 417.8516
340.0758, 410.3105
340.5579, 442.9883
341.0400, 493.1035
341.5221, 507.9053
342.0042, 465.2041
342.4864, 442.3848
342.9685, 470.6113
343.4506, 519.1641
343.9327, 551.3086
344.4148, 557.0430
344.8969, 546.9717
345.3791, 534.9795
345.8612, 520.1426
346.3433, 501.7129
346.8254, 461.7393
347.3075, 431.5449
347.7896, 445.3125
348.2718, 501.8564
348.7539, 562.9902
349.2360, 589.2080
349.7181, 574.4756
350.2002, 566.2275
350.6823, 562.1123
351.1645, 565.4922
351.6466, 581.6289
352.1287, 607.5449
352.6108, 635.7910
353.0929, 661.1104
353.5750, 683.2891
354.0572, 697.3838
354.5393, 697.2578
355.0214, 696.2598
355.5035, 691.6006
355.9856, 689.1895
356.4677, 699.2715
356.9499, 727.8516
357.4320, 768.3047
357.9141, 798.5371
358.3962, 806.9336
358.8783, 821.6201
359.3604, 865.4414
359.8426, 906.2871
360.3247, 905.9873
360.8068, 854.0498
361.2889, 783.7891
361.7710, 752.7617
362.2531, 778.4238
362.7353, 796.4824
363.2174, 807.6172
363.6995, 806.3672
364.1816, 776.7061
364.6637, 723.3848
365.1458, 679.5342
365.6280, 689.4805
366.1101, 759.4082
366.5922, 798.2979
367.0743, 783.5381
367.5564, 756.9492
368.0385, 736.7227
368.5207, 721.0488
369.0028, 702.4473
369.4849, 677.2520
369.9670, 645.3232
370.4491, 604.7705
370.9312, 550.3564
371.4134, 498.0195
371.8955, 459.2725
372.3776, 426.9043
372.8597, 388.8975
373.3418, 333.6006
373.8239, 280.1465
374.3061, 259.9873
374.7882, 276.7969
375.2703, 292.4385
375.7524, 290.3242
376.2345, 278.8848
376.7166, 269.3867
377.1988, 263.3584
377.6809, 257.4307
378.1630, 252.0000
378.6451, 245.4395
379.1272, 226.9971
379.6093, 184.2383
380.0915, 143.6758
380.5736, 148.7461
381.0557, 202.4590
381.5378, 247.1074
382.0199, 266.2480
382.5020, 264.8281
382.9842, 243.3018
383.4663, 200.6729
383.9484, 157.8662
384.4305, 134.7021
384.9126, 133.0586
385.3947, 138.1709
385.8769, 153.1934
386.3590, 172.0781
386.8411, 206.3359
387.3232, 246.1475
387.8053, 247.0586
388.2874, 169.1641
388.7696, 28.35449
389.2517, 43.19727
389.7338, 6.133789
390.2159, 52.55762
390.6980, 63.54102
391.1801, 52.12402
391.6623, 37.33691
392.1444, 27.15234
392.6265, 21.65918
393.1086, 21.49805
393.5907, 33.41309
394.0728, 40.58008
394.5550, 35.62793
395.0371, 31.09766
395.5192, 41.92188
396.0013, 67.60156
396.4834, 89.81250
396.9655, 84.46094
397.4477, 44.15625
397.9298, 15.88965
398.4119, 4.976563
398.8940, 1.582031
399.3761, 9.250000
399.8582, 22.13867
400.3404, 26.75879
400.8225, 9.517578
401.3046, 21.29199
401.7867, 23.19922
402.2688, 30.07812
402.7509, 63.81250
403.2331, 40.84766
403.7152, 8.137695
404.1973, 49.80957
404.6794, 74.74707
405.1615, 84.09375
405.6436, 84.38184
406.1258, 77.44922
406.6079, 31.81250
407.0900, 115.9238
407.5721, 259.4189
408.0542, 286.6279
408.5363, 187.8096
409.0185, 77.24414
409.5006, 9.564453
409.9827, 18.72363
410.4648, 5.792969
410.9469, 60.13867
411.4290, 129.4004
411.9112, 152.1250
412.3933, 134.8564
412.8754, 110.8281
413.3575, 77.17480
413.8396, 45.07324
414.3217, 24.73242
414.8039, 15.84570
415.2860, 12.37109
415.7681, 10.14844
416.2502, 10.80859
416.7323, 22.21094
417.2144, 45.33789
417.6966, 75.93848
418.1787, 120.7305
418.6608, 170.2568
419.1429, 209.8174
419.6250, 234.4990
420.1071, 249.3564
420.5893, 262.2656
421.0714, 265.7715
421.5535, 283.5195
422.0356, 328.3418
422.5177, 375.9482
422.9998, 415.2393
423.4820, 442.6846
423.9641, 454.2236
424.4462, 441.1260
424.9283, 403.0967
425.4104, 396.0381
425.8925, 443.3154
426.3747, 498.2998
426.8568, 544.4961
427.3389, 592.2373
427.8210, 660.9150
428.3031, 763.0273
428.7852, 878.3828
429.2674, 958.6152
429.7495, 987.0020
430.2316, 1039.943
430.7137, 1164.471
431.1958, 1304.214
431.6779, 1426.040
432.1601, 1524.531
432.6422, 1600.709
433.1243, 1644.973
433.6064, 1664.393
434.0885, 1692.234
434.5706, 1733.281
435.0528, 1781.143
435.5349, 1823.847
436.0170, 1866.799
436.4991, 1933.952
436.9812, 2040.485
437.4633, 2169.602
437.9455, 2309.124
438.4276, 2458.115
438.9097, 2605.487
439.3918, 2741.662
439.8739, 2873.761
440.3560, 3028.162
440.8382, 3214.438
441.3203, 3406.073
441.8024, 3586.623
442.2845, 3771.185
442.7666, 3983.099
443.2487, 4227.063
443.7309, 4488.272
444.2130, 4741.732
444.6951, 4976.074
445.1772, 5240.770
445.6593, 5550.625
446.1414, 5872.861
446.6236, 6201.008
447.1057, 6525.586
447.5878, 6829.737
448.0699, 7093.916
448.5520, 7331.023
449.0341, 7612.994
449.5163, 7992.025
449.9984, 8333.704
450.4805, 8627.192
450.9626, 8867.743
451.4447, 9039.157
451.9268, 9137.171
452.4090, 9201.146
452.8911, 9273.943
453.3732, 9354.997
453.8553, 9431.935
454.3374, 9512.966
454.8195, 9574.521
455.3017, 9595.284
455.7838, 9583.829
456.2659, 9573.964
456.7480, 9602.122
457.2301, 9628.405
457.7122, 9598.039
458.1944, 9510.736
458.6765, 9370.446
459.1586, 9162.323
459.6407, 8903.800
460.1229, 8660.153
460.6050, 8458.353
461.0871, 8231.719
461.5692, 7946.947
462.0513, 7619.162
462.5334, 7266.742
463.0156, 6893.724
463.4977, 6518.494
463.9798, 6169.693
464.4619, 5862.646
464.9440, 5543.498
465.4261, 5190.334
465.9083, 4844.471
466.3904, 4516.293
466.8725, 4212.192
467.3546, 3953.014
467.8367, 3758.133
468.3188, 3610.457
468.8010, 3421.773
469.2831, 3149.969
469.7652, 2901.878
470.2473, 2674.454
470.7294, 2486.000
471.2115, 2378.639
471.6937, 2358.782
472.1758, 2354.043
472.6579, 2285.844
473.1400, 2154.718
473.6221, 2007.162
474.1042, 1833.004
474.5864, 1665.026
475.0685, 1525.761
475.5506, 1409.596
476.0327, 1298.910
476.5148, 1196.161
476.9969, 1090.646
477.4791, 953.2803
477.9612, 788.5322
478.4433, 667.0850
478.9254, 633.9170
479.4075, 655.2480
479.8896, 650.0488
480.3718, 608.1699
480.8539, 568.6191
481.3360, 551.4375
481.8181, 537.0762
482.3002, 497.5693
482.7823, 430.2148
483.2645, 360.9688
483.7466, 316.8711
484.2287, 300.3438
484.7108, 281.6230
485.1929, 267.2217
485.6750, 243.5684
486.1572, 195.5840
486.6393, 138.2070
487.1214, 92.79883
487.6035, 68.98828
488.0856, 62.26562
488.5677, 69.17188
489.0499, 98.57520
489.5320, 110.5449
490.0141, 75.69336
490.4962, 40.11914
490.9783, 31.27344
491.4604, 47.76367
491.9426, 69.32227
492.4247, 93.99805
492.9068, 112.8301
493.3889, 95.94141
493.8710, 34.84766
494.3531, 16.12793
494.8353, 28.78027
495.3174, 8.235352
495.7995, 31.88477
496.2816, 117.7432
496.7637, 176.5186
497.2458, 146.4189
497.7280, 72.55566
498.2101, 40.24023
498.6922, 71.87012
499.1743, 118.0371
499.6564, 116.3184
500.1385, 48.85840
500.6207, 26.33301
501.1028, 92.71387
501.5849, 153.6602
502.0670, 160.0439
502.5491, 129.7529
503.0313, 104.7578
503.5134, 107.9883
503.9955, 124.3438
504.4776, 113.2275
504.9597, 55.85059
505.4418, 18.20703
505.9240, 26.67969
506.4061, 43.63770
506.8882, 47.47070
507.3703, 37.00098
507.8524, 22.11328
508.3345, 10.56152
508.8167, 0.1367190
509.2988, 20.23926
509.7809, 53.34375
510.2630, 79.92480
510.7451, 88.34570
511.2272, 82.35156
511.7094, 70.00879
512.1915, 44.45996
512.6736, 26.08594
513.1557, 36.68652
513.6378, 58.25488
514.1199, 53.98340
514.6021, 14.95996
515.0842, 28.20605
515.5663, 40.26562
516.0484, 14.94141
516.5305, 1.130859
517.0126, 2.813477
517.4948, 2.397461
517.9769, 1.956055
518.4590, 3.326172
518.9411, 11.25098
519.4232, 28.21289
519.9053, 45.59180
520.3875, 44.84473
520.8696, 20.60938
521.3517, 3.537109
521.8338, 33.71289
522.3159, 55.40723
522.7980, 52.63672
523.2802, 31.36230
523.7623, 18.14258
524.2444, 29.86816
524.7265, 58.11816
525.2086, 99.20410
525.6907, 155.3281
526.1729, 173.1074
526.6550, 104.2930
527.1371, 1.986328
527.6192, 38.38574
528.1013, 17.68555
528.5834, 75.84375
529.0656, 122.7354
529.5477, 151.5234
530.0298, 142.4180
530.5119, 98.81738
530.9940, 61.32129
531.4761, 68.76270
531.9583, 118.0596
532.4404, 133.3613
532.9225, 65.64844
533.4046, 19.89453
533.8867, 30.18457
534.3688, 62.33984
534.8510, 75.79980
535.3331, 59.93750
535.8152, 42.23047
536.2973, 62.80957
536.7794, 121.3545
537.2615, 154.8652
537.7437, 155.2715
538.2258, 136.9941
538.7079, 92.65234
539.1900, 38.10547
539.6721, 9.805664
540.1542, 33.83105
540.6364, 64.95020
541.1185, 55.83789
541.6006, 21.73145
542.0827, 18.81836
542.5648, 69.61426
543.0469, 131.9941
543.5291, 145.5303
544.0112, 89.56348
544.4933, 62.82129
544.9754, 86.29688
545.4575, 118.3262
545.9396, 140.1035
546.4218, 152.5859
546.9039, 163.6143
547.3860, 177.6387
547.8681, 189.2383
548.3502, 185.4121
548.8323, 162.3760
549.3145, 134.7744
549.7966, 84.84082
550.2787, 46.81152
550.7608, 44.70020
551.2429, 73.87402
551.7250, 108.3838
552.2072, 135.3252
552.6893, 157.1045
553.1714, 181.4756
553.6535, 208.4902
554.1356, 220.9219
554.6177, 206.7588
555.0999, 178.9248
555.5820, 161.9668
556.0641, 154.3838
556.5462, 158.1689
557.0283, 189.8975
557.5104, 221.8418
557.9926, 222.8750
558.4747, 197.5801
558.9568, 177.4023
559.4389, 186.3418
559.9210, 217.0176
560.4031, 233.2100
560.8853, 231.4004
561.3674, 219.8555
561.8495, 182.2881
562.3316, 148.8750
562.8137, 143.9434
563.2958, 169.2324
563.7780, 209.6367
564.2601, 273.2100
564.7422, 341.9072
565.2243, 351.0225
565.7064, 289.5342
566.1885, 224.4805
566.6707, 184.7793
567.1528, 167.7637
567.6349, 166.8115
568.1170, 194.2979
568.5991, 210.7451
569.0812, 190.5830
569.5634, 160.2031
570.0455, 155.4941
570.5276, 177.6143
571.0097, 196.4102
571.4918, 185.3906
571.9739, 150.0635
572.4561, 138.0107
572.9382, 168.0439
573.4203, 193.7754
573.9024, 208.7480
574.3845, 216.0430
574.8666, 219.8477
575.3488, 220.8682
575.8309, 216.8037
576.3130, 202.1240
576.7951, 179.5918
577.2772, 159.8369
577.7593, 140.4951
578.2415, 136.4326
578.7236, 168.3711
579.2057, 218.9297
579.6878, 243.6211
580.1699, 223.9863
580.6520, 213.4756
581.1342, 242.8945
581.6163, 287.6270
582.0984, 321.3574
582.5805, 338.2959
583.0626, 335.3779
583.5447, 306.0703
584.0269, 253.7910
584.5090, 224.6953
584.9911, 221.7197
585.4732, 237.6982
585.9553, 290.9766
586.4374, 354.5176
586.9196, 410.7910
587.4017, 454.7354
587.8838, 481.9795
588.3659, 470.5635
588.8480, 438.3369
589.3301, 457.9932
589.8123, 543.4131
590.2944, 620.1846
590.7765, 642.1045
591.2586, 628.7549
591.7407, 631.4561
592.2228, 652.8555
592.7050, 683.6748
593.1871, 734.5244
593.6692, 785.5439
594.1513, 804.0547
594.6334, 794.2529
595.1155, 799.5625
595.5977, 857.2803
596.0798, 957.7686
596.5619, 1035.076
597.0440, 1063.464
597.5261, 1113.233
598.0082, 1208.901
598.4904, 1318.738
598.9725, 1414.804
599.4546, 1495.919
599.9367, 1586.045
600.4188, 1708.600
600.9009, 1849.204
601.3831, 1973.396
601.8652, 2079.278
602.3473, 2199.301
602.8294, 2354.701
603.3115, 2529.280
603.7936, 2685.659
604.2758, 2806.598
604.7579, 2954.836
605.2400, 3152.800
605.7221, 3370.820
606.2042, 3593.239
606.6863, 3811.160
607.1685, 4005.342
607.6506, 4158.589
608.1327, 4294.769
608.6148, 4492.375
609.0969, 4783.381
609.5790, 5034.312
610.0612, 5189.992
610.5433, 5328.137
611.0254, 5513.457
611.5075, 5732.744
611.9896, 5911.171
612.4717, 6016.096
612.9539, 6066.269
613.4360, 6070.220
613.9181, 6034.787
614.4002, 5991.533
614.8823, 5953.031
615.3644, 5904.600
615.8466, 5823.635
616.3287, 5705.074
616.8108, 5570.707
617.2929, 5383.529
617.7750, 5221.657
618.2571, 5122.113
618.7393, 5070.184
619.2214, 5037.854
619.7035, 5015.484
620.1856, 5011.032
620.6677, 5039.699
621.1498, 5102.191
621.6320, 5145.822
622.1141, 5148.199
622.5962, 5166.784
623.0783, 5254.784
623.5604, 5391.490
624.0425, 5523.998
624.5247, 5672.389
625.0068, 5781.158
625.4889, 5824.127
625.9710, 5812.318
626.4531, 5760.172
626.9352, 5670.937
627.4174, 5540.836
627.8995, 5369.328
628.3816, 5156.912
628.8637, 4923.779
629.3458, 4673.176
629.8279, 4398.820
630.3101, 4075.855
630.7922, 3745.370
631.2743, 3439.617
631.7564, 3163.994
632.2385, 2915.082
632.7206, 2695.053
633.2028, 2497.311
633.6849, 2309.252
634.1670, 2131.909
634.6491, 1974.186
635.1312, 1845.750
635.6133, 1733.430
636.0955, 1609.468
636.5776, 1470.394
637.0597, 1333.240
637.5418, 1186.030
638.0239, 1052.440
638.5060, 938.3027
638.9882, 848.8027
639.4703, 798.9902
639.9524, 799.9805
640.4345, 818.7734
640.9166, 803.0068
641.3987, 752.1875
641.8809, 686.9482
642.3630, 597.3203
642.8451, 516.3730
643.3272, 479.4395
643.8093, 473.8252
644.2914, 461.3770
644.7736, 428.0742
645.2557, 398.5225
645.7378, 389.3389
646.2199, 389.0342
646.7020, 382.2041
647.1841, 365.4951
647.6663, 340.8896
648.1484, 312.4219
648.6305, 280.0020
649.1126, 236.2891
649.5947, 158.2959
650.0768, 111.3506
650.5590, 144.6143
651.0411, 193.5664
651.5232, 198.3447
652.0053, 153.8027
652.4874, 108.9697
652.9695, 86.84473
653.4517, 81.14648
653.9338, 93.06738
654.4159, 117.6592
654.8980, 122.9980
655.3801, 90.43164
655.8622, 46.88965
656.3444, 44.33887
656.8265, 109.5742
657.3086, 142.5049
657.7907, 127.4658
658.2728, 100.8818
658.7549, 60.97363
659.2371, 24.61328
659.7192, 23.25000
660.2013, 72.26465
660.6834, 129.4141
661.1655, 152.4199
661.6476, 143.7734
662.1298, 104.8008
662.6119, 26.65625
663.0940, 31.08398
663.5761, 17.32031
664.0582, 50.20996
664.5403, 84.93848
665.0225, 68.01172
665.5046, 49.29199
665.9867, 26.57715
666.4688, 12.22754
666.9509, 25.05371
667.4330, 58.52441
667.9152, 85.21094
668.3973, 85.99121
668.8794, 69.13770
669.3615, 53.27246
669.8436, 38.36914
670.3257, 24.25977
670.8079, 11.19629
671.2900, 1.233398
671.7721, 17.50781
672.2542, 35.54004
672.7363, 39.81934
673.2184, 21.45703
673.7006, 3.974609
674.1827, 36.71094
674.6648, 68.51172
675.1469, 89.87500
675.6290, 97.45312
676.1111, 86.53516
676.5933, 44.76953
677.0754, 22.67090
677.5575, 46.83496
678.0396, 7.971680
678.5217, 29.32617
679.0038, 46.82715
679.4860, 51.49316
679.9681, 47.85938
680.4502, 36.21973
680.9323, 21.01367
681.4144, 1.370117
681.8965, 22.31836
682.3787, 32.86621
682.8608, 34.95508
683.3429, 36.97070
683.8250, 42.44531
684.3071, 39.70508
684.7892, 3.279297
685.2714, 81.22852
685.7535, 110.7812
686.2356, 31.92480
686.7177, 31.71973
687.1998, 21.89648
687.6819, 19.93164
688.1641, 39.99805
688.6462, 26.31641
689.1283, 6.713867
689.6104, 6.541992
690.0925, 13.03320
690.5746, 7.133789
691.0568, 8.468750
691.5389, 14.98828
692.0210, 0.5273440
692.5031, 22.75293
692.9852, 26.06250
693.4673, 4.209961
693.9495, 21.67090
694.4316, 20.14746
694.9137, 12.35254
695.3958, 2.406250
695.8779, 18.47363
696.3600, 27.04883
696.8422, 25.54492
697.3243, 15.91797
697.8064, 8.659180
698.2885, 38.12891
698.7706, 48.73730
699.2527, 38.29590
699.7349, 21.41211
700.2170, 5.747070
700.6991, 6.316406
701.1812, 6.660156
701.6633, 9.031250
702.1454, 28.92285
702.6276, 71.59766
703.1097, 100.3945
703.5918, 76.83203
704.0739, 24.39453
704.5560, 1.992188
705.0381, 43.02148
705.5203, 98.53027
706.0024, 118.4766
706.4845, 112.0957
706.9666, 104.4619
707.4487, 99.65234
707.9308, 96.99023
708.4130, 95.77246
708.8951, 96.37305
709.3772, 101.1035
709.8593, 120.9736
710.3414, 128.3164
710.8235, 112.5156
711.3057, 92.18359
711.7878, 75.09961
712.2699, 63.99512
712.7520, 63.01562
713.2341, 75.71973
713.7162, 95.84473
714.1984, 124.2217
714.6805, 154.4473
715.1626, 158.7803
715.6447, 130.1748
716.1268, 102.4990
716.6089, 105.8301
717.0911, 135.1650
717.5732, 153.7852
718.0553, 161.2939
718.5374, 157.7617
719.0195, 121.7393
719.5016, 93.07520
719.9838, 107.6406
720.4659, 156.4160
720.9480, 200.1885
721.4301, 228.5986
721.9122, 236.3232
722.3943, 202.7764
722.8765, 141.4941
723.3586, 100.1250
723.8407, 88.93750
724.3228, 92.01074
724.8049, 97.73242
725.2870, 105.1035
725.7692, 105.2832
726.2513, 84.25293
726.7334, 76.75098
727.2155, 101.0195
727.6976, 126.1475
728.1797, 122.6943
728.6619, 98.72949
729.1440, 89.79785
729.6261, 120.4043
730.1082, 158.8242
730.5903, 173.3037
731.0724, 170.7324
731.5546, 165.8457
732.0367, 160.4688
732.5188, 152.1006
733.0009, 136.4668
733.4830, 116.8652
733.9651, 117.1777
734.4473, 155.6543
734.9294, 181.2432
735.4115, 191.3340
735.8936, 189.7324
736.3757, 160.4521
736.8578, 115.3379
737.3400, 96.46191
737.8221, 141.4668
738.3042, 184.8408
738.7863, 154.8857
739.2684, 85.16699
739.7505, 46.77344
740.2327, 51.66602
740.7148, 70.20898
741.1969, 79.66797
741.6790, 81.37793
742.1611, 82.58398
742.6432, 84.74121
743.1254, 88.54980
743.6075, 89.53613
744.0896, 95.46289
744.5717, 117.3379
745.0538, 148.8154
745.5359, 163.2666
746.0181, 145.1680
746.5002, 117.5391
746.9823, 81.92090
747.4644, 50.85938
747.9465, 53.79199
748.4286, 87.76953
748.9108, 112.4453
749.3929, 97.69629
749.8750, 58.99316
750.3571, 38.36719
750.8392, 40.03320
751.3214, 51.05957
751.8035, 77.22461
752.2856, 98.06934
752.7677, 96.19434
753.2498, 79.35059
753.7319, 64.84375
754.2141, 54.71191
754.6962, 48.64941
755.1783, 47.99707
755.6604, 51.77051
756.1425, 62.18457
756.6246, 74.34668
757.1068, 72.95215
757.5889, 48.42676
758.0710, 17.08984
758.5531, 5.752930
759.0352, 14.96484
759.5173, 40.19141
759.9995, 90.04590
760.4816, 123.7510
760.9637, 106.7344
761.4458, 58.91895
761.9279, 45.93652
762.4100, 85.76074
762.8922, 114.7646
763.3743, 114.7168
763.8564, 110.5225
764.3385, 119.4404
764.8206, 135.9229
765.3027, 150.4639
765.7849, 156.8154
766.2670, 148.7285
766.7491, 102.2158
767.2312, 37.90234
767.7133, 32.43848
768.1954, 90.04688
768.6776, 126.1699
769.1597, 94.12598
769.6418, 35.87012
770.1239, 26.59570
770.6060, 84.50195
771.0881, 125.1074
771.5703, 110.3301
772.0524, 121.5566
772.5345, 231.1396
773.0166, 354.9404
773.4987, 381.3467
773.9808, 295.0957
774.4630, 204.8887
774.9451, 172.9863
775.4272, 170.7314
775.9093, 169.1309
776.3914, 167.5537
776.8735, 168.1484
777.3557, 171.5635
777.8378, 174.1992
778.3199, 169.5898
778.8020, 158.6523
779.2841, 169.0928
779.7662, 221.3135
780.2484, 250.4482
780.7305, 216.3516
781.2126, 169.7520
781.6947, 159.1172
782.1768, 180.2803
782.6589, 192.7344
783.1411, 171.5605
783.6232, 157.4609
784.1053, 184.1299
784.5874, 222.7754
785.0695, 235.3652
785.5516, 218.8662
786.0338, 195.1260
786.5159, 178.9307
786.9980, 167.8984
787.4801, 156.3955
787.9622, 144.2871
788.4443, 135.7588
788.9265, 133.8271
789.4086, 126.7617
789.8907, 96.73047
790.3728, 55.15918
790.8549, 54.72070
791.3370, 101.9062
791.8192, 178.6553
792.3013, 336.5840
792.7834, 473.7002
793.2655, 527.2959
793.7476, 509.7949
794.2297, 448.9873
794.7119, 348.7031
795.1940, 247.7734
795.6761, 170.4717
796.1582, 120.7324
796.6403, 119.6123
797.1224, 160.1807
797.6046, 189.0029
798.0867, 180.2686
798.5688, 151.3467
799.0509, 132.1729
799.5330, 126.0107
800.0151, 104.1553
800.4973, 46.58496
800.9794, 6.718750
801.4615, 15.15625
801.9436, 44.97168
802.4257, 73.82617
802.9078, 100.7852
803.3900, 116.6592
803.8721, 116.5176
804.3542, 106.5439
804.8363, 80.90332
805.3184, 51.88086
805.8005, 36.63477
806.2827, 40.47266
806.7648, 57.89355
807.2469, 94.48145
807.7290, 133.0410
808.2111, 114.0215
808.6932, 40.17188
809.1754, 1.424805
809.6575, 24.13672
810.1396, 58.49316
810.6217, 60.79883
811.1038, 37.13965
811.5859, 27.85449
812.0681, 44.08203
812.5502, 58.62109
813.0323, 74.58496
813.5144, 84.96094
813.9965, 81.61133
814.4786, 69.91602
814.9608, 61.24316
815.4429, 58.73145
815.9250, 61.29980
816.4071, 83.12305
816.8892, 100.9580
817.3713, 66.77441
817.8535, 4.177734
818.3356, 42.69141
818.8177, 16.89551
819.2998, 38.20312
819.7819, 76.02441
820.2640, 96.64258
820.7462, 93.83984
821.2283, 61.07324
821.7104, 26.00684
822.1925, 10.13770
822.6746, 33.41797
823.1567, 15.06934
823.6389, 51.47461
824.1210, 86.98340
824.6031, 53.43262
825.0852, 32.86816
825.5673, 72.11719
826.0494, 122.2920
826.5316, 131.8184
827.0137, 100.2148
827.4958, 59.33496
827.9779, 15.60742
828.4600, 11.38379
828.9421, 21.31543
829.4243, 83.84766
829.9064, 98.96973
830.3885, 58.36230
830.8707, 5.944336
831.3528, 32.07812
831.8349, 49.66309
832.3170, 22.02734
832.7991, 68.48047
833.2813, 114.0117
833.7634, 90.91211
834.2455, 55.51172
834.7276, 25.59570
835.2097, 6.728516
835.6918, 15.22461
836.1740, 64.92188
836.6561, 85.68848
837.1382, 35.06445
837.6203, 13.11035
838.1024, 18.52441
838.5845, 2.018555
839.0667, 28.45996
839.5488, 53.81738
840.0309, 68.62598
840.5130, 59.64258
840.9951, 40.61914
841.4772, 29.45215
841.9594, 26.02344
842.4415, 34.04199
842.9236, 53.86328
843.4057, 66.79004
843.8878, 54.54883
844.3699, 25.81250
844.8521, 15.53613
845.3342, 26.52539
845.8163, 48.80762
846.2984, 98.81348
846.7805, 133.6348
847.2626, 114.6465
847.7448, 62.93262
848.2269, 25.52930
848.7090, 2.799805
849.1911, 3.274414
849.6732, 16.70117
850.1553, 44.70215
850.6375, 78.49512
851.1196, 109.1611
851.6017, 124.5273
852.0838, 121.8252
852.5659, 109.3975
853.0480, 82.55566
853.5302, 57.13086
854.0123, 67.77441
854.4944, 101.5332
854.9765, 112.1582
855.4586, 88.54980
855.9407, 58.43945
856.4229, 47.17090
856.9050, 51.36133
857.3871, 56.12402
857.8692, 60.94336
858.3513, 70.70898
858.8334, 95.63965
859.3156, 109.8604
859.7977, 83.58789
860.2798, 30.84180
860.7619, 2.088867
861.2440, 7.669922
861.7261, 15.01465
862.2083, 29.90625
862.6904, 36.50293
863.1725, 8.111328
863.6546, 27.52148
864.1367, 19.26660
864.6188, 43.56641
865.1010, 101.9209
865.5831, 115.4336
866.0652, 105.5439
866.5473, 91.05859
867.0294, 76.88477
867.5115, 65.68457
867.9937, 56.82324
868.4758, 58.18848
868.9579, 82.89648
869.4400, 118.3945
869.9221, 113.5732
870.4042, 63.37500
870.8864, 42.83691
871.3685, 72.03223
871.8506, 104.9902
872.3327, 110.4463
872.8148, 99.14551
873.2969, 98.95410
873.7791, 112.5586
874.2612, 123.1396
874.7433, 133.6035
875.2254, 140.7383
875.7075, 138.5986
876.1896, 130.4307
876.6718, 125.9258
877.1539, 125.2031
877.6360, 125.7559
878.1181, 123.6953
878.6002, 124.5039
879.0823, 143.1582
879.5645, 162.9121
880.0466, 151.3115
880.5287, 109.3311
881.0108, 75.04492
881.4929, 71.93750
881.9750, 86.93750
882.4572, 102.7383
882.9393, 119.4629
883.4214, 141.1611
883.9035, 167.7842
884.3856, 182.8193
884.8677, 176.2217
885.3499, 154.6992
885.8320, 126.6348
886.3141, 85.44727
886.7962, 84.10840
887.2783, 154.7627
887.7604, 197.7705
888.2426, 158.8770
888.7247, 94.30762
889.2068, 64.84375
889.6889, 69.27246
890.1710, 76.52344
890.6531, 95.17578
891.1353, 99.28125
891.6174, 58.77148
892.0995, 20.74805
892.5816, 33.21777
893.0637, 81.88477
893.5458, 119.5732
894.0280, 127.9160
894.5101, 126.2354
894.9922, 122.9990
895.4743, 121.7383
895.9564, 134.0371
896.4385, 155.1162
896.9207, 164.0098
897.4028, 153.7744
897.8849, 136.8955
898.3670, 126.4326
898.8491, 120.5430
899.3312, 111.0430
899.8134, 98.02344
900.2955, 91.37988
900.7776, 94.16211
901.2597, 100.4561
901.7418, 107.0957
902.2239, 111.8838
902.7061, 104.6494
903.1882, 76.50879
903.6703, 58.66504
904.1524, 59.05957
904.6345, 60.94336
905.1166, 52.13770
905.5988, 41.76562
906.0809, 47.73828
906.5630, 75.63281
907.0451, 84.77344
907.5272, 45.73047
908.0093, 13.47461
908.4915, 17.10352
908.9736, 37.07422
909.4557, 59.17090
909.9378, 76.60938
910.4199, 74.64062
910.9020, 34.76074
911.3842, 4.266602
911.8663, 2.920898
912.3484, 20.04590
912.8305, 36.17871
913.3126, 44.68359
913.7947, 59.66309
914.2769, 87.84570
914.7590, 110.8076
915.2411, 98.76660
915.7232, 59.54004
916.2053, 24.37793
916.6874, 6.223633
917.1696, 3.622070
917.6517, 46.03516
918.1338, 100.7871
918.6159, 121.1240
919.0980, 110.9941
919.5801, 90.82422
920.0623, 47.99219
920.5444, 32.51270
921.0265, 66.32617
921.5086, 100.9238
921.9907, 118.8223
922.4728, 119.8389
922.9550, 97.94141
923.4371, 45.32910
923.9192, 0.4277340
924.4013, 46.20605
924.8834, 72.44824
925.3655, 56.75098
925.8477, 27.46289
926.3298, 15.95117
926.8119, 22.03809
927.2940, 22.17773
927.7761, 3.807617
928.2582, 17.86133
928.7404, 44.00684
929.2225, 61.19629
929.7046, 40.43750
930.1867, 3.784180
930.6688, 23.79297
931.1509, 0.4794920
931.6331, 32.85059
932.1152, 25.59766
932.5973, 1.867188
933.0794, 24.73340
933.5615, 81.44336
934.0436, 99.83203
934.5258, 61.39258
935.0079, 13.84082
935.4900, 2.691406
935.9721, 6.929688
936.4542, 35.65234
936.9363, 86.90820
937.4185, 102.8633
937.9006, 68.82910
938.3827, 32.98438
938.8648, 19.03027
939.3469, 21.73438
939.8290, 34.10449
940.3112, 59.97754
940.7933, 71.53906
941.2754, 57.55957
941.7575, 46.62793
942.2396, 47.53320
942.7217, 52.40527
943.2039, 52.11523
943.6860, 49.88379
944.1681, 61.33789
944.6502, 109.0645
945.1323, 135.1934
945.6144, 98.16699
946.0966, 65.73145
946.5787, 93.94824
947.0608, 151.1777
947.5429, 179.8105
948.0250, 168.1729
948.5071, 158.8730
948.9893, 172.2305
949.4714, 199.1572
949.9535, 254.6221
950.4356, 307.9443
950.9177, 294.5020
951.3998, 226.7168
951.8820, 193.4609
952.3641, 248.4053
952.8462, 329.6572
953.3283, 356.3750
953.8104, 352.6992
954.2925, 378.4932
954.7747, 430.2383
955.2568, 468.3330
955.7389, 478.8594
956.2210, 488.1152
956.7031, 525.7607
957.1852, 583.4570
957.6674, 629.2783
958.1495, 662.8232
958.6316, 693.4600
959.1137, 718.9648
959.5958, 769.8008
960.0779, 871.2998
960.5601, 998.7939
961.0422, 1094.544
961.5243, 1148.750
962.0064, 1231.479
962.4885, 1358.438
962.9706, 1478.435
963.4528, 1569.015
963.9349, 1655.232
964.4170, 1760.278
964.8991, 1882.682
965.3812, 2007.834
965.8633, 2147.940
966.3455, 2271.896
966.8276, 2340.537
967.3097, 2433.452
967.7918, 2583.631
968.2739, 2790.736
968.7560, 3042.128
969.2382, 3331.079
969.7203, 3688.696
970.2024, 4097.139
970.6845, 4614.209
971.1666, 5213.101
971.6487, 5970.270
972.1309, 6933.365
972.6130, 8128.928
973.0951, 9602.631
973.5772, 11386.80
974.0593, 13403.08
974.5414, 15619.45
975.0236, 18039.09
975.5057, 20565.56
975.9878, 23328.40
976.4699, 26541.83
976.9520, 30279.81
977.4341, 34582.24
977.9163, 39490.82
978.3984, 44970.46
978.8805, 50905.99
979.3626, 57358.58
979.8447, 64489.76
980.3268, 72302.22
980.8090, 80986.67
981.2911, 90705.62
981.7732, 99767.46
982.2553, 106979.4
982.7374, 111589.8
983.2195, 109468.0
983.7017, 100853.8
984.1838, 89582.88
984.6659, 76298.84
985.1480, 63303.51
985.6301, 52207.99
986.1122, 42886.36
986.5944, 35140.83
987.0765, 29033.97
987.5586, 23719.41
988.0407, 19203.41
988.5228, 15477.37
989.0049, 12600.84
989.4871, 10375.12
989.9692, 8594.843
990.4513, 7249.379
990.9334, 6151.853
991.4155, 5368.704
991.8976, 4680.601
992.3798, 4058.577
992.8619, 3546.410
993.3440, 3208.692
993.8261, 2974.864
994.3082, 2713.592
994.7903, 2408.852
995.2725, 2161.890
995.7546, 2006.974
996.2367, 1865.291
996.7188, 1718.564
997.2009, 1581.040
997.6830, 1465.686
998.1652, 1369.094
998.6473, 1282.561
999.1294, 1212.298
999.6115, 1130.035
1000.094, 1009.739
1000.576, 897.1475
1001.058, 810.4072
1001.540, 747.5801
1002.022, 715.0225
1002.504, 705.2363
1002.986, 679.4287
1003.468, 611.2100
1003.951, 544.9141
1004.433, 508.2480
1004.915, 481.2031
1005.397, 444.1602
1005.879, 402.5684
1006.361, 371.2783
1006.843, 353.5488
1007.325, 337.5615
1007.807, 314.5293
1008.290, 290.7305
1008.772, 267.0654
1009.254, 249.4414
1009.736, 257.0498
1010.218, 279.8916
1010.700, 278.1553
1011.182, 233.7607
1011.664, 182.0098
1012.147, 163.0039
1012.629, 156.8398
1013.111, 127.0283
1013.593, 83.10059
1014.075, 52.21680
1014.557, 38.85840
1015.039, 30.57227
1015.521, 19.47168
1016.003, 8.605469
1016.486, 2.7344000E-02
1016.968, 4.102539
1017.450, 11.79004
1017.932, 42.46582
1018.414, 49.98730
1018.896, 23.08496
1019.378, 9.910156
1019.860, 24.00879
1020.343, 25.34570
1020.825, 29.80176
1021.307, 36.73926
1021.789, 38.25781
1022.271, 33.65234
1022.753, 26.76562
1023.235, 18.94922
1023.717, 10.90332
1024.199, 0.5458980
1024.682, 8.146484
1025.164, 17.76270
1025.646, 83.45508
1026.128, 112.8096
1026.610, 88.43750
1027.092, 62.82227
1027.574, 66.53223
1028.056, 83.74316
1028.538, 86.41211
1029.021, 73.96094
1029.503, 73.70508
1029.985, 94.18164
1030.467, 89.71973
1030.949, 39.13965
1031.431, 7.684570
1031.913, 10.37012
1032.395, 11.98438
1032.878, 8.038086
1033.360, 31.81641
1033.842, 52.04297
1034.324, 37.91113
1034.806, 37.90918
1035.288, 71.96973
1035.770, 115.5840
1036.252, 145.4707
1036.734, 166.7295
1037.217, 203.3018
1037.699, 272.9971
1038.181, 317.0840
1038.663, 307.0732
1039.145, 315.0068
1039.627, 377.0693
1040.109, 459.7832
1040.591, 533.0557
1041.073, 596.3623
1041.556, 646.4561
1042.038, 687.7637
1042.520, 708.8262
1043.002, 693.2959
1043.484, 675.8662
1043.966, 681.7842
1044.448, 687.7275
1044.930, 656.7363
1045.413, 588.0791
1045.895, 540.1963
1046.377, 539.5498
1046.859, 526.9941
1047.341, 485.6953
1047.823, 439.1133
1048.305, 386.7354
1048.787, 344.3418
1049.270, 341.5166
1049.752, 383.6768
1050.234, 418.5449
1050.716, 429.0098
1051.198, 443.8994
1051.680, 477.8691
1052.162, 512.0176
1052.644, 519.4238
1053.126, 521.1758
1053.609, 568.6768
1054.091, 678.0449
1054.573, 759.9326
1055.055, 779.1611
1055.537, 785.1885
1056.019, 778.6133
1056.501, 781.9756
1056.983, 815.5977
1057.465, 874.3301
1057.948, 943.2305
1058.430, 1021.301
1058.912, 1099.580
1059.394, 1185.997
1059.876, 1258.874
1060.358, 1300.193
1060.840, 1329.662
1061.322, 1362.763
1061.805, 1402.103
1062.287, 1451.261
1062.769, 1517.638
1063.251, 1568.220
1063.733, 1573.635
1064.215, 1579.009
1064.697, 1624.614
1065.179, 1673.464
1065.661, 1672.123
1066.144, 1632.496
1066.626, 1623.988
1067.108, 1687.723
1067.590, 1722.626
1068.072, 1657.431
1068.554, 1582.688
1069.036, 1566.467
1069.518, 1569.190
1070.000, 1531.233
1070.483, 1456.563
1070.965, 1402.132
1071.447, 1398.362
1071.929, 1389.274
1072.411, 1343.640
1072.893, 1289.974
1073.375, 1248.711
1073.857, 1212.062
1074.340, 1160.006
1074.822, 1097.264
1075.304, 1061.888
1075.786, 1087.439
1076.268, 1098.831
1076.750, 1048.259
1077.232, 982.1729
1077.714, 922.0977
1078.197, 877.6494
1078.679, 867.9512
1079.161, 887.4414
1079.643, 888.8672
1080.125, 835.6621
1080.607, 796.6689
1081.089, 821.0635
1081.571, 855.5820
1082.053, 859.7500
1082.536, 846.2861
1083.018, 827.9004
1083.500, 809.5801
1083.982, 821.2119
1084.464, 903.2305
1084.946, 974.9844
1085.428, 985.6377
1085.910, 981.3584
1086.393, 989.9189
1086.875, 1014.001
1087.357, 1056.831
1087.839, 1114.636
1088.321, 1166.618
1088.803, 1213.999
1089.285, 1244.184
1089.767, 1223.826
1090.250, 1209.123
1090.732, 1265.450
1091.214, 1345.723
1091.696, 1365.491
1092.178, 1319.998
1092.660, 1292.132
1093.142, 1331.843
1093.624, 1362.720
1094.106, 1345.494
1094.589, 1320.216
1095.071, 1307.594
1095.553, 1309.770
1096.035, 1334.822
1096.517, 1379.752
1096.999, 1407.707
1097.481, 1427.761
1097.963, 1399.351
1098.445, 1254.447
1098.928, 1114.561
1099.410, 1068.080
1099.892, 1074.117
1100.374, 1075.209
1100.856, 1063.757
1101.338, 1044.961
1101.820, 1019.833
1102.302, 987.8594
1102.785, 941.9424
1103.267, 896.4609
1103.749, 851.4043
1104.231, 816.4854
1104.713, 813.5605
1105.195, 840.0312
1105.677, 843.9678
1106.159, 783.9707
1106.641, 749.3564
1107.124, 779.0996
1107.606, 810.8271
1108.088, 810.4902
1108.570, 795.3271
1109.052, 781.1699
1109.534, 770.9570
1110.016, 785.1709
1110.498, 851.1387
1110.980, 902.1123
1111.463, 919.0996
1111.945, 936.1211
1112.427, 969.2412
1112.909, 1009.143
1113.391, 1046.027
1113.873, 1080.107
1114.355, 1114.271
1114.837, 1131.631
1115.320, 1178.153
1115.802, 1272.495
1116.284, 1372.008
1116.766, 1466.637
1117.248, 1554.669
1117.730, 1634.856
1118.212, 1706.938
1118.694, 1768.781
1119.177, 1800.237
1119.659, 1872.911
1120.141, 2009.845
1120.623, 2144.219
1121.105, 2247.371
1121.587, 2340.097
1122.069, 2444.841
1122.551, 2561.423
1123.033, 2679.063
1123.516, 2796.347
1123.998, 2899.933
1124.480, 2977.992
1124.962, 3084.351
1125.444, 3249.364
1125.926, 3413.087
1126.408, 3520.801
1126.890, 3595.185
1127.372, 3699.006
1127.855, 3835.593
1128.337, 3952.419
1128.819, 4049.262
1129.301, 4133.247
1129.783, 4208.089
1130.265, 4253.481
1130.747, 4248.023
1131.229, 4218.555
1131.712, 4232.925
1132.194, 4287.854
1132.676, 4276.756
1133.158, 4200.556
1133.640, 4124.928
1134.122, 4062.796
1134.604, 3976.270
1135.086, 3842.896
1135.568, 3685.185
1136.051, 3532.605
1136.533, 3388.601
1137.015, 3265.627
1137.497, 3156.712
1137.979, 3038.635
1138.461, 2908.575
1138.943, 2763.684
1139.425, 2601.116
1139.907, 2439.818
1140.390, 2297.176
1140.872, 2171.247
1141.354, 2064.792
1141.836, 1972.427
1142.318, 1880.269
1142.800, 1786.470
1143.282, 1692.113
1143.764, 1596.776
1144.247, 1506.779
1144.729, 1429.163
1145.211, 1358.776
1145.693, 1282.989
1146.175, 1212.208
1146.657, 1166.204
1147.139, 1139.297
1147.621, 1118.082
1148.104, 1093.844
1148.586, 1060.834
1149.068, 1014.704
1149.550, 959.0547
1150.032, 875.9023
1150.514, 803.1484
1150.996, 793.1123
1151.478, 814.4951
1151.960, 809.6055
1152.443, 772.4043
1152.925, 738.5215
1153.407, 730.9648
1153.889, 707.5762
1154.371, 622.6738
1154.853, 545.5703
1155.335, 535.9014
1155.817, 548.6182
1156.299, 528.9209
1156.782, 478.9795
1157.264, 430.4834
1157.746, 385.7412
1158.228, 353.0439
1158.710, 343.9434
1159.192, 334.7549
1159.674, 314.3320
1160.156, 293.2031
1160.639, 286.2744
1161.121, 284.5977
1161.603, 262.0938
1162.085, 215.3789
1162.567, 161.8789
1163.049, 77.80469
1163.531, 32.71680
1164.013, 57.14746
1164.495, 93.42871
1164.978, 112.2324
1165.460, 116.2783
1165.942, 107.8203
1166.424, 87.13477
1166.906, 74.52832
1167.388, 72.44727
1167.870, 65.87305
1168.352, 52.55762
1168.834, 34.17383
1169.317, 8.099609
1169.799, 6.277344
1170.281, 19.71777
1170.763, 67.92969
1171.245, 62.32520
1171.727, 9.033203
1172.209, 14.40332
1172.691, 3.851563
1173.174, 16.76465
1173.656, 39.39453
1174.138, 46.00391
1174.620, 18.44727
1175.102, 18.40332
1175.584, 14.58203
1176.066, 8.704102
1176.548, 4.076172
1177.031, 42.91797
1177.513, 79.17969
1177.995, 102.2822
1178.477, 94.46191
1178.959, 43.30273
1179.441, 3.666992
1179.923, 15.30762
1180.405, 44.45605
1180.887, 9.453125
1181.370, 45.99707
1181.852, 55.40234
1182.334, 27.06738
1182.816, 4.883789
1183.298, 1.264648
1183.780, 7.000977
1184.262, 44.60156
1184.744, 69.39258
1185.226, 52.82129
1185.709, 23.78125
1186.191, 0.5976560
1186.673, 19.81250
1187.155, 36.77637
1187.637, 51.33789
1188.119, 56.23242
1188.601, 46.45801
1189.083, 32.81055
1189.566, 14.30176
1190.048, 5.119141
1190.530, 33.59668
1191.012, 52.25586
1191.494, 36.08887
1191.976, 1.595703
1192.458, 16.16797
1192.940, 4.096680
1193.422, 15.74707
1193.905, 52.19531
1194.387, 60.77539
1194.869, 23.83398
1195.351, 11.85742
1195.833, 16.63867
1196.315, 2.928711
1196.797, 12.41602
1197.279, 27.00586
1197.761, 21.19238
1198.244, 2.766602
1198.726, 17.65332
1199.208, 20.39453
1199.690, 15.61621
1200.172, 5.466797
1200.654, 1.535156
1201.136, 4.068359
1201.618, 14.83008
1202.101, 11.49902
1202.583, 8.543945
1203.065, 53.63770
1203.547, 118.5693
1204.029, 114.5713
1204.511, 41.62793
1204.993, 0.2812500
1205.475, 46.71289
1205.958, 99.25684
1206.440, 82.23926
1206.922, 63.07129
1207.404, 85.12988
1207.886, 142.5137
1208.368, 265.2598
1208.850, 406.1846
1209.332, 448.0654
1209.814, 361.0771
1210.297, 269.2510
1210.779, 175.0176
1211.261, 120.2178
1211.743, 136.4941
1212.225, 162.5723
1212.707, 172.7861
1213.189, 172.5732
1213.671, 167.2861
1214.153, 157.2129
1214.636, 144.0156
1215.118, 121.1924
1215.600, 119.3457
1216.082, 147.3320
1216.564, 166.5811
1217.046, 164.1436
1217.528, 154.3936
1218.010, 147.5498
1218.493, 145.2627
1218.975, 154.7441
1219.457, 172.0889
1219.939, 162.8037
1220.421, 133.6328
1220.903, 136.7852
1221.385, 173.5449
1221.867, 193.7490
1222.349, 176.2764
1222.832, 146.1514
1223.314, 126.0137
1223.796, 112.3545
1224.278, 102.0811
1224.760, 99.53223
1225.242, 115.5098
1225.724, 142.2607
1226.206, 167.2510
1226.688, 185.4941
1227.171, 192.1943
1227.653, 183.3232
1228.135, 166.4590
1228.617, 140.8672
1229.099, 110.5850
1229.581, 72.35254
1230.063, 58.26758
1230.545, 87.77344
1231.028, 140.7568
1231.510, 156.3613
1231.992, 125.4043
1232.474, 104.3037
1232.956, 96.56348
1233.438, 99.43945
1233.920, 112.7295
1234.402, 112.7812
1234.885, 83.88965
1235.367, 54.11621
1235.849, 47.88477
1236.331, 68.42480
1236.813, 94.70410
1237.295, 115.1064
1237.777, 119.3301
1238.259, 117.9014
1238.741, 101.9395
1239.224, 72.38574
1239.706, 45.03906
1240.188, 18.28906
1240.670, 7.153320
1241.152, 51.59863
1241.634, 109.6475
1242.116, 126.7910
1242.598, 114.1846
1243.080, 76.51367
1243.563, 35.62305
1244.045, 22.37109
1244.527, 40.07031
1245.009, 53.27539
1245.491, 41.66992
1245.973, 36.93555
1246.455, 60.65137
1246.937, 84.25293
1247.420, 99.06250
1247.902, 101.3301
1248.384, 69.50195
1248.866, 27.37793
1249.348, 46.37793
1249.830, 139.5713
1250.312, 170.1123
1250.794, 109.4785
1251.276, 67.42871
1251.759, 57.74707
1252.241, 66.13379
1252.723, 90.57324
1253.205, 112.6523
1253.687, 111.2432
1254.169, 96.36719
1254.651, 92.60938
1255.133, 97.85547
1255.615, 107.9316
1256.098, 123.9395
1256.580, 145.5352
1257.062, 168.3193
1257.544, 163.8545
1258.026, 116.4961
1258.508, 69.74023
1258.990, 67.88184
1259.472, 76.30859
1259.955, 60.33984
1260.437, 38.79004
1260.919, 35.99512
1261.401, 51.36816
1261.883, 72.89160
1262.365, 93.28418
1262.847, 101.6455
1263.329, 82.85645
1263.812, 76.11426
1264.294, 98.54004
1264.776, 109.9355
1265.258, 102.9521
1265.740, 90.79395
1266.222, 76.55664
1266.704, 65.10254
1267.186, 63.84863
1267.668, 67.87695
1268.151, 41.15527
1268.633, 16.66602
1269.115, 15.25879
1269.597, 48.00195
1270.079, 90.51367
1270.561, 87.13184
1271.043, 74.03613
1271.525, 77.91406
1272.007, 89.38672
1272.490, 106.5859
1272.972, 118.9795
1273.454, 89.92285
1273.936, 53.67578
1274.418, 58.81738
1274.900, 60.41797
1275.382, 143.7900
1275.864, 261.1250
1276.347, 311.1611
1276.829, 209.7598
1277.311, 115.9219
1277.793, 97.27246
1278.275, 89.98535
1278.757, 41.00195
1279.239, 0.2441410
1279.721, 7.5195000E-02
1280.203, 0.0000000E+00
##END=



