##NAMES=Brannockite
##RRUFFID=R070410
##IDEAL CHEMISTRY=KSn_2_(Li_3_Si_12_)O_30_
##LOCALITY=Foote Lithium County mine (Foote mine), Kings Mountain District, Cleveland County, North Carolina, USA
##OWNER=RRUFF
##SOURCE=Michael Scott
##DESCRIPTION=Colorless hexagonal plates associated with quartz
##STATUS=The identification of this mineral has been confirmed by single-crystal X-ray diffraction.
##URL=rruff.info/R070410
140.5016, 0.0000000E+00
140.9837, 1.338989
141.4658, 0.4876710
141.9480, 18.55225
142.4301, 52.63928
142.9122, 106.6338
143.3943, 161.0850
143.8764, 209.0067
144.3585, 249.8087
144.8407, 312.0236
145.3228, 398.0922
145.8049, 503.2419
146.2870, 623.1907
146.7691, 764.3416
147.2512, 906.8225
147.7334, 1039.367
148.2155, 1153.900
148.6976, 1300.485
149.1797, 1468.760
149.6618, 1672.871
150.1439, 1929.134
150.6261, 2393.910
151.1082, 2775.873
151.5903, 2994.849
152.0724, 3048.684
152.5545, 2932.049
153.0366, 2527.558
153.5188, 1956.928
154.0009, 1461.108
154.4830, 1054.486
154.9651, 733.9619
155.4472, 495.9407
155.9293, 373.2560
156.4115, 284.3241
156.8936, 223.7570
157.3757, 186.9553
157.8578, 156.7910
158.3399, 135.4133
158.8221, 115.0814
159.3042, 90.55823
159.7863, 51.31689
160.2684, 16.88818
160.7505, 6.563110
161.2326, 19.66833
161.7148, 25.70874
162.1969, 22.83228
162.6790, 14.92737
163.1611, 5.702271
163.6432, 5.919678
164.1253, 16.70386
164.6075, 26.91260
165.0896, 36.62476
165.5717, 39.53394
166.0538, 20.32642
166.5359, 5.846680
167.0180, 17.45068
167.5002, 10.21143
167.9823, 45.82788
168.4644, 64.13477
168.9465, 61.27441
169.4286, 55.10913
169.9107, 60.89453
170.3929, 73.06079
170.8750, 80.10205
171.3571, 67.54590
171.8392, 50.47925
172.3213, 46.85889
172.8034, 61.94165
173.2856, 80.51855
173.7677, 90.52710
174.2498, 92.79736
174.7319, 90.01001
175.2140, 76.38354
175.6961, 60.42358
176.1783, 56.17163
176.6604, 68.91724
177.1425, 89.13892
177.6246, 108.7659
178.1067, 128.7009
178.5888, 145.3970
179.0710, 148.4382
179.5531, 144.4221
180.0352, 141.4387
180.5173, 141.8862
180.9994, 145.0398
181.4815, 150.0420
181.9637, 157.3467
182.4458, 167.5979
182.9279, 177.8110
183.4100, 186.9592
183.8921, 195.7783
184.3742, 204.4031
184.8564, 214.9006
185.3385, 231.4187
185.8206, 251.8489
186.3027, 270.0439
186.7848, 284.4138
187.2669, 294.5671
187.7491, 298.1741
188.2312, 291.7358
188.7133, 278.0276
189.1954, 267.3625
189.6775, 260.2354
190.1596, 254.1521
190.6418, 245.4485
191.1239, 234.2432
191.6060, 224.3604
192.0881, 215.3921
192.5702, 208.0728
193.0524, 210.0857
193.5345, 222.9456
194.0166, 241.1113
194.4987, 256.8860
194.9808, 270.2532
195.4629, 281.5012
195.9451, 287.8933
196.4272, 289.7820
196.9093, 300.0818
197.3914, 320.4312
197.8735, 347.2546
198.3556, 376.4314
198.8378, 410.7629
199.3199, 437.0188
199.8020, 447.6653
200.2841, 442.2061
200.7662, 425.7126
201.2483, 396.6206
201.7305, 358.2971
202.2126, 316.5505
202.6947, 269.1946
203.1768, 226.5542
203.6589, 196.7332
204.1410, 182.0610
204.6232, 164.5542
205.1053, 140.2522
205.5874, 113.1448
206.0695, 98.42773
206.5516, 100.3201
207.0337, 103.5151
207.5159, 95.84741
207.9980, 73.96777
208.4801, 57.69873
208.9622, 50.32178
209.4443, 50.36426
209.9264, 51.54883
210.4086, 55.50977
210.8907, 57.34521
211.3728, 51.52563
211.8549, 34.16284
212.3370, 22.81738
212.8191, 22.45874
213.3013, 31.17676
213.7834, 32.56152
214.2655, 24.24414
214.7476, 12.37085
215.2297, 1.154541
215.7118, 11.35547
216.1940, 17.60718
216.6761, 14.21436
217.1582, 1.767334
217.6403, 5.263184
218.1224, 3.248779
218.6045, 0.3166500
219.0867, 5.901367
219.5688, 27.03027
220.0509, 40.74805
220.5330, 39.83154
221.0151, 23.89551
221.4972, 14.12134
221.9794, 13.55957
222.4615, 15.33618
222.9436, 11.59619
223.4257, 1.160889
223.9078, 12.32642
224.3899, 19.72925
224.8721, 23.56567
225.3542, 24.55859
225.8363, 23.02197
226.3184, 19.52832
226.8005, 14.13623
227.2827, 4.873047
227.7648, 2.433594
228.2469, 6.463867
228.7290, 7.137207
229.2111, 4.294434
229.6932, 6.313721
230.1754, 17.00659
230.6575, 16.62036
231.1396, 2.172607
231.6217, 19.03809
232.1038, 27.77319
232.5859, 26.50757
233.0681, 27.25757
233.5502, 31.20361
234.0323, 36.29492
234.5144, 38.99951
234.9965, 35.47192
235.4786, 36.13428
235.9608, 45.65039
236.4429, 66.83911
236.9250, 82.90234
237.4071, 92.28540
237.8892, 97.35229
238.3713, 101.1631
238.8535, 101.0425
239.3356, 104.1252
239.8177, 112.5918
240.2998, 126.8777
240.7819, 146.1006
241.2640, 176.9927
241.7462, 209.2732
242.2283, 224.6243
242.7104, 215.3193
243.1925, 201.6187
243.6746, 188.0029
244.1567, 170.7957
244.6389, 167.8325
245.1210, 187.6868
245.6031, 216.6392
246.0852, 229.0486
246.5673, 214.8416
247.0494, 201.4255
247.5316, 199.4160
248.0137, 213.6233
248.4958, 223.2891
248.9779, 222.7876
249.4600, 219.9922
249.9421, 229.6426
250.4243, 255.3853
250.9064, 287.5483
251.3885, 325.5120
251.8706, 374.7156
252.3527, 408.7224
252.8348, 425.7417
253.3170, 429.6719
253.7991, 426.4126
254.2812, 414.5540
254.7633, 395.5168
255.2454, 368.2788
255.7275, 328.5562
256.2097, 298.1904
256.6918, 280.7090
257.1739, 270.4360
257.6560, 255.4629
258.1381, 230.4624
258.6202, 211.7793
259.1024, 206.9016
259.5845, 219.5977
260.0666, 229.7598
260.5487, 233.9180
261.0308, 238.1750
261.5129, 254.4221
261.9951, 284.5151
262.4772, 321.8538
262.9593, 364.6096
263.4414, 414.4912
263.9235, 463.0391
264.4056, 509.1448
264.8878, 555.5837
265.3699, 609.4731
265.8520, 674.2837
266.3341, 737.9355
266.8162, 794.0051
267.2983, 838.8757
267.7805, 896.5618
268.2626, 968.8169
268.7447, 1051.495
269.2268, 1136.810
269.7089, 1223.097
270.1910, 1317.486
270.6732, 1422.563
271.1553, 1537.464
271.6374, 1668.219
272.1195, 1816.032
272.6016, 1978.281
273.0837, 2146.458
273.5659, 2321.391
274.0480, 2499.386
274.5301, 2681.012
275.0122, 2865.866
275.4943, 3059.411
275.9764, 3266.692
276.4586, 3472.069
276.9407, 3665.347
277.4228, 3849.078
277.9049, 3978.855
278.3870, 4030.732
278.8691, 4006.535
279.3513, 3953.000
279.8334, 3876.860
280.3155, 3754.028
280.7976, 3538.214
281.2798, 3227.978
281.7619, 2893.843
282.2440, 2547.887
282.7261, 2195.779
283.2082, 1875.029
283.6903, 1583.359
284.1725, 1332.254
284.6546, 1142.552
285.1367, 1014.627
285.6188, 912.4365
286.1009, 828.5042
286.5830, 760.4207
287.0652, 698.9504
287.5473, 644.4451
288.0294, 594.5471
288.5115, 546.9158
288.9936, 502.7793
289.4757, 465.5154
289.9579, 438.8845
290.4400, 419.1482
290.9221, 394.8875
291.4042, 365.7844
291.8863, 336.1228
292.3684, 309.3528
292.8506, 285.4966
293.3327, 264.6628
293.8148, 250.0984
294.2969, 236.6172
294.7790, 211.0051
295.2611, 173.1299
295.7433, 136.0071
296.2254, 110.9297
296.7075, 95.17212
297.1896, 81.97998
297.6717, 70.03369
298.1538, 58.72656
298.6360, 46.23950
299.1181, 32.78394
299.6002, 21.96118
300.0823, 16.97095
300.5644, 16.43848
301.0465, 18.30322
301.5287, 24.59912
302.0108, 29.83154
302.4929, 25.74048
302.9750, 13.80713
303.4571, 2.624512
303.9392, 1.129395
304.4214, 0.9548340
304.9035, 2.104248
305.3856, 8.033691
305.8677, 12.03833
306.3498, 3.783447
306.8319, 12.68872
307.3141, 23.28125
307.7962, 13.18066
308.2783, 3.968506
308.7604, 14.33374
309.2425, 12.40991
309.7246, 9.018555
310.2068, 13.37402
310.6889, 21.94092
311.1710, 25.59692
311.6531, 14.14160
312.1352, 0.3803710
312.6173, 8.326904
313.0995, 5.764160
313.5816, 3.304688
314.0637, 7.272705
314.5458, 14.72632
315.0279, 20.16846
315.5100, 14.98975
315.9922, 12.14355
316.4743, 21.18970
316.9564, 47.47144
317.4385, 67.97778
317.9206, 68.53906
318.4027, 60.26978
318.8849, 58.70679
319.3670, 69.12500
319.8491, 85.97754
320.3312, 111.2312
320.8133, 148.2173
321.2954, 174.1213
321.7776, 173.4675
322.2597, 164.0449
322.7418, 164.8206
323.2239, 189.1450
323.7060, 213.3008
324.1881, 230.8286
324.6703, 240.7886
325.1524, 253.7146
325.6345, 269.0200
326.1166, 288.0898
326.5987, 312.2429
327.0808, 346.2188
327.5630, 379.6736
328.0451, 411.6218
328.5272, 442.0828
329.0093, 471.4326
329.4914, 494.4202
329.9735, 520.2871
330.4557, 555.1814
330.9378, 603.7812
331.4199, 654.1357
331.9020, 710.6504
332.3841, 769.3137
332.8662, 807.3604
333.3484, 807.6665
333.8305, 812.7378
334.3126, 850.8765
334.7947, 939.1270
335.2768, 1006.838
335.7589, 1045.977
336.2411, 1064.643
336.7232, 1087.351
337.2053, 1120.906
337.6874, 1139.105
338.1695, 1124.051
338.6516, 1070.787
339.1338, 1023.110
339.6159, 986.7358
340.0980, 952.6929
340.5801, 905.7031
341.0622, 843.5156
341.5443, 782.0232
342.0265, 727.2288
342.5086, 678.7012
342.9907, 627.5635
343.4728, 573.5322
343.9549, 519.9570
344.4370, 469.7271
344.9192, 423.8306
345.4013, 388.2512
345.8834, 366.6841
346.3655, 355.2227
346.8476, 347.4055
347.3297, 343.6321
347.8119, 341.5835
348.2940, 339.8220
348.7761, 338.0430
349.2582, 335.3025
349.7403, 331.2461
350.2225, 326.0305
350.7046, 318.4202
351.1867, 308.9861
351.6688, 302.2778
352.1509, 303.9919
352.6331, 309.9648
353.1152, 314.3394
353.5973, 314.4377
354.0794, 312.8508
354.5615, 311.8955
355.0436, 311.9634
355.5258, 312.8291
356.0079, 311.5957
356.4900, 312.6150
356.9721, 321.6501
357.4542, 342.9375
357.9363, 360.8730
358.4185, 361.5718
358.9006, 353.5361
359.3827, 351.4736
359.8648, 366.6165
360.3469, 384.8496
360.8290, 398.6633
361.3112, 406.7815
361.7933, 415.2205
362.2754, 427.9810
362.7575, 441.4988
363.2396, 451.7671
363.7217, 455.5581
364.2039, 459.1069
364.6860, 462.7212
365.1681, 466.1819
365.6502, 472.3269
366.1323, 474.3259
366.6144, 482.6750
367.0966, 505.7466
367.5787, 561.4321
368.0608, 609.5576
368.5429, 645.9604
369.0250, 672.5530
369.5071, 696.8340
369.9893, 710.6270
370.4714, 730.9512
370.9535, 767.3662
371.4356, 826.6926
371.9177, 885.7341
372.3998, 943.9236
372.8820, 1002.067
373.3641, 1062.161
373.8462, 1126.504
374.3283, 1186.473
374.8104, 1237.693
375.2925, 1280.183
375.7747, 1323.223
376.2568, 1374.986
376.7389, 1411.935
377.2210, 1401.658
377.7031, 1342.885
378.1852, 1253.890
378.6674, 1128.885
379.1495, 978.7087
379.6316, 841.4490
380.1137, 718.0007
380.5958, 609.6345
381.0779, 522.3838
381.5601, 453.0281
382.0422, 392.3003
382.5243, 338.2000
383.0064, 289.5637
383.4885, 243.1514
383.9706, 199.1538
384.4528, 162.0720
384.9349, 137.7688
385.4170, 121.3723
385.8991, 103.9231
386.3812, 83.16895
386.8633, 63.79663
387.3455, 49.03857
387.8276, 38.92407
388.3097, 33.38647
388.7918, 36.10596
389.2739, 41.10718
389.7560, 44.86499
390.2382, 47.38306
390.7203, 45.28101
391.2024, 32.16968
391.6845, 15.00879
392.1666, 1.677002
392.6487, 3.514893
393.1309, 5.888184
393.6130, 5.899170
394.0951, 3.974609
394.5772, 4.284424
395.0593, 14.59399
395.5414, 23.24121
396.0236, 22.80054
396.5057, 6.328857
396.9878, 22.56201
397.4699, 13.28467
397.9520, 12.92529
398.4341, 29.04199
398.9163, 29.68115
399.3984, 25.76221
399.8805, 20.54224
400.3626, 13.08691
400.8447, 6.776855
401.3268, 0.2771000
401.8090, 4.778564
402.2911, 0.1166990
402.7732, 19.83423
403.2553, 32.60986
403.7374, 30.00732
404.2195, 13.09131
404.7017, 1.160400
405.1838, 5.300049
405.6659, 8.157959
406.1480, 7.577148
406.6301, 3.464600
407.1122, 2.722412
407.5944, 7.932373
408.0765, 15.85156
408.5586, 19.13892
409.0407, 17.86133
409.5228, 13.32690
410.0049, 2.161377
410.4871, 11.66895
410.9692, 16.00024
411.4513, 8.288330
411.9334, 3.684326
412.4155, 11.82715
412.8976, 17.26294
413.3798, 22.84375
413.8619, 27.85522
414.3440, 34.98657
414.8261, 49.93408
415.3082, 72.75513
415.7903, 91.69238
416.2725, 101.1953
416.7546, 101.9583
417.2367, 94.31104
417.7188, 63.54199
418.2009, 40.80591
418.6830, 48.08521
419.1652, 77.37988
419.6473, 98.98804
420.1294, 92.71973
420.6115, 83.87988
421.0937, 86.81152
421.5758, 108.9351
422.0579, 130.7153
422.5400, 155.2720
423.0221, 176.8892
423.5042, 186.4934
423.9864, 171.9558
424.4685, 158.6646
424.9506, 152.6279
425.4327, 154.5542
425.9148, 155.1680
426.3969, 152.6575
426.8791, 150.8933
427.3612, 152.3057
427.8433, 155.2478
428.3254, 168.1348
428.8075, 198.6719
429.2896, 237.3970
429.7718, 246.1870
430.2539, 218.8232
430.7360, 194.6929
431.2181, 200.7927
431.7002, 234.8164
432.1823, 261.9199
432.6645, 278.6968
433.1466, 294.2810
433.6287, 321.5039
434.1108, 358.6162
434.5929, 397.5388
435.0750, 438.0183
435.5572, 476.5359
436.0393, 501.8845
436.5214, 514.9573
437.0035, 534.8623
437.4856, 573.9341
437.9677, 629.6013
438.4499, 699.3215
438.9320, 787.0186
439.4141, 880.8230
439.8962, 969.7578
440.3783, 1057.562
440.8604, 1156.579
441.3426, 1263.568
441.8247, 1388.480
442.3068, 1536.986
442.7889, 1710.544
443.2710, 1903.661
443.7531, 2124.770
444.2353, 2360.358
444.7174, 2599.379
445.1995, 2818.615
445.6816, 3061.449
446.1637, 3340.750
446.6458, 3651.575
447.1280, 3970.672
447.6101, 4287.476
448.0922, 4625.744
448.5743, 4998.688
449.0564, 5427.366
449.5385, 5845.646
450.0207, 6251.406
450.5028, 6644.517
450.9849, 7014.148
451.4670, 7347.963
451.9491, 7704.946
452.4312, 8115.597
452.9134, 8570.798
453.3955, 9014.421
453.8776, 9442.771
454.3597, 9880.133
454.8418, 10366.21
455.3239, 10883.03
455.8061, 11350.86
456.2882, 11799.56
456.7703, 12127.20
457.2524, 12209.52
457.7345, 12052.50
458.2166, 11675.41
458.6988, 11015.33
459.1809, 10178.91
459.6630, 9258.995
460.1451, 8242.158
460.6272, 7243.458
461.1093, 6306.867
461.5915, 5444.969
462.0736, 4692.879
462.5557, 4080.166
463.0378, 3558.251
463.5199, 3130.361
464.0020, 2791.774
464.4842, 2496.780
464.9663, 2244.284
465.4484, 2030.892
465.9305, 1855.025
466.4126, 1728.196
466.8947, 1614.287
467.3769, 1512.646
467.8590, 1424.442
468.3411, 1350.713
468.8232, 1295.551
469.3053, 1249.416
469.7874, 1209.249
470.2696, 1174.792
470.7517, 1151.650
471.2338, 1142.575
471.7159, 1138.218
472.1980, 1125.544
472.6801, 1105.196
473.1623, 1109.462
473.6444, 1148.728
474.1265, 1203.911
474.6086, 1241.220
475.0907, 1262.981
475.5728, 1285.825
476.0550, 1315.786
476.5371, 1355.069
477.0192, 1412.045
477.5013, 1487.500
477.9834, 1559.305
478.4655, 1618.985
478.9477, 1662.464
479.4298, 1683.751
479.9119, 1684.572
480.3940, 1659.976
480.8761, 1605.641
481.3582, 1523.736
481.8404, 1420.635
482.3225, 1271.920
482.8046, 1125.104
483.2867, 1000.163
483.7688, 901.1946
484.2509, 811.1514
484.7331, 726.2839
485.2152, 652.9690
485.6973, 596.6487
486.1794, 563.4497
486.6615, 533.5273
487.1436, 505.0667
487.6258, 477.6050
488.1079, 449.3594
488.5900, 421.2759
489.0721, 390.1484
489.5542, 349.0239
490.0363, 297.4587
490.5185, 267.5518
491.0006, 263.3340
491.4827, 270.8794
491.9648, 274.8442
492.4470, 275.5583
492.9291, 274.9001
493.4112, 275.3787
493.8933, 273.1812
494.3754, 259.2339
494.8575, 235.3445
495.3397, 213.6316
495.8218, 198.7183
496.3039, 191.5312
496.7860, 195.4001
497.2681, 214.0818
497.7502, 231.6072
498.2324, 238.9963
498.7145, 238.6519
499.1966, 235.2546
499.6787, 224.9475
500.1608, 218.8772
500.6429, 222.6934
501.1251, 234.8599
501.6072, 242.3752
502.0893, 236.8389
502.5714, 233.1763
503.0535, 239.8892
503.5356, 266.8438
504.0178, 280.2444
504.4999, 276.8689
504.9820, 262.6479
505.4641, 242.4868
505.9462, 212.7939
506.4283, 197.1455
506.9105, 208.6118
507.3926, 237.9907
507.8747, 247.8176
508.3568, 237.3838
508.8389, 220.3579
509.3210, 201.9714
509.8032, 184.7268
510.2853, 177.7537
510.7674, 184.7292
511.2495, 191.0820
511.7316, 177.9392
512.2137, 153.2698
512.6959, 133.5620
513.1780, 132.4939
513.6601, 132.6746
514.1422, 120.5571
514.6243, 98.30786
515.1064, 80.92383
515.5886, 70.73828
516.0707, 66.10034
516.5528, 67.01343
517.0349, 77.40967
517.5170, 85.20459
517.9991, 91.58032
518.4813, 93.71948
518.9634, 87.96899
519.4455, 67.43701
519.9276, 51.68872
520.4097, 46.42090
520.8918, 49.62964
521.3740, 46.89819
521.8561, 36.46558
522.3382, 25.92358
522.8203, 20.95337
523.3024, 21.16602
523.7845, 19.02905
524.2667, 13.73242
524.7488, 7.554932
525.2309, 1.709961
525.7130, 3.055176
526.1951, 3.692139
526.6772, 5.262695
527.1594, 14.64917
527.6415, 11.31982
528.1236, 1.977051
528.6057, 13.31641
529.0878, 15.16040
529.5699, 12.85132
530.0521, 9.471924
530.5342, 4.636475
531.0163, 2.202148
531.4984, 7.843750
531.9805, 14.57935
532.4626, 15.01416
532.9448, 0.3723140
533.4269, 11.37964
533.9090, 19.03052
534.3911, 22.42847
534.8732, 19.69507
535.3553, 6.332520
535.8375, 4.763428
536.3196, 7.138672
536.8017, 0.3439940
537.2838, 5.530029
537.7659, 10.91187
538.2480, 14.16162
538.7302, 13.29395
539.2123, 8.593994
539.6944, 0.9372560
540.1765, 12.06934
540.6586, 23.21045
541.1407, 18.51416
541.6229, 2.344238
542.1050, 9.678955
542.5871, 1.839111
543.0692, 14.05249
543.5513, 0.6845700
544.0334, 43.28125
544.5156, 74.06738
544.9977, 63.06689
545.4798, 39.15820
545.9619, 25.35791
546.4440, 35.15283
546.9261, 41.54346
547.4083, 37.95898
547.8904, 29.25635
548.3725, 24.30420
548.8546, 25.46484
549.3367, 26.48535
549.8188, 26.07983
550.3010, 24.27197
550.7831, 20.33740
551.2652, 12.88330
551.7473, 7.947021
552.2294, 12.49805
552.7115, 25.14478
553.1937, 31.92041
553.6758, 31.69458
554.1579, 25.69604
554.6400, 9.769287
555.1221, 11.33618
555.6042, 23.46558
556.0864, 15.73145
556.5685, 2.954102
557.0506, 1.212158
557.5327, 7.118652
558.0148, 8.113770
558.4969, 10.54175
558.9791, 29.54663
559.4612, 34.50781
559.9433, 19.93359
560.4254, 12.30664
560.9075, 26.20801
561.3896, 43.56226
561.8718, 48.18164
562.3539, 28.72510
562.8360, 15.93677
563.3181, 14.03931
563.8002, 19.29980
564.2823, 22.87354
564.7645, 24.23389
565.2466, 26.09131
565.7287, 29.48901
566.2108, 34.23340
566.6929, 40.23657
567.1750, 47.57983
567.6572, 53.05518
568.1393, 55.05347
568.6214, 52.96265
569.1035, 43.04980
569.5856, 21.90918
570.0677, 4.321045
570.5499, 9.034912
571.0320, 23.91162
571.5141, 29.77686
571.9962, 0.8024900
572.4783, 19.80298
572.9604, 2.924316
573.4426, 41.84912
573.9247, 64.68677
574.4068, 34.05566
574.8889, 1.156494
575.3710, 15.28784
575.8531, 13.16870
576.3353, 3.779297
576.8174, 17.73975
577.2995, 39.18237
577.7816, 48.77881
578.2637, 45.67163
578.7458, 37.58740
579.2280, 23.01782
579.7101, 8.757324
580.1922, 9.985596
580.6743, 23.98022
581.1564, 35.35718
581.6385, 35.77710
582.1207, 30.22021
582.6028, 23.42310
583.0849, 15.71338
583.5670, 9.817139
584.0491, 6.791016
584.5313, 6.834473
585.0134, 10.37573
585.4955, 18.44531
585.9776, 26.73682
586.4597, 37.18677
586.9418, 45.67212
587.4240, 46.74780
587.9061, 33.57202
588.3882, 23.86377
588.8703, 19.58179
589.3524, 19.31836
589.8345, 18.91699
590.3167, 16.87231
590.7988, 23.62183
591.2809, 47.46313
591.7630, 83.37061
592.2451, 103.3911
592.7272, 107.1191
593.2094, 104.8699
593.6915, 101.1824
594.1736, 98.24365
594.6557, 101.6155
595.1378, 113.0002
595.6199, 124.6929
596.1021, 126.7598
596.5842, 126.6611
597.0663, 134.7910
597.5485, 162.1719
598.0306, 189.7175
598.5127, 209.5088
598.9948, 225.0322
599.4769, 248.7837
599.9590, 287.4048
600.4412, 325.3777
600.9233, 356.2632
601.4054, 381.1960
601.8875, 409.4946
602.3696, 441.6917
602.8517, 475.3960
603.3339, 507.5884
603.8160, 538.6929
604.2981, 570.3616
604.7802, 602.0107
605.2623, 635.9922
605.7444, 673.5164
606.2266, 715.6538
606.7087, 764.0029
607.1908, 834.0024
607.6729, 896.1501
608.1550, 917.9214
608.6371, 911.0132
609.1193, 914.3223
609.6014, 957.6978
610.0835, 1002.631
610.5656, 1036.854
611.0477, 1062.473
611.5298, 1051.585
612.0120, 990.1064
612.4941, 906.1799
612.9762, 812.8027
613.4583, 701.4714
613.9404, 616.2793
614.4225, 565.6523
614.9047, 530.7664
615.3868, 484.9175
615.8689, 429.0176
616.3510, 376.0042
616.8331, 328.2993
617.3152, 285.0737
617.7974, 242.8293
618.2795, 203.5403
618.7616, 172.5854
619.2437, 157.1096
619.7258, 148.1455
620.2079, 138.6326
620.6901, 128.2798
621.1722, 122.1487
621.6543, 132.1914
622.1364, 139.8699
622.6185, 130.8613
623.1006, 88.65063
623.5828, 65.51025
624.0649, 69.02588
624.5470, 84.65942
625.0291, 97.87158
625.5112, 107.4387
625.9933, 109.2642
626.4755, 100.4412
626.9576, 86.18066
627.4397, 77.80640
627.9218, 73.28247
628.4039, 69.44116
628.8860, 63.76880
629.3682, 57.96045
629.8503, 55.59399
630.3324, 55.08984
630.8145, 53.13135
631.2966, 39.19531
631.7787, 26.86646
632.2609, 27.49463
632.7430, 46.08081
633.2251, 61.72534
633.7072, 73.53784
634.1893, 80.94312
634.6714, 82.44482
635.1536, 71.54199
635.6357, 68.71411
636.1178, 80.20483
636.5999, 95.42114
637.0820, 93.19800
637.5641, 72.84009
638.0463, 51.18481
638.5284, 31.47754
639.0105, 15.58813
639.4926, 3.975098
639.9747, 2.063232
640.4568, 4.856934
640.9390, 46.85083
641.4211, 92.44165
641.9032, 108.8345
642.3853, 93.75635
642.8674, 79.28516
643.3495, 78.66211
643.8317, 82.78833
644.3138, 85.86914
644.7959, 89.86230
645.2780, 86.90625
645.7601, 70.87842
646.2422, 53.28076
646.7244, 49.93433
647.2065, 65.06274
647.6886, 71.21582
648.1707, 59.59155
648.6528, 42.23218
649.1349, 49.17847
649.6171, 76.07397
650.0992, 92.41455
650.5813, 70.91211
651.0634, 39.18848
651.5455, 36.64111
652.0276, 57.22632
652.5098, 68.54712
652.9919, 37.51294
653.4740, 4.097412
653.9561, 3.512207
654.4382, 22.96289
654.9203, 40.97876
655.4025, 36.44019
655.8846, 29.12207
656.3667, 33.68140
656.8488, 58.17065
657.3309, 68.68530
657.8130, 59.65039
658.2952, 44.58252
658.7773, 45.74463
659.2594, 61.19263
659.7415, 66.21338
660.2236, 50.02539
660.7057, 27.68799
661.1879, 19.55469
661.6700, 22.89624
662.1521, 30.28760
662.6342, 47.06104
663.1163, 59.01636
663.5984, 54.63379
664.0806, 35.86157
664.5627, 19.52759
665.0448, 5.604248
665.5269, 0.7097170
666.0090, 6.014893
666.4911, 27.22632
666.9733, 37.99219
667.4554, 34.13721
667.9375, 28.52344
668.4196, 31.57544
668.9017, 43.34912
669.3839, 53.20215
669.8660, 60.43042
670.3481, 63.23315
670.8302, 52.18848
671.3123, 33.18481
671.7944, 16.34131
672.2766, 4.256836
672.7587, 3.736084
673.2408, 7.397949
673.7229, 7.411377
674.2050, 5.196777
674.6871, 3.349121
675.1693, 9.788574
675.6514, 8.047363
676.1335, 0.8183590
676.6156, 2.8809000E-02
677.0977, 7.663574
677.5798, 17.38721
678.0620, 28.59766
678.5441, 40.37744
679.0262, 40.15381
679.5083, 27.16211
679.9904, 14.83008
680.4725, 19.07373
680.9547, 29.76660
681.4368, 25.08252
681.9189, 0.3095700
682.4010, 17.82275
682.8831, 0.8964840
683.3652, 25.94434
683.8474, 35.90723
684.3295, 4.638672
684.8116, 14.41650
685.2937, 1.502930
685.7758, 22.36084
686.2579, 28.78125
686.7401, 9.494629
687.2222, 4.989258
687.7043, 10.17041
688.1864, 6.473145
688.6685, 12.07178
689.1506, 43.82080
689.6328, 61.80664
690.1149, 43.53906
690.5970, 11.39062
691.0791, 2.521973
691.5612, 0.2602540
692.0433, 7.755859
692.5255, 23.07129
693.0076, 36.67285
693.4897, 42.91016
693.9718, 41.04932
694.4539, 35.16699
694.9360, 14.49414
695.4182, 0.5639650
695.9003, 9.094727
696.3824, 50.51270
696.8645, 66.42529
697.3466, 49.97852
697.8287, 25.97900
698.3109, 24.34668
698.7930, 40.01318
699.2751, 44.71289
699.7572, 31.10254
700.2393, 14.56592
700.7214, 7.995117
701.2036, 10.16650
701.6857, 19.26123
702.1678, 45.04346
702.6499, 65.47705
703.1320, 69.88574
703.6141, 62.92822
704.0963, 56.11768
704.5784, 48.59912
705.0605, 43.81201
705.5426, 43.01709
706.0247, 45.48682
706.5068, 48.34717
706.9890, 51.75049
707.4711, 54.45215
707.9532, 56.18896
708.4353, 56.65332
708.9174, 53.65088
709.3995, 47.65771
709.8817, 43.47461
710.3638, 44.48730
710.8459, 48.74951
711.3280, 57.92578
711.8101, 73.92188
712.2922, 78.02393
712.7744, 50.89404
713.2565, 8.454102
713.7386, 48.12451
714.2207, 70.52002
714.7028, 76.56885
715.1849, 17.30225
715.6671, 42.37842
716.1492, 33.65674
716.6313, 23.54980
717.1134, 60.50000
717.5955, 10.74121
718.0776, 25.92236
718.5598, 20.04590
719.0419, 8.554688
719.5240, 0.5527340
720.0061, 3.868652
720.4882, 0.3281250
720.9703, 23.20654
721.4525, 55.54199
721.9346, 71.28125
722.4167, 55.84619
722.8988, 37.94141
723.3809, 11.66650
723.8630, 27.07764
724.3452, 48.54541
724.8273, 53.66504
725.3094, 6.529297
725.7915, 17.61523
726.2736, 7.960938
726.7557, 3.079590
727.2379, 32.93701
727.7200, 17.75684
728.2021, 17.50488
728.6842, 18.45361
729.1663, 35.10742
729.6484, 17.75342
730.1306, 10.90430
730.6127, 37.94824
731.0948, 45.97559
731.5769, 24.39990
732.0590, 41.85986
732.5411, 10.02246
733.0233, 0.8857420
733.5054, 34.58008
733.9875, 15.54199
734.4696, 33.81445
734.9517, 37.68457
735.4338, 22.13770
735.9160, 41.39648
736.3981, 39.41064
736.8802, 28.83252
737.3623, 29.91553
737.8444, 60.69727
738.3266, 79.23340
738.8087, 54.03125
739.2908, 12.35645
739.7729, 4.958008
740.2551, 18.58203
740.7372, 38.65576
741.2193, 46.99561
741.7014, 48.01172
742.1835, 52.01562
742.6656, 58.28809
743.1478, 61.06201
743.6299, 52.88672
744.1120, 44.91797
744.5941, 62.67969
745.0762, 96.51855
745.5583, 117.6416
746.0405, 100.5942
746.5226, 79.52637
747.0047, 70.40674
747.4868, 69.94971
747.9689, 69.90234
748.4510, 64.99707
748.9332, 66.82617
749.4153, 82.80078
749.8974, 110.7559
750.3795, 126.1479
750.8616, 127.9980
751.3438, 124.7402
751.8259, 115.5869
752.3080, 106.4570
752.7901, 115.4346
753.2722, 141.4248
753.7543, 165.8730
754.2365, 170.2080
754.7186, 172.9023
755.2007, 192.5806
755.6828, 236.6816
756.1649, 265.8052
756.6470, 258.3149
757.1292, 247.6831
757.6113, 253.7661
758.0934, 279.7012
758.5755, 309.4189
759.0576, 344.4023
759.5397, 379.1123
760.0219, 411.4004
760.5040, 439.0830
760.9861, 450.8848
761.4682, 441.8755
761.9503, 434.0815
762.4324, 448.8042
762.9146, 472.9727
763.3967, 490.6772
763.8788, 488.4194
764.3609, 495.3618
764.8430, 526.8652
765.3251, 563.7910
765.8073, 583.2427
766.2894, 579.2812
766.7715, 582.7134
767.2536, 601.6489
767.7357, 622.2437
768.2178, 619.8652
768.7000, 598.3218
769.1821, 573.7144
769.6642, 551.4429
770.1463, 527.4395
770.6284, 494.9644
771.1105, 458.6548
771.5927, 427.4673
772.0748, 410.6997
772.5569, 391.7261
773.0390, 367.5806
773.5211, 338.5688
774.0032, 302.9414
774.4854, 256.2637
774.9675, 219.9419
775.4496, 202.0840
775.9317, 197.1787
776.4138, 195.6382
776.8959, 196.0532
777.3781, 190.7065
777.8602, 171.4775
778.3423, 148.0557
778.8244, 126.7598
779.3065, 107.4224
779.7886, 89.01758
780.2708, 67.87012
780.7529, 51.20215
781.2350, 37.92627
781.7171, 30.41553
782.1992, 40.62646
782.6813, 73.94775
783.1635, 102.8120
783.6456, 113.4170
784.1277, 109.3599
784.6098, 100.6128
785.0919, 88.36963
785.5740, 78.56885
786.0562, 83.74951
786.5383, 90.17676
787.0204, 85.90527
787.5025, 70.26904
787.9846, 56.21875
788.4667, 44.44971
788.9489, 37.61035
789.4310, 39.87988
789.9131, 52.45605
790.3952, 46.13184
790.8773, 16.82910
791.3594, 6.199219
791.8416, 11.09424
792.3237, 50.31104
792.8058, 58.52490
793.2879, 33.68359
793.7700, 7.303223
794.2521, 0.5366210
794.7343, 0.5498050
795.2164, 4.277832
795.6985, 11.14990
796.1806, 14.37891
796.6627, 11.85352
797.1448, 7.294922
797.6270, 0.4580080
798.1091, 9.788086
798.5912, 3.887695
799.0733, 21.49561
799.5554, 46.02051
800.0375, 46.50781
800.5197, 32.88428
801.0018, 23.88330
801.4839, 22.44775
801.9660, 22.48193
802.4481, 24.57324
802.9302, 23.87305
803.4124, 14.31836
803.8945, 17.86328
804.3766, 27.72754
804.8587, 3.584961
805.3408, 29.18896
805.8229, 47.56982
806.3051, 52.95361
806.7872, 57.92090
807.2693, 63.94824
807.7514, 67.07275
808.2335, 63.39600
808.7156, 54.14844
809.1978, 39.11182
809.6799, 14.37500
810.1620, 2.354980
810.6441, 1.136230
811.1262, 9.940430
811.6083, 23.56982
812.0905, 45.59717
812.5726, 55.08252
813.0547, 48.01123
813.5368, 35.18115
814.0189, 26.72070
814.5010, 23.95312
814.9832, 30.62939
815.4653, 50.94141
815.9474, 69.56250
816.4295, 68.43115
816.9116, 58.81934
817.3937, 55.38770
817.8759, 64.04150
818.3580, 73.31738
818.8401, 81.59229
819.3222, 88.67041
819.8043, 94.13086
820.2864, 97.64746
820.7686, 100.8950
821.2507, 103.5044
821.7328, 107.3364
822.2149, 117.0879
822.6970, 129.7363
823.1791, 135.8018
823.6613, 129.2866
824.1434, 128.7729
824.6255, 156.3828
825.1076, 192.9985
825.5897, 216.6162
826.0718, 203.1104
826.5540, 211.9985
827.0361, 257.8770
827.5182, 309.7183
828.0003, 324.3672
828.4824, 302.3354
828.9645, 300.4702
829.4467, 329.2876
829.9288, 370.6416
830.4109, 415.3022
830.8930, 456.1123
831.3751, 478.4390
831.8572, 468.6045
832.3394, 459.9351
832.8215, 467.9307
833.3036, 481.7539
833.7857, 490.5713
834.2678, 497.5879
834.7499, 488.0396
835.2321, 455.9077
835.7142, 420.0747
836.1963, 412.4492
836.6784, 422.2300
837.1605, 405.6528
837.6426, 348.8042
838.1248, 291.3398
838.6069, 266.8521
839.0890, 257.2925
839.5711, 243.3452
840.0532, 219.7920
840.5353, 193.3281
841.0175, 159.1919
841.4996, 127.7686
841.9817, 111.2358
842.4638, 110.0698
842.9459, 109.3242
843.4280, 107.4194
843.9102, 106.7954
844.3923, 111.1733
844.8744, 118.3184
845.3565, 125.7349
845.8386, 134.7871
846.3207, 137.2290
846.8029, 123.3130
847.2850, 105.3804
847.7671, 93.81445
848.2492, 88.72949
848.7313, 92.23340
849.2134, 108.4326
849.6956, 123.6328
850.1777, 114.6016
850.6598, 88.73291
851.1419, 79.82227
851.6240, 94.79053
852.1061, 106.4053
852.5883, 87.46191
853.0704, 60.06982
853.5525, 44.11230
854.0346, 45.24219
854.5167, 51.04346
854.9988, 64.41406
855.4810, 77.08740
855.9631, 83.81885
856.4452, 85.63184
856.9273, 77.90723
857.4094, 59.37012
857.8915, 43.47607
858.3737, 46.94482
858.8558, 58.88770
859.3379, 66.83887
859.8200, 69.33936
860.3021, 66.41504
860.7842, 56.16162
861.2664, 41.66699
861.7485, 19.60498
862.2306, 12.40479
862.7127, 13.02393
863.1948, 24.37402
863.6769, 58.83398
864.1591, 53.04834
864.6412, 25.01807
865.1233, 22.18213
865.6054, 43.66797
866.0875, 57.93848
866.5696, 33.41406
867.0518, 6.682129
867.5339, 3.862793
868.0160, 27.22705
868.4981, 38.46338
868.9802, 32.61182
869.4623, 26.08008
869.9445, 29.11572
870.4266, 37.71729
870.9087, 28.19727
871.3908, 2.773438
871.8729, 14.14941
872.3550, 2.809082
872.8372, 25.80908
873.3193, 31.47900
873.8014, 21.75830
874.2835, 11.01611
874.7656, 2.801270
875.2477, 10.62256
875.7299, 8.390625
876.2120, 1.228027
876.6941, 8.290527
877.1762, 12.78027
877.6583, 16.12891
878.1404, 16.92920
878.6226, 18.97461
879.1047, 31.56592
879.5869, 49.47559
880.0690, 59.59717
880.5511, 56.07764
881.0332, 44.74707
881.5153, 16.22852
881.9974, 15.45020
882.4796, 17.82764
882.9617, 15.87402
883.4438, 39.92920
883.9259, 41.37061
884.4080, 32.47998
884.8901, 30.48389
885.3723, 33.48975
885.8544, 37.75146
886.3365, 47.28906
886.8186, 49.02246
887.3007, 28.41357
887.7828, 0.1655270
888.2650, 15.81152
888.7471, 18.58105
889.2292, 7.555176
889.7113, 24.10254
890.1934, 54.29688
890.6755, 45.71680
891.1577, 11.97412
891.6398, 2.538574
892.1219, 13.49512
892.6040, 33.86670
893.0861, 43.43555
893.5682, 46.80176
894.0504, 48.22852
894.5325, 49.13428
895.0146, 44.70605
895.4967, 31.74219
895.9788, 19.36230
896.4609, 16.88525
896.9431, 22.42041
897.4252, 23.94922
897.9073, 20.80713
898.3894, 17.33398
898.8715, 16.89355
899.3536, 17.48535
899.8358, 16.85498
900.3179, 14.50830
900.8000, 15.42529
901.2821, 24.72900
901.7642, 30.22314
902.2463, 23.40527
902.7285, 7.195801
903.2106, 5.236816
903.6927, 17.03027
904.1748, 28.89893
904.6569, 35.54492
905.1390, 35.99121
905.6212, 26.35938
906.1033, 9.001465
906.5854, 6.554199
907.0675, 25.22021
907.5496, 31.61035
908.0317, 18.26514
908.5139, 8.110352
908.9960, 30.57129
909.4781, 49.00684
909.9602, 54.37695
910.4423, 37.56934
910.9244, 15.73047
911.4066, 8.145508
911.8887, 10.87744
912.3708, 16.65381
912.8529, 33.57666
913.3350, 39.22070
913.8171, 20.70068
914.2993, 4.249512
914.7814, 10.80420
915.2635, 2.533203
915.7456, 14.66064
916.2277, 22.67090
916.7098, 28.66113
917.1920, 38.60156
917.6741, 46.65820
918.1562, 41.58350
918.6383, 15.54688
919.1204, 3.155273
919.6025, 7.787598
920.0847, 1.450195
920.5668, 21.30908
921.0489, 67.87012
921.5310, 84.97070
922.0131, 70.20654
922.4952, 46.10645
922.9774, 26.82324
923.4595, 11.73926
923.9416, 1.248047
924.4237, 11.80811
924.9058, 15.06787
925.3879, 7.915039
925.8701, 6.975098
926.3522, 32.98926
926.8343, 66.83447
927.3164, 78.79199
927.7985, 66.79443
928.2806, 52.65430
928.7628, 46.39404
929.2449, 43.56250
929.7270, 36.22119
930.2091, 28.17822
930.6912, 23.15234
931.1733, 25.30469
931.6555, 27.45117
932.1376, 22.22217
932.6197, 17.37012
933.1018, 31.44482
933.5839, 69.78369
934.0660, 92.66748
934.5482, 90.64307
935.0303, 76.90332
935.5124, 61.87598
935.9945, 49.27100
936.4766, 47.30420
936.9587, 63.65723
937.4409, 74.30420
937.9230, 66.36914
938.4051, 53.64648
938.8872, 44.69189
939.3693, 37.79688
939.8514, 48.31152
940.3336, 80.53613
940.8157, 108.3667
941.2978, 97.92529
941.7799, 72.03125
942.2620, 67.46533
942.7441, 84.87646
943.2263, 93.93555
943.7084, 72.15381
944.1905, 50.47754
944.6726, 38.39014
945.1547, 36.52930
945.6368, 56.32324
946.1190, 99.46240
946.6011, 123.7334
947.0832, 99.80029
947.5653, 59.58984
948.0474, 41.41602
948.5295, 40.13867
949.0117, 43.79248
949.4938, 52.45166
949.9759, 60.46826
950.4580, 69.06201
950.9401, 74.27686
951.4222, 67.15771
951.9044, 47.35352
952.3865, 34.27930
952.8686, 30.74512
953.3507, 35.84521
953.8328, 57.48535
954.3149, 82.97705
954.7971, 95.62109
955.2792, 89.07861
955.7613, 80.24121
956.2434, 63.35059
956.7255, 55.17285
957.2076, 72.44434
957.6898, 113.8521
958.1719, 125.9131
958.6540, 109.1201
959.1361, 90.37891
959.6182, 89.28516
960.1003, 93.79346
960.5825, 91.50146
961.0646, 83.95898
961.5467, 82.68506
962.0288, 89.67090
962.5109, 104.4980
962.9930, 132.6553
963.4752, 163.5874
963.9573, 164.5850
964.4394, 140.6997
964.9215, 125.3652
965.4036, 137.0547
965.8857, 149.6587
966.3679, 126.1294
966.8500, 95.73242
967.3321, 99.57617
967.8142, 173.4668
968.2963, 226.5972
968.7784, 255.4790
969.2606, 269.0186
969.7427, 272.6123
970.2248, 267.9507
970.7069, 255.0093
971.1890, 234.1460
971.6711, 230.2612
972.1533, 271.7363
972.6354, 325.4434
973.1175, 372.4014
973.5996, 411.1216
974.0817, 444.0010
974.5638, 470.6045
975.0460, 492.0503
975.5281, 504.4487
976.0102, 516.3462
976.4923, 551.0581
976.9744, 601.0669
977.4565, 644.3809
977.9387, 665.0439
978.4208, 685.4087
978.9029, 712.0923
979.3850, 743.4727
979.8671, 779.7749
980.3492, 823.2280
980.8314, 857.3530
981.3135, 880.1543
981.7956, 894.6431
982.2777, 901.9707
982.7598, 904.2319
983.2419, 907.6470
983.7241, 915.0200
984.2062, 905.1646
984.6883, 845.4678
985.1704, 794.4478
985.6525, 784.0425
986.1346, 808.5781
986.6168, 809.6934
987.0989, 787.5786
987.5810, 748.1992
988.0631, 680.4492
988.5452, 608.9492
989.0273, 552.5532
989.5095, 511.3970
989.9916, 487.4468
990.4737, 509.0659
990.9558, 500.9507
991.4379, 443.2607
991.9200, 368.3862
992.4022, 327.8071
992.8843, 314.9097
993.3664, 299.7637
993.8485, 276.7866
994.3306, 252.9053
994.8127, 231.0342
995.2949, 213.4790
995.7770, 200.5103
996.2591, 191.1538
996.7412, 179.0181
997.2233, 163.3784
997.7054, 149.3545
998.1876, 141.8506
998.6697, 136.8906
999.1518, 121.9497
999.6339, 100.6221
1000.116, 87.03564
1000.598, 93.32422
1001.080, 103.9604
1001.562, 110.6470
1002.044, 113.3340
1002.527, 117.2168
1003.009, 122.6421
1003.491, 123.0547
1003.973, 116.3389
1004.455, 108.2881
1004.937, 102.5420
1005.419, 101.1108
1005.901, 106.6021
1006.384, 120.1094
1006.866, 134.6650
1007.348, 156.0400
1007.830, 167.7695
1008.312, 152.6943
1008.794, 118.9180
1009.276, 120.1606
1009.758, 152.3364
1010.240, 181.2109
1010.723, 180.4697
1011.205, 178.4316
1011.687, 187.0288
1012.169, 204.7290
1012.651, 223.5562
1013.133, 243.4873
1013.615, 269.7798
1014.097, 304.8115
1014.580, 336.1699
1015.062, 334.8828
1015.544, 318.2285
1016.026, 322.9824
1016.508, 360.7695
1016.990, 390.5977
1017.472, 388.1108
1017.954, 379.7910
1018.436, 378.3823
1018.919, 385.9873
1019.401, 409.7104
1019.883, 447.9702
1020.365, 479.4863
1020.847, 496.0742
1021.329, 495.3276
1021.811, 461.2295
1022.293, 408.8643
1022.776, 374.9834
1023.258, 382.1450
1023.740, 383.0410
1024.222, 373.9136
1024.704, 355.5654
1025.186, 322.2100
1025.668, 280.3984
1026.150, 255.4497
1026.632, 251.6719
1027.115, 251.3672
1027.597, 251.6973
1028.079, 244.9922
1028.561, 222.6030
1029.043, 186.3760
1029.525, 163.8950
1030.007, 156.2056
1030.489, 154.4458
1030.972, 158.5005
1031.454, 160.6099
1031.936, 145.6865
1032.418, 120.9668
1032.900, 102.1978
1033.382, 102.9434
1033.864, 96.96924
1034.346, 78.10303
1034.828, 56.55371
1035.311, 44.97656
1035.793, 41.62158
1036.275, 34.08057
1036.757, 21.24951
1037.239, 12.72705
1037.721, 15.25977
1038.203, 24.52197
1038.685, 41.91650
1039.167, 65.29297
1039.650, 77.36182
1040.132, 76.80908
1040.614, 69.16846
1041.096, 53.01074
1041.578, 36.52783
1042.060, 33.94873
1042.542, 40.67920
1043.024, 48.64941
1043.507, 58.66602
1043.989, 63.14600
1044.471, 59.86963
1044.953, 51.99072
1045.435, 37.80762
1045.917, 18.82764
1046.399, 19.06934
1046.881, 37.97168
1047.364, 54.65430
1047.846, 50.83936
1048.328, 43.82129
1048.810, 48.67334
1049.292, 60.89355
1049.774, 58.99414
1050.256, 37.32910
1050.738, 22.29736
1051.220, 21.68408
1051.703, 22.85303
1052.185, 1.014648
1052.667, 29.24170
1053.149, 41.98047
1053.631, 28.98193
1054.113, 13.26562
1054.595, 1.490723
1055.077, 14.89062
1055.559, 27.27051
1056.042, 38.12451
1056.524, 47.65381
1057.006, 54.60449
1057.488, 48.73682
1057.970, 3.441406
1058.452, 34.70361
1058.934, 27.64111
1059.416, 3.979492
1059.899, 19.40332
1060.381, 11.61328
1060.863, 11.12793
1061.345, 22.62988
1061.827, 32.09033
1062.309, 18.00439
1062.791, 3.910645
1063.273, 7.328613
1063.755, 9.408203
1064.238, 20.83594
1064.720, 12.67578
1065.202, 7.805176
1065.684, 13.16357
1066.166, 26.10449
1066.648, 47.51025
1067.130, 71.65820
1067.612, 69.36475
1068.094, 14.95801
1068.577, 28.46680
1069.059, 4.054688
1069.541, 36.63379
1070.023, 38.50586
1070.505, 11.80615
1070.987, 20.73682
1071.469, 15.65918
1071.951, 53.42676
1072.434, 60.91797
1072.916, 54.20508
1073.398, 47.73096
1073.880, 43.12988
1074.362, 45.23242
1074.844, 73.22754
1075.326, 73.89160
1075.808, 28.07764
1076.291, 25.04102
1076.773, 22.78125
1077.255, 16.11377
1077.737, 38.42188
1078.219, 35.90234
1078.701, 27.71191
1079.183, 14.88525
1079.665, 7.935059
1080.147, 14.80371
1080.630, 31.83643
1081.112, 36.34473
1081.594, 28.71973
1082.076, 20.48877
1082.558, 14.38379
1083.040, 12.39307
1083.522, 20.82227
1084.004, 32.44238
1084.486, 37.84180
1084.969, 37.90137
1085.451, 23.19238
1085.933, 12.70459
1086.415, 38.76953
1086.897, 19.87646
1087.379, 19.05176
1087.861, 33.63574
1088.343, 28.08008
1088.826, 24.35498
1089.308, 26.80811
1089.790, 38.23193
1090.272, 66.00049
1090.754, 94.14990
1091.236, 93.51904
1091.718, 70.35938
1092.200, 52.92627
1092.682, 45.64160
1093.165, 42.07129
1093.647, 33.08887
1094.129, 31.77783
1094.611, 53.69971
1095.093, 92.69092
1095.575, 100.3599
1096.057, 75.18604
1096.539, 57.44043
1097.022, 66.58789
1097.504, 80.57324
1097.986, 73.55420
1098.468, 58.62012
1098.950, 54.59619
1099.432, 70.65674
1099.914, 80.26221
1100.396, 81.97900
1100.879, 81.36523
1101.361, 81.62939
1101.843, 82.62256
1102.325, 87.80713
1102.807, 94.11963
1103.289, 90.27295
1103.771, 49.80957
1104.253, 31.00732
1104.735, 53.35791
1105.218, 87.74902
1105.700, 88.98438
1106.182, 65.40625
1106.664, 58.74414
1107.146, 73.77686
1107.628, 88.58008
1108.110, 93.67334
1108.592, 90.61230
1109.074, 75.60107
1109.557, 53.51270
1110.039, 45.80762
1110.521, 50.80811
1111.003, 49.65283
1111.485, 34.91016
1111.967, 23.87402
1112.449, 37.68994
1112.931, 60.30273
1113.414, 75.57080
1113.896, 80.87695
1114.378, 81.71680
1114.860, 76.21240
1115.342, 74.51660
1115.824, 84.24658
1116.306, 97.32764
1116.788, 110.3535
1117.271, 123.2881
1117.753, 131.1709
1118.235, 134.4780
1118.717, 127.8423
1119.199, 104.1797
1119.681, 83.63770
1120.163, 89.99414
1120.645, 114.5034
1121.127, 134.7734
1121.609, 150.6348
1122.092, 162.3882
1122.574, 170.1719
1123.056, 173.7422
1123.538, 170.3145
1124.020, 164.9741
1124.502, 167.8774
1124.984, 178.8530
1125.466, 198.9536
1125.949, 230.0571
1126.431, 255.0332
1126.913, 260.1855
1127.395, 263.2520
1127.877, 278.4482
1128.359, 303.1304
1128.841, 323.8223
1129.323, 342.5576
1129.806, 361.5068
1130.288, 381.6396
1130.770, 403.2812
1131.252, 435.6660
1131.734, 465.4795
1132.216, 471.9805
1132.698, 443.6162
1133.180, 427.6006
1133.662, 425.2153
1134.145, 428.4331
1134.627, 443.0259
1135.109, 459.5552
1135.591, 452.1201
1136.073, 431.0747
1136.555, 422.5884
1137.037, 455.1118
1137.519, 466.7275
1138.001, 446.5791
1138.484, 420.4844
1138.966, 415.2905
1139.448, 425.0273
1139.930, 438.9966
1140.412, 455.4854
1140.894, 465.5581
1141.376, 459.8867
1141.858, 455.8130
1142.341, 459.7622
1142.823, 466.0508
1143.305, 458.1494
1143.787, 439.5649
1144.269, 432.1294
1144.751, 443.2251
1145.233, 459.1636
1145.715, 472.7285
1146.198, 485.8110
1146.680, 499.7822
1147.162, 514.0879
1147.644, 522.4600
1148.126, 524.7417
1148.608, 517.2617
1149.090, 493.9028
1149.572, 473.6929
1150.054, 475.4849
1150.536, 484.1152
1151.019, 484.3037
1151.501, 474.7690
1151.983, 470.4111
1152.465, 471.3862
1152.947, 474.4077
1153.429, 481.7075
1153.911, 485.9468
1154.393, 476.7817
1154.876, 460.6753
1155.358, 450.0161
1155.840, 452.7534
1156.322, 437.6484
1156.804, 401.0977
1157.286, 363.3921
1157.768, 338.2949
1158.250, 323.2510
1158.733, 323.1919
1159.215, 331.4072
1159.697, 322.5908
1160.179, 287.1543
1160.661, 245.5723
1161.143, 194.8110
1161.625, 153.5493
1162.107, 154.0957
1162.589, 173.2607
1163.072, 170.8306
1163.554, 144.9019
1164.036, 120.7646
1164.518, 104.8853
1165.000, 90.89697
1165.482, 76.61621
1165.964, 64.68555
1166.446, 59.32178
1166.928, 60.25342
1167.411, 68.96533
1167.893, 87.44678
1168.375, 100.9346
1168.857, 107.3804
1169.339, 103.0498
1169.821, 79.39111
1170.303, 48.84912
1170.785, 53.56836
1171.268, 83.45801
1171.750, 102.7559
1172.232, 95.21240
1172.714, 87.62891
1173.196, 94.70752
1173.678, 101.1519
1174.160, 96.75684
1174.642, 83.50977
1175.125, 74.71875
1175.607, 69.61621
1176.089, 64.26123
1176.571, 50.71045
1177.053, 44.47461
1177.535, 61.96777
1178.017, 82.76514
1178.499, 89.28564
1178.981, 81.62109
1179.464, 59.41748
1179.946, 23.96777
1180.428, 4.577148
1180.910, 9.649414
1181.392, 8.725586
1181.874, 12.42969
1182.356, 15.31982
1182.838, 5.808594
1183.320, 15.16162
1183.803, 28.04102
1184.285, 31.26318
1184.767, 28.32568
1185.249, 15.26660
1185.731, 3.319824
1186.213, 0.6479490
1186.695, 5.454102
1187.177, 11.51025
1187.660, 18.44580
1188.142, 35.48438
1188.624, 65.92285
1189.106, 90.76123
1189.588, 94.27881
1190.070, 84.29590
1190.552, 61.00537
1191.034, 28.12451
1191.516, 6.572754
1191.999, 3.327637
1192.481, 2.267090
1192.963, 11.64062
1193.445, 23.88330
1193.927, 14.37988
1194.409, 0.8710940
1194.891, 2.583008
1195.373, 21.07910
1195.855, 40.77783
1196.338, 63.55225
1196.820, 71.38037
1197.302, 53.01709
1197.784, 25.65137
1198.266, 3.965332
1198.748, 25.07227
1199.230, 19.27979
1199.712, 20.69580
1200.195, 47.94971
1200.677, 61.95898
1201.159, 66.85107
1201.641, 64.35840
1202.123, 54.37549
1202.605, 23.64404
1203.087, 9.901367
1203.569, 14.36572
1204.052, 28.41895
1204.534, 52.76074
1205.016, 57.30811
1205.498, 52.60352
1205.980, 41.35693
1206.462, 28.54834
1206.944, 16.01221
1207.426, 6.949707
1207.908, 11.39111
1208.391, 41.42773
1208.873, 47.29199
1209.355, 22.02100
1209.837, 0.7187500
1210.319, 14.24902
1210.801, 42.29688
1211.283, 58.29736
1211.765, 63.09521
1212.247, 61.52148
1212.730, 51.54199
1213.212, 45.13623
1213.694, 44.09326
1214.176, 44.11377
1214.658, 40.88574
1215.140, 36.46436
1215.622, 32.74951
1216.104, 29.95264
1216.587, 27.80664
1217.069, 24.08252
1217.551, 29.19287
1218.033, 46.33643
1218.515, 66.11328
1218.997, 84.99561
1219.479, 96.02930
1219.961, 85.88184
1220.443, 55.88525
1220.926, 38.34961
1221.408, 37.50781
1221.890, 37.11963
1222.372, 32.83936
1222.854, 30.09668
1223.336, 40.09180
1223.818, 51.67773
1224.300, 45.88477
1224.782, 20.33105
1225.265, 27.38184
1225.747, 77.87256
1226.229, 108.3306
1226.711, 95.94873
1227.193, 65.05371
1227.675, 33.85303
1228.157, 7.537109
1228.639, 6.817383
1229.122, 7.827148
1229.604, 2.348145
1230.086, 10.22266
1230.568, 26.50684
1231.050, 49.31592
1231.532, 66.61377
1232.014, 57.76709
1232.496, 39.12598
1232.979, 32.03955
1233.461, 39.85156
1233.943, 40.92139
1234.425, 34.21094
1234.907, 31.34424
1235.389, 40.47510
1235.871, 51.45264
1236.353, 55.10645
1236.835, 54.19238
1237.318, 50.82227
1237.800, 43.78809
1238.282, 50.45215
1238.764, 72.01025
1239.246, 77.90186
1239.728, 31.50684
1240.210, 13.55127
1240.692, 0.4218750
1241.175, 36.48730
1241.657, 48.62305
1242.139, 29.46924
1242.621, 24.27490
1243.103, 33.60645
1243.585, 41.75879
1244.067, 35.02783
1244.549, 29.05859
1245.031, 39.34277
1245.514, 53.79639
1245.996, 54.04199
1246.478, 38.10693
1246.960, 35.13477
1247.442, 44.74707
1247.924, 50.08936
1248.406, 36.51855
1248.888, 19.72070
1249.370, 2.955566
1249.853, 8.505371
1250.335, 6.585938
1250.817, 8.625977
1251.299, 30.83008
1251.781, 58.26318
1252.263, 71.36523
1252.745, 41.95312
1253.227, 14.25439
1253.710, 6.614258
1254.192, 13.57959
1254.674, 21.07764
1255.156, 28.89111
1255.638, 34.53467
1256.120, 38.34180
1256.602, 43.17334
1257.084, 51.59961
1257.567, 56.82959
1258.049, 57.72607
1258.531, 53.72510
1259.013, 38.03418
1259.495, 16.91943
1259.977, 16.13770
1260.459, 35.75000
1260.941, 53.74023
1261.423, 59.87988
1261.906, 63.29883
1262.388, 67.02100
1262.870, 67.62988
1263.352, 53.76465
1263.834, 34.90967
1264.316, 40.03320
1264.798, 68.46631
1265.280, 79.21387
1265.762, 40.44287
1266.245, 15.12695
1266.727, 16.14990
1267.209, 30.26904
1267.691, 44.26904
1268.173, 56.62402
1268.655, 63.82275
1269.137, 68.34033
1269.619, 66.47217
1270.102, 48.89111
1270.584, 52.63330
1271.066, 91.91211
1271.548, 132.4521
1272.030, 120.2563
1272.512, 91.21875
1272.994, 94.94287
1273.476, 130.9980
1273.958, 131.0356
1274.441, 82.15137
1274.923, 47.29004
1275.405, 39.18359
1275.887, 42.06885
1276.369, 44.39062
1276.851, 46.01611
1277.333, 44.64844
1277.815, 41.91309
1278.297, 52.12793
1278.780, 76.68750
1279.262, 73.52246
1279.744, 32.56787
1280.226, 2.745605
1280.708, 13.57080
1281.190, 41.02783
1281.672, 50.47217
1282.154, 46.53906
1282.637, 46.75928
1283.119, 50.49707
1283.601, 52.04834
1284.083, 50.29395
1284.565, 45.69873
1285.047, 34.51904
1285.529, 25.18262
1286.011, 22.21436
1286.494, 23.45459
1286.976, 23.42139
1287.458, 22.42969
1287.940, 19.70068
1288.422, 13.80273
1288.904, 17.53076
1289.386, 52.02441
1289.868, 72.98389
1290.350, 59.22559
1290.833, 33.11523
1291.315, 47.81738
1291.797, 81.04150
1292.279, 82.53223
1292.761, 36.87793
1293.243, 20.51318
1293.725, 54.23438
1294.207, 81.61865
1294.689, 84.47803
1295.172, 76.45020
1295.654, 80.66650
1296.136, 85.55029
1296.618, 70.66406
1297.100, 30.55176
1297.582, 17.54199
1298.064, 36.86279
1298.546, 48.79395
1299.029, 39.91113
1299.511, 23.60156
1299.993, 4.760742
1300.475, 7.638184
1300.957, 2.801758
1301.439, 17.27441
1301.921, 52.49805
1302.403, 101.4800
1302.885, 116.1221
1303.368, 75.76025
1303.850, 35.36328
1304.332, 17.10156
1304.814, 16.42236
1305.296, 27.01562
1305.778, 36.05420
1306.260, 36.60400
1306.742, 34.47412
1307.224, 23.30273
1307.707, 0.0000000E+00
##END=



