##NAMES=Brannerite
##RRUFFID=R080091
##IDEAL CHEMISTRY=UTi_2_O_6_
##LOCALITY=Crocker's Well, South Australia, Australia
##OWNER=RRUFF
##SOURCE=Michael Scott
##DESCRIPTION=Light brown fragment from metamict sample R060613, after heating at T = 1000 C for 18 hours
##STATUS=The identification of this mineral has been confirmed by X-ray diffraction.
##URL=rruff.info/R080091
145.8685, 0.0000000E+00
146.3506, 8.987000
146.8327, 0.3723140
147.3148, 4.888550
147.7969, 0.3409420
148.2791, 8.804321
148.7612, 20.63208
149.2433, 35.21765
149.7254, 54.42822
150.2075, 78.62488
150.6896, 105.8695
151.1718, 135.0876
151.6539, 165.8246
152.1360, 198.7299
152.6181, 233.7612
153.1002, 270.7275
153.5823, 309.1345
154.0645, 348.5936
154.5466, 389.9624
155.0287, 433.5750
155.5108, 481.6056
155.9929, 530.1572
156.4750, 577.8790
156.9572, 625.2367
157.4393, 673.3180
157.9214, 722.0101
158.4035, 772.0182
158.8856, 823.8936
159.3677, 880.0525
159.8499, 935.9297
160.3320, 989.3618
160.8141, 1040.703
161.2962, 1092.494
161.7783, 1145.766
162.2604, 1199.413
162.7426, 1252.587
163.2247, 1305.706
163.7068, 1358.103
164.1889, 1409.960
164.6710, 1460.833
165.1531, 1510.206
165.6353, 1557.952
166.1174, 1603.770
166.5995, 1647.326
167.0816, 1689.340
167.5637, 1728.178
168.0458, 1762.802
168.5280, 1792.920
169.0101, 1819.725
169.4922, 1845.112
169.9743, 1867.228
170.4564, 1883.316
170.9385, 1891.541
171.4207, 1893.735
171.9028, 1891.485
172.3849, 1884.898
172.8670, 1873.403
173.3491, 1856.744
173.8312, 1834.835
174.3134, 1807.332
174.7955, 1772.903
175.2776, 1733.698
175.7597, 1692.141
176.2418, 1647.936
176.7239, 1602.094
177.2061, 1553.948
177.6882, 1503.694
178.1703, 1452.916
178.6524, 1401.538
179.1345, 1350.024
179.6166, 1300.241
180.0988, 1251.789
180.5809, 1204.714
181.0630, 1158.423
181.5451, 1112.506
182.0272, 1068.949
182.5093, 1027.302
182.9915, 987.9292
183.4736, 953.0396
183.9557, 922.2980
184.4378, 893.7238
184.9199, 864.0427
185.4020, 834.3921
185.8842, 806.0495
186.3663, 781.2484
186.8484, 758.8322
187.3305, 735.7095
187.8126, 710.8422
188.2947, 685.4691
188.7769, 661.7412
189.2590, 639.8743
189.7411, 618.8864
190.2232, 597.8856
190.7053, 577.1882
191.1874, 558.1188
191.6696, 540.8781
192.1517, 524.9179
192.6338, 509.4182
193.1159, 494.4167
193.5980, 479.4590
194.0801, 464.3967
194.5623, 449.2738
195.0444, 433.5331
195.5265, 416.9706
196.0086, 400.1503
196.4907, 384.3573
196.9728, 369.6774
197.4550, 355.2235
197.9371, 340.5291
198.4192, 325.5912
198.9013, 310.4478
199.3834, 295.0425
199.8655, 279.5623
200.3477, 264.0994
200.8298, 248.6290
201.3119, 233.4520
201.7940, 218.6520
202.2761, 204.2649
202.7582, 189.8611
203.2404, 175.2626
203.7225, 161.0512
204.2046, 147.7972
204.6867, 135.7399
205.1688, 124.0902
205.6509, 112.3594
206.1331, 100.1787
206.6152, 89.08154
207.0973, 79.35425
207.5794, 70.67926
208.0615, 62.06653
208.5436, 53.36023
209.0258, 45.04089
209.5079, 37.50568
209.9900, 30.86957
210.4721, 24.56989
210.9542, 18.49359
211.4363, 12.72900
211.9185, 7.634766
212.4006, 3.315186
212.8827, 0.6462400
213.3648, 4.390747
213.8469, 8.055359
214.3290, 11.29852
214.8112, 14.12097
215.2933, 16.49579
215.7754, 18.42175
216.2575, 19.74567
216.7396, 20.94312
217.2217, 22.30127
217.7038, 23.93347
218.1860, 25.33734
218.6681, 26.33679
219.1502, 27.08478
219.6323, 28.17468
220.1144, 29.84839
220.5965, 31.39307
221.0787, 32.42316
221.5608, 32.98657
222.0429, 32.83215
222.5250, 31.66779
223.0071, 29.78949
223.4892, 28.31390
223.9714, 27.53314
224.4535, 26.68066
224.9356, 25.31696
225.4177, 23.21393
225.8998, 21.13678
226.3819, 19.18866
226.8641, 17.28076
227.3462, 15.15729
227.8283, 12.91669
228.3104, 10.32263
228.7925, 7.229675
229.2746, 3.388977
229.7568, 0.4429930
230.2389, 4.283325
230.7210, 8.107727
231.2031, 11.71802
231.6852, 14.85486
232.1673, 18.14856
232.6495, 21.90845
233.1316, 26.31421
233.6137, 30.74292
234.0958, 34.87823
234.5779, 39.05597
235.0600, 44.25452
235.5422, 51.12134
236.0243, 58.14905
236.5064, 64.61517
236.9885, 69.97333
237.4706, 75.96661
237.9527, 82.63800
238.4349, 89.86279
238.9170, 97.34570
239.3991, 105.3583
239.8812, 113.2114
240.3633, 120.5140
240.8454, 126.7321
241.3276, 133.7288
241.8097, 141.6951
242.2918, 150.2870
242.7739, 158.7289
243.2560, 167.1253
243.7381, 175.2197
244.2203, 182.8083
244.7024, 189.5073
245.1845, 196.8190
245.6666, 204.9047
246.1487, 213.5280
246.6308, 222.4787
247.1130, 232.1499
247.5951, 241.5425
248.0772, 250.1057
248.5593, 257.5428
249.0414, 265.4432
249.5235, 274.1500
250.0057, 283.0836
250.4878, 291.4041
250.9699, 298.7861
251.4520, 306.1581
251.9341, 313.8253
252.4162, 322.0018
252.8984, 329.5704
253.3805, 336.3513
253.8626, 342.7117
254.3447, 349.0837
254.8268, 355.9360
255.3089, 362.0430
255.7911, 366.8638
256.2732, 370.2697
256.7553, 373.7523
257.2374, 377.5289
257.7195, 381.1846
258.2017, 384.1605
258.6838, 386.2156
259.1659, 388.2362
259.6480, 390.6610
260.1301, 393.5265
260.6122, 395.2754
261.0944, 395.6420
261.5765, 395.2267
262.0586, 394.6544
262.5407, 393.9736
263.0228, 393.0276
263.5049, 391.7984
263.9871, 390.2795
264.4692, 388.5315
264.9513, 386.5472
265.4334, 384.3351
265.9155, 381.8433
266.3976, 379.0802
266.8798, 376.1700
267.3619, 373.2434
267.8440, 370.1923
268.3261, 366.2731
268.8082, 361.2280
269.2903, 355.7861
269.7725, 350.6962
270.2546, 346.2443
270.7367, 340.6753
271.2188, 333.5458
271.7009, 325.2107
272.1830, 316.9995
272.6652, 309.0140
273.1473, 301.1262
273.6294, 293.3239
274.1115, 285.7477
274.5936, 277.6506
275.0757, 268.8549
275.5579, 259.4681
276.0400, 249.9658
276.5221, 240.3130
277.0042, 230.8021
277.4863, 221.5873
277.9684, 212.6439
278.4506, 203.8332
278.9327, 195.3028
279.4148, 186.8141
279.8969, 177.7938
280.3790, 168.2533
280.8611, 158.7189
281.3433, 149.2217
281.8254, 139.7071
282.3075, 131.0585
282.7896, 123.4312
283.2717, 116.4774
283.7538, 109.6476
284.2360, 102.9399
284.7181, 96.32227
285.2002, 89.66907
285.6823, 83.04810
286.1644, 76.98785
286.6465, 71.54669
287.1287, 66.75330
287.6108, 62.64728
288.0929, 59.19849
288.5750, 56.21063
289.0571, 53.69708
289.5392, 51.51379
290.0214, 49.27069
290.5035, 46.96576
290.9856, 44.64624
291.4677, 42.12744
291.9498, 39.50055
292.4319, 37.49921
292.9141, 36.45746
293.3962, 36.11829
293.8783, 35.94269
294.3604, 35.92688
294.8425, 35.88611
295.3246, 35.70062
295.8068, 35.38959
296.2889, 34.90057
296.7710, 33.97552
297.2531, 33.14343
297.7352, 33.41364
298.2173, 34.69177
298.6995, 36.22620
299.1816, 37.49432
299.6637, 38.61005
300.1458, 39.74152
300.6279, 40.87762
301.1100, 42.13416
301.5922, 43.59985
302.0743, 45.27051
302.5564, 47.15356
303.0385, 49.36151
303.5206, 51.73840
304.0027, 54.24280
304.4849, 56.94269
304.9670, 59.30194
305.4491, 60.54297
305.9312, 60.99866
306.4133, 61.46899
306.8954, 62.02716
307.3776, 62.99152
307.8597, 64.91492
308.3418, 67.95319
308.8239, 70.90857
309.3060, 72.87500
309.7881, 74.22522
310.2703, 75.46283
310.7524, 76.52655
311.2345, 77.79016
311.7166, 79.56409
312.1987, 81.84064
312.6808, 84.25696
313.1630, 86.71332
313.6451, 89.17828
314.1272, 91.64337
314.6093, 94.21747
315.0914, 96.62299
315.5735, 98.48212
316.0557, 99.91864
316.5378, 101.6222
317.0199, 103.9187
317.5020, 106.5605
317.9841, 109.4797
318.4662, 113.0972
318.9484, 116.2324
319.4305, 118.2083
319.9126, 119.3798
320.3947, 120.6750
320.8768, 122.7911
321.3589, 124.7810
321.8411, 126.0505
322.3232, 126.0068
322.8053, 126.4782
323.2874, 128.1015
323.7695, 130.3937
324.2516, 132.5908
324.7338, 134.4872
325.2159, 136.3463
325.6980, 138.3703
326.1801, 140.7501
326.6622, 142.4821
327.1443, 142.7824
327.6265, 142.7344
328.1086, 143.4394
328.5907, 146.0549
329.0728, 148.1462
329.5549, 149.2177
330.0370, 149.2672
330.5192, 149.3623
331.0013, 149.3858
331.4834, 149.5642
331.9655, 150.0212
332.4476, 150.4893
332.9297, 151.7719
333.4119, 154.5206
333.8940, 158.1910
334.3761, 160.2396
334.8582, 159.8676
335.3403, 159.0513
335.8224, 158.7576
336.3046, 159.1409
336.7867, 159.5368
337.2688, 159.8704
337.7509, 160.2448
338.2330, 160.9539
338.7151, 162.1373
339.1973, 163.2118
339.6794, 163.9062
340.1615, 164.1974
340.6436, 164.7022
341.1257, 165.5073
341.6078, 166.3769
342.0899, 166.9758
342.5721, 167.2856
343.0542, 167.6818
343.5363, 168.2678
344.0184, 169.0421
344.5005, 170.0700
344.9826, 171.3969
345.4648, 172.6688
345.9469, 173.4826
346.4290, 173.9039
346.9111, 174.3915
347.3932, 175.0253
347.8753, 175.7719
348.3575, 176.7393
348.8396, 177.8509
349.3217, 178.5223
349.8038, 177.8277
350.2859, 176.4019
350.7680, 175.9371
351.2502, 176.7816
351.7323, 177.9556
352.2144, 178.4852
352.6965, 178.5019
353.1786, 178.2867
353.6607, 177.9102
354.1429, 177.2875
354.6250, 176.3139
355.1071, 175.0189
355.5892, 173.7183
356.0713, 172.6664
356.5534, 171.8181
357.0356, 171.0693
357.5177, 170.8909
357.9998, 170.2615
358.4819, 168.0226
358.9640, 164.5054
359.4461, 161.5145
359.9283, 160.2780
360.4104, 159.8242
360.8925, 159.3576
361.3746, 158.7373
361.8567, 157.9182
362.3388, 156.9196
362.8210, 155.6974
363.3031, 154.1600
363.7852, 151.9901
364.2673, 149.6801
364.7494, 147.5384
365.2315, 145.7327
365.7137, 143.6900
366.1958, 140.7998
366.6779, 137.7396
367.1600, 135.2385
367.6421, 134.1267
368.1242, 132.8035
368.6064, 130.7346
369.0885, 127.8961
369.5706, 125.4055
370.0527, 123.2565
370.5348, 121.1539
371.0169, 118.9269
371.4991, 116.7811
371.9812, 114.2884
372.4633, 111.1495
372.9454, 107.5945
373.4275, 104.6873
373.9096, 102.8268
374.3918, 100.9374
374.8739, 98.53394
375.3560, 95.44580
375.8381, 92.37323
376.3202, 89.28278
376.8023, 86.32080
377.2845, 83.73077
377.7666, 81.57220
378.2487, 79.58368
378.7308, 77.75085
379.2129, 76.03198
379.6950, 74.52826
380.1772, 73.29095
380.6593, 71.87598
381.1414, 69.61896
381.6235, 66.65753
382.1056, 64.01923
382.5877, 61.94781
383.0699, 60.30872
383.5520, 59.09570
384.0341, 58.22968
384.5162, 57.07703
384.9983, 55.02509
385.4804, 52.40460
385.9626, 49.90631
386.4447, 47.61517
386.9268, 45.34631
387.4089, 42.74731
387.8910, 40.00226
388.3731, 37.60962
388.8553, 36.06219
389.3374, 34.77997
389.8195, 33.23798
390.3016, 31.47137
390.7837, 29.66925
391.2658, 28.02948
391.7480, 26.41998
392.2301, 24.69708
392.7122, 22.75537
393.1943, 20.80920
393.6764, 19.00128
394.1585, 17.29303
394.6407, 15.61633
395.1228, 13.75916
395.6049, 12.07397
396.0870, 10.80768
396.5691, 10.22412
397.0512, 9.346558
397.5334, 7.459229
398.0155, 5.336121
398.4976, 3.981628
398.9797, 4.146790
399.4618, 4.351501
399.9439, 4.440613
400.4261, 4.404785
400.9082, 3.856323
401.3903, 2.230408
401.8724, 0.6080320
402.3545, 0.2621460
402.8366, 0.1648560
403.3188, 0.1761470
403.8009, 0.4259640
404.2830, 1.463318
404.7651, 2.550903
405.2472, 3.751099
405.7293, 4.711121
406.2115, 5.243225
406.6936, 5.324036
407.1757, 5.385681
407.6578, 5.425720
408.1399, 5.465637
408.6220, 5.462402
409.1042, 5.421814
409.5863, 5.853943
410.0684, 7.219543
410.5505, 8.855835
411.0326, 9.090271
411.5147, 7.965698
411.9969, 6.705933
412.4790, 6.072571
412.9611, 5.967896
413.4432, 6.277771
413.9253, 7.128296
414.4074, 7.859375
414.8896, 7.585876
415.3717, 6.637024
415.8538, 5.789368
416.3359, 5.420471
416.8180, 5.313416
417.3001, 5.388977
417.7823, 5.645203
418.2644, 5.709473
418.7465, 5.276489
419.2286, 4.627197
419.7107, 4.001831
420.1928, 3.210327
420.6750, 2.821777
421.1571, 2.285156
421.6392, 1.288086
422.1213, 0.6323850
422.6034, 0.2992550
423.0855, 1.251770
423.5677, 0.5473630
424.0498, 0.5090330
424.5319, 0.4993900
425.0140, 0.4337770
425.4961, 0.3394170
425.9782, 0.5760500
426.4604, 0.8151860
426.9425, 2.155273
427.4246, 1.827942
427.9067, 0.7575680
428.3888, 7.1227998E-02
428.8709, 3.0396000E-02
429.3531, 9.3627997E-02
429.8352, 0.8155520
430.3173, 2.346191
430.7994, 3.303650
431.2815, 3.438782
431.7636, 3.311279
432.2458, 3.991211
432.7279, 5.536804
433.2100, 6.741089
433.6921, 6.911438
434.1742, 6.438171
434.6563, 6.997192
435.1385, 8.617676
435.6206, 10.14038
436.1027, 10.27448
436.5848, 9.527405
437.0669, 9.375488
437.5490, 10.30286
438.0312, 11.39844
438.5133, 11.46979
438.9954, 10.84717
439.4775, 10.43365
439.9596, 11.04840
440.4417, 11.87970
440.9239, 12.07745
441.4060, 11.60352
441.8881, 11.33154
442.3702, 11.88605
442.8523, 12.84479
443.3344, 13.80652
443.8166, 14.98535
444.2987, 15.78955
444.7808, 15.51685
445.2629, 14.65259
445.7450, 14.61267
446.2271, 16.54706
446.7093, 18.61823
447.1914, 20.20325
447.6735, 21.30334
448.1556, 21.88953
448.6377, 21.29553
449.1198, 20.56360
449.6020, 20.82916
450.0841, 22.83392
450.5662, 24.45984
451.0483, 25.35559
451.5304, 25.60846
452.0125, 25.62885
452.4947, 25.25897
452.9768, 24.93439
453.4589, 24.92535
453.9410, 25.23578
454.4231, 25.53381
454.9052, 25.88422
455.3874, 25.98187
455.8695, 25.16260
456.3516, 23.56757
456.8337, 22.32556
457.3158, 21.98077
457.7979, 22.02112
458.2801, 21.45648
458.7622, 20.37976
459.2443, 19.31512
459.7264, 18.60004
460.2085, 18.14410
460.6906, 17.98621
461.1728, 18.24487
461.6549, 18.33405
462.1370, 17.67883
462.6191, 16.62109
463.1012, 15.69049
463.5833, 15.11481
464.0655, 14.68848
464.5476, 14.17206
465.0297, 13.64050
465.5118, 13.71521
465.9939, 15.20361
466.4760, 16.87799
466.9582, 18.06213
467.4403, 18.44873
467.9224, 18.69434
468.4045, 18.67163
468.8866, 18.61450
469.3687, 18.84875
469.8509, 19.52856
470.3330, 20.21484
470.8151, 20.74823
471.2972, 21.15125
471.7793, 21.78418
472.2614, 22.70312
472.7436, 23.78192
473.2257, 24.92206
473.7078, 26.12256
474.1899, 27.48730
474.6720, 29.01276
475.1541, 30.69623
475.6363, 32.74408
476.1184, 35.05829
476.6005, 36.97211
477.0826, 37.91956
477.5647, 38.48297
478.0468, 39.62958
478.5290, 41.30945
479.0111, 43.24298
479.4932, 45.32019
479.9753, 47.51282
480.4574, 49.80975
480.9395, 52.17926
481.4217, 54.60651
481.9038, 57.04187
482.3859, 59.42871
482.8680, 61.70197
483.3501, 64.58636
483.8322, 66.52649
484.3144, 66.45538
484.7965, 64.36377
485.2786, 62.55267
485.7607, 61.12982
486.2428, 60.28790
486.7249, 60.21301
487.2071, 61.74896
487.6892, 62.25793
488.1713, 61.36157
488.6534, 59.73047
489.1355, 58.36151
489.6176, 57.44293
490.0998, 56.22009
490.5819, 54.42255
491.0640, 52.16107
491.5461, 50.08167
492.0282, 48.17804
492.5103, 46.45099
492.9925, 45.15717
493.4746, 44.10907
493.9567, 42.39099
494.4388, 39.82471
494.9209, 37.00189
495.4030, 34.45062
495.8852, 32.13574
496.3673, 29.90521
496.8494, 27.80939
497.3315, 25.67761
497.8136, 23.22406
498.2957, 20.52612
498.7779, 18.05035
499.2600, 16.05151
499.7421, 14.31030
500.2242, 12.73315
500.7063, 11.34814
501.1884, 9.863647
501.6706, 8.000305
502.1527, 6.105408
502.6348, 4.568542
503.1169, 3.703369
503.5990, 2.911804
504.0811, 2.262146
504.5633, 1.670532
505.0454, 0.7165530
505.5275, 0.9503780
506.0096, 2.331360
506.4917, 2.909668
506.9738, 2.600586
507.4560, 2.705200
507.9381, 3.361633
508.4202, 4.069580
508.9023, 4.404236
509.3844, 4.362854
509.8665, 3.822083
510.3487, 2.656067
510.8308, 1.166260
511.3129, 0.1975710
511.7950, 1.457153
512.2772, 2.700684
512.7593, 3.933105
513.2414, 5.199158
513.7235, 6.548218
514.2056, 7.983398
514.6877, 9.542908
515.1699, 11.32373
515.6520, 13.19666
516.1341, 15.01941
516.6162, 16.63849
517.0983, 18.44092
517.5804, 20.76135
518.0626, 23.29596
518.5447, 25.55768
519.0268, 27.25549
519.5089, 28.91412
519.9910, 30.51141
520.4731, 32.05786
520.9553, 33.97235
521.4374, 36.49585
521.9195, 39.03577
522.4016, 41.23157
522.8837, 42.97992
523.3658, 44.92834
523.8480, 47.24109
524.3301, 49.56421
524.8122, 51.29498
525.2943, 52.45844
525.7764, 53.73077
526.2585, 55.27026
526.7407, 57.05237
527.2228, 59.23193
527.7049, 61.74005
528.1870, 64.06348
528.6691, 65.79449
529.1512, 67.23718
529.6334, 68.72260
530.1155, 70.28113
530.5976, 71.85620
531.0797, 73.38446
531.5618, 74.93353
532.0439, 76.57996
532.5261, 78.76849
533.0082, 80.45178
533.4903, 81.08624
533.9724, 81.06879
534.4545, 81.27161
534.9366, 82.22150
535.4188, 82.88245
535.9009, 83.00433
536.3830, 82.60052
536.8651, 81.96600
537.3472, 80.98273
537.8293, 80.03119
538.3115, 79.50305
538.7936, 79.47437
539.2757, 78.91821
539.7578, 77.72772
540.2399, 76.19965
540.7220, 74.59796
541.2042, 72.96497
541.6863, 71.43457
542.1684, 70.05188
542.6505, 68.75720
543.1326, 67.49786
543.6147, 66.25598
544.0969, 64.93884
544.5790, 63.46790
545.0611, 61.93604
545.5432, 60.43665
546.0253, 58.98468
546.5074, 57.46637
546.9896, 55.23999
547.4717, 53.27924
547.9538, 52.40417
548.4359, 54.22205
548.9180, 55.12042
549.4001, 54.20538
549.8823, 52.41205
550.3644, 51.35699
550.8465, 51.54651
551.3286, 51.51831
551.8107, 50.91370
552.2928, 49.78168
552.7750, 48.37213
553.2571, 46.56671
553.7392, 45.03381
554.2213, 44.29535
554.7034, 44.24316
555.1855, 44.29584
555.6677, 44.44263
556.1498, 44.47162
556.6319, 44.09991
557.1140, 43.45337
557.5961, 42.78058
558.0782, 42.11383
558.5604, 41.50116
559.0425, 41.08612
559.5246, 40.73645
560.0067, 40.18195
560.4888, 39.36859
560.9709, 38.30176
561.4531, 36.91138
561.9352, 35.20056
562.4173, 33.49219
562.8994, 31.53137
563.3815, 29.74847
563.8636, 28.50885
564.3458, 28.41882
564.8279, 27.44073
565.3100, 25.22345
565.7921, 22.47375
566.2742, 20.13849
566.7563, 18.27551
567.2385, 16.53491
567.7206, 14.98572
568.2027, 13.45117
568.6848, 11.22443
569.1669, 8.432312
569.6490, 6.236084
570.1312, 5.717102
570.6133, 5.915833
571.0954, 5.449829
571.5775, 4.315125
572.0596, 3.067078
572.5417, 1.861450
573.0239, 0.8046260
573.5060, 2.0203000E-02
573.9881, 0.4369510
574.4702, 0.7635500
574.9523, 0.9263310
575.4344, 1.024231
575.9166, 1.199524
576.3987, 1.695801
576.8808, 1.967834
577.3629, 1.860046
577.8450, 1.497742
578.3271, 1.300781
578.8093, 1.321228
579.2914, 1.378601
579.7735, 1.482727
580.2556, 1.596130
580.7377, 1.422241
581.2198, 0.9755860
581.7020, 0.1566160
582.1841, 1.429260
582.6662, 3.408142
583.1483, 4.896667
583.6304, 5.712036
584.1125, 6.258850
584.5947, 6.772705
585.0768, 7.283203
585.5589, 7.828552
586.0410, 8.233948
586.5231, 8.913696
587.0052, 10.12439
587.4873, 11.76642
587.9694, 13.52875
588.4515, 15.89362
588.9337, 17.83850
589.4158, 18.85754
589.8979, 18.94415
590.3800, 19.70020
590.8621, 21.32971
591.3442, 23.26099
591.8264, 25.20856
592.3085, 27.19147
592.7906, 28.74646
593.2727, 29.72736
593.7548, 30.71399
594.2369, 32.46667
594.7191, 34.83514
595.2012, 37.31396
595.6833, 40.02753
596.1654, 42.32300
596.6475, 42.99335
597.1296, 42.68036
597.6118, 42.88702
598.0939, 44.78772
598.5760, 46.96893
599.0581, 48.64337
599.5402, 49.84259
600.0223, 51.23633
600.5045, 53.26672
600.9866, 55.29077
601.4687, 57.04901
601.9508, 58.51630
602.4329, 59.85535
602.9150, 61.04346
603.3972, 62.12183
603.8793, 62.96228
604.3614, 63.47760
604.8435, 64.71033
605.3256, 66.87164
605.8077, 69.52295
606.2899, 72.18152
606.7720, 74.77313
607.2541, 76.83331
607.7362, 77.83447
608.2183, 78.58472
608.7004, 79.97729
609.1826, 81.91638
609.6647, 84.02069
610.1468, 85.89301
610.6289, 88.08423
611.1110, 91.24915
611.5931, 95.50861
612.0753, 98.92126
612.5574, 100.1076
613.0395, 101.1648
613.5216, 103.3125
614.0037, 107.0627
614.4858, 110.6525
614.9680, 114.0207
615.4501, 117.3036
615.9322, 120.6757
616.4143, 124.1262
616.8964, 127.3950
617.3785, 130.1696
617.8607, 133.1648
618.3428, 138.0549
618.8249, 144.3967
619.3070, 150.3429
619.7891, 154.5384
620.2712, 158.2835
620.7534, 162.7599
621.2355, 167.9407
621.7176, 173.4955
622.1997, 179.2197
622.6818, 185.3374
623.1639, 192.2152
623.6461, 200.0496
624.1282, 207.4714
624.6103, 213.9584
625.0924, 220.3423
625.5745, 227.0962
626.0566, 234.3334
626.5388, 241.8110
627.0209, 249.4786
627.5030, 257.2977
627.9851, 265.3357
628.4672, 273.4948
628.9493, 281.2595
629.4315, 288.3936
629.9136, 295.2733
630.3957, 302.0952
630.8778, 309.0694
631.3599, 316.6949
631.8420, 326.1256
632.3242, 335.5553
632.8063, 343.5634
633.2884, 350.2622
633.7705, 356.7868
634.2526, 363.7804
634.7347, 370.4996
635.2169, 376.6964
635.6990, 382.3125
636.1811, 387.4611
636.6632, 392.1408
637.1453, 396.1826
637.6274, 399.3447
638.1096, 401.5534
638.5917, 404.0983
639.0738, 407.2854
639.5559, 410.0452
640.0380, 410.7747
640.5201, 409.8511
641.0023, 408.9279
641.4844, 408.5969
641.9665, 407.8226
642.4486, 405.3801
642.9307, 401.7639
643.4128, 397.9722
643.8950, 395.0518
644.3771, 391.3839
644.8592, 385.8444
645.3413, 378.7637
645.8234, 371.6526
646.3055, 365.1516
646.7877, 358.4043
647.2698, 351.1743
647.7519, 343.4191
648.2340, 335.6174
648.7161, 327.8924
649.1982, 319.8195
649.6804, 311.0920
650.1625, 301.7565
650.6446, 292.2157
651.1267, 282.4843
651.6088, 272.8284
652.0909, 263.6686
652.5731, 254.9085
653.0552, 246.2795
653.5373, 237.8369
654.0194, 229.3887
654.5015, 220.3908
654.9836, 211.2781
655.4658, 202.6301
655.9479, 194.9832
656.4300, 187.4241
656.9121, 179.4904
657.3942, 171.4533
657.8763, 164.1585
658.3585, 157.8303
658.8406, 151.5779
659.3227, 145.0793
659.8048, 138.3837
660.2869, 132.0823
660.7690, 126.1636
661.2512, 120.5417
661.7333, 115.3312
662.2154, 110.3641
662.6975, 105.3307
663.1796, 100.2223
663.6617, 95.29767
664.1439, 90.80292
664.6260, 86.53882
665.1081, 82.34790
665.5902, 78.30438
666.0723, 74.19568
666.5544, 69.88116
667.0366, 65.57269
667.5187, 61.42242
668.0008, 57.24268
668.4829, 53.71820
668.9650, 51.17719
669.4471, 49.03882
669.9293, 46.16174
670.4114, 42.53351
670.8935, 39.56079
671.3756, 37.79547
671.8577, 36.58545
672.3398, 34.80255
672.8220, 32.59314
673.3041, 30.51166
673.7862, 28.88306
674.2683, 27.42407
674.7504, 25.90674
675.2325, 24.35712
675.7147, 22.99487
676.1968, 22.14874
676.6789, 21.22089
677.1610, 19.89294
677.6431, 18.12177
678.1252, 16.66107
678.6074, 15.61914
679.0895, 14.71851
679.5716, 13.85748
680.0537, 13.02740
680.5358, 12.00623
681.0179, 10.76489
681.5001, 9.575378
681.9822, 8.807251
682.4643, 8.283630
682.9464, 7.627625
683.4285, 6.692688
683.9106, 5.908081
684.3928, 5.847839
684.8749, 5.992615
685.3570, 5.706970
685.8391, 4.279602
686.3212, 3.083557
686.8033, 2.538513
687.2855, 2.273987
687.7676, 1.696533
688.2497, 0.6544190
688.7318, 0.3502200
689.2139, 1.251892
689.6960, 2.028992
690.1782, 2.523132
690.6603, 2.747925
691.1424, 3.014160
691.6245, 3.478027
692.1066, 4.072266
692.5887, 4.892090
693.0709, 5.814392
693.5530, 6.293640
694.0351, 5.389648
694.5172, 4.466980
694.9993, 4.480469
695.4814, 5.517395
695.9636, 6.423096
696.4457, 7.007324
696.9278, 7.464722
697.4099, 8.008301
697.8920, 8.797607
698.3741, 8.412231
698.8563, 6.488953
699.3384, 4.510620
699.8205, 3.950134
700.3026, 4.517761
700.7847, 4.904724
701.2668, 4.982605
701.7490, 4.811035
702.2311, 4.333069
702.7132, 3.676636
703.1953, 3.051758
703.6774, 2.660278
704.1595, 1.978699
704.6417, 0.4102170
705.1238, 1.435486
705.6059, 2.658264
706.0880, 2.523438
706.5701, 2.960266
707.0522, 4.419373
707.5344, 6.350098
708.0165, 7.474121
708.4986, 7.716125
708.9807, 8.310364
709.4628, 9.783020
709.9449, 11.61713
710.4271, 12.52698
710.9092, 12.86609
711.3913, 13.96887
711.8734, 17.48273
712.3555, 21.18365
712.8376, 23.41534
713.3198, 24.41846
713.8019, 25.47021
714.2840, 26.74854
714.7661, 28.33722
715.2482, 30.27380
715.7303, 32.55164
716.2125, 35.01398
716.6946, 37.66595
717.1767, 40.52875
717.6588, 43.87939
718.1409, 47.57086
718.6230, 49.92181
719.1052, 50.91544
719.5873, 52.23007
720.0694, 55.52979
720.5515, 59.81931
721.0336, 63.94400
721.5157, 67.73804
721.9979, 71.35681
722.4800, 74.62354
722.9621, 77.93527
723.4442, 81.67883
723.9263, 86.36398
724.4084, 90.37167
724.8906, 93.32037
725.3727, 96.08243
725.8548, 99.57831
726.3369, 103.8796
726.8190, 108.2370
727.3011, 112.5684
727.7833, 116.7487
728.2654, 120.2819
728.7475, 123.4897
729.2296, 127.2215
729.7117, 132.0452
730.1938, 136.7445
730.6760, 140.2940
731.1581, 143.1895
731.6402, 146.2459
732.1223, 149.6979
732.6044, 153.2833
733.0865, 157.1035
733.5687, 160.9658
734.0508, 164.4852
734.5329, 167.6718
735.0150, 170.5143
735.4971, 172.9763
735.9792, 175.1717
736.4614, 177.4561
736.9435, 179.7475
737.4256, 181.6157
737.9077, 182.5822
738.3898, 183.2332
738.8719, 184.1255
739.3541, 185.1584
739.8362, 185.9749
740.3183, 186.2826
740.8004, 186.5036
741.2825, 187.1071
741.7646, 187.9274
742.2468, 187.3821
742.7289, 185.0391
743.2110, 182.4302
743.6931, 180.3352
744.1752, 178.5836
744.6573, 176.0817
745.1395, 172.8749
745.6216, 169.5981
746.1037, 166.6694
746.5858, 163.9208
747.0679, 161.2462
747.5500, 158.6331
748.0322, 156.1105
748.5143, 153.3594
748.9964, 150.9882
749.4785, 149.6949
749.9606, 150.0117
750.4427, 148.4217
750.9249, 144.0135
751.4070, 139.2017
751.8891, 135.7448
752.3712, 133.5967
752.8533, 131.7310
753.3354, 130.0727
753.8176, 128.4006
754.2997, 126.7104
754.7818, 124.8248
755.2639, 122.2239
755.7460, 118.6790
756.2281, 115.5624
756.7103, 114.0781
757.1924, 113.1936
757.6745, 111.9113
758.1566, 109.3602
758.6387, 107.8198
759.1208, 107.6624
759.6030, 108.0845
760.0851, 108.3558
760.5672, 108.4810
761.0493, 108.2887
761.5314, 107.6636
762.0135, 107.0514
762.4957, 107.1121
762.9778, 107.5401
763.4599, 107.6948
763.9420, 107.1685
764.4241, 107.0049
764.9063, 108.0862
765.3884, 109.7326
765.8705, 111.1162
766.3526, 112.2967
766.8347, 112.9060
767.3168, 112.6284
767.7990, 112.0526
768.2811, 112.1008
768.7632, 112.8056
769.2453, 113.5067
769.7274, 114.1009
770.2095, 114.5719
770.6917, 114.7931
771.1738, 114.8812
771.6559, 115.0830
772.1380, 115.4750
772.6201, 116.0195
773.1022, 116.8250
773.5844, 117.7436
774.0665, 118.5200
774.5486, 119.2948
775.0307, 119.6489
775.5128, 119.3582
775.9949, 118.7372
776.4771, 118.5563
776.9592, 118.8321
777.4413, 118.9315
777.9234, 118.5911
778.4055, 118.1036
778.8876, 117.9622
779.3698, 118.0409
779.8519, 118.0072
780.3340, 117.4810
780.8161, 117.0599
781.2982, 117.0581
781.7803, 117.3625
782.2625, 117.6953
782.7446, 118.3481
783.2267, 118.4756
783.7088, 117.6913
784.1909, 116.3809
784.6730, 115.7016
785.1552, 115.6387
785.6373, 115.4595
786.1194, 113.1742
786.6015, 113.4559
787.0836, 113.4005
787.5657, 113.0263
788.0479, 111.3695
788.5300, 111.3741
789.0121, 110.7166
789.4942, 110.0343
789.9763, 110.2797
790.4584, 108.8225
790.9406, 109.0577
791.4227, 108.6208
791.9048, 108.2980
792.3869, 106.9081
792.8690, 105.8314
793.3511, 105.0454
793.8333, 104.4585
794.3154, 104.3142
794.7975, 104.1022
795.2796, 103.0801
795.7617, 101.4481
796.2438, 99.93475
796.7260, 98.68884
797.2081, 97.75031
797.6902, 97.38574
798.1723, 97.40399
798.6544, 97.06131
799.1365, 96.35449
799.6187, 95.27588
800.1008, 93.61270
800.5829, 91.71790
801.0650, 90.72391
801.5471, 90.53806
802.0292, 90.50153
802.5114, 90.37363
802.9935, 90.14377
803.4756, 89.97580
803.9577, 89.71646
804.4398, 88.89368
804.9219, 86.58997
805.4041, 84.57584
805.8862, 83.33453
806.3683, 82.75266
806.8504, 82.57758
807.3325, 82.95398
807.8146, 83.10519
808.2968, 82.57629
808.7789, 81.77658
809.2610, 81.76508
809.7431, 82.33981
810.2252, 82.69888
810.7073, 82.87363
811.1895, 82.31839
811.6716, 80.02609
812.1537, 76.58643
812.6358, 74.18857
813.1179, 73.94742
813.6000, 73.70587
814.0822, 73.00464
814.5643, 71.94214
815.0464, 70.92606
815.5285, 69.97931
816.0106, 68.96478
816.4927, 67.64807
816.9749, 66.42810
817.4570, 66.15030
817.9391, 66.48975
818.4212, 66.46835
818.9033, 65.28799
819.3854, 64.06137
819.8676, 63.34222
820.3497, 62.93536
820.8318, 62.22028
821.3139, 61.13718
821.7960, 59.93903
822.2781, 58.63904
822.7603, 57.33487
823.2424, 56.16422
823.7245, 55.07819
824.2066, 53.88956
824.6887, 52.44116
825.1708, 50.94455
825.6530, 49.51691
826.1351, 48.14709
826.6172, 46.89487
827.0993, 45.83582
827.5814, 44.79755
828.0635, 43.74307
828.5457, 42.68390
829.0278, 41.57233
829.5099, 40.40796
829.9920, 39.28558
830.4741, 38.23169
830.9562, 37.23627
831.4384, 36.28036
831.9205, 35.34686
832.4026, 34.37912
832.8847, 33.27841
833.3668, 32.20953
833.8489, 31.18732
834.3311, 30.26321
834.8132, 29.54919
835.2953, 29.21777
835.7774, 28.74487
836.2595, 28.08563
836.7416, 27.25864
837.2238, 26.19028
837.7059, 24.90344
838.1880, 23.91046
838.6701, 23.38339
839.1522, 22.95413
839.6343, 22.38818
840.1165, 21.62900
840.5986, 20.59518
841.0807, 18.96799
841.5628, 17.55734
842.0449, 16.65329
842.5270, 15.97217
843.0092, 15.27563
843.4913, 14.57556
843.9734, 13.75513
844.4555, 12.75409
844.9376, 11.82199
845.4197, 11.36740
845.9019, 11.18848
846.3840, 10.81714
846.8661, 10.13861
847.3482, 9.407471
847.8303, 8.720062
848.3124, 8.076141
848.7946, 7.470978
849.2767, 6.915436
849.7588, 6.401031
850.2409, 5.915894
850.7230, 5.490662
851.2051, 5.184937
851.6873, 4.979340
852.1694, 4.691711
852.6515, 4.302521
853.1336, 3.828186
853.6157, 3.209045
854.0978, 2.536377
854.5800, 1.847900
855.0621, 1.133514
855.5442, 0.5445560
856.0263, 0.1931760
856.5084, 9.1124997E-02
856.9905, 0.3486330
857.4727, 0.5711360
857.9548, 0.8982540
858.4369, 1.339844
858.9190, 1.797363
859.4011, 2.259094
859.8832, 2.681610
860.3654, 3.009094
860.8475, 3.233185
861.3296, 3.298248
861.8117, 2.933929
862.2938, 2.643906
862.7759, 2.845291
863.2581, 3.422134
863.7402, 3.463882
864.2223, 2.751282
864.7044, 2.250839
865.1865, 2.447662
865.6686, 3.082687
866.1508, 3.562912
866.6329, 3.890884
867.1150, 4.011795
867.5971, 3.700485
868.0792, 3.370682
868.5613, 3.338593
869.0435, 3.496613
869.5256, 3.462692
870.0077, 3.113159
870.4898, 2.742157
870.9719, 2.411163
871.4540, 2.098648
871.9362, 1.700150
872.4183, 1.240692
872.9004, 0.9636540
873.3825, 0.9876560
873.8646, 1.126572
874.3467, 1.293289
874.8289, 1.428268
875.3110, 1.428848
875.7931, 1.130753
876.2752, 0.8672030
876.7573, 0.7366790
877.2394, 0.5927430
877.7216, 0.2342070
878.2037, 0.3604890
878.6858, 0.9241490
879.1679, 1.442474
879.6500, 1.814072
880.1321, 1.764313
880.6143, 1.565796
881.0964, 1.627167
881.5785, 2.065994
882.0606, 2.531631
882.5427, 2.853119
883.0248, 3.200027
883.5070, 3.728912
883.9891, 4.515320
884.4712, 5.071533
884.9533, 5.355194
885.4354, 5.573441
885.9175, 5.868164
886.3997, 6.227036
886.8818, 6.630768
887.3639, 7.078262
887.8460, 7.537445
888.3281, 7.936050
888.8102, 8.410629
889.2924, 9.084473
889.7745, 9.932571
890.2566, 10.75374
890.7387, 11.61786
891.2208, 12.21414
891.7029, 12.28322
892.1851, 12.08066
892.6672, 12.23657
893.1493, 12.70268
893.6314, 13.27580
894.1135, 13.91225
894.5956, 14.56720
895.0778, 15.25626
895.5599, 15.94151
896.0420, 16.51924
896.5241, 16.90335
897.0062, 17.36818
897.4883, 18.02872
897.9705, 18.69312
898.4526, 18.89513
898.9347, 18.76120
899.4168, 18.91321
899.8989, 19.59752
900.3810, 20.31310
900.8632, 20.58694
901.3453, 20.69911
901.8274, 20.97061
902.3095, 21.65848
902.7916, 22.14714
903.2737, 22.34103
903.7559, 22.46042
904.2380, 22.72377
904.7201, 23.10472
905.2022, 23.38792
905.6843, 23.56529
906.1664, 23.65390
906.6486, 23.66336
907.1307, 23.60443
907.6128, 23.44086
908.0949, 23.16667
908.5770, 22.99417
909.0591, 23.08681
909.5413, 23.09750
910.0234, 22.84190
910.5055, 22.38133
910.9876, 22.03043
911.4697, 21.79698
911.9518, 21.81609
912.4340, 22.54626
912.9161, 23.26103
913.3982, 23.04527
913.8803, 22.21028
914.3624, 21.63037
914.8445, 22.01625
915.3267, 22.04370
915.8088, 21.33492
916.2909, 20.22865
916.7730, 19.35303
917.2551, 18.70456
917.7372, 18.42059
918.2194, 18.63062
918.7015, 18.90007
919.1836, 18.91331
919.6657, 18.66164
920.1478, 18.05988
920.6299, 16.85771
921.1121, 15.68120
921.5942, 14.59416
922.0763, 13.68147
922.5584, 12.95586
923.0405, 12.37607
923.5226, 11.93498
924.0048, 11.66083
924.4869, 11.40158
924.9690, 11.04988
925.4511, 10.67719
925.9332, 10.41098
926.4153, 10.22443
926.8975, 9.750931
927.3796, 8.337341
927.8617, 7.313034
928.3438, 7.292999
928.8259, 8.008987
929.3080, 8.041351
929.7902, 7.406570
930.2723, 6.753937
930.7544, 6.374481
931.2365, 6.079666
931.7186, 5.690308
932.2007, 5.236694
932.6829, 4.787476
933.1650, 4.283859
933.6471, 3.943695
934.1292, 3.928207
934.6113, 3.950119
935.0934, 3.541489
935.5756, 2.718216
936.0577, 2.215668
936.5398, 2.170822
937.0219, 2.193573
937.5040, 1.723434
937.9861, 1.188019
938.4683, 1.137817
938.9504, 1.750290
939.4325, 2.478851
939.9146, 3.734192
940.3967, 4.413986
940.8788, 3.665024
941.3610, 1.654114
941.8431, 0.5294490
942.3252, 0.2528230
942.8073, 0.2233430
943.2894, 5.5557001E-02
943.7715, 3.3980999E-02
944.2537, 0.3302610
944.7358, 0.9725950
945.2179, 1.236282
945.7000, 0.6270290
946.1821, 0.1005400
946.6642, 0.2255710
947.1464, 0.3499600
947.6285, 0.1925200
948.1106, 0.2016450
948.5927, 0.4925080
949.0748, 0.5636440
949.5569, 0.6060330
950.0391, 0.8605650
950.5212, 1.144409
951.0033, 1.242905
951.4854, 1.021225
951.9675, 0.8183440
952.4496, 0.5896150
952.9318, 0.4693760
953.4139, 0.5962220
953.8960, 0.9248960
954.3781, 1.245544
954.8602, 1.549713
955.3423, 1.788620
955.8245, 1.934799
956.3066, 2.001968
956.7887, 1.928818
957.2708, 1.752136
957.7529, 1.767868
958.2350, 2.113159
958.7172, 2.335052
959.1993, 2.294113
959.6814, 2.085587
960.1635, 1.811310
960.6456, 1.535934
961.1277, 1.503418
961.6099, 1.932220
962.0920, 2.336441
962.5741, 2.504913
963.0562, 2.463196
963.5383, 2.195068
964.0204, 1.445816
964.5026, 1.294281
964.9847, 1.890579
965.4668, 2.579422
965.9489, 2.716110
966.4310, 2.525238
966.9131, 2.448517
967.3953, 2.511002
967.8774, 2.620895
968.3595, 2.712402
968.8416, 2.870895
969.3237, 3.177032
969.8058, 3.584930
970.2880, 3.914932
970.7701, 4.172516
971.2522, 4.283417
971.7343, 4.160858
972.2164, 3.986618
972.6985, 4.086853
973.1807, 4.299286
973.6628, 4.320694
974.1449, 3.837219
974.6270, 3.518707
975.1091, 3.592529
975.5912, 3.776321
976.0734, 3.780777
976.5555, 3.595932
977.0376, 3.656952
977.5197, 4.000732
978.0018, 4.319916
978.4839, 4.223602
978.9661, 4.076645
979.4482, 3.987778
979.9303, 4.858841
980.4124, 5.387222
980.8945, 5.591965
981.3766, 4.511032
981.8588, 5.089050
982.3409, 5.004684
982.8230, 4.894302
983.3051, 5.710175
983.7872, 4.815216
984.2693, 5.605682
984.7515, 5.716644
985.2336, 6.131516
985.7157, 5.086151
986.1978, 4.973442
986.6799, 4.825584
987.1620, 4.834480
987.6442, 5.034248
988.1263, 5.283470
988.6084, 5.485901
989.0905, 5.633110
989.5726, 5.689545
990.0547, 5.657410
990.5369, 5.606483
991.0190, 5.513275
991.5011, 5.475952
991.9832, 5.586929
992.4653, 5.793732
992.9474, 5.900391
993.4296, 5.892792
993.9117, 5.883575
994.3938, 5.892761
994.8759, 5.954872
995.3580, 6.260986
995.8401, 6.598518
996.3223, 6.597130
996.8044, 5.877861
997.2865, 5.477898
997.7686, 5.751335
998.2507, 6.127350
998.7328, 6.145187
999.2150, 5.814049
999.6971, 5.612617
1000.179, 5.557159
1000.661, 5.575554
1001.143, 5.706047
1001.626, 5.804962
1002.108, 5.769791
1002.590, 5.612106
1003.072, 5.406906
1003.554, 5.037704
1004.036, 4.941818
1004.518, 5.330620
1005.000, 5.793396
1005.482, 5.526512
1005.965, 4.781662
1006.447, 4.177704
1006.929, 3.849564
1007.411, 3.706833
1007.893, 3.870720
1008.375, 4.073524
1008.857, 4.153740
1009.339, 4.118103
1009.822, 3.693794
1010.304, 2.830963
1010.786, 2.144447
1011.268, 2.167511
1011.750, 2.506119
1012.232, 2.776131
1012.714, 2.945908
1013.196, 2.935661
1013.678, 2.520439
1014.161, 2.181480
1014.643, 1.974335
1015.125, 1.891113
1015.607, 2.026627
1016.089, 2.318352
1016.571, 2.303497
1017.053, 1.887810
1017.535, 1.471077
1018.018, 1.353127
1018.500, 1.362450
1018.982, 1.377106
1019.464, 1.392113
1019.946, 1.450020
1020.428, 1.585236
1020.910, 1.626747
1021.392, 1.441933
1021.874, 1.179802
1022.357, 1.186127
1022.839, 1.352341
1023.321, 1.414528
1023.803, 1.132385
1024.285, 0.9353560
1024.767, 1.064804
1025.249, 1.204231
1025.731, 0.9837570
1026.214, 0.3955460
1026.696, 0.1071930
1027.178, 0.1534730
1027.660, 0.3448640
1028.142, 0.6942140
1028.624, 0.9930340
1029.106, 0.8770370
1029.588, 0.4517670
1030.070, 0.6658710
1030.553, 2.109650
1031.035, 2.871323
1031.517, 2.325592
1031.999, 1.142456
1032.481, 0.3390880
1032.963, 0.1144870
1033.445, 0.2716140
1033.927, 8.0794998E-02
1034.410, 0.1424330
1034.892, 0.2806850
1035.374, 0.3835530
1035.856, 0.4953460
1036.338, 0.6162410
1036.820, 0.6385730
1037.302, 0.5634000
1037.784, 0.4529340
1038.266, 0.3401640
1038.749, 0.2103200
1039.231, 4.1959998E-03
1039.713, 0.2389070
1040.195, 0.3550190
1040.677, 0.4513850
1041.159, 0.1294400
1041.641, 0.8609240
1042.123, 1.837120
1042.605, 1.657837
1043.088, 0.8145830
1043.570, 0.9355770
1044.052, 2.192741
1044.534, 3.015785
1045.016, 2.167671
1045.498, 1.052284
1045.980, 0.3203350
1046.462, 5.9471000E-02
1046.945, 0.2055820
1047.427, 0.1135250
1047.909, 2.4375999E-02
1048.391, 0.1578600
1048.873, 0.2857820
1049.355, 0.4042590
1049.837, 0.5172120
1050.319, 0.6271290
1050.802, 0.7253490
1051.284, 0.8635480
1051.766, 1.101509
1052.248, 1.246124
1052.730, 1.042435
1053.212, 0.6543960
1053.694, 0.6116940
1054.176, 0.8676070
1054.658, 1.200592
1055.141, 1.645103
1055.623, 1.965515
1056.105, 1.979355
1056.587, 1.887337
1057.069, 1.982979
1057.551, 2.267357
1058.033, 2.594315
1058.515, 2.964340
1058.997, 3.253723
1059.480, 3.134377
1059.962, 2.418205
1060.444, 3.331955
1060.926, 3.908127
1061.408, 4.166000
1061.890, 3.137375
1062.372, 3.762947
1062.854, 3.723808
1063.337, 3.662643
1063.819, 4.542892
1064.301, 4.468933
1064.783, 4.651642
1065.265, 3.358887
1065.747, 4.277588
1066.229, 4.857414
1066.711, 5.119545
1067.193, 4.102722
1067.676, 4.754158
1068.158, 4.744057
1068.640, 4.696198
1069.122, 5.557404
1069.604, 4.712273
1070.086, 5.558701
1070.568, 5.731476
1071.050, 6.240616
1071.532, 6.103058
1072.015, 6.150925
1072.497, 6.555138
1072.979, 6.684036
1073.461, 6.774124
1073.943, 7.061028
1074.425, 7.391983
1074.907, 7.549362
1075.389, 7.554626
1075.872, 7.459045
1076.354, 7.225830
1076.836, 7.081642
1077.318, 7.128670
1077.800, 7.266350
1078.282, 7.437149
1078.764, 7.630943
1079.246, 7.777748
1079.729, 7.920929
1080.211, 7.970596
1080.693, 7.919846
1081.175, 7.803436
1081.657, 7.637329
1082.139, 7.420418
1082.621, 7.311264
1083.103, 7.311874
1083.585, 7.343147
1084.068, 7.379059
1084.550, 7.316490
1085.032, 6.954247
1085.514, 6.473778
1085.996, 6.237465
1086.478, 6.537148
1086.960, 6.474083
1087.442, 5.922028
1087.924, 5.315025
1088.406, 5.064713
1088.889, 5.036453
1089.371, 5.040558
1089.853, 5.046661
1090.335, 4.961189
1090.817, 4.623718
1091.299, 4.358177
1091.781, 4.261711
1092.263, 4.259636
1092.746, 4.289307
1093.228, 4.308594
1093.710, 4.042206
1094.192, 3.404770
1094.674, 2.897026
1095.156, 2.970184
1095.638, 3.162773
1096.120, 3.140434
1096.603, 2.936401
1097.085, 2.910873
1097.567, 3.074043
1098.049, 3.120308
1098.531, 2.904976
1099.013, 2.615738
1099.495, 2.412346
1099.977, 2.252060
1100.459, 2.059135
1100.942, 1.753036
1101.424, 1.682564
1101.906, 1.953972
1102.388, 2.125664
1102.870, 1.800934
1103.352, 1.243370
1103.834, 0.9327240
1104.316, 0.8135450
1104.798, 0.7421800
1105.281, 0.7455290
1105.763, 0.6790920
1106.245, 0.4686510
1106.727, 0.2724760
1107.209, 0.3037190
1107.691, 0.5021740
1108.173, 0.6039810
1108.655, 0.5995250
1109.138, 0.5814970
1109.620, 0.6139370
1110.102, 0.6321180
1110.584, 0.6245120
1111.066, 0.5704270
1111.548, 0.3521190
1112.030, 2.4071001E-02
1112.512, 0.1015850
1112.995, 0.2398610
1113.477, 0.5998760
1113.959, 0.4063570
1114.441, 0.2475740
1114.923, 0.9018780
1115.405, 2.327606
1115.887, 2.595985
1116.369, 1.481071
1116.851, 0.4739840
1117.333, 0.1154560
1117.816, 7.7353999E-02
1118.298, 1.5807999E-02
1118.780, 9.7732998E-02
1119.262, 3.9452001E-02
1119.744, 0.3173070
1120.226, 0.3702850
1120.708, 4.2923000E-02
1121.190, 0.3810960
1121.673, 0.2405620
1122.155, 0.1485060
1122.637, 0.2734600
1123.119, 0.1954350
1123.601, 7.8651004E-02
1124.083, 2.6772000E-02
1124.565, 0.1423340
1125.047, 0.3308560
1125.530, 0.4490130
1126.012, 0.2980120
1126.494, 5.4366998E-02
1126.976, 0.2684170
1127.458, 0.3305440
1127.940, 0.2216720
1128.422, 0.4292070
1128.904, 0.8425900
1129.386, 0.4896700
1129.869, 0.1956020
1130.351, 0.5853730
1130.833, 0.6824800
1131.315, 0.6651000
1131.797, 0.5485460
1132.279, 0.3918760
1132.761, 0.5345690
1133.243, 0.2628330
1133.725, 0.7201230
1134.208, 0.8556060
1134.690, 0.2936330
1135.172, 0.2149660
1135.654, 5.8502000E-02
1136.136, 0.1256410
1136.618, 0.6150360
1137.100, 0.3493270
1137.582, 0.3767320
1138.065, 0.4274370
1138.547, 0.7864380
1139.029, 0.4755630
1139.511, 0.3709030
1139.993, 0.9348450
1140.475, 1.128021
1140.957, 0.2934110
1141.439, 0.4466930
1141.922, 0.2435230
1142.404, 4.2815998E-02
1142.886, 0.4330060
1143.368, 0.6596910
1143.850, 0.6753850
1144.332, 0.6038060
1144.814, 0.4698640
1145.296, 0.3316040
1145.778, 0.3565830
1146.260, 0.4914700
1146.743, 0.5705640
1147.225, 0.4714360
1147.707, 0.3894580
1148.189, 0.3444750
1148.671, 0.3340230
1149.153, 0.3389360
1149.635, 0.3740230
1150.117, 0.6101000
1150.600, 0.9920500
1151.082, 1.146172
1151.564, 0.6506200
1152.046, 0.1751170
1152.528, 6.0309999E-02
1153.010, 0.1294250
1153.492, 9.7359002E-02
1153.974, 2.8206000E-02
1154.457, 0.1859970
1154.939, 0.3682560
1155.421, 0.4736180
1155.903, 0.3617780
1156.385, 0.2232820
1156.867, 0.1610570
1157.349, 0.1572270
1157.831, 0.1631930
1158.313, 0.1777420
1158.796, 0.3275530
1159.278, 0.6595380
1159.760, 0.9096980
1160.242, 0.7068940
1160.724, 0.4467620
1161.206, 0.5125810
1161.688, 0.8528670
1162.170, 0.9810940
1162.652, 0.8817520
1163.135, 0.7158740
1163.617, 0.4844820
1164.099, 0.3487930
1164.581, 0.5823060
1165.063, 0.9325790
1165.545, 1.120216
1166.027, 1.098091
1166.509, 1.109863
1166.992, 1.157959
1167.474, 1.229515
1167.956, 1.349747
1168.438, 1.434517
1168.920, 1.342865
1169.402, 1.158516
1169.884, 0.9744870
1170.366, 0.7457430
1170.849, 0.8147510
1171.331, 1.291733
1171.813, 1.660301
1172.295, 1.542046
1172.777, 1.233147
1173.259, 1.222717
1173.741, 1.376625
1174.223, 1.440826
1174.705, 1.221176
1175.188, 1.149590
1175.670, 1.287590
1176.152, 1.424950
1176.634, 1.319145
1177.116, 0.5292510
1177.598, 1.331886
1178.080, 1.794632
1178.562, 1.930336
1179.044, 0.7652510
1179.527, 1.265106
1180.009, 1.113510
1180.491, 0.9348450
1180.973, 1.680862
1181.455, 0.7204740
1181.937, 1.446304
1182.419, 1.491837
1182.901, 1.836731
1183.384, 1.505280
1183.866, 1.387550
1184.348, 1.955086
1184.830, 2.154564
1185.312, 1.772003
1185.794, 2.153992
1186.276, 1.140594
1186.758, 1.303673
1187.240, 2.004417
1187.723, 1.653801
1188.205, 2.048035
1188.687, 2.159027
1189.169, 1.430901
1189.651, 1.592125
1190.133, 1.851349
1190.615, 1.844284
1191.097, 1.599236
1191.579, 1.402107
1192.062, 1.418343
1192.544, 1.455421
1193.026, 1.541847
1193.508, 1.601189
1193.990, 1.480431
1194.472, 1.264015
1194.954, 1.105423
1195.436, 1.101082
1195.919, 1.169502
1196.401, 1.364838
1196.883, 1.547447
1197.365, 1.700409
1197.847, 1.780014
1198.329, 0.5870670
1198.811, 1.325272
1199.293, 1.714226
1199.776, 1.792992
1200.258, 0.6025770
1200.740, 1.080536
1201.222, 0.8943710
1201.704, 0.6808170
1202.186, 1.392220
1202.668, 0.3975300
1203.150, 1.091980
1203.632, 1.111778
1204.115, 1.440941
1204.597, 1.101532
1205.079, 0.9680790
1205.561, 1.502838
1206.043, 1.666054
1206.525, 1.246613
1207.007, 1.592400
1207.489, 0.5710750
1207.971, 0.7513280
1208.454, 1.189308
1208.936, 1.321831
1209.418, 1.270149
1209.900, 1.223412
1210.382, 1.319550
1210.864, 1.546143
1211.346, 1.760605
1211.828, 1.951584
1212.311, 2.017723
1212.793, 1.816383
1213.275, 1.624489
1213.757, 1.602837
1214.239, 1.560242
1214.721, 1.308960
1215.203, 0.8995670
1215.685, 0.7332150
1216.167, 0.7691960
1216.650, 0.7878270
1217.132, 0.5657880
1217.614, 0.4583360
1218.096, 0.6921540
1218.578, 0.9573440
1219.060, 0.9358900
1219.542, 0.6926800
1220.024, 0.7053680
1220.506, 0.9322970
1220.989, 1.098328
1221.471, 1.029312
1221.953, 0.9198760
1222.435, 0.7703250
1222.917, 0.6848680
1223.399, 0.8399430
1223.881, 1.164200
1224.363, 1.276199
1224.846, 1.200989
1225.328, 1.141930
1225.810, 1.286606
1226.292, 1.344971
1226.774, 1.205254
1227.256, 1.013000
1227.738, 0.9400860
1228.220, 0.9592590
1228.703, 1.022713
1229.185, 1.103661
1229.667, 1.040520
1230.149, 0.4424740
1230.631, 0.1402210
1231.113, 0.3989940
1231.595, 0.8759380
1232.077, 1.181992
1232.559, 1.339958
1233.042, 1.389107
1233.524, 1.343063
1234.006, 1.274521
1234.488, 1.127747
1234.970, 1.093338
1235.452, 1.274948
1235.934, 1.484306
1236.416, 1.436920
1236.898, 1.233582
1237.381, 1.128082
1237.863, 1.124901
1238.345, 1.065125
1238.827, 0.8622670
1239.309, 0.6479950
1239.791, 0.4279170
1240.273, 0.2859420
1240.755, 0.4300230
1241.238, 0.6927570
1241.720, 0.7399980
1242.202, 0.5643770
1242.684, 0.4425740
1243.166, 0.4681400
1243.648, 0.4567030
1244.130, 0.3498310
1244.612, 0.2528150
1245.094, 0.3177640
1245.577, 0.4670870
1246.059, 0.6047590
1246.541, 0.7185440
1247.023, 0.7629620
1247.505, 0.6845020
1247.987, 0.7031710
1248.469, 0.8927000
1248.951, 1.089272
1249.433, 1.025299
1249.916, 0.8897020
1250.398, 0.9610670
1250.880, 1.237312
1251.362, 1.270195
1251.844, 0.9732510
1252.326, 0.7676540
1252.808, 0.7590640
1253.290, 0.7791140
1253.773, 0.5625230
1254.255, 0.3359380
1254.737, 0.3777690
1255.219, 0.6642000
1255.701, 0.8238830
1256.183, 0.8529590
1256.665, 0.7487720
1257.147, 0.4941100
1257.630, 0.2617340
1258.112, 0.2412950
1258.594, 0.2944640
1259.076, 0.2799450
1259.558, 0.2322010
1260.040, 0.3606570
1260.522, 0.6608430
1261.004, 0.8975140
1261.486, 1.023842
1261.969, 1.026962
1262.451, 0.7697750
1262.933, 0.4963680
1263.415, 0.3436970
1263.897, 0.3085480
1264.379, 0.4715040
1264.861, 0.7828220
1265.343, 0.8116150
1265.825, 0.4226070
1266.308, 0.1032560
1266.790, 0.2819370
1267.272, 0.4345780
1267.754, 0.2439270
1268.236, 0.1008530
1268.718, 2.8656000E-02
1269.200, 0.3314360
1269.682, 0.5234380
1270.165, 0.4485020
1270.647, 0.3308940
1271.129, 0.2212140
1271.611, 0.1362230
1272.093, 7.6560996E-02
1272.575, 4.7035001E-02
1273.057, 6.0371000E-02
1273.539, 0.1127170
1274.021, 0.2028430
1274.504, 0.3396680
1274.986, 0.3942030
1275.468, 0.2901920
1275.950, 0.2406010
1276.432, 0.3299640
1276.914, 0.4542540
1277.396, 0.4589920
1277.878, 0.3878020
1278.360, 0.2860720
1278.843, 0.1593550
1279.325, 9.6077003E-02
1279.807, 8.4564000E-02
1280.289, 0.2257230
1280.771, 0.6146850
1281.253, 0.9517060
1281.735, 0.4085770
1282.217, 5.5893000E-02
1282.700, 1.113922
1283.182, 3.786621
1283.664, 4.330986
1284.146, 2.527809
1284.628, 1.009140
1285.110, 0.3249510
1285.592, 0.5287320
1286.074, 2.759277
1286.557, 4.898422
1287.039, 4.933899
1287.521, 3.522461
1288.003, 2.815887
1288.485, 2.766846
1288.967, 2.890259
1289.449, 3.129684
1289.931, 3.163544
1290.413, 2.652702
1290.896, 2.019829
1291.378, 1.425819
1291.860, 0.9166490
1292.342, 0.6412350
1292.824, 0.5506740
1293.306, 0.4675140
1293.788, 0.3437810
1294.270, 0.2662580
1294.752, 0.2997970
1295.235, 0.2726060
1295.717, 8.5495003E-02
1296.199, 9.0401001E-02
1296.681, 0.1256480
1297.163, 0.5289610
1297.645, 0.7533260
1298.127, 0.7515030
1298.609, 0.6904830
1299.092, 0.5514140
1299.574, 0.4850540
1300.056, 0.5538250
1300.538, 0.6177440
1301.020, 0.3719410
1301.502, 0.1383510
1301.984, 1.4030000E-02
1302.466, 5.1350002E-03
1302.948, 8.3199999E-04
1303.431, 2.2705000E-02
1303.913, 5.1201001E-02
1304.395, 0.1080020
1304.877, 0.0000000E+00
##END=



