##NAMES=Brazilianite
##RRUFFID=R050319
##IDEAL CHEMISTRY=NaAl_3_(PO_4_)_2_(OH)_4_
##LOCALITY=Minas Gerais, Brazil
##OWNER=RRUFF
##SOURCE=American Museum of Natural History
##DESCRIPTION=Pale green fragment
##STATUS=The identification of this mineral has been confirmed by X-ray diffraction and chemical analysis
##URL=rruff.info/R050319
##MEASURED CHEMISTRY=Na_1.00_Al_3.00_(PO_4_)_2_(OH)_4_
92.52344, 0.0000000E+00
93.00555, 0.3500980
93.48767, 3.6040999E-02
93.96979, 11.62341
94.45190, 24.56131
94.93402, 36.52402
95.41614, 42.41724
95.89825, 44.39200
96.38037, 46.15479
96.86249, 48.35941
97.34460, 53.58127
97.82672, 63.10254
98.30884, 73.82150
98.79095, 84.35980
99.27307, 94.93005
99.75519, 107.0229
100.2373, 122.3770
100.7194, 142.0758
101.2015, 167.0679
101.6837, 198.7409
102.1658, 233.2358
102.6479, 271.9445
103.1300, 316.2340
103.6121, 351.6937
104.0942, 367.0144
104.5764, 366.6292
105.0585, 352.3089
105.5406, 318.8435
106.0227, 272.7385
106.5048, 232.1364
106.9869, 195.3549
107.4691, 166.0987
107.9512, 144.2789
108.4333, 129.8096
108.9154, 121.5207
109.3975, 118.0706
109.8796, 119.4298
110.3618, 123.8515
110.8439, 133.4253
111.3260, 147.1712
111.8081, 164.2928
112.2902, 184.2441
112.7723, 205.9856
113.2544, 228.1440
113.7366, 255.6923
114.2187, 269.5702
114.7008, 270.4425
115.1829, 260.7221
115.6650, 239.8937
116.1471, 207.7383
116.6293, 169.1363
117.1114, 134.9576
117.5935, 104.7020
118.0756, 78.88251
118.5577, 58.09074
119.0398, 41.84061
119.5220, 28.90506
120.0041, 19.26399
120.4862, 12.66367
120.9683, 7.639984
121.4504, 4.488251
121.9325, 2.384399
122.4147, 0.9392240
122.8968, 0.2005920
123.3789, 0.5079350
123.8610, 1.818832
124.3431, 3.178604
124.8252, 4.021378
125.3074, 4.118454
125.7895, 3.679230
126.2716, 3.107727
126.7537, 2.381180
127.2358, 1.564209
127.7179, 0.2118840
128.2001, 1.112122
128.6822, 1.607269
129.1643, 0.6482700
129.6464, 1.625458
130.1285, 3.350967
130.6107, 3.969513
131.0928, 4.542221
131.5749, 5.448120
132.0570, 6.526642
132.5391, 7.412964
133.0212, 7.817505
133.5034, 7.754852
133.9855, 6.864578
134.4676, 4.964050
134.9497, 2.591690
135.4318, 6.2606998E-02
135.9139, 2.928818
136.3960, 5.901550
136.8782, 8.785873
137.3603, 11.50423
137.8424, 14.77307
138.3245, 18.80461
138.8066, 23.33928
139.2887, 28.02448
139.7709, 32.73460
140.2530, 37.71434
140.7351, 43.10440
141.2172, 48.78806
141.6993, 55.44733
142.1814, 63.46870
142.6636, 72.68040
143.1457, 82.71474
143.6278, 94.27296
144.1099, 105.6576
144.5920, 115.9237
145.0741, 124.9802
145.5563, 132.6976
146.0384, 139.2484
146.5205, 144.7781
147.0026, 147.8356
147.4847, 147.4208
147.9668, 144.8170
148.4490, 140.0145
148.9311, 133.1165
149.4132, 125.0802
149.8953, 117.4393
150.3774, 111.2761
150.8595, 105.8407
151.3417, 100.5932
151.8238, 96.26164
152.3059, 93.57120
152.7880, 92.78606
153.2701, 93.44034
153.7522, 94.40260
154.2344, 94.93820
154.7165, 96.77354
155.1986, 99.91577
155.6807, 104.3896
156.1628, 110.5581
156.6449, 118.7216
157.1271, 128.2370
157.6092, 136.4292
158.0913, 141.0745
158.5734, 147.1324
159.0555, 156.1691
159.5376, 167.7064
160.0198, 180.5347
160.5019, 194.0691
160.9840, 208.4900
161.4661, 223.8008
161.9482, 240.2017
162.4303, 257.2283
162.9125, 275.6098
163.3946, 295.2092
163.8767, 312.7455
164.3588, 327.7437
164.8409, 338.4333
165.3230, 341.9835
165.8052, 336.2903
166.2873, 324.6428
166.7694, 310.3138
167.2515, 292.2745
167.7336, 274.9308
168.2157, 258.8952
168.6979, 245.0667
169.1800, 234.8430
169.6621, 229.0716
170.1442, 227.1240
170.6263, 227.7575
171.1084, 233.8184
171.5906, 237.8509
172.0727, 239.3636
172.5548, 237.4231
173.0369, 230.4608
173.5190, 216.9708
174.0011, 197.6929
174.4833, 178.8623
174.9654, 159.0723
175.4475, 141.2365
175.9296, 125.9704
176.4117, 113.0779
176.8938, 102.0284
177.3760, 92.45163
177.8581, 84.35326
178.3402, 77.79156
178.8223, 73.92775
179.3044, 70.26045
179.7865, 65.84065
180.2687, 60.85387
180.7508, 56.08238
181.2329, 52.18259
181.7150, 49.19536
182.1971, 46.39313
182.6792, 43.90520
183.1614, 41.55913
183.6435, 39.15677
184.1256, 36.74231
184.6077, 34.68320
185.0898, 33.37619
185.5719, 32.92024
186.0541, 32.43275
186.5362, 31.57535
187.0183, 30.70837
187.5004, 30.22931
187.9825, 30.24718
188.4646, 30.30362
188.9468, 29.80074
189.4289, 28.87282
189.9110, 28.18452
190.3931, 28.07346
190.8752, 28.27995
191.3573, 28.35623
191.8395, 28.23164
192.3216, 28.35561
192.8037, 29.10269
193.2858, 30.35727
193.7679, 31.80278
194.2500, 33.69839
194.7322, 35.67332
195.2143, 36.43250
195.6964, 35.23195
196.1785, 33.88766
196.6606, 33.62810
197.1427, 34.00764
197.6249, 34.09773
198.1070, 33.39885
198.5891, 31.92087
199.0712, 29.72000
199.5533, 26.38205
200.0354, 22.68950
200.5176, 18.72917
200.9997, 14.63483
201.4818, 10.61632
201.9639, 6.756622
202.4460, 3.046463
202.9281, 0.1516880
203.4103, 1.676086
203.8924, 2.828110
204.3745, 3.548538
204.8566, 3.696411
205.3387, 2.869751
205.8208, 0.6538390
206.3030, 3.092438
206.7851, 6.896057
207.2672, 10.55003
207.7493, 14.45224
208.2314, 19.01001
208.7135, 24.02153
209.1957, 28.82376
209.6778, 32.72845
210.1599, 35.50272
210.6420, 39.21194
211.1241, 44.38518
211.6062, 49.81070
212.0884, 55.03148
212.5705, 59.94308
213.0526, 64.48460
213.5347, 68.45105
214.0168, 71.71921
214.4989, 76.23999
214.9811, 82.87473
215.4632, 89.98206
215.9453, 96.65433
216.4274, 102.8074
216.9095, 108.6705
217.3916, 114.8076
217.8737, 121.0485
218.3559, 124.8191
218.8380, 125.7134
219.3201, 124.3983
219.8022, 121.1136
220.2843, 115.8831
220.7664, 109.5364
221.2486, 102.2635
221.7307, 94.27386
222.2128, 86.77167
222.6949, 79.04755
223.1770, 72.33006
223.6591, 68.43190
224.1413, 67.67343
224.6234, 67.73608
225.1055, 66.89282
225.5876, 65.71564
226.0697, 65.32449
226.5518, 66.25403
227.0340, 68.00031
227.5161, 69.81253
227.9982, 71.60716
228.4803, 73.77019
228.9624, 77.07304
229.4445, 80.73981
229.9267, 83.74988
230.4088, 85.56079
230.8909, 86.62085
231.3730, 87.68738
231.8551, 88.69992
232.3372, 89.87999
232.8194, 91.45844
233.3015, 93.20813
233.7836, 94.84697
234.2657, 96.20056
234.7478, 97.47255
235.2299, 99.12239
235.7121, 101.2539
236.1942, 103.6108
236.6763, 106.0654
237.1584, 108.6820
237.6405, 111.5175
238.1227, 114.5943
238.6048, 117.9691
239.0869, 121.8346
239.5690, 126.6252
240.0511, 131.1772
240.5332, 135.6021
241.0154, 139.5857
241.4975, 142.7153
241.9796, 144.8139
242.4617, 146.1212
242.9438, 147.3542
243.4259, 149.8495
243.9081, 149.8948
244.3902, 146.4136
244.8723, 140.9410
245.3544, 134.3959
245.8365, 127.1776
246.3186, 120.0825
246.8008, 114.7661
247.2829, 110.8449
247.7650, 109.7778
248.2471, 111.2636
248.7292, 115.5195
249.2113, 123.0614
249.6935, 133.9895
250.1756, 147.5097
250.6577, 162.2662
251.1398, 180.9388
251.6219, 196.6584
252.1040, 212.3800
252.5862, 223.6851
253.0683, 226.5673
253.5504, 219.8828
254.0325, 205.1795
254.5146, 184.4853
254.9967, 153.1186
255.4789, 124.1751
255.9610, 96.82382
256.4431, 72.43930
256.9252, 52.35519
257.4073, 36.80730
257.8894, 24.75481
258.3716, 14.84953
258.8537, 7.566467
259.3358, 2.013565
259.8179, 1.159256
260.3000, 3.021606
260.7821, 4.325150
261.2643, 5.253860
261.7464, 5.894363
262.2285, 6.378586
262.7106, 6.722061
263.1927, 6.468216
263.6748, 5.476990
264.1570, 3.968353
264.6391, 1.970856
265.1212, 0.4767610
265.6033, 3.034286
266.0854, 5.383102
266.5675, 7.500900
267.0497, 9.588211
267.5318, 11.82948
268.0139, 13.90730
268.4960, 15.48891
268.9781, 16.57390
269.4602, 17.52551
269.9424, 18.51584
270.4245, 19.61673
270.9066, 21.05247
271.3887, 23.05556
271.8708, 25.22878
272.3529, 27.22575
272.8351, 29.06880
273.3172, 31.08131
273.7993, 33.67220
274.2814, 36.54842
274.7635, 38.86855
275.2456, 40.98694
275.7278, 42.10576
276.2099, 41.42064
276.6920, 39.07916
277.1741, 36.21323
277.6562, 33.38045
278.1383, 30.26013
278.6205, 26.32579
279.1026, 21.04283
279.5847, 15.92059
280.0668, 11.74229
280.5489, 8.511642
281.0310, 6.195419
281.5132, 4.699615
281.9953, 4.404709
282.4774, 5.700851
282.9595, 8.737183
283.4416, 12.18503
283.9237, 15.17715
284.4059, 17.87428
284.8880, 20.96718
285.3701, 24.56305
285.8522, 28.69087
286.3343, 33.38573
286.8164, 38.62927
287.2986, 44.07996
287.7807, 49.59988
288.2628, 55.17902
288.7449, 60.78435
289.2270, 66.44371
289.7091, 72.15948
290.1913, 77.87846
290.6734, 83.63553
291.1555, 89.76788
291.6376, 96.90111
292.1197, 104.4343
292.6018, 111.1365
293.0840, 117.0085
293.5661, 121.7613
294.0482, 125.3895
294.5303, 127.8546
295.0124, 128.8778
295.4945, 128.3042
295.9767, 126.2254
296.4588, 122.6319
296.9409, 117.2859
297.4230, 111.2133
297.9051, 104.5149
298.3872, 97.47273
298.8694, 90.24725
299.3515, 82.60321
299.8336, 75.27081
300.3157, 69.03311
300.7978, 63.82632
301.2799, 59.91406
301.7621, 58.37541
302.2442, 57.71756
302.7263, 56.47008
303.2084, 54.21353
303.6905, 52.31396
304.1726, 52.42407
304.6548, 54.63445
305.1369, 56.68526
305.6190, 57.35435
306.1011, 58.29437
306.5832, 60.95258
307.0653, 65.37836
307.5475, 70.16501
308.0296, 73.95596
308.5117, 76.89014
308.9938, 80.81389
309.4759, 86.52606
309.9580, 92.64999
310.4402, 98.12598
310.9223, 103.1206
311.4044, 108.3419
311.8865, 114.9538
312.3686, 122.3054
312.8507, 127.5807
313.3329, 130.2376
313.8150, 131.5255
314.2971, 132.5211
314.7792, 132.8060
315.2613, 131.5010
315.7434, 127.8578
316.2256, 122.5946
316.7077, 117.2150
317.1898, 111.7169
317.6719, 105.9380
318.1540, 99.38728
318.6361, 92.65654
319.1183, 86.40793
319.6004, 80.84464
320.0825, 75.73305
320.5646, 70.80634
321.0467, 66.10106
321.5288, 61.47250
322.0110, 56.87093
322.4931, 52.37396
322.9752, 48.15260
323.4573, 44.23831
323.9394, 40.20107
324.4215, 35.45097
324.9037, 30.06985
325.3858, 25.28201
325.8679, 21.37021
326.3500, 18.07361
326.8321, 15.25043
327.3142, 12.85902
327.7964, 10.71884
328.2785, 8.665619
328.7606, 6.721497
329.2427, 5.054214
329.7248, 3.699570
330.2069, 2.568939
330.6891, 1.492874
331.1712, 0.5628360
331.6533, 1.3657000E-02
332.1354, 0.1512300
332.6175, 0.6704410
333.0996, 0.8961940
333.5818, 0.7408140
334.0639, 0.4746550
334.5460, 0.1984100
335.0281, 8.5510001E-02
335.5102, 0.4331360
335.9923, 0.9738620
336.4745, 1.356812
336.9566, 0.9447940
337.4387, 0.3258510
337.9208, 1.144394
338.4029, 0.9726560
338.8850, 0.2312930
339.3671, 0.8674620
339.8492, 2.353134
340.3314, 3.486298
340.8135, 3.551270
341.2956, 2.703568
341.7777, 1.916077
342.2598, 1.436386
342.7419, 0.9345400
343.2241, 8.1390001E-02
343.7062, 1.060135
344.1883, 2.164932
344.6704, 2.873459
345.1525, 3.470795
345.6346, 4.607361
346.1168, 6.392975
346.5989, 8.462143
347.0810, 10.64235
347.5631, 12.90884
348.0452, 15.26599
348.5273, 17.76704
349.0095, 20.31136
349.4916, 22.61168
349.9737, 24.64186
350.4558, 27.23553
350.9379, 31.00957
351.4200, 35.46510
351.9022, 39.69208
352.3843, 43.50229
352.8664, 47.45628
353.3485, 52.04808
353.8306, 57.11372
354.3127, 62.07129
354.7949, 66.94673
355.2770, 71.36745
355.7591, 74.89201
356.2412, 77.56680
356.7233, 79.75240
357.2054, 82.06013
357.6876, 83.80746
358.1697, 83.75967
358.6518, 81.65182
359.1339, 78.50896
359.6160, 75.05257
360.0981, 71.37228
360.5803, 67.54265
361.0624, 63.56516
361.5445, 59.45045
362.0266, 54.77478
362.5087, 49.68683
362.9908, 45.55367
363.4730, 43.26588
363.9551, 42.42285
364.4372, 41.55394
364.9193, 40.20468
365.4014, 39.53995
365.8835, 40.16550
366.3657, 41.69720
366.8478, 43.54308
367.3299, 45.58047
367.8120, 47.60518
368.2941, 49.27966
368.7762, 50.53452
369.2584, 51.44643
369.7405, 51.90109
370.2226, 52.16945
370.7047, 52.60010
371.1868, 53.18272
371.6689, 53.50144
372.1511, 53.19782
372.6332, 52.25914
373.1153, 51.76027
373.5974, 51.96394
374.0795, 52.29883
374.5616, 52.71234
375.0438, 53.04897
375.5259, 52.96924
376.0080, 52.26794
376.4901, 51.06221
376.9722, 49.74907
377.4543, 48.35646
377.9365, 46.82542
378.4186, 45.38232
378.9007, 43.68977
379.3828, 41.15817
379.8649, 37.68794
380.3470, 34.04819
380.8292, 31.36818
381.3113, 30.14177
381.7934, 28.39059
382.2755, 25.46826
382.7576, 22.64638
383.2397, 20.68793
383.7219, 19.51147
384.2040, 18.61357
384.6861, 17.58806
385.1682, 16.46588
385.6503, 15.75249
386.1324, 15.61121
386.6146, 15.73882
387.0967, 16.21556
387.5788, 16.89388
388.0609, 17.66548
388.5430, 18.47359
389.0251, 19.18425
389.5073, 19.51810
389.9894, 19.15291
390.4715, 19.22006
390.9536, 19.98003
391.4357, 20.92090
391.9178, 21.70602
392.4000, 22.31929
392.8821, 22.98671
393.3642, 23.91376
393.8463, 25.09636
394.3284, 26.43721
394.8105, 28.34706
395.2927, 30.12370
395.7748, 31.25883
396.2569, 32.04320
396.7390, 33.04147
397.2211, 34.54642
397.7032, 36.33734
398.1854, 38.00125
398.6675, 39.62238
399.1496, 41.22583
399.6317, 42.61763
400.1138, 44.09982
400.5959, 46.07251
401.0781, 48.60222
401.5602, 51.04195
402.0423, 52.56734
402.5244, 53.25888
403.0065, 54.34009
403.4886, 56.10048
403.9708, 58.10881
404.4529, 60.37975
404.9350, 62.65796
405.4171, 64.20825
405.8992, 64.10619
406.3813, 63.38405
406.8635, 64.00868
407.3456, 66.19864
407.8277, 67.69292
408.3098, 66.98276
408.7919, 65.05707
409.2740, 63.67989
409.7562, 63.17645
410.2383, 62.62445
410.7204, 61.55632
411.2025, 60.00586
411.6846, 58.09157
412.1667, 55.85471
412.6489, 53.21404
413.1310, 49.93565
413.6131, 46.03893
414.0952, 42.08214
414.5773, 38.20450
415.0594, 34.27498
415.5416, 30.28091
416.0237, 26.18333
416.5058, 21.67886
416.9879, 16.39774
417.4700, 10.62444
417.9521, 5.792999
418.4343, 2.044296
418.9164, 1.183014
419.3985, 3.898666
419.8806, 6.225525
420.3627, 8.321289
420.8448, 10.24875
421.3270, 12.03021
421.8091, 13.74226
422.2912, 15.62956
422.7733, 16.53598
423.2554, 15.79266
423.7375, 14.74737
424.2197, 14.40819
424.7018, 14.53560
425.1839, 14.11548
425.6660, 12.35498
426.1481, 9.490952
426.6302, 7.052902
427.1124, 6.205017
427.5945, 4.332321
428.0766, 0.8866580
428.5587, 3.578690
429.0408, 8.580872
429.5229, 13.94891
430.0051, 19.81070
430.4872, 26.31731
430.9693, 33.38823
431.4514, 41.27502
431.9335, 50.72057
432.4156, 60.44604
432.8978, 69.80055
433.3799, 79.03661
433.8620, 89.00076
434.3441, 100.2217
434.8262, 112.4312
435.3083, 125.1016
435.7905, 138.7652
436.2726, 151.2517
436.7547, 161.8794
437.2368, 170.9852
437.7189, 178.8969
438.2010, 185.7326
438.6832, 190.4515
439.1653, 192.2107
439.6474, 191.0963
440.1295, 187.7001
440.6116, 182.3375
441.0938, 174.1688
441.5759, 161.2516
442.0580, 144.8804
442.5401, 128.6288
443.0222, 113.2514
443.5043, 98.66574
443.9865, 84.61255
444.4686, 71.18506
444.9507, 58.65945
445.4328, 47.01471
445.9149, 36.55710
446.3970, 28.06949
446.8792, 21.68835
447.3613, 16.34158
447.8434, 11.64594
448.3255, 7.862335
448.8076, 5.360138
449.2897, 4.186798
449.7719, 4.041809
450.2540, 4.628693
450.7361, 5.968292
451.2182, 8.422241
451.7003, 13.24121
452.1824, 17.65158
452.6646, 20.04797
453.1467, 21.50934
453.6288, 24.00827
454.1109, 28.41794
454.5930, 33.68640
455.0751, 37.70346
455.5573, 39.52249
456.0394, 41.91425
456.5215, 45.13873
457.0036, 48.60748
457.4857, 51.87451
457.9678, 55.04205
458.4500, 58.59787
458.9321, 62.89508
459.4142, 67.89911
459.8963, 73.60599
460.3784, 80.82693
460.8605, 87.24432
461.3427, 92.03394
461.8248, 96.02524
462.3069, 99.99841
462.7890, 104.1499
463.2711, 108.2882
463.7532, 112.4353
464.2354, 116.5562
464.7175, 119.7794
465.1996, 122.4636
465.6817, 123.4119
466.1638, 121.5721
466.6459, 117.4980
467.1281, 112.3722
467.6102, 106.3625
468.0923, 99.67236
468.5744, 92.68176
469.0565, 85.29480
469.5386, 76.89783
470.0208, 66.97116
470.5029, 56.24472
470.9850, 45.83740
471.4671, 35.49207
471.9492, 26.33078
472.4313, 18.60135
472.9135, 12.17599
473.3956, 7.090607
473.8777, 3.270782
474.3598, 0.1802980
474.8419, 2.639771
475.3240, 5.210815
475.8062, 6.634064
476.2883, 6.327850
476.7704, 5.782166
477.2525, 5.406219
477.7346, 4.833160
478.2167, 3.682037
478.6989, 1.816895
479.1810, 0.6529850
479.6631, 3.629578
480.1452, 7.002045
480.6273, 11.30026
481.1094, 17.44913
481.5916, 23.77750
482.0737, 30.05676
482.5558, 35.99207
483.0379, 41.34323
483.5200, 46.12396
484.0021, 50.25992
484.4843, 53.42288
484.9664, 55.43100
485.4485, 56.93143
485.9306, 58.06192
486.4127, 58.80350
486.8948, 58.90497
487.3770, 58.32257
487.8591, 57.51114
488.3412, 56.56229
488.8233, 55.61981
489.3054, 54.92734
489.7875, 54.47705
490.2697, 54.30942
490.7518, 54.19263
491.2339, 54.57043
491.7160, 56.16144
492.1981, 59.12500
492.6802, 62.77979
493.1624, 66.86731
493.6445, 71.43155
494.1266, 76.62305
494.6087, 82.48041
495.0908, 88.61682
495.5729, 94.76108
496.0551, 100.8995
496.5372, 107.1525
497.0193, 113.2705
497.5014, 119.7492
497.9835, 127.5126
498.4656, 135.4893
498.9478, 142.0884
499.4299, 146.8279
499.9120, 150.6906
500.3941, 155.1989
500.8762, 160.9864
501.3583, 165.0124
501.8405, 165.5840
502.3226, 166.0961
502.8047, 167.9395
503.2868, 170.5653
503.7689, 172.8694
504.2510, 174.3748
504.7331, 175.1242
505.2152, 174.9386
505.6974, 173.5796
506.1795, 172.8260
506.6616, 173.7831
507.1437, 174.7382
507.6258, 174.0125
508.1079, 171.9690
508.5901, 170.6723
509.0722, 172.1858
509.5543, 174.4988
510.0364, 174.4967
510.5185, 172.1915
511.0006, 169.5449
511.4828, 167.4962
511.9649, 165.6226
512.4470, 163.0653
512.9291, 159.8188
513.4113, 156.1003
513.8934, 151.9279
514.3755, 147.3439
514.8576, 142.0662
515.3397, 136.2502
515.8218, 131.0430
516.3040, 127.4570
516.7861, 125.1112
517.2682, 121.2978
517.7503, 113.4537
518.2324, 107.3619
518.7145, 104.3466
519.1967, 102.7926
519.6788, 101.4240
520.1609, 99.87451
520.6430, 98.09930
521.1251, 95.71527
521.6072, 92.78735
522.0894, 91.95825
522.5715, 94.02802
523.0536, 97.02594
523.5357, 100.5960
524.0178, 104.4476
524.4999, 108.1628
524.9821, 111.6068
525.4642, 115.3141
525.9463, 119.8230
526.4284, 125.0209
526.9105, 130.7111
527.3926, 137.0644
527.8748, 143.2330
528.3569, 148.8558
528.8390, 153.7635
529.3211, 157.4452
529.8032, 159.6455
530.2853, 160.8200
530.7675, 160.7153
531.2496, 159.8328
531.7317, 159.3810
532.2138, 159.7228
532.6959, 159.6906
533.1780, 157.8467
533.6602, 153.9788
534.1423, 149.6124
534.6244, 145.1071
535.1065, 139.7853
535.5886, 133.0480
536.0707, 125.4587
536.5529, 117.8203
537.0350, 110.4959
537.5171, 103.2510
537.9992, 95.70361
538.4813, 87.64050
538.9634, 80.45569
539.4456, 74.88312
539.9277, 69.52350
540.4098, 63.42944
540.8919, 57.15912
541.3740, 51.80786
541.8561, 47.77881
542.3383, 44.89093
542.8204, 43.23102
543.3025, 42.69757
543.7846, 42.17188
544.2667, 41.02234
544.7488, 40.49323
545.2310, 41.95239
545.7131, 45.25464
546.1952, 50.03577
546.6773, 57.44232
547.1594, 65.16846
547.6415, 71.17108
548.1237, 76.30487
548.6058, 82.98486
549.0879, 92.17560
549.5700, 102.7722
550.0521, 112.8757
550.5342, 121.7286
551.0164, 132.3843
551.4985, 145.3387
551.9806, 159.2037
552.4627, 173.7530
552.9448, 188.7794
553.4269, 204.2133
553.9091, 220.0486
554.3912, 235.9863
554.8733, 251.7286
555.3554, 267.5107
555.8375, 281.9626
556.3196, 295.8218
556.8018, 307.0419
557.2839, 313.8922
557.7660, 317.3812
558.2481, 320.3415
558.7302, 324.6541
559.2123, 327.7893
559.6945, 326.1322
560.1766, 320.7357
560.6587, 316.4933
561.1408, 315.1298
561.6229, 314.5909
562.1050, 312.4019
562.5872, 308.3362
563.0693, 303.7428
563.5514, 298.7535
564.0335, 293.1384
564.5156, 287.0833
564.9977, 280.2921
565.4799, 272.0537
565.9620, 262.1299
566.4441, 251.2010
566.9262, 240.5556
567.4083, 230.8084
567.8904, 218.8177
568.3726, 202.1876
568.8547, 185.6991
569.3368, 171.3098
569.8189, 158.0441
570.3010, 144.0416
570.7831, 128.2094
571.2653, 112.8173
571.7474, 101.0493
572.2295, 92.43161
572.7116, 82.43814
573.1937, 69.85287
573.6758, 57.16473
574.1580, 45.93970
574.6401, 36.30249
575.1222, 28.75024
575.6043, 24.40442
576.0864, 20.93616
576.5685, 17.14746
577.0507, 13.55374
577.5328, 11.17548
578.0149, 10.22269
578.4970, 9.796997
578.9791, 8.861816
579.4612, 7.355316
579.9434, 6.929993
580.4255, 8.114502
580.9076, 9.808807
581.3897, 12.56284
581.8718, 15.34039
582.3539, 16.82059
582.8361, 16.85666
583.3182, 16.89334
583.8003, 18.31436
584.2824, 21.01059
584.7645, 24.14963
585.2466, 27.70242
585.7288, 31.81100
586.2108, 36.52673
586.6929, 41.78412
587.1750, 47.54581
587.6572, 53.87302
588.1393, 60.35745
588.6214, 66.21274
589.1035, 72.37683
589.5856, 80.35019
590.0677, 90.15634
590.5499, 100.3508
591.0320, 109.8828
591.5141, 119.2654
591.9962, 130.3500
592.4783, 144.7491
592.9604, 158.6027
593.4426, 170.7551
593.9247, 183.2549
594.4068, 197.9004
594.8889, 214.2850
595.3710, 230.8844
595.8531, 246.7515
596.3353, 261.8669
596.8174, 276.4465
597.2995, 290.5025
597.7816, 303.7581
598.2637, 317.3539
598.7458, 328.6527
599.2280, 336.2950
599.7101, 340.2116
600.1922, 340.0582
600.6743, 334.8458
601.1564, 326.2937
601.6385, 315.2409
602.1207, 301.9653
602.6028, 286.9447
603.0849, 270.3445
603.5670, 252.7690
604.0491, 234.8746
604.5313, 216.4588
605.0134, 199.0278
605.4955, 181.5495
605.9776, 166.0250
606.4597, 153.4322
606.9418, 142.9624
607.4240, 133.7764
607.9061, 125.6286
608.3882, 118.8082
608.8703, 113.8889
609.3524, 110.7950
609.8345, 108.4153
610.3167, 106.8590
610.7988, 105.7632
611.2809, 104.9802
611.7630, 104.5912
612.2451, 104.8799
612.7272, 106.1111
613.2094, 106.9147
613.6915, 106.5779
614.1736, 105.5126
614.6557, 104.4410
615.1378, 103.2677
615.6199, 101.1349
616.1021, 97.52237
616.5842, 92.66901
617.0663, 87.30402
617.5484, 80.93658
618.0305, 74.68970
618.5126, 68.59546
618.9948, 62.59991
619.4769, 56.71652
619.9590, 50.90341
620.4411, 45.12213
620.9232, 39.25565
621.4053, 33.66037
621.8875, 28.69977
622.3696, 24.38544
622.8517, 21.29266
623.3338, 19.86417
623.8159, 19.09430
624.2980, 18.32135
624.7802, 17.49966
625.2623, 16.56461
625.7444, 14.98456
626.2265, 14.00797
626.7086, 14.34576
627.1907, 15.58310
627.6729, 17.31271
628.1550, 19.37048
628.6371, 21.42221
629.1192, 23.17752
629.6013, 24.65375
630.0834, 26.04984
630.5656, 27.51138
631.0477, 28.62091
631.5298, 29.05536
632.0119, 29.36865
632.4940, 30.37456
632.9761, 31.79465
633.4583, 32.14374
633.9404, 30.02156
634.4225, 26.77635
634.9046, 24.53261
635.3867, 23.19397
635.8688, 22.02496
636.3510, 21.03406
636.8331, 19.62459
637.3152, 16.85655
637.7973, 12.49994
638.2794, 8.517075
638.7615, 4.918015
639.2437, 1.696289
639.7258, 1.117691
640.2079, 3.600967
640.6900, 5.740005
641.1721, 7.582626
641.6542, 9.374268
642.1364, 11.54761
642.6185, 14.02129
643.1006, 15.35988
643.5827, 15.04190
644.0648, 14.68138
644.5469, 15.23376
645.0291, 15.78075
645.5112, 15.23364
645.9933, 13.52673
646.4754, 12.21738
646.9575, 12.64821
647.4396, 13.35330
647.9218, 12.65059
648.4039, 10.74648
648.8860, 8.723190
649.3681, 7.007980
649.8502, 5.437851
650.3323, 3.776459
650.8145, 2.019165
651.2966, 0.1660770
651.7787, 1.697403
652.2608, 3.757172
652.7429, 6.287659
653.2250, 8.945419
653.7072, 11.25684
654.1893, 13.11171
654.6714, 14.86363
655.1535, 16.78098
655.6356, 18.87180
656.1177, 21.31320
656.5999, 24.19618
657.0820, 26.66763
657.5641, 28.32198
658.0462, 29.35074
658.5283, 30.04466
659.0104, 30.41833
659.4926, 30.52699
659.9747, 30.13464
660.4568, 29.71536
660.9389, 29.80830
661.4210, 30.05913
661.9031, 29.72156
662.3853, 28.49995
662.8674, 26.79126
663.3495, 25.04893
663.8316, 23.25191
664.3137, 21.67461
664.7958, 20.42148
665.2780, 19.20258
665.7601, 17.99457
666.2422, 16.68307
666.7243, 15.03461
667.2064, 12.96333
667.6885, 11.12862
668.1707, 9.972595
668.6528, 9.125107
669.1349, 8.172699
669.6170, 7.130272
670.0991, 6.180954
670.5812, 5.421051
671.0634, 4.792625
671.5455, 4.186447
672.0276, 3.602585
672.5097, 3.084007
672.9918, 2.702888
673.4739, 2.314560
673.9561, 1.802551
674.4382, 1.306000
674.9203, 1.040504
675.4024, 1.064697
675.8845, 1.083199
676.3666, 0.7737270
676.8488, 0.3199080
677.3309, 0.1507490
677.8130, 0.2828370
678.2951, 0.3990710
678.7772, 0.3314060
679.2593, 0.1862340
679.7415, 0.1530990
680.2236, 0.3004990
680.7057, 0.3495940
681.1878, 4.6770000E-03
681.6699, 0.1360400
682.1520, 0.3707810
682.6342, 1.227058
683.1163, 2.045914
683.5984, 2.692352
684.0805, 3.164078
684.5626, 3.400772
685.0447, 3.444931
685.5269, 3.510048
686.0090, 3.590904
686.4911, 3.721985
686.9732, 3.926758
687.4553, 4.187462
687.9374, 4.478989
688.4196, 4.801460
688.9017, 5.146400
689.3838, 5.520424
689.8659, 5.912140
690.3480, 6.360764
690.8301, 6.810020
691.3123, 7.104164
691.7944, 7.216843
692.2765, 7.406448
692.7586, 8.079384
693.2407, 9.166748
693.7228, 9.591461
694.2050, 8.982407
694.6871, 8.706825
695.1692, 9.383530
695.6513, 10.52396
696.1334, 11.64906
696.6155, 12.74935
697.0977, 13.81204
697.5798, 14.98057
698.0619, 15.82684
698.5440, 15.83627
699.0261, 15.36121
699.5082, 15.18188
699.9904, 15.47342
700.4725, 15.63155
700.9546, 14.98097
701.4367, 13.70149
701.9188, 13.33837
702.4009, 14.35914
702.8831, 15.22475
703.3652, 15.47826
703.8473, 15.66514
704.3294, 16.17193
704.8115, 16.85831
705.2936, 17.30579
705.7758, 17.26256
706.2579, 17.22325
706.7400, 17.47891
707.2221, 18.00542
707.7042, 18.91159
708.1863, 20.19579
708.6685, 21.38582
709.1506, 22.00589
709.6327, 22.15126
710.1148, 22.53963
710.5969, 22.88868
711.0790, 23.92688
711.5612, 26.46590
712.0433, 29.06055
712.5254, 30.77825
713.0075, 31.75615
713.4896, 32.56876
713.9717, 33.34248
714.4539, 34.20030
714.9360, 35.32233
715.4181, 36.59926
715.9002, 37.82386
716.3823, 38.95453
716.8644, 39.86881
717.3466, 40.42831
717.8287, 40.77287
718.3108, 41.44751
718.7929, 42.77772
719.2750, 43.81506
719.7571, 44.55836
720.2393, 44.99480
720.7214, 44.70480
721.2035, 44.19238
721.6856, 44.57483
722.1677, 46.43452
722.6498, 48.04425
723.1320, 47.68310
723.6141, 46.12481
724.0962, 44.85892
724.5783, 44.00814
725.0604, 43.32610
725.5425, 42.67165
726.0247, 42.13054
726.5068, 41.90485
726.9889, 42.20712
727.4710, 42.11275
727.9531, 41.28123
728.4352, 40.44359
728.9174, 39.76559
729.3995, 39.25966
729.8816, 39.01702
730.3637, 39.04154
730.8458, 38.98248
731.3279, 38.56297
731.8101, 37.90570
732.2922, 37.17278
732.7743, 36.39638
733.2564, 35.69368
733.7385, 35.11268
734.2206, 34.51014
734.7028, 33.68105
735.1849, 32.60728
735.6670, 31.86468
736.1491, 31.58019
736.6312, 31.47090
737.1133, 31.74546
737.5955, 31.99427
738.0776, 31.88851
738.5597, 31.40729
739.0418, 30.66258
739.5239, 29.58439
740.0060, 28.52038
740.4882, 27.85901
740.9703, 27.51591
741.4524, 27.23547
741.9345, 26.95612
742.4166, 26.78848
742.8987, 26.85500
743.3809, 27.08347
743.8630, 27.10151
744.3451, 26.75285
744.8272, 26.48565
745.3093, 26.61498
745.7914, 26.54831
746.2736, 25.63437
746.7557, 24.35357
747.2378, 23.79190
747.7199, 24.46709
748.2020, 25.13116
748.6841, 24.55994
749.1663, 23.45729
749.6484, 23.18138
750.1305, 23.69801
750.6126, 23.91320
751.0947, 23.22436
751.5768, 22.21257
752.0590, 21.98774
752.5411, 22.82018
753.0232, 23.22575
753.5053, 22.79130
753.9874, 22.50371
754.4695, 22.77284
754.9517, 23.26214
755.4338, 23.65777
755.9159, 23.91196
756.3980, 24.00670
756.8801, 23.67376
757.3622, 23.40170
757.8444, 23.84389
758.3265, 24.69943
758.8086, 25.18646
759.2907, 25.10944
759.7728, 24.93306
760.2549, 25.11707
760.7371, 25.58852
761.2192, 25.85426
761.7013, 25.76387
762.1834, 25.88252
762.6655, 26.60983
763.1476, 27.25274
763.6298, 27.31046
764.1119, 26.92306
764.5940, 26.46384
765.0761, 25.86405
765.5582, 25.50450
766.0403, 25.76172
766.5225, 26.21958
767.0046, 26.46277
767.4867, 26.45557
767.9688, 26.28790
768.4509, 26.00354
768.9330, 25.61810
769.4152, 25.12891
769.8973, 24.52596
770.3794, 24.00011
770.8615, 23.54378
771.3436, 23.19212
771.8257, 23.01756
772.3079, 22.91806
772.7900, 22.77280
773.2721, 22.59144
773.7542, 22.26507
774.2363, 21.42154
774.7184, 20.82101
775.2006, 21.03642
775.6827, 21.63185
776.1648, 22.14764
776.6469, 22.42433
777.1290, 22.29810
777.6111, 21.48700
778.0933, 20.41085
778.5754, 20.18188
779.0575, 20.75677
779.5396, 20.82315
780.0217, 19.96838
780.5038, 19.17318
780.9860, 19.27562
781.4681, 20.04081
781.9502, 20.43745
782.4323, 20.08855
782.9144, 20.00469
783.3965, 20.38406
783.8787, 20.88305
784.3608, 21.28921
784.8429, 21.68266
785.3250, 22.28281
785.8071, 23.16145
786.2892, 23.97212
786.7714, 24.34483
787.2535, 24.47997
787.7356, 24.70809
788.2177, 25.04469
788.6998, 25.51353
789.1819, 26.13119
789.6641, 26.82545
790.1462, 27.54751
790.6283, 28.29623
791.1104, 28.69014
791.5925, 28.36868
792.0746, 28.30109
792.5568, 28.87310
793.0389, 29.55803
793.5210, 29.99270
794.0031, 30.22268
794.4852, 30.45038
794.9673, 30.67889
795.4495, 31.03468
795.9316, 31.75507
796.4137, 32.55293
796.8958, 33.12562
797.3779, 33.41592
797.8600, 33.33692
798.3422, 32.83116
798.8243, 32.18964
799.3064, 31.89739
799.7885, 31.96552
800.2706, 32.12670
800.7527, 32.50501
801.2349, 32.57466
801.7170, 32.03196
802.1991, 31.16435
802.6812, 30.31277
803.1633, 29.47999
803.6454, 28.67390
804.1276, 27.81387
804.6097, 27.08984
805.0918, 26.23923
805.5739, 25.79137
806.0560, 26.82971
806.5381, 28.91646
807.0203, 30.16530
807.5024, 29.38337
807.9845, 27.54611
808.4666, 25.72433
808.9487, 23.98475
809.4308, 22.65116
809.9130, 21.76111
810.3951, 21.01071
810.8772, 20.25510
811.3593, 19.44791
811.8414, 18.43863
812.3235, 17.02259
812.8057, 16.15860
813.2878, 16.60983
813.7699, 16.65773
814.2520, 15.41414
814.7341, 13.83215
815.2162, 12.87411
815.6984, 12.59676
816.1805, 12.47178
816.6626, 12.44920
817.1447, 12.33620
817.6268, 11.91869
818.1089, 11.35630
818.5911, 10.97078
819.0732, 10.74466
819.5553, 10.28344
820.0374, 9.286652
820.5195, 8.095955
821.0016, 7.494606
821.4838, 7.510040
821.9659, 7.283066
822.4480, 6.633621
822.9301, 6.102112
823.4122, 6.058853
823.8943, 6.227577
824.3765, 6.087181
824.8586, 5.555099
825.3407, 5.168968
825.8228, 5.176399
826.3049, 5.038506
826.7870, 4.310326
827.2692, 3.524231
827.7513, 3.345306
828.2334, 3.715355
828.7155, 3.970749
829.1976, 3.704353
829.6797, 3.273125
830.1619, 3.051422
830.6440, 2.973221
831.1261, 2.913559
831.6082, 2.853439
832.0903, 2.762756
832.5724, 2.612106
833.0546, 2.461922
833.5367, 2.504318
834.0188, 2.833206
834.5009, 2.550720
834.9830, 1.126320
835.4651, 0.1920390
835.9473, 0.8332820
836.4294, 1.868965
836.9115, 1.855675
837.3936, 0.8575590
837.8757, 0.2696760
838.3578, 0.7272800
838.8400, 1.129524
839.3221, 0.8880920
839.8042, 0.4991910
840.2863, 0.4458620
840.7684, 0.7394410
841.2505, 1.257614
841.7327, 2.021980
842.2148, 2.521362
842.6969, 1.849602
843.1790, 0.5105210
843.6611, 4.9210001E-02
844.1432, 0.2250290
844.6254, 0.7388230
845.1075, 1.264908
845.5896, 1.573471
846.0717, 1.304024
846.5538, 0.4602510
847.0359, 0.3824010
847.5181, 1.727592
848.0002, 2.624779
848.4823, 2.416298
848.9644, 1.880966
849.4465, 1.395874
849.9286, 1.025558
850.4108, 0.9260440
850.8929, 1.176956
851.3750, 1.521473
851.8571, 2.000217
852.3392, 2.464104
852.8214, 2.795341
853.3035, 2.973499
853.7856, 2.969181
854.2677, 2.824829
854.7498, 2.753117
855.2319, 2.908314
855.7141, 3.256878
856.1962, 3.919178
856.6783, 4.789474
857.1604, 4.995712
857.6425, 4.286236
858.1246, 3.812672
858.6068, 4.629387
859.0889, 6.296722
859.5710, 7.098972
860.0531, 6.535183
860.5352, 6.377274
861.0173, 7.087048
861.4995, 7.760296
861.9816, 7.868942
862.4637, 7.745888
862.9458, 7.883358
863.4279, 8.330978
863.9100, 8.529285
864.3922, 8.002163
864.8743, 7.579189
865.3564, 7.681526
865.8385, 8.201462
866.3206, 9.166107
866.8027, 10.34785
867.2849, 11.14474
867.7670, 11.16295
868.2491, 10.88317
868.7312, 10.88559
869.2133, 11.10074
869.6954, 11.41248
870.1776, 11.78368
870.6597, 11.82862
871.1418, 11.32572
871.6239, 10.81488
872.1060, 11.18283
872.5881, 10.93492
873.0703, 10.71080
873.5524, 11.28878
874.0345, 10.53075
874.5166, 11.31804
874.9987, 12.40132
875.4808, 12.79869
875.9630, 12.67153
876.4451, 12.47282
876.9272, 12.08443
877.4093, 11.91262
877.8914, 12.51945
878.3735, 12.86534
878.8557, 11.83330
879.3378, 10.33755
879.8199, 9.980141
880.3020, 11.01719
880.7841, 12.01654
881.2662, 11.99059
881.7484, 11.42294
882.2305, 10.63483
882.7126, 9.834171
883.1947, 9.655548
883.6768, 10.10921
884.1589, 10.47297
884.6411, 10.27235
885.1232, 9.772587
885.6053, 9.507191
886.0874, 9.484200
886.5695, 9.339497
887.0516, 9.008316
887.5338, 8.826492
888.0159, 9.051975
888.4980, 9.265972
888.9801, 8.904064
889.4622, 7.967846
889.9443, 7.275799
890.4265, 6.805477
890.9086, 6.608852
891.3907, 6.959579
891.8728, 7.326118
892.3549, 7.388790
892.8370, 7.225048
893.3192, 7.000206
893.8013, 6.740299
894.2834, 6.510529
894.7655, 6.485485
895.2476, 6.367874
895.7297, 5.718388
896.2119, 4.876537
896.6940, 4.491558
897.1761, 4.615967
897.6582, 4.726368
898.1403, 4.437855
898.6224, 4.450703
899.1046, 3.916569
899.5867, 4.061672
900.0688, 3.968475
900.5509, 3.595810
901.0330, 3.087734
901.5151, 2.466843
901.9973, 1.991596
902.4794, 2.093174
902.9615, 2.772617
903.4436, 3.213951
903.9257, 3.457657
904.4078, 3.343708
904.8900, 2.620014
905.3721, 1.809166
905.8542, 1.293201
906.3363, 1.007816
906.8184, 0.7502250
907.3005, 0.4784320
907.7827, 0.3304600
908.2648, 0.4925500
908.7469, 0.5913310
909.2290, 0.3530430
909.7111, 1.9650001E-03
910.1932, 0.1054310
910.6754, 1.8150000E-02
911.1575, 5.6651998E-02
911.6396, 0.6858600
912.1217, 1.370071
912.6038, 1.736713
913.0859, 1.887966
913.5681, 1.853722
914.0502, 1.736866
914.5323, 1.827175
915.0144, 2.250759
915.4965, 2.804230
915.9786, 3.324398
916.4607, 3.749161
916.9428, 3.753311
917.4249, 3.387318
917.9070, 3.335854
918.3892, 3.784546
918.8713, 4.345055
919.3534, 4.737915
919.8355, 4.974632
920.3176, 5.066910
920.7997, 4.953651
921.2819, 4.885925
921.7640, 4.780556
922.2461, 4.912300
922.7282, 5.667068
923.2103, 6.480972
923.6924, 6.586044
924.1746, 6.023903
924.6567, 5.553764
925.1388, 5.225189
925.6209, 4.973648
926.1030, 4.791664
926.5851, 4.683388
927.0673, 4.682655
927.5494, 4.750893
928.0315, 4.788010
928.5136, 4.770645
928.9957, 4.905739
929.4778, 5.699287
929.9600, 6.286964
930.4421, 5.649513
930.9242, 4.493591
931.4063, 3.939911
931.8884, 4.057571
932.3705, 4.244629
932.8527, 4.167923
933.3348, 3.982124
933.8169, 3.993790
934.2990, 4.027237
934.7811, 3.465714
935.2632, 2.391632
935.7454, 1.631149
936.2275, 1.459572
936.7096, 1.217522
937.1917, 0.1634450
937.6738, 1.344681
938.1559, 1.705803
938.6381, 0.6669160
939.1202, 0.5859680
939.6023, 1.966606
940.0844, 3.370789
940.5665, 3.977798
941.0486, 4.334831
941.5308, 5.303574
942.0129, 6.944542
942.4950, 8.592667
942.9771, 10.59682
943.4592, 12.08414
943.9413, 12.44920
944.4235, 12.75607
944.9056, 13.71828
945.3877, 15.10621
945.8698, 16.38926
946.3519, 17.47358
946.8340, 18.54256
947.3162, 19.43375
947.7983, 20.54984
948.2804, 22.15165
948.7625, 24.05843
949.2446, 26.27191
949.7267, 28.61570
950.2089, 30.53665
950.6910, 31.67729
951.1731, 32.72719
951.6552, 33.98462
952.1373, 35.63367
952.6194, 38.07138
953.1016, 41.06140
953.5837, 44.00313
954.0658, 46.74838
954.5479, 49.70252
955.0300, 53.24319
955.5121, 57.16765
955.9943, 61.02699
956.4764, 64.94756
956.9585, 69.51429
957.4406, 74.78378
957.9227, 79.97722
958.4048, 84.74611
958.8870, 89.33743
959.3691, 93.92061
959.8512, 98.64026
960.3333, 104.9025
960.8154, 112.9551
961.2975, 120.6508
961.7797, 127.3785
962.2618, 134.2925
962.7439, 142.0512
963.2260, 150.4188
963.7081, 158.9138
964.1902, 167.5403
964.6724, 176.4435
965.1545, 185.3747
965.6366, 194.9679
966.1187, 205.8545
966.6008, 217.0076
967.0829, 227.7691
967.5651, 238.1803
968.0472, 248.3614
968.5293, 258.3325
969.0114, 268.1416
969.4935, 278.0064
969.9756, 287.4560
970.4578, 296.4962
970.9399, 304.9721
971.4220, 313.0569
971.9041, 320.5411
972.3862, 326.5038
972.8683, 330.2013
973.3505, 333.1698
973.8326, 336.3858
974.3147, 339.0862
974.7968, 340.4473
975.2789, 340.8792
975.7610, 340.8252
976.2432, 340.5343
976.7253, 340.7211
977.2074, 341.8568
977.6895, 343.6991
978.1716, 345.9253
978.6537, 348.7135
979.1359, 352.4931
979.6180, 357.1706
980.1001, 362.1233
980.5822, 367.1444
981.0643, 372.9692
981.5464, 380.4587
982.0286, 389.2374
982.5107, 398.3649
982.9928, 407.7503
983.4749, 417.1006
983.9570, 426.3364
984.4391, 435.8474
984.9213, 445.8825
985.4034, 455.3966
985.8855, 463.1417
986.3676, 469.0138
986.8497, 471.8528
987.3318, 471.6002
987.8140, 468.5479
988.2961, 462.9074
988.7782, 454.1308
989.2603, 441.6263
989.7424, 425.8098
990.2245, 407.0788
990.7067, 384.8950
991.1888, 364.2101
991.6709, 345.5718
992.1530, 326.6005
992.6351, 305.9250
993.1172, 285.9001
993.5994, 267.9684
994.0815, 252.0033
994.5636, 237.8333
995.0457, 225.7014
995.5278, 214.7388
996.0099, 204.6689
996.4921, 196.0282
996.9742, 189.1400
997.4563, 183.5706
997.9384, 179.0379
998.4205, 175.5069
998.9026, 173.0384
999.3848, 171.9839
999.8669, 171.1262
1000.349, 169.4772
1000.831, 168.8581
1001.313, 170.3950
1001.795, 173.2430
1002.277, 176.5107
1002.760, 180.1481
1003.242, 184.5255
1003.724, 189.5901
1004.206, 195.7705
1004.688, 203.6278
1005.170, 212.3429
1005.652, 221.3413
1006.134, 230.8012
1006.617, 240.8945
1007.099, 251.7760
1007.581, 263.8569
1008.063, 277.4357
1008.545, 292.2003
1009.027, 308.1984
1009.509, 325.0324
1009.991, 342.0291
1010.473, 359.6920
1010.956, 379.1662
1011.438, 400.5685
1011.920, 422.1986
1012.402, 442.9662
1012.884, 463.5305
1013.366, 484.6688
1013.848, 506.2158
1014.330, 528.4001
1014.813, 550.8049
1015.295, 572.1715
1015.777, 592.0496
1016.259, 609.6075
1016.741, 624.1579
1017.223, 635.9841
1017.705, 645.6292
1018.187, 653.0176
1018.669, 657.9869
1019.152, 660.3934
1019.634, 659.2875
1020.116, 654.3516
1020.598, 646.2891
1021.080, 635.6992
1021.562, 622.8701
1022.044, 608.1351
1022.526, 591.7367
1023.008, 576.8119
1023.491, 563.6448
1023.973, 549.3771
1024.455, 532.6738
1024.937, 515.8504
1025.419, 501.6501
1025.901, 489.5415
1026.383, 477.0004
1026.865, 463.9885
1027.348, 450.9168
1027.830, 437.5714
1028.312, 425.4637
1028.794, 415.3547
1029.276, 406.4800
1029.758, 397.9915
1030.240, 389.8740
1030.722, 382.4289
1031.204, 375.8846
1031.687, 369.4018
1032.169, 362.9216
1032.651, 356.5298
1033.133, 350.1472
1033.615, 344.0767
1034.097, 338.6998
1034.579, 333.9581
1035.061, 329.9236
1035.544, 326.9601
1036.026, 324.1708
1036.508, 321.7538
1036.990, 318.6504
1037.472, 313.9668
1037.954, 308.8130
1038.436, 304.8458
1038.918, 302.0118
1039.401, 298.0515
1039.883, 292.3750
1040.365, 286.6749
1040.847, 281.1128
1041.329, 275.3619
1041.811, 269.1323
1042.293, 262.7103
1042.775, 256.8216
1043.257, 249.1814
1043.740, 241.0314
1044.222, 233.5318
1044.704, 223.8330
1045.186, 215.2939
1045.668, 207.6722
1046.150, 201.7685
1046.632, 196.1330
1047.114, 188.7279
1047.596, 179.6925
1048.079, 171.6635
1048.561, 165.4042
1049.043, 159.3483
1049.525, 153.5306
1050.007, 147.6607
1050.489, 141.2813
1050.971, 134.9491
1051.453, 129.3538
1051.936, 124.4697
1052.418, 119.8030
1052.900, 115.1955
1053.382, 110.9067
1053.864, 106.6965
1054.346, 103.0886
1054.828, 100.8457
1055.310, 99.01651
1055.792, 96.47473
1056.275, 93.23686
1056.757, 90.07561
1057.239, 87.09030
1057.721, 84.34003
1058.203, 81.55759
1058.685, 79.33551
1059.167, 78.49231
1059.649, 78.06866
1060.131, 77.02129
1060.614, 75.31355
1061.096, 73.24689
1061.578, 70.50000
1062.060, 68.50871
1062.542, 68.68788
1063.024, 68.71356
1063.506, 67.06877
1063.988, 64.68829
1064.471, 62.41168
1064.953, 60.47090
1065.435, 59.18509
1065.917, 58.74904
1066.399, 58.51738
1066.881, 58.58241
1067.363, 58.37543
1067.845, 57.39905
1068.328, 56.09975
1068.810, 54.88313
1069.292, 53.81895
1069.774, 52.85110
1070.256, 51.92233
1070.738, 51.34810
1071.220, 51.74884
1071.702, 51.98788
1072.184, 51.18225
1072.667, 50.05728
1073.149, 49.37270
1073.631, 49.05998
1074.113, 48.74995
1074.595, 48.35341
1075.077, 47.88979
1075.559, 47.19131
1076.041, 46.65192
1076.523, 47.00099
1077.006, 47.18719
1077.488, 46.05986
1077.970, 43.96304
1078.452, 41.75896
1078.934, 39.65356
1079.416, 37.66983
1079.898, 36.07477
1080.380, 34.25845
1080.862, 31.52708
1081.345, 28.75313
1081.827, 26.82645
1082.309, 25.42146
1082.791, 24.01938
1083.273, 22.46089
1083.755, 20.40266
1084.237, 17.03156
1084.719, 14.05383
1085.202, 12.91650
1085.684, 11.88980
1086.166, 9.311172
1086.648, 6.030243
1087.130, 3.488510
1087.612, 1.846527
1088.094, 0.2983860
1088.576, 1.329819
1089.058, 3.130814
1089.541, 5.399017
1090.023, 7.600662
1090.505, 9.624771
1090.987, 11.18935
1091.469, 11.59505
1091.951, 11.16039
1092.433, 11.57436
1092.915, 13.85403
1093.397, 15.53180
1093.880, 15.32544
1094.362, 14.59727
1094.844, 13.83370
1095.326, 13.19324
1095.808, 12.92243
1096.290, 12.87614
1096.772, 12.64605
1097.254, 12.18047
1097.737, 11.28403
1098.219, 9.573837
1098.701, 7.821495
1099.183, 6.607323
1099.665, 5.295441
1100.147, 3.293640
1100.629, 0.7400970
1101.111, 1.958786
1101.594, 4.734802
1102.076, 7.847832
1102.558, 11.86271
1103.040, 15.55806
1103.522, 17.95325
1104.004, 20.50227
1104.486, 24.07066
1104.968, 28.55222
1105.450, 33.78288
1105.932, 39.71119
1106.415, 45.82861
1106.897, 51.95035
1107.379, 58.36073
1107.861, 64.47018
1108.343, 71.60255
1108.825, 81.30766
1109.307, 91.86541
1109.789, 100.9811
1110.272, 108.8245
1110.754, 117.7429
1111.236, 128.5379
1111.718, 139.2401
1112.200, 149.8558
1112.682, 160.1516
1113.164, 170.3010
1113.646, 179.9936
1114.129, 189.7572
1114.611, 198.8645
1115.093, 204.6728
1115.575, 206.3949
1116.057, 207.2166
1116.539, 207.7947
1117.021, 206.4667
1117.503, 202.3475
1117.985, 196.9022
1118.468, 190.9842
1118.950, 184.4280
1119.432, 176.5817
1119.914, 167.1906
1120.396, 159.6721
1120.878, 155.1483
1121.360, 149.9983
1121.842, 143.1867
1122.324, 136.9855
1122.807, 132.6408
1123.289, 129.2304
1123.771, 125.6187
1124.253, 121.8336
1124.735, 118.0905
1125.217, 114.2071
1125.699, 111.0753
1126.181, 109.0809
1126.664, 106.7783
1127.146, 103.4521
1127.628, 100.0466
1128.110, 97.55477
1128.592, 95.62379
1129.074, 93.00334
1129.556, 89.52585
1130.038, 87.49976
1130.521, 87.21019
1131.003, 85.74619
1131.485, 82.22272
1131.967, 79.29068
1132.449, 78.67712
1132.931, 79.46517
1133.413, 80.23703
1133.895, 81.00066
1134.377, 81.81976
1134.859, 82.71646
1135.342, 83.99444
1135.824, 85.75034
1136.306, 87.77888
1136.788, 89.93147
1137.270, 92.13136
1137.752, 94.25623
1138.234, 96.49836
1138.716, 99.18519
1139.199, 102.4060
1139.681, 106.5765
1140.163, 111.6274
1140.645, 117.1266
1141.127, 122.9195
1141.609, 128.9937
1142.091, 135.3466
1142.573, 141.9001
1143.056, 148.5659
1143.538, 155.3080
1144.020, 162.2046
1144.502, 169.0554
1144.984, 175.6197
1145.466, 181.6710
1145.948, 186.8457
1146.430, 190.9250
1146.912, 192.5932
1147.395, 189.9636
1147.877, 185.1410
1148.359, 180.5939
1148.841, 175.3177
1149.323, 167.5150
1149.805, 157.9328
1150.287, 148.4745
1150.769, 139.3457
1151.251, 129.0180
1151.734, 116.1452
1152.216, 103.7352
1152.698, 93.64828
1153.180, 85.01994
1153.662, 77.80211
1154.144, 71.25054
1154.626, 64.32011
1155.108, 57.25922
1155.591, 51.27508
1156.073, 46.84834
1156.555, 42.84285
1157.037, 38.68157
1157.519, 35.05982
1158.001, 32.36015
1158.483, 30.27849
1158.965, 28.78345
1159.448, 27.47427
1159.930, 25.68784
1160.412, 23.39884
1160.894, 21.75700
1161.376, 21.40015
1161.858, 20.89742
1162.340, 19.86865
1162.822, 19.02155
1163.304, 19.03221
1163.786, 18.92500
1164.269, 17.48050
1164.751, 15.24417
1165.233, 14.12763
1165.715, 14.43024
1166.197, 14.56853
1166.679, 14.59648
1167.161, 14.28934
1167.643, 13.51746
1168.126, 12.59256
1168.608, 11.61715
1169.090, 10.79361
1169.572, 10.50310
1170.054, 10.60063
1170.536, 9.866470
1171.018, 9.673950
1171.500, 9.574993
1171.983, 8.647335
1172.465, 8.985321
1172.947, 8.059509
1173.429, 6.819138
1173.911, 6.043488
1174.393, 5.537636
1174.875, 4.915356
1175.357, 4.231529
1175.839, 3.682381
1176.322, 3.259483
1176.804, 2.917061
1177.286, 2.641121
1177.768, 2.501423
1178.250, 2.515991
1178.732, 2.331459
1179.214, 1.427876
1179.696, 0.3750340
1180.178, 0.1272850
1180.661, 0.2339170
1181.143, 3.3200000E-04
1181.625, 0.3659550
1182.107, 0.4984660
1182.589, 0.3257940
1183.071, 9.3658000E-02
1183.553, 0.8595470
1184.035, 1.327595
1184.518, 0.7536700
1185.000, 0.1220780
1185.482, 0.1228180
1185.964, 0.4310910
1186.446, 0.9002650
1186.928, 1.300755
1187.410, 1.097855
1187.892, 0.1813740
1188.375, 0.3587910
1188.857, 1.5736001E-02
1189.339, 0.3761100
1189.821, 0.6288950
1190.303, 0.7031940
1190.785, 0.5097160
1191.267, 0.1665190
1191.749, 0.3890230
1192.231, 0.9751660
1192.714, 0.7955060
1193.196, 0.5560380
1193.678, 1.049587
1194.160, 0.3239400
1194.642, 0.2824590
1195.124, 0.5354080
1195.606, 0.5215150
1196.088, 0.1988260
1196.570, 0.1195140
1197.053, 4.2027000E-02
1197.535, 0.5696790
1198.017, 0.8982580
1198.499, 1.033035
1198.981, 1.141022
1199.463, 1.236687
1199.945, 1.475334
1200.427, 1.891739
1200.910, 2.152012
1201.392, 2.005325
1201.874, 1.757568
1202.356, 1.863705
1202.838, 2.170830
1203.320, 2.393314
1203.802, 2.545395
1204.284, 2.564583
1204.766, 2.549732
1205.249, 2.903511
1205.731, 3.685699
1206.213, 4.286201
1206.695, 4.338322
1207.177, 4.067074
1207.659, 3.350418
1208.141, 2.691093
1208.623, 2.591251
1209.105, 2.776480
1209.588, 2.935944
1210.070, 3.032202
1210.552, 3.051901
1211.034, 2.957268
1211.516, 3.134689
1211.998, 3.926819
1212.480, 4.631660
1212.962, 5.045296
1213.445, 5.372993
1213.927, 6.005909
1214.409, 6.362427
1214.891, 5.506554
1215.373, 3.847116
1215.855, 3.248404
1216.337, 3.927389
1216.819, 4.810642
1217.302, 6.090439
1217.784, 6.762205
1218.266, 6.520739
1218.748, 6.096260
1219.230, 5.848808
1219.712, 5.831556
1220.194, 6.191442
1220.676, 6.724871
1221.158, 6.617348
1221.641, 6.016527
1222.123, 5.642536
1222.605, 5.523849
1223.087, 5.569927
1223.569, 5.733231
1224.051, 5.888918
1224.533, 5.966707
1225.015, 6.025703
1225.497, 6.162329
1225.980, 6.277643
1226.462, 6.089256
1226.944, 5.935431
1227.426, 6.441967
1227.908, 7.272121
1228.390, 7.664436
1228.872, 7.533094
1229.354, 7.501873
1229.837, 7.465635
1230.319, 7.606737
1230.801, 8.223957
1231.283, 8.676510
1231.765, 8.512705
1232.247, 8.262217
1232.729, 8.395689
1233.211, 8.628304
1233.693, 8.574152
1234.176, 8.408159
1234.658, 8.312262
1235.140, 8.158710
1235.622, 7.867712
1236.104, 7.564631
1236.586, 7.470970
1237.068, 7.797255
1237.550, 8.229731
1238.032, 8.123369
1238.515, 7.614822
1238.997, 7.028208
1239.479, 6.515381
1239.961, 6.217222
1240.443, 6.040667
1240.925, 5.975580
1241.407, 5.845985
1241.889, 5.702524
1242.372, 5.672829
1242.854, 5.580603
1243.336, 5.335196
1243.818, 5.044119
1244.300, 4.786222
1244.782, 4.452242
1245.264, 3.649733
1245.746, 2.932377
1246.229, 3.191189
1246.711, 4.037270
1247.193, 4.517555
1247.675, 4.492943
1248.157, 4.521011
1248.639, 4.879879
1249.121, 4.975378
1249.603, 4.652449
1250.085, 4.206575
1250.568, 3.561874
1251.050, 2.977726
1251.532, 2.683716
1252.014, 2.671257
1252.496, 2.726688
1252.978, 2.816404
1253.460, 3.264784
1253.942, 4.170633
1254.424, 4.478365
1254.907, 4.126331
1255.389, 3.605936
1255.871, 3.053421
1256.353, 2.764835
1256.835, 2.936781
1257.317, 3.202438
1257.799, 3.000887
1258.281, 2.559647
1258.764, 2.246960
1259.246, 2.100210
1259.728, 2.340229
1260.210, 2.735098
1260.692, 2.637497
1261.174, 2.048597
1261.656, 1.601496
1262.138, 1.590918
1262.620, 1.631428
1263.103, 1.464651
1263.585, 1.394598
1264.067, 1.624975
1264.549, 1.937639
1265.031, 2.227526
1265.513, 2.458601
1265.995, 2.657263
1266.477, 2.766939
1266.959, 2.528582
1267.442, 1.748631
1267.924, 1.314554
1268.406, 1.228371
1268.888, 1.422577
1269.370, 1.975065
1269.852, 2.280382
1270.334, 2.034401
1270.816, 1.600573
1271.299, 1.317696
1271.781, 1.209497
1272.263, 1.483299
1272.745, 1.889889
1273.227, 1.934296
1273.709, 1.696598
1274.191, 1.046700
1274.673, 0.2896040
1275.156, 0.4756200
1275.638, 1.887802
1276.120, 2.906435
1276.602, 2.552870
1277.084, 1.769167
1277.566, 0.4370190
1278.048, 0.4873770
1278.530, 0.1322270
1279.012, 0.6319580
1279.495, 1.056227
1279.977, 1.168610
1280.459, 1.090893
1280.941, 0.8029790
1281.423, 0.7612970
1281.905, 1.022505
1282.387, 1.133823
1282.869, 1.413931
1283.351, 1.452084
1283.834, 1.079218
1284.316, 0.5773160
1284.798, 0.1590710
1285.280, 1.1692000E-02
1285.762, 0.2674640
1286.244, 0.0000000E+00
##END=



