##NAMES=Bultfonteinite
##RRUFFID=R050088
##IDEAL CHEMISTRY=Ca_2_[SiO_3_(OH)]F&#183;H_2_O
##LOCALITY=N'Chwaning II mine, Kuruman, South Africa
##OWNER=RRUFF
##SOURCE=Rock Currier
##DESCRIPTION=Sprays of acicular white crystals associated with olmiite, R050144
##STATUS=The identification of this mineral is confirmed by single-crystal X-ray diffraction and chemical analysis.
##URL=rruff.info/R050088
##MEASURED CHEMISTRY=Ca_1.96_[Si_0.97_O_3_(OH)_1.00_]F_1.00_&#183;0.61H_2_O; OH estimated by charge balance; H_2_O by difference
134.163, 0.000
134.999, 9.346
135.836, 216.099
136.672, 424.869
137.507, 810.320
138.343, 1113.077
139.179, 858.387
140.015, 714.603
140.850, 487.681
141.686, 445.458
142.521, 706.365
143.356, 980.362
144.191, 1487.019
145.026, 2225.555
145.861, 2957.928
146.696, 4238.729
147.531, 4935.554
148.365, 5982.156
149.200, 7278.206
150.035, 8283.504
150.869, 9247.938
151.703, 10122.322
152.537, 11233.381
153.371, 11764.339
154.205, 12058.787
155.039, 12150.726
155.873, 11643.997
156.707, 11129.141
157.541, 10329.482
158.374, 9857.133
159.207, 8358.270
160.041, 6547.830
160.874, 5055.223
161.707, 3740.669
162.540, 2874.377
163.373, 1976.517
164.206, 1357.238
165.039, 876.674
165.872, 604.938
166.704, 222.130
167.537, 148.337
168.369, 123.641
169.201, 155.497
170.033, 133.971
170.866, 27.093
171.698, 122.765
172.530, 71.601
173.361, 131.021
174.193, 110.986
175.025, 68.531
175.856, 209.124
176.688, 526.763
177.519, 934.535
178.350, 1272.255
179.181, 1369.496
180.013, 1678.560
180.844, 1929.858
181.674, 2056.223
182.505, 2105.502
183.336, 2251.153
184.166, 2266.079
184.997, 2618.974
185.827, 2684.273
186.658, 2599.752
187.488, 2545.512
188.318, 2301.541
189.148, 2187.823
189.978, 2204.347
190.808, 2121.091
191.638, 2098.042
192.467, 1915.186
193.297, 2062.506
194.126, 2219.978
194.956, 2187.580
195.785, 2115.303
196.614, 2333.139
197.443, 2171.076
198.272, 2019.104
199.101, 1637.214
199.930, 1488.290
200.759, 1163.656
201.587, 1021.973
202.416, 720.322
203.244, 468.537
204.073, 336.582
204.901, 484.616
205.729, 402.703
206.557, 360.831
207.385, 428.987
208.213, 477.147
209.041, 545.289
209.868, 693.412
210.696, 921.518
211.523, 929.607
212.351, 997.681
213.178, 1075.742
214.005, 753.793
214.832, 841.830
215.659, 609.860
216.486, 497.880
217.313, 515.894
218.140, 363.899
218.967, 201.882
219.793, 259.838
220.620, 227.767
221.446, 105.680
222.272, 23.592
223.098, 18.777
223.925, 40.585
224.751, 162.672
225.576, 154.761
226.402, 326.874
227.228, 189.026
228.054, 361.270
228.879, 383.688
229.705, 326.369
230.530, 329.432
231.355, 242.919
232.180, 186.779
233.005, 40.926
233.830, 101.923
234.655, 135.172
235.480, 299.281
236.305, 493.755
237.129, 808.474
237.954, 1013.355
238.778, 1198.324
239.602, 1433.331
240.427, 1474.410
241.251, 1573.328
242.075, 1478.284
242.899, 1313.195
243.723, 1158.006
244.546, 1192.702
245.370, 1017.285
246.194, 951.757
247.017, 1016.114
247.841, 960.358
248.664, 944.492
249.487, 1108.517
250.310, 1322.439
251.133, 1436.254
251.956, 1579.879
252.779, 1833.052
253.602, 2085.735
254.424, 2218.350
255.247, 2415.238
256.069, 2533.122
256.892, 2665.809
257.714, 2728.096
258.536, 2760.248
259.358, 2842.274
260.180, 2864.182
261.002, 2985.978
261.824, 3287.672
262.646, 3769.270
263.467, 4097.709
264.289, 4762.201
265.110, 5223.549
265.931, 5924.816
266.753, 6600.057
267.574, 7361.633
268.395, 8158.062
269.216, 9038.881
270.037, 10066.538
270.858, 10908.007
271.678, 11772.528
272.499, 13003.167
273.319, 13974.931
274.140, 15284.901
274.960, 16665.488
275.780, 18495.994
276.600, 19916.424
277.420, 21706.684
278.240, 22606.693
279.060, 23916.312
279.880, 24385.447
280.700, 23694.004
281.519, 22552.045
282.339, 21259.717
283.158, 19547.270
283.977, 17304.818
284.797, 15352.383
285.616, 13739.970
286.435, 12367.576
287.254, 11145.199
288.073, 10022.842
288.891, 9220.502
289.710, 8478.176
290.529, 7715.867
291.347, 7163.573
292.165, 6611.293
292.984, 6079.023
293.802, 5336.770
294.620, 5134.529
295.438, 4662.301
296.256, 4180.083
297.074, 3977.877
297.891, 3675.683
298.709, 3513.500
299.527, 3191.328
300.344, 3109.167
301.161, 2987.018
301.979, 2784.118
302.796, 2790.121
303.613, 2748.521
304.430, 2804.096
305.247, 2820.536
306.064, 2867.594
306.880, 2934.907
307.697, 2812.534
308.514, 3170.498
309.330, 3118.474
310.146, 3366.464
310.963, 3484.468
311.779, 3702.485
312.595, 3950.516
313.411, 4158.562
314.227, 4396.621
315.043, 4624.318
315.858, 4612.123
316.674, 4729.230
317.489, 4934.426
318.305, 5080.605
319.120, 4956.392
319.935, 5229.428
320.751, 5119.750
321.566, 4946.992
322.381, 4965.336
323.195, 4906.955
324.010, 4636.325
324.825, 4628.295
325.640, 4396.935
326.454, 4277.914
327.268, 3916.116
328.083, 3856.967
328.897, 3687.643
329.711, 3650.176
330.525, 3649.203
331.339, 3562.936
332.153, 3658.310
332.967, 3645.497
333.781, 3923.453
334.594, 3723.971
335.408, 3744.899
336.221, 3843.309
337.034, 3491.709
337.848, 3470.100
338.661, 3438.531
339.474, 3267.980
340.287, 3377.367
341.100, 3607.822
341.912, 3737.092
342.725, 3715.425
343.538, 3693.747
344.350, 3642.062
345.163, 3631.870
345.975, 3568.671
346.787, 3636.966
347.599, 3615.254
348.411, 3713.537
349.223, 3671.814
350.035, 3730.088
350.847, 3768.359
351.659, 3796.632
352.470, 3772.324
353.282, 3737.857
354.093, 3681.451
354.904, 3589.728
355.716, 3528.005
356.527, 3416.285
357.338, 3634.567
358.149, 3852.854
358.960, 3991.146
359.770, 4029.443
360.581, 4167.742
361.392, 4146.050
362.202, 4354.363
363.012, 4510.131
363.823, 4931.008
364.633, 4879.338
365.443, 5237.680
366.253, 5326.028
367.063, 5294.387
367.873, 5382.768
368.683, 4911.199
369.492, 4719.670
370.302, 4648.194
371.112, 4356.771
371.921, 4165.361
372.730, 3983.963
373.539, 3722.582
374.349, 3521.212
375.158, 3249.857
375.967, 3188.518
376.775, 3037.192
377.584, 2755.906
378.393, 2614.645
379.201, 2663.406
380.010, 2602.204
380.818, 2521.042
381.627, 2469.908
382.435, 2358.822
383.243, 2447.761
384.051, 2496.728
384.859, 2565.724
385.667, 2547.440
386.475, 2633.830
387.282, 2472.937
388.090, 2392.115
388.897, 2331.320
389.705, 2350.553
390.512, 2289.857
391.319, 2179.215
392.126, 2038.607
392.933, 1978.023
393.740, 1767.469
394.547, 1586.950
395.354, 1566.470
396.161, 1436.035
396.967, 1295.627
397.774, 1245.245
398.580, 1144.908
399.387, 1074.600
400.193, 964.323
400.999, 894.091
401.805, 853.896
402.611, 713.743
403.417, 703.617
404.223, 553.533
405.028, 663.474
405.834, 543.462
406.639, 563.472
407.445, 433.507
408.250, 303.570
409.055, 513.662
409.861, 213.777
410.666, 293.933
411.471, 264.113
412.275, 244.324
413.080, 74.570
413.885, 164.849
414.690, 15.178
415.494, 25.538
416.298, 15.931
417.103, 23.632
417.907, 36.856
418.711, 72.583
419.515, 91.970
420.319, 11.281
421.123, 100.489
421.927, 49.585
422.731, 118.584
423.534, 87.467
424.338, 206.213
425.141, 114.896
425.945, 183.475
426.748, 32.003
427.551, 150.437
428.354, 228.861
429.157, 57.344
429.960, 15.812
430.763, 64.263
431.565, 72.718
432.368, 38.820
433.171, 60.376
433.973, 81.948
434.775, 3.537
435.578, 34.858
436.380, 33.252
437.182, 61.642
437.984, 30.035
438.786, 31.574
439.588, 133.200
440.389, 84.840
441.191, 96.494
441.993, 38.163
442.794, 99.847
443.595, 171.546
444.397, 203.260
445.198, 164.990
445.999, 216.735
446.800, 208.493
447.601, 180.268
448.402, 312.054
449.202, 303.855
450.003, 215.673
450.804, 327.504
451.604, 269.350
452.405, 281.207
453.205, 223.079
454.005, 274.962
454.805, 226.859
455.605, 348.769
456.405, 360.692
457.205, 342.628
458.005, 334.578
458.804, 376.537
459.604, 356.490
460.403, 290.492
461.203, 342.484
462.002, 344.488
462.801, 306.506
463.601, 418.534
464.400, 350.573
465.199, 372.620
465.997, 344.676
466.796, 337.477
467.595, 309.706
468.393, 342.076
469.192, 385.527
469.990, 377.798
470.789, 270.723
471.587, 413.481
472.385, 376.088
473.183, 432.833
473.981, 486.188
474.779, 477.651
475.577, 504.039
476.375, 530.403
477.172, 513.339
477.970, 581.113
478.767, 483.989
479.565, 697.195
480.362, 650.652
481.159, 824.493
481.956, 753.929
482.753, 886.917
483.550, 950.917
484.347, 994.385
485.143, 1127.057
485.940, 1161.355
486.737, 1360.742
487.533, 1445.225
488.330, 1598.271
489.126, 1832.094
489.922, 1957.568
490.718, 2183.170
491.514, 2250.786
492.310, 2424.323
493.106, 2547.525
493.902, 2944.919
494.697, 3028.059
495.493, 3141.031
496.288, 3347.614
497.084, 3402.470
497.879, 3367.483
498.674, 3480.661
499.469, 3156.631
500.264, 3189.428
501.059, 3067.624
501.854, 2890.301
502.649, 2703.545
503.444, 2597.592
504.238, 2511.738
505.033, 2184.601
505.827, 2221.398
506.622, 2004.946
507.416, 1898.850
508.210, 1784.367
509.004, 1698.168
509.798, 1694.735
510.592, 1567.391
511.386, 1540.230
512.179, 1423.005
512.973, 1325.103
513.767, 1330.970
514.560, 1274.896
515.353, 1338.040
516.147, 1281.050
516.940, 1310.092
517.733, 1351.081
518.526, 1329.224
519.319, 1360.199
520.112, 1363.676
520.905, 1431.757
521.697, 1368.472
522.490, 1187.254
523.282, 1253.220
524.075, 1215.120
524.867, 1136.351
525.659, 1298.073
526.451, 1308.326
527.243, 1477.647
528.035, 1340.119
528.827, 1422.188
529.619, 1514.085
530.411, 1586.049
531.202, 1706.396
531.994, 1817.246
532.785, 1896.931
533.576, 2137.573
534.368, 2119.266
535.159, 2290.699
535.950, 2442.188
536.741, 2703.608
537.532, 2755.022
538.323, 2666.762
539.113, 2918.245
539.904, 2550.322
540.694, 2621.495
541.485, 2462.704
542.275, 2304.443
543.066, 2015.719
543.856, 1897.154
544.646, 1758.779
545.436, 1489.987
546.226, 1251.481
547.016, 1252.379
547.805, 1113.741
548.595, 904.788
549.385, 915.952
550.174, 776.938
550.964, 618.641
551.753, 559.523
552.542, 550.654
553.331, 481.310
554.120, 442.475
554.909, 413.065
555.698, 393.479
556.487, 384.612
557.276, 351.768
558.064, 256.456
558.853, 307.473
559.641, 247.748
560.429, 248.136
561.218, 48.471
562.006, 188.750
562.794, 158.643
563.582, 8.493
564.370, 188.742
565.158, 38.444
565.945, 78.551
566.733, 118.707
567.521, 41.526
568.308, 18.273
569.096, 78.070
569.883, 12.456
570.670, 33.011
571.457, 56.358
572.244, 54.308
573.031, 74.938
573.818, 34.159
574.605, 24.026
575.391, 12.647
576.178, 77.981
576.965, 61.058
577.751, 149.642
578.537, 29.221
579.324, 138.036
580.110, 152.970
580.896, 74.339
581.682, 4.203
582.468, 62.679
583.254, 21.102
584.039, 10.538
584.825, 12.256
585.610, 44.034
586.396, 34.262
587.181, 52.332
587.967, 39.654
588.752, 58.262
589.537, 76.121
590.322, 26.071
591.107, 1.646
591.892, 0.713
592.677, 56.852
593.461, 15.646
594.246, 101.772
595.030, 50.867
595.815, 126.387
596.599, 53.586
597.383, 20.721
598.167, 17.787
598.952, 84.783
599.736, 28.282
600.519, 38.559
601.303, 25.332
602.087, 7.964
602.871, 28.655
603.654, 24.795
604.438, 101.661
605.221, 78.057
606.004, 84.392
606.788, 90.664
607.571, 86.881
608.354, 63.035
609.137, 82.179
609.919, 45.195
610.702, 91.188
611.485, 107.134
612.268, 83.028
613.050, 18.881
613.832, 64.674
614.615, 100.444
615.397, 146.173
616.179, 111.881
616.961, 117.532
617.743, 63.152
618.525, 48.755
619.307, 124.298
620.089, 89.784
620.870, 195.218
621.652, 80.605
622.433, 125.928
623.215, 161.189
623.996, 126.391
624.777, 261.533
625.558, 146.625
626.340, 161.660
627.120, 206.647
627.901, 171.582
628.682, 226.455
629.463, 206.423
630.243, 216.029
631.024, 210.729
631.804, 125.369
632.585, 179.949
633.365, 84.469
634.145, 238.923
634.925, 223.319
635.705, 107.657
636.485, 191.934
637.265, 146.149
638.045, 110.304
638.824, 184.396
639.604, 118.429
640.383, 242.529
641.163, 126.441
641.942, 190.291
642.721, 154.352
643.501, 188.592
644.280, 82.466
645.059, 196.103
645.837, 129.647
646.616, 233.569
647.395, 117.236
648.174, 230.849
648.952, 264.364
649.731, 107.867
650.509, 91.438
651.287, 204.989
652.065, 108.499
652.844, 251.855
653.622, 215.199
654.400, 218.445
655.177, 220.776
655.955, 304.491
656.733, 310.873
657.510, 202.621
658.288, 359.932
659.065, 241.069
659.843, 229.351
660.620, 311.587
661.397, 279.551
662.174, 275.062
662.951, 369.978
663.728, 345.279
664.505, 408.102
665.282, 463.204
666.058, 410.620
666.835, 342.979
667.611, 324.410
668.388, 431.318
669.164, 307.957
669.940, 367.252
670.716, 288.411
671.492, 433.397
672.268, 365.899
673.044, 301.989
673.820, 370.734
674.596, 411.588
675.371, 349.144
676.147, 370.284
676.922, 389.841
677.698, 418.004
678.473, 360.010
679.248, 295.599
680.023, 466.796
680.798, 396.919
681.573, 402.555
682.348, 472.382
683.123, 433.454
683.898, 439.720
684.672, 497.652
685.447, 505.366
686.221, 384.856
686.996, 551.493
687.770, 451.241
688.544, 355.530
689.318, 445.276
690.092, 544.395
690.866, 532.649
691.640, 560.740
692.413, 530.054
693.187, 435.373
693.961, 453.877
694.734, 441.965
695.508, 428.974
696.281, 436.438
697.054, 421.675
697.827, 433.679
698.600, 439.594
699.373, 478.434
700.146, 477.274
700.919, 546.035
701.692, 604.458
702.464, 753.080
703.237, 731.060
704.009, 729.659
704.782, 738.344
705.554, 1026.779
706.326, 1413.808
707.098, 1561.895
707.870, 2150.331
708.642, 2908.955
709.414, 4287.390
710.186, 5995.803
710.958, 7483.602
711.729, 7571.068
712.501, 6409.378
713.272, 4857.394
714.044, 3485.912
714.815, 2553.719
715.586, 1911.861
716.357, 1430.105
717.128, 1128.163
717.899, 926.744
718.670, 824.802
719.441, 802.891
720.212, 601.126
720.982, 589.175
721.753, 487.420
722.523, 415.557
723.293, 493.693
724.064, 351.775
724.834, 329.463
725.604, 437.340
726.374, 264.555
727.144, 322.604
727.914, 240.549
728.683, 257.896
729.453, 335.636
730.223, 243.155
730.992, 310.416
731.762, 298.023
732.531, 175.276
733.300, 213.054
734.069, 220.299
734.838, 136.699
735.607, 77.432
736.376, 148.790
737.145, 187.671
737.914, 197.331
738.682, 86.884
739.451, 131.513
740.220, 127.878
740.988, 135.257
741.756, 122.743
742.524, 89.438
743.293, 75.901
744.061, 70.059
744.829, 89.636
745.597, 76.902
746.364, 83.985
747.132, 111.050
747.900, 28.096
748.667, 24.547
749.435, 52.762
750.202, 40.405
750.969, 113.117
751.737, 66.348
752.504, 80.271
753.271, 97.207
754.038, 35.982
754.805, 19.264
755.571, 62.310
756.338, 45.436
757.105, 28.597
757.871, 18.188
758.638, 14.962
759.404, 138.319
760.170, 71.824
760.937, 75.265
761.703, 49.021
762.469, 47.430
763.235, 56.451
764.001, 10.038
764.766, 36.338
765.532, 37.538
766.298, 61.188
767.063, 45.126
767.829, 11.428
768.594, 127.703
769.359, 23.970
770.124, 49.774
770.890, 96.439
771.655, 7.512
772.420, 28.679
773.184, 94.854
773.949, 201.035
774.714, 2.798
775.479, 133.345
776.243, 159.488
777.007, 95.629
777.772, 211.766
778.536, 157.892
779.300, 294.020
780.064, 250.135
780.828, 226.262
781.592, 262.377
782.356, 328.482
783.120, 604.582
783.884, 528.468
784.647, 516.764
785.411, 522.857
786.174, 438.946
786.938, 445.029
787.701, 591.117
788.464, 517.201
789.227, 603.292
789.990, 779.375
790.753, 765.451
791.516, 731.520
792.279, 787.581
793.041, 849.386
793.804, 1039.686
794.566, 1045.729
795.329, 1241.770
796.091, 1337.805
796.854, 1433.834
797.616, 1599.858
798.378, 1535.885
799.140, 1711.908
799.902, 1858.227
800.664, 2043.940
801.425, 2259.951
802.187, 2415.956
802.949, 2681.961
803.710, 2747.966
804.472, 3013.970
805.233, 3259.971
805.994, 3615.977
806.755, 3892.661
807.516, 4247.984
808.277, 4533.986
809.038, 4959.985
809.799, 5315.982
810.560, 5984.222
811.321, 6160.220
812.081, 6726.212
812.842, 7493.708
813.602, 7903.354
814.363, 8599.346
815.123, 9237.032
815.883, 9943.287
816.643, 10659.275
817.403, 11465.809
818.163, 11961.807
818.923, 12547.800
819.683, 13383.795
820.442, 13969.795
821.202, 14177.699
821.961, 14663.705
822.721, 15229.716
823.480, 15315.728
824.240, 15351.963
824.999, 14807.637
825.758, 14963.662
826.517, 14589.422
827.276, 14324.949
828.035, 13750.789
828.793, 13176.812
829.552, 12662.867
830.311, 12208.494
831.069, 11414.322
831.828, 10930.150
832.586, 10226.026
833.344, 9631.861
834.102, 9137.577
834.861, 8583.261
835.619, 8117.825
836.376, 7554.707
837.134, 7190.445
837.892, 6806.231
838.650, 6292.148
839.407, 5887.215
840.165, 5559.434
840.922, 5325.162
841.680, 4736.473
842.437, 4783.262
843.194, 4433.035
843.951, 4238.968
844.708, 3764.996
845.465, 3856.830
846.222, 3489.766
846.979, 3420.060
847.736, 3101.469
848.492, 3013.992
849.249, 2959.328
850.005, 2754.586
850.762, 2540.405
851.518, 2420.462
852.274, 2240.367
853.030, 2221.977
853.786, 2068.124
854.542, 2099.386
855.298, 1833.622
856.054, 1929.790
856.810, 1782.423
857.565, 1693.633
858.321, 1599.913
859.076, 1595.708
859.832, 1452.264
860.587, 1578.521
861.342, 1290.764
862.097, 1387.363
862.852, 1112.389
863.607, 1228.781
864.362, 1135.426
865.117, 1222.087
865.872, 967.631
866.626, 1044.324
867.381, 791.034
868.135, 887.760
868.890, 1134.504
869.644, 941.266
870.398, 988.044
871.152, 864.841
871.906, 811.655
872.660, 938.487
873.414, 795.339
874.168, 742.209
874.922, 609.099
875.675, 806.008
876.429, 652.936
877.182, 849.870
877.936, 886.805
878.689, 883.757
879.442, 1000.705
880.196, 627.670
880.949, 574.656
881.702, 541.662
882.455, 568.677
883.207, 395.712
883.960, 402.770
884.713, 373.749
885.465, 466.951
886.218, 374.074
886.970, 361.221
887.723, 408.391
888.475, 185.584
889.227, 342.818
889.979, 270.059
890.731, 157.323
891.483, 234.618
892.235, 341.932
892.987, 189.270
893.738, 66.633
894.490, 144.156
895.241, 231.568
895.993, 220.772
896.744, 98.236
897.495, 165.726
898.247, 53.240
898.998, 80.780
899.749, 58.348
900.500, 94.058
901.251, 3.553
902.001, 21.193
902.752, 71.139
903.503, 133.449
904.253, 34.252
905.004, 78.016
905.754, 20.262
906.504, 47.520
907.255, 34.666
908.005, 23.176
908.755, 161.049
909.505, 238.957
910.255, 76.895
911.004, 85.131
911.754, 162.869
912.504, 130.906
913.253, 218.980
914.003, 287.094
914.752, 245.246
915.501, 463.436
916.251, 381.666
917.000, 369.938
917.749, 648.254
918.498, 706.611
919.247, 554.980
919.996, 813.393
920.744, 791.852
921.493, 840.357
922.242, 848.912
922.990, 937.516
923.738, 986.168
924.487, 989.324
925.235, 1043.635
925.983, 1022.449
926.731, 1021.322
927.479, 1090.254
928.227, 1089.248
928.975, 1108.303
929.723, 1077.426
930.470, 1056.631
931.218, 1235.906
931.966, 1295.281
932.713, 1294.770
933.460, 1374.367
934.208, 1384.053
934.955, 1573.828
935.702, 1463.717
936.449, 1605.039
937.196, 1895.178
937.943, 1825.459
938.690, 1845.881
939.436, 2016.248
940.183, 2097.307
940.929, 2194.350
941.676, 2537.838
942.422, 2426.246
943.169, 2744.742
943.915, 2933.320
944.661, 2992.000
945.407, 3270.748
946.153, 3419.545
946.899, 3558.426
947.645, 3597.371
948.390, 3846.357
949.136, 4055.400
949.882, 4254.488
950.627, 4463.621
951.373, 4552.801
952.118, 4682.027
952.863, 4991.299
953.608, 5250.613
954.353, 5619.979
955.098, 5869.393
955.843, 6149.496
956.588, 6268.371
957.333, 6557.938
958.078, 6807.555
958.822, 6767.225
959.567, 6739.910
960.311, 6476.725
961.056, 6236.555
961.800, 5766.441
962.544, 5196.381
963.288, 5156.375
964.032, 4416.406
964.776, 4096.492
965.520, 3366.635
966.264, 3033.730
967.007, 2661.850
967.751, 2396.934
968.495, 2004.379
969.238, 1713.869
969.982, 1374.195
970.725, 1264.578
971.468, 1062.160
972.211, 882.623
972.954, 673.143
973.697, 683.717
974.440, 464.352
975.183, 465.043
975.926, 375.789
976.668, 206.592
977.411, 87.451
978.153, 1.633
978.896, 119.338
979.638, 140.359
980.380, 1.432
981.123, 142.553
981.865, 23.717
982.607, 24.918
983.349, 13.844
984.091, 57.396
984.832, 81.342
985.574, 109.928
986.316, 41.205
987.057, 232.559
987.799, 104.006
988.540, 55.539
989.281, 217.160
990.023, 158.871
990.764, 450.670
991.505, 302.559
992.246, 304.541
992.987, 506.615
993.727, 498.785
994.468, 441.047
995.209, 523.406
995.949, 585.863
996.690, 643.605
997.430, 691.068
998.171, 843.824
998.911, 896.791
999.651, 1020.064
1000.391, 933.531
1001.131, 857.172
1001.871, 910.994
1002.611, 944.967
1003.351, 939.096
1004.090, 813.385
1004.830, 777.775
1005.570, 752.387
1006.309, 707.201
1007.048, 731.699
1007.788, 619.990
1008.527, 635.193
1009.266, 570.631
1010.005, 406.309
1010.744, 592.246
1011.483, 408.451
1012.222, 454.939
1012.961, 691.734
1013.699, 588.854
1014.438, 266.318
1015.176, 434.152
1015.915, 692.348
1016.653, 590.926
1017.391, 869.910
1018.129, 569.338
1018.867, 589.260
1019.606, 360.230
1020.343, 181.863
1021.081, 94.225
1021.819, 157.395
1022.557, 171.471
1023.294, 126.568
1024.032, 2.854
1024.769, 19.465
1025.507, 179.760
1026.244, 60.760
1026.981, 293.848
1027.718, 114.439
1028.455, 4.725
1029.192, 199.273
1029.929, 0.000
##END=



