##NAMES=Burbankite
##RRUFFID=R050646
##IDEAL CHEMISTRY=(Na,Ca)_3_(Sr,Ba,Ce)_3_(CO_3_)_5_
##LOCALITY=Cerro Sapo, Cochabamba Department, Bolivia
##OWNER=RRUFF
##SOURCE=Marcus Origlieri
##DESCRIPTION=Brown prismatic crystals associated with blue sodalite, R060405, and dolomite
##STATUS=The identification of this mineral has been confirmed by X-ray diffraction and chemical analysis
##URL=rruff.info/R050646
##MEASURED CHEMISTRY=gray: (Na_2.03_Ca_0.97_)_Σ=3_(Sr_3.14_Ba_0.18_Ce_0.17_[box]_0.15_Th_0.10_Nd_0.08_La_0.08_)_Σ=3_(CO_3_)_5_ ; light-gray: (Na_1.97_Ca_1.03_)_Σ=3_(Sr_1.87_[box]_0.40_Ba_0.37_Ce_0.14_Th_0.11_Nd_0.06_La_0.05_)_Σ=3_(CO_3_)_5_ ; C estimated by stoichiometry
156.1469, 0.0000000E+00
156.6290, 7.402344
157.1111, 53.23633
157.5932, 215.0820
158.0753, 443.7871
158.5574, 691.3984
159.0396, 918.8496
159.5217, 1113.840
160.0038, 1322.445
160.4859, 1536.068
160.9680, 1774.121
161.4501, 2065.877
161.9323, 2380.396
162.4144, 2672.418
162.8965, 2885.826
163.3786, 2997.107
163.8607, 3141.475
164.3428, 3313.988
164.8250, 3497.852
165.3071, 3705.449
165.7892, 3939.463
166.2713, 4195.369
166.7534, 4479.752
167.2355, 4807.545
167.7177, 5096.738
168.1998, 5283.125
168.6819, 5385.248
169.1640, 5500.877
169.6461, 5631.119
170.1282, 5759.711
170.6104, 5877.977
171.0925, 6010.574
171.5746, 6201.365
172.0567, 6487.285
172.5388, 6802.508
173.0209, 7040.658
173.5031, 7199.523
173.9852, 7325.086
174.4673, 7421.223
174.9494, 7508.070
175.4315, 7609.654
175.9136, 7768.379
176.3958, 7983.172
176.8779, 8148.092
177.3600, 8205.725
177.8421, 8158.670
178.3242, 8005.891
178.8063, 7738.924
179.2885, 7365.023
179.7706, 7017.934
180.2527, 6787.797
180.7348, 6452.568
181.2169, 5964.066
181.6990, 5451.344
182.1812, 4957.389
182.6633, 4497.854
183.1454, 4079.297
183.6275, 3717.904
184.1096, 3447.695
184.5917, 3165.410
185.0738, 2872.312
185.5560, 2572.670
186.0381, 2254.094
186.5202, 1917.730
187.0023, 1588.562
187.4844, 1306.973
187.9665, 1100.910
188.4487, 905.3203
188.9308, 726.7148
189.4129, 551.0117
189.8950, 358.9375
190.3771, 142.3242
190.8592, 78.03906
191.3414, 260.5586
191.8235, 384.9141
192.3056, 513.1562
192.7877, 666.3711
193.2698, 825.6211
193.7519, 963.2188
194.2341, 1068.332
194.7162, 1150.457
195.1983, 1222.789
195.6804, 1284.402
196.1625, 1343.629
196.6446, 1416.719
197.1268, 1488.203
197.6089, 1513.508
198.0910, 1463.293
198.5731, 1383.137
199.0552, 1349.863
199.5373, 1367.410
200.0195, 1382.465
200.5016, 1382.371
200.9837, 1358.770
201.4658, 1269.102
201.9479, 1053.020
202.4300, 806.0234
202.9122, 655.2773
203.3943, 609.1602
203.8764, 567.2734
204.3585, 444.2148
204.8406, 238.9102
205.3227, 36.75391
205.8048, 114.9414
206.2870, 276.6016
206.7691, 506.2383
207.2512, 807.2656
207.7333, 1102.160
208.2154, 1278.297
208.6975, 1304.316
209.1797, 1401.395
209.6618, 1647.559
210.1439, 1951.359
210.6260, 2281.523
211.1081, 2626.906
211.5902, 2966.102
212.0724, 3267.375
212.5545, 3506.477
213.0366, 3764.391
213.5187, 4046.875
214.0008, 4437.039
214.4829, 4843.477
214.9651, 5260.930
215.4472, 5682.648
215.9293, 6096.047
216.4114, 6498.172
216.8935, 6898.531
217.3756, 7339.227
217.8578, 7752.523
218.3399, 8065.805
218.8220, 8273.477
219.3041, 8471.211
219.7862, 8810.492
220.2683, 9440.320
220.7505, 9917.078
221.2326, 10120.91
221.7147, 10267.27
222.1968, 10534.89
222.6789, 10961.73
223.1610, 11448.41
223.6432, 11847.88
224.1253, 12106.14
224.6074, 12378.07
225.0895, 12695.29
225.5716, 13010.10
226.0537, 13270.12
226.5358, 13466.30
227.0180, 13629.66
227.5001, 13801.16
227.9822, 13979.53
228.4643, 14165.41
228.9464, 14390.20
229.4285, 14607.65
229.9107, 14738.25
230.3928, 14761.00
230.8749, 14770.73
231.3570, 14906.26
231.8391, 15185.38
232.3212, 15388.28
232.8034, 15420.74
233.2855, 15379.98
233.7676, 15392.31
234.2497, 15486.49
234.7318, 15606.14
235.2139, 15704.26
235.6961, 15782.13
236.1782, 15827.01
236.6603, 15796.65
237.1424, 15741.10
237.6245, 15743.99
238.1066, 15826.20
238.5888, 15950.57
239.0709, 16130.93
239.5530, 16337.12
240.0351, 16473.12
240.5172, 16446.77
240.9993, 16341.16
241.4815, 16314.41
241.9636, 16395.18
242.4457, 16518.28
242.9278, 16637.05
243.4099, 16759.23
243.8920, 16905.06
244.3742, 17103.13
244.8563, 17324.16
245.3384, 17488.87
245.8205, 17555.38
246.3026, 17668.37
246.7847, 17954.80
247.2668, 18329.29
247.7490, 18653.53
248.2311, 18841.23
248.7132, 18944.45
249.1953, 19120.89
249.6774, 19420.91
250.1595, 19698.58
250.6417, 19842.89
251.1238, 19939.98
251.6059, 20103.12
252.0880, 20394.61
252.5701, 20774.34
253.0522, 21153.62
253.5344, 21523.77
254.0165, 21902.58
254.4986, 22263.43
254.9807, 22644.50
255.4628, 23102.82
255.9449, 23666.09
256.4271, 24307.64
256.9092, 24971.33
257.3913, 25659.02
257.8734, 26351.69
258.3555, 27007.62
258.8376, 27685.23
259.3198, 28461.27
259.8019, 29367.00
260.2840, 30347.60
260.7661, 31285.65
261.2482, 32166.48
261.7303, 33010.26
262.2125, 33751.42
262.6946, 34514.92
263.1767, 35420.47
263.6588, 36504.80
264.1409, 37663.08
264.6230, 38728.08
265.1052, 39674.33
265.5873, 40564.06
266.0694, 41373.28
266.5515, 42152.11
267.0336, 42935.28
267.5157, 43727.03
267.9979, 44504.59
268.4800, 45234.83
268.9621, 45913.76
269.4442, 46538.36
269.9263, 47151.52
270.4084, 47693.95
270.8906, 48121.46
271.3727, 48430.45
271.8548, 48645.09
272.3369, 48790.55
272.8190, 48847.80
273.3011, 48885.84
273.7833, 48981.81
274.2654, 49003.34
274.7475, 48825.33
275.2296, 48477.38
275.7117, 48116.86
276.1938, 47913.36
276.6760, 47918.77
277.1581, 47757.72
277.6402, 47382.03
278.1223, 46929.61
278.6044, 46424.05
279.0865, 45890.23
279.5686, 45372.36
280.0508, 44903.62
280.5329, 44483.70
281.0150, 44110.95
281.4971, 43823.30
281.9792, 43532.08
282.4613, 43229.80
282.9435, 42898.12
283.4256, 42503.03
283.9077, 42021.05
284.3898, 41455.41
284.8719, 40848.23
285.3540, 40173.62
285.8362, 39491.44
286.3183, 38796.39
286.8004, 38105.73
287.2825, 37447.19
287.7646, 36833.61
288.2467, 36264.33
288.7289, 35735.36
289.2110, 35320.31
289.6931, 34854.92
290.1752, 34340.22
290.6573, 33755.52
291.1394, 33055.05
291.6216, 32216.86
292.1037, 31304.00
292.5858, 30435.03
293.0679, 29643.95
293.5500, 28839.39
294.0321, 27984.05
294.5143, 27124.14
294.9964, 26323.89
295.4785, 25597.62
295.9606, 24894.55
296.4427, 24146.83
296.9248, 23350.30
297.4070, 22502.56
297.8891, 21524.08
298.3712, 20541.11
298.8533, 19677.83
299.3354, 18950.78
299.8175, 18265.44
300.2997, 17522.88
300.7818, 16707.05
301.2639, 15958.56
301.7460, 15310.28
302.2281, 14705.39
302.7102, 14109.27
303.1924, 13519.30
303.6745, 12930.42
304.1566, 12325.03
304.6387, 11711.81
305.1208, 11186.41
305.6029, 10771.92
306.0851, 10409.88
306.5672, 10055.81
307.0493, 9725.719
307.5314, 9471.516
308.0135, 9321.219
308.4956, 9272.250
308.9778, 9316.000
309.4599, 9545.703
309.9420, 9736.641
310.4241, 9767.188
310.9062, 9712.594
311.3883, 9703.484
311.8705, 9785.109
312.3526, 9963.453
312.8347, 10266.48
313.3168, 10717.83
313.7989, 11213.58
314.2810, 11735.31
314.7632, 12289.59
315.2453, 12890.97
315.7274, 13541.72
316.2095, 14236.39
316.6916, 14976.91
317.1737, 15774.80
317.6559, 16582.86
318.1380, 17352.36
318.6201, 18157.80
319.1022, 19097.19
319.5843, 20178.75
320.0664, 21275.62
320.5485, 22271.33
321.0306, 23150.00
321.5128, 24047.83
321.9949, 24921.11
322.4770, 25852.70
322.9591, 26936.14
323.4412, 28142.08
323.9233, 29359.39
324.4055, 30517.06
324.8876, 31623.30
325.3697, 32671.61
325.8518, 33524.53
326.3339, 34481.80
326.8160, 35749.00
327.2982, 37195.00
327.7803, 38552.72
328.2624, 39696.80
328.7445, 40683.53
329.2266, 41663.33
329.7087, 42628.30
330.1909, 43615.16
330.6730, 44627.84
331.1551, 45651.53
331.6372, 46683.98
332.1193, 47729.45
332.6014, 48764.94
333.0836, 49753.61
333.5657, 50670.98
334.0478, 51595.72
334.5299, 52575.91
335.0120, 53532.03
335.4941, 54395.67
335.9763, 55154.83
336.4584, 55856.09
336.9405, 56531.19
337.4226, 57179.80
337.9047, 57851.17
338.3868, 58647.94
338.8690, 59366.33
339.3511, 59896.44
339.8332, 60263.27
340.3153, 60549.97
340.7974, 60805.03
341.2795, 61028.55
341.7617, 61212.19
342.2438, 61363.48
342.7259, 61475.38
343.2080, 61545.72
343.6901, 61576.33
344.1722, 61577.88
344.6544, 61556.55
345.1365, 61491.41
345.6186, 61340.00
346.1007, 61114.61
346.5828, 60762.02
347.0649, 60228.84
347.5471, 59602.77
348.0292, 58954.98
348.5113, 58305.69
348.9934, 57626.78
349.4755, 56901.12
349.9576, 56133.09
350.4398, 55264.31
350.9219, 54215.05
351.4040, 53153.34
351.8861, 52198.88
352.3682, 51325.42
352.8503, 50421.91
353.3325, 49408.67
353.8146, 48292.92
354.2967, 47150.67
354.7788, 45935.80
355.2609, 44748.94
355.7430, 43655.00
356.2252, 42592.45
356.7073, 41457.50
357.1894, 40202.25
357.6715, 38880.17
358.1536, 37608.50
358.6357, 36425.67
359.1179, 35240.47
359.5999, 34026.97
360.0821, 32823.97
360.5642, 31693.92
361.0463, 30631.66
361.5284, 29567.11
362.0105, 28390.47
362.4926, 27051.62
362.9748, 25796.80
363.4569, 24655.86
363.9390, 23569.28
364.4211, 22544.47
364.9032, 21550.59
365.3853, 20546.72
365.8675, 19489.59
366.3496, 18391.33
366.8317, 17373.34
367.3138, 16495.62
367.7959, 15626.95
368.2780, 14703.39
368.7602, 13787.73
369.2423, 12964.94
369.7244, 12278.55
370.2065, 11673.17
370.6886, 11045.73
371.1707, 10405.70
371.6529, 9718.516
372.1350, 8936.500
372.6171, 8137.656
373.0992, 7338.312
373.5813, 6557.703
374.0634, 5826.109
374.5456, 5191.219
375.0277, 4658.125
375.5098, 4140.219
375.9919, 3630.078
376.4740, 3141.484
376.9561, 2696.641
377.4383, 2275.781
377.9204, 1840.547
378.4025, 1346.656
378.8846, 833.5938
379.3667, 403.1875
379.8488, 63.29688
380.3310, 210.8203
380.8131, 362.8281
381.2952, 483.8047
381.7773, 671.5547
382.2594, 958.5234
382.7415, 1283.195
383.2237, 1602.945
383.7058, 1920.039
384.1879, 2147.195
384.6700, 2242.102
385.1521, 2256.805
385.6342, 2225.109
386.1164, 2150.914
386.5985, 2103.805
387.0806, 2164.961
387.5627, 2270.453
388.0448, 2249.641
388.5269, 2059.078
389.0091, 1857.109
389.4912, 1777.586
389.9733, 1771.688
390.4554, 1734.570
390.9375, 1625.578
391.4196, 1493.773
391.9018, 1393.328
392.3839, 1319.727
392.8660, 1222.992
393.3481, 1075.703
393.8302, 892.9531
394.3123, 724.0078
394.7945, 605.6250
395.2766, 403.6953
395.7587, 28.71875
396.2408, 558.0781
396.7229, 926.9531
397.2050, 1060.828
397.6872, 1152.336
398.1693, 1443.609
398.6514, 1964.523
399.1335, 2366.922
399.6156, 2569.656
400.0977, 2704.453
400.5798, 2829.906
401.0620, 2959.719
401.5441, 3133.516
402.0262, 3389.133
402.5083, 3706.625
402.9904, 3965.289
403.4725, 4092.789
403.9547, 4250.922
404.4368, 4506.133
404.9189, 4799.273
405.4010, 5049.898
405.8831, 5233.617
406.3652, 5388.023
406.8474, 5573.078
407.3295, 5814.406
407.8116, 6024.961
408.2937, 6191.812
408.7758, 6341.602
409.2579, 6513.312
409.7401, 6684.086
410.2222, 6771.984
410.7043, 6695.297
411.1864, 6491.352
411.6685, 6460.820
412.1506, 6798.547
412.6328, 7070.953
413.1149, 7226.188
413.5970, 7286.008
414.0791, 7252.758
414.5612, 7130.781
415.0433, 6978.000
415.5255, 6892.820
416.0076, 6900.281
416.4897, 6892.188
416.9718, 6862.742
417.4539, 6813.625
417.9360, 6723.375
418.4182, 6607.102
418.9003, 6522.672
419.3824, 6523.125
419.8645, 6586.484
420.3466, 6604.680
420.8287, 6571.516
421.3109, 6507.086
421.7930, 6403.203
422.2751, 6283.203
422.7572, 6178.828
423.2393, 6102.945
423.7214, 6027.047
424.2036, 5920.070
424.6857, 5785.211
425.1678, 5651.234
425.6499, 5530.883
426.1320, 5400.578
426.6141, 5229.680
427.0963, 5026.805
427.5784, 4837.336
428.0605, 4688.414
428.5426, 4559.031
429.0247, 4421.125
429.5068, 4270.109
429.9890, 4124.391
430.4711, 4004.211
430.9532, 3894.500
431.4353, 3755.531
431.9174, 3556.672
432.3995, 3377.375
432.8817, 3264.438
433.3638, 3199.953
433.8459, 3152.719
434.3280, 3119.016
434.8101, 3070.367
435.2922, 2957.164
435.7744, 2750.906
436.2565, 2609.875
436.7386, 2603.703
437.2207, 2606.023
437.7028, 2527.844
438.1849, 2373.836
438.6671, 2202.945
439.1492, 2055.078
439.6313, 1922.523
440.1134, 1777.094
440.5955, 1573.336
441.0776, 1404.930
441.5598, 1294.461
442.0418, 1218.641
442.5240, 1180.562
443.0061, 1178.859
443.4882, 1172.500
443.9703, 1102.531
444.4524, 950.8906
444.9345, 792.8984
445.4167, 562.2812
445.8988, 394.3125
446.3809, 403.5547
446.8630, 513.0234
447.3451, 558.4453
447.8272, 438.4219
448.3094, 229.8594
448.7915, 130.2109
449.2736, 179.5469
449.7557, 220.4531
450.2378, 220.6719
450.7199, 191.8672
451.2021, 117.6172
451.6842, 6.164063
452.1663, 65.32031
452.6484, 1.140625
453.1305, 156.6641
453.6126, 226.0781
454.0948, 138.2578
454.5769, 78.02344
455.0590, 239.7188
455.5411, 512.6953
456.0232, 702.1094
456.5053, 736.4609
456.9875, 724.0000
457.4696, 717.9141
457.9517, 729.0000
458.4338, 825.0938
458.9159, 1058.984
459.3980, 1315.594
459.8802, 1390.273
460.3623, 1267.227
460.8444, 1228.367
461.3265, 1408.844
461.8086, 1619.766
462.2907, 1671.383
462.7729, 1577.656
463.2550, 1502.688
463.7371, 1562.180
464.2192, 1731.164
464.7013, 1847.844
465.1834, 1842.965
465.6656, 1874.043
466.1477, 1965.297
466.6298, 2093.031
467.1119, 2260.230
467.5940, 2461.281
468.0761, 2643.199
468.5583, 2725.062
469.0404, 2670.988
469.5225, 2694.012
470.0046, 2918.645
470.4867, 3095.242
470.9688, 3109.801
471.4510, 3047.750
471.9331, 3052.164
472.4152, 3191.199
472.8973, 3379.324
473.3794, 3448.762
473.8615, 3365.508
474.3437, 3320.699
474.8258, 3388.547
475.3079, 3486.945
475.7900, 3578.695
476.2721, 3656.504
476.7542, 3703.574
477.2364, 3694.816
477.7185, 3650.594
478.2006, 3608.719
478.6827, 3571.762
479.1648, 3550.508
479.6469, 3553.527
480.1291, 3573.094
480.6112, 3600.641
481.0933, 3648.668
481.5754, 3674.219
482.0575, 3620.199
482.5396, 3540.875
483.0217, 3553.051
483.5038, 3683.672
483.9860, 3815.508
484.4681, 3830.398
484.9502, 3722.969
485.4323, 3642.688
485.9144, 3607.246
486.3965, 3575.465
486.8787, 3509.121
487.3608, 3437.188
487.8429, 3423.863
488.3250, 3493.828
488.8071, 3593.871
489.2892, 3629.059
489.7714, 3566.289
490.2535, 3513.719
490.7356, 3469.832
491.2177, 3435.996
491.6998, 3432.613
492.1819, 3440.656
492.6641, 3411.281
493.1462, 3305.289
493.6283, 3160.312
494.1104, 3096.934
494.5925, 3149.812
495.0746, 3197.012
495.5568, 3225.453
496.0389, 3225.012
496.5210, 3173.207
497.0031, 3074.051
497.4852, 2977.484
497.9673, 2913.484
498.4495, 2878.516
498.9316, 2897.039
499.4137, 2998.000
499.8958, 3028.016
500.3779, 2847.359
500.8600, 2551.844
501.3422, 2340.957
501.8243, 2242.984
502.3064, 2178.051
502.7885, 2109.723
503.2706, 2042.723
503.7527, 2001.820
504.2349, 2000.645
504.7170, 1998.262
505.1991, 1943.461
505.6812, 1824.242
506.1633, 1723.648
506.6454, 1673.668
507.1276, 1620.352
507.6097, 1554.605
508.0918, 1464.273
508.5739, 1314.086
509.0560, 1092.898
509.5381, 867.7695
510.0203, 759.7461
510.5024, 816.7695
510.9845, 863.1250
511.4666, 895.9844
511.9487, 902.5742
512.4308, 894.9023
512.9130, 869.4023
513.3951, 794.1055
513.8772, 634.5703
514.3593, 440.8672
514.8414, 306.9844
515.3235, 234.2734
515.8057, 213.5820
516.2878, 309.1992
516.7699, 398.1133
517.2520, 345.8320
517.7341, 169.9062
518.2162, 33.54297
518.6984, 44.50000
519.1805, 120.1680
519.6626, 155.2109
520.1447, 143.9766
520.6268, 101.2383
521.1089, 28.16016
521.5911, 57.61719
522.0732, 121.4844
522.5553, 171.0781
523.0374, 194.5586
523.5195, 137.5430
524.0016, 85.76172
524.4838, 144.8906
524.9659, 295.4141
525.4480, 414.9531
525.9301, 411.9531
526.4122, 312.0039
526.8943, 236.5664
527.3765, 140.1562
527.8586, 132.7031
528.3407, 325.8984
528.8228, 541.1914
529.3049, 629.2891
529.7870, 577.0625
530.2692, 468.4805
530.7513, 350.9102
531.2334, 239.5234
531.7155, 228.1992
532.1976, 356.0625
532.6797, 488.4258
533.1619, 611.6445
533.6440, 688.8945
534.1261, 655.0625
534.6082, 485.5820
535.0903, 329.1758
535.5724, 304.9688
536.0546, 358.1953
536.5367, 374.7031
537.0188, 339.7227
537.5009, 273.3984
537.9830, 167.9492
538.4651, 43.78906
538.9473, 9.144531
539.4294, 166.3398
539.9115, 278.3828
540.3936, 231.9922
540.8757, 125.7578
541.3578, 89.71094
541.8400, 145.2734
542.3221, 215.0703
542.8042, 220.8945
543.2863, 161.5625
543.7684, 88.37500
544.2505, 16.41797
544.7326, 113.4297
545.2147, 215.6836
545.6968, 296.8281
546.1790, 311.0352
546.6611, 252.4414
547.1432, 195.3281
547.6253, 240.0352
548.1074, 374.1250
548.5895, 434.6133
549.0717, 369.9141
549.5538, 330.0977
550.0359, 453.3555
550.5180, 645.8906
551.0001, 759.2188
551.4822, 730.1367
551.9644, 713.9023
552.4465, 845.5391
552.9286, 1053.922
553.4107, 1183.402
553.8928, 1201.906
554.3749, 1197.855
554.8571, 1248.449
555.3392, 1352.617
555.8213, 1451.328
556.3034, 1559.602
556.7855, 1647.707
557.2676, 1677.727
557.7498, 1699.023
558.2319, 1772.957
558.7140, 1908.902
559.1961, 2063.438
559.6782, 2194.352
560.1603, 2301.434
560.6425, 2392.895
561.1246, 2456.891
561.6067, 2522.098
562.0888, 2595.383
562.5709, 2676.508
563.0530, 2763.984
563.5352, 2856.031
564.0173, 2958.453
564.4994, 3091.781
564.9815, 3240.879
565.4636, 3343.961
565.9457, 3383.746
566.4279, 3438.168
566.9100, 3565.234
567.3921, 3747.133
567.8742, 3918.391
568.3563, 4098.211
568.8384, 4247.598
569.3206, 4317.531
569.8027, 4366.402
570.2848, 4477.277
570.7669, 4654.391
571.2490, 4834.582
571.7311, 4959.473
572.2133, 5032.488
572.6954, 5101.898
573.1775, 5156.469
573.6596, 5231.234
574.1417, 5338.875
574.6238, 5469.297
575.1060, 5621.484
575.5881, 5784.531
576.0702, 5926.824
576.5523, 6009.453
577.0344, 6064.066
577.5165, 6219.352
577.9987, 6512.082
578.4808, 6725.805
578.9629, 6708.262
579.4450, 6594.812
579.9271, 6570.574
580.4092, 6643.480
580.8914, 6778.348
581.3735, 7017.887
581.8556, 7284.934
582.3377, 7498.840
582.8198, 7647.035
583.3019, 7737.824
583.7841, 7776.559
584.2662, 7788.078
584.7483, 7822.125
585.2304, 7872.000
585.7125, 7955.703
586.1946, 8079.418
586.6768, 8206.062
587.1589, 8339.191
587.6410, 8473.633
588.1231, 8585.027
588.6052, 8653.828
589.0873, 8697.039
589.5695, 8745.426
590.0516, 8794.055
590.5337, 8832.203
591.0158, 8870.094
591.4979, 8884.957
591.9800, 8854.453
592.4622, 8796.004
592.9443, 8749.398
593.4264, 8734.500
593.9085, 8716.355
594.3906, 8645.703
594.8727, 8553.531
595.3549, 8536.684
595.8370, 8631.176
596.3191, 8747.750
596.8012, 8769.402
597.2833, 8671.785
597.7654, 8619.570
598.2476, 8675.148
598.7297, 8708.477
599.2118, 8655.062
599.6939, 8561.270
600.1760, 8495.730
600.6581, 8477.527
601.1403, 8464.051
601.6224, 8400.746
602.1045, 8289.801
602.5866, 8184.598
603.0687, 8073.535
603.5508, 7994.312
604.0330, 7992.512
604.5151, 8021.848
604.9972, 8025.434
605.4793, 7994.211
605.9614, 7955.211
606.4435, 7921.039
606.9257, 7886.434
607.4078, 7857.766
607.8899, 7829.449
608.3720, 7746.035
608.8541, 7555.949
609.3362, 7314.672
609.8184, 7199.949
610.3005, 7348.676
610.7826, 7422.840
611.2647, 7373.672
611.7468, 7296.121
612.2289, 7254.398
612.7111, 7237.152
613.1932, 7196.477
613.6753, 7103.117
614.1574, 6978.262
614.6395, 6840.016
615.1216, 6680.602
615.6038, 6612.223
616.0859, 6697.113
616.5680, 6818.004
617.0501, 6884.859
617.5322, 6907.621
618.0143, 6914.859
618.4965, 6916.996
618.9786, 6899.531
619.4607, 6829.371
619.9428, 6739.195
620.4249, 6689.344
620.9070, 6694.203
621.3892, 6732.406
621.8713, 6785.422
622.3534, 6853.266
622.8355, 6918.926
623.3176, 6999.328
623.7997, 7054.809
624.2819, 7070.301
624.7640, 7065.309
625.2461, 7033.648
625.7282, 6988.586
626.2103, 6994.469
626.6924, 7131.926
627.1745, 7344.359
627.6566, 7487.145
628.1387, 7555.945
628.6208, 7619.574
629.1030, 7707.570
629.5851, 7798.426
630.0672, 7846.988
630.5493, 7847.863
631.0314, 7894.254
631.5135, 8036.227
631.9957, 8192.590
632.4778, 8318.230
632.9599, 8418.059
633.4420, 8496.668
633.9241, 8557.742
634.4063, 8638.613
634.8884, 8804.012
635.3705, 9071.004
635.8526, 9281.656
636.3347, 9407.961
636.8168, 9513.059
637.2990, 9591.812
637.7811, 9676.668
638.2632, 9818.910
638.7453, 10031.89
639.2274, 10236.44
639.7095, 10367.92
640.1917, 10457.54
640.6738, 10552.64
641.1559, 10657.95
641.6380, 10796.88
642.1201, 10994.49
642.6022, 11212.09
643.0844, 11359.76
643.5665, 11387.90
644.0486, 11446.69
644.5307, 11560.48
645.0128, 11681.36
645.4949, 11772.17
645.9771, 11851.83
646.4592, 11974.72
646.9413, 12166.66
647.4234, 12354.74
647.9055, 12418.47
648.3876, 12360.72
648.8698, 12325.94
649.3519, 12320.04
649.8340, 12350.93
650.3161, 12458.69
650.7982, 12597.55
651.2803, 12668.55
651.7625, 12630.78
652.2446, 12613.79
652.7267, 12729.07
653.2088, 12852.44
653.6909, 12794.60
654.1730, 12590.40
654.6552, 12473.25
655.1373, 12594.97
655.6194, 12850.39
656.1015, 12967.05
656.5836, 12903.43
657.0657, 12808.17
657.5479, 12629.77
658.0300, 12477.12
658.5121, 12425.88
658.9942, 12429.87
659.4763, 12396.14
659.9584, 12290.47
660.4406, 12150.22
660.9227, 11973.76
661.4048, 11792.45
661.8869, 11706.42
662.3690, 11732.45
662.8511, 11751.54
663.3333, 11683.36
663.8154, 11539.17
664.2975, 11367.83
664.7796, 11122.62
665.2617, 10916.64
665.7438, 10758.79
666.2260, 10634.18
666.7081, 10556.21
667.1902, 10502.00
667.6723, 10424.08
668.1544, 10297.57
668.6365, 10132.45
669.1187, 9920.609
669.6008, 9666.344
670.0829, 9474.398
670.5650, 9382.430
671.0471, 9295.770
671.5292, 9129.402
672.0114, 8915.473
672.4935, 8777.332
672.9756, 8791.234
673.4577, 8748.367
673.9398, 8542.922
674.4219, 8287.059
674.9041, 8072.215
675.3862, 7910.664
675.8683, 7791.688
676.3504, 7711.605
676.8325, 7651.887
677.3146, 7567.684
677.7968, 7456.609
678.2789, 7327.828
678.7610, 7166.375
679.2431, 7014.035
679.7252, 6927.410
680.2073, 6856.848
680.6895, 6693.918
681.1716, 6374.953
681.6537, 6068.875
682.1358, 5886.949
682.6179, 5765.352
683.1000, 5607.773
683.5822, 5415.258
684.0643, 5252.234
684.5464, 5162.863
685.0285, 5116.215
685.5106, 5022.477
685.9927, 4857.160
686.4749, 4703.473
686.9570, 4555.820
687.4391, 4432.363
687.9212, 4364.242
688.4033, 4325.328
688.8854, 4267.535
689.3676, 4179.113
689.8497, 4055.391
690.3318, 3850.070
690.8139, 3620.473
691.2960, 3510.605
691.7781, 3529.402
692.2603, 3547.250
692.7424, 3486.641
693.2245, 3368.125
693.7066, 3239.051
694.1887, 3055.691
694.6708, 2948.641
695.1530, 2991.410
695.6351, 3027.133
696.1172, 2966.785
696.5993, 2849.848
697.0814, 2755.043
697.5635, 2714.980
698.0457, 2680.605
698.5278, 2585.191
699.0099, 2447.328
699.4920, 2331.145
699.9741, 2242.609
700.4562, 2177.500
700.9384, 2138.711
701.4205, 2115.074
701.9026, 2096.781
702.3847, 2099.535
702.8668, 2063.684
703.3489, 1956.848
703.8311, 1850.281
704.3132, 1782.902
704.7953, 1740.707
705.2774, 1697.254
705.7595, 1643.824
706.2416, 1591.016
706.7238, 1567.055
707.2059, 1554.980
707.6880, 1465.699
708.1701, 1283.867
708.6522, 1158.762
709.1343, 1161.438
709.6164, 1232.344
710.0985, 1304.434
710.5806, 1391.004
711.0627, 1407.059
711.5449, 1314.137
712.0270, 1186.316
712.5091, 1009.133
712.9912, 842.9355
713.4733, 785.8770
713.9554, 847.5469
714.4376, 932.5898
714.9197, 962.6719
715.4018, 943.4941
715.8839, 877.4824
716.3660, 755.4766
716.8481, 672.2227
717.3303, 680.9316
717.8124, 707.1367
718.2945, 653.1309
718.7766, 528.0352
719.2587, 444.5000
719.7408, 443.2266
720.2230, 451.8164
720.7051, 460.7480
721.1872, 452.0879
721.6693, 387.1855
722.1514, 277.5566
722.6335, 189.2559
723.1157, 170.3828
723.5978, 199.1465
724.0799, 238.2949
724.5620, 291.7832
725.0441, 316.1816
725.5262, 298.6934
726.0084, 262.4199
726.4905, 227.0996
726.9726, 188.8398
727.4547, 134.9512
727.9368, 46.15039
728.4189, 34.51367
728.9011, 110.5566
729.3832, 163.1738
729.8653, 149.7031
730.3474, 89.21484
730.8295, 48.13281
731.3116, 65.08008
731.7938, 116.0938
732.2759, 160.3984
732.7580, 196.0234
733.2401, 242.3008
733.7222, 318.3398
734.2043, 361.4512
734.6865, 301.0664
735.1686, 197.3516
735.6507, 193.1680
736.1328, 332.4512
736.6149, 413.8516
737.0970, 334.2344
737.5792, 245.6250
738.0613, 278.0527
738.5434, 375.0586
739.0255, 403.5215
739.5076, 322.1758
739.9897, 227.4062
740.4719, 249.7754
740.9540, 368.1914
741.4361, 425.8281
741.9182, 411.9863
742.4003, 384.4551
742.8824, 358.9355
743.3646, 335.1133
743.8467, 305.4805
744.3288, 269.8066
744.8109, 272.8516
745.2930, 375.1152
745.7751, 449.1719
746.2573, 415.4668
746.7394, 340.3984
747.2215, 302.3438
747.7036, 312.4375
748.1857, 337.7266
748.6678, 354.7324
749.1500, 366.5410
749.6321, 380.0625
750.1142, 395.2070
750.5963, 408.7324
751.0784, 424.2324
751.5605, 425.7695
752.0427, 397.7168
752.5248, 344.7207
753.0069, 295.1992
753.4890, 258.6992
753.9711, 210.7676
754.4532, 89.60742
754.9354, 8.722656
755.4175, 108.1875
755.8996, 304.0430
756.3817, 386.5098
756.8638, 261.8125
757.3459, 109.8691
757.8281, 189.4160
758.3102, 422.2520
758.7923, 490.7871
759.2744, 369.0430
759.7565, 225.5156
760.2386, 132.8730
760.7208, 78.70703
761.2029, 41.71680
761.6850, 20.48828
762.1671, 25.35352
762.6492, 86.71680
763.1313, 135.7031
763.6135, 155.4863
764.0956, 147.2832
764.5777, 98.68359
765.0598, 17.88672
765.5419, 39.65039
766.0240, 7.328125
766.5062, 40.32617
766.9883, 20.46484
767.4704, 161.9805
767.9525, 274.8633
768.4346, 333.7930
768.9167, 355.7383
769.3989, 353.7812
769.8810, 327.7227
770.3631, 279.4023
770.8452, 161.0703
771.3273, 107.7520
771.8094, 173.8926
772.2916, 261.8145
772.7737, 330.0898
773.2558, 379.0469
773.7379, 411.9414
774.2200, 422.8262
774.7021, 448.0410
775.1843, 528.9141
775.6664, 627.7031
776.1485, 703.7090
776.6306, 750.5820
777.1127, 749.0137
777.5948, 688.6621
778.0770, 623.8301
778.5591, 648.4512
779.0412, 770.4238
779.5233, 805.0918
780.0054, 685.9980
780.4875, 621.2129
780.9697, 714.7207
781.4518, 865.0254
781.9339, 993.2051
782.4160, 1095.456
782.8981, 1144.986
783.3802, 1112.086
783.8624, 1051.403
784.3445, 952.4717
784.8266, 862.0361
785.3087, 838.7822
785.7908, 888.2588
786.2729, 994.5576
786.7551, 1157.342
787.2372, 1327.208
787.7193, 1388.544
788.2014, 1344.220
788.6835, 1344.453
789.1656, 1424.617
789.6478, 1473.690
790.1299, 1403.106
790.6120, 1268.980
791.0941, 1208.772
791.5762, 1244.729
792.0583, 1279.246
792.5404, 1320.445
793.0225, 1352.518
793.5046, 1334.861
793.9868, 1310.301
794.4689, 1355.812
794.9510, 1485.097
795.4331, 1617.990
795.9152, 1700.937
796.3973, 1736.525
796.8795, 1712.113
797.3616, 1647.611
797.8437, 1631.110
798.3258, 1681.863
798.8079, 1731.862
799.2900, 1725.787
799.7722, 1675.186
800.2543, 1632.643
800.7364, 1582.120
801.2185, 1574.595
801.7006, 1662.895
802.1827, 1747.829
802.6649, 1785.230
803.1470, 1779.579
803.6291, 1740.056
804.1112, 1662.356
804.5933, 1616.153
805.0754, 1654.813
805.5576, 1721.495
806.0397, 1774.987
806.5218, 1808.972
807.0039, 1811.864
807.4860, 1781.479
807.9681, 1742.043
808.4503, 1719.027
808.9324, 1709.803
809.4145, 1705.779
809.8966, 1708.710
810.3787, 1719.393
810.8608, 1737.357
811.3430, 1764.440
811.8251, 1821.388
812.3072, 1898.578
812.7893, 1906.828
813.2714, 1738.830
813.7535, 1633.100
814.2357, 1691.839
814.7178, 1785.389
815.1999, 1829.529
815.6820, 1817.775
816.1641, 1766.456
816.6462, 1695.204
817.1284, 1634.350
817.6105, 1602.532
818.0926, 1595.175
818.5747, 1606.526
819.0568, 1636.218
819.5389, 1694.623
820.0211, 1786.250
820.5032, 1860.123
820.9853, 1859.401
821.4674, 1792.773
821.9495, 1751.679
822.4316, 1758.063
822.9138, 1745.225
823.3959, 1673.628
823.8780, 1601.183
824.3601, 1582.419
824.8422, 1598.486
825.3243, 1580.483
825.8065, 1484.766
826.2886, 1425.610
826.7707, 1452.723
827.2528, 1526.559
827.7349, 1655.731
828.2170, 1793.659
828.6992, 1838.397
829.1813, 1761.918
829.6634, 1655.447
830.1455, 1609.867
830.6276, 1605.400
831.1097, 1574.609
831.5919, 1519.405
832.0740, 1505.158
832.5561, 1559.192
833.0382, 1626.020
833.5203, 1651.611
834.0024, 1639.470
834.4846, 1628.277
834.9667, 1593.743
835.4488, 1599.458
835.9309, 1710.301
836.4130, 1797.905
836.8951, 1770.406
837.3773, 1680.396
837.8594, 1631.787
838.3415, 1654.709
838.8236, 1669.215
839.3057, 1618.913
839.7878, 1551.308
840.2700, 1502.573
840.7521, 1474.543
841.2342, 1472.285
841.7163, 1493.993
842.1984, 1515.499
842.6805, 1510.975
843.1627, 1494.202
843.6448, 1517.956
844.1269, 1586.418
844.6090, 1630.807
845.0911, 1639.977
845.5732, 1608.350
846.0554, 1506.234
846.5375, 1378.938
847.0196, 1360.412
847.5017, 1530.670
847.9838, 1619.451
848.4659, 1569.026
848.9481, 1509.826
849.4302, 1484.952
849.9123, 1480.120
850.3944, 1483.217
850.8765, 1492.330
851.3586, 1495.015
851.8408, 1465.019
852.3229, 1442.893
852.8050, 1478.019
853.2871, 1540.702
853.7692, 1578.808
854.2513, 1587.406
854.7335, 1592.999
855.2156, 1611.762
855.6977, 1624.121
856.1798, 1574.625
856.6619, 1469.094
857.1440, 1468.191
857.6262, 1605.125
858.1083, 1699.492
858.5904, 1657.287
859.0725, 1560.968
859.5546, 1525.620
860.0367, 1558.082
860.5189, 1572.955
861.0010, 1542.482
861.4831, 1532.275
861.9652, 1565.835
862.4473, 1610.059
862.9294, 1654.356
863.4116, 1688.003
863.8937, 1685.851
864.3758, 1631.568
864.8579, 1571.479
865.3400, 1517.125
865.8221, 1485.217
866.3043, 1509.699
866.7864, 1571.835
867.2685, 1625.085
867.7506, 1652.820
868.2327, 1659.975
868.7148, 1645.252
869.1970, 1618.157
869.6791, 1615.100
870.1612, 1635.773
870.6433, 1640.545
871.1254, 1615.600
871.6075, 1598.199
872.0897, 1620.860
872.5718, 1670.823
873.0539, 1702.516
873.5360, 1759.708
874.0181, 1717.538
874.5002, 1875.273
874.9823, 2006.221
875.4644, 2065.424
875.9465, 2071.458
876.4286, 2029.255
876.9108, 1945.517
877.3929, 1887.850
877.8750, 1915.108
878.3571, 1931.766
878.8392, 1847.736
879.3214, 1748.894
879.8035, 1760.339
880.2856, 1859.142
880.7677, 1918.579
881.2498, 1871.784
881.7319, 1799.878
882.2141, 1820.355
882.6962, 1895.331
883.1783, 1896.665
883.6604, 1826.547
884.1425, 1776.146
884.6246, 1779.180
885.1068, 1809.295
885.5889, 1841.700
886.0710, 1874.208
886.5531, 1877.002
887.0352, 1819.025
887.5173, 1822.423
887.9995, 1953.986
888.4816, 2077.741
888.9637, 2100.812
889.4458, 2060.779
889.9279, 2028.332
890.4100, 1998.779
890.8922, 2003.160
891.3743, 2078.869
891.8564, 2149.322
892.3385, 2189.225
892.8206, 2199.033
893.3027, 2167.669
893.7849, 2106.938
894.2670, 2061.353
894.7491, 2054.023
895.2312, 2065.882
895.7133, 2081.624
896.1954, 2103.557
896.6776, 2138.597
897.1597, 2183.447
897.6418, 2228.596
898.1239, 2269.586
898.6060, 2299.263
899.0881, 2300.775
899.5703, 2286.923
900.0524, 2341.641
900.5345, 2472.744
901.0166, 2537.085
901.4987, 2487.488
901.9808, 2420.549
902.4630, 2413.548
902.9451, 2447.623
903.4272, 2456.072
903.9093, 2410.658
904.3914, 2403.970
904.8735, 2483.146
905.3557, 2546.756
905.8378, 2527.150
906.3199, 2493.608
906.8020, 2541.763
907.2841, 2667.066
907.7662, 2737.421
908.2484, 2656.553
908.7305, 2603.476
909.2126, 2673.160
909.6947, 2777.983
910.1768, 2853.831
910.6589, 2894.065
911.1411, 2890.512
911.6232, 2837.702
912.1053, 2818.843
912.5874, 2961.193
913.0695, 3145.657
913.5516, 3163.930
914.0338, 3065.746
914.5159, 3015.345
914.9980, 3049.499
915.4801, 3104.599
915.9622, 3134.224
916.4443, 3142.815
916.9265, 3137.271
917.4086, 3118.078
917.8907, 3088.781
918.3728, 3041.763
918.8549, 3020.961
919.3370, 3049.608
919.8192, 3112.581
920.3013, 3192.992
920.7834, 3292.162
921.2655, 3367.482
921.7476, 3413.372
922.2297, 3442.730
922.7119, 3442.222
923.1940, 3439.891
923.6761, 3458.941
924.1582, 3487.385
924.6403, 3497.534
925.1224, 3481.750
925.6046, 3463.120
926.0867, 3415.958
926.5688, 3406.439
927.0509, 3508.166
927.5330, 3636.608
928.0151, 3697.887
928.4973, 3688.401
928.9794, 3649.180
929.4615, 3582.360
929.9436, 3537.293
930.4257, 3568.613
930.9078, 3638.811
931.3900, 3708.430
931.8721, 3770.476
932.3542, 3824.622
932.8363, 3866.477
933.3184, 3868.621
933.8005, 3775.683
934.2827, 3652.895
934.7648, 3719.248
935.2469, 3943.273
935.7290, 4032.830
936.2111, 3939.553
936.6932, 3848.396
937.1754, 3862.765
937.6575, 3938.688
938.1396, 4008.368
938.6217, 4074.125
939.1038, 4071.687
939.5859, 3957.686
940.0681, 3896.648
940.5502, 3957.983
941.0323, 4051.872
941.5144, 4104.121
941.9965, 4121.668
942.4786, 4145.750
942.9608, 4204.434
943.4429, 4217.284
943.9250, 4133.654
944.4071, 4057.935
944.8892, 4037.539
945.3713, 4041.553
945.8535, 4044.630
946.3356, 4043.144
946.8177, 4022.268
947.2998, 3951.488
947.7819, 3896.197
948.2640, 3896.885
948.7462, 3919.566
949.2283, 3935.675
949.7104, 3946.136
950.1925, 3965.696
950.6746, 4000.410
951.1567, 4033.340
951.6389, 4057.021
952.1210, 4059.644
952.6031, 3998.589
953.0852, 3915.024
953.5673, 3917.265
954.0494, 4006.546
954.5316, 4085.569
955.0137, 4098.224
955.4958, 4087.798
955.9779, 4141.133
956.4600, 4124.487
956.9421, 4100.507
957.4242, 4115.377
957.9063, 4032.445
958.3884, 4013.013
958.8705, 4015.653
959.3527, 4002.970
959.8348, 3982.640
960.3169, 3986.455
960.7990, 4023.802
961.2811, 4059.981
961.7632, 4094.896
962.2454, 4116.260
962.7275, 4123.459
963.2096, 4114.615
963.6917, 4071.189
964.1738, 3997.265
964.6559, 3970.916
965.1381, 4056.539
965.6202, 4092.516
966.1023, 4000.156
966.5844, 3938.709
967.0665, 4015.012
967.5486, 4147.924
968.0308, 4233.059
968.5129, 4261.836
968.9950, 4257.166
969.4771, 4191.291
969.9592, 4136.289
970.4413, 4128.137
970.9235, 4133.344
971.4056, 4100.395
971.8877, 4057.678
972.3698, 4087.752
972.8519, 4215.383
973.3340, 4321.482
973.8162, 4324.777
974.2983, 4291.051
974.7804, 4250.617
975.2625, 4218.785
975.7446, 4228.652
976.2267, 4268.037
976.7089, 4286.686
977.1910, 4260.516
977.6731, 4219.020
978.1552, 4186.176
978.6373, 4161.213
979.1194, 4142.664
979.6016, 4130.359
980.0837, 4126.232
980.5658, 4128.809
981.0479, 4122.209
981.5300, 4094.346
982.0121, 4064.357
982.4943, 4074.793
982.9764, 4111.785
983.4585, 4091.842
983.9406, 4014.904
984.4227, 3995.467
984.9048, 4075.586
985.3870, 4150.955
985.8691, 4121.939
986.3512, 4022.025
986.8333, 3956.301
987.3154, 3921.008
987.7975, 3923.264
988.2797, 3988.623
988.7618, 4012.256
989.2439, 3941.924
989.7260, 3835.783
990.2081, 3753.719
990.6902, 3692.779
991.1724, 3649.283
991.6545, 3618.158
992.1366, 3627.980
992.6187, 3757.943
993.1008, 3814.938
993.5829, 3646.848
994.0651, 3395.279
994.5472, 3255.004
995.0293, 3229.201
995.5114, 3225.369
995.9935, 3273.291
996.4756, 3304.373
996.9578, 3318.525
997.4399, 3291.699
997.9220, 3175.975
998.4041, 3033.348
998.8862, 2963.746
999.3683, 2978.021
999.8505, 2974.611
1000.333, 2911.232
1000.815, 2848.424
1001.297, 2799.979
1001.779, 2766.496
1002.261, 2773.820
1002.743, 2788.352
1003.225, 2737.936
1003.707, 2604.008
1004.190, 2465.900
1004.672, 2356.668
1005.154, 2258.572
1005.636, 2162.889
1006.118, 2077.311
1006.600, 2032.227
1007.082, 2002.018
1007.564, 1906.299
1008.046, 1715.820
1008.529, 1539.658
1009.011, 1466.998
1009.493, 1446.750
1009.975, 1461.746
1010.457, 1469.770
1010.939, 1369.375
1011.421, 1183.797
1011.903, 1060.719
1012.385, 1071.859
1012.868, 1100.043
1013.350, 1004.613
1013.832, 849.5977
1014.314, 756.4883
1014.796, 703.1250
1015.278, 604.6523
1015.760, 457.5000
1016.242, 361.7656
1016.725, 380.6875
1017.207, 419.9961
1017.689, 322.8203
1018.171, 136.5195
1018.653, 37.63672
1019.135, 11.02734
1019.617, 63.78125
1020.099, 210.6289
1020.581, 324.1133
1021.064, 327.5547
1021.546, 278.9961
1022.028, 282.9531
1022.510, 335.1719
1022.992, 376.7734
1023.474, 407.5977
1023.956, 471.7734
1024.438, 582.9297
1024.921, 693.6680
1025.403, 767.6758
1025.885, 816.6602
1026.367, 866.3125
1026.849, 917.0664
1027.331, 999.5625
1027.813, 1131.332
1028.295, 1184.633
1028.777, 1098.836
1029.260, 1012.125
1029.742, 1041.566
1030.224, 1148.156
1030.706, 1231.812
1031.188, 1289.980
1031.670, 1339.820
1032.152, 1380.520
1032.634, 1410.785
1033.116, 1418.336
1033.599, 1439.391
1034.081, 1519.434
1034.563, 1627.305
1035.045, 1655.859
1035.527, 1565.105
1036.009, 1534.539
1036.491, 1604.703
1036.973, 1656.250
1037.456, 1646.816
1037.938, 1622.016
1038.420, 1609.680
1038.902, 1614.367
1039.384, 1655.055
1039.866, 1765.570
1040.348, 1822.516
1040.830, 1792.242
1041.313, 1756.258
1041.795, 1736.305
1042.277, 1716.801
1042.759, 1668.719
1043.241, 1611.387
1043.723, 1624.922
1044.205, 1775.594
1044.687, 1816.051
1045.169, 1603.734
1045.651, 1451.395
1046.134, 1474.840
1046.616, 1568.586
1047.098, 1696.391
1047.580, 1823.758
1048.062, 1843.398
1048.544, 1697.523
1049.026, 1613.094
1049.508, 1694.430
1049.991, 1746.938
1050.473, 1689.457
1050.955, 1586.133
1051.437, 1468.461
1051.919, 1357.145
1052.401, 1274.801
1052.883, 1218.074
1053.365, 1208.535
1053.848, 1348.230
1054.330, 1406.070
1054.812, 1219.816
1055.294, 980.7656
1055.776, 856.7578
1056.258, 816.0195
1056.740, 754.9414
1057.222, 651.5469
1057.704, 541.1680
1058.187, 407.7422
1058.669, 307.8594
1059.151, 303.5938
1059.633, 310.7734
1060.115, 248.8242
1060.597, 138.5938
1061.079, 55.49219
1061.561, 24.22266
1062.043, 83.00781
1062.526, 427.5117
1063.008, 713.8164
1063.490, 724.4961
1063.972, 697.5820
1064.454, 869.1641
1064.936, 1162.367
1065.418, 1379.375
1065.900, 1478.117
1066.383, 1572.727
1066.865, 1729.188
1067.347, 1874.562
1067.829, 1964.547
1068.311, 2038.852
1068.793, 2082.469
1069.275, 2145.688
1069.757, 2345.734
1070.240, 2701.227
1070.722, 3034.078
1071.204, 3247.570
1071.686, 3440.438
1072.168, 3683.531
1072.650, 3913.023
1073.132, 4058.766
1073.614, 4159.656
1074.096, 4300.867
1074.578, 4495.602
1075.061, 4676.961
1075.543, 4770.344
1076.025, 4902.297
1076.507, 5180.383
1076.989, 5484.938
1077.471, 5754.016
1077.953, 5962.820
1078.435, 6067.133
1078.918, 6085.641
1079.400, 6126.828
1079.882, 6224.805
1080.364, 6361.727
1080.846, 6519.797
1081.328, 6728.289
1081.810, 7090.914
1082.292, 7465.781
1082.774, 7647.688
1083.257, 7648.469
1083.739, 7636.891
1084.221, 7628.680
1084.703, 7744.383
1085.185, 8170.750
1085.667, 8588.414
1086.149, 8732.695
1086.631, 8798.781
1087.114, 9013.977
1087.596, 9367.859
1088.078, 9753.742
1088.560, 10164.70
1089.042, 10503.85
1089.524, 10659.16
1090.006, 10824.25
1090.488, 11102.57
1090.970, 11451.05
1091.453, 11847.86
1091.935, 12263.75
1092.417, 12626.96
1092.899, 12920.29
1093.381, 13233.77
1093.863, 13602.92
1094.345, 13985.85
1094.827, 14385.87
1095.309, 14769.94
1095.792, 15060.44
1096.274, 15331.68
1096.756, 15752.33
1097.238, 16346.72
1097.720, 16884.60
1098.202, 17286.61
1098.684, 17643.37
1099.166, 17922.44
1099.649, 18239.24
1100.131, 18691.02
1100.613, 19223.84
1101.095, 19774.74
1101.577, 20325.95
1102.059, 20827.13
1102.541, 21204.90
1103.023, 21648.34
1103.505, 22250.31
1103.988, 22863.45
1104.470, 23443.74
1104.952, 23963.92
1105.434, 24326.16
1105.916, 24592.28
1106.398, 25065.55
1106.880, 25896.05
1107.362, 26670.20
1107.844, 27315.39
1108.327, 27913.87
1108.809, 28421.07
1109.291, 28963.26
1109.773, 29702.55
1110.255, 30563.61
1110.737, 31300.97
1111.219, 31851.28
1111.701, 32458.69
1112.184, 33236.59
1112.666, 33940.16
1113.148, 34463.49
1113.630, 34956.02
1114.112, 35449.32
1114.594, 36000.55
1115.076, 36750.06
1115.558, 37722.52
1116.041, 38595.25
1116.523, 39258.76
1117.005, 40002.75
1117.487, 40860.36
1117.969, 41799.62
1118.451, 42919.30
1118.933, 44000.27
1119.415, 44698.28
1119.897, 45062.06
1120.380, 45686.88
1120.862, 46715.39
1121.344, 47627.92
1121.826, 48316.48
1122.308, 49102.70
1122.790, 50175.31
1123.272, 51252.47
1123.754, 52045.67
1124.236, 52644.03
1124.719, 53347.39
1125.201, 54175.07
1125.683, 55035.02
1126.165, 55964.09
1126.647, 56767.53
1127.129, 57352.27
1127.611, 57970.08
1128.093, 58807.14
1128.576, 59500.38
1129.058, 60537.82
1129.540, 61197.80
1130.022, 62064.17
1130.504, 63154.44
1130.986, 64200.78
1131.468, 65166.64
1131.950, 66019.05
1132.432, 66724.92
1132.915, 67403.78
1133.397, 68200.36
1133.879, 69081.16
1134.361, 69922.38
1134.843, 70735.32
1135.325, 71586.59
1135.807, 72478.06
1136.289, 73374.84
1136.771, 74264.77
1137.254, 75102.41
1137.736, 75837.61
1138.218, 76557.98
1138.700, 77458.43
1139.182, 78470.55
1139.664, 79352.41
1140.146, 80129.88
1140.628, 80941.20
1141.111, 81804.14
1141.593, 82615.82
1142.075, 83330.88
1142.557, 83986.13
1143.039, 84576.52
1143.521, 85178.85
1144.003, 85912.37
1144.485, 86755.40
1144.968, 87730.09
1145.450, 88772.31
1145.932, 89685.03
1146.414, 90421.95
1146.896, 91144.48
1147.378, 91990.02
1147.860, 92845.63
1148.342, 93616.79
1148.824, 94316.65
1149.307, 94910.55
1149.789, 95472.60
1150.271, 96113.01
1150.753, 96847.51
1151.235, 97639.63
1151.717, 98485.09
1152.199, 99349.16
1152.681, 100263.7
1153.163, 101134.2
1153.646, 101806.8
1154.128, 102477.2
1154.610, 103413.9
1155.092, 104503.3
1155.574, 105454.6
1156.056, 106217.2
1156.538, 106933.6
1157.020, 107558.6
1157.503, 108257.1
1157.985, 109035.8
1158.467, 109949.7
1158.949, 111170.2
1159.431, 112452.1
1159.913, 113430.9
1160.395, 114154.0
1160.877, 115001.7
1161.359, 116051.7
1161.842, 117152.6
1162.324, 118329.6
1162.806, 119583.9
1163.288, 120910.8
1163.770, 122362.9
1164.252, 123987.9
1164.734, 125726.2
1165.216, 127461.0
1165.698, 129174.5
1166.181, 131063.4
1166.663, 133207.4
1167.145, 135262.2
1167.627, 137151.2
1168.109, 139004.2
1168.591, 140831.5
1169.073, 142777.7
1169.555, 145065.0
1170.037, 147575.2
1170.520, 149867.0
1171.002, 151933.7
1171.484, 153929.1
1171.966, 155651.3
1172.448, 157382.7
1172.930, 159193.9
1173.412, 160772.8
1173.894, 161888.9
1174.377, 162639.8
1174.859, 163200.8
1175.341, 163621.4
1175.823, 163947.3
1176.305, 164167.3
1176.787, 164121.5
1177.269, 163868.0
1177.751, 163683.0
1178.234, 163664.3
1178.716, 163583.7
1179.198, 163240.0
1179.680, 162850.9
1180.162, 162724.3
1180.644, 162607.9
1181.126, 162159.8
1181.608, 161488.5
1182.090, 160801.4
1182.573, 160107.8
1183.055, 159314.2
1183.537, 158360.5
1184.019, 157343.4
1184.501, 156307.7
1184.983, 155204.1
1185.465, 153939.9
1185.947, 152654.7
1186.429, 151498.2
1186.912, 150403.7
1187.394, 149276.2
1187.876, 148095.8
1188.358, 146683.3
1188.840, 144706.9
1189.322, 142977.4
1189.804, 141773.3
1190.286, 140570.0
1190.769, 139268.1
1191.251, 137851.7
1191.733, 136257.7
1192.215, 134529.5
1192.697, 132805.6
1193.179, 131093.6
1193.661, 129219.7
1194.143, 127089.1
1194.625, 125154.2
1195.108, 123527.4
1195.590, 121887.8
1196.072, 120071.1
1196.554, 118185.8
1197.036, 116352.4
1197.518, 114516.4
1198.000, 112489.3
1198.482, 110531.6
1198.964, 108458.0
1199.447, 106287.4
1199.929, 104124.0
1200.411, 101687.1
1200.893, 99310.94
1201.375, 97185.38
1201.857, 95134.41
1202.339, 93022.50
1202.821, 90841.06
1203.304, 88669.25
1203.786, 86381.16
1204.268, 83596.59
1204.750, 80536.59
1205.232, 77800.03
1205.714, 75486.31
1206.196, 73190.38
1206.678, 70705.91
1207.161, 68138.91
1207.643, 65408.47
1208.125, 62765.97
1208.607, 60510.88
1209.089, 58359.03
1209.571, 56071.47
1210.053, 53615.78
1210.535, 50956.12
1211.017, 48056.94
1211.500, 45401.19
1211.982, 43292.28
1212.464, 41122.84
1212.946, 38986.41
1213.428, 36520.22
1213.910, 33330.53
1214.392, 30041.69
1214.874, 27182.41
1215.356, 24696.28
1215.839, 22456.47
1216.321, 20507.81
1216.803, 18353.50
1217.285, 15972.09
1217.767, 13523.81
1218.249, 11009.88
1218.731, 8512.344
1219.213, 6071.188
1219.696, 3665.594
1220.178, 1242.844
1220.660, 1148.812
1221.142, 3421.125
1221.624, 5520.688
1222.106, 7265.500
1222.588, 8725.125
1223.070, 10129.00
1223.552, 11530.81
1224.035, 13073.94
1224.517, 14821.19
1224.999, 16465.94
1225.481, 17809.44
1225.963, 18863.00
1226.445, 19615.94
1226.927, 20206.25
1227.409, 20737.75
1227.891, 21264.62
1228.374, 21701.44
1228.856, 22095.50
1229.338, 18654.50
1229.820, 15199.06
1230.302, 11720.31
1230.784, 8352.875
1231.266, 4753.938
1231.748, 804.7500
1232.231, 3417.500
1232.713, 7917.000
1233.195, 12627.50
1233.677, 17381.12
1234.159, 22196.50
1234.641, 27219.38
1235.123, 32493.38
1235.605, 38007.00
1236.088, 43831.25
1236.570, 49540.44
1237.052, 55043.25
1237.534, 60549.81
1238.016, 66177.12
1238.498, 72073.44
1238.980, 78619.81
1239.462, 85509.56
1239.944, 92172.19
1240.427, 98697.88
1240.909, 105350.9
1241.391, 112261.8
1241.873, 119885.4
1242.355, 128258.9
1242.837, 136824.4
1243.319, 145334.6
1243.801, 153886.9
1244.283, 162597.0
1244.766, 171610.5
1245.248, 181096.4
1245.730, 190928.6
1246.212, 200857.6
1246.694, 210983.2
1247.176, 221416.6
1247.658, 232076.6
1248.140, 242436.9
1248.622, 252278.4
1249.105, 262152.8
1249.587, 271873.2
1250.069, 282003.1
1250.551, 292705.0
1251.033, 303541.9
1251.515, 314350.4
1251.997, 325145.2
1252.479, 336061.4
1252.962, 346774.9
1253.444, 355677.4
1253.926, 362518.4
1254.408, 369221.0
1254.890, 376051.2
1255.372, 382470.2
1255.854, 388012.2
1256.336, 392642.0
1256.818, 396310.0
1257.301, 398627.9
1257.783, 398360.6
1258.265, 398415.2
1258.747, 401319.2
1259.229, 406252.9
1259.711, 412388.8
1260.193, 418783.0
1260.675, 424872.2
1261.157, 430618.8
1261.640, 436809.0
1262.122, 443833.0
1262.604, 449621.9
1263.086, 452886.0
1263.568, 456027.8
1264.050, 459722.1
1264.532, 463315.5
1265.014, 467153.0
1265.497, 469930.4
1265.979, 469580.2
1266.461, 466884.8
1266.943, 464915.0
1267.425, 463633.0
1267.907, 461569.1
1268.389, 458867.2
1268.871, 454002.8
1269.354, 446720.2
1269.836, 437834.9
1270.318, 427841.1
1270.800, 416914.2
1271.282, 405192.8
1271.764, 393031.8
1272.246, 381135.8
1272.728, 369075.8
1273.210, 356134.2
1273.693, 342018.2
1274.175, 326153.0
1274.657, 308862.0
1275.139, 290990.8
1275.621, 272827.6
1276.103, 255130.8
1276.585, 238395.2
1277.067, 221784.2
1277.549, 206259.8
1278.032, 189358.2
1278.514, 168736.6
1278.996, 147489.1
1279.478, 128031.4
1279.960, 109981.6
1280.442, 92574.12
1280.924, 75866.62
1281.406, 60807.50
1281.889, 46729.25
1282.371, 35047.75
1282.853, 22891.50
1283.335, 12575.00
1283.817, 4663.500
1284.299, 228.0000
1284.781, 1576.000
1285.263, 320.7500
1285.745, 2322.750
1286.228, 0.0000000E+00
##END=



