##NAMES=Bustamite
##RRUFFID=R040014
##IDEAL CHEMISTRY=CaMn^2+^Si_2_O_6_
##LOCALITY=Broken Hill, New South Wales, Australia
##OWNER=RRUFF
##SOURCE=University of Arizona Mineral Museum
##DESCRIPTION=Orange fragment
##STATUS=The identification of this mineral has been confirmed by X-ray diffraction and chemical analysis
##URL=rruff.info/R040014
##MEASURED CHEMISTRY=(Ca_0.90_Mn_0.10_)_Σ=1_(Mn^2+^_0.78_Fe^2+^_0.19_Fe^3+^_0.02_Mg_0.01_)_Σ=1_(Si_1.98_Fe^3+^_0.02_)_Σ=2_O_6_
122.0102, 0.0000000E+00
122.4924, 6.957825
122.9745, 5.293549
123.4566, 2.052155
123.9387, 2.987366
124.4208, 2.118744
124.9029, 11.35999
125.3851, 21.87897
125.8672, 32.38007
126.3493, 48.54602
126.8314, 76.87616
127.3135, 110.6996
127.7956, 143.6638
128.2778, 171.3199
128.7599, 199.0916
129.2420, 237.3796
129.7241, 289.2921
130.2062, 344.1967
130.6884, 399.7750
131.1705, 455.0168
131.6526, 509.2786
132.1347, 563.5446
132.6168, 615.9744
133.0989, 660.1182
133.5811, 697.1954
134.0632, 722.4167
134.5453, 730.3862
135.0274, 727.7700
135.5095, 725.1367
135.9916, 729.5462
136.4738, 739.5660
136.9559, 744.3503
137.4380, 741.2612
137.9201, 735.0027
138.4022, 723.3301
138.8843, 709.6034
139.3665, 699.9771
139.8486, 699.8796
140.3307, 709.3356
140.8128, 717.0915
141.2949, 714.3222
141.7770, 718.4105
142.2592, 736.0648
142.7413, 765.2338
143.2234, 799.9265
143.7055, 835.1816
144.1876, 870.7029
144.6697, 907.6003
145.1519, 941.5192
145.6340, 980.3649
146.1161, 1030.627
146.5982, 1089.921
147.0803, 1149.429
147.5624, 1199.619
148.0446, 1235.754
148.5267, 1284.529
149.0088, 1359.897
149.4909, 1433.592
149.9730, 1492.345
150.4551, 1535.168
150.9372, 1568.880
151.4194, 1601.514
151.9015, 1635.100
152.3836, 1658.978
152.8657, 1682.919
153.3478, 1692.250
153.8299, 1673.787
154.3121, 1627.927
154.7942, 1567.860
155.2763, 1509.796
155.7584, 1456.079
156.2405, 1396.408
156.7226, 1325.572
157.2048, 1252.871
157.6869, 1185.966
158.1690, 1126.142
158.6511, 1066.755
159.1332, 999.3563
159.6153, 917.6431
160.0975, 845.1443
160.5796, 785.8056
161.0617, 736.1455
161.5438, 687.7576
162.0259, 637.7671
162.5080, 590.2035
162.9902, 552.1510
163.4723, 521.2737
163.9544, 493.3770
164.4365, 471.7261
164.9186, 454.0068
165.4007, 435.7626
165.8829, 415.2935
166.3650, 394.2184
166.8471, 375.4263
167.3292, 360.3749
167.8113, 350.0259
168.2934, 350.0213
168.7756, 353.6030
169.2577, 351.6301
169.7398, 341.4343
170.2219, 327.6355
170.7040, 316.9300
171.1861, 309.3219
171.6683, 304.3928
172.1504, 303.9330
172.6325, 305.5857
173.1146, 306.6099
173.5967, 306.3672
174.0788, 304.7177
174.5610, 301.2216
175.0431, 295.9255
175.5252, 289.2462
176.0073, 280.7740
176.4894, 271.0754
176.9715, 261.1326
177.4537, 251.3649
177.9358, 240.7786
178.4179, 227.4462
178.9000, 211.2026
179.3821, 194.3204
179.8642, 176.3125
180.3464, 158.1435
180.8285, 140.1802
181.3106, 122.1456
181.7927, 105.6913
182.2748, 94.63763
182.7569, 89.67310
183.2391, 82.69019
183.7212, 68.01544
184.2033, 50.42041
184.6854, 38.78314
185.1675, 36.24420
185.6496, 37.67548
186.1318, 35.51324
186.6139, 29.55676
187.0960, 24.15985
187.5781, 19.35913
188.0602, 16.19305
188.5423, 18.01941
189.0245, 27.39191
189.5066, 37.17163
189.9887, 34.85846
190.4708, 20.04559
190.9529, 8.799316
191.4350, 7.893799
191.9172, 13.66486
192.3993, 20.41650
192.8814, 27.63971
193.3635, 33.41016
193.8456, 34.89313
194.3277, 32.47876
194.8099, 27.88849
195.2920, 19.84222
195.7741, 10.31305
196.2562, 2.807190
196.7383, 1.859314
197.2204, 4.798035
197.7026, 6.119751
198.1847, 5.786621
198.6668, 8.034729
199.1489, 17.39062
199.6310, 29.43793
200.1131, 36.50787
200.5953, 36.68127
201.0774, 33.48682
201.5595, 28.82251
202.0416, 22.77100
202.5237, 21.03656
203.0058, 29.75708
203.4880, 42.51862
203.9701, 48.69635
204.4522, 45.81268
204.9343, 39.86517
205.4164, 36.57526
205.8985, 35.60968
206.3807, 35.81805
206.8628, 38.57196
207.3449, 41.76044
207.8270, 42.31958
208.3091, 39.69537
208.7912, 35.35925
209.2734, 30.19666
209.7555, 24.29065
210.2376, 18.40118
210.7197, 11.35870
211.2018, 4.961914
211.6839, 2.525452
212.1661, 4.816406
212.6482, 6.824158
213.1303, 3.886108
213.6124, 3.425903
214.0945, 11.55035
214.5766, 20.13623
215.0588, 29.20679
215.5409, 38.06781
216.0230, 46.57410
216.5051, 57.17700
216.9872, 73.50592
217.4693, 94.17249
217.9515, 110.9252
218.4336, 119.1216
218.9157, 125.5137
219.3978, 135.6914
219.8799, 149.8741
220.3620, 166.5608
220.8442, 185.5647
221.3263, 206.5339
221.8084, 226.9715
222.2905, 246.1298
222.7726, 265.1836
223.2547, 283.8060
223.7369, 302.4373
224.2190, 325.0139
224.7011, 355.3571
225.1832, 391.7944
225.6653, 425.7603
226.1474, 455.1769
226.6296, 484.0760
227.1117, 516.6276
227.5938, 551.2930
228.0759, 580.5391
228.5580, 597.2875
229.0401, 607.1526
229.5223, 629.7264
230.0044, 673.1951
230.4865, 718.4023
230.9686, 758.3874
231.4507, 793.5963
231.9328, 825.1049
232.4150, 852.6294
232.8971, 877.4000
233.3792, 903.5463
233.8613, 933.2307
234.3434, 960.6870
234.8255, 980.4113
235.3077, 996.8346
235.7898, 1019.566
236.2719, 1053.224
236.7540, 1092.280
237.2361, 1125.486
237.7182, 1152.306
238.2004, 1175.391
238.6825, 1191.465
239.1646, 1205.157
239.6467, 1222.881
240.1288, 1246.819
240.6109, 1274.302
241.0931, 1302.368
241.5752, 1335.906
242.0573, 1357.671
242.5394, 1358.378
243.0215, 1350.802
243.5036, 1349.328
243.9858, 1356.876
244.4679, 1364.220
244.9500, 1359.927
245.4321, 1340.831
245.9142, 1315.784
246.3963, 1279.777
246.8785, 1241.559
247.3606, 1209.261
247.8427, 1183.045
248.3248, 1154.909
248.8069, 1115.854
249.2890, 1062.660
249.7712, 1017.187
250.2533, 989.3096
250.7354, 959.5797
251.2175, 914.8845
251.6996, 857.9703
252.1817, 801.0883
252.6639, 754.4803
253.1460, 718.5128
253.6281, 683.7092
254.1102, 650.4623
254.5923, 617.6083
255.0744, 585.7521
255.5566, 554.0571
256.0387, 520.7118
256.5208, 484.2330
257.0029, 444.8385
257.4850, 407.2937
257.9671, 371.2930
258.4492, 338.7252
258.9314, 307.9918
259.4135, 281.8542
259.8956, 265.8917
260.3777, 263.1057
260.8598, 266.6837
261.3419, 257.0974
261.8241, 220.6659
262.3062, 192.3301
262.7883, 179.8033
263.2704, 174.2460
263.7525, 168.1075
264.2346, 158.6728
264.7168, 146.7052
265.1989, 132.7703
265.6810, 113.2685
266.1631, 101.0952
266.6452, 101.4423
267.1273, 105.5900
267.6095, 107.7509
268.0916, 106.9858
268.5737, 106.4261
269.0558, 109.8592
269.5379, 117.8708
270.0201, 125.5323
270.5022, 131.6666
270.9843, 138.5872
271.4664, 148.1760
271.9485, 159.6160
272.4306, 170.4894
272.9128, 177.1411
273.3949, 180.0369
273.8770, 189.0542
274.3591, 208.1398
274.8412, 228.7340
275.3233, 248.5307
275.8055, 266.6805
276.2876, 281.2333
276.7697, 287.8761
277.2518, 291.1522
277.7339, 306.2242
278.2160, 339.5459
278.6982, 369.3596
279.1803, 381.2233
279.6624, 384.3466
280.1445, 391.1348
280.6266, 407.5328
281.1087, 426.5270
281.5909, 437.0625
282.0730, 437.9032
282.5551, 442.4971
283.0372, 459.9892
283.5193, 482.5746
284.0014, 500.2024
284.4836, 511.2074
284.9657, 519.3254
285.4478, 525.9429
285.9299, 531.5743
286.4120, 539.0580
286.8941, 549.9510
287.3763, 562.2109
287.8584, 572.8380
288.3405, 581.7201
288.8226, 590.5342
289.3047, 598.6904
289.7868, 607.4725
290.2690, 620.3877
290.7511, 638.9386
291.2332, 657.5805
291.7153, 668.5984
292.1974, 671.6290
292.6795, 678.2035
293.1617, 691.7448
293.6438, 708.2899
294.1259, 722.9467
294.6080, 735.6851
295.0901, 751.7032
295.5722, 774.7010
296.0544, 805.0085
296.5365, 842.5641
297.0186, 891.2966
297.5007, 942.5394
297.9828, 990.7378
298.4649, 1038.029
298.9471, 1090.762
299.4292, 1153.487
299.9113, 1224.480
300.3934, 1294.977
300.8755, 1351.450
301.3576, 1423.496
301.8398, 1522.163
302.3219, 1636.311
302.8040, 1751.747
303.2861, 1863.519
303.7682, 1977.275
304.2503, 2104.248
304.7325, 2247.195
305.2146, 2399.260
305.6967, 2560.235
306.1788, 2728.737
306.6609, 2905.018
307.1430, 3089.013
307.6252, 3282.154
308.1073, 3485.780
308.5894, 3702.121
309.0715, 3919.104
309.5536, 4144.805
310.0357, 4366.343
310.5179, 4581.117
311.0000, 4787.507
311.4821, 4986.082
311.9642, 5180.365
312.4463, 5368.539
312.9284, 5540.484
313.4106, 5705.383
313.8927, 5833.306
314.3748, 5917.639
314.8569, 5965.433
315.3390, 5984.538
315.8211, 5978.989
316.3033, 5942.779
316.7854, 5865.918
317.2675, 5747.309
317.7496, 5597.371
318.2317, 5409.535
318.7138, 5195.344
319.1960, 4962.468
319.6781, 4709.047
320.1602, 4454.405
320.6423, 4211.350
321.1244, 3977.715
321.6065, 3747.122
322.0887, 3518.352
322.5708, 3293.148
323.0529, 3068.042
323.5350, 2843.551
324.0171, 2640.883
324.4992, 2476.033
324.9814, 2331.067
325.4635, 2181.853
325.9456, 2025.453
326.4277, 1884.712
326.9098, 1779.951
327.3919, 1708.714
327.8741, 1631.023
328.3562, 1535.320
328.8383, 1444.910
329.3204, 1373.367
329.8025, 1316.150
330.2846, 1261.098
330.7668, 1202.460
331.2489, 1143.301
331.7310, 1093.340
332.2131, 1058.697
332.6952, 1025.368
333.1773, 992.2659
333.6595, 960.2795
334.1416, 932.1965
334.6237, 907.9685
335.1058, 883.2206
335.5879, 851.6017
336.0700, 809.7186
336.5522, 772.2969
337.0343, 741.3975
337.5164, 712.5071
337.9985, 686.3922
338.4806, 660.8252
338.9627, 630.1326
339.4449, 588.5343
339.9270, 538.4417
340.4091, 498.2393
340.8912, 475.2031
341.3733, 451.6992
341.8554, 420.7834
342.3376, 387.4622
342.8197, 358.0391
343.3018, 335.3294
343.7839, 315.8548
344.2660, 293.4984
344.7481, 267.1178
345.2303, 246.1152
345.7124, 237.9212
346.1945, 232.2953
346.6766, 219.3935
347.1587, 198.6699
347.6408, 179.9810
348.1230, 172.7837
348.6051, 172.4847
349.0872, 164.8911
349.5693, 146.5894
350.0514, 125.8254
350.5335, 108.2979
351.0157, 93.87231
351.4978, 83.08417
351.9799, 80.06323
352.4620, 77.66412
352.9441, 69.18140
353.4262, 55.27032
353.9084, 40.67603
354.3905, 27.14514
354.8726, 15.30054
355.3547, 8.341431
355.8368, 10.60614
356.3189, 10.73505
356.8011, 3.887329
357.2832, 5.612244
357.7653, 12.16583
358.2474, 14.13995
358.7295, 13.74646
359.2116, 13.88550
359.6938, 14.19495
360.1759, 16.26123
360.6580, 22.32190
361.1401, 27.88019
361.6222, 30.20294
362.1043, 29.76215
362.5865, 28.60114
363.0686, 28.10681
363.5507, 28.27411
364.0328, 29.15961
364.5149, 32.14578
364.9970, 33.75470
365.4792, 31.54883
365.9613, 28.36841
366.4434, 28.45062
366.9255, 33.63205
367.4076, 38.62347
367.8897, 34.16544
368.3719, 18.97891
368.8540, 10.02832
369.3361, 16.31995
369.8182, 24.43909
370.3003, 23.74530
370.7824, 14.56491
371.2646, 3.074707
371.7467, 9.280640
372.2288, 21.31738
372.7109, 30.23798
373.1930, 35.49500
373.6751, 40.15417
374.1573, 45.69196
374.6394, 52.39526
375.1215, 60.90265
375.6036, 74.47192
376.0857, 86.66272
376.5678, 89.56854
377.0500, 88.33716
377.5321, 97.23328
378.0142, 123.0010
378.4963, 156.3824
378.9784, 179.3391
379.4605, 182.3873
379.9427, 192.3097
380.4248, 214.2590
380.9069, 239.7384
381.3890, 261.9059
381.8711, 280.6394
382.3532, 301.1071
382.8354, 328.6523
383.3175, 363.2509
383.7996, 394.2215
384.2817, 412.4317
384.7638, 437.6194
385.2459, 477.9670
385.7281, 526.6584
386.2102, 574.7455
386.6923, 618.7995
387.1744, 660.4107
387.6565, 702.0316
388.1386, 743.5615
388.6208, 785.8840
389.1029, 831.5847
389.5850, 875.7670
390.0671, 912.7731
390.5492, 943.0807
391.0313, 975.7261
391.5135, 1021.378
391.9956, 1071.883
392.4777, 1108.584
392.9598, 1129.039
393.4419, 1143.476
393.9240, 1159.073
394.4062, 1173.794
394.8883, 1180.822
395.3704, 1174.895
395.8525, 1166.558
396.3346, 1165.702
396.8167, 1166.137
397.2989, 1151.408
397.7810, 1114.371
398.2631, 1069.408
398.7452, 1040.686
399.2273, 1038.893
399.7094, 1029.583
400.1916, 1005.018
400.6737, 979.5085
401.1558, 962.8741
401.6379, 954.2280
402.1200, 947.0792
402.6021, 936.8102
403.0843, 923.4891
403.5664, 907.8665
404.0485, 891.2423
404.5306, 869.9091
405.0127, 838.8233
405.4948, 805.2550
405.9770, 778.6674
406.4591, 761.8430
406.9412, 744.3070
407.4233, 712.2437
407.9054, 665.7576
408.3875, 622.0349
408.8697, 581.1215
409.3518, 546.7838
409.8339, 526.0070
410.3160, 514.8113
410.7981, 498.1323
411.2802, 467.5008
411.7624, 430.9268
412.2445, 394.5000
412.7266, 359.0861
413.2087, 329.4571
413.6908, 308.8705
414.1729, 295.1430
414.6551, 282.8469
415.1372, 274.7687
415.6193, 262.5513
416.1014, 238.3883
416.5835, 211.7998
417.0656, 194.7699
417.5478, 188.5978
418.0299, 185.3359
418.5120, 177.4373
418.9941, 164.5680
419.4762, 150.9799
419.9583, 133.0390
420.4405, 117.3469
420.9226, 107.2074
421.4047, 100.7697
421.8868, 95.03851
422.3689, 88.58713
422.8510, 81.32718
423.3332, 72.31818
423.8153, 60.89102
424.2974, 52.57281
424.7795, 50.13440
425.2616, 48.87897
425.7437, 42.31378
426.2259, 33.19199
426.7080, 34.56699
427.1901, 62.10437
427.6722, 98.22339
428.1543, 117.3970
428.6364, 119.3712
429.1186, 116.0491
429.6007, 114.1657
430.0828, 110.4492
430.5649, 95.65234
431.0470, 60.41599
431.5291, 31.34735
432.0113, 16.51486
432.4934, 11.21918
432.9755, 11.99054
433.4576, 17.34973
433.9397, 23.33578
434.4218, 25.30356
434.9040, 22.40817
435.3861, 23.87646
435.8682, 36.71359
436.3503, 46.26550
436.8324, 45.88138
437.3145, 40.43231
437.7967, 37.51141
438.2788, 40.42514
438.7609, 45.62585
439.2430, 46.79776
439.7251, 43.04370
440.2072, 42.54282
440.6894, 49.51581
441.1715, 57.08615
441.6536, 59.33047
442.1357, 57.21564
442.6178, 56.54391
443.0999, 63.13962
443.5821, 70.58264
444.0642, 69.79086
444.5463, 61.08633
445.0284, 51.27731
445.5105, 43.13306
445.9926, 36.71207
446.4748, 32.47034
446.9569, 31.19650
447.4390, 30.11935
447.9211, 27.95926
448.4032, 26.31281
448.8853, 26.82892
449.3675, 29.58893
449.8496, 33.60995
450.3317, 38.18939
450.8138, 43.28979
451.2959, 47.32968
451.7780, 48.57822
452.2602, 51.06345
452.7423, 55.31415
453.2244, 61.31763
453.7065, 69.12827
454.1886, 78.74530
454.6707, 89.81757
455.1529, 102.1737
455.6350, 115.7387
456.1171, 129.7520
456.5992, 144.3368
457.0813, 158.9173
457.5634, 176.1599
458.0455, 193.6099
458.5276, 202.7962
459.0098, 192.4726
459.4919, 182.0793
459.9740, 188.0817
460.4561, 205.1872
460.9382, 219.1175
461.4203, 224.8577
461.9025, 224.1664
462.3846, 219.4775
462.8667, 208.8792
463.3488, 199.0703
463.8309, 191.8890
464.3130, 183.7704
464.7952, 171.2185
465.2773, 156.1396
465.7594, 143.8668
466.2415, 138.0887
466.7236, 135.4662
467.2057, 127.0963
467.6879, 111.6296
468.1700, 94.74573
468.6521, 74.81937
469.1342, 56.08316
469.6163, 41.01950
470.0984, 29.84802
470.5806, 22.25433
471.0627, 21.58118
471.5448, 23.04767
472.0269, 16.81012
472.5090, 2.601807
472.9911, 7.652405
473.4733, 6.125427
473.9554, 3.015686
474.4375, 6.763733
474.9196, 4.228577
475.4017, 0.8231810
475.8839, 13.04324
476.3660, 24.20953
476.8481, 24.18372
477.3302, 13.31567
477.8123, 1.643250
478.2944, 2.156616
478.7766, 1.036102
479.2587, 1.393646
479.7408, 2.362610
480.2229, 7.148499
480.7050, 13.30072
481.1871, 19.39099
481.6693, 24.23672
482.1514, 27.65329
482.6335, 29.42130
483.1156, 28.14761
483.5977, 24.87183
484.0798, 23.73291
484.5620, 25.54770
485.0441, 26.98877
485.5262, 25.12717
486.0083, 21.05078
486.4904, 19.53500
486.9725, 22.72916
487.4547, 26.31223
487.9368, 27.74777
488.4189, 28.36963
488.9010, 30.46750
489.3831, 34.60403
489.8652, 39.34546
490.3474, 43.66669
490.8295, 48.39758
491.3116, 53.19754
491.7937, 55.86984
492.2758, 59.06433
492.7579, 65.45685
493.2401, 72.67368
493.7222, 76.59891
494.2043, 75.28909
494.6864, 73.08542
495.1685, 74.95615
495.6506, 80.80618
496.1328, 88.87326
496.6149, 99.93497
497.0970, 111.0829
497.5791, 119.6765
498.0612, 126.4046
498.5433, 133.8918
499.0255, 141.1243
499.5076, 150.5486
499.9897, 164.3740
500.4718, 180.9837
500.9539, 197.2678
501.4360, 212.3473
501.9182, 228.2702
502.4003, 247.5073
502.8824, 270.2928
503.3645, 295.0041
503.8466, 326.5187
504.3287, 354.5584
504.8109, 370.9382
505.2930, 383.6591
505.7751, 404.1407
506.2572, 436.4056
506.7393, 476.2275
507.2214, 520.5164
507.7036, 568.7504
508.1857, 614.9126
508.6678, 658.7938
509.1499, 698.7007
509.6320, 729.4203
510.1141, 753.9214
510.5963, 786.3823
511.0784, 836.2552
511.5605, 885.4885
512.0426, 927.1414
512.5247, 962.0749
513.0068, 992.6963
513.4890, 1019.530
513.9711, 1039.840
514.4532, 1050.302
514.9353, 1050.686
515.4174, 1043.025
515.8995, 1026.019
516.3817, 1001.576
516.8638, 969.0618
517.3459, 929.8702
517.8280, 885.6431
518.3101, 836.4722
518.7922, 784.5067
519.2744, 730.5374
519.7565, 675.2578
520.2386, 619.9443
520.7207, 564.0673
521.2028, 511.7952
521.6849, 466.7715
522.1671, 428.9383
522.6492, 394.0163
523.1313, 363.0772
523.6134, 333.9570
524.0955, 305.1226
524.5776, 278.1151
525.0598, 255.4734
525.5419, 237.4230
526.0240, 221.0015
526.5061, 203.0200
526.9882, 183.4894
527.4703, 165.0646
527.9525, 146.9435
528.4346, 131.0831
528.9167, 118.6850
529.3988, 108.2637
529.8809, 98.31931
530.3630, 88.45279
530.8452, 78.54861
531.3273, 69.66901
531.8094, 61.97879
532.2915, 54.72269
532.7736, 47.75894
533.2557, 39.99261
533.7379, 29.34702
534.2200, 17.25943
534.7021, 10.33517
535.1842, 14.06372
535.6663, 16.58554
536.1484, 14.91306
536.6306, 11.52966
537.1127, 8.571136
537.5948, 6.591644
538.0769, 5.333099
538.5590, 4.883514
539.0411, 4.797607
539.5233, 3.364716
540.0054, 0.1851500
540.4875, 2.990082
540.9696, 6.078613
541.4517, 8.567200
541.9338, 9.675629
542.4160, 9.397827
542.8981, 9.428009
543.3802, 10.10367
543.8623, 11.63358
544.3444, 15.40848
544.8265, 20.41104
545.3087, 22.80832
545.7908, 20.67627
546.2729, 15.86493
546.7550, 11.53104
547.2371, 5.624939
547.7192, 5.308594
548.2014, 18.11938
548.6835, 28.60757
549.1656, 27.43839
549.6477, 18.90576
550.1298, 12.58566
550.6119, 13.23798
551.0941, 15.78442
551.5762, 13.12512
552.0583, 5.954285
552.5404, 1.0956000E-02
553.0225, 3.558319
553.5046, 5.915924
553.9868, 7.641632
554.4689, 8.823059
554.9510, 10.89270
555.4331, 14.40771
555.9152, 18.16656
556.3973, 21.11728
556.8795, 24.32565
557.3616, 29.41519
557.8437, 36.61621
558.3258, 44.47986
558.8079, 51.21341
559.2900, 57.00610
559.7722, 66.10107
560.2543, 81.11853
560.7364, 94.04987
561.2185, 97.38818
561.7006, 99.53885
562.1827, 109.7683
562.6649, 129.7122
563.1470, 150.6763
563.6291, 167.2094
564.1112, 183.3717
564.5933, 204.8646
565.0754, 231.4839
565.5576, 259.0323
566.0397, 285.1188
566.5218, 310.7586
567.0039, 338.0992
567.4860, 363.6575
567.9681, 397.6790
568.4503, 445.9996
568.9324, 496.4001
569.4145, 542.7725
569.8966, 585.6927
570.3787, 627.9568
570.8608, 671.3845
571.3430, 713.4424
571.8251, 747.8961
572.3072, 776.5227
572.7893, 812.6857
573.2714, 861.8190
573.7535, 907.9356
574.2357, 933.0037
574.7178, 937.5245
575.1999, 951.9991
575.6820, 993.8224
576.1641, 1023.988
576.6462, 1030.266
577.1284, 1019.081
577.6105, 995.1519
578.0926, 961.0331
578.5747, 921.8574
579.0568, 881.5235
579.5389, 840.1152
580.0211, 797.8665
580.5032, 754.9906
580.9853, 710.6058
581.4674, 664.9027
581.9495, 616.7180
582.4316, 562.0754
582.9138, 499.5152
583.3959, 446.2567
583.8780, 411.3039
584.3601, 384.1351
584.8422, 358.8770
585.3243, 334.0127
585.8065, 307.0255
586.2886, 276.6804
586.7707, 244.9070
587.2528, 214.3478
587.7349, 183.5433
588.2170, 159.9160
588.6992, 148.0144
589.1813, 137.9031
589.6634, 125.4133
590.1455, 111.7051
590.6276, 98.78378
591.1097, 87.30841
591.5919, 76.06812
592.0740, 62.51868
592.5561, 49.12982
593.0382, 40.92972
593.5203, 38.25003
594.0024, 38.19672
594.4846, 39.24484
594.9667, 40.74271
595.4488, 40.05450
595.9309, 36.40207
596.4130, 31.86157
596.8951, 24.74289
597.3773, 18.39062
597.8594, 15.01227
598.3415, 14.22330
598.8236, 14.52872
599.3057, 16.31058
599.7878, 17.31931
600.2700, 13.23218
600.7521, 5.414307
601.2342, 0.7213750
601.7163, 0.9990230
602.1984, 2.754456
602.6805, 2.019043
603.1627, 1.080627
603.6448, 1.576721
604.1269, 18.35547
604.6090, 30.17865
605.0911, 30.19434
605.5732, 25.13525
606.0554, 19.98804
606.5375, 16.35382
607.0196, 15.11615
607.5017, 18.04498
607.9838, 23.19794
608.4659, 25.26886
608.9481, 24.01422
609.4302, 23.57233
609.9123, 24.75159
610.3944, 28.93732
610.8765, 39.41492
611.3586, 58.00769
611.8408, 69.94153
612.3229, 67.33179
612.8050, 66.25201
613.2871, 74.98706
613.7692, 89.29376
614.2513, 103.4220
614.7335, 115.5206
615.2156, 125.5233
615.6977, 131.4754
616.1798, 134.6743
616.6619, 145.1462
617.1440, 165.0677
617.6262, 181.7883
618.1083, 186.0486
618.5904, 186.4506
619.0725, 198.6837
619.5546, 224.4954
620.0367, 251.9397
620.5189, 281.0209
621.0010, 308.7881
621.4831, 329.7388
621.9652, 348.5306
622.4473, 374.4168
622.9294, 411.2288
623.4116, 454.2299
623.8937, 498.6478
624.3758, 544.3261
624.8579, 583.4993
625.3400, 610.2897
625.8221, 644.4079
626.3043, 698.8616
626.7864, 766.8967
627.2685, 833.7955
627.7506, 898.0853
628.2327, 965.4075
628.7148, 1030.706
629.1970, 1104.542
629.6791, 1195.948
630.1612, 1303.837
630.6433, 1422.675
631.1254, 1549.855
631.6075, 1685.254
632.0897, 1826.994
632.5718, 1974.415
633.0539, 2142.516
633.5360, 2334.253
634.0181, 2542.891
634.5002, 2759.648
634.9824, 2992.714
635.4645, 3257.437
635.9466, 3560.777
636.4287, 3881.729
636.9108, 4212.487
637.3929, 4558.413
637.8751, 4924.434
638.3572, 5311.078
638.8393, 5715.047
639.3214, 6136.203
639.8035, 6572.672
640.2856, 7024.992
640.7678, 7493.334
641.2499, 7961.475
641.7320, 8437.823
642.2141, 8892.498
642.6962, 9316.409
643.1783, 9701.983
643.6605, 10034.55
644.1426, 10333.53
644.6247, 10537.89
645.1068, 10638.06
645.5889, 10628.24
646.0710, 10491.56
646.5532, 10238.48
647.0353, 9896.545
647.5174, 9479.134
647.9995, 9001.837
648.4816, 8494.109
648.9637, 7956.786
649.4459, 7394.565
649.9280, 6783.042
650.4101, 6192.917
650.8922, 5669.321
651.3743, 5205.385
651.8564, 4776.577
652.3386, 4391.106
652.8207, 4027.179
653.3028, 3666.497
653.7849, 3333.179
654.2670, 3057.156
654.7491, 2830.187
655.2313, 2618.413
655.7134, 2403.651
656.1955, 2194.734
656.6776, 2007.233
657.1597, 1841.282
657.6418, 1692.549
658.1240, 1563.037
658.6061, 1443.221
659.0882, 1326.714
659.5703, 1215.488
660.0524, 1112.960
660.5345, 1017.974
661.0167, 932.6793
661.4988, 860.5125
661.9809, 795.4695
662.4630, 732.5686
662.9451, 672.1581
663.4272, 616.2603
663.9094, 566.4691
664.3915, 519.2221
664.8736, 465.4004
665.3557, 406.5737
665.8378, 367.8739
666.3199, 356.9128
666.8021, 343.7197
667.2842, 306.2485
667.7663, 254.0987
668.2484, 218.3430
668.7305, 207.2531
669.2126, 194.6287
669.6948, 175.8787
670.1769, 157.4145
670.6590, 144.4581
671.1411, 134.8041
671.6232, 122.7999
672.1053, 105.9299
672.5875, 88.62183
673.0696, 76.41223
673.5517, 67.96521
674.0338, 57.99341
674.5159, 45.90369
674.9980, 35.55914
675.4802, 29.84070
675.9623, 25.93036
676.4444, 16.61572
676.9265, 5.160339
677.4086, 15.54660
677.8907, 5.942688
678.3729, 4.811340
678.8550, 8.641052
679.3371, 8.289001
679.8192, 8.067932
680.3013, 9.480774
680.7834, 13.00323
681.2656, 19.44971
681.7477, 28.39832
682.2298, 40.15070
682.7119, 54.31168
683.1940, 67.05298
683.6761, 75.92496
684.1583, 83.89703
684.6404, 96.47443
685.1225, 114.2545
685.6046, 134.6891
686.0867, 162.7779
686.5688, 186.7973
687.0510, 202.1238
687.5331, 212.9962
688.0152, 222.9496
688.4973, 231.9095
688.9794, 241.0806
689.4615, 255.8247
689.9437, 268.2665
690.4258, 267.2413
690.9079, 257.7588
691.3900, 253.8247
691.8721, 259.2880
692.3542, 264.0106
692.8364, 256.2005
693.3185, 237.1885
693.8006, 220.6282
694.2827, 206.7951
694.7648, 193.8873
695.2469, 182.4499
695.7291, 170.3069
696.2112, 154.7037
696.6933, 136.0917
697.1754, 119.2285
697.6575, 104.8676
698.1396, 92.11438
698.6218, 82.34772
699.1039, 73.31702
699.5860, 60.13220
700.0681, 43.70633
700.5502, 31.89761
701.0323, 31.75021
701.5145, 38.10910
701.9966, 40.75494
702.4787, 39.92654
702.9608, 36.58154
703.4429, 29.54288
703.9250, 24.09332
704.4072, 25.63974
704.8893, 32.94421
705.3714, 36.93289
705.8535, 31.40607
706.3356, 31.48645
706.8177, 42.57742
707.2999, 55.62613
707.7820, 65.13535
708.2641, 71.51242
708.7462, 76.80145
709.2283, 81.20383
709.7104, 87.25299
710.1926, 97.40186
710.6747, 110.7391
711.1568, 126.4476
711.6389, 143.9796
712.1210, 159.6674
712.6031, 170.8715
713.0853, 181.3408
713.5674, 200.1065
714.0495, 230.8676
714.5316, 256.9250
715.0137, 279.7593
715.4958, 296.0113
715.9780, 298.1616
716.4601, 295.6120
716.9422, 303.3461
717.4243, 325.3102
717.9064, 338.6534
718.3885, 331.1316
718.8707, 315.7177
719.3528, 301.1160
719.8349, 286.5563
720.3170, 268.1504
720.7991, 245.2322
721.2813, 223.3393
721.7634, 209.5334
722.2455, 201.4829
722.7276, 188.7961
723.2097, 171.1613
723.6918, 151.5912
724.1740, 129.0093
724.6561, 109.1469
725.1382, 99.50583
725.6203, 100.3244
726.1024, 97.70911
726.5845, 91.84851
727.0667, 82.74402
727.5488, 65.56754
728.0309, 48.80719
728.5130, 40.12549
728.9951, 38.62128
729.4772, 38.07849
729.9594, 35.87726
730.4415, 32.93997
730.9236, 29.51004
731.4057, 26.30670
731.8878, 25.33115
732.3699, 26.50800
732.8521, 26.83984
733.3342, 24.22742
733.8163, 20.01376
734.2984, 17.19571
734.7805, 15.56604
735.2626, 16.66602
735.7448, 25.33582
736.2269, 29.54944
736.7090, 18.16751
737.1911, 0.2915650
737.6732, 9.384491
738.1553, 8.618896
738.6375, 6.969940
739.1196, 5.461365
739.6017, 4.897034
740.0838, 7.623749
740.5659, 10.96658
741.0480, 9.682983
741.5302, 2.830872
742.0123, 4.074982
742.4944, 6.170380
742.9765, 4.674896
743.4586, 2.330200
743.9407, 0.9102780
744.4229, 6.791840
744.9050, 16.41885
745.3871, 24.19107
745.8692, 23.59311
746.3513, 15.46985
746.8334, 11.65784
747.3156, 15.00717
747.7977, 17.60580
748.2798, 19.31473
748.7619, 19.26578
749.2440, 15.30127
749.7261, 9.138977
750.2083, 5.824585
750.6904, 7.937744
751.1725, 10.15356
751.6546, 10.33871
752.1367, 8.896637
752.6188, 5.194336
753.1010, 0.2431030
753.5831, 3.066742
754.0652, 3.371399
754.5473, 2.750366
755.0294, 4.623077
755.5115, 8.328247
755.9937, 9.151337
756.4758, 6.699158
756.9579, 4.001373
757.4400, 1.831085
757.9221, 1.248840
758.4042, 4.578766
758.8864, 12.92801
759.3685, 16.38736
759.8506, 9.425995
760.3327, 4.558350
760.8148, 4.224609
761.2969, 6.748016
761.7791, 12.25894
762.2612, 19.63617
762.7433, 24.23340
763.2254, 22.15869
763.7075, 19.50409
764.1896, 21.13741
764.6718, 24.38902
765.1539, 25.88971
765.6360, 25.12056
766.1181, 22.24255
766.6002, 17.11673
767.0823, 11.59660
767.5645, 8.809036
768.0466, 8.672913
768.5287, 10.70822
769.0108, 15.32713
769.4929, 19.31201
769.9750, 20.78676
770.4572, 21.10458
770.9393, 23.02087
771.4214, 27.77769
771.9035, 28.73715
772.3856, 21.00888
772.8677, 15.80167
773.3499, 16.82721
773.8320, 21.18927
774.3141, 27.37805
774.7962, 34.62247
775.2783, 39.28979
775.7604, 37.40506
776.2426, 34.95573
776.7247, 36.81972
777.2068, 40.48383
777.6889, 42.21791
778.1710, 41.74742
778.6531, 40.98686
779.1353, 41.07993
779.6174, 41.83693
780.0995, 43.73679
780.5816, 46.43419
781.0637, 45.27559
781.5458, 39.07939
782.0280, 35.04108
782.5101, 37.89346
782.9922, 43.88084
783.4743, 45.09117
783.9564, 39.05435
784.4385, 38.05739
784.9207, 48.59186
785.4028, 55.88477
785.8849, 52.60744
786.3670, 46.57700
786.8491, 47.07182
787.3312, 53.85678
787.8134, 56.35974
788.2955, 44.90538
788.7776, 35.32117
789.2597, 39.01529
789.7418, 48.10501
790.2239, 52.85255
790.7061, 52.82059
791.1882, 53.12811
791.6703, 56.84256
792.1524, 61.60619
792.6345, 64.36014
793.1166, 65.19359
793.5988, 64.38702
794.0809, 62.14621
794.5630, 60.33443
795.0451, 59.73257
795.5272, 59.80469
796.0093, 61.12473
796.4915, 64.09380
796.9736, 64.86543
797.4557, 62.79033
797.9378, 59.66774
798.4199, 55.37547
798.9020, 51.28734
799.3842, 47.84772
799.8663, 44.98810
800.3484, 45.05615
800.8305, 52.74095
801.3126, 57.35645
801.7947, 50.79401
802.2769, 43.49886
802.7590, 46.76549
803.2411, 57.54161
803.7232, 65.02483
804.2053, 64.66348
804.6874, 60.89079
805.1696, 55.02905
805.6517, 49.68829
806.1338, 50.41483
806.6159, 56.01945
807.0980, 60.91577
807.5801, 63.07199
808.0623, 62.54602
808.5444, 58.18329
809.0265, 50.93489
809.5086, 48.97827
809.9907, 53.53038
810.4728, 56.12784
810.9550, 53.81343
811.4371, 51.14484
811.9192, 52.08630
812.4013, 56.13675
812.8834, 60.34740
813.3655, 68.41623
813.8477, 70.27460
814.3298, 59.59578
814.8119, 49.25328
815.2940, 44.88443
815.7761, 45.36958
816.2582, 49.52264
816.7404, 57.69888
817.2225, 64.11301
817.7046, 65.72232
818.1867, 65.05983
818.6688, 64.33098
819.1509, 62.86026
819.6331, 58.53099
820.1152, 51.47986
820.5973, 44.98296
821.0794, 41.20264
821.5615, 39.52289
822.0436, 38.92380
822.5258, 39.64119
823.0079, 43.48297
823.4900, 50.38850
823.9721, 55.73442
824.4542, 56.78618
824.9363, 54.58939
825.4185, 50.96010
825.9006, 45.74637
826.3827, 41.50510
826.8648, 38.53571
827.3469, 35.64963
827.8290, 31.15300
828.3111, 28.05038
828.7932, 31.56087
829.2753, 41.99652
829.7574, 46.12793
830.2396, 36.49796
830.7217, 30.83188
831.2038, 35.77054
831.6859, 42.21603
832.1680, 43.74191
832.6501, 41.56950
833.1323, 39.67999
833.6144, 38.92552
834.0965, 39.20770
834.5786, 42.84956
835.0607, 45.49460
835.5428, 41.76012
836.0250, 34.36261
836.5071, 28.74831
836.9892, 26.44232
837.4713, 25.47684
837.9534, 23.94695
838.4355, 22.95459
838.9177, 25.62938
839.3998, 30.67293
839.8819, 32.72415
840.3640, 30.99329
840.8461, 28.50534
841.3282, 27.16551
841.8104, 26.74895
842.2925, 27.12033
842.7746, 28.50139
843.2567, 28.91199
843.7388, 27.90065
844.2209, 27.18867
844.7031, 27.79955
845.1852, 28.74779
845.6673, 28.91800
846.1494, 28.32195
846.6315, 25.72472
847.1136, 19.14801
847.5958, 13.55144
848.0779, 9.032700
848.5600, 6.042603
849.0421, 4.657776
849.5242, 5.087616
850.0063, 8.472748
850.4885, 17.24548
850.9706, 22.27090
851.4527, 17.14948
851.9348, 10.19742
852.4169, 6.331909
852.8990, 5.598083
853.3812, 7.885468
853.8633, 12.60504
854.3454, 16.08563
854.8275, 15.53992
855.3096, 12.29953
855.7917, 6.526123
856.2739, 1.5015000E-02
856.7560, 3.765625
857.2381, 4.528748
857.7202, 2.890717
858.2023, 1.168823
858.6844, 6.616943
859.1666, 12.53195
859.6487, 18.30353
860.1308, 18.75980
860.6129, 13.50446
861.0950, 10.94031
861.5771, 14.74936
862.0593, 20.31519
862.5414, 22.18698
863.0235, 20.84702
863.5056, 20.50134
863.9877, 21.45734
864.4698, 21.63263
864.9520, 19.61172
865.4341, 18.53458
865.9162, 21.33423
866.3983, 26.10666
866.8804, 28.18253
867.3625, 26.82877
867.8447, 25.88629
868.3268, 27.06436
868.8089, 26.74448
869.2910, 21.30847
869.7731, 15.38199
870.2552, 14.22336
870.7374, 17.55597
871.2195, 21.31155
871.7016, 24.49231
872.1837, 27.31799
872.6658, 29.54349
873.1479, 31.68988
873.6301, 34.05853
874.1122, 36.84814
874.5943, 41.21793
875.0764, 47.38135
875.5585, 51.25513
876.0406, 47.11154
876.5228, 40.64520
877.0049, 39.88162
877.4870, 42.88858
877.9691, 44.61307
878.4512, 44.38126
878.9333, 45.51239
879.4155, 50.56659
879.8976, 56.88382
880.3797, 58.60959
880.8618, 57.05063
881.3439, 59.95004
881.8260, 67.70361
882.3082, 75.61523
882.7903, 81.93103
883.2724, 86.27390
883.7545, 87.43890
884.2366, 86.14105
884.7188, 89.37341
885.2009, 98.50159
885.6830, 105.7239
886.1651, 108.8912
886.6472, 112.1742
887.1293, 118.7813
887.6115, 127.0263
888.0936, 132.9103
888.5757, 135.7691
889.0578, 138.4991
889.5399, 142.2074
890.0220, 144.2067
890.5042, 141.6484
890.9863, 138.7640
891.4684, 140.0680
891.9505, 144.8468
892.4326, 148.0547
892.9147, 147.3890
893.3969, 147.6043
893.8790, 151.8651
894.3611, 155.1021
894.8432, 152.9840
895.3253, 148.0621
895.8074, 144.9586
896.2896, 144.5677
896.7717, 143.3372
897.2538, 140.6944
897.7359, 135.3750
898.2180, 122.9912
898.7001, 109.5986
899.1823, 104.8687
899.6644, 106.8763
900.1465, 105.0361
900.6286, 93.85577
901.1107, 81.83484
901.5928, 78.13681
902.0750, 77.99387
902.5571, 74.01044
903.0392, 67.22400
903.5213, 62.40820
904.0034, 60.28687
904.4855, 55.30670
904.9677, 41.50027
905.4498, 25.40613
905.9319, 21.50671
906.4140, 26.92331
906.8961, 28.14590
907.3782, 24.14243
907.8604, 20.67456
908.3425, 20.58017
908.8246, 20.31232
909.3067, 14.54047
909.7888, 4.236816
910.2709, 2.838013
910.7531, 6.348114
911.2352, 9.675293
911.7173, 13.70267
912.1994, 16.23892
912.6815, 15.17209
913.1636, 12.68274
913.6458, 14.53937
914.1279, 22.46884
914.6100, 26.71619
915.0921, 25.07950
915.5742, 24.12216
916.0563, 26.13425
916.5385, 28.96860
917.0206, 31.14011
917.5027, 32.51532
917.9848, 31.86459
918.4669, 26.28076
918.9490, 23.84039
919.4312, 26.31625
919.9133, 29.50345
920.3954, 33.31198
920.8775, 36.21936
921.3596, 35.89709
921.8417, 32.16370
922.3239, 27.82516
922.8060, 23.17899
923.2881, 18.16699
923.7702, 12.21432
924.2523, 6.127777
924.7344, 0.9007260
925.2166, 6.935425
925.6987, 7.150177
926.1808, 0.5295720
926.6629, 4.363861
927.1450, 2.336365
927.6271, 11.43341
928.1093, 20.70331
928.5914, 28.41431
929.0735, 31.95294
929.5556, 32.00781
930.0377, 31.78784
930.5198, 32.18262
931.0020, 34.12079
931.4841, 39.94983
931.9662, 46.18121
932.4483, 45.90936
932.9304, 44.54407
933.4125, 54.44476
933.8947, 76.24707
934.3768, 97.80457
934.8589, 113.8877
935.3410, 120.5302
935.8231, 106.4355
936.3052, 83.41797
936.7874, 70.79749
937.2695, 68.84570
937.7516, 74.47406
938.2337, 85.59167
938.7158, 91.92877
939.1979, 80.66333
939.6801, 61.76636
940.1622, 56.12256
940.6443, 59.37451
941.1264, 56.17365
941.6085, 45.55298
942.0906, 38.02924
942.5728, 39.00519
943.0549, 42.34192
943.5370, 39.74011
944.0191, 32.39502
944.5012, 22.89825
944.9833, 12.16125
945.4655, 11.17566
945.9476, 22.22314
946.4297, 36.59845
946.9118, 48.82117
947.3939, 58.37598
947.8760, 62.46307
948.3582, 61.36572
948.8403, 66.58636
949.3224, 78.63159
949.8045, 91.82050
950.2866, 104.3768
950.7687, 118.5209
951.2509, 136.4321
951.7330, 157.2964
952.2151, 177.7495
952.6972, 197.0417
953.1793, 221.5214
953.6614, 251.6796
954.1436, 286.9966
954.6257, 328.2958
955.1078, 372.5400
955.5899, 415.3168
956.0720, 458.0161
956.5541, 508.7568
957.0363, 568.5043
957.5184, 632.9425
958.0005, 701.3468
958.4826, 774.4093
958.9647, 849.5712
959.4468, 932.5862
959.9290, 1031.057
960.4111, 1145.433
960.8932, 1267.343
961.3753, 1388.486
961.8574, 1534.470
962.3395, 1708.632
962.8217, 1905.997
963.3038, 2118.133
963.7859, 2354.471
964.2680, 2631.595
964.7501, 2952.500
965.2322, 3293.275
965.7144, 3621.266
966.1965, 4014.473
966.6786, 4524.677
967.1607, 5060.732
967.6428, 5557.523
968.1249, 6044.521
968.6071, 6592.729
969.0892, 7212.059
969.5713, 7853.703
970.0534, 8543.266
970.5355, 9219.785
971.0176, 9899.516
971.4998, 10532.71
971.9819, 11099.98
972.4640, 11588.01
972.9461, 11969.23
973.4282, 12253.23
973.9103, 12390.89
974.3925, 12375.40
974.8746, 12211.37
975.3567, 11872.92
975.8388, 11407.74
976.3209, 10826.71
976.8030, 10156.10
977.2852, 9466.808
977.7673, 8759.556
978.2494, 8059.577
978.7315, 7342.042
979.2136, 6671.165
979.6957, 6067.873
980.1779, 5527.068
980.6600, 5043.539
981.1421, 4613.927
981.6242, 4227.532
982.1063, 3879.449
982.5884, 3579.501
983.0706, 3351.886
983.5527, 3149.296
984.0348, 2941.335
984.5169, 2744.243
984.9990, 2580.180
985.4811, 2450.338
985.9633, 2340.885
986.4454, 2253.546
986.9275, 2176.480
987.4096, 2107.795
987.8917, 2046.594
988.3738, 1987.812
988.8560, 1938.382
989.3381, 1912.895
989.8202, 1909.507
990.3023, 1899.873
990.7844, 1867.102
991.2665, 1837.843
991.7487, 1823.614
992.2308, 1816.190
992.7129, 1809.139
993.1950, 1804.778
993.6771, 1810.506
994.1592, 1825.745
994.6414, 1834.256
995.1235, 1821.070
995.6056, 1812.425
996.0877, 1827.708
996.5698, 1845.096
997.0519, 1846.924
997.5341, 1838.114
998.0162, 1826.249
998.4983, 1813.784
998.9804, 1808.083
999.4625, 1826.728
999.9446, 1833.601
1000.427, 1805.166
1000.909, 1763.599
1001.391, 1726.331
1001.873, 1690.134
1002.355, 1645.159
1002.837, 1590.042
1003.319, 1534.970
1003.802, 1481.416
1004.284, 1432.748
1004.766, 1397.092
1005.248, 1361.441
1005.730, 1311.180
1006.212, 1253.860
1006.694, 1203.557
1007.176, 1163.077
1007.659, 1130.532
1008.141, 1112.162
1008.623, 1092.147
1009.105, 1061.788
1009.587, 1027.454
1010.069, 991.3984
1010.551, 956.4731
1011.033, 926.9153
1011.515, 903.6210
1011.998, 885.2465
1012.480, 876.9812
1012.962, 865.8119
1013.444, 836.1727
1013.926, 810.2237
1014.408, 810.9045
1014.890, 826.9409
1015.372, 835.1643
1015.854, 831.5584
1016.337, 831.8104
1016.819, 840.8474
1017.301, 856.9197
1017.783, 880.8315
1018.265, 910.0688
1018.747, 946.3463
1019.229, 985.0696
1019.711, 1018.081
1020.194, 1044.261
1020.676, 1072.287
1021.158, 1104.303
1021.640, 1140.543
1022.122, 1185.216
1022.604, 1230.009
1023.086, 1265.359
1023.568, 1298.150
1024.051, 1342.967
1024.533, 1400.956
1025.015, 1450.817
1025.497, 1483.948
1025.979, 1512.441
1026.461, 1538.334
1026.943, 1562.258
1027.425, 1585.015
1027.907, 1606.062
1028.390, 1627.767
1028.872, 1649.488
1029.354, 1656.008
1029.836, 1620.704
1030.318, 1604.593
1030.800, 1630.024
1031.282, 1667.141
1031.764, 1691.520
1032.246, 1722.088
1032.729, 1789.535
1033.211, 1893.599
1033.693, 1995.556
1034.175, 2084.810
1034.657, 2181.397
1035.139, 2281.899
1035.621, 2396.918
1036.103, 2548.232
1036.586, 2705.929
1037.068, 2840.618
1037.550, 2950.736
1038.032, 3034.663
1038.514, 3088.241
1038.996, 3121.986
1039.478, 3147.962
1039.960, 3138.866
1040.443, 3080.770
1040.925, 2985.822
1041.407, 2859.678
1041.889, 2706.004
1042.371, 2552.665
1042.853, 2406.047
1043.335, 2247.024
1043.817, 2063.849
1044.299, 1887.658
1044.781, 1732.043
1045.264, 1583.300
1045.746, 1426.160
1046.228, 1266.232
1046.710, 1132.307
1047.192, 1028.825
1047.674, 938.6423
1048.156, 867.4572
1048.638, 794.1645
1049.121, 709.5344
1049.603, 628.8027
1050.085, 565.4019
1050.567, 515.4528
1051.049, 468.5440
1051.531, 425.1709
1052.013, 379.4135
1052.495, 328.5406
1052.978, 290.5146
1053.460, 271.7053
1053.942, 257.2433
1054.424, 237.0901
1054.906, 212.4907
1055.388, 184.0624
1055.870, 152.1149
1056.352, 134.9205
1056.834, 133.0150
1057.317, 127.4387
1057.799, 114.4315
1058.281, 100.0497
1058.763, 87.78311
1059.245, 76.29950
1059.727, 62.88202
1060.209, 48.72726
1060.691, 39.67108
1061.173, 35.10339
1061.656, 29.41376
1062.138, 22.23596
1062.620, 20.97458
1063.102, 29.11420
1063.584, 35.15790
1064.066, 24.03714
1064.548, 4.017944
1065.030, 7.065613
1065.513, 11.58896
1065.995, 16.89569
1066.477, 22.88821
1066.959, 24.70367
1067.441, 21.02277
1067.923, 16.72031
1068.405, 15.56732
1068.887, 16.55829
1069.370, 19.77509
1069.852, 23.35968
1070.334, 23.14020
1070.816, 20.78824
1071.298, 22.24765
1071.780, 27.75891
1072.262, 29.69910
1072.744, 22.77921
1073.226, 13.11981
1073.708, 2.900940
1074.191, 4.773376
1074.673, 4.583984
1075.155, 0.7466740
1075.637, 0.2567440
1076.119, 3.244781
1076.601, 4.592529
1077.083, 1.085999
1077.565, 1.213287
1078.047, 11.64838
1078.530, 24.33047
1079.012, 37.37320
1079.494, 47.62637
1079.976, 49.40131
1080.458, 46.14697
1080.940, 48.04120
1081.422, 58.04297
1081.904, 66.29568
1082.387, 67.85495
1082.869, 70.89502
1083.351, 80.36707
1083.833, 89.77695
1084.315, 96.09576
1084.797, 98.59015
1085.279, 94.48022
1085.761, 82.66153
1086.244, 77.08167
1086.726, 82.09760
1087.208, 85.58847
1087.690, 84.03021
1088.172, 80.12296
1088.654, 80.56262
1089.136, 80.44189
1089.618, 70.92841
1090.100, 54.83029
1090.583, 42.19482
1091.065, 35.22534
1091.547, 31.27808
1092.029, 26.56851
1092.511, 24.12769
1092.993, 30.01974
1093.475, 33.90594
1093.957, 32.97742
1094.439, 27.49280
1094.922, 23.49939
1095.404, 20.96039
1095.886, 18.69861
1096.368, 16.68069
1096.850, 13.80905
1097.332, 9.887543
1097.814, 7.381805
1098.296, 7.857513
1098.779, 9.390961
1099.261, 8.706848
1099.743, 7.362976
1100.225, 9.918213
1100.707, 14.93680
1101.189, 19.94974
1101.671, 23.83698
1102.153, 21.86615
1102.635, 12.83707
1103.118, 4.372864
1103.600, 2.202240
1104.082, 4.532623
1104.564, 6.385498
1105.046, 8.313934
1105.528, 10.39975
1106.010, 11.92514
1106.492, 8.961609
1106.974, 6.693085
1107.457, 4.037384
1107.939, 1.141724
1108.421, 0.1116330
1108.903, 0.0000000E+00
##END=



