##NAMES=Cadmoindite
##RRUFFID=R060748
##IDEAL CHEMISTRY=CdIn_2_S_4_
##LOCALITY=Kudriavy (Kudryaviy) volcano, Iturup island, Kuril Islands, Russia
##OWNER=RRUFF
##SOURCE=Michael Scott
##DESCRIPTION=Black octahedra
##STATUS=The identification of this mineral is confirmed by single-crystal X-ray diffraction and chemical analysis.
##URL=rruff.info/R060748
##MEASURED CHEMISTRY=(Cd_0.78_Fe^2+^_0.17_Ti_0.05_)_Î£=1_In_2.00_S_4.00_
150.4550, 0.0000000E+00
150.9370, 10.28479
151.4190, 7.354492
151.9010, 9.959839
152.3830, 21.46045
152.8650, 31.69409
153.3470, 47.31213
153.8290, 45.42065
154.3120, 42.25842
154.7940, 27.70239
155.2760, 7.185913
155.7580, 4.043823
156.2400, 2.331177
156.7220, 8.126953
157.2040, 6.805176
157.6860, 1.695068
158.1690, 0.3582760
158.6510, 4.818848
159.1330, 16.99255
159.6150, 34.24805
160.0970, 57.31104
160.5790, 83.65308
161.0610, 114.3409
161.5430, 147.9156
162.0250, 180.4332
162.5080, 208.8425
162.9900, 233.9830
163.4720, 265.8694
163.9540, 304.7946
164.4360, 348.1984
164.9180, 397.4135
165.4000, 450.7411
165.8830, 505.6556
166.3650, 558.6172
166.8470, 610.3475
167.3290, 670.0612
167.8110, 740.2552
168.2930, 814.3618
168.7750, 889.7780
169.2570, 966.4094
169.7390, 1045.213
170.2210, 1128.362
170.7040, 1214.073
171.1860, 1290.836
171.6680, 1348.957
172.1500, 1407.674
172.6320, 1477.139
173.1140, 1556.490
173.5960, 1641.514
174.0780, 1733.849
174.5610, 1829.467
175.0430, 1905.498
175.5250, 1944.263
176.0070, 1985.540
176.4890, 2054.106
176.9710, 2141.485
177.4530, 2218.584
177.9350, 2283.497
178.4170, 2337.000
178.9000, 2372.658
179.3820, 2375.829
179.8640, 2356.487
180.3460, 2338.050
180.8280, 2326.127
181.3100, 2293.365
181.7920, 2234.951
182.2740, 2157.927
182.7570, 2079.277
183.2390, 2002.006
183.7210, 1920.295
184.2030, 1831.119
184.6850, 1734.570
185.1670, 1630.359
185.6490, 1516.425
186.1310, 1394.737
186.6130, 1273.948
187.0960, 1144.012
187.5780, 1024.940
188.0600, 938.7437
188.5420, 882.1089
189.0240, 825.2910
189.5060, 751.3425
189.9880, 667.4960
190.4700, 591.4207
190.9520, 528.5757
191.4350, 467.7574
191.9170, 393.9025
192.3990, 309.7828
192.8810, 244.2183
193.3630, 216.7534
193.8450, 215.4767
194.3270, 211.6970
194.8090, 206.0743
195.2920, 196.0405
195.7740, 179.1536
196.2560, 155.7910
196.7380, 128.0952
197.2200, 91.85229
197.7020, 55.56860
198.1840, 33.59082
198.6660, 30.89966
199.1480, 32.35596
199.6310, 28.63892
200.1130, 20.19702
200.5950, 9.639160
201.0770, 4.179443
201.5590, 17.81958
202.0410, 27.18262
202.5230, 32.88184
203.0050, 32.60205
203.4880, 19.02661
203.9700, 4.493652
204.4520, 18.72485
204.9340, 15.19531
205.4160, 0.5776370
205.8980, 15.63452
206.3800, 34.54541
206.8620, 50.18774
207.3440, 60.91162
207.8270, 66.02954
208.3090, 59.74585
208.7910, 31.36816
209.2730, 2.420166
209.7550, 4.387451
210.2370, 41.16064
210.7190, 70.76172
211.2010, 66.39282
211.6840, 36.22046
212.1660, 5.329346
212.6480, 24.65747
213.1300, 46.77026
213.6120, 50.46191
214.0940, 36.76831
214.5760, 25.45752
215.0580, 27.59937
215.5400, 38.87280
216.0230, 47.56421
216.5050, 50.09937
216.9870, 53.63867
217.4690, 66.78369
217.9510, 88.34912
218.4330, 110.4248
218.9150, 131.4036
219.3970, 150.6125
219.8800, 166.6831
220.3620, 179.4902
220.8440, 189.2817
221.3260, 191.7551
221.8080, 189.4817
222.2900, 195.7859
222.7720, 221.8086
223.2540, 256.6875
223.7360, 282.3562
224.2190, 295.3853
224.7010, 307.6707
225.1830, 330.6404
225.6650, 361.3584
226.1470, 389.9099
226.6290, 408.4119
227.1110, 426.8762
227.5930, 457.8655
228.0760, 502.4517
228.5580, 552.2627
229.0400, 599.7976
229.5220, 647.9578
230.0040, 705.8054
230.4860, 779.4109
230.9680, 860.2576
231.4500, 938.6960
231.9320, 1014.835
232.4150, 1099.569
232.8970, 1202.335
233.3790, 1318.714
233.8610, 1432.164
234.3430, 1532.616
234.8250, 1639.862
235.3070, 1767.975
235.7890, 1915.245
236.2710, 2072.611
236.7540, 2235.245
237.2360, 2404.645
237.7180, 2581.453
238.2000, 2772.019
238.6820, 2959.972
239.1640, 3137.030
239.6460, 3304.607
240.1280, 3468.771
240.6110, 3632.313
241.0930, 3792.392
241.5750, 3943.806
242.0570, 4088.152
242.5390, 4221.916
243.0210, 4353.664
243.5030, 4473.014
243.9850, 4558.142
244.4670, 4601.036
244.9500, 4613.279
245.4320, 4612.745
245.9140, 4605.398
246.3960, 4569.541
246.8780, 4489.092
247.3600, 4381.732
247.8420, 4264.677
248.3240, 4141.421
248.8070, 4021.792
249.2890, 3922.551
249.7710, 3849.146
250.2530, 3760.729
250.7350, 3646.341
251.2170, 3519.992
251.6990, 3387.168
252.1810, 3250.156
252.6630, 3123.380
253.1460, 3021.339
253.6280, 2947.327
254.1100, 2881.452
254.5920, 2835.323
255.0740, 2786.873
255.5560, 2718.350
256.0380, 2633.003
256.5200, 2548.749
257.0030, 2478.517
257.4850, 2422.045
257.9670, 2372.577
258.4490, 2338.396
258.9310, 2300.849
259.4130, 2249.269
259.8950, 2189.352
260.3770, 2134.252
260.8590, 2092.125
261.3420, 2060.273
261.8240, 2024.115
262.3060, 1977.988
262.7880, 1932.521
263.2700, 1892.641
263.7520, 1852.457
264.2340, 1802.256
264.7160, 1738.252
265.1980, 1668.356
265.6810, 1610.761
266.1630, 1573.018
266.6450, 1540.859
267.1270, 1528.498
267.6090, 1511.990
268.0910, 1464.849
268.5730, 1383.688
269.0560, 1291.663
269.5380, 1221.953
270.0200, 1186.421
270.5020, 1143.324
270.9840, 1085.656
271.4660, 1026.412
271.9480, 974.1387
272.4300, 928.4729
272.9120, 883.4177
273.3950, 833.6445
273.8770, 778.4326
274.3590, 721.0564
274.8410, 654.2158
275.3230, 592.1472
275.8050, 542.2678
276.2870, 501.1277
276.7690, 461.5320
277.2510, 419.5212
277.7340, 374.6218
278.2160, 322.6257
278.6980, 250.8694
279.1800, 189.9719
279.6620, 151.2009
280.1440, 125.9055
280.6260, 103.0037
281.1080, 77.37842
281.5910, 51.83984
282.0730, 33.65479
282.5550, 27.73608
283.0370, 16.99780
283.5190, 12.64795
284.0010, 42.88647
284.4830, 57.05273
284.9650, 50.72583
285.4470, 36.71802
285.9300, 30.30078
286.4120, 32.43457
286.8940, 31.10156
287.3760, 20.92676
287.8580, 9.239502
288.3400, 3.561035
288.8220, 3.238281
289.3040, 2.540527
289.7860, 23.29395
290.2690, 56.64648
290.7510, 90.15845
291.2330, 120.6965
291.7150, 155.1997
292.1970, 202.0425
292.6790, 257.3872
293.1610, 309.1726
293.6430, 350.5437
294.1250, 386.2783
294.6080, 425.9995
295.0900, 471.2063
295.5720, 509.9304
296.0540, 527.5693
296.5360, 533.7849
297.0180, 551.4875
297.5000, 590.8621
297.9830, 634.5806
298.4650, 670.8162
298.9470, 699.7742
299.4290, 721.5129
299.9110, 731.4082
300.3930, 738.3145
300.8750, 762.9585
301.3570, 811.1299
301.8390, 861.0449
302.3220, 904.4456
302.8040, 944.4065
303.2860, 986.1511
303.7680, 1031.379
304.2500, 1078.511
304.7320, 1125.281
305.2140, 1171.020
305.6960, 1219.194
306.1780, 1268.596
306.6610, 1321.489
307.1430, 1379.641
307.6250, 1443.403
308.1070, 1512.571
308.5890, 1588.521
309.0710, 1672.296
309.5530, 1748.702
310.0350, 1813.788
310.5170, 1876.598
311.0000, 1940.746
311.4820, 2005.317
311.9640, 2068.409
312.4460, 2128.599
312.9280, 2186.353
313.4100, 2243.591
313.8920, 2299.563
314.3740, 2356.336
314.8570, 2424.204
315.3390, 2488.222
315.8210, 2531.385
316.3030, 2548.463
316.7850, 2549.860
317.2670, 2551.414
317.7490, 2552.734
318.2310, 2555.446
318.7140, 2557.383
319.1960, 2562.417
319.6780, 2575.312
320.1600, 2594.691
320.6420, 2612.906
321.1240, 2619.826
321.6060, 2615.989
322.0880, 2625.221
322.5700, 2651.719
323.0520, 2687.036
323.5350, 2727.793
324.0170, 2773.503
324.4990, 2824.147
324.9810, 2880.776
325.4630, 2940.817
325.9450, 3000.172
326.4270, 3058.789
326.9090, 3115.995
327.3920, 3169.390
327.8740, 3222.365
328.3560, 3280.095
328.8380, 3345.142
329.3200, 3407.931
329.8020, 3459.827
330.2840, 3502.547
330.7660, 3544.418
331.2490, 3589.153
331.7310, 3633.069
332.2130, 3671.017
332.6950, 3704.042
333.1770, 3725.891
333.6590, 3736.694
334.1410, 3734.606
334.6230, 3712.196
335.1050, 3668.835
335.5880, 3624.074
336.0700, 3598.825
336.5520, 3591.472
337.0340, 3553.226
337.5160, 3466.675
337.9980, 3367.755
338.4800, 3275.244
338.9620, 3184.652
339.4440, 3081.743
339.9270, 2958.023
340.4090, 2821.011
340.8910, 2692.760
341.3730, 2577.525
341.8550, 2466.419
342.3370, 2359.348
342.8190, 2256.211
343.3010, 2150.643
343.7840, 2045.035
344.2660, 1951.441
344.7480, 1887.384
345.2300, 1857.315
345.7120, 1842.033
346.1940, 1853.209
346.6760, 1864.758
347.1580, 1853.568
347.6410, 1832.652
348.1230, 1835.600
348.6050, 1889.020
349.0870, 1981.059
349.5690, 2056.776
350.0510, 2104.336
350.5330, 2155.853
351.0150, 2220.793
351.4970, 2293.829
351.9790, 2371.698
352.4620, 2454.992
352.9440, 2536.909
353.4260, 2608.882
353.9080, 2670.372
354.3900, 2727.184
354.8720, 2781.042
355.3540, 2830.323
355.8360, 2874.366
356.3190, 2913.309
356.8010, 2949.349
357.2830, 2983.743
357.7650, 3015.363
358.2470, 3044.769
358.7290, 3073.307
359.2110, 3091.181
359.6930, 3088.482
360.1760, 3067.041
360.6580, 3044.118
361.1400, 3025.302
361.6220, 3000.621
362.1040, 2966.598
362.5860, 2922.816
363.0680, 2865.535
363.5500, 2790.697
364.0320, 2707.717
364.5150, 2637.697
364.9970, 2599.945
365.4790, 2541.088
365.9610, 2445.286
366.4430, 2336.585
366.9250, 2234.533
367.4070, 2141.644
367.8890, 2045.272
368.3710, 1930.129
368.8540, 1793.235
369.3360, 1678.121
369.8180, 1607.744
370.3000, 1534.077
370.7820, 1440.138
371.2640, 1335.151
371.7460, 1234.836
372.2280, 1146.381
372.7110, 1066.853
373.1930, 994.2742
373.6750, 932.7517
374.1570, 866.8406
374.6390, 783.1111
375.1210, 701.1333
375.6030, 634.4233
376.0850, 584.1385
376.5680, 542.8052
377.0500, 509.8517
377.5320, 482.6719
378.0140, 446.1526
378.4960, 394.2897
378.9780, 344.0251
379.4600, 309.1664
379.9420, 285.0785
380.4240, 261.9066
380.9060, 236.6870
381.3890, 212.6401
381.8710, 194.3369
382.3530, 180.5626
382.8350, 163.7990
383.3170, 139.0209
383.7990, 112.2023
384.2810, 97.64429
384.7630, 100.6776
385.2460, 100.4020
385.7280, 91.08606
386.2100, 78.16089
386.6920, 68.41821
387.1740, 61.94495
387.6560, 51.39893
388.1380, 28.10205
388.6200, 9.611694
389.1030, 32.46118
389.5850, 30.41992
390.0670, 26.00793
390.5490, 24.86536
391.0310, 25.51404
391.5130, 25.06531
391.9950, 22.28223
392.4770, 17.73633
392.9590, 11.19714
393.4420, 0.7149660
393.9240, 4.708618
394.4060, 10.10352
394.8880, 26.45459
395.3700, 33.71204
395.8520, 32.02063
396.3340, 28.88147
396.8160, 31.04541
397.2980, 36.38489
397.7810, 36.19775
398.2630, 28.50183
398.7450, 20.90723
399.2270, 21.31799
399.7090, 24.04175
400.1910, 17.47626
400.6730, 9.402771
401.1550, 30.89569
401.6380, 24.28833
402.1200, 2.233826
402.6020, 26.20667
403.0840, 42.08868
403.5660, 48.44940
404.0480, 40.26489
404.5300, 10.74493
405.0120, 6.136963
405.4950, 4.7302000E-02
405.9770, 12.06317
406.4590, 20.60443
406.9410, 24.36230
407.4230, 23.65338
407.9050, 18.31586
408.3870, 8.963989
408.8690, 1.082825
409.3510, 17.47925
409.8330, 26.40662
410.3160, 18.65631
410.7980, 7.620789
411.2800, 7.599854
411.7620, 20.89471
412.2440, 35.63416
412.7260, 36.75677
413.2080, 23.66644
413.6900, 14.80817
414.1730, 11.18170
414.6550, 11.63373
415.1370, 18.93182
415.6190, 29.06927
416.1010, 33.13507
416.5830, 23.70514
417.0650, 11.92560
417.5470, 12.92365
418.0300, 25.56659
418.5120, 36.25708
418.9940, 40.85840
419.4760, 40.14166
419.9580, 32.60529
420.4400, 15.64404
420.9220, 7.456543
421.4040, 17.96918
421.8860, 35.28662
422.3690, 50.46973
422.8510, 61.68463
423.3330, 66.16504
423.8150, 60.76941
424.2970, 46.76880
424.7790, 37.59131
425.2610, 31.79474
425.7430, 32.48932
426.2250, 46.24811
426.7080, 63.87854
427.1900, 76.85529
427.6720, 82.38098
428.1540, 80.98315
428.6360, 69.25043
429.1180, 44.02802
429.6000, 33.67462
430.0820, 49.95465
430.5650, 68.55841
431.0470, 80.38672
431.5290, 86.07605
432.0110, 86.75977
432.4930, 79.58374
432.9750, 72.21808
433.4570, 78.41656
433.9390, 97.43896
434.4220, 108.3522
434.9040, 101.1210
435.3860, 86.44580
435.8680, 79.12885
436.3500, 79.10809
436.8320, 82.83557
437.3140, 91.58655
437.7960, 102.2598
438.2780, 112.9075
438.7600, 122.8771
439.2430, 130.7345
439.7250, 135.5569
440.2070, 137.3616
440.6890, 136.0784
441.1710, 129.3636
441.6530, 122.3254
442.1350, 115.3084
442.6170, 108.2401
443.1000, 98.99371
443.5820, 88.17761
444.0640, 81.49963
444.5460, 87.42285
445.0280, 106.2259
445.5100, 118.0325
445.9920, 117.5947
446.4740, 117.2219
446.9570, 124.5687
447.4390, 135.3564
447.9210, 140.6458
448.4030, 135.8709
448.8850, 128.7239
449.3670, 127.4575
449.8490, 130.9991
450.3310, 133.1666
450.8130, 132.2151
451.2960, 130.7117
451.7780, 131.4656
452.2600, 133.6968
452.7420, 131.7648
453.2240, 119.6326
453.7060, 109.5734
454.1880, 112.3907
454.6700, 123.6109
455.1520, 131.5387
455.6350, 130.7094
456.1170, 123.9371
456.5990, 116.0657
457.0810, 101.1467
457.5630, 94.95825
458.0450, 106.6682
458.5270, 120.6389
459.0090, 124.1727
459.4920, 118.3711
459.9740, 112.2042
460.4560, 113.0804
460.9380, 118.1964
461.4200, 117.8345
461.9020, 112.0444
462.3840, 106.0884
462.8660, 97.99420
463.3490, 89.91223
463.8310, 86.58710
464.3130, 89.67175
464.7950, 90.58978
465.2770, 82.18164
465.7590, 70.61615
466.2410, 65.01862
466.7230, 66.44019
467.2050, 72.60840
467.6880, 82.56989
468.1700, 94.83954
468.6520, 100.1121
469.1340, 93.95605
469.6160, 88.88159
470.0980, 88.56982
470.5800, 89.19287
471.0620, 85.52338
471.5440, 77.01337
472.0270, 68.66315
472.5090, 66.59656
472.9910, 71.37970
473.4730, 74.37793
473.9550, 74.80206
474.4370, 73.47479
474.9190, 67.32434
475.4010, 61.31573
475.8840, 64.55908
476.3660, 82.63531
476.8480, 97.52722
477.3300, 84.23810
477.8120, 51.55786
478.2940, 38.37109
478.7760, 56.60162
479.2580, 81.20929
479.7410, 87.72485
480.2230, 75.59180
480.7050, 67.11090
481.1870, 63.15271
481.6690, 61.97235
482.1510, 64.73688
482.6330, 69.16016
483.1150, 69.87451
483.5970, 65.26202
484.0790, 61.79797
484.5620, 70.97485
485.0440, 99.57098
485.5260, 115.1723
486.0080, 105.5212
486.4900, 94.01678
486.9720, 86.14850
487.4540, 82.76392
487.9360, 85.69360
488.4190, 97.32056
488.9010, 110.1954
489.3830, 112.3146
489.8650, 104.4518
490.3470, 101.0286
490.8290, 106.7765
491.3110, 115.9914
491.7930, 124.1641
492.2760, 131.1248
492.7580, 132.4838
493.2400, 121.8745
493.7220, 110.4854
494.2040, 105.6856
494.6860, 106.1415
495.1680, 107.7219
495.6500, 108.6332
496.1320, 110.1017
496.6150, 115.2471
497.0970, 128.2584
497.5790, 134.0255
498.0610, 128.8731
498.5430, 120.4456
499.0250, 106.8160
499.5070, 92.93695
499.9890, 89.88776
500.4710, 106.3763
500.9540, 128.9556
501.4360, 135.5181
501.9180, 126.0245
502.4000, 114.2248
502.8820, 99.88812
503.3640, 89.65320
503.8460, 95.92688
504.3280, 116.9407
504.8100, 128.5998
505.2930, 119.8389
505.7750, 106.5293
506.2570, 94.88855
506.7390, 86.84802
507.2210, 87.51349
507.7030, 99.29169
508.1850, 116.2600
508.6680, 128.6213
509.1500, 136.7478
509.6320, 137.2067
510.1140, 119.0344
510.5960, 104.6254
511.0780, 109.2907
511.5600, 123.7824
512.0420, 128.6252
512.5240, 108.6973
513.0060, 132.3211
513.4890, 145.6281
513.9710, 148.3174
514.4530, 111.5244
514.9350, 124.9026
515.4170, 118.0796
515.8990, 110.5023
516.3810, 131.0402
516.8640, 99.86725
517.3460, 119.9322
517.8280, 119.5060
518.3100, 128.4628
518.7920, 117.1810
519.2740, 112.1873
519.7560, 127.4816
520.2380, 131.5236
520.7200, 117.8774
521.2030, 127.4135
521.6850, 95.47052
522.1670, 99.95007
522.6490, 120.1523
523.1310, 100.5476
523.6130, 98.33740
524.0950, 96.62610
524.5770, 97.18982
525.0590, 97.27209
525.5420, 91.90906
526.0240, 82.85571
526.5060, 79.28088
526.9880, 83.88708
527.4700, 90.14575
527.9520, 91.63251
528.4340, 88.85004
528.9160, 90.69861
529.3980, 103.6749
529.8810, 113.7222
530.3630, 117.1892
530.8450, 114.2884
531.3270, 102.4762
531.8090, 82.48090
532.2910, 63.06494
532.7730, 54.33142
533.2550, 56.32574
533.7370, 60.53625
534.2200, 67.80597
534.7020, 76.18195
535.1840, 87.40570
535.6660, 99.00006
536.1480, 104.9403
536.6300, 102.8230
537.1120, 100.5778
537.5940, 104.5737
538.0770, 110.9991
538.5590, 113.0352
539.0410, 110.0095
539.5230, 103.5965
540.0050, 93.76611
540.4870, 82.16931
540.9690, 76.32104
541.4510, 83.12817
541.9330, 86.21210
542.4160, 82.51208
542.8980, 76.32849
543.3800, 68.60602
543.8620, 61.33990
544.3440, 59.92706
544.8260, 69.86981
545.3080, 86.75421
545.7910, 99.58099
546.2730, 109.0957
546.7550, 109.4054
547.2370, 92.09424
547.7190, 71.19220
548.2010, 63.05371
548.6830, 67.46960
549.1650, 72.28339
549.6470, 74.65717
550.1300, 75.86859
550.6120, 79.27521
551.0940, 82.42584
551.5760, 76.21094
552.0580, 56.24255
552.5400, 33.70074
553.0220, 29.23407
553.5040, 50.79211
553.9870, 63.49951
554.4690, 57.69305
554.9510, 52.49255
555.4330, 58.34094
555.9150, 68.38635
556.3970, 70.10992
556.8790, 58.14673
557.3610, 41.35339
557.8430, 25.35205
558.3260, 11.48401
558.8080, 5.351746
559.2900, 8.443481
559.7720, 14.85992
560.2540, 20.64520
560.7360, 25.71918
561.2180, 29.23077
561.7000, 36.24390
562.1820, 35.48474
562.6650, 11.11688
563.1470, 13.38620
563.6290, 7.900391
564.1110, 25.44775
564.5930, 52.79913
565.0750, 42.77856
565.5570, 6.071045
566.0390, 15.48880
566.5210, 19.02069
567.0040, 19.81833
567.4860, 23.53528
567.9680, 25.83054
568.4500, 19.00510
568.9320, 2.483337
569.4140, 5.538086
569.8960, 10.36224
570.3780, 28.00012
570.8600, 27.65479
571.3430, 13.99792
571.8250, 1.713562
572.3070, 3.041260
572.7890, 4.552124
573.2710, 10.62738
573.7530, 23.94293
574.2350, 30.70966
574.7180, 24.71838
575.2000, 19.19336
575.6820, 18.65961
576.1640, 21.87524
576.6460, 27.62079
577.1280, 36.49249
577.6100, 43.56604
578.0920, 42.96576
578.5740, 38.06671
579.0570, 37.70300
579.5390, 42.93378
580.0210, 45.05585
580.5030, 36.78104
580.9850, 21.03650
581.4670, 11.49146
581.9490, 14.22809
582.4310, 15.29419
582.9140, 9.238739
583.3960, 5.373383
583.8780, 15.04092
584.3600, 34.03510
584.8420, 45.74347
585.3240, 37.60510
585.8060, 19.96942
586.2880, 11.27203
586.7700, 11.30060
587.2530, 13.30344
587.7350, 16.64563
588.2170, 19.15118
588.6990, 17.81406
589.1810, 12.23676
589.6630, 10.02292
590.1450, 13.00635
590.6270, 17.78326
591.1090, 29.44131
591.5920, 39.20166
592.0740, 30.78192
592.5560, 3.192932
593.0380, 22.31818
593.5200, 22.76852
594.0020, 1.559998
594.4840, 18.62100
594.9660, 39.20892
595.4480, 53.86044
595.9310, 59.97400
596.4130, 58.55966
596.8950, 49.81647
597.3770, 32.83047
597.8590, 18.49463
598.3410, 10.51785
598.8230, 5.974121
599.3050, 1.094421
599.7870, 2.230286
600.2700, 2.105896
600.7520, 16.73077
601.2340, 35.90936
601.7160, 52.17871
602.1980, 66.82578
602.6800, 70.01355
603.1620, 52.83905
603.6440, 36.69623
604.1270, 31.76920
604.6090, 32.95285
605.0910, 33.11627
605.5730, 30.76730
606.0550, 28.53015
606.5370, 27.26971
607.0190, 27.28897
607.5010, 29.69403
607.9840, 34.09677
608.4660, 38.59927
608.9480, 42.40146
609.4300, 44.29941
609.9120, 40.03918
610.3940, 23.30762
610.8760, 15.08282
611.3580, 20.91879
611.8410, 30.85242
612.3230, 43.43393
612.8050, 56.39709
613.2870, 66.20010
613.7690, 72.21085
614.2510, 73.10434
614.7330, 62.81558
615.2150, 47.48462
615.6970, 42.76044
616.1800, 50.80713
616.6620, 58.59708
617.1440, 55.93170
617.6260, 45.35394
618.1080, 39.65857
618.5900, 42.86792
619.0720, 44.73602
619.5540, 43.63882
620.0360, 42.01740
620.5190, 41.62833
621.0010, 41.61008
621.4830, 40.98712
621.9650, 38.04367
622.4470, 35.41406
622.9290, 36.33823
623.4110, 40.45639
623.8930, 47.93097
624.3750, 60.06671
624.8580, 67.45441
625.3400, 59.44116
625.8220, 37.86841
626.3040, 26.32510
626.7860, 32.07648
627.2680, 38.85007
627.7500, 49.27841
628.2320, 55.68573
628.7140, 50.55154
629.1970, 36.97064
629.6790, 26.47961
630.1610, 25.72211
630.6430, 31.19083
631.1250, 41.25723
631.6070, 54.22543
632.0890, 57.75500
632.5710, 47.33704
633.0540, 34.26752
633.5360, 30.63947
634.0180, 36.48087
634.5000, 35.70685
634.9820, 16.98328
635.4640, 6.567169
635.9460, 15.94949
636.4280, 30.63940
636.9110, 37.85004
637.3930, 36.49603
637.8750, 32.75055
638.3570, 29.44052
638.8390, 27.21414
639.3210, 29.42145
639.8030, 34.95724
640.2850, 32.87436
640.7680, 18.61093
641.2500, 2.044861
641.7320, 6.140808
642.2140, 5.691528
642.6960, 3.494232
643.1780, 0.9415890
643.6600, 6.387939
644.1420, 17.46558
644.6240, 26.22156
645.1070, 21.58292
645.5890, 4.962952
646.0710, 8.339172
646.5530, 5.872070
647.0350, 4.793915
647.5170, 12.50034
647.9990, 18.66681
648.4810, 19.53912
648.9630, 13.08170
649.4460, 7.969666
649.9280, 14.59897
650.4100, 33.84760
650.8920, 41.38385
651.3740, 28.15137
651.8560, 18.54373
652.3380, 17.28976
652.8200, 19.45618
653.3020, 19.84378
653.7850, 18.43298
654.2670, 19.81323
654.7490, 28.99762
655.2310, 40.93057
655.7130, 48.09598
656.1950, 51.19260
656.6770, 53.62848
657.1590, 56.30441
657.6410, 59.07080
658.1240, 62.64243
658.6060, 66.94928
659.0880, 66.31140
659.5700, 48.83282
660.0520, 42.23447
660.5340, 62.53339
661.0160, 86.17047
661.4980, 92.68073
661.9810, 82.13217
662.4630, 68.37885
662.9450, 56.07474
663.4270, 46.93579
663.9090, 44.46301
664.3910, 47.05646
664.8730, 49.86304
665.3550, 51.67883
665.8380, 52.57471
666.3200, 51.74280
666.8020, 49.87906
667.2840, 56.69043
667.7660, 85.06494
668.2480, 100.1346
668.7300, 82.82059
669.2120, 62.77368
669.6950, 64.98215
670.1770, 84.91248
670.6590, 97.21689
671.1410, 85.88934
671.6230, 71.06091
672.1050, 71.48254
672.5870, 79.86932
673.0690, 80.62115
673.5510, 71.47394
674.0340, 62.50699
674.5160, 62.50433
674.9980, 69.08588
675.4800, 71.03650
675.9620, 65.45917
676.4440, 63.53787
676.9260, 73.47260
677.4080, 80.68936
677.8900, 70.94208
678.3730, 50.56094
678.8550, 39.84924
679.3370, 51.00482
679.8190, 60.44641
680.3010, 51.08688
680.7830, 36.14243
681.2650, 33.97305
681.7470, 44.04861
682.2290, 51.79010
682.7120, 47.47873
683.1940, 36.20370
683.6760, 29.81772
684.1580, 28.86218
684.6400, 26.90836
685.1220, 21.85663
685.6040, 18.51773
686.0860, 22.26825
686.5680, 29.95184
687.0510, 32.07327
687.5330, 25.43619
688.0150, 21.19257
688.4970, 21.82870
688.9790, 21.07867
689.4610, 14.27353
689.9430, 5.131866
690.4250, 2.638641
690.9080, 11.23511
691.3900, 21.86078
691.8720, 21.36145
692.3540, 11.77567
692.8360, 4.690430
693.3180, 0.7326350
693.8000, 0.7003170
694.2820, 5.360901
694.7650, 13.79333
695.2470, 25.53839
695.7290, 47.38062
696.2110, 54.01544
696.6930, 25.82858
697.1750, 4.119354
697.6570, 12.75571
698.1390, 35.66827
698.6220, 51.76605
699.1040, 55.43906
699.5860, 49.85345
700.0680, 29.16479
700.5500, 5.412048
701.0320, 1.1322000E-02
701.5140, 10.59421
701.9960, 22.31482
702.4780, 29.69070
702.9610, 36.43030
703.4430, 49.75381
703.9250, 70.85889
704.4070, 66.63458
704.8890, 11.65411
705.3710, 26.39487
705.8530, 17.07773
706.3350, 6.780609
706.8170, 18.80988
707.3000, 18.37579
707.7820, 18.12323
708.2640, 23.45126
708.7460, 29.12106
709.2280, 31.69183
709.7100, 32.52667
710.1920, 34.35648
710.6740, 36.64447
711.1560, 34.27612
711.6390, 21.19473
712.1210, 4.152466
712.6030, 5.466034
713.0850, 27.59674
713.5670, 38.43546
714.0490, 28.01086
714.5310, 13.62183
715.0130, 8.659424
715.4950, 11.50211
715.9780, 13.01035
716.4600, 9.781250
716.9420, 10.34656
717.4240, 20.58743
717.9060, 30.98984
718.3880, 33.08572
718.8700, 29.72314
719.3520, 29.47409
719.8350, 36.56049
720.3170, 44.06134
720.7990, 43.79465
721.2810, 38.44046
721.7630, 34.68860
722.2450, 33.04919
722.7270, 31.46518
723.2090, 28.63751
723.6920, 26.31030
724.1740, 28.49255
724.6560, 37.61908
725.1380, 40.71097
725.6200, 34.64911
726.1020, 26.70007
726.5840, 13.97379
727.0660, 3.629852
727.5490, 6.780212
728.0310, 24.58179
728.5130, 37.33258
728.9950, 34.21255
729.4770, 26.52072
729.9590, 20.20004
730.4410, 16.15948
730.9230, 16.45013
731.4050, 20.96783
731.8880, 25.58569
732.3700, 26.35159
732.8520, 24.57260
733.3340, 24.03683
733.8160, 24.67545
734.2980, 28.78662
734.7800, 39.41776
735.2620, 46.62091
735.7440, 38.25705
736.2270, 17.56415
736.7090, 11.75424
737.1910, 36.74625
737.6730, 53.21115
738.1550, 51.91891
738.6370, 46.67462
739.1190, 44.97516
739.6010, 46.91357
740.0830, 52.13477
740.5660, 62.52951
741.0480, 67.79889
741.5300, 50.83777
742.0120, 25.92023
742.4940, 18.16449
742.9760, 26.22684
743.4580, 34.04672
743.9400, 34.47531
744.4220, 27.74045
744.9050, 9.333862
745.3870, 23.18903
745.8690, 31.63687
746.3510, 6.304291
746.8330, 20.36664
747.3150, 41.89621
747.7970, 54.49689
748.2790, 48.58170
748.7620, 23.95743
749.2440, 10.59897
749.7260, 24.27118
750.2080, 34.82834
750.6900, 25.37424
751.1720, 10.43353
751.6540, 7.850311
752.1360, 17.16644
752.6190, 23.82529
753.1010, 17.38803
753.5830, 7.600677
754.0650, 8.471741
754.5470, 16.86426
755.0290, 22.70657
755.5110, 24.47580
755.9930, 25.73190
756.4760, 28.82285
756.9580, 33.13968
757.4400, 37.64212
757.9220, 43.84610
758.4040, 44.68936
758.8860, 37.41074
759.3680, 28.45618
759.8500, 17.78748
760.3320, 8.671417
760.8150, 6.956665
761.2970, 14.53983
761.7790, 20.11063
762.2610, 20.18088
762.7430, 18.27783
763.2250, 13.29672
763.7070, 9.038757
764.1890, 8.918396
764.6710, 12.22449
765.1540, 15.03513
765.6360, 14.27444
766.1180, 11.03543
766.6000, 5.726318
767.0820, 0.7005920
767.5640, 2.141022
768.0460, 2.900116
768.5280, 7.138275
769.0100, 3.507538
769.4930, 4.785004
769.9750, 3.095398
770.4570, 13.90823
770.9390, 26.34134
771.4210, 31.81219
771.9030, 33.35980
772.3850, 30.81808
772.8670, 26.15417
773.3490, 22.48297
773.8320, 19.51645
774.3140, 19.60553
774.7960, 26.09470
775.2780, 33.12955
775.7600, 38.14911
776.2420, 40.55634
776.7240, 38.67184
777.2060, 32.62939
777.6890, 27.35962
778.1710, 26.20355
778.6530, 28.99411
779.1350, 38.53040
779.6170, 52.49127
780.0990, 58.27686
780.5810, 52.71814
781.0630, 45.93628
781.5450, 47.80301
782.0280, 54.97018
782.5100, 49.91306
782.9920, 24.76758
783.4740, 14.30072
783.9560, 30.97025
784.4380, 50.67426
784.9200, 59.86240
785.4030, 61.13284
785.8850, 59.52295
786.3670, 53.27264
786.8490, 49.66003
787.3310, 54.96405
787.8130, 58.09470
788.2950, 49.84897
788.7770, 36.45486
789.2590, 27.42944
789.7420, 24.98459
790.2240, 24.82541
790.7060, 22.70587
791.1880, 21.94092
791.6700, 30.16949
792.1520, 43.30969
792.6340, 48.24854
793.1160, 42.73196
793.5980, 36.86606
794.0810, 39.32480
794.5630, 46.60114
795.0450, 46.38110
795.5270, 37.05365
796.0090, 35.55688
796.4910, 49.10770
796.9730, 56.32214
797.4550, 39.72629
797.9380, 11.00601
798.4200, 2.495117
798.9020, 6.180664
799.3840, 12.31281
799.8660, 16.81320
800.3480, 17.65292
800.8300, 11.93512
801.3120, 3.342438
801.7940, 6.038544
802.2770, 14.98346
802.7590, 17.22064
803.2410, 6.474884
803.7230, 6.577454
804.2050, 18.94431
804.6870, 27.12964
805.1690, 22.91791
805.6510, 8.445160
806.1330, 2.559082
806.6160, 1.160889
807.0980, 6.529297
807.5800, 11.74597
808.0620, 14.41248
808.5440, 11.14172
809.0260, 1.006653
809.5080, 2.081207
809.9900, 26.10757
810.4720, 56.84470
810.9550, 66.19598
811.4370, 50.71497
811.9190, 43.71295
812.4010, 53.13867
812.8830, 56.90005
813.3650, 39.17853
813.8470, 21.60608
814.3300, 28.51575
814.8120, 54.80154
815.2940, 67.32144
815.7760, 45.98346
816.2580, 30.89996
816.7400, 40.63235
817.2220, 54.25690
817.7040, 53.68439
818.1860, 42.94250
818.6690, 35.30289
819.1510, 35.80698
819.6330, 38.17908
820.1150, 36.73621
820.5970, 34.33322
821.0790, 36.18518
821.5610, 40.84839
822.0430, 42.19894
822.5260, 38.70526
823.0080, 36.71225
823.4900, 43.96490
823.9720, 56.55856
824.4540, 58.65417
824.9360, 49.13788
825.4180, 40.21716
825.9000, 33.81049
826.3820, 31.30640
826.8650, 35.05850
827.3470, 41.63281
827.8290, 42.21747
828.3110, 34.14624
828.7930, 27.31506
829.2750, 17.49258
829.7570, 14.25400
830.2390, 29.29364
830.7210, 47.69885
831.2040, 48.69177
831.6860, 32.64175
832.1680, 23.41159
832.6500, 32.61118
833.1320, 44.10529
833.6140, 53.62894
834.0960, 59.58121
834.5780, 56.40338
835.0600, 47.21033
835.5430, 42.95670
836.0250, 50.35068
836.5070, 58.14728
836.9890, 55.79636
837.4710, 46.60309
837.9530, 31.72134
838.4350, 14.78729
838.9170, 9.460754
839.4000, 20.78461
839.8820, 36.37811
840.3640, 42.42999
840.8460, 39.94531
841.3280, 30.07080
841.8100, 12.36548
842.2920, 8.968750
842.7740, 28.32648
843.2560, 47.89294
843.7390, 48.13715
844.2210, 34.55908
844.7030, 28.90973
845.1850, 36.82816
845.6670, 38.41937
846.1490, 27.52640
846.6310, 18.00723
847.1140, 17.16785
847.5960, 20.88330
848.0780, 24.42654
848.5600, 27.81552
849.0420, 29.25302
849.5240, 20.82486
850.0060, 19.96661
850.4880, 45.14029
850.9700, 71.60480
851.4530, 71.94730
851.9350, 50.79874
852.4170, 33.26611
852.8990, 28.98840
853.3810, 31.73373
853.8630, 44.81998
854.3450, 57.10928
854.8270, 50.55753
855.3090, 31.84180
855.7920, 21.13535
856.2740, 24.67004
856.7560, 31.88007
857.2380, 30.16122
857.7200, 24.22626
858.2020, 26.58792
858.6840, 35.37387
859.1660, 39.77679
859.6480, 37.29489
860.1310, 34.41937
860.6130, 36.50577
861.0950, 42.30630
861.5770, 46.59613
862.0590, 48.67245
862.5410, 49.41779
863.0230, 49.35867
863.5050, 45.64215
863.9870, 34.25433
864.4700, 22.48434
864.9520, 20.08221
865.4340, 27.24277
865.9160, 35.25931
866.3980, 46.45905
866.8800, 54.72485
867.3620, 60.45874
867.8440, 62.43350
868.3270, 58.39798
868.8090, 49.97028
869.2910, 39.91956
869.7730, 25.08182
870.2550, 19.26996
870.7370, 35.16580
871.2190, 51.35147
871.7010, 58.12698
872.1830, 55.70926
872.6660, 40.61838
873.1480, 15.39038
873.6300, 2.385895
874.1120, 4.5837000E-02
874.5940, 9.520111
875.0760, 17.36133
875.5580, 24.02612
876.0410, 30.33701
876.5230, 36.10028
877.0050, 40.64059
877.4870, 43.66602
877.9690, 44.47354
878.4510, 40.46219
878.9330, 34.13193
879.4150, 34.20975
879.8970, 38.64267
880.3800, 33.25168
880.8620, 14.62668
881.3440, 2.660278
881.8260, 5.828094
882.3080, 1.656891
882.7900, 10.73648
883.2720, 21.57709
883.7540, 30.23358
884.2370, 36.68332
884.7190, 39.12787
885.2010, 36.37421
885.6830, 29.56888
886.1650, 18.66165
886.6470, 2.564514
887.1290, 1.741302
887.6110, 31.84717
888.0930, 42.97995
888.5760, 5.032806
889.0580, 31.50833
889.5400, 17.90231
890.0220, 28.82190
890.5040, 45.54022
890.9860, 12.73160
891.4680, 6.936493
891.9500, 2.311035
892.4320, 7.662689
892.9150, 18.79355
893.3970, 28.53946
893.8790, 32.37952
894.3610, 30.92862
894.8430, 33.76886
895.3250, 21.64120
895.8070, 37.01370
896.2890, 45.70410
896.7710, 48.05573
897.2540, 25.19864
897.7360, 35.32892
898.2180, 32.38718
898.7000, 28.52353
899.1820, 42.84320
899.6640, 23.64420
900.1460, 37.64648
900.6280, 38.41864
901.1100, 45.25998
901.5930, 38.96048
902.0750, 36.72015
902.5570, 47.62405
903.0390, 51.25113
903.5210, 43.43942
904.0030, 50.66696
904.4850, 31.02573
904.9680, 34.96271
905.4500, 49.07297
905.9320, 41.92468
906.4140, 37.53799
906.8960, 16.59674
907.3780, 40.73172
907.8600, 53.92398
908.3420, 56.76450
908.8240, 18.24133
909.3070, 33.13043
909.7890, 26.61481
910.2710, 19.22150
910.7530, 41.62949
911.2350, 9.123749
911.7170, 31.05936
912.1990, 31.26331
912.6810, 41.41470
913.1640, 30.02972
913.6460, 25.29889
914.1280, 42.11499
914.6100, 47.00406
915.0920, 33.14578
915.5740, 43.93951
916.0560, 10.69543
916.5380, 16.09686
917.0200, 38.17368
917.5030, 25.40918
917.9850, 36.60965
918.4670, 38.69269
918.9490, 0.6927190
919.4310, 32.04422
919.9130, 33.59146
920.3950, 3.113922
920.8770, 12.26569
921.3590, 6.739929
921.8420, 4.157227
922.3240, 4.155273
922.8060, 7.759796
923.2880, 13.31482
923.7700, 18.99615
924.2520, 25.01190
924.7340, 26.03979
925.2160, 13.74966
925.6980, 4.468384
926.1810, 8.682098
926.6630, 17.08926
927.1450, 21.73972
927.6270, 22.03143
928.1090, 18.84842
928.5910, 10.70871
929.0730, 6.645264
929.5550, 18.12906
930.0370, 29.57718
930.5200, 22.59155
931.0020, 8.840179
931.4840, 10.66476
931.9660, 28.69495
932.4480, 40.84738
932.9300, 32.18600
933.4120, 19.29266
933.8940, 17.49988
934.3770, 21.89929
934.8590, 27.91534
935.3410, 34.60056
935.8230, 38.20432
936.3050, 38.70236
936.7870, 37.30341
937.2690, 32.04251
937.7510, 27.78357
938.2340, 35.64673
938.7160, 49.78091
939.1980, 55.48654
939.6800, 51.73062
940.1620, 44.71323
940.6440, 36.89755
941.1260, 31.97491
941.6080, 37.50430
942.0910, 49.08072
942.5730, 53.73215
943.0550, 51.68256
943.5370, 41.54605
944.0190, 23.70178
944.5010, 10.47549
944.9830, 10.84787
945.4650, 18.15256
945.9470, 18.76929
946.4300, 13.72894
946.9120, 14.56107
947.3940, 24.44904
947.8760, 25.53589
948.3580, 9.966919
948.8400, 2.860016
949.3220, 5.949493
949.8040, 29.13672
950.2860, 40.43799
950.7690, 39.08740
951.2510, 33.07596
951.7330, 20.94064
952.2150, 16.29547
952.6970, 27.34143
953.1790, 40.04556
953.6610, 36.77881
954.1430, 19.58319
954.6250, 5.553802
955.1080, 7.382782
955.5900, 7.190277
956.0720, 13.14694
956.5540, 32.11520
957.0360, 38.95963
957.5180, 37.34723
958.0000, 31.66907
958.4820, 21.39600
958.9640, 17.92404
959.4470, 24.60764
959.9290, 30.58942
960.4110, 35.48398
960.8930, 37.00684
961.3750, 31.76978
961.8570, 23.21283
962.3390, 18.86295
962.8210, 19.43115
963.3040, 21.23022
963.7860, 28.22964
964.2680, 29.98300
964.7500, 17.74246
965.2320, 6.957916
965.7140, 13.93649
966.1960, 31.64737
966.6780, 36.17642
967.1610, 19.83847
967.6430, 9.709534
968.1250, 5.284576
968.6070, 7.945679
969.0890, 26.95175
969.5710, 46.15253
970.0530, 48.50323
970.5350, 37.80121
971.0180, 32.40747
971.5000, 37.36191
971.9820, 39.43265
972.4640, 36.61539
972.9460, 31.88586
973.4280, 18.13525
973.9100, 7.717896
974.3920, 22.05341
974.8740, 57.05475
975.3570, 74.94296
975.8390, 56.76898
976.3210, 41.19272
976.8030, 37.57654
977.2850, 35.93381
977.7670, 28.21481
978.2490, 20.56961
978.7310, 23.96017
979.2130, 38.27142
979.6960, 47.07642
980.1780, 40.16711
980.6600, 36.00055
981.1420, 44.24768
981.6240, 52.31555
982.1060, 52.45721
982.5880, 46.33167
983.0700, 34.44336
983.5520, 17.40369
984.0350, 10.17896
984.5170, 30.14731
984.9990, 43.85037
985.4810, 31.26212
985.9630, 14.28558
986.4450, 7.410736
986.9270, 10.30154
987.4090, 22.72308
987.8910, 45.06424
988.3740, 59.81006
988.8560, 61.36060
989.3380, 52.99225
989.8200, 23.12869
990.3020, 4.764221
990.7840, 2.275818
991.2660, 17.22128
991.7480, 17.90707
992.2310, 10.78546
992.7130, 29.16080
993.1950, 10.57153
993.6770, 9.847992
994.1590, 11.47025
994.6410, 7.456207
995.1230, 9.655731
995.6050, 18.27206
996.0880, 32.29193
996.5700, 53.36545
997.0520, 64.18210
997.5340, 49.43768
998.0160, 31.26996
998.4980, 17.07990
998.9800, 10.40045
999.4620, 20.48764
999.9450, 40.61554
1000.427, 50.29803
1000.909, 41.49255
1001.391, 34.69653
1001.873, 43.28879
1002.355, 52.11166
1002.837, 52.07022
1003.319, 46.86328
1003.801, 38.69296
1004.284, 29.69629
1004.766, 24.13132
1005.248, 23.19641
1005.730, 26.05713
1006.212, 35.29456
1006.694, 44.76611
1007.176, 53.55130
1007.658, 58.77417
1008.140, 54.71509
1008.623, 44.31360
1009.105, 39.02475
1009.587, 44.25372
1010.069, 47.40036
1010.551, 38.72766
1011.033, 30.91061
1011.515, 33.02618
1011.997, 39.63239
1012.479, 45.21854
1012.962, 48.98346
1013.444, 50.70642
1013.926, 50.67908
1014.408, 51.83636
1014.890, 60.66428
1015.372, 65.28778
1015.854, 51.32986
1016.336, 34.31659
1016.819, 35.29776
1017.301, 50.99759
1017.783, 59.44394
1018.265, 52.54706
1018.747, 44.18457
1019.229, 41.28262
1019.711, 36.15216
1020.193, 19.13428
1020.675, 1.449860
1021.158, 3.211456
1021.640, 3.329010
1022.122, 9.035706
1022.604, 9.626953
1023.086, 13.59540
1023.568, 32.16150
1024.050, 44.50433
1024.532, 33.74057
1025.015, 16.40021
1025.497, 10.67133
1025.979, 14.70795
1026.461, 15.18805
1026.943, 7.933594
1027.425, 1.674591
1027.907, 2.557831
1028.389, 4.028015
1028.871, 1.685150
1029.354, 7.750366
1029.836, 4.857941
1030.318, 3.687164
1030.800, 4.230988
1031.282, 8.186310
1031.764, 19.79196
1032.246, 33.22214
1032.728, 39.53375
1033.210, 28.47476
1033.693, 14.88934
1034.175, 11.02249
1034.657, 15.85059
1035.139, 24.80225
1035.621, 40.50632
1036.103, 51.80185
1036.585, 56.61081
1037.067, 58.63715
1037.550, 58.92786
1038.032, 56.73813
1038.514, 51.57324
1038.996, 43.43640
1039.478, 31.39832
1039.960, 11.93661
1040.442, 0.2487490
1040.924, 4.370941
1041.406, 2.237183
1041.889, 10.55865
1042.371, 23.83307
1042.853, 29.74704
1043.335, 30.93335
1043.817, 34.48807
1044.299, 42.25818
1044.781, 42.82184
1045.263, 30.09393
1045.745, 23.80237
1046.228, 31.03613
1046.710, 40.13947
1047.192, 44.04437
1047.674, 43.75150
1048.156, 40.15817
1048.638, 33.03345
1049.120, 33.00909
1049.602, 44.41010
1050.085, 43.88300
1050.567, 20.65143
1051.049, 6.916626
1051.531, 23.80441
1052.013, 53.07034
1052.495, 65.21207
1052.977, 60.80295
1053.459, 51.52081
1053.942, 35.05521
1054.424, 35.94617
1054.906, 61.23096
1055.388, 81.48422
1055.870, 81.32928
1056.352, 68.91562
1056.834, 54.47244
1057.316, 38.52042
1057.798, 21.39233
1058.281, 3.512756
1058.763, 0.6063840
1059.245, 10.64792
1059.727, 18.84018
1060.209, 15.72510
1060.691, 8.918579
1061.173, 6.471252
1061.655, 7.628448
1062.137, 11.29880
1062.620, 16.72916
1063.102, 21.70544
1063.584, 25.45935
1064.066, 22.21594
1064.548, 10.81390
1065.030, 6.423401
1065.512, 25.82025
1065.994, 52.30661
1066.477, 56.53494
1066.959, 46.49002
1067.441, 38.42776
1067.923, 32.88907
1068.405, 26.74982
1068.887, 19.17590
1069.369, 10.25543
1069.851, 1.955658
1070.333, 9.135620
1070.816, 4.580536
1071.298, 23.76169
1071.780, 26.91226
1072.262, 19.48218
1072.744, 13.76352
1073.226, 11.61517
1073.708, 7.822235
1074.190, 1.088348
1074.672, 7.529419
1075.155, 5.949371
1075.637, 0.1386410
1076.119, 11.79172
1076.601, 23.41705
1077.083, 27.72375
1077.565, 25.56085
1078.047, 22.52924
1078.530, 20.14520
1079.012, 17.29123
1079.494, 14.27673
1079.976, 10.83957
1080.458, 3.930756
1080.940, 0.7228090
1081.422, 3.389343
1081.904, 13.28372
1082.386, 22.16641
1082.869, 29.18448
1083.351, 34.81390
1083.833, 45.03372
1084.315, 45.48285
1084.797, 18.13065
1085.279, 3.900177
1085.761, 6.304016
1086.243, 29.86319
1086.725, 37.75659
1087.208, 29.52200
1087.690, 25.25763
1088.172, 27.42487
1088.654, 27.42352
1089.136, 24.03317
1089.618, 20.17487
1090.100, 15.57034
1090.582, 13.92130
1091.065, 20.73886
1091.547, 33.71344
1092.029, 39.51694
1092.511, 37.07724
1092.993, 35.04410
1093.475, 33.52646
1093.957, 34.54523
1094.439, 39.35446
1094.922, 42.72510
1095.404, 40.13214
1095.886, 34.91638
1096.368, 32.58066
1096.850, 31.97021
1097.332, 33.64050
1097.814, 23.10190
1098.296, 35.12302
1098.778, 41.37646
1099.260, 42.55475
1099.743, 23.20535
1100.225, 30.73553
1100.707, 27.45126
1101.189, 23.72525
1101.671, 34.99954
1102.153, 18.67831
1102.635, 29.71463
1103.117, 29.80850
1103.600, 27.36563
1104.082, 19.02377
1104.564, 11.10611
1105.046, 17.71292
1105.528, 20.78595
1106.010, 20.51584
1106.492, 6.886963
1106.974, 10.50723
1107.457, 7.210663
1107.939, 3.635437
1108.421, 9.693329
1108.903, 4.433563
1109.385, 9.099823
1109.867, 10.80118
1110.349, 3.709686
1110.831, 12.58411
1111.313, 17.58264
1111.796, 18.91229
1112.278, 5.611115
1112.760, 11.23926
1113.242, 9.251068
1113.724, 6.950897
1114.206, 15.20767
1114.688, 4.008514
1115.170, 12.09521
1115.652, 12.48203
1116.135, 16.38046
1116.617, 12.69565
1117.099, 11.65845
1117.581, 17.94528
1118.063, 20.00592
1118.545, 16.24048
1119.027, 21.78568
1119.509, 11.29944
1119.992, 13.96628
1120.474, 22.15790
1120.956, 17.97818
1121.438, 15.40567
1121.920, 32.83063
1122.402, 56.12973
1122.884, 55.55682
1123.366, 35.03220
1123.849, 18.90082
1124.331, 9.099762
1124.813, 10.76892
1125.295, 24.29865
1125.777, 33.83026
1126.259, 27.67670
1126.741, 17.91812
1127.223, 20.05435
1127.705, 28.92114
1128.188, 41.42245
1128.670, 27.93747
1129.152, 43.54633
1129.634, 52.09305
1130.116, 53.95871
1130.598, 29.13330
1131.080, 38.77179
1131.562, 34.59720
1132.044, 29.77167
1132.527, 43.77695
1133.009, 22.44623
1133.491, 36.59326
1133.973, 36.74838
1134.455, 43.31955
1134.937, 35.99362
1135.419, 32.95868
1135.901, 43.82376
1136.384, 46.99002
1136.866, 38.06171
1137.348, 45.03641
1137.830, 23.59418
1138.312, 27.07227
1138.794, 41.26120
1139.276, 33.01089
1139.758, 40.23477
1140.240, 41.57065
1140.723, 16.14465
1141.205, 37.25565
1141.687, 38.24075
1142.169, 18.55991
1142.651, 38.07416
1143.133, 20.99414
1143.615, 17.13126
1144.097, 23.03583
1144.579, 18.76080
1145.062, 30.53192
1145.544, 26.84421
1146.026, 21.77521
1146.508, 22.73514
1146.990, 6.614227
1147.472, 22.17920
1147.954, 18.21338
1148.436, 9.404785
1148.919, 1.638763
1149.401, 1.114624
1149.883, 9.104462
1150.365, 11.95743
1150.847, 13.16656
1151.329, 23.12097
1151.811, 37.00772
1152.293, 35.30197
1152.776, 10.59616
1153.258, 10.56921
1153.740, 26.24612
1154.222, 25.20477
1154.704, 17.95047
1155.186, 56.75833
1155.668, 54.69516
1156.150, 31.60123
1156.632, 14.71841
1157.115, 4.795898
1157.597, 6.146851
1158.079, 28.79413
1158.561, 34.86978
1159.043, 15.11557
1159.525, 4.045746
1160.007, 14.74091
1160.489, 25.74835
1160.971, 19.47913
1161.454, 6.323242
1161.936, 7.758606
1162.418, 21.17422
1162.900, 29.71527
1163.382, 33.58569
1163.864, 32.82751
1164.346, 28.31805
1164.828, 25.73413
1165.311, 27.10162
1165.793, 27.64648
1166.275, 21.68939
1166.757, 16.31155
1167.239, 22.54401
1167.721, 32.20416
1168.203, 37.01297
1168.685, 36.41306
1169.167, 25.71075
1169.650, 9.456512
1170.132, 7.431091
1170.614, 30.84070
1171.096, 45.48019
1171.578, 29.30203
1172.060, 16.46201
1172.542, 27.67453
1173.024, 38.03479
1173.506, 23.37015
1173.989, 0.1766660
1174.471, 3.708862
1174.953, 9.973267
1175.435, 9.519470
1175.917, 11.88733
1176.399, 21.15057
1176.881, 14.36868
1177.363, 5.833344
1177.846, 0.5256650
1178.328, 3.825317
1178.810, 2.840973
1179.292, 1.050568
1179.774, 7.503021
1180.256, 17.63855
1180.738, 11.37122
1181.220, 4.222992
1181.703, 4.835571
1182.185, 8.530670
1182.667, 17.94382
1183.149, 17.64096
1183.631, 17.84427
1184.113, 26.78677
1184.595, 35.95142
1185.077, 41.39929
1185.559, 41.75919
1186.042, 31.19897
1186.524, 18.18320
1187.006, 13.88977
1187.488, 16.97574
1187.970, 18.10812
1188.452, 13.92188
1188.934, 17.09003
1189.416, 35.44751
1189.898, 48.97086
1190.381, 53.61075
1190.863, 55.78766
1191.345, 59.78320
1191.827, 59.81137
1192.309, 46.77838
1192.791, 26.63834
1193.273, 23.85434
1193.755, 37.01941
1194.238, 42.50455
1194.720, 40.38385
1195.202, 38.59232
1195.684, 39.48203
1196.166, 46.91000
1196.648, 63.15164
1197.130, 79.43274
1197.612, 86.33228
1198.094, 89.21912
1198.577, 93.56766
1199.059, 98.00278
1199.541, 101.5156
1200.023, 103.4832
1200.505, 104.0197
1200.987, 102.4922
1201.469, 94.67184
1201.951, 73.41858
1202.433, 61.26862
1202.916, 67.94000
1203.398, 76.47293
1203.880, 83.57553
1204.362, 89.21899
1204.844, 93.21344
1205.326, 96.07193
1205.808, 98.88782
1206.290, 101.1359
1206.773, 97.79205
1207.255, 89.22092
1207.737, 79.90909
1208.219, 70.77560
1208.701, 73.15674
1209.183, 89.37881
1209.665, 107.7091
1210.147, 121.5351
1210.630, 127.8752
1211.112, 117.1217
1211.594, 103.0263
1212.076, 105.8687
1212.558, 117.8077
1213.040, 126.9213
1213.522, 131.0109
1214.004, 128.6259
1214.486, 120.4397
1214.969, 115.6109
1215.451, 115.4580
1215.933, 121.5276
1216.415, 141.1663
1216.897, 156.5355
1217.379, 162.8976
1217.861, 162.5376
1218.343, 155.0308
1218.825, 144.1524
1219.308, 134.7394
1219.790, 128.2492
1220.272, 141.4857
1220.754, 172.4920
1221.236, 180.6472
1221.718, 165.3382
1222.200, 153.3030
1222.682, 151.9710
1223.165, 154.2833
1223.647, 156.1514
1224.129, 156.2126
1224.611, 148.6629
1225.093, 141.7523
1225.575, 159.0282
1226.057, 176.5115
1226.539, 159.9306
1227.021, 126.9061
1227.504, 111.3709
1227.986, 119.5826
1228.468, 138.5435
1228.950, 185.2609
1229.432, 204.4359
1229.914, 175.9194
1230.396, 159.1174
1230.878, 174.3169
1231.360, 189.3469
1231.843, 183.7523
1232.325, 167.5652
1232.807, 154.4035
1233.289, 144.7311
1233.771, 141.2941
1234.253, 142.7803
1234.735, 148.8088
1235.217, 154.4355
1235.700, 136.1482
1236.182, 96.21597
1236.664, 73.69669
1237.146, 89.26514
1237.628, 107.5683
1238.110, 106.0840
1238.592, 98.93613
1239.074, 90.65463
1239.557, 83.78638
1240.039, 81.82108
1240.521, 81.37585
1241.003, 74.87512
1241.485, 65.10516
1241.967, 67.65237
1242.449, 88.09750
1242.931, 92.55579
1243.413, 76.46710
1243.896, 77.15414
1244.378, 102.9962
1244.860, 113.6135
1245.342, 89.30652
1245.824, 63.03549
1246.306, 69.52737
1246.788, 88.56805
1247.270, 91.44943
1247.752, 84.27658
1248.235, 72.11017
1248.717, 59.09610
1249.199, 50.53955
1249.681, 46.77124
1250.163, 47.37057
1250.645, 52.59464
1251.127, 54.50281
1251.609, 48.00827
1252.092, 43.04752
1252.574, 40.19495
1253.056, 41.08316
1253.538, 50.89969
1254.020, 54.26334
1254.502, 35.88770
1254.984, 9.889648
1255.466, 5.846252
1255.948, 18.69150
1256.431, 18.51270
1256.913, 11.14111
1257.395, 27.90924
1257.877, 61.83191
1258.359, 73.18915
1258.841, 55.36679
1259.323, 38.70758
1259.805, 39.13901
1260.287, 41.36496
1260.770, 37.22476
1261.252, 30.82364
1261.734, 19.41660
1262.216, 11.66568
1262.698, 19.26511
1263.180, 30.86176
1263.662, 29.88998
1264.144, 19.28552
1264.627, 13.19302
1265.109, 11.17938
1265.591, 22.36636
1266.073, 47.20767
1266.555, 45.82373
1267.037, 13.90833
1267.519, 3.370422
1268.001, 13.13156
1268.484, 35.82294
1268.966, 43.79614
1269.448, 41.52011
1269.930, 21.73447
1270.412, 1.035400
1270.894, 18.98087
1271.376, 49.70862
1271.858, 42.26486
1272.340, 22.70126
1272.823, 0.0000000E+00
##END=



