##NAMES=Cafarsite
##RRUFFID=R080118
##IDEAL CHEMISTRY=Ca_5.9_Mn^2+^_1.7_Fe^3+^_3_Ti^4+^_3_(As^3+^O_3_)_12_&#183;4-5H_2_O
##LOCALITY=Monte Cervandone, Val Devero, Piedmont, Italy
##OWNER=RRUFF
##SOURCE=Renato and Adriana Pagano
##DESCRIPTION=Dark reddish-brown pseudocubic crystals associated with black clinochlore and white orthoclase
##STATUS=The identification of this mineral has been confirmed by single-crystal X-ray diffraction.
##URL=rruff.info/R080118
150.3774, 0.0000000E+00
150.8595, 1.756104
151.3417, 2.356445
151.8238, 2.214050
152.3059, 0.8569030
152.7880, 0.3484800
153.2701, 0.8803710
153.7522, 0.7369080
154.2344, 0.5397340
154.7165, 0.9142150
155.1986, 4.449860
155.6807, 8.973511
156.1628, 12.98907
156.6449, 15.63992
157.1271, 17.49011
157.6092, 20.96295
158.0913, 26.97424
158.5734, 33.25177
159.0555, 39.16211
159.5376, 44.82031
160.0198, 50.57867
160.5019, 56.66360
160.9840, 62.95236
161.4661, 68.93985
161.9482, 74.21350
162.4303, 79.62491
162.9125, 85.77649
163.3946, 92.63980
163.8767, 99.67062
164.3588, 106.6280
164.8409, 113.4633
165.3230, 120.1388
165.8052, 126.3798
166.2873, 132.6563
166.7694, 139.5670
167.2515, 147.3451
167.7336, 155.0492
168.2157, 161.9676
168.6979, 168.6418
169.1800, 175.8098
169.6621, 183.9298
170.1442, 192.6410
170.6263, 200.8670
171.1084, 207.8480
171.5906, 215.5970
172.0727, 225.4954
172.5548, 236.3251
173.0369, 246.3312
173.5190, 254.2776
174.0011, 260.5044
174.4833, 267.7580
174.9654, 276.9394
175.4475, 286.3932
175.9296, 296.0673
176.4117, 305.7149
176.8938, 315.1654
177.3760, 324.3469
177.8581, 333.2820
178.3402, 340.9559
178.8223, 346.4481
179.3044, 351.7285
179.7865, 357.3917
180.2687, 363.4133
180.7508, 369.4819
181.2329, 375.3120
181.7150, 380.9074
182.1971, 386.4194
182.6792, 391.2914
183.1614, 396.5300
183.6435, 402.9188
184.1256, 410.3956
184.6077, 418.0976
185.0898, 425.1329
185.5719, 431.4717
186.0541, 438.7665
186.5362, 447.5524
187.0183, 457.0078
187.5004, 466.7801
187.9825, 476.9266
188.4646, 486.1903
188.9468, 493.0286
189.4289, 497.8751
189.9110, 502.4263
190.3931, 507.8122
190.8752, 512.8820
191.3573, 515.9041
191.8395, 516.6281
192.3216, 515.5624
192.8037, 513.0453
193.2858, 509.2123
193.7679, 503.9733
194.2500, 496.8469
194.7322, 488.2542
195.2143, 479.4145
195.6964, 470.4464
196.1785, 461.0887
196.6606, 451.4252
197.1427, 441.4338
197.6249, 431.4612
198.1070, 421.6925
198.5891, 411.9154
199.0712, 401.5912
199.5533, 389.8285
200.0354, 378.4435
200.5176, 368.6345
200.9997, 359.8176
201.4818, 350.7220
201.9639, 340.3938
202.4460, 328.8921
202.9281, 317.5370
203.4103, 306.6380
203.8924, 295.6866
204.3745, 284.4280
204.8566, 272.9484
205.3387, 261.7120
205.8208, 251.0861
206.3030, 241.0415
206.7851, 231.5483
207.2672, 223.1601
207.7493, 214.7347
208.2314, 205.2534
208.7135, 195.3432
209.1957, 185.4846
209.6778, 176.0381
210.1599, 166.9682
210.6420, 159.0294
211.1241, 153.4702
211.6062, 147.7824
212.0884, 140.1487
212.5705, 130.8868
213.0526, 121.8834
213.5347, 114.8162
214.0168, 109.9666
214.4989, 105.2715
214.9811, 100.8795
215.4632, 96.50052
215.9453, 91.82388
216.4274, 86.86667
216.9095, 82.04480
217.3916, 77.59399
217.8737, 73.59503
218.3559, 70.49152
218.8380, 69.32141
219.3201, 68.36084
219.8022, 65.80759
220.2843, 61.53162
220.7664, 57.36087
221.2486, 54.90332
221.7307, 53.82654
222.2128, 52.73389
222.6949, 51.25992
223.1770, 49.76663
223.6591, 48.65521
224.1413, 47.94806
224.6234, 47.51599
225.1055, 47.33780
225.5876, 47.37308
226.0697, 47.59756
226.5518, 48.12863
227.0340, 48.77997
227.5161, 49.29892
227.9982, 49.68466
228.4803, 49.92706
228.9624, 49.91263
229.4445, 49.77780
229.9267, 49.70007
230.4088, 49.80365
230.8909, 49.95456
231.3730, 49.91336
231.8551, 49.67664
232.3372, 49.24603
232.8194, 48.58322
233.3015, 47.75848
233.7836, 46.93503
234.2657, 46.33987
234.7478, 45.53345
235.2299, 43.35446
235.7121, 38.98682
236.1942, 34.83337
236.6763, 31.80145
237.1584, 29.23807
237.6405, 26.44351
238.1227, 23.09103
238.6048, 19.37799
239.0869, 15.77341
239.5690, 12.10144
240.0511, 8.870026
240.5332, 6.343872
241.0154, 4.152466
241.4975, 1.910828
241.9796, 0.5523070
242.4617, 3.003052
242.9438, 4.775757
243.4259, 5.323090
243.9081, 6.033020
244.3902, 7.344543
244.8723, 8.735596
245.3544, 9.722473
245.8365, 10.12234
246.3186, 10.06165
246.8008, 9.828033
247.2829, 9.324982
247.7650, 8.766754
248.2471, 8.142487
248.7292, 7.485168
249.2113, 6.836304
249.6935, 6.207733
250.1756, 5.564026
250.6577, 4.835449
251.1398, 3.999237
251.6219, 3.102112
252.1040, 2.102875
252.5862, 1.071625
253.0683, 9.4848998E-02
253.5504, 0.8074040
254.0325, 1.725952
254.5146, 2.828491
254.9967, 4.407593
255.4789, 5.588745
255.9610, 5.968445
256.4431, 6.187103
256.9252, 6.816650
257.4073, 7.987946
257.8894, 9.430634
258.3716, 10.80237
258.8537, 12.10568
259.3358, 13.29984
259.8179, 14.44357
260.3000, 15.44955
260.7821, 16.20718
261.2643, 16.70535
261.7464, 17.06595
262.2285, 17.36789
262.7106, 17.55435
263.1927, 18.07355
263.6748, 19.25168
264.1570, 20.55936
264.6391, 21.56543
265.1212, 22.22281
265.6033, 22.68365
266.0854, 22.95978
266.5675, 22.55231
267.0497, 24.12625
267.5318, 25.31662
268.0139, 26.14401
268.4960, 25.50412
268.9781, 26.77145
269.4602, 27.28183
269.9424, 27.76596
270.4245, 29.31598
270.9066, 28.91565
271.3887, 30.45828
271.8708, 31.23169
272.3529, 32.36371
272.8351, 32.73309
273.3172, 33.66190
273.7993, 35.38492
274.2814, 37.41022
274.7635, 39.31458
275.2456, 41.12894
275.7278, 42.77487
276.2099, 44.13983
276.6920, 45.25037
277.1741, 46.28348
277.6562, 47.15366
278.1383, 48.13171
278.6205, 49.73529
279.1026, 52.29269
279.5847, 54.77942
280.0668, 56.44730
280.5489, 57.41010
281.0310, 58.32422
281.5132, 59.42172
281.9953, 60.56262
282.4774, 61.59918
282.9595, 62.55237
283.4416, 63.29156
283.9237, 63.73334
284.4059, 63.89508
284.8880, 63.78680
285.3701, 63.22977
285.8522, 62.65674
286.3343, 62.61978
286.8164, 63.08807
287.2986, 63.40359
287.7807, 63.12903
288.2628, 62.41302
288.7449, 61.79630
289.2270, 61.48462
289.7091, 61.01791
290.1913, 59.82990
290.6734, 58.12726
291.1555, 56.60107
291.6376, 55.72342
292.1197, 55.25089
292.6018, 54.55533
293.0840, 53.53308
293.5661, 52.49448
294.0482, 51.66818
294.5303, 50.97452
295.0124, 50.24966
295.4945, 49.47064
295.9767, 48.61893
296.4588, 47.57172
296.9409, 46.20523
297.4230, 45.11060
297.9051, 44.86545
298.3872, 44.97934
298.8694, 44.87134
299.3515, 44.31363
299.8336, 43.57727
300.3157, 43.03726
300.7978, 42.76480
301.2799, 42.28552
301.7621, 40.96167
302.2442, 39.55911
302.7263, 38.79877
303.2084, 38.85025
303.6905, 39.23779
304.1726, 39.56516
304.6548, 39.85110
305.1369, 40.08331
305.6190, 40.14609
306.1011, 40.23425
306.5832, 40.45831
307.0653, 40.84818
307.5475, 41.49762
308.0296, 42.62656
308.5117, 44.13464
308.9938, 45.19751
309.4759, 45.45847
309.9580, 45.54129
310.4402, 45.78107
310.9223, 46.20151
311.4044, 46.83978
311.8865, 47.72858
312.3686, 48.83438
312.8507, 50.12350
313.3329, 51.89496
313.8150, 53.29204
314.2971, 53.55725
314.7792, 53.20921
315.2613, 53.21863
315.7434, 54.22589
316.2256, 55.67798
316.7077, 56.32613
317.1898, 55.84589
317.6719, 55.51450
318.1540, 56.12012
318.6361, 57.06152
319.1183, 57.64580
319.6004, 57.56107
320.0825, 57.37790
320.5646, 58.02345
321.0467, 59.69145
321.5288, 60.95230
322.0110, 60.90027
322.4931, 60.51326
322.9752, 60.58139
323.4573, 61.24309
323.9394, 62.01468
324.4215, 62.40054
324.9037, 62.40895
325.3858, 62.47650
325.8679, 62.32567
326.3500, 62.20219
326.8321, 63.08445
327.3142, 63.65850
327.7964, 63.93940
328.2785, 63.13282
328.7606, 63.66636
329.2427, 63.62366
329.7248, 63.53049
330.2069, 64.17267
330.6891, 63.38032
331.1712, 63.95444
331.6533, 63.94394
332.1354, 64.16023
332.6175, 63.79690
333.0996, 63.57597
333.5818, 63.87888
334.0639, 63.84828
334.5460, 63.30955
335.0281, 63.37418
335.5102, 62.28283
335.9923, 62.15334
336.4745, 61.72394
336.9566, 61.85004
337.4387, 62.67934
337.9208, 62.58228
338.4029, 60.56485
338.8850, 57.64241
339.3671, 54.68123
339.8492, 51.71111
340.3314, 49.05202
340.8135, 47.07449
341.2956, 45.64961
341.7777, 44.16687
342.2598, 42.49413
342.7419, 40.78996
343.2241, 39.26297
343.7062, 37.85020
344.1883, 36.26997
344.6704, 34.21477
345.1525, 31.91508
345.6346, 29.90193
346.1168, 28.26859
346.5989, 26.75084
347.0810, 25.19952
347.5631, 23.63573
348.0452, 22.07661
348.5273, 20.50850
349.0095, 18.96220
349.4916, 17.37645
349.9737, 15.75652
350.4558, 14.48155
350.9379, 13.83949
351.4200, 13.62436
351.9022, 13.59520
352.3843, 13.99471
352.8664, 13.88931
353.3485, 12.30626
353.8306, 9.613403
354.3127, 7.241821
354.7949, 5.541962
355.2770, 4.354462
355.7591, 3.546143
356.2412, 3.106384
356.7233, 2.659836
357.2054, 2.039032
357.6876, 1.337967
358.1697, 0.7227940
358.6518, 0.2274630
359.1339, 0.2863620
359.6160, 1.030319
360.0981, 1.926056
360.5803, 2.498764
361.0624, 2.458649
361.5445, 2.245438
362.0266, 2.195831
362.5087, 2.300568
362.9908, 2.406036
363.4730, 2.392792
363.9551, 2.346054
364.4372, 2.556198
364.9193, 3.296799
365.4014, 3.821793
365.8835, 3.706009
366.3657, 3.166351
366.8478, 2.605988
367.3299, 2.137100
367.8120, 1.771225
368.2941, 1.566101
368.7762, 1.575272
369.2584, 1.498001
369.7405, 1.256241
370.2226, 0.9296110
370.7047, 0.5587620
371.1868, 0.1600650
371.6689, 0.1856540
372.1511, 0.3691710
372.6332, 0.3830410
373.1153, 0.6366120
373.5974, 1.389114
374.0795, 2.100800
374.5616, 2.421844
375.0438, 2.486450
375.5259, 2.670502
376.0080, 3.194748
376.4901, 3.949249
376.9722, 4.545929
377.4543, 4.864410
377.9365, 5.182709
378.4186, 5.455704
378.9007, 5.774048
379.3828, 6.295334
379.8649, 7.046371
380.3470, 7.827393
380.8292, 8.343048
381.3113, 8.448288
381.7934, 8.720795
382.2755, 9.301834
382.7576, 9.903473
383.2397, 10.38948
383.7219, 10.74992
384.2040, 11.00501
384.6861, 11.15210
385.1682, 11.20638
385.6503, 11.41076
386.1324, 12.08486
386.6146, 12.55673
387.0967, 12.37947
387.5788, 12.04541
388.0609, 12.30631
388.5430, 13.47614
389.0251, 14.98784
389.5073, 15.64271
389.9894, 14.89498
390.4715, 14.41440
390.9536, 14.56280
391.4357, 14.75751
391.9178, 14.56126
392.4000, 13.98329
392.8821, 13.38329
393.3642, 13.10043
393.8463, 13.14053
394.3284, 13.28040
394.8105, 13.60762
395.2927, 13.93806
395.7748, 14.30760
396.2569, 14.62067
396.7390, 14.69224
397.2211, 14.37533
397.7032, 13.88252
398.1854, 13.74308
398.6675, 14.12279
399.1496, 14.34959
399.6317, 14.08421
400.1138, 13.68563
400.5959, 13.36272
401.0781, 13.15775
401.5602, 13.13692
402.0423, 13.50501
402.5244, 14.20650
403.0065, 14.58376
403.4886, 14.35715
403.9708, 14.08873
404.4529, 14.10281
404.9350, 14.37622
405.4171, 14.87048
405.8992, 15.76344
406.3813, 16.76769
406.8635, 17.35079
407.3456, 17.46567
407.8277, 17.70782
408.3098, 18.49862
408.7919, 19.57376
409.2740, 20.46854
409.7562, 21.12830
410.2383, 21.68919
410.7204, 21.97049
411.2025, 22.14214
411.6846, 22.97269
412.1667, 24.92969
412.6489, 26.97943
413.1310, 27.55988
413.6131, 26.71376
414.0952, 26.34898
414.5773, 27.01810
415.0594, 28.10916
415.5416, 29.18830
416.0237, 30.19855
416.5058, 31.06291
416.9879, 31.73935
417.4700, 32.19325
417.9521, 32.32990
418.4343, 31.83826
418.9164, 31.57159
419.3985, 31.89620
419.8806, 32.54051
420.3627, 33.12324
420.8448, 33.52699
421.3270, 33.84030
421.8091, 34.18622
422.2912, 34.56626
422.7733, 34.86777
423.2554, 35.12674
423.7375, 35.34131
424.2197, 35.42050
424.7018, 35.43940
425.1839, 35.63467
425.6660, 36.20613
426.1481, 37.05519
426.6302, 37.58418
427.1124, 37.36963
427.5945, 37.36136
428.0766, 37.78670
428.5587, 38.41941
429.0408, 39.03839
429.5229, 39.57072
430.0051, 40.09215
430.4872, 40.80865
430.9693, 41.90039
431.4514, 42.49948
431.9335, 42.04634
432.4156, 41.53200
432.8978, 41.30573
433.3799, 41.34119
433.8620, 41.49147
434.3441, 41.67476
434.8262, 41.89348
435.3083, 42.19498
435.7905, 42.66437
436.2726, 42.96878
436.7547, 42.97632
437.2368, 42.77881
437.7189, 42.42294
438.2010, 41.91281
438.6832, 41.27763
439.1653, 40.48892
439.6474, 39.57913
440.1295, 38.66490
440.6116, 37.66542
441.0938, 36.85593
441.5759, 36.60339
442.0580, 36.74670
442.5401, 36.82094
443.0222, 36.94229
443.5043, 36.76819
443.9865, 35.78419
444.4686, 34.07402
444.9507, 32.38461
445.4328, 31.04642
445.9149, 29.97202
446.3970, 28.96376
446.8792, 28.01041
447.3613, 27.13744
447.8434, 26.37825
448.3255, 25.67918
448.8076, 24.95720
449.2897, 24.20139
449.7719, 23.52371
450.2540, 23.06996
450.7361, 22.86115
451.2182, 22.34369
451.7003, 21.41295
452.1824, 20.35149
452.6646, 19.08287
453.1467, 17.79074
453.6288, 16.80702
454.1109, 16.27522
454.5930, 15.98637
455.0751, 15.51506
455.5573, 14.70827
456.0394, 14.01488
456.5215, 13.69325
457.0036, 13.25752
457.4857, 12.28235
457.9678, 10.89124
458.4500, 9.563751
458.9321, 8.677826
459.4142, 8.164124
459.8963, 7.603806
460.3784, 6.993103
460.8605, 6.347519
461.3427, 5.660034
461.8248, 4.937775
462.3069, 4.187378
462.7890, 3.413345
463.2711, 2.624695
463.7532, 1.739578
464.2354, 0.7837070
464.7175, 0.2055510
465.1996, 0.2812350
465.6817, 0.3748170
466.1638, 1.7685000E-02
466.6459, 0.7401120
467.1281, 1.428925
467.6102, 2.171570
468.0923, 2.644775
468.5744, 2.189774
469.0565, 0.9299620
469.5386, 0.2133030
470.0208, 0.7173000
470.5029, 1.846085
470.9850, 2.599136
471.4671, 2.993286
471.9492, 3.124237
472.4313, 2.902084
472.9135, 2.494110
473.3956, 2.059341
473.8777, 1.618881
474.3598, 1.135086
474.8419, 0.5655980
475.3240, 7.4265003E-02
475.8062, 0.6010740
476.2883, 0.7089080
476.7704, 1.100754
477.2525, 2.116745
477.7346, 3.406815
478.2167, 4.474228
478.6989, 5.220535
479.1810, 6.024811
479.6631, 7.446869
480.1452, 9.650436
480.6273, 11.57951
481.1094, 12.87022
481.5916, 14.24675
482.0737, 16.01982
482.5558, 18.02724
483.0379, 19.97667
483.5200, 21.73770
484.0021, 23.37471
484.4843, 24.98082
484.9664, 26.52950
485.4485, 28.20679
485.9306, 30.17285
486.4127, 32.18391
486.8948, 34.02650
487.3770, 35.76804
487.8591, 37.67868
488.3412, 39.90509
488.8233, 42.38556
489.3054, 45.13332
489.7875, 48.18581
490.2697, 50.92690
490.7518, 52.75256
491.2339, 54.20009
491.7160, 56.43198
492.1981, 59.73480
492.6802, 62.92876
493.1624, 65.33925
493.6445, 67.36667
494.1266, 69.56609
494.6087, 72.06831
495.0908, 74.78230
495.5729, 77.70735
496.0551, 80.82814
496.5372, 83.63657
497.0193, 85.98280
497.5014, 88.23682
497.9835, 90.56735
498.4656, 92.86395
498.9478, 94.98540
499.4299, 96.88269
499.9120, 98.57941
500.3941, 100.0641
500.8762, 101.2675
501.3583, 102.5783
501.8405, 104.2630
502.3226, 105.7782
502.8047, 106.8572
503.2868, 107.6338
503.7689, 108.4078
504.2510, 109.3832
504.7331, 110.2124
505.2152, 110.1519
505.6974, 109.0509
506.1795, 107.9798
506.6616, 106.9124
507.1437, 106.1988
507.6258, 106.5578
508.1079, 107.6810
508.5901, 107.9088
509.0722, 105.7808
509.5543, 102.6236
510.0364, 100.3562
510.5185, 98.98553
511.0006, 97.76628
511.4828, 96.41066
511.9649, 94.95224
512.4470, 93.50536
512.9291, 92.15430
513.4113, 90.54431
513.8934, 88.25616
514.3755, 85.87164
514.8576, 84.07310
515.3397, 82.86328
515.8218, 81.78146
516.3040, 80.50169
516.7861, 79.03157
517.2682, 77.44719
517.7503, 75.59969
518.2324, 73.82495
518.7145, 72.10439
519.1967, 70.48505
519.6788, 68.94655
520.1609, 67.51868
520.6430, 66.35774
521.1251, 65.74361
521.6072, 65.64389
522.0894, 65.00406
522.5715, 63.49236
523.0536, 61.93750
523.5357, 60.54836
524.0178, 59.28447
524.4999, 58.15544
524.9821, 57.18594
525.4642, 56.14542
525.9463, 54.79626
526.4284, 53.24902
526.9105, 51.78014
527.3926, 50.38364
527.8748, 49.03439
528.3569, 47.82208
528.8390, 46.66911
529.3211, 45.24617
529.8032, 43.41916
530.2853, 41.48189
530.7675, 39.61209
531.2496, 37.75174
531.7317, 35.70647
532.2138, 33.40813
532.6959, 31.20442
533.1780, 29.59070
533.6602, 28.71541
534.1423, 27.31400
534.6244, 24.90730
535.1065, 22.57339
535.5886, 20.82643
536.0707, 19.38893
536.5529, 17.78149
537.0350, 15.82840
537.5171, 13.75816
537.9992, 11.98326
538.4813, 10.57521
538.9634, 9.095810
539.4456, 7.262726
539.9277, 5.671768
540.4098, 4.773315
540.8919, 4.294403
541.3740, 3.666229
541.8561, 2.602051
542.3383, 1.441956
542.8204, 0.7039950
543.3025, 0.3231960
543.7846, 0.4019930
544.2667, 1.838531
544.7488, 3.284302
545.2310, 3.821976
545.7131, 3.564514
546.1952, 3.506454
546.6773, 4.071564
547.1594, 4.622452
547.6415, 4.711258
548.1237, 4.453812
548.6058, 4.190933
549.0879, 4.064331
549.5700, 3.912201
550.0521, 3.464844
550.5342, 2.660446
551.0164, 1.733948
551.4985, 0.3512270
551.9806, 0.7922670
552.4627, 0.9933780
552.9448, 0.8069760
553.4269, 1.360184
553.9091, 3.226212
554.3912, 5.659485
554.8733, 7.341675
555.3554, 8.167725
555.8375, 8.990173
556.3196, 9.847214
556.8018, 10.80516
557.2839, 11.74074
557.7660, 12.79120
558.2481, 14.36024
558.7302, 16.86406
559.2123, 19.61258
559.6945, 21.87793
560.1766, 23.75940
560.6587, 25.64861
561.1408, 27.63841
561.6229, 29.77798
562.1050, 32.19351
562.5872, 34.93886
563.0693, 37.53389
563.5514, 39.68665
564.0335, 41.96904
564.5156, 44.82095
564.9977, 47.96509
565.4799, 50.80756
565.9620, 53.11557
566.4441, 55.37646
566.9262, 58.42668
567.4083, 62.50996
567.8904, 66.39058
568.3726, 69.99266
568.8547, 73.45085
569.3368, 76.71957
569.8189, 79.89868
570.3010, 83.13736
570.7831, 86.54117
571.2653, 89.91336
571.7474, 92.93625
572.2295, 95.67268
572.7116, 98.75150
573.1937, 102.3085
573.6758, 106.0991
574.1580, 110.0722
574.6401, 114.1332
575.1222, 117.9213
575.6043, 121.3976
576.0864, 124.5998
576.5685, 127.2985
577.0507, 129.7793
577.5328, 132.5686
578.0149, 135.7829
578.4970, 139.0618
578.9791, 141.9926
579.4612, 144.5521
579.9434, 147.3628
580.4255, 150.8686
580.9076, 154.1040
581.3897, 156.8532
581.8718, 159.2901
582.3539, 161.5686
582.8361, 163.7480
583.3182, 165.8396
583.8003, 167.9572
584.2824, 170.0490
584.7645, 171.6543
585.2466, 172.6420
585.7288, 173.5193
586.2108, 174.4337
586.6929, 175.4338
587.1750, 176.6310
587.6572, 178.1093
588.1393, 179.4438
588.6214, 180.2907
589.1035, 180.9578
589.5856, 182.0660
590.0677, 183.5593
590.5499, 184.4409
591.0320, 183.9401
591.5141, 182.5275
591.9962, 181.9611
592.4783, 183.1336
592.9604, 183.9327
593.4426, 184.3599
593.9247, 184.4002
594.4068, 183.7665
594.8889, 182.7095
595.3710, 181.9590
595.8531, 182.0817
596.3353, 182.6263
596.8174, 182.4256
597.2995, 181.3132
597.7816, 180.4522
598.2637, 180.3734
598.7458, 180.3305
599.2280, 179.6727
599.7101, 178.4816
600.1922, 177.1928
600.6743, 175.7703
601.1564, 174.4516
601.6385, 173.5879
602.1207, 172.9628
602.6028, 171.9880
603.0849, 170.4986
603.5670, 168.6862
604.0491, 166.6756
604.5313, 164.3152
605.0134, 162.5688
605.4955, 162.1618
605.9776, 161.4893
606.4597, 159.7801
606.9418, 157.6140
607.4240, 155.8494
607.9061, 154.7198
608.3882, 153.6794
608.8703, 152.1051
609.3524, 150.0395
609.8345, 147.8209
610.3167, 145.2469
610.7988, 143.0574
611.2809, 141.9348
611.7630, 141.2923
612.2451, 140.3575
612.7272, 139.0398
613.2094, 137.4264
613.6915, 135.3639
614.1736, 133.1859
614.6557, 131.4214
615.1378, 130.0333
615.6199, 128.5260
616.1021, 126.6243
616.5842, 124.4980
617.0663, 122.6599
617.5484, 121.3173
618.0305, 119.9458
618.5126, 118.5400
618.9948, 117.0718
619.4769, 115.3802
619.9590, 113.6209
620.4411, 112.1727
620.9232, 111.2515
621.4053, 110.6175
621.8875, 109.9813
622.3696, 109.3370
622.8517, 108.3381
623.3338, 106.8779
623.8159, 105.1326
624.2980, 103.0475
624.7802, 100.7980
625.2623, 98.90990
625.7444, 97.56921
626.2265, 96.46367
626.7086, 95.68167
627.1907, 94.94063
627.6729, 93.64143
628.1550, 91.80231
628.6371, 90.02354
629.1192, 88.95261
629.6013, 88.47411
630.0834, 87.48657
630.5656, 85.51013
631.0477, 83.74059
631.5298, 82.47968
632.0119, 81.41365
632.4940, 80.45770
632.9761, 79.50713
633.4583, 78.21072
633.9404, 76.09362
634.4225, 73.73846
634.9046, 72.23934
635.3867, 71.51183
635.8688, 70.46845
636.3510, 68.68302
636.8331, 66.66285
637.3152, 64.96841
637.7973, 63.61723
638.2794, 62.43941
638.7615, 61.49642
639.2437, 60.64919
639.7258, 60.03024
640.2079, 59.38558
640.6900, 58.20862
641.1721, 56.44960
641.6542, 54.82584
642.1364, 54.28149
642.6185, 54.67236
643.1006, 54.06261
643.5827, 52.08386
644.0648, 49.91946
644.5469, 47.77791
645.0291, 45.76490
645.5112, 43.95531
645.9933, 42.36130
646.4754, 41.00378
646.9575, 40.09402
647.4396, 39.29403
647.9218, 38.19895
648.4039, 36.86760
648.8860, 35.60036
649.3681, 34.51202
649.8502, 33.53227
650.3323, 32.55959
650.8145, 31.62157
651.2966, 30.55819
651.7787, 29.25696
652.2608, 27.96934
652.7429, 26.82076
653.2250, 25.70926
653.7072, 24.46143
654.1893, 23.04131
654.6714, 21.71436
655.1535, 20.75365
655.6356, 20.08549
656.1177, 19.50626
656.5999, 19.03838
657.0820, 18.42909
657.5641, 17.52470
658.0462, 16.44974
658.5283, 15.36692
659.0104, 14.23161
659.4926, 13.30241
659.9747, 12.86858
660.4568, 12.41919
660.9389, 11.49532
661.4210, 10.33021
661.9031, 9.459541
662.3853, 9.082382
662.8674, 8.908936
663.3495, 8.557571
663.8316, 8.022057
664.3137, 7.329048
664.7958, 6.286194
665.2780, 5.437271
665.7601, 5.180771
666.2422, 5.168114
666.7243, 5.046997
667.2064, 4.784737
667.6885, 4.354439
668.1707, 3.616104
668.6528, 2.788589
669.1349, 1.974060
669.6170, 1.272293
670.0991, 1.160706
670.5812, 1.924332
671.0634, 2.844528
671.5455, 2.563942
672.0276, 0.5885010
672.5097, 0.6939470
672.9918, 0.7022930
673.4739, 0.6334760
673.9561, 0.7100450
674.4382, 0.9639820
674.9203, 1.507309
675.4024, 2.362335
675.8845, 3.108315
676.3666, 3.336266
676.8488, 3.227417
677.3309, 3.127701
677.8130, 3.057259
678.2951, 3.105072
678.7772, 3.354630
679.2593, 3.681702
679.7415, 3.940605
680.2236, 3.990593
680.7057, 3.912796
681.1878, 3.862434
681.6699, 3.835686
682.1520, 4.033241
682.6342, 3.841675
683.1163, 3.745239
683.5984, 3.610931
684.0805, 3.240112
684.5626, 3.180977
685.0447, 2.725594
685.5269, 3.112900
686.0090, 2.319771
686.4911, 1.547668
686.9732, 1.144936
687.4553, 0.8695070
687.9374, 0.2926640
688.4196, 0.6218950
688.9017, 1.434494
689.3838, 1.990448
689.8659, 2.513443
690.3480, 3.040527
690.8301, 3.656235
691.3123, 4.424370
691.7944, 5.389160
692.2765, 6.733665
692.7586, 8.853058
693.2407, 11.65518
693.7228, 13.68726
694.2050, 14.64251
694.6871, 15.69346
695.1692, 17.26488
695.6513, 19.12648
696.1334, 21.04638
696.6155, 23.02378
697.0977, 25.08049
697.5798, 27.26302
698.0619, 29.50268
698.5440, 31.71957
699.0261, 33.96772
699.5082, 36.31573
699.9904, 38.79121
700.4725, 41.44598
700.9546, 44.37811
701.4367, 47.55316
701.9188, 50.50221
702.4009, 53.01540
702.8831, 55.71061
703.3652, 58.84466
703.8473, 62.15848
704.3294, 65.51234
704.8115, 68.88741
705.2936, 72.25056
705.7758, 75.40001
706.2579, 78.68737
706.7400, 82.63577
707.2221, 86.92316
707.7042, 90.85625
708.1863, 94.27460
708.6685, 97.57459
709.1506, 101.1191
709.6327, 104.8653
710.1148, 108.4505
710.5969, 111.8217
711.0790, 115.1041
711.5612, 118.2987
712.0433, 121.4380
712.5254, 124.3944
713.0075, 127.2852
713.4896, 130.4844
713.9717, 134.4050
714.4539, 138.1732
714.9360, 140.8995
715.4181, 142.9135
715.9002, 144.9279
716.3823, 147.0629
716.8644, 149.0919
717.3466, 150.8280
717.8287, 152.3649
718.3108, 154.0830
718.7929, 156.0659
719.2750, 158.0605
719.7571, 160.4043
720.2393, 162.4086
720.7214, 163.7442
721.2035, 164.4751
721.6856, 164.6443
722.1677, 164.1473
722.6498, 163.7263
723.1320, 164.3160
723.6141, 165.3256
724.0962, 165.4657
724.5783, 164.6834
725.0604, 163.7756
725.5425, 163.1654
726.0247, 162.6791
726.5068, 161.9495
726.9889, 160.8272
727.4710, 159.9005
727.9531, 159.5785
728.4352, 159.0676
728.9174, 158.1099
729.3995, 156.7600
729.8816, 154.9270
730.3637, 152.6372
730.8458, 150.5871
731.3279, 149.4380
731.8101, 148.6758
732.2922, 147.5685
732.7743, 146.0770
733.2564, 144.1053
733.7385, 141.5801
734.2206, 138.9589
734.7028, 136.7771
735.1849, 135.0405
735.6670, 133.6482
736.1491, 133.2017
736.6312, 132.2916
737.1133, 130.1245
737.5955, 127.8116
738.0776, 126.4733
738.5597, 126.0270
739.0418, 125.4388
739.5239, 123.9565
740.0060, 122.3306
740.4882, 121.5284
740.9703, 121.3293
741.4524, 121.1130
741.9345, 120.7631
742.4166, 120.3037
742.8987, 119.7205
743.3809, 119.0887
743.8630, 119.1653
744.3451, 120.4893
744.8272, 121.4930
745.3093, 121.8046
745.7914, 122.0986
746.2736, 122.6263
746.7557, 123.4037
747.2378, 124.4390
747.7199, 125.7214
748.2020, 127.2853
748.6841, 129.3557
749.1663, 131.6602
749.6484, 133.6403
750.1305, 135.3180
750.6126, 137.2334
751.0947, 139.6929
751.5768, 142.2413
752.0590, 144.0143
752.5411, 144.7685
753.0232, 145.9505
753.5053, 148.0037
753.9874, 149.8961
754.4695, 151.2277
754.9517, 152.3064
755.4338, 153.3476
755.9159, 154.3995
756.3980, 155.7291
756.8801, 157.8691
757.3622, 160.0081
757.8444, 161.4851
758.3265, 162.3188
758.8086, 162.4391
759.2907, 161.8756
759.7728, 161.1417
760.2549, 160.7645
760.7371, 160.6371
761.2192, 160.0994
761.7013, 159.0740
762.1834, 157.8523
762.6655, 156.6150
763.1476, 155.0504
763.6298, 152.7036
764.1119, 149.8916
764.5940, 147.5134
765.0761, 146.0798
765.5582, 144.4445
766.0403, 142.0205
766.5225, 139.1323
767.0046, 135.9960
767.4867, 132.7157
767.9688, 129.4626
768.4509, 126.3094
768.9330, 123.2715
769.4152, 120.4677
769.8973, 117.8976
770.3794, 115.0792
770.8615, 111.9346
771.3436, 108.7554
771.8257, 105.7159
772.3079, 102.6945
772.7900, 99.40189
773.2721, 95.78744
773.7542, 92.64918
774.2363, 90.49711
774.7184, 88.40771
775.2006, 85.96251
775.6827, 83.28864
776.1648, 80.55603
776.6469, 77.81291
777.1290, 75.01888
777.6111, 72.12148
778.0933, 69.20709
778.5754, 66.43488
779.0575, 63.80563
779.5396, 61.60256
780.0217, 60.00124
780.5038, 58.33383
780.9860, 56.02075
781.4681, 53.22111
781.9502, 50.58496
782.4323, 48.06028
782.9144, 45.77481
783.3965, 44.02666
783.8787, 42.24252
784.3608, 39.98950
784.8429, 37.49010
785.3250, 35.18278
785.8071, 33.20511
786.2892, 31.32922
786.7714, 29.23384
787.2535, 27.16753
787.7356, 25.69437
788.2177, 24.74500
788.6998, 23.71973
789.1819, 22.40208
789.6641, 20.91446
790.1462, 19.37306
790.6283, 17.77913
791.1104, 16.38499
791.5925, 15.30135
792.0746, 14.24586
792.5568, 13.18570
793.0389, 12.12000
793.5210, 10.99773
794.0031, 9.866028
794.4852, 8.901337
794.9673, 8.216133
795.4495, 7.577576
795.9316, 6.994835
796.4137, 6.289299
796.8958, 4.986938
797.3779, 3.276917
797.8600, 2.011597
798.3422, 1.638885
798.8243, 1.743431
799.3064, 1.734711
799.7885, 1.616974
800.2706, 1.134895
800.7527, 9.5565997E-02
801.2349, 0.6940080
801.7170, 0.7297130
802.1991, 0.5225070
802.6812, 0.8549730
803.1633, 1.728355
803.6454, 2.321533
804.1276, 2.514771
804.6097, 2.467712
805.0918, 2.065872
805.5739, 1.562187
806.0560, 1.149071
806.5381, 0.8847050
807.0203, 0.8513180
807.5024, 1.174507
807.9845, 1.511093
808.4666, 1.319679
808.9487, 0.7262500
809.4308, 0.2437970
809.9130, 6.5567002E-02
810.3951, 0.4675980
810.8772, 1.156349
811.3593, 1.927490
811.8414, 2.327171
812.3235, 2.154083
812.8057, 2.372208
813.2878, 3.337128
813.7699, 4.254227
814.2520, 4.865189
814.7341, 5.359093
815.2162, 5.898766
815.6984, 6.507172
816.1805, 7.197014
816.6626, 7.974304
817.1447, 8.837112
817.6268, 9.880920
818.1089, 10.96585
818.5911, 11.89639
819.0732, 12.63380
819.5553, 13.18102
820.0374, 13.52817
820.5195, 13.75454
821.0016, 14.02264
821.4838, 14.33415
821.9659, 14.61288
822.4480, 14.84209
822.9301, 15.07600
823.4122, 15.34753
823.8943, 15.63512
824.3765, 15.91009
824.8586, 16.17382
825.3407, 16.38899
825.8228, 16.65524
826.3049, 16.75570
826.7870, 16.46227
827.2692, 16.06799
827.7513, 15.87207
828.2334, 15.89263
828.7155, 15.99535
829.1976, 16.16515
829.6797, 16.29893
830.1619, 16.28882
830.6440, 16.16355
831.1261, 15.94790
831.6082, 15.62537
832.0903, 15.17283
832.5724, 14.57410
833.0546, 14.03726
833.5367, 14.00842
834.0188, 14.60993
834.5009, 14.85669
834.9830, 14.61549
835.4651, 14.28899
835.9473, 13.93811
836.4294, 13.61832
836.9115, 13.41679
837.3936, 13.34689
837.8757, 13.27612
838.3578, 13.04484
838.8400, 12.95708
839.3221, 13.33545
839.8042, 13.75612
840.2863, 13.80043
840.7684, 13.46080
841.2505, 12.89952
841.7327, 12.18600
842.2148, 11.52923
842.6969, 11.17400
843.1790, 11.05662
843.6611, 11.04108
844.1432, 11.10209
844.6254, 11.06815
845.1075, 10.85780
845.5896, 10.47615
846.0717, 9.935059
846.5538, 9.258995
847.0359, 8.631447
847.5181, 7.931137
848.0002, 7.513123
848.4823, 7.755936
848.9644, 7.989136
849.4465, 7.706696
849.9286, 7.044174
850.4108, 6.412720
850.8929, 5.798164
851.3750, 5.455185
851.8571, 5.872635
852.3392, 6.211533
852.8214, 5.590233
853.3035, 4.418327
853.7856, 3.540489
854.2677, 3.222260
854.7498, 3.210945
855.2319, 3.449829
855.7141, 3.732994
856.1962, 3.490410
856.6783, 2.815155
857.1604, 2.300568
857.6425, 2.100632
858.1246, 2.019485
858.6068, 1.904015
859.0889, 1.761108
859.5710, 1.649170
860.0531, 1.582825
860.5352, 1.504456
861.0173, 1.384727
861.4995, 1.276375
861.9816, 1.256775
862.4637, 1.237343
862.9458, 1.078392
863.4279, 0.7741170
863.9100, 0.5671390
864.3922, 0.5666280
864.8743, 0.5820620
865.3564, 0.4015580
865.8385, 0.2342450
866.3206, 0.4754180
866.8027, 1.042809
867.2849, 1.389999
867.7670, 1.168037
868.2491, 0.7371220
868.7312, 0.4632640
869.2133, 0.3641280
869.6954, 0.5863420
870.1776, 1.106689
870.6597, 1.506424
871.1418, 1.588127
871.6239, 1.542252
872.1060, 1.649780
872.5881, 1.909271
873.0703, 1.944557
873.5524, 1.649109
874.0345, 1.400330
874.5166, 1.263664
874.9987, 1.212402
875.4808, 1.254356
875.9630, 1.362946
876.4451, 1.472801
876.9272, 1.661774
877.4093, 1.669548
877.8914, 1.143044
878.3735, 0.7316590
878.8557, 1.031937
879.3378, 1.623459
879.8199, 1.817486
880.3020, 1.478020
880.7841, 0.9990620
881.2662, 0.5056650
881.7484, 0.1443020
882.2305, 0.1996690
882.7126, 0.5057600
883.1947, 0.6835520
883.6768, 0.6726380
884.1589, 0.5574070
884.6411, 0.3806150
885.1232, 0.1937140
885.6053, 0.1325420
886.0874, 0.2042010
886.5695, 0.1441310
887.0516, 6.4667001E-02
887.5338, 0.3790740
888.0159, 0.8954050
888.4980, 1.317425
888.9801, 1.217037
889.4622, 0.5979120
889.9443, 0.2290570
890.4265, 0.2460210
890.9086, 0.3087880
891.3907, 0.4112630
891.8728, 0.5269780
892.3549, 0.6816600
892.8370, 0.8275300
893.3192, 0.8469660
893.8013, 0.6924970
894.2834, 0.6112900
894.7655, 0.8070410
895.2476, 1.048996
895.7297, 1.166603
896.2119, 1.184036
896.6940, 1.175716
897.1761, 1.140614
897.6582, 0.9626660
898.1403, 0.5148850
898.6224, 2.3155000E-02
899.1046, 0.1211360
899.5867, 1.8841000E-02
900.0688, 0.1906130
900.5509, 0.3696060
901.0330, 0.5301250
901.5151, 0.6713560
901.9973, 0.7308080
902.4794, 0.5816570
902.9615, 0.2232480
903.4436, 9.1766000E-02
903.9257, 0.2905960
904.4078, 0.4468570
904.8900, 0.5132600
905.3721, 0.4822920
905.8542, 0.3142780
906.3363, 4.4704001E-02
906.8184, 0.2333760
907.3005, 0.5922320
907.7827, 0.7843210
908.2648, 0.6029240
908.7469, 0.4422110
909.2290, 0.5620270
909.7111, 0.7737850
910.1932, 0.7919500
910.6754, 0.6158870
911.1575, 0.5289880
911.6396, 0.6816140
912.1217, 0.9548800
912.6038, 1.370136
913.0859, 1.774776
913.5681, 1.930096
914.0502, 1.861683
914.5323, 1.723072
915.0144, 1.584030
915.4965, 1.486286
915.9786, 1.480728
916.4607, 1.558212
916.9428, 1.703823
917.4249, 1.909206
917.9070, 2.058460
918.3892, 2.116753
918.8713, 2.219688
919.3534, 2.511482
919.8355, 2.862724
920.3176, 2.832157
920.7997, 2.234501
921.2819, 1.936058
921.7640, 1.927864
922.2461, 2.286537
922.7282, 3.444695
923.2103, 4.648422
923.6924, 4.855629
924.1746, 4.126404
924.6567, 3.529694
925.1388, 3.011944
925.6209, 2.770638
926.1030, 3.021957
926.5851, 3.389061
927.0673, 3.654785
927.5494, 3.838680
928.0315, 4.015781
928.5136, 4.204994
928.9957, 4.361053
929.4778, 4.458275
929.9600, 4.513580
930.4421, 4.503922
930.9242, 4.479225
931.4063, 4.531708
931.8884, 4.651012
932.3705, 4.729927
932.8527, 4.698181
933.3348, 4.673523
933.8169, 4.823647
934.2990, 5.098316
934.7811, 5.403790
935.2632, 5.714817
935.7454, 5.864071
936.2275, 5.795719
936.7096, 5.774479
937.1917, 6.090008
937.6738, 6.616673
938.1559, 6.821507
938.6381, 6.640364
939.1202, 6.710392
939.6023, 7.221384
940.0844, 7.538237
940.5665, 7.241898
941.0486, 6.696646
941.5308, 6.478701
942.0129, 6.613462
942.4950, 6.769363
942.9771, 7.025997
943.4592, 7.179344
943.9413, 7.122429
944.4235, 7.034740
944.9056, 7.061131
945.3877, 7.120441
945.8698, 6.987648
946.3519, 6.550272
946.8340, 6.359421
947.3162, 6.837053
947.7983, 7.305820
948.2804, 7.373238
948.7625, 7.239767
949.2446, 7.089127
949.7267, 6.979479
950.2089, 6.989147
950.6910, 7.208755
951.1731, 7.377317
951.6552, 7.174906
952.1373, 6.897242
952.6194, 6.944294
953.1016, 7.208157
953.5837, 7.390514
954.0658, 7.410908
954.5479, 7.370613
955.0300, 7.353535
955.5121, 7.332767
955.9943, 7.269613
956.4764, 7.166346
956.9585, 6.935728
957.4406, 6.574438
957.9227, 6.374237
958.4048, 6.477219
958.8870, 6.712208
959.3691, 6.866011
959.8512, 6.944641
960.3333, 6.996588
960.8154, 7.057678
961.2975, 6.882620
961.7797, 6.310789
962.2618, 5.808428
962.7439, 5.698656
963.2260, 5.858055
963.7081, 6.050924
964.1902, 6.336136
964.6724, 6.377918
965.1545, 5.919531
965.6366, 5.640205
966.1187, 5.866407
966.6008, 6.132530
967.0829, 6.078352
967.5651, 5.796165
968.0472, 5.548050
968.5293, 5.356003
969.0114, 5.151020
969.4935, 4.823448
969.9756, 4.626766
970.4578, 4.757957
970.9399, 5.020786
971.4220, 5.216700
971.9041, 5.321278
972.3862, 5.386753
972.8683, 5.477943
973.3505, 5.431318
973.8326, 5.013590
974.3147, 4.565237
974.7968, 4.399725
975.2789, 4.425976
975.7610, 4.413252
976.2432, 4.331350
976.7253, 4.394644
977.2074, 4.846060
977.6895, 5.332565
978.1716, 5.525215
978.6537, 5.430109
979.1359, 4.932980
979.6180, 4.190311
980.1001, 3.689575
980.5822, 3.623960
981.0643, 3.806208
981.5464, 4.114491
982.0286, 4.444036
982.5107, 4.550817
982.9928, 4.474545
983.4749, 4.408350
983.9570, 4.394756
984.4391, 4.391640
984.9213, 4.383677
985.4034, 4.328609
985.8855, 4.145571
986.3676, 3.859043
986.8497, 3.686636
987.3318, 3.634163
987.8140, 3.604336
988.2961, 3.559641
988.7782, 3.647369
989.2603, 4.027676
989.7424, 4.485355
990.2245, 4.550667
990.7067, 4.160620
991.1888, 3.874928
991.6709, 3.711184
992.1530, 3.620672
992.6351, 3.630642
993.1172, 3.649317
993.5994, 3.601948
994.0815, 3.508942
994.5636, 3.437368
995.0457, 3.387447
995.5278, 3.370314
996.0099, 3.443602
996.4921, 3.467268
996.9742, 3.384342
997.4563, 3.256342
997.9384, 3.077499
998.4205, 2.893179
998.9026, 2.876829
999.3848, 3.164454
999.8669, 3.324322
1000.349, 3.100058
1000.831, 2.934778
1001.313, 3.172392
1001.795, 3.484604
1002.277, 3.484646
1002.760, 3.200018
1003.242, 2.923126
1003.724, 2.727348
1004.206, 2.597839
1004.688, 2.541288
1005.170, 2.541851
1005.652, 2.650318
1006.134, 2.769730
1006.617, 2.726704
1007.099, 2.531244
1007.581, 2.390825
1008.063, 2.431131
1008.545, 2.499977
1009.027, 2.456757
1009.509, 2.388735
1009.991, 2.425360
1010.473, 2.515356
1010.956, 2.516319
1011.438, 2.409925
1011.920, 2.330360
1012.402, 2.392626
1012.884, 2.465595
1013.366, 2.346811
1013.848, 2.140980
1014.330, 2.090950
1014.813, 2.144306
1015.295, 1.993311
1015.777, 1.580481
1016.259, 1.348040
1016.741, 1.745142
1017.223, 2.355566
1017.705, 2.349941
1018.187, 1.924051
1018.669, 1.767921
1019.152, 1.908924
1019.634, 2.098888
1020.116, 2.242083
1020.598, 2.231535
1021.080, 1.908552
1021.562, 1.427479
1022.044, 1.261986
1022.526, 1.387371
1023.008, 1.578842
1023.491, 1.816477
1023.973, 2.002066
1024.455, 2.091539
1024.937, 2.133144
1025.419, 2.188868
1025.901, 2.238823
1026.383, 2.179367
1026.865, 2.003355
1027.348, 1.813498
1027.830, 1.614166
1028.312, 1.416077
1028.794, 1.191132
1029.276, 1.094460
1029.758, 1.386650
1030.240, 1.973869
1030.722, 2.051846
1031.204, 1.465462
1031.687, 1.063387
1032.169, 0.9483660
1032.651, 0.9575790
1033.133, 1.036188
1033.615, 1.171452
1034.097, 1.364929
1034.579, 1.608191
1035.061, 1.756516
1035.544, 1.793102
1036.026, 1.773573
1036.508, 1.708895
1036.990, 0.8830280
1037.472, 1.723518
1037.954, 2.172720
1038.436, 2.253166
1038.918, 0.8618810
1039.401, 1.374105
1039.883, 1.125620
1040.365, 0.8465980
1040.847, 1.631861
1041.329, 0.4677120
1041.811, 1.237875
1042.293, 1.230497
1042.775, 1.576612
1043.257, 1.155846
1043.740, 0.9712810
1044.222, 1.553030
1044.704, 1.709938
1045.186, 1.199083
1045.668, 1.565863
1046.150, 0.5933700
1046.632, 0.5616040
1047.114, 0.5771260
1047.596, 0.6373500
1048.079, 0.7137240
1048.561, 0.8546140
1049.043, 0.9167900
1049.525, 0.7541280
1050.007, 0.6630500
1050.489, 0.9040870
1050.971, 1.211733
1051.453, 1.236916
1051.936, 0.9958690
1052.418, 0.8073540
1052.900, 0.8026680
1053.382, 0.7158130
1053.864, 0.2922820
1054.346, 4.3770000E-03
1054.828, 0.2630140
1055.310, 0.6814800
1055.792, 0.7549080
1056.275, 0.5142920
1056.757, 0.4011120
1057.239, 0.6119840
1057.721, 0.7505870
1058.203, 0.5822870
1058.685, 0.4553620
1059.167, 0.6294650
1059.649, 0.9065650
1060.131, 1.119940
1060.614, 1.215919
1061.096, 1.047630
1061.578, 0.3950410
1062.060, 3.1826001E-02
1062.542, 0.1635090
1063.024, 0.4747370
1063.506, 0.7374100
1063.988, 0.8734090
1064.471, 0.7217960
1064.953, 0.3726350
1065.435, 0.1789260
1065.917, 0.2830940
1066.399, 0.3741460
1066.881, 0.2652030
1067.363, 0.1808490
1067.845, 0.3199080
1068.328, 0.5032730
1068.810, 0.5236930
1069.292, 0.4030610
1069.774, 0.2703610
1070.256, 0.1506690
1070.738, 8.4804997E-02
1071.220, 0.1314220
1071.702, 0.1872410
1072.184, 0.2460960
1072.667, 0.2443290
1073.149, 8.5950000E-03
1073.631, 0.3582060
1074.113, 0.3549000
1074.595, 0.1573540
1075.077, 0.5791150
1075.559, 0.5630720
1076.041, 0.4703270
1076.523, 0.5669420
1077.006, 0.6325400
1077.488, 0.3480800
1077.970, 0.1210780
1078.452, 0.3712940
1078.934, 0.3078460
1079.416, 0.1960660
1079.898, 0.1209010
1080.380, 6.3024998E-02
1080.862, 3.2806002E-02
1081.345, 3.5230001E-03
1081.827, 0.1074280
1082.309, 0.2270300
1082.791, 0.2486710
1083.273, 0.1609000
1083.755, 0.1001300
1084.237, 0.1072290
1084.719, 0.1798170
1085.202, 0.4386430
1085.684, 0.6374950
1086.166, 0.5296080
1086.648, 0.2737270
1087.130, 0.1163920
1087.612, 9.6577004E-02
1088.094, 0.1162410
1088.576, 0.1500190
1089.058, 0.1925370
1089.541, 0.2514150
1090.023, 0.3057440
1090.505, 0.3447360
1090.987, 0.3666170
1091.469, 0.3334120
1091.951, 0.2773400
1092.433, 0.3647610
1092.915, 0.7341180
1093.397, 0.9621260
1093.880, 0.7838920
1094.362, 0.5585020
1094.844, 0.5155350
1095.326, 0.5222970
1095.808, 0.3920460
1096.290, 0.1714730
1096.772, 6.0433999E-02
1097.254, 0.1357920
1097.737, 0.1419530
1098.219, 0.1403240
1098.701, 0.3244840
1099.183, 0.1810610
1099.665, 5.8724999E-02
1100.147, 0.2575860
1100.629, 0.3839550
1101.111, 0.3879320
1101.594, 0.2436140
1102.076, 0.1436560
1102.558, 0.2010750
1103.040, 0.2247490
1103.522, 0.1450140
1104.004, 1.7255999E-02
1104.486, 0.1693270
1104.968, 0.3492340
1105.450, 0.4500390
1105.932, 0.4596120
1106.415, 0.2929730
1106.897, 0.2864270
1107.379, 0.7383250
1107.861, 0.8203750
1108.343, 0.8299620
1108.825, 1.059416
1109.307, 1.270512
1109.789, 1.076294
1110.272, 0.5445290
1110.754, 0.2572980
1111.236, 0.4119780
1111.718, 0.5310710
1112.200, 0.6159820
1112.682, 0.6081470
1113.164, 0.3900280
1113.646, 0.1499400
1114.129, 5.8520999E-02
1114.611, 8.6216003E-02
1115.093, 0.1304970
1115.575, 0.1993640
1116.057, 0.2459030
1116.539, 0.2252290
1117.021, 0.2540110
1117.503, 0.4504430
1117.985, 0.5851230
1118.468, 0.4437270
1118.950, 0.1784530
1119.432, 8.4631003E-02
1119.914, 0.1778530
1120.396, 0.2380500
1120.878, 0.2402320
1121.360, 0.2661610
1121.842, 0.3338680
1122.324, 0.4023230
1122.807, 0.4384460
1123.289, 0.4958930
1123.771, 0.6503030
1124.253, 0.8750970
1124.735, 0.9011460
1125.217, 0.6520440
1125.699, 0.4755420
1126.181, 0.3978140
1126.664, 0.3614270
1127.146, 0.3597030
1127.628, 0.3532680
1128.110, 0.2914920
1128.592, 0.2185760
1129.074, 0.2959880
1129.556, 0.5555780
1130.038, 0.5913450
1130.521, 0.3551200
1131.003, 0.2430110
1131.485, 0.3622570
1131.967, 0.4620670
1132.449, 0.3757190
1132.931, 0.2116360
1133.413, 0.1606120
1133.895, 0.2128770
1134.377, 0.2063980
1134.859, 0.1364480
1135.342, 0.1570910
1135.824, 0.2836880
1136.306, 0.4105380
1136.788, 0.5014130
1137.270, 0.5693110
1137.752, 0.6380830
1138.234, 0.6634980
1138.716, 0.4520930
1139.199, 0.1012650
1139.681, 0.1039600
1140.163, 0.4118900
1140.645, 0.5706010
1141.127, 0.4634190
1141.609, 0.2492790
1142.091, 1.5440000E-02
1142.573, 0.1188160
1143.056, 0.1534730
1143.538, 0.5663090
1144.020, 0.5100000
1144.502, 0.1591320
1144.984, 3.6268000E-02
1145.466, 2.1681000E-02
1145.948, 8.5162997E-02
1146.430, 0.2310520
1146.912, 0.3465390
1147.395, 0.3292830
1147.877, 0.2996900
1148.359, 0.4941010
1148.841, 0.6896020
1149.323, 0.4331360
1149.805, 4.8145000E-02
1150.287, 0.1251450
1150.769, 0.2755740
1151.251, 0.5595420
1151.734, 0.3615680
1152.216, 0.1082730
1152.698, 0.1022660
1153.180, 0.1375730
1153.662, 1.6092001E-02
1154.144, 0.1488950
1154.626, 0.1883720
1155.108, 0.1214940
1155.591, 9.6456997E-02
1156.073, 0.1786080
1156.555, 0.1636680
1157.037, 0.1998710
1157.519, 0.4591270
1158.001, 0.2543680
1158.483, 4.1407000E-02
1158.965, 0.2813820
1159.448, 0.7047460
1159.930, 0.7987210
1160.412, 0.5282420
1160.894, 0.3256890
1161.376, 0.2500500
1161.858, 0.2245480
1162.340, 0.2849770
1162.822, 0.3325710
1163.304, 0.3939110
1163.786, 0.3702070
1164.269, 7.3743999E-02
1164.751, 0.3498080
1165.233, 0.3934440
1165.715, 8.7154001E-02
1166.197, 0.2989030
1166.679, 0.1350000
1167.161, 3.2000000E-05
1167.643, 3.2984000E-02
1168.126, 1.4860000E-03
1168.608, 0.1051540
1169.090, 0.2136230
1169.572, 0.2173940
1170.054, 0.1396580
1170.536, 0.1840760
1171.018, 0.3623290
1171.500, 0.3825240
1171.983, 0.2101290
1172.465, 0.1081140
1172.947, 0.1630670
1173.429, 0.2974700
1173.911, 0.4586560
1174.393, 0.6033950
1174.875, 0.6461940
1175.357, 0.6045020
1175.839, 0.5326460
1176.322, 0.4385170
1176.804, 0.3429300
1177.286, 0.2525500
1177.768, 0.1659830
1178.250, 8.4045000E-02
1178.732, 8.2344003E-02
1179.214, 0.3231560
1179.696, 0.5614780
1180.178, 0.3310280
1180.661, 2.8416000E-02
1181.143, 0.1046160
1181.625, 0.5282500
1182.107, 0.6870270
1182.589, 0.5075210
1183.071, 0.3174000
1183.553, 0.2619020
1184.035, 0.2621750
1184.518, 0.2918490
1185.000, 0.3339920
1185.482, 0.4202140
1185.964, 0.4765470
1186.446, 0.3740670
1186.928, 0.1940960
1187.410, 0.1430530
1187.892, 0.2586500
1188.375, 0.3450660
1188.857, 0.3313140
1189.339, 0.3221990
1189.821, 0.3979450
1190.303, 0.4121860
1190.785, 0.1887950
1191.267, 4.8656002E-02
1191.749, 3.9700001E-02
1192.231, 0.1552830
1192.714, 0.3106800
1193.196, 0.4415130
1193.678, 0.4675690
1194.160, 0.3357620
1194.642, 0.2474580
1195.124, 0.2564140
1195.606, 0.2710590
1196.088, 0.2348730
1196.570, 0.1838820
1197.053, 0.1502840
1197.535, 0.1587260
1198.017, 0.3847830
1198.499, 0.8175030
1198.981, 1.019415
1199.463, 0.9702510
1199.945, 0.9097250
1200.427, 0.9010750
1200.910, 0.8394360
1201.392, 0.6276400
1201.874, 0.3978500
1202.356, 0.3408360
1202.838, 0.3975960
1203.320, 0.5201210
1203.802, 0.6407320
1204.284, 0.5458090
1204.766, 0.2950920
1205.249, 0.1487330
1205.731, 0.1811940
1206.213, 0.2639240
1206.695, 0.3330460
1207.177, 0.3855550
1207.659, 0.4340900
1208.141, 0.4386710
1208.623, 0.2966630
1209.105, 0.1502020
1209.588, 0.2454970
1210.070, 0.4986820
1210.552, 0.6052630
1211.034, 0.4888570
1211.516, 0.3566280
1211.998, 0.2177930
1212.480, 0.1180650
1212.962, 8.6701997E-02
1213.445, 8.5182004E-02
1213.927, 8.5038997E-02
1214.409, 0.1091670
1214.891, 0.2104340
1215.373, 0.3503320
1215.855, 0.4010560
1216.337, 0.3299770
1216.819, 0.3132920
1217.302, 0.3703230
1217.784, 0.3959960
1218.266, 0.3661590
1218.748, 0.3095590
1219.230, 0.2352890
1219.712, 0.1823310
1220.194, 0.2153110
1220.676, 0.2880540
1221.158, 0.2177790
1221.641, 4.6804000E-02
1222.123, 1.2012000E-02
1222.605, 2.8385000E-02
1223.087, 0.2232510
1223.569, 0.5648330
1224.051, 0.7242830
1224.533, 0.5110150
1225.015, 0.2619400
1225.497, 0.3747200
1225.980, 0.5844800
1226.462, 0.6052150
1226.944, 0.5084000
1227.426, 0.3492970
1227.908, 0.1736550
1228.390, 4.1503999E-02
1228.872, 3.4164000E-02
1229.354, 6.1792001E-02
1229.837, 6.5711997E-02
1230.319, 2.4557000E-02
1230.801, 0.3174150
1231.283, 0.5936830
1231.765, 0.8296910
1232.247, 0.9425030
1232.729, 0.7795030
1233.211, 0.4986210
1233.693, 0.3229500
1234.176, 0.2721650
1234.658, 0.4128970
1235.140, 0.9008060
1235.622, 1.070110
1236.104, 0.8141270
1236.586, 0.5046770
1237.068, 0.2152460
1237.550, 5.5712000E-02
1238.032, 0.1212080
1238.515, 0.2777670
1238.997, 0.2766420
1239.479, 0.1798190
1239.961, 0.2080330
1240.443, 0.3185830
1240.925, 0.3802870
1241.407, 0.3909870
1241.889, 0.4103970
1242.372, 0.4510970
1242.854, 0.4272770
1243.336, 0.2588480
1243.818, 0.1468940
1244.300, 0.3757440
1244.782, 0.6481820
1245.264, 0.6640700
1245.746, 0.5646230
1246.229, 0.4859600
1246.711, 0.4593490
1247.193, 0.5180170
1247.675, 0.6506980
1248.157, 0.7132230
1248.639, 0.6198140
1249.121, 0.5742970
1249.603, 0.6762870
1250.085, 0.7349830
1250.568, 0.6479510
1251.050, 0.5697020
1251.532, 0.6044120
1252.014, 0.7013970
1252.496, 0.7951970
1252.978, 0.8750760
1253.460, 0.8177640
1253.942, 0.6010070
1254.424, 0.5132690
1254.907, 0.6051850
1255.389, 0.7091390
1255.871, 0.7705140
1256.353, 0.7030070
1256.835, 0.4355890
1257.317, 0.2109130
1257.799, 0.3970600
1258.281, 0.7481230
1258.764, 0.8801650
1259.246, 0.8704890
1259.728, 0.9033280
1260.210, 0.9399810
1260.692, 0.7920570
1261.174, 0.4909290
1261.656, 0.3637770
1262.138, 0.5806770
1262.620, 0.7413460
1263.103, 0.6244350
1263.585, 0.4534550
1264.067, 0.1837370
1264.549, 4.9015000E-02
1265.031, 0.3652900
1265.513, 0.8107170
1265.995, 0.9182510
1266.477, 0.7471730
1266.959, 0.6220660
1267.442, 0.5453640
1267.924, 0.5156420
1268.406, 0.5616130
1268.888, 0.4982380
1269.370, 0.2680910
1269.852, 0.1045090
1270.334, 0.1260280
1270.816, 0.2563820
1271.299, 0.4328500
1271.781, 0.6065900
1272.263, 0.6706490
1272.745, 0.6604600
1273.227, 0.6762310
1273.709, 0.6819610
1274.191, 0.5120510
1274.673, 0.2352710
1275.156, 0.1908990
1275.638, 0.4707600
1276.120, 0.6520860
1276.602, 0.4132330
1277.084, 0.1815660
1277.566, 0.1555980
1278.048, 0.2167280
1278.530, 0.3594020
1279.012, 0.4982010
1279.495, 0.5835060
1279.977, 0.5879630
1280.459, 0.4274120
1280.941, 9.4938003E-02
1281.423, 5.2094001E-02
1281.905, 3.5475001E-02
1282.387, 0.1552980
1282.869, 0.3100240
1283.351, 0.4002590
1283.834, 0.3914050
1284.316, 0.2846410
1284.798, 0.3389190
1285.280, 0.3521600
1285.762, 0.2350850
1286.244, 0.0000000E+00
##END=



