##NAMES=Cafetite
##RRUFFID=R060872
##IDEAL CHEMISTRY=CaTi_2_O_5_&#183;H_2_O
##LOCALITY=Magnet Cove, Arkansas, USA
##OWNER=RRUFF
##SOURCE=Michael Scott
##DESCRIPTION=Pale brown colored pseudohexagonal plates, associated with pectolite and albite.
##STATUS=The identification of this mineral has been confirmed by single-crystal X-ray diffraction.
##URL=rruff.info/R060872
179.3814, 0.0000000E+00
179.8635, 12.23438
180.3457, 45.92969
180.8278, 65.16992
181.3099, 65.13232
181.7920, 68.07666
182.2741, 93.49951
182.7562, 137.5991
183.2384, 181.3887
183.7205, 216.5967
184.2026, 239.4561
184.6847, 242.5435
185.1668, 223.6333
185.6489, 224.8286
186.1311, 256.1562
186.6132, 271.5142
187.0953, 251.4277
187.5774, 245.1021
188.0595, 240.0835
188.5416, 211.9634
189.0238, 152.4897
189.5059, 96.36230
189.9880, 68.20605
190.4701, 55.06055
190.9522, 40.45947
191.4343, 16.17480
191.9165, 9.680176
192.3986, 26.23730
192.8807, 33.86230
193.3628, 30.54004
193.8449, 11.32568
194.3270, 18.83545
194.8092, 55.70996
195.2913, 101.1904
195.7734, 150.3008
196.2555, 197.1509
196.7376, 247.7217
197.2197, 299.3374
197.7019, 347.2388
198.1840, 391.3008
198.6661, 435.8604
199.1482, 485.8877
199.6303, 535.7979
200.1124, 578.4751
200.5946, 614.3325
201.0767, 641.6440
201.5588, 656.6968
202.0409, 663.1240
202.5230, 663.8145
203.0051, 660.0503
203.4873, 649.8643
203.9694, 629.6646
204.4515, 598.4482
204.9336, 562.6060
205.4157, 519.7202
205.8978, 475.4385
206.3800, 436.8711
206.8621, 407.4355
207.3442, 380.1470
207.8263, 345.6528
208.3084, 302.8374
208.7905, 262.0015
209.2727, 229.0762
209.7548, 199.6909
210.2369, 169.6514
210.7190, 138.4834
211.2011, 106.2061
211.6832, 71.86475
212.1654, 35.27734
212.6475, 1.047852
213.1296, 32.28564
213.6117, 59.83740
214.0938, 76.33691
214.5759, 80.21289
215.0581, 75.93262
215.5402, 65.82812
216.0223, 49.82129
216.5044, 32.30078
216.9865, 15.30908
217.4686, 3.572754
217.9508, 26.14648
218.4329, 52.30127
218.9150, 83.56689
219.3971, 117.1440
219.8792, 154.2793
220.3613, 210.0386
220.8435, 298.5303
221.3256, 399.5122
221.8077, 491.4731
222.2898, 573.8936
222.7719, 651.6069
223.2540, 726.0342
223.7362, 797.8076
224.2183, 870.3945
224.7004, 946.5786
225.1825, 1020.451
225.6646, 1081.513
226.1467, 1129.332
226.6289, 1184.212
227.1110, 1271.332
227.5931, 1376.661
228.0752, 1448.883
228.5573, 1464.590
229.0394, 1467.036
229.5216, 1501.533
230.0037, 1565.265
230.4858, 1631.985
230.9679, 1692.057
231.4500, 1746.771
231.9321, 1798.340
232.4143, 1846.316
232.8964, 1892.914
233.3785, 1936.128
233.8606, 1977.513
234.3427, 2030.706
234.8248, 2107.576
235.3070, 2196.768
235.7891, 2279.797
236.2712, 2354.438
236.7533, 2427.920
237.2354, 2501.722
237.7175, 2578.313
238.1997, 2667.352
238.6818, 2779.320
239.1639, 2900.908
239.6460, 3020.895
240.1281, 3139.391
240.6102, 3249.153
241.0924, 3340.527
241.5745, 3417.588
242.0566, 3500.696
242.5387, 3603.748
243.0208, 3704.474
243.5029, 3784.045
243.9851, 3843.161
244.4672, 3895.412
244.9493, 3950.338
245.4314, 4004.306
245.9135, 4044.242
246.3956, 4056.855
246.8778, 4068.415
247.3599, 4094.580
247.8420, 4132.187
248.3241, 4171.257
248.8062, 4210.427
249.2883, 4243.578
249.7705, 4251.194
250.2526, 4220.335
250.7347, 4186.296
251.2168, 4165.139
251.6989, 4150.931
252.1810, 4128.080
252.6632, 4086.457
253.1453, 4035.332
253.6274, 3999.419
254.1095, 4000.659
254.5916, 3976.848
255.0737, 3912.343
255.5559, 3817.571
256.0380, 3700.381
256.5201, 3562.618
257.0022, 3417.685
257.4843, 3287.019
257.9665, 3183.333
258.4486, 3070.807
258.9307, 2941.165
259.4128, 2806.614
259.8949, 2678.974
260.3770, 2560.041
260.8592, 2442.437
261.3413, 2313.875
261.8234, 2162.285
262.3055, 2043.878
262.7876, 1977.645
263.2697, 1924.957
263.7519, 1863.409
264.2340, 1792.002
264.7161, 1720.602
265.1982, 1658.177
265.6803, 1604.486
266.1624, 1560.623
266.6446, 1524.027
267.1267, 1498.048
267.6088, 1490.673
268.0909, 1495.356
268.5730, 1496.060
269.0551, 1479.152
269.5373, 1448.624
270.0194, 1446.695
270.5015, 1506.715
270.9836, 1561.616
271.4657, 1592.324
271.9478, 1613.145
272.4300, 1645.464
272.9121, 1700.865
273.3942, 1772.635
273.8763, 1842.317
274.3584, 1909.648
274.8405, 1973.579
275.3227, 2026.103
275.8048, 2078.748
276.2869, 2146.511
276.7690, 2233.762
277.2511, 2325.445
277.7332, 2396.009
278.2154, 2438.278
278.6975, 2480.628
279.1796, 2519.063
279.6617, 2563.958
280.1438, 2626.577
280.6259, 2706.813
281.1081, 2788.340
281.5902, 2862.024
282.0723, 2930.001
282.5544, 2966.671
283.0365, 2938.882
283.5186, 2907.089
284.0008, 2908.994
284.4829, 2938.784
284.9650, 2966.357
285.4471, 2973.000
285.9292, 2960.405
286.4113, 2937.020
286.8935, 2901.080
287.3756, 2859.010
287.8577, 2810.640
288.3398, 2759.499
288.8219, 2712.708
289.3040, 2676.141
289.7862, 2643.812
290.2683, 2606.854
290.7504, 2565.483
291.2325, 2519.503
291.7146, 2465.997
292.1967, 2408.674
292.6789, 2352.240
293.1610, 2293.119
293.6431, 2242.115
294.1252, 2209.597
294.6073, 2193.884
295.0894, 2185.001
295.5716, 2181.127
296.0537, 2180.091
296.5358, 2177.402
297.0179, 2171.779
297.5000, 2168.028
297.9821, 2170.093
298.4643, 2174.902
298.9464, 2175.517
299.4285, 2169.202
299.9106, 2162.873
300.3927, 2167.876
300.8748, 2188.195
301.3570, 2199.532
301.8391, 2196.458
302.3212, 2185.196
302.8033, 2170.362
303.2854, 2152.669
303.7675, 2132.641
304.2497, 2111.782
304.7318, 2090.752
305.2139, 2055.805
305.6960, 2001.886
306.1781, 1941.227
306.6602, 1873.013
307.1424, 1802.431
307.6245, 1739.572
308.1066, 1691.202
308.5887, 1655.200
309.0708, 1619.433
309.5529, 1596.209
310.0351, 1558.509
310.5172, 1494.727
310.9993, 1418.202
311.4814, 1341.391
311.9635, 1269.648
312.4456, 1205.589
312.9278, 1156.152
313.4099, 1135.059
313.8920, 1101.594
314.3741, 1047.652
314.8562, 985.6509
315.3383, 917.9556
315.8205, 849.2871
316.3026, 791.8857
316.7847, 761.3774
317.2668, 760.6948
317.7489, 754.0322
318.2310, 735.6382
318.7132, 719.9326
319.1953, 715.2349
319.6774, 715.4136
320.1595, 707.2710
320.6416, 677.9487
321.1237, 637.5073
321.6059, 616.1519
322.0880, 619.3960
322.5701, 626.2515
323.0522, 630.3599
323.5343, 629.5308
324.0164, 619.5776
324.4986, 595.4478
324.9807, 569.6333
325.4628, 555.2925
325.9449, 551.7646
326.4270, 551.7451
326.9091, 558.5859
327.3913, 563.6230
327.8734, 552.6973
328.3555, 523.3818
328.8376, 496.2788
329.3197, 483.2881
329.8018, 477.9067
330.2840, 469.2310
330.7661, 455.5854
331.2482, 435.1655
331.7303, 403.7061
332.2124, 359.9233
332.6945, 319.6201
333.1767, 284.0356
333.6588, 252.2017
334.1409, 225.4858
334.6230, 202.6235
335.1051, 177.4878
335.5872, 144.5591
336.0694, 105.2393
336.5515, 73.57471
337.0336, 52.58057
337.5157, 34.65234
337.9978, 20.63428
338.4799, 7.704590
338.9621, 9.819336
339.4442, 34.33447
339.9263, 60.06494
340.4084, 74.27930
340.8905, 70.28076
341.3727, 66.39160
341.8548, 66.82910
342.3369, 64.94434
342.8190, 54.65869
343.3011, 36.22217
343.7832, 15.95703
344.2654, 0.7133790
344.7475, 9.001465
345.2296, 21.69336
345.7117, 35.31348
346.1938, 54.81494
346.6759, 87.55029
347.1581, 126.8530
347.6402, 159.2026
348.1223, 175.7363
348.6044, 183.1665
349.0865, 195.2114
349.5686, 212.1304
350.0508, 232.8506
350.5329, 259.6235
351.0150, 288.8979
351.4971, 317.7017
351.9792, 346.2817
352.4613, 371.4526
352.9435, 389.9316
353.4256, 402.7388
353.9077, 413.5688
354.3898, 422.4409
354.8719, 431.2266
355.3540, 442.7100
355.8362, 456.7134
356.3183, 470.2803
356.8004, 487.6704
357.2825, 501.3232
357.7646, 500.9824
358.2467, 486.9634
358.7289, 471.2397
359.2110, 463.4771
359.6931, 462.4795
360.1752, 450.9736
360.6573, 418.7446
361.1394, 389.4565
361.6216, 373.9272
362.1037, 365.4980
362.5858, 353.4814
363.0679, 333.4111
363.5500, 307.3579
364.0321, 278.8350
364.5143, 241.0820
364.9964, 212.8340
365.4785, 200.1318
365.9606, 190.9688
366.4427, 177.0332
366.9248, 158.0820
367.4070, 139.4297
367.8891, 126.6401
368.3712, 119.5112
368.8533, 110.9023
369.3354, 104.2905
369.8175, 90.78760
370.2997, 60.73193
370.7818, 23.79932
371.2639, 3.690674
371.7460, 12.52490
372.2281, 14.06567
372.7102, 28.02686
373.1924, 56.30908
373.6745, 75.84521
374.1566, 70.47876
374.6387, 60.07153
375.1208, 71.22290
375.6029, 108.1677
376.0851, 136.3823
376.5672, 130.4016
377.0493, 105.4495
377.5314, 90.60059
378.0135, 90.76440
378.4956, 97.24536
378.9778, 105.0562
379.4599, 113.6638
379.9420, 113.4419
380.4241, 96.81934
380.9062, 78.22803
381.3883, 66.40552
381.8705, 59.26660
382.3526, 49.81836
382.8347, 34.07300
383.3168, 15.56177
383.7989, 4.493164
384.2810, 15.19336
384.7632, 13.94946
385.2453, 11.47168
385.7274, 41.19824
386.2095, 57.88696
386.6916, 59.67773
387.1737, 57.23877
387.6559, 61.28931
388.1380, 72.13306
388.6201, 84.80713
389.1022, 97.72217
389.5843, 114.6697
390.0664, 140.4504
390.5486, 170.4004
391.0307, 195.6565
391.5128, 210.5706
391.9949, 222.4370
392.4770, 245.6047
392.9591, 281.8140
393.4413, 313.2656
393.9234, 334.7449
394.4055, 348.2551
394.8876, 352.2080
395.3697, 344.7742
395.8518, 348.5183
396.3340, 384.9951
396.8161, 437.0029
397.2982, 472.3081
397.7803, 485.5984
398.2624, 494.7966
398.7445, 516.3110
399.2267, 549.3169
399.7088, 573.0703
400.1909, 578.3425
400.6730, 585.0620
401.1551, 598.5466
401.6372, 620.5410
402.1194, 656.8477
402.6015, 710.1340
403.0836, 769.4580
403.5657, 811.4436
404.0478, 820.9316
404.5299, 840.9058
405.0121, 875.2231
405.4942, 915.6157
405.9763, 957.0527
406.4584, 999.7368
406.9405, 1045.966
407.4226, 1097.594
407.9048, 1154.544
408.3869, 1217.531
408.8690, 1293.634
409.3511, 1362.572
409.8332, 1408.699
410.3153, 1447.758
410.7975, 1497.638
411.2796, 1563.451
411.7617, 1638.460
412.2438, 1715.204
412.7259, 1794.873
413.2080, 1887.964
413.6902, 2002.427
414.1723, 2118.595
414.6544, 2212.653
415.1365, 2287.257
415.6186, 2359.325
416.1007, 2432.841
416.5829, 2504.633
417.0650, 2566.772
417.5471, 2623.308
418.0292, 2694.222
418.5113, 2794.390
418.9934, 2911.072
419.4756, 3000.414
419.9577, 3035.573
420.4398, 3077.828
420.9219, 3139.279
421.4040, 3203.319
421.8861, 3257.035
422.3683, 3297.779
422.8504, 3328.061
423.3325, 3350.569
423.8146, 3365.309
424.2967, 3370.450
424.7788, 3365.499
425.2610, 3350.460
425.7431, 3315.841
426.2252, 3274.733
426.7073, 3249.684
427.1894, 3254.063
427.6715, 3260.343
428.1537, 3233.626
428.6358, 3174.657
429.1179, 3103.783
429.6000, 3017.269
430.0821, 2935.554
430.5642, 2883.670
431.0464, 2858.672
431.5285, 2832.093
432.0106, 2802.588
432.4927, 2766.615
432.9748, 2710.647
433.4569, 2638.014
433.9391, 2577.576
434.4212, 2550.648
434.9033, 2549.312
435.3854, 2537.326
435.8675, 2493.626
436.3496, 2464.297
436.8318, 2465.025
437.3139, 2473.836
437.7960, 2471.108
438.2781, 2455.009
438.7602, 2436.300
439.2423, 2424.343
439.7245, 2418.843
440.2066, 2420.744
440.6887, 2435.131
441.1708, 2451.320
441.6529, 2467.825
442.1350, 2480.996
442.6172, 2488.437
443.0993, 2490.552
443.5814, 2487.574
444.0635, 2477.689
444.5456, 2461.705
445.0277, 2447.556
445.5099, 2439.650
445.9920, 2428.989
446.4741, 2399.309
446.9562, 2352.564
447.4383, 2320.894
447.9204, 2332.225
448.4026, 2341.583
448.8847, 2308.431
449.3668, 2242.601
449.8489, 2181.019
450.3310, 2142.458
450.8131, 2119.308
451.2953, 2091.831
451.7774, 2063.997
452.2595, 2024.867
452.7416, 1962.883
453.2237, 1899.788
453.7059, 1847.954
454.1880, 1809.047
454.6701, 1779.604
455.1522, 1759.417
455.6343, 1745.833
456.1165, 1725.625
456.5986, 1695.999
457.0807, 1665.862
457.5628, 1640.524
458.0449, 1615.076
458.5270, 1582.441
459.0092, 1539.787
459.4913, 1501.070
459.9734, 1476.178
460.4555, 1461.700
460.9376, 1452.347
461.4197, 1448.096
461.9019, 1440.747
462.3840, 1423.951
462.8661, 1397.639
463.3482, 1365.807
463.8303, 1318.773
464.3124, 1277.828
464.7946, 1251.029
465.2767, 1234.843
465.7588, 1227.067
466.2409, 1226.240
466.7230, 1225.029
467.2051, 1212.503
467.6873, 1186.169
468.1694, 1160.570
468.6515, 1135.778
469.1336, 1111.792
469.6157, 1086.171
470.0978, 1061.703
470.5800, 1042.995
471.0621, 1032.212
471.5442, 1027.550
472.0263, 1032.205
472.5084, 1044.625
472.9905, 1038.974
473.4727, 1000.297
473.9548, 954.6104
474.4369, 938.0564
474.9190, 948.6997
475.4011, 949.3198
475.8832, 918.6663
476.3654, 888.1060
476.8475, 882.6465
477.3296, 898.0747
477.8117, 919.4570
478.2938, 940.1919
478.7759, 957.5796
479.2581, 964.1238
479.7402, 951.5918
480.2223, 941.5383
480.7044, 932.2173
481.1865, 926.0918
481.6686, 926.8086
482.1508, 932.7227
482.6329, 938.5840
483.1150, 942.0320
483.5971, 942.2410
484.0792, 935.3389
484.5613, 919.8550
485.0435, 906.1118
485.5256, 895.5859
486.0077, 890.9565
486.4898, 896.2788
486.9719, 912.2852
487.4540, 924.4243
487.9362, 930.2720
488.4183, 929.2690
488.9004, 915.4343
489.3825, 889.7395
489.8646, 865.3093
490.3467, 851.9795
490.8289, 848.9236
491.3110, 846.9045
491.7931, 851.8601
492.2752, 849.0039
492.7573, 833.7681
493.2394, 811.7603
493.7216, 784.7839
494.2037, 755.0100
494.6858, 728.3608
495.1679, 711.0815
495.6500, 702.2358
496.1321, 694.0120
496.6143, 687.1125
497.0964, 676.1670
497.5785, 654.5771
498.0606, 629.6548
498.5427, 611.8284
499.0248, 603.5071
499.5070, 593.9253
499.9891, 578.9736
500.4712, 559.7727
500.9533, 535.9290
501.4354, 508.3501
501.9175, 483.3328
502.3997, 464.8435
502.8818, 451.4475
503.3639, 439.7429
503.8460, 429.1631
504.3281, 422.3230
504.8102, 424.9321
505.2924, 427.6389
505.7745, 421.9348
506.2566, 407.3508
506.7387, 389.8691
507.2208, 373.1008
507.7029, 357.3237
508.1851, 345.7268
508.6672, 340.9568
509.1493, 332.2935
509.6314, 307.9585
510.1135, 281.5588
510.5956, 273.7041
511.0778, 290.1765
511.5599, 298.9158
512.0420, 279.0891
512.5241, 246.3411
513.0062, 219.0933
513.4883, 199.6003
513.9705, 185.5693
514.4526, 175.8579
514.9347, 170.4021
515.4168, 168.9551
515.8989, 178.6223
516.3810, 182.7542
516.8632, 177.8264
517.3453, 168.7949
517.8274, 160.1057
518.3095, 151.7805
518.7916, 139.8540
519.2737, 119.2593
519.7559, 93.33130
520.2380, 71.18652
520.7201, 51.48486
521.2022, 43.61963
521.6843, 60.98901
522.1664, 85.86035
522.6486, 89.98950
523.1307, 69.30127
523.6128, 49.77734
524.0949, 39.60254
524.5770, 34.60498
525.0591, 31.99536
525.5413, 30.88501
526.0234, 29.61865
526.5055, 27.19702
526.9876, 23.76416
527.4697, 19.59790
527.9518, 14.66235
528.4340, 9.186523
528.9161, 1.877441
529.3982, 9.224609
529.8803, 3.182373
530.3624, 12.83691
530.8445, 25.12280
531.3267, 24.62964
531.8088, 16.62500
532.2909, 10.20044
532.7730, 5.315430
533.2551, 1.274658
533.7372, 11.32178
534.2194, 22.53442
534.7015, 31.59766
535.1836, 38.43896
535.6657, 44.52930
536.1478, 51.97559
536.6299, 56.98657
537.1121, 57.55249
537.5942, 53.76440
538.0763, 45.25244
538.5584, 31.77832
539.0405, 16.43628
539.5226, 4.284424
540.0048, 4.916016
540.4869, 9.691162
540.9690, 7.700928
541.4511, 3.620605
541.9332, 5.9813999E-02
542.4153, 3.723633
542.8975, 9.878906
543.3796, 21.36035
543.8617, 31.29590
544.3438, 30.75635
544.8259, 24.03491
545.3080, 25.50610
545.7902, 39.15601
546.2723, 51.52490
546.7544, 47.33618
547.2365, 25.49512
547.7186, 16.08032
548.2007, 28.36060
548.6829, 40.52783
549.1650, 51.09985
549.6471, 57.07910
550.1292, 53.85059
550.6113, 41.08813
551.0934, 25.63696
551.5756, 11.27075
552.0577, 0.7465820
552.5398, 0.9780270
553.0219, 14.29932
553.5040, 28.33984
553.9861, 34.11377
554.4683, 32.78882
554.9504, 27.12256
555.4325, 15.36914
555.9146, 4.596191
556.3967, 4.679932
556.8788, 10.88330
557.3610, 11.89990
557.8431, 8.172852
558.3252, 1.137451
558.8073, 8.997070
559.2894, 19.43530
559.7715, 20.98267
560.2537, 9.595703
560.7358, 0.7307130
561.2179, 2.510010
561.7000, 8.008301
562.1821, 31.89478
562.6642, 66.77051
563.1464, 86.28687
563.6285, 68.58350
564.1106, 41.63989
564.5927, 35.22144
565.0748, 45.62158
565.5569, 61.96582
566.0391, 82.95923
566.5212, 96.18237
567.0033, 83.01245
567.4854, 36.81396
567.9675, 16.99072
568.4496, 46.85205
568.9318, 72.33911
569.4139, 69.80933
569.8960, 57.56763
570.3781, 61.27075
570.8602, 86.93799
571.3423, 115.1555
571.8245, 122.6921
572.3066, 114.9434
572.7887, 121.8911
573.2708, 148.9170
573.7529, 169.5073
574.2350, 164.4775
574.7172, 146.9976
575.1993, 147.4697
575.6814, 172.7993
576.1635, 195.9963
576.6456, 209.1934
577.1277, 219.2561
577.6099, 232.4102
578.0920, 247.9375
578.5741, 260.5774
579.0562, 266.6475
579.5383, 271.2019
580.0204, 287.9290
580.5026, 321.5051
580.9847, 346.2141
581.4668, 351.8960
581.9489, 355.6594
582.4310, 369.5405
582.9131, 390.7344
583.3953, 410.3435
583.8774, 424.7031
584.3595, 438.5989
584.8416, 453.7500
585.3237, 471.1365
585.8058, 494.5352
586.2880, 524.1919
586.7701, 552.4631
587.2522, 570.7454
587.7343, 580.2004
588.2164, 598.5332
588.6985, 632.4055
589.1807, 665.1772
589.6628, 693.3430
590.1449, 719.4688
590.6270, 744.1885
591.1091, 768.2454
591.5912, 796.1453
592.0734, 835.7615
592.5555, 877.8601
593.0376, 907.7314
593.5197, 926.7527
594.0018, 946.3831
594.4839, 972.5408
594.9661, 996.6238
595.4482, 1002.083
595.9303, 977.4194
596.4124, 980.0332
596.8945, 1033.231
597.3766, 1084.838
597.8588, 1113.642
598.3409, 1128.393
598.8230, 1143.442
599.3051, 1163.406
599.7872, 1179.929
600.2693, 1177.966
600.7515, 1164.716
601.2336, 1171.666
601.7157, 1203.743
602.1978, 1235.426
602.6799, 1253.808
603.1620, 1260.789
603.6442, 1260.982
604.1263, 1249.351
604.6084, 1243.654
605.0905, 1252.497
605.5726, 1263.028
606.0547, 1264.250
606.5369, 1258.869
607.0190, 1256.563
607.5011, 1263.180
607.9832, 1271.409
608.4653, 1264.374
608.9474, 1242.519
609.4296, 1238.545
609.9117, 1262.070
610.3938, 1290.121
610.8759, 1307.266
611.3580, 1314.770
611.8401, 1319.223
612.3223, 1314.604
612.8044, 1317.176
613.2865, 1339.180
613.7686, 1366.232
614.2507, 1382.273
614.7328, 1387.452
615.2150, 1393.734
615.6971, 1410.520
616.1792, 1431.849
616.6613, 1439.680
617.1434, 1430.933
617.6255, 1428.250
618.1077, 1442.351
618.5898, 1457.113
619.0719, 1453.150
619.5540, 1435.972
620.0361, 1429.706
620.5182, 1446.255
621.0004, 1464.712
621.4825, 1480.207
621.9646, 1488.862
622.4467, 1482.798
622.9288, 1462.532
623.4109, 1439.176
623.8931, 1421.643
624.3752, 1409.609
624.8573, 1402.413
625.3394, 1402.156
625.8215, 1399.354
626.3036, 1398.128
626.7858, 1388.484
627.2679, 1357.051
627.7500, 1306.491
628.2321, 1263.172
628.7142, 1232.831
629.1964, 1212.864
629.6785, 1210.490
630.1606, 1214.486
630.6427, 1201.918
631.1248, 1168.318
631.6069, 1132.866
632.0891, 1116.948
632.5712, 1118.513
633.0533, 1113.833
633.5354, 1103.444
634.0175, 1085.175
634.4996, 1048.311
634.9818, 1010.527
635.4639, 990.1057
635.9460, 987.0757
636.4281, 982.3423
636.9102, 966.2334
637.3923, 949.5781
637.8745, 943.8096
638.3566, 943.0945
638.8387, 934.4749
639.3208, 914.1567
639.8029, 888.4944
640.2850, 864.4077
640.7672, 841.8025
641.2493, 820.2195
641.7314, 797.7178
642.2135, 782.0959
642.6956, 775.8589
643.1777, 776.8406
643.6599, 789.7415
644.1420, 814.9031
644.6241, 821.4897
645.1062, 778.9590
645.5883, 732.6152
646.0704, 722.3740
646.5526, 734.4058
647.0347, 737.1880
647.5168, 720.5896
647.9989, 695.7170
648.4810, 674.4182
648.9631, 656.5938
649.4453, 645.8357
649.9274, 645.1150
650.4095, 644.4888
650.8916, 641.6086
651.3737, 635.8899
651.8558, 625.4548
652.3380, 609.9771
652.8201, 596.6045
653.3022, 586.0942
653.7843, 580.6526
654.2664, 586.0398
654.7485, 596.7573
655.2307, 602.2764
655.7128, 599.2883
656.1949, 591.6860
656.6770, 583.4272
657.1591, 574.5181
657.6412, 563.9080
658.1234, 548.5046
658.6055, 541.0386
659.0876, 553.1699
659.5697, 569.7017
660.0518, 572.7048
660.5339, 562.1052
661.0161, 543.9644
661.4982, 502.7654
661.9803, 471.4319
662.4624, 484.8572
662.9445, 516.2949
663.4266, 516.3364
663.9088, 474.8503
664.3909, 429.9746
664.8730, 423.9558
665.3551, 448.8267
665.8372, 462.1785
666.3193, 463.3279
666.8015, 455.8584
667.2836, 436.5696
667.7657, 414.2556
668.2478, 400.3462
668.7299, 394.9636
669.2120, 389.3870
669.6942, 388.5642
670.1763, 381.0442
670.6584, 349.1907
671.1405, 314.3433
671.6226, 308.5798
672.1047, 334.1875
672.5869, 360.4407
673.0690, 360.5881
673.5511, 342.7500
674.0332, 327.3052
674.5153, 314.2427
674.9974, 301.8389
675.4796, 289.3508
675.9617, 278.1128
676.4438, 269.9451
676.9259, 264.9724
677.4080, 259.2854
677.8901, 252.1724
678.3723, 245.3306
678.8544, 242.8284
679.3365, 238.2410
679.8186, 222.7310
680.3007, 198.0054
680.7828, 175.8877
681.2650, 163.0955
681.7471, 157.8123
682.2292, 162.1924
682.7113, 172.2527
683.1934, 175.8691
683.6755, 170.1663
684.1577, 158.3430
684.6398, 142.3708
685.1219, 122.7878
685.6040, 105.1624
686.0861, 86.98853
686.5682, 73.46973
687.0504, 71.69995
687.5325, 71.60278
688.0146, 60.86719
688.4967, 43.60889
688.9788, 37.28857
689.4609, 54.66113
689.9431, 73.52612
690.4252, 75.72388
690.9073, 65.62158
691.3894, 51.39551
691.8715, 35.32520
692.3536, 23.90845
692.8358, 22.46582
693.3179, 26.74292
693.8000, 24.09497
694.2821, 9.787598
694.7642, 7.600098
695.2463, 31.36816
695.7285, 50.91553
696.2106, 41.74902
696.6927, 17.91772
697.1748, 8.362061
697.6569, 24.66943
698.1390, 34.00732
698.6212, 16.22681
699.1033, 8.467041
699.5854, 22.59448
700.0675, 26.52539
700.5496, 25.44458
701.0317, 21.62671
701.5139, 18.29639
701.9960, 22.34155
702.4781, 32.83740
702.9602, 34.70752
703.4423, 25.64673
703.9244, 15.01636
704.4066, 5.131836
704.8887, 2.039551
705.3708, 2.166016
705.8529, 6.998047
706.3350, 14.40576
706.8171, 19.22437
707.2993, 22.68945
707.7814, 26.80151
708.2635, 29.18311
708.7456, 26.16455
709.2277, 17.18213
709.7098, 5.897949
710.1920, 6.694336
710.6741, 18.77026
711.1562, 21.37158
711.6383, 18.16309
712.1204, 37.33081
712.6025, 90.49756
713.0847, 142.0503
713.5668, 149.6724
714.0489, 114.5222
714.5310, 91.17432
715.0131, 83.26440
715.4952, 81.66626
715.9774, 88.02466
716.4595, 97.19019
716.9416, 105.2781
717.4237, 112.7417
717.9058, 122.6448
718.3879, 138.0662
718.8701, 153.3943
719.3522, 166.1777
719.8343, 176.1904
720.3164, 182.6216
720.7985, 185.7891
721.2806, 186.8215
721.7628, 185.9148
722.2449, 185.5430
722.7270, 193.4426
723.2091, 210.4412
723.6912, 219.4993
724.1733, 217.6189
724.6555, 210.5232
725.1376, 198.9072
725.6197, 185.6357
726.1018, 179.4487
726.5839, 184.6589
727.0660, 186.1094
727.5482, 180.7524
728.0303, 173.0920
728.5124, 165.3743
728.9945, 157.2900
729.4766, 146.8733
729.9587, 133.6462
730.4409, 122.5278
730.9230, 119.0618
731.4051, 119.8354
731.8872, 120.3438
732.3693, 119.7444
732.8514, 113.4082
733.3336, 99.22925
733.8157, 83.66064
734.2978, 75.18481
734.7799, 73.89331
735.2620, 68.43970
735.7441, 53.87061
736.2263, 44.74634
736.7084, 50.35669
737.1905, 58.11670
737.6726, 59.63452
738.1547, 54.63403
738.6368, 43.12939
739.1190, 10.81543
739.6011, 10.87329
740.0832, 2.109619
740.5653, 27.03882
741.0474, 40.56201
741.5295, 39.96436
742.0117, 29.85864
742.4938, 11.30884
742.9759, 8.141602
743.4580, 11.50659
743.9401, 2.710205
744.4222, 12.69312
744.9044, 47.47803
745.3865, 77.19580
745.8686, 84.06958
746.3507, 74.58862
746.8328, 63.32666
747.3149, 51.21997
747.7971, 34.94238
748.2792, 1.849121
748.7613, 20.73413
749.2434, 16.27197
749.7255, 5.2246001E-02
750.2076, 8.993652
750.6898, 7.875977
751.1719, 5.951904
751.6540, 11.98535
752.1361, 15.01880
752.6182, 1.373779
753.1003, 21.30469
753.5825, 37.74243
754.0646, 44.50708
754.5467, 48.15796
755.0288, 54.27026
755.5109, 61.95215
755.9930, 68.29150
756.4752, 73.22803
756.9573, 77.75342
757.4394, 82.18457
757.9215, 86.45239
758.4036, 90.20508
758.8857, 93.85425
759.3679, 98.52686
759.8500, 102.3040
760.3321, 108.7041
760.8142, 116.7573
761.2963, 129.9299
761.7784, 155.4912
762.2606, 185.7012
762.7427, 205.4558
763.2248, 209.1094
763.7069, 212.7849
764.1890, 230.8560
764.6711, 251.7971
765.1533, 257.6794
765.6354, 254.7520
766.1175, 265.9143
766.5996, 298.0078
767.0817, 330.2224
767.5638, 336.1545
768.0460, 321.9500
768.5281, 319.6306
769.0102, 328.8975
769.4923, 355.7642
769.9744, 411.4919
770.4565, 463.4563
770.9387, 475.5735
771.4208, 453.0681
771.9029, 451.5183
772.3850, 493.1472
772.8671, 523.4316
773.3492, 532.2524
773.8314, 534.1831
774.3135, 534.0745
774.7956, 535.1191
775.2777, 542.2256
775.7598, 557.1277
776.2419, 576.8433
776.7241, 602.8105
777.2062, 630.1660
777.6883, 652.0400
778.1704, 669.9993
778.6525, 690.9617
779.1346, 717.2874
779.6168, 742.7861
780.0989, 757.1360
780.5810, 764.1323
781.0631, 787.0032
781.5452, 827.6565
782.0273, 866.6448
782.5095, 900.6035
782.9916, 925.1162
783.4737, 931.9561
783.9558, 923.3914
784.4379, 930.3218
784.9200, 968.8457
785.4022, 999.2415
785.8843, 1016.939
786.3664, 1027.723
786.8485, 1027.295
787.3306, 1023.903
787.8127, 1035.914
788.2949, 1071.287
788.7770, 1108.529
789.2591, 1139.897
789.7412, 1164.932
790.2233, 1180.361
790.7054, 1189.459
791.1876, 1198.435
791.6697, 1209.643
792.1518, 1223.443
792.6339, 1243.502
793.1160, 1265.331
793.5981, 1273.163
794.0803, 1267.783
794.5624, 1262.558
795.0445, 1261.186
795.5266, 1258.964
796.0087, 1250.155
796.4908, 1237.359
796.9730, 1237.801
797.4551, 1263.838
797.9372, 1274.168
798.4193, 1255.480
798.9014, 1230.094
799.3835, 1204.264
799.8657, 1181.986
800.3478, 1172.436
800.8299, 1180.529
801.3120, 1183.318
801.7941, 1168.998
802.2762, 1153.426
802.7584, 1145.723
803.2405, 1142.674
803.7226, 1141.450
804.2047, 1141.091
804.6868, 1137.641
805.1689, 1127.936
805.6511, 1114.008
806.1332, 1091.053
806.6153, 1065.753
807.0974, 1069.459
807.5795, 1104.925
808.0616, 1131.922
808.5438, 1119.884
809.0259, 1089.062
809.5080, 1095.741
809.9901, 1147.001
810.4722, 1166.002
810.9543, 1133.523
811.4365, 1110.377
811.9186, 1132.717
812.4007, 1175.996
812.8828, 1197.318
813.3649, 1188.375
813.8470, 1196.794
814.3292, 1237.389
814.8113, 1275.866
815.2934, 1299.753
815.7755, 1320.331
816.2576, 1349.845
816.7397, 1386.730
817.2219, 1418.446
817.7040, 1434.853
818.1861, 1454.424
818.6682, 1497.064
819.1503, 1543.026
819.6324, 1562.958
820.1146, 1564.440
820.5967, 1577.942
821.0788, 1617.195
821.5609, 1663.938
822.0430, 1692.637
822.5251, 1712.234
823.0073, 1755.224
823.4894, 1818.988
823.9716, 1864.422
824.4537, 1878.042
824.9358, 1879.438
825.4179, 1887.937
825.9000, 1903.046
826.3821, 1924.200
826.8643, 1959.462
827.3464, 1971.137
827.8285, 1941.150
828.3106, 1907.317
828.7927, 1895.420
829.2748, 1898.232
829.7570, 1895.066
830.2391, 1886.281
830.7212, 1871.245
831.2033, 1847.064
831.6854, 1820.255
832.1675, 1791.446
832.6497, 1763.031
833.1318, 1740.761
833.6139, 1723.825
834.0960, 1698.601
834.5781, 1650.128
835.0602, 1600.935
835.5424, 1569.566
836.0245, 1545.326
836.5066, 1512.672
836.9887, 1471.995
837.4708, 1434.232
837.9529, 1405.562
838.4351, 1378.344
838.9172, 1342.927
839.3993, 1300.817
839.8814, 1252.765
840.3635, 1200.679
840.8456, 1157.642
841.3278, 1129.107
841.8099, 1109.033
842.2920, 1092.318
842.7741, 1078.278
843.2562, 1052.927
843.7383, 1012.464
844.2205, 977.2893
844.7026, 954.3650
845.1847, 931.5583
845.6668, 897.9341
846.1489, 857.7170
846.6310, 824.8481
847.1132, 802.4065
847.5953, 781.7256
848.0774, 764.4956
848.5595, 746.9873
849.0416, 726.8606
849.5237, 706.0227
850.0059, 689.8682
850.4880, 677.2739
850.9701, 657.9082
851.4522, 621.0779
851.9343, 586.7432
852.4164, 569.4365
852.8986, 557.2710
853.3807, 535.8203
853.8628, 506.9668
854.3449, 483.0811
854.8270, 469.9673
855.3091, 458.5371
855.7913, 439.7778
856.2734, 417.3884
856.7555, 399.6038
857.2376, 384.2737
857.7197, 360.5522
858.2018, 324.7300
858.6840, 290.7622
859.1661, 275.5349
859.6482, 273.7019
860.1303, 265.6003
860.6124, 250.8904
861.0945, 231.8550
861.5767, 208.3918
862.0588, 187.1033
862.5409, 171.6782
863.0230, 161.2954
863.5051, 153.7820
863.9872, 149.0471
864.4694, 141.4211
864.9515, 128.3577
865.4336, 120.4404
865.9157, 126.9797
866.3978, 133.8662
866.8799, 123.8796
867.3621, 98.90576
867.8442, 79.61475
868.3263, 74.05054
868.8084, 65.50488
869.2905, 43.03979
869.7726, 22.32739
870.2548, 18.29199
870.7369, 24.48169
871.2190, 28.84155
871.7011, 28.75269
872.1832, 24.74487
872.6653, 10.56909
873.1475, 1.288086
873.6296, 1.170776
874.1117, 10.81592
874.5938, 17.20630
875.0759, 19.43140
875.5580, 23.69141
876.0402, 35.12097
876.5223, 43.93567
877.0044, 34.77917
877.4865, 17.54871
877.9686, 12.40344
878.4507, 17.84656
878.9329, 20.44824
879.4150, 15.16077
879.8971, 9.354858
880.3792, 13.04663
880.8613, 22.17041
881.3434, 19.21326
881.8256, 5.254883
882.3077, 0.9240720
882.7898, 11.17896
883.2719, 23.33789
883.7540, 29.38025
884.2361, 28.89331
884.7183, 18.25391
885.2004, 7.239502
885.6825, 12.17297
886.1646, 13.97156
886.6467, 29.96509
887.1288, 12.97119
887.6110, 7.888672
888.0931, 5.667847
888.5752, 50.52283
889.0573, 67.10876
889.5394, 30.25305
890.0215, 4.627075
890.5037, 3.377930
890.9858, 4.213989
891.4679, 7.764648
891.9500, 23.77380
892.4321, 28.52673
892.9142, 19.61743
893.3964, 8.036499
893.8785, 10.86670
894.3606, 23.82947
894.8427, 23.29150
895.3248, 15.48865
895.8069, 2.720703
896.2891, 11.36060
896.7712, 17.14343
897.2533, 7.651245
897.7354, 0.4836430
898.2175, 13.09241
898.6996, 27.21643
899.1818, 24.10059
899.6639, 9.124512
900.1460, 7.967529
900.6281, 23.17310
901.1102, 30.58057
901.5923, 20.99915
902.0745, 8.373535
902.5566, 15.74414
903.0387, 31.76648
903.5208, 29.01208
904.0029, 8.906494
904.4850, 5.183472
904.9672, 2.011353
905.4493, 7.927734
905.9314, 14.07251
906.4135, 15.47070
906.8956, 3.305298
907.3777, 19.78662
907.8599, 26.56409
908.3420, 10.55017
908.8241, 7.223755
909.3062, 10.75964
909.7883, 5.259277
910.2704, 3.974976
910.7526, 7.371948
911.2347, 5.386597
911.7168, 4.005615
912.1989, 9.227661
912.6810, 5.259155
913.1631, 3.107422
913.6453, 12.27405
914.1274, 21.09790
914.6095, 16.14795
915.0916, 12.96838
915.5737, 26.68860
916.0558, 12.51831
916.5380, 2.940796
917.0201, 4.592163
917.5022, 0.5874020
917.9843, 0.7131350
918.4664, 10.94116
918.9485, 13.13818
919.4307, 0.7313230
919.9128, 10.63086
920.3949, 22.42322
920.8770, 28.48169
921.3591, 19.20398
921.8412, 1.246216
922.3234, 6.620972
922.8055, 1.917358
923.2876, 7.473022
923.7697, 5.087036
924.2518, 0.3682860
924.7339, 8.266479
925.2161, 15.05090
925.6982, 9.225220
926.1803, 5.831665
926.6624, 9.142822
927.1445, 16.65356
927.6266, 35.41797
928.1088, 23.03186
928.5909, 3.724854
929.0730, 5.043945
929.5551, 4.523193
930.0372, 2.384766
930.5193, 13.95911
931.0015, 22.81873
931.4836, 23.65027
931.9657, 21.28223
932.4478, 16.88428
932.9299, 13.55859
933.4120, 17.96289
933.8942, 27.29395
934.3763, 31.21826
934.8584, 25.80188
935.3405, 20.25708
935.8226, 23.38989
936.3047, 31.17688
936.7869, 40.64490
937.2690, 49.32947
937.7511, 50.06165
938.2332, 43.41907
938.7153, 39.35693
939.1974, 44.20239
939.6796, 49.39038
940.1617, 40.37317
940.6438, 23.58521
941.1259, 16.90601
941.6080, 19.03015
942.0901, 20.45605
942.5723, 18.77661
943.0544, 18.25623
943.5365, 22.50378
944.0186, 29.83130
944.5007, 36.07166
944.9828, 41.29883
945.4650, 46.39893
945.9471, 51.54370
946.4292, 51.94104
946.9113, 45.64648
947.3934, 36.79077
947.8755, 29.41602
948.3577, 23.63794
948.8398, 19.19983
949.3219, 15.75195
949.8040, 20.51111
950.2861, 36.39111
950.7682, 48.53455
951.2504, 48.40637
951.7325, 43.80847
952.2146, 46.30212
952.6967, 55.35535
953.1788, 61.64893
953.6609, 64.85193
954.1431, 65.90137
954.6252, 64.92981
955.1073, 63.27698
955.5894, 61.00818
956.0715, 57.25647
956.5536, 50.78992
957.0358, 41.78491
957.5179, 39.03430
958.0000, 43.67969
958.4821, 49.58228
958.9642, 55.65613
959.4464, 62.65015
959.9285, 72.70825
960.4106, 83.23914
960.8927, 86.46997
961.3748, 79.04724
961.8569, 76.67004
962.3391, 84.97668
962.8212, 87.63623
963.3033, 74.50122
963.7854, 60.29956
964.2675, 58.81848
964.7496, 67.09265
965.2318, 71.35437
965.7139, 73.60718
966.1960, 72.09973
966.6781, 54.82666
967.1602, 47.69629
967.6423, 71.52930
968.1245, 99.84277
968.6066, 104.9940
969.0887, 90.05237
969.5708, 78.52234
970.0529, 71.54492
970.5350, 67.44458
971.0172, 65.80139
971.4993, 67.81482
971.9814, 76.91150
972.4635, 87.84265
972.9456, 93.70386
973.4277, 94.68469
973.9099, 94.34363
974.3920, 95.12231
974.8741, 90.59656
975.3562, 68.35107
975.8383, 52.53027
976.3204, 64.81726
976.8026, 87.46619
977.2847, 93.36365
977.7668, 80.15503
978.2489, 70.18713
978.7310, 72.12170
979.2131, 74.06519
979.6953, 71.25098
980.1774, 68.85388
980.6595, 69.26953
981.1416, 72.41174
981.6237, 80.78223
982.1058, 94.85583
982.5880, 99.20618
983.0701, 74.53479
983.5522, 58.34033
984.0343, 74.54602
984.5164, 94.33972
984.9985, 96.00598
985.4807, 84.01550
985.9628, 70.85645
986.4449, 58.40967
986.9270, 46.37756
987.4091, 30.63501
987.8912, 21.89453
988.3734, 30.07922
988.8555, 42.59912
989.3376, 48.89270
989.8197, 50.29395
990.3018, 53.22388
990.7839, 59.72876
991.2661, 60.23254
991.7482, 44.25891
992.2303, 29.35986
992.7124, 23.73193
993.1945, 24.02368
993.6766, 26.84009
994.1588, 32.86230
994.6409, 47.90674
995.1230, 75.86560
995.6051, 90.53491
996.0872, 65.56213
996.5693, 41.66614
997.0515, 45.47021
997.5336, 59.31116
998.0157, 66.21082
998.4978, 65.59546
998.9799, 62.38379
999.4620, 57.86768
999.9442, 53.01501
1000.426, 45.88831
1000.908, 41.17786
1001.391, 44.75476
1001.873, 50.11755
1002.355, 48.85217
1002.837, 43.00867
1003.319, 40.49207
1003.801, 43.61462
1004.283, 50.06799
1004.765, 65.51599
1005.247, 76.17126
1005.730, 69.56519
1006.212, 56.85315
1006.694, 49.99451
1007.176, 48.52954
1007.658, 46.12634
1008.140, 40.15283
1008.622, 37.95557
1009.104, 50.61780
1009.586, 58.81458
1010.069, 42.22803
1010.551, 21.68823
1011.033, 22.65173
1011.515, 40.51978
1011.997, 54.76697
1012.479, 59.81628
1012.961, 59.13330
1013.443, 47.76123
1013.926, 38.70081
1014.408, 43.76672
1014.890, 52.26721
1015.372, 50.53101
1015.854, 41.79126
1016.336, 39.83313
1016.818, 49.84949
1017.300, 58.39258
1017.782, 64.79968
1018.265, 63.15100
1018.747, 38.49268
1019.229, 13.59595
1019.711, 17.64819
1020.193, 40.95740
1020.675, 49.32751
1021.157, 31.02917
1021.639, 16.57788
1022.122, 21.20703
1022.604, 26.35803
1023.086, 22.57202
1023.568, 16.14624
1024.050, 11.52380
1024.532, 9.644653
1025.014, 13.34656
1025.496, 26.11060
1025.978, 29.76428
1026.461, 6.735229
1026.943, 9.933838
1027.425, 0.1634520
1027.907, 15.21240
1028.389, 17.83020
1028.871, 11.86902
1029.353, 10.02295
1029.835, 14.07605
1030.318, 21.95496
1030.800, 40.77295
1031.282, 53.40747
1031.764, 50.57324
1032.246, 43.46704
1032.728, 40.49158
1033.210, 39.86426
1033.692, 36.48108
1034.174, 29.06848
1034.656, 25.10547
1035.139, 29.12610
1035.621, 31.11682
1036.103, 25.27319
1036.585, 20.53137
1037.067, 24.15259
1037.549, 32.28564
1038.031, 37.60266
1038.513, 39.50781
1038.996, 41.71289
1039.478, 49.78796
1039.960, 49.37268
1040.442, 28.13110
1040.924, 10.82935
1041.406, 14.46997
1041.888, 28.14270
1042.370, 34.40491
1042.853, 32.90308
1043.335, 30.52759
1043.817, 25.24023
1044.299, 23.47083
1044.781, 27.25647
1045.263, 32.68994
1045.745, 40.23145
1046.227, 46.05359
1046.709, 43.04443
1047.192, 32.07764
1047.674, 30.04773
1048.156, 40.82605
1048.638, 48.39197
1049.120, 51.76917
1049.602, 50.04126
1050.084, 40.80811
1050.566, 30.50366
1051.048, 25.96460
1051.531, 27.29163
1052.013, 37.62329
1052.495, 60.56238
1052.977, 67.43640
1053.459, 54.14685
1053.941, 35.72803
1054.423, 14.89868
1054.905, 4.174438
1055.388, 18.59375
1055.870, 48.00867
1056.352, 60.65479
1056.834, 56.62708
1057.316, 49.81396
1057.798, 40.64587
1058.280, 36.74060
1058.762, 40.66040
1059.245, 42.96228
1059.727, 35.42725
1060.209, 22.97241
1060.691, 17.00037
1061.173, 16.49829
1061.655, 15.30896
1062.137, 13.96619
1062.619, 19.20923
1063.101, 31.61450
1063.583, 39.22424
1064.066, 34.11096
1064.548, 25.74438
1065.030, 30.22778
1065.512, 40.32202
1065.994, 37.23645
1066.476, 24.79858
1066.958, 12.69861
1067.440, 3.684937
1067.923, 1.540894
1068.405, 7.997314
1068.887, 16.24036
1069.369, 22.43665
1069.851, 23.62781
1070.333, 7.814575
1070.815, 11.55579
1071.297, 7.009033
1071.780, 15.61462
1072.262, 31.02478
1072.744, 31.12292
1073.226, 26.79626
1073.708, 24.04456
1074.190, 21.75488
1074.672, 17.02917
1075.154, 13.93518
1075.636, 20.82935
1076.119, 31.12183
1076.601, 30.94727
1077.083, 18.71350
1077.565, 6.624634
1078.047, 5.203247
1078.529, 6.694214
1079.011, 19.20410
1079.493, 43.58423
1079.976, 43.45728
1080.458, 32.45398
1080.940, 27.23315
1081.422, 29.02051
1081.904, 34.20020
1082.386, 48.84741
1082.868, 50.97534
1083.350, 19.38391
1083.833, 3.886597
1084.315, 4.297607
1084.797, 20.28735
1085.279, 25.89844
1085.761, 22.83374
1086.243, 17.80371
1086.725, 9.244385
1087.207, 5.662354
1087.689, 12.27234
1088.172, 13.87451
1088.654, 3.059692
1089.136, 5.290649
1089.618, 1.318359
1090.100, 9.104736
1090.582, 17.84094
1091.064, 25.45203
1091.546, 30.42957
1092.028, 32.79700
1092.511, 30.94421
1092.993, 22.78308
1093.475, 21.79468
1093.957, 35.53955
1094.439, 49.91553
1094.921, 48.38379
1095.403, 36.56372
1095.885, 33.30420
1096.368, 37.81067
1096.850, 38.79126
1097.332, 35.79492
1097.814, 31.11047
1098.296, 25.52087
1098.778, 20.93103
1099.260, 18.97632
1099.742, 18.65430
1100.224, 20.15027
1100.707, 21.14087
1101.189, 13.21313
1101.671, 0.4155270
1102.153, 5.157349
1102.635, 2.076172
1103.117, 4.044678
1103.599, 11.22095
1104.081, 15.82275
1104.563, 12.30115
1105.046, 6.828857
1105.528, 5.388916
1106.010, 6.451904
1106.492, 8.326172
1106.974, 10.72534
1107.456, 14.58936
1107.938, 19.79565
1108.420, 21.58215
1108.903, 11.15308
1109.385, 6.277222
1109.867, 25.37244
1110.349, 41.96545
1110.831, 31.51929
1111.313, 11.06396
1111.795, 4.103149
1112.277, 10.82080
1112.760, 18.17737
1113.242, 26.28992
1113.724, 31.02466
1114.206, 30.85095
1114.688, 28.67407
1115.170, 25.68396
1115.652, 20.49475
1116.134, 9.462158
1116.616, 3.020386
1117.099, 6.336548
1117.581, 0.6032710
1118.063, 7.577881
1118.545, 16.14001
1119.027, 18.92676
1119.509, 12.70227
1119.991, 9.639160
1120.473, 16.64172
1120.955, 26.68115
1121.438, 31.11987
1121.920, 30.87231
1122.402, 28.83118
1122.884, 25.24792
1123.366, 21.99792
1123.848, 19.56055
1124.330, 22.89124
1124.812, 32.76184
1125.295, 36.54138
1125.777, 23.78784
1126.259, 8.677368
1126.741, 15.47253
1127.223, 30.60425
1127.705, 27.07129
1128.187, 13.62390
1128.669, 10.40906
1129.151, 18.54028
1129.634, 28.18054
1130.116, 35.27173
1130.598, 36.16956
1131.080, 21.02454
1131.562, 7.984131
1132.044, 13.17163
1132.526, 22.61169
1133.008, 23.80115
1133.490, 19.63928
1133.973, 16.34192
1134.455, 14.68274
1134.937, 12.51611
1135.419, 5.883911
1135.901, 4.913696
1136.383, 19.47559
1136.865, 29.84558
1137.347, 24.00159
1137.830, 14.69617
1138.312, 12.78333
1138.794, 14.69409
1139.276, 9.911377
1139.758, 4.310913
1140.240, 4.156372
1140.722, 15.79834
1141.204, 27.42786
1141.687, 25.03992
1142.169, 17.38184
1142.651, 6.990601
1143.133, 1.949463
1143.615, 14.46387
1144.097, 36.45410
1144.579, 42.10645
1145.061, 33.81445
1145.543, 22.07520
1146.026, 8.665039
1146.508, 3.778198
1146.990, 13.28979
1147.472, 8.200195
1147.954, 20.92578
1148.436, 48.61267
1148.918, 43.74841
1149.400, 25.18030
1149.882, 11.90381
1150.365, 3.023560
1150.847, 4.537720
1151.329, 9.545410
1151.811, 5.954712
1152.293, 7.187866
1152.775, 15.56702
1153.257, 5.259644
1153.739, 0.3198240
1154.222, 17.33423
1154.704, 32.37329
1155.186, 28.87988
1155.668, 18.88660
1156.150, 16.59180
1156.632, 20.82080
1157.114, 23.50781
1157.596, 24.64758
1158.078, 24.25537
1158.561, 22.77026
1159.043, 17.37476
1159.525, 3.965454
1160.007, 1.691162
1160.489, 12.08789
1160.971, 29.45227
1161.453, 26.27295
1161.935, 8.827148
1162.417, 6.420166
1162.900, 17.67444
1163.382, 23.05359
1163.864, 22.15271
1164.346, 24.58789
1164.828, 32.42273
1165.310, 37.65637
1165.792, 34.70300
1166.274, 29.32458
1166.757, 25.90283
1167.239, 25.56970
1167.721, 33.66309
1168.203, 43.03662
1168.685, 42.72253
1169.167, 34.53601
1169.649, 23.82849
1170.131, 12.49011
1170.614, 9.111450
1171.096, 27.57080
1171.578, 38.59766
1172.060, 24.47668
1172.542, 12.13000
1173.024, 22.29187
1173.506, 34.70691
1173.988, 25.02124
1174.470, 3.291016
1174.953, 0.5206300
1175.435, 17.94348
1175.917, 25.77637
1176.399, 18.84949
1176.881, 19.66052
1177.363, 32.41846
1177.845, 42.61230
1178.327, 37.17749
1178.809, 27.52893
1179.292, 24.57922
1179.774, 27.71484
1180.256, 28.44397
1180.738, 25.46155
1181.220, 14.94385
1181.702, 0.9779050
1182.184, 1.801636
1182.666, 7.510132
1183.149, 18.32739
1183.631, 25.19812
1184.113, 31.38843
1184.595, 40.56824
1185.077, 45.67676
1185.559, 39.50818
1186.041, 28.83289
1186.523, 14.76501
1187.005, 3.376465
1187.488, 6.865356
1187.970, 23.68542
1188.452, 30.82190
1188.934, 19.04565
1189.416, 11.55591
1189.898, 10.74146
1190.380, 10.34082
1190.862, 8.418213
1191.344, 7.105103
1191.827, 10.21265
1192.309, 13.94397
1192.791, 12.74341
1193.273, 8.155029
1193.755, 8.065186
1194.237, 12.27478
1194.719, 23.15906
1195.201, 39.02539
1195.684, 37.02063
1196.166, 13.98572
1196.648, 4.147949
1197.130, 1.089966
1197.612, 9.673950
1198.094, 18.76917
1198.576, 24.41113
1199.058, 20.99182
1199.541, 16.10461
1200.023, 18.94434
1200.505, 27.44006
1200.987, 38.58557
1201.469, 50.69910
1201.951, 51.03845
1202.433, 31.60583
1202.915, 18.88245
1203.397, 22.33289
1203.880, 23.00671
1204.362, 12.56702
1204.844, 4.677002
1205.326, 10.76013
1205.808, 20.75256
1206.290, 15.54382
1206.772, 0.0000000E+00
##END=



