##NAMES=Calcioferrite
##RRUFFID=R120092
##IDEAL CHEMISTRY=Ca_4_MgFe^3+^_4_(PO_4_)_6_(OH)_4_&#183;12H_2_O
##LOCALITY=Moculta quarry, Angastan, South Australia, Australia
##OWNER=RRUFF
##SOURCE=Bob Jenkins
##DESCRIPTION=Clusters of pale yellow, micaceous crystals
##STATUS=The identification of this mineral is confirmed by single-crystal X-ray diffraction and chemical analysis.
##URL=rruff.info/R120092
##MEASURED CHEMISTRY=(Ca_3.78_Sr_0.07_)_Σ=3.85_Mg_0.98_(Fe^3+^_2.82_Al_1.03_)_Σ=3.85_(PO_4_)_6.00_(OH)_4_·14.21H_2_O
110.4842, 0.0000000E+00
110.9664, 1.924438
111.4485, 1.495972
111.9306, 0.6743160
112.4127, 0.7900390
112.8948, 0.8881840
113.3769, 3.698486
113.8591, 6.791626
114.3412, 10.19128
114.8233, 13.46838
115.3054, 16.82617
115.7875, 19.88916
116.2696, 21.97974
116.7517, 22.77637
117.2339, 23.12817
117.7160, 25.23572
118.1981, 29.78113
118.6802, 34.13525
119.1623, 36.92322
119.6444, 38.78467
120.1266, 41.65674
120.6087, 46.71045
121.0908, 53.05164
121.5729, 58.77136
122.0550, 63.84253
122.5371, 68.32837
123.0193, 71.92810
123.5014, 74.50464
123.9835, 77.37097
124.4656, 80.74011
124.9477, 84.85828
125.4298, 90.19275
125.9120, 97.02112
126.3941, 104.9615
126.8762, 113.2310
127.3583, 122.4305
127.8404, 130.9441
128.3225, 137.4740
128.8047, 143.3470
129.2868, 150.5756
129.7689, 160.8510
130.2510, 173.7749
130.7331, 183.3932
131.2152, 186.2866
131.6974, 189.0057
132.1795, 192.4038
132.6616, 196.8633
133.1437, 202.7917
133.6258, 210.7406
134.1079, 221.2593
134.5901, 230.5144
135.0722, 238.6440
135.5543, 245.6760
136.0364, 251.5206
136.5185, 256.2078
137.0006, 259.8702
137.4828, 262.5145
137.9649, 263.9639
138.4470, 265.0107
138.9291, 265.6506
139.4112, 265.9296
139.8933, 265.7666
140.3755, 265.0604
140.8576, 264.2864
141.3397, 264.2683
141.8218, 264.9479
142.3039, 265.2731
142.7860, 264.6296
143.2681, 263.2399
143.7503, 261.9369
144.2324, 261.1205
144.7145, 260.1479
145.1966, 258.9507
145.6787, 257.4961
146.1608, 254.6763
146.6430, 249.0944
147.1251, 240.4486
147.6072, 231.8242
148.0893, 223.9573
148.5714, 216.0667
149.0535, 207.8815
149.5357, 199.3439
150.0178, 190.1466
150.4999, 179.7722
150.9820, 167.2914
151.4641, 155.4292
151.9462, 144.0422
152.4284, 133.4081
152.9105, 123.9723
153.3926, 115.9097
153.8747, 108.5085
154.3568, 99.97925
154.8389, 87.50696
155.3211, 78.03589
155.8032, 73.10669
156.2853, 70.47510
156.7674, 68.32983
157.2495, 65.92993
157.7316, 63.57446
158.2138, 62.46667
158.6959, 63.73206
159.1780, 64.84534
159.6601, 64.63379
160.1422, 63.45557
160.6243, 62.86023
161.1065, 64.60754
161.5886, 68.37915
162.0707, 71.59058
162.5528, 74.29309
163.0349, 76.47034
163.5170, 77.64783
163.9991, 77.96326
164.4813, 78.85059
164.9634, 81.68506
165.4455, 85.61829
165.9276, 88.60547
166.4097, 89.71777
166.8918, 90.37500
167.3740, 92.12219
167.8561, 95.05457
168.3382, 98.35583
168.8203, 102.7610
169.3024, 107.4449
169.7845, 111.2924
170.2667, 113.5126
170.7488, 114.8883
171.2309, 117.4761
171.7130, 122.4952
172.1951, 126.4025
172.6772, 127.1853
173.1594, 126.3281
173.6415, 125.9468
174.1236, 127.3998
174.6057, 130.3369
175.0878, 132.6254
175.5699, 134.0880
176.0521, 134.9978
176.5342, 135.6993
177.0163, 135.9219
177.4984, 135.0751
177.9805, 132.5223
178.4626, 128.2311
178.9448, 125.2552
179.4269, 125.6405
179.9090, 125.3202
180.3911, 122.4954
180.8732, 117.8135
181.3553, 113.2440
181.8375, 110.5801
182.3196, 110.1660
182.8017, 108.1339
183.2838, 103.3282
183.7659, 98.30811
184.2480, 94.53931
184.7301, 91.90442
185.2123, 89.16748
185.6944, 85.13147
186.1765, 79.54431
186.6586, 74.64575
187.1407, 70.75159
187.6228, 67.33484
188.1050, 64.28967
188.5871, 61.57654
189.0692, 58.54053
189.5513, 54.22473
190.0334, 48.71692
190.5155, 44.11597
190.9977, 41.24475
191.4798, 39.15100
191.9619, 36.85522
192.4440, 34.26318
192.9261, 31.36853
193.4082, 27.80713
193.8904, 23.82812
194.3725, 20.31128
194.8546, 18.01086
195.3367, 16.26282
195.8188, 13.52820
196.3009, 9.149658
196.7831, 4.986816
197.2652, 2.531128
197.7473, 1.325928
198.2294, 0.3940430
198.7115, 0.6652830
199.1936, 1.853516
199.6758, 3.213867
200.1579, 5.145630
200.6400, 6.671387
201.1221, 6.924316
201.6042, 6.365356
202.0863, 6.106567
202.5685, 7.018188
203.0506, 9.033569
203.5327, 11.02808
204.0148, 13.72754
204.4969, 15.54504
204.9790, 15.54602
205.4612, 14.15137
205.9433, 12.38171
206.4254, 10.97876
206.9075, 9.947021
207.3896, 9.208374
207.8717, 9.515747
208.3539, 9.438721
208.8360, 8.522827
209.3181, 6.809448
209.8002, 4.470093
210.2823, 1.475586
210.7644, 2.388062
211.2466, 4.911377
211.7287, 3.793457
212.2108, 3.588989
212.6929, 6.749878
213.1750, 12.67163
213.6571, 18.98438
214.1393, 23.49115
214.6214, 25.86688
215.1035, 28.67542
215.5856, 32.13654
216.0677, 35.73108
216.5498, 39.33380
217.0320, 42.87299
217.5141, 46.21588
217.9962, 49.16199
218.4783, 51.63098
218.9604, 54.61487
219.4425, 58.32104
219.9247, 62.30750
220.4068, 66.48016
220.8889, 70.75928
221.3710, 74.81390
221.8531, 78.21979
222.3352, 80.94226
222.8174, 84.42450
223.2995, 89.50867
223.7816, 94.72595
224.2637, 99.00513
224.7458, 102.2963
225.2279, 105.0329
225.7100, 107.2974
226.1922, 109.2181
226.6743, 111.7249
227.1564, 114.8998
227.6385, 118.6705
228.1206, 123.1180
228.6027, 128.2596
229.0849, 133.5214
229.5670, 138.1983
230.0491, 142.6812
230.5312, 148.0800
231.0133, 155.3461
231.4954, 163.1758
231.9776, 170.1027
232.4597, 176.0418
232.9418, 181.6517
233.4239, 186.8483
233.9060, 192.0894
234.3881, 198.2162
234.8703, 205.9424
235.3524, 214.2152
235.8345, 221.5894
236.3166, 227.9130
236.7987, 234.0861
237.2808, 240.8398
237.7630, 247.6361
238.2451, 253.7907
238.7272, 258.8339
239.2093, 263.5262
239.6914, 269.4027
240.1735, 277.2053
240.6557, 283.8230
241.1378, 287.2396
241.6199, 289.2903
242.1020, 291.4799
242.5841, 294.2373
243.0662, 297.5880
243.5484, 301.6802
244.0305, 306.7723
244.5126, 311.9290
244.9947, 317.3053
245.4768, 322.4253
245.9589, 326.8116
246.4410, 330.2916
246.9232, 333.1601
247.4053, 335.8932
247.8874, 338.3975
248.3695, 340.9713
248.8516, 343.2667
249.3337, 345.8503
249.8159, 349.3824
250.2980, 354.0317
250.7801, 359.0472
251.2622, 363.0728
251.7443, 365.3096
252.2264, 368.3484
252.7086, 373.4812
253.1907, 378.6840
253.6728, 382.3105
254.1549, 384.0300
254.6370, 384.9973
255.1191, 387.0255
255.6013, 390.7776
256.0834, 394.1750
256.5655, 396.8971
257.0476, 399.4579
257.5297, 402.4331
258.0118, 405.7737
258.4940, 408.7916
258.9761, 410.4919
259.4582, 410.1531
259.9403, 410.4642
260.4224, 412.1923
260.9045, 413.6776
261.3867, 413.9561
261.8688, 412.8743
262.3509, 410.9817
262.8330, 408.9711
263.3151, 407.0959
263.7972, 404.5020
264.2794, 400.8464
264.7615, 396.8915
265.2436, 393.0895
265.7257, 389.3898
266.2078, 385.5020
266.6899, 381.1532
267.1721, 376.3162
267.6542, 371.5386
268.1363, 367.6255
268.6184, 363.1281
269.1005, 356.8247
269.5826, 349.0472
270.0648, 341.0815
270.5469, 333.9960
271.0290, 327.9012
271.5111, 321.3358
271.9932, 314.0343
272.4753, 306.6033
272.9575, 299.5154
273.4396, 292.5861
273.9217, 285.2926
274.4038, 277.2568
274.8859, 268.4808
275.3680, 259.7177
275.8501, 250.5151
276.3322, 241.8027
276.8144, 234.1021
277.2965, 227.1154
277.7786, 220.2448
278.2607, 213.1749
278.7428, 205.9641
279.2249, 198.4314
279.7071, 189.9190
280.1892, 181.9468
280.6713, 175.2975
281.1534, 169.3658
281.6355, 162.9663
282.1176, 155.5152
282.5998, 147.5684
283.0819, 140.7449
283.5640, 135.1845
284.0461, 130.1468
284.5282, 125.5410
285.0103, 121.3309
285.4925, 117.4971
285.9746, 114.0403
286.4567, 110.9295
286.9388, 108.1048
287.4209, 105.6207
287.9030, 103.2736
288.3852, 100.9344
288.8673, 98.66974
289.3494, 96.77563
289.8315, 95.35547
290.3136, 93.99524
290.7957, 92.03381
291.2779, 89.35950
291.7600, 87.15015
292.2421, 85.76044
292.7242, 84.76038
293.2063, 83.76111
293.6884, 82.70184
294.1706, 81.71191
294.6527, 80.92297
295.1348, 80.32959
295.6169, 79.68225
296.0990, 78.62628
296.5811, 77.76147
297.0633, 77.88837
297.5454, 78.91888
298.0275, 79.58435
298.5096, 78.92139
298.9917, 77.07751
299.4738, 75.43707
299.9560, 73.94214
300.4381, 72.67621
300.9202, 71.82538
301.4023, 71.30267
301.8844, 70.66028
302.3665, 69.63776
302.8487, 68.33008
303.3308, 67.02673
303.8129, 65.64453
304.2950, 64.36829
304.7771, 63.54614
305.2592, 62.91522
305.7414, 61.65771
306.2235, 59.26898
306.7056, 56.46014
307.1877, 54.84589
307.6698, 54.81848
308.1519, 54.22961
308.6341, 51.93701
309.1162, 48.72943
309.5983, 46.04956
310.0804, 44.34442
310.5625, 42.92920
311.0446, 40.76440
311.5268, 37.78107
312.0089, 35.42474
312.4910, 34.49707
312.9731, 34.10669
313.4552, 33.12427
313.9373, 31.37549
314.4195, 29.48645
314.9016, 27.99805
315.3837, 26.89447
315.8658, 25.85168
316.3479, 25.09412
316.8300, 24.19977
317.3121, 22.66614
317.7943, 20.52820
318.2764, 18.49445
318.7585, 17.03802
319.2406, 16.09485
319.7227, 15.12793
320.2048, 14.16156
320.6870, 13.15051
321.1691, 12.08661
321.6512, 10.96747
322.1333, 9.720459
322.6154, 8.292603
323.0975, 6.762146
323.5797, 5.326294
324.0618, 3.746643
324.5439, 2.689636
325.0260, 2.736084
325.5081, 3.412720
325.9902, 3.884277
326.4724, 3.927307
326.9545, 3.539429
327.4366, 2.501526
327.9187, 0.6295170
328.4008, 0.7477420
328.8829, 1.066345
329.3651, 0.9075320
329.8472, 0.8756100
330.3293, 1.076294
330.8114, 1.490662
331.2935, 2.279968
331.7756, 3.475403
332.2578, 3.901001
332.7399, 2.651367
333.2220, 1.275085
333.7041, 1.183228
334.1862, 2.234741
334.6683, 2.969849
335.1505, 2.225891
335.6326, 0.2728880
336.1147, 0.7965090
336.5968, 0.6094360
337.0789, 4.8523001E-02
337.5610, 0.8230590
338.0432, 1.788452
338.5253, 2.269897
339.0074, 1.924133
339.4895, 1.108887
339.9716, 0.8121340
340.4537, 1.322693
340.9359, 1.745483
341.4180, 1.918152
341.9001, 1.865356
342.3822, 1.570068
342.8643, 1.066956
343.3464, 0.5924680
343.8286, 0.4183960
344.3107, 0.6416630
344.7928, 0.7868040
345.2749, 1.160522
345.7570, 1.022400
346.2391, 0.2728270
346.7213, 2.511780
347.2034, 4.833679
347.6855, 6.631653
348.1676, 7.976929
348.6497, 9.011475
349.1318, 9.831299
349.6140, 10.38196
350.0961, 10.53009
350.5782, 10.34540
351.0603, 9.908569
351.5424, 9.191528
352.0245, 8.319397
352.5067, 8.025635
352.9888, 8.811035
353.4709, 9.784973
353.9530, 10.96454
354.4351, 12.12842
354.9172, 13.11914
355.3994, 13.87506
355.8815, 14.28772
356.3636, 14.11072
356.8457, 12.64642
357.3278, 12.09314
357.8099, 13.11450
358.2920, 14.48273
358.7741, 15.43433
359.2563, 15.86377
359.7384, 16.00970
360.2205, 16.08746
360.7026, 16.09277
361.1847, 16.06567
361.6668, 16.13190
362.1490, 16.04156
362.6311, 15.45111
363.1132, 14.65936
363.5953, 14.24426
364.0774, 14.56909
364.5595, 15.48865
365.0417, 16.38263
365.5238, 17.09741
366.0059, 18.01270
366.4880, 19.38031
366.9701, 20.84906
367.4522, 22.11487
367.9344, 23.06836
368.4165, 23.74573
368.8986, 24.17957
369.3807, 24.31226
369.8628, 24.35071
370.3449, 24.09766
370.8271, 23.93091
371.3092, 24.14258
371.7913, 24.66986
372.2734, 25.16229
372.7555, 25.20844
373.2376, 24.83887
373.7198, 25.07068
374.2019, 26.52820
374.6840, 27.84003
375.1661, 28.42627
375.6482, 28.60620
376.1303, 28.86438
376.6125, 29.42456
377.0946, 30.23224
377.5767, 31.25531
378.0588, 32.69208
378.5409, 33.76361
379.0230, 33.74744
379.5052, 33.58862
379.9873, 34.20709
380.4694, 35.76672
380.9515, 37.24988
381.4336, 37.49188
381.9157, 36.51489
382.3979, 35.66003
382.8800, 34.90131
383.3621, 34.61127
383.8442, 35.27679
384.3263, 36.61548
384.8084, 37.64581
385.2906, 37.81726
385.7727, 37.28406
386.2548, 36.30908
386.7369, 34.79401
387.2190, 33.35205
387.7011, 32.40015
388.1833, 31.68207
388.6654, 30.88702
389.1475, 30.02863
389.6296, 28.86810
390.1117, 27.06104
390.5938, 24.81622
391.0760, 23.02777
391.5581, 22.06183
392.0402, 21.34222
392.5223, 20.06403
393.0044, 18.25171
393.4865, 16.94977
393.9687, 16.95813
394.4508, 17.42853
394.9329, 17.01019
395.4150, 15.43048
395.8971, 13.38751
396.3792, 11.30560
396.8614, 9.311768
397.3435, 7.965210
397.8256, 7.913818
398.3077, 7.840942
398.7898, 6.666016
399.2719, 4.712341
399.7540, 3.228149
400.2361, 2.946838
400.7183, 3.393494
401.2004, 3.168701
401.6825, 2.257874
402.1646, 0.7680050
402.6467, 2.356323
403.1288, 5.574890
403.6110, 6.720581
404.0931, 5.331177
404.5752, 3.100769
405.0573, 1.992554
405.5394, 2.246338
406.0215, 2.718262
406.5037, 3.779785
406.9858, 4.694336
407.4679, 5.227783
407.9500, 5.325745
408.4321, 4.829163
408.9142, 3.549866
409.3964, 1.798340
409.8785, 0.9685670
410.3606, 2.162842
410.8427, 2.847839
411.3248, 2.616089
411.8069, 1.904541
412.2891, 1.064941
412.7712, 0.2237550
413.2533, 0.5852050
413.7354, 1.212891
414.2175, 1.444519
414.6996, 2.331482
415.1818, 4.485352
415.6639, 6.784851
416.1460, 8.987122
416.6281, 10.99115
417.1102, 12.53699
417.5923, 13.23895
418.0745, 13.59119
418.5566, 15.46387
419.0387, 19.54633
419.5208, 23.61316
420.0029, 26.75641
420.4850, 29.66528
420.9672, 32.98468
421.4493, 36.87585
421.9314, 40.93060
422.4135, 44.77820
422.8956, 48.41229
423.3777, 51.89740
423.8599, 55.10010
424.3420, 58.35382
424.8241, 61.74078
425.3062, 65.34058
425.7883, 69.50861
426.2704, 74.85278
426.7526, 80.65399
427.2347, 85.65509
427.7168, 89.82513
428.1989, 94.24750
428.6810, 99.50818
429.1631, 105.4014
429.6453, 111.3284
430.1274, 117.3023
430.6095, 123.2856
431.0916, 129.3146
431.5737, 135.3001
432.0558, 140.9999
432.5380, 146.2681
433.0201, 151.6243
433.5022, 157.8528
433.9843, 165.1360
434.4664, 171.4913
434.9485, 176.5389
435.4307, 180.9013
435.9128, 184.6084
436.3949, 187.8984
436.8770, 191.5336
437.3591, 196.0677
437.8412, 201.0514
438.3234, 204.6744
438.8055, 205.8114
439.2876, 207.0159
439.7697, 208.3154
440.2518, 209.8340
440.7339, 212.2972
441.2160, 215.5245
441.6982, 217.7716
442.1803, 216.7246
442.6624, 211.7350
443.1445, 208.2098
443.6266, 207.1302
444.1087, 206.5410
444.5909, 206.5018
445.0730, 206.4393
445.5551, 205.4742
446.0372, 203.1074
446.5193, 199.8537
447.0014, 196.8480
447.4836, 194.2249
447.9657, 191.4509
448.4478, 188.1737
448.9299, 184.8843
449.4120, 182.0023
449.8941, 179.4911
450.3763, 176.8320
450.8584, 173.5434
451.3405, 169.7554
451.8226, 166.2120
452.3047, 163.2025
452.7868, 159.7761
453.2690, 155.0966
453.7511, 149.6960
454.2332, 144.2295
454.7153, 138.7866
455.1974, 133.4363
455.6795, 127.8729
456.1617, 122.3495
456.6438, 118.1127
457.1259, 115.9265
457.6080, 114.1703
458.0901, 110.6559
458.5722, 105.4701
459.0544, 100.1978
459.5365, 94.76050
460.0186, 89.55292
460.5007, 84.82825
460.9828, 80.58221
461.4649, 76.85309
461.9471, 73.81403
462.4292, 71.37708
462.9113, 68.79822
463.3934, 65.71875
463.8755, 62.70929
464.3576, 59.41516
464.8398, 56.40186
465.3219, 54.40637
465.8040, 53.50989
466.2861, 53.10510
466.7682, 52.54236
467.2503, 51.80396
467.7325, 51.26569
468.2146, 50.65771
468.6967, 50.31641
469.1788, 50.40076
469.6609, 50.89099
470.1430, 51.66278
470.6252, 52.64514
471.1073, 53.99420
471.5894, 56.01593
472.0715, 58.77472
472.5536, 61.84656
473.0357, 65.33081
473.5179, 68.95502
474.0000, 72.48029
474.4821, 75.97321
474.9642, 79.82739
475.4463, 84.51227
475.9284, 89.60699
476.4106, 94.01337
476.8927, 97.49548
477.3748, 101.6935
477.8569, 107.7885
478.3390, 114.8698
478.8211, 121.2883
479.3033, 126.6449
479.7854, 132.5209
480.2675, 140.1629
480.7496, 148.7396
481.2317, 156.6505
481.7138, 163.5841
482.1959, 170.5419
482.6780, 178.5681
483.1602, 187.6191
483.6423, 196.0489
484.1244, 203.2786
484.6065, 210.5316
485.0886, 218.2031
485.5707, 226.2978
486.0529, 234.8604
486.5350, 243.9286
487.0171, 253.2033
487.4992, 262.1157
487.9813, 270.6174
488.4634, 279.0617
488.9456, 288.1663
489.4277, 296.5381
489.9098, 303.3213
490.3919, 308.8025
490.8740, 313.6716
491.3561, 318.2961
491.8383, 322.6589
492.3204, 326.9142
492.8025, 331.6107
493.2846, 334.6536
493.7667, 334.9196
494.2488, 333.8297
494.7310, 332.4211
495.2131, 330.6638
495.6952, 327.5126
496.1773, 322.1365
496.6594, 314.8474
497.1415, 306.3376
497.6237, 296.4625
498.1058, 286.0401
498.5879, 275.1974
499.0700, 264.0710
499.5521, 253.0455
500.0342, 242.2484
500.5164, 231.1977
500.9985, 219.2105
501.4806, 206.8536
501.9627, 195.0646
502.4448, 184.0729
502.9269, 173.1882
503.4091, 161.7204
503.8912, 149.5583
504.3733, 138.0530
504.8554, 127.0656
505.3375, 116.8087
505.8196, 107.5786
506.3018, 99.04822
506.7839, 90.83691
507.2660, 82.79559
507.7481, 74.96075
508.2302, 67.37836
508.7123, 59.88062
509.1945, 53.21918
509.6766, 47.58252
510.1587, 42.61639
510.6408, 38.52106
511.1229, 34.94269
511.6050, 31.21143
512.0872, 26.90991
512.5693, 22.55304
513.0514, 19.15894
513.5335, 16.84302
514.0156, 14.48499
514.4977, 11.59570
514.9799, 8.841309
515.4620, 6.874451
515.9441, 5.590332
516.4262, 4.269836
516.9083, 2.405273
517.3904, 0.4484250
517.8726, 0.9949340
518.3547, 1.943665
518.8368, 2.824951
519.3189, 3.942993
519.8010, 4.996033
520.2831, 5.151367
520.7653, 4.098816
521.2474, 3.272278
521.7295, 2.995850
522.2116, 2.982117
522.6937, 3.063965
523.1758, 3.181396
523.6580, 3.262268
524.1401, 3.262817
524.6222, 3.167847
525.1043, 2.907776
525.5864, 2.592712
526.0685, 1.915588
526.5507, 0.5760500
527.0328, 0.9269410
527.5149, 2.320862
527.9970, 3.494934
528.4791, 4.288330
528.9612, 4.429321
529.4434, 4.046814
529.9255, 3.867371
530.4076, 3.780518
530.8897, 4.168762
531.3718, 5.553650
531.8539, 7.336792
532.3361, 8.945313
532.8182, 10.28070
533.3003, 11.54523
533.7824, 12.88507
534.2645, 14.25098
534.7466, 15.31775
535.2288, 15.97491
535.7109, 17.38062
536.1930, 20.92310
536.6751, 26.00507
537.1572, 28.91364
537.6393, 27.59601
538.1215, 26.82739
538.6036, 28.38898
539.0857, 31.04004
539.5678, 33.39685
540.0499, 35.10272
540.5320, 36.32593
541.0142, 37.16412
541.4963, 37.59521
541.9784, 38.31177
542.4604, 39.34332
542.9426, 40.64838
543.4247, 42.49921
543.9068, 44.47858
544.3889, 46.07001
544.8710, 47.14996
545.3531, 48.10315
545.8353, 49.45825
546.3174, 51.14935
546.7995, 52.32227
547.2816, 52.76703
547.7637, 53.04156
548.2458, 53.22284
548.7280, 53.52191
549.2101, 54.41895
549.6922, 56.36694
550.1743, 58.12238
550.6564, 58.79492
551.1385, 58.73853
551.6207, 58.65063
552.1028, 58.67682
552.5849, 58.69672
553.0670, 58.51825
553.5491, 58.14227
554.0313, 58.42084
554.5134, 60.02496
554.9955, 61.38647
555.4776, 62.09155
555.9597, 62.31396
556.4418, 62.16266
556.9240, 61.71918
557.4061, 61.24237
557.8882, 60.94684
558.3703, 60.82025
558.8524, 61.27423
559.3345, 62.50226
559.8167, 64.06335
560.2988, 66.61481
560.7809, 69.01190
561.2630, 69.51361
561.7451, 67.51178
562.2272, 65.44434
562.7094, 65.68878
563.1915, 67.59644
563.6736, 69.02435
564.1557, 69.69702
564.6378, 70.02277
565.1199, 70.11792
565.6021, 70.10907
566.0842, 70.50641
566.5663, 71.63745
567.0484, 72.71356
567.5305, 73.57043
568.0126, 74.18195
568.4948, 74.33405
568.9769, 74.08740
569.4590, 74.06561
569.9411, 74.98981
570.4232, 76.75702
570.9053, 77.31287
571.3875, 75.15167
571.8696, 73.80035
572.3517, 74.18518
572.8338, 75.43408
573.3159, 76.89417
573.7980, 78.29663
574.2802, 79.28033
574.7623, 79.03888
575.2444, 78.09290
575.7265, 79.02136
576.2086, 82.55396
576.6907, 84.96045
577.1729, 83.68457
577.6550, 80.58704
578.1371, 78.73273
578.6192, 78.36157
579.1013, 78.55133
579.5834, 79.34827
580.0656, 80.23511
580.5477, 80.65509
581.0298, 80.58423
581.5119, 80.21021
581.9940, 79.62585
582.4761, 78.88354
582.9583, 78.10986
583.4404, 76.47913
583.9225, 76.13000
584.4046, 78.65869
584.8867, 80.98108
585.3688, 80.99554
585.8510, 78.99915
586.3331, 76.38873
586.8152, 73.85052
587.2973, 71.57434
587.7794, 70.19183
588.2615, 69.87250
588.7437, 69.46362
589.2258, 68.71094
589.7079, 67.63269
590.1900, 66.21429
590.6721, 64.49756
591.1542, 62.74817
591.6364, 61.25934
592.1185, 59.64056
592.6006, 57.44116
593.0827, 54.85645
593.5648, 52.43109
594.0469, 50.35315
594.5291, 48.50293
595.0112, 46.75568
595.4933, 45.18604
595.9754, 43.58398
596.4575, 42.27258
596.9396, 40.62842
597.4218, 38.08228
597.9039, 35.17194
598.3860, 32.59198
598.8681, 30.59204
599.3502, 29.05237
599.8323, 27.75323
600.3145, 26.68604
600.7966, 26.33789
601.2787, 27.24261
601.7608, 27.80164
602.2429, 26.81189
602.7250, 24.96844
603.2072, 23.25366
603.6893, 21.70660
604.1714, 20.47064
604.6535, 19.65576
605.1356, 19.17157
605.6177, 19.20288
606.0999, 19.62402
606.5820, 19.36377
607.0641, 17.55243
607.5462, 14.72736
608.0283, 13.17584
608.5104, 14.16602
608.9926, 14.67859
609.4747, 14.03027
609.9568, 13.30627
610.4389, 13.59662
610.9210, 14.60742
611.4031, 15.02844
611.8853, 13.84070
612.3674, 11.82776
612.8495, 10.61816
613.3316, 10.26215
613.8137, 10.38385
614.2958, 11.17413
614.7780, 11.99554
615.2601, 12.11957
615.7422, 11.68445
616.2243, 11.44775
616.7064, 11.78784
617.1885, 12.13892
617.6707, 12.17004
618.1528, 11.94452
618.6349, 11.45282
619.1170, 10.70435
619.5991, 10.14166
620.0812, 10.35242
620.5634, 11.40057
621.0455, 12.45984
621.5276, 14.12573
622.0097, 15.01501
622.4918, 14.64737
622.9739, 13.50336
623.4561, 11.87561
623.9382, 9.896301
624.4203, 8.010925
624.9023, 6.579407
625.3845, 5.533447
625.8666, 4.786499
626.3487, 4.367157
626.8308, 3.900146
627.3129, 3.127106
627.7950, 2.229736
628.2772, 1.681183
628.7593, 1.650665
629.2414, 1.249786
629.7235, 0.4179380
630.2056, 1.834808
630.6877, 1.651581
631.1699, 0.3749690
631.6520, 0.7173770
632.1341, 1.029663
632.6162, 0.7680360
633.0983, 0.1852110
633.5804, 0.8547360
634.0626, 1.500488
634.5447, 1.459564
635.0268, 1.346619
635.5089, 1.539246
635.9910, 1.840607
636.4731, 1.882385
636.9553, 1.512299
637.4374, 1.089630
637.9195, 0.8475040
638.4016, 0.7293090
638.8837, 0.6413270
639.3658, 0.5843510
639.8480, 0.6782840
640.3301, 1.072479
640.8122, 1.576050
641.2943, 1.547455
641.7764, 5.4319999E-03
642.2585, 0.6054380
642.7407, 0.7543030
643.2228, 2.172211
643.7049, 2.207977
644.1870, 1.272980
644.6691, 0.7401730
645.1512, 1.399750
645.6334, 2.520264
646.1155, 2.942841
646.5976, 2.666260
647.0797, 2.056122
647.5618, 0.9442750
648.0439, 4.3182001E-02
648.5261, 0.3341060
649.0082, 0.1142270
649.4903, 2.7588001E-02
649.9724, 6.5825999E-02
650.4545, 5.8166999E-02
650.9366, 0.5498050
651.4188, 1.119293
651.9009, 0.6560060
652.3830, 0.7664180
652.8651, 2.097015
653.3472, 2.542572
653.8293, 2.336700
654.3115, 2.314697
654.7936, 2.473450
655.2757, 2.812256
655.7578, 3.698822
656.2399, 4.435547
656.7220, 4.397827
657.2042, 3.867859
657.6863, 3.773407
658.1684, 4.755524
658.6505, 5.832397
659.1326, 5.965607
659.6147, 5.449402
660.0969, 5.123077
660.5790, 5.177856
661.0611, 5.324677
661.5432, 5.354523
662.0253, 5.245483
662.5074, 4.793671
662.9896, 2.914429
663.4717, 2.158569
663.9538, 3.936859
664.4359, 5.996307
664.9180, 6.424622
665.4001, 5.387115
665.8823, 4.275970
666.3644, 3.835785
666.8465, 3.988220
667.3286, 4.981964
667.8107, 6.763489
668.2928, 7.274414
668.7750, 5.576141
669.2571, 3.687042
669.7392, 3.705383
670.2213, 5.406921
670.7034, 6.325653
671.1855, 5.603790
671.6677, 5.097992
672.1498, 5.802368
672.6319, 6.780670
673.1140, 6.894623
673.5961, 6.116730
674.0782, 5.289703
674.5604, 5.061859
675.0425, 5.241821
675.5246, 5.118469
676.0067, 4.521301
676.4888, 4.404358
676.9709, 5.360168
677.4531, 6.407379
677.9352, 6.695557
678.4173, 6.415588
678.8994, 6.250488
679.3815, 6.515015
679.8636, 6.733643
680.3458, 6.482422
680.8279, 6.059906
681.3100, 5.954956
681.7921, 6.239441
682.2742, 6.662079
682.7563, 7.042175
683.2385, 7.356232
683.7206, 7.417847
684.2027, 6.813080
684.6848, 6.860168
685.1669, 8.808228
685.6490, 10.49887
686.1312, 10.37793
686.6133, 8.933075
687.0954, 7.762604
687.5775, 7.534393
688.0596, 7.490540
688.5417, 6.926483
689.0239, 6.200623
689.5060, 6.094086
689.9881, 6.697998
690.4702, 7.425385
690.9523, 7.857269
691.4344, 7.962006
691.9166, 7.705109
692.3987, 6.431061
692.8808, 5.977081
693.3629, 7.245605
693.8450, 8.520477
694.3271, 8.763306
694.8093, 8.189728
695.2914, 7.419556
695.7735, 6.572144
696.2556, 6.043762
696.7377, 6.497498
697.2198, 7.653229
697.7020, 8.547424
698.1841, 9.013977
698.6662, 9.210327
699.1483, 9.242767
699.6304, 9.241669
700.1125, 9.310577
700.5947, 9.886444
701.0768, 9.562866
701.5589, 7.322632
702.0410, 5.328308
702.5231, 5.016083
703.0052, 5.849152
703.4874, 6.675934
703.9695, 7.085144
704.4516, 7.192108
704.9337, 7.011871
705.4158, 6.635406
705.8979, 6.282562
706.3801, 5.895050
706.8622, 5.716766
707.3442, 6.051239
707.8264, 6.621185
708.3085, 6.596130
708.7906, 5.478638
709.2727, 4.924133
709.7548, 5.877563
710.2369, 6.786804
710.7191, 6.486450
711.2012, 5.438477
711.6833, 4.524139
712.1654, 4.085327
712.6475, 4.077454
713.1296, 4.654083
713.6118, 5.678802
714.0939, 6.361847
714.5760, 6.663116
715.0581, 6.564575
715.5402, 5.842316
716.0223, 4.998169
716.5045, 4.968323
716.9866, 5.942200
717.4687, 6.392059
717.9508, 5.593628
718.4329, 4.896698
718.9150, 5.180206
719.3972, 5.887970
719.8793, 6.096619
720.3614, 5.618195
720.8435, 5.119202
721.3256, 5.450562
721.8077, 6.381439
722.2899, 6.615143
722.7720, 6.007080
723.2541, 5.519684
723.7362, 5.453430
724.2183, 5.650208
724.7004, 6.137360
725.1826, 6.928131
725.6647, 7.135040
726.1468, 5.997040
726.6289, 5.012268
727.1110, 4.719940
727.5931, 4.919037
728.0753, 5.540527
728.5574, 6.417267
729.0395, 7.146088
729.5216, 7.453491
730.0037, 7.470093
730.4858, 7.451294
730.9680, 7.385956
731.4501, 6.962708
731.9322, 5.879364
732.4143, 5.017731
732.8964, 5.349426
733.3785, 6.553528
733.8607, 6.922974
734.3428, 5.645111
734.8249, 4.839111
735.3070, 5.328461
735.7891, 6.108521
736.2712, 6.330444
736.7534, 6.102966
737.2355, 6.030884
737.7176, 6.433319
738.1997, 6.864838
738.6818, 6.532806
739.1639, 5.550690
739.6461, 5.055542
740.1282, 5.277039
740.6103, 5.342651
741.0924, 4.659729
741.5745, 3.586151
742.0566, 2.877716
742.5388, 2.517517
743.0209, 2.592560
743.5030, 3.530670
743.9851, 4.430664
744.4672, 4.852203
744.9493, 4.900848
745.4315, 4.676514
745.9136, 4.257660
746.3957, 3.994568
746.8778, 4.453278
747.3599, 5.303192
747.8420, 5.337555
748.3242, 4.527008
748.8063, 4.140625
749.2884, 4.744537
749.7705, 5.569580
750.2526, 5.734406
750.7347, 5.215210
751.2169, 4.546082
751.6990, 3.421051
752.1811, 2.540436
752.6632, 2.259583
753.1453, 2.127533
753.6274, 1.641022
754.1096, 0.8811040
754.5917, 0.3670040
755.0738, 0.4408260
755.5559, 0.7902830
756.0380, 1.130157
756.5201, 1.391144
757.0023, 1.071960
757.4844, 3.0974999E-02
757.9665, 0.6174010
758.4486, 4.1870002E-02
758.9307, 1.568878
759.4128, 2.492371
759.8950, 2.616699
760.3771, 2.475281
760.8592, 1.760559
761.3413, 1.142975
761.8234, 0.9825130
762.3055, 1.104950
762.7877, 1.134918
763.2698, 0.9522090
763.7519, 1.087402
764.2340, 2.357788
764.7161, 3.975525
765.1982, 4.738770
765.6804, 4.664276
766.1625, 4.005981
766.6446, 2.811615
767.1267, 1.639008
767.6088, 1.246796
768.0909, 1.655518
768.5731, 2.212280
769.0552, 3.467712
769.5373, 3.945679
770.0194, 2.422821
770.5015, 0.7539060
770.9836, 0.5984190
771.4658, 1.720734
771.9479, 2.521149
772.4300, 2.285004
772.9121, 1.775421
773.3942, 1.484741
773.8763, 1.278564
774.3585, 0.9141850
774.8406, 0.4001160
775.3227, 7.9375997E-02
775.8048, 0.4300840
776.2869, 0.5776060
776.7690, 0.2464600
777.2512, 0.6964110
777.7333, 1.194153
778.2154, 0.8125610
778.6975, 0.6748350
779.1796, 2.010284
779.6617, 3.712433
780.1439, 3.651154
780.6260, 1.236847
781.1081, 0.3125610
781.5902, 0.7979740
782.0723, 1.989166
782.5544, 1.184967
783.0366, 0.5408330
783.5187, 1.229553
784.0008, 0.4306340
784.4829, 0.8015440
784.9650, 1.603638
785.4471, 2.036530
785.9293, 2.261597
786.4114, 2.279358
786.8935, 2.009064
787.3756, 1.299194
787.8577, 0.6913150
788.3398, 0.7261050
788.8220, 1.330170
789.3040, 1.873077
789.7861, 2.315826
790.2682, 2.750397
790.7504, 3.275879
791.2325, 3.731201
791.7146, 4.006195
792.1967, 4.123016
792.6788, 4.094482
793.1609, 3.897644
793.6431, 3.847260
794.1252, 4.498718
794.6073, 5.357605
795.0894, 5.384949
795.5715, 4.643372
796.0536, 3.901154
796.5358, 3.457458
797.0179, 3.246307
797.5000, 3.204254
797.9821, 3.338257
798.4642, 3.485718
798.9464, 3.549652
799.4285, 3.794281
799.9106, 4.593658
800.3927, 5.350189
800.8748, 5.624481
801.3569, 5.457458
801.8391, 5.073242
802.3212, 4.078217
802.8033, 3.537628
803.2854, 4.666199
803.7675, 6.143463
804.2496, 6.130066
804.7318, 4.890991
805.2139, 4.076385
805.6960, 4.599518
806.1781, 5.672455
806.6602, 6.017731
807.1423, 5.704193
807.6245, 5.584991
808.1066, 5.702911
808.5887, 5.981750
809.0708, 6.462097
809.5529, 6.981323
810.0350, 7.375366
810.5172, 7.700409
810.9993, 7.483032
811.4814, 5.935120
811.9635, 4.845398
812.4456, 5.209198
812.9277, 5.889740
813.4099, 5.720886
813.8920, 4.782013
814.3741, 3.944397
814.8562, 3.511017
815.3383, 3.602661
815.8204, 4.848877
816.3026, 6.600586
816.7847, 7.327576
817.2668, 6.922272
817.7489, 6.161438
818.2310, 5.441925
818.7131, 4.885529
819.1953, 4.805023
819.6774, 5.312897
820.1595, 5.608124
820.6416, 5.568756
821.1237, 5.504211
821.6058, 5.558044
822.0880, 5.649933
822.5701, 5.659424
823.0522, 5.597015
823.5343, 5.617798
824.0164, 5.974152
824.4985, 6.057739
824.9807, 5.143738
825.4628, 4.167145
825.9449, 4.420837
826.4270, 5.670532
826.9091, 6.646149
827.3912, 6.685516
827.8734, 6.177826
828.3555, 5.459961
828.8376, 4.614258
829.3197, 4.179718
829.8018, 4.235107
830.2839, 4.306519
830.7661, 4.134644
831.2482, 3.756073
831.7303, 3.235992
832.2124, 2.504303
832.6945, 2.353363
833.1766, 3.372284
833.6588, 4.126648
834.1409, 4.102905
834.6230, 3.837128
835.1051, 3.873901
835.5872, 4.130524
836.0693, 3.958496
836.5515, 2.509033
837.0336, 1.630859
837.5157, 2.903809
837.9978, 4.862152
838.4799, 5.832550
838.9620, 5.879395
839.4442, 5.819489
839.9263, 5.989777
840.4084, 6.267883
840.8905, 6.724792
841.3726, 7.324890
841.8547, 7.392975
842.3369, 6.794830
842.8190, 6.152374
843.3011, 5.687286
843.7832, 5.717133
844.2653, 6.689270
844.7474, 8.491577
845.2296, 9.102783
845.7117, 7.403931
846.1938, 6.199219
846.6759, 5.772522
847.1580, 5.785370
847.6401, 6.448547
848.1223, 7.370819
848.6044, 7.544830
849.0865, 6.464722
849.5686, 5.625427
850.0507, 6.118958
850.5328, 7.048279
851.0150, 7.655914
851.4971, 7.911102
851.9792, 7.766052
852.4613, 7.232544
852.9434, 6.710663
853.4255, 6.557129
853.9077, 6.812500
854.3898, 8.002472
854.8719, 10.12839
855.3540, 10.72202
855.8361, 8.976379
856.3182, 6.988647
856.8004, 6.272949
857.2825, 6.541779
857.7646, 6.906799
858.2467, 7.565582
858.7288, 7.878265
859.2109, 7.522156
859.6931, 7.204712
860.1752, 7.360504
860.6573, 7.584442
861.1394, 7.269470
861.6215, 6.390228
862.1036, 5.741058
862.5858, 5.808167
863.0679, 6.027008
863.5500, 6.102173
864.0321, 6.044434
864.5142, 5.792938
864.9963, 5.411285
865.4785, 5.120667
865.9606, 5.040192
866.4427, 5.177277
866.9248, 5.829803
867.4069, 6.770691
867.8890, 6.529816
868.3712, 4.975616
868.8533, 3.879028
869.3354, 4.041901
869.8175, 4.739532
870.2996, 5.064758
870.7817, 5.017792
871.2639, 4.626556
871.7459, 3.507263
872.2280, 2.717987
872.7101, 2.407654
873.1923, 2.511627
873.6744, 3.475769
874.1565, 4.770081
874.6386, 5.044983
875.1207, 3.715088
875.6028, 2.494995
876.0850, 2.082520
876.5671, 1.898956
877.0492, 1.430603
877.5313, 0.9214780
878.0134, 0.9741210
878.4955, 1.629120
878.9777, 2.106995
879.4598, 1.697510
879.9419, 0.8830260
880.4240, 0.2890320
880.9061, 3.1311002E-02
881.3882, 0.3461610
881.8704, 1.424500
882.3525, 2.058960
882.8346, 1.437286
883.3167, 0.3111570
883.7988, 0.4307860
884.2809, 2.109161
884.7631, 2.561462
885.2452, 1.197235
885.7273, 7.0679002E-02
886.2094, 5.0170999E-02
886.6915, 0.4055790
887.1736, 0.2721250
887.6558, 0.3030700
888.1379, 0.5646060
888.6200, 0.1727290
889.1021, 8.0963001E-02
889.5842, 3.4179999E-03
890.0663, 0.2092290
890.5485, 0.4657590
891.0306, 0.6995540
891.5127, 0.7697750
891.9948, 0.6265870
892.4769, 0.5617980
892.9590, 0.8276670
893.4412, 1.207489
893.9233, 1.541229
894.4054, 1.794312
894.8875, 1.841156
895.3696, 1.685547
895.8517, 1.582001
896.3339, 1.761292
896.8160, 1.993103
897.2981, 1.642334
897.7802, 0.8160400
898.2623, 0.7594910
898.7444, 1.676880
899.2266, 2.130005
899.7087, 1.273346
900.1908, 0.1046450
900.6729, 0.1949160
901.1550, 1.630157
901.6371, 2.395264
902.1193, 2.102844
902.6014, 1.869507
903.0835, 2.046967
903.5656, 2.199554
904.0477, 1.910767
904.5298, 1.385651
905.0120, 1.181458
905.4941, 1.506287
905.9762, 1.711212
906.4583, 1.508362
906.9404, 1.277039
907.4225, 1.244049
907.9047, 1.318542
908.3868, 1.456451
908.8689, 1.592316
909.3510, 1.443604
909.8331, 0.6542660
910.3152, 0.1859130
910.7974, 0.3684690
911.2795, 0.2174990
911.7616, 0.3526000
912.2437, 0.7753300
912.7258, 1.051636
913.2079, 0.9743650
913.6901, 1.019104
914.1722, 2.011200
914.6543, 3.700348
915.1364, 4.563324
915.6185, 4.562317
916.1006, 4.949615
916.5828, 6.173279
917.0649, 7.204773
917.5470, 7.046539
918.0291, 6.162598
918.5112, 6.324921
918.9933, 8.243225
919.4755, 9.400360
919.9576, 9.407410
920.4397, 9.208740
920.9218, 8.703552
921.4039, 8.488464
921.8860, 9.497406
922.3682, 11.66394
922.8503, 13.27460
923.3324, 13.41049
923.8145, 13.89252
924.2966, 15.57327
924.7787, 17.48352
925.2609, 18.85703
925.7430, 19.84125
926.2251, 20.84149
926.7072, 21.97427
927.1893, 23.23297
927.6714, 24.30075
928.1536, 25.74838
928.6357, 28.69318
929.1178, 32.27997
929.5999, 34.67532
930.0820, 35.79727
930.5641, 37.14130
931.0463, 39.70590
931.5284, 42.71997
932.0105, 44.81104
932.4926, 46.26434
932.9747, 48.36154
933.4568, 51.12479
933.9390, 53.81427
934.4211, 56.13339
934.9032, 58.34357
935.3853, 60.73080
935.8674, 63.26254
936.3495, 65.67972
936.8317, 67.94702
937.3138, 70.20236
937.7959, 72.30722
938.2780, 74.76993
938.7601, 78.25613
939.2422, 82.03922
939.7244, 84.58646
940.2065, 85.46011
940.6886, 87.47202
941.1707, 92.45288
941.6528, 96.01065
942.1349, 96.45160
942.6171, 95.98489
943.0992, 95.95551
943.5813, 96.34155
944.0634, 96.96628
944.5455, 97.89505
945.0276, 98.73944
945.5098, 99.25372
945.9919, 99.74124
946.4740, 100.5074
946.9561, 101.3497
947.4382, 102.0855
947.9203, 102.6048
948.4025, 102.5952
948.8846, 101.5871
949.3667, 100.8061
949.8488, 101.8108
950.3309, 103.5768
950.8130, 104.2974
951.2952, 104.2723
951.7773, 104.9939
952.2594, 106.9368
952.7415, 109.2594
953.2236, 111.1647
953.7057, 112.8848
954.1878, 115.0027
954.6699, 117.4658
955.1520, 120.1602
955.6342, 123.1048
956.1163, 125.1655
956.5984, 125.4985
957.0805, 125.8369
957.5626, 129.3035
958.0447, 135.8593
958.5269, 140.2875
959.0090, 142.0034
959.4911, 143.7223
959.9732, 145.9308
960.4553, 148.6973
960.9374, 152.2141
961.4196, 156.1729
961.9017, 159.7225
962.3838, 162.7346
962.8659, 165.7437
963.3480, 168.6569
963.8301, 171.5960
964.3123, 174.6474
964.7944, 177.7206
965.2765, 180.8972
965.7586, 184.0474
966.2407, 186.6292
966.7228, 188.3923
967.2050, 189.9955
967.6871, 191.6069
968.1692, 193.1338
968.6513, 194.5378
969.1334, 195.7645
969.6155, 196.5949
970.0977, 197.1053
970.5798, 197.8919
971.0619, 199.2166
971.5440, 200.8894
972.0261, 202.8846
972.5082, 205.1001
972.9904, 207.3866
973.4725, 209.7979
973.9546, 212.5484
974.4367, 215.6606
974.9188, 218.7437
975.4009, 221.1300
975.8831, 223.6841
976.3652, 227.9970
976.8473, 233.2100
977.3294, 237.3054
977.8115, 240.3388
978.2936, 243.8587
978.7758, 248.6209
979.2579, 253.8350
979.7400, 258.3472
980.2221, 262.6039
980.7042, 268.5490
981.1863, 275.8636
981.6685, 281.3386
982.1506, 284.3169
982.6327, 286.8328
983.1148, 290.2727
983.5969, 293.6796
984.0790, 294.9082
984.5612, 293.9106
985.0433, 294.3812
985.5254, 296.7299
986.0075, 298.2840
986.4896, 298.2714
986.9717, 297.5086
987.4539, 296.8051
987.9360, 295.7124
988.4181, 292.6653
988.9002, 286.8846
989.3823, 281.6476
989.8644, 277.3124
990.3466, 273.1325
990.8287, 268.5538
991.3108, 264.3183
991.7929, 261.6336
992.2750, 257.1301
992.7571, 252.7893
993.2393, 249.6116
993.7214, 245.4861
994.2035, 241.1972
994.6856, 238.6896
995.1677, 235.8765
995.6498, 233.2375
996.1320, 231.4372
996.6141, 230.3837
997.0962, 229.2404
997.5783, 227.4070
998.0604, 226.2153
998.5425, 226.3980
999.0247, 226.9020
999.5068, 226.7262
999.9889, 226.6306
1000.471, 227.7205
1000.953, 230.1151
1001.435, 233.2192
1001.917, 236.9661
1002.399, 241.0811
1002.882, 245.2832
1003.364, 249.8824
1003.846, 255.6782
1004.328, 261.9685
1004.810, 267.7108
1005.292, 272.5565
1005.774, 276.2098
1006.256, 278.4386
1006.739, 279.5011
1007.221, 279.9025
1007.703, 279.1358
1008.185, 276.7234
1008.667, 272.4448
1009.149, 265.7574
1009.631, 256.5755
1010.113, 245.8181
1010.595, 233.8699
1011.078, 221.3732
1011.560, 209.4963
1012.042, 197.7914
1012.524, 184.7823
1013.006, 170.7031
1013.488, 157.3442
1013.970, 145.4406
1014.452, 134.6263
1014.935, 124.7068
1015.417, 115.3606
1015.899, 105.6709
1016.381, 95.78650
1016.863, 86.51376
1017.345, 78.01544
1017.827, 70.17645
1018.309, 62.94067
1018.791, 56.48505
1019.274, 51.16187
1019.756, 45.85031
1020.238, 42.35257
1020.720, 37.85532
1021.202, 34.57578
1021.684, 32.77945
1022.166, 31.30463
1022.648, 29.51013
1023.130, 27.51392
1023.613, 25.40857
1024.095, 23.22922
1024.577, 21.77426
1025.059, 21.17386
1025.541, 20.10944
1026.023, 18.15836
1026.505, 16.51541
1026.987, 15.98932
1027.469, 16.06604
1027.952, 15.75095
1028.434, 14.99808
1028.916, 15.06116
1029.398, 16.41785
1029.880, 16.85358
1030.362, 15.70126
1030.844, 14.16873
1031.326, 13.07202
1031.809, 12.06335
1032.291, 10.30612
1032.773, 7.600159
1033.255, 5.917450
1033.737, 5.599670
1034.219, 5.602814
1034.701, 6.010193
1035.183, 6.288147
1035.666, 6.136078
1036.148, 5.585724
1036.630, 4.670197
1037.112, 3.336792
1037.594, 1.917847
1038.076, 0.2340090
1038.558, 1.244843
1039.040, 2.474640
1039.522, 3.440277
1040.005, 3.985840
1040.487, 4.309021
1040.969, 4.888855
1041.451, 5.870789
1041.933, 6.363312
1042.415, 5.745392
1042.897, 5.489044
1043.379, 6.267456
1043.861, 7.080750
1044.344, 7.281860
1044.826, 7.054108
1045.308, 6.873016
1045.790, 6.875000
1046.272, 6.116394
1046.754, 3.120422
1047.236, 1.245453
1047.718, 2.283813
1048.201, 3.756500
1048.683, 4.326843
1049.165, 3.971405
1049.647, 2.655670
1050.129, 0.2928470
1050.611, 1.945587
1051.093, 3.870331
1051.575, 5.571167
1052.057, 7.037842
1052.540, 8.315796
1053.022, 9.212860
1053.504, 10.03040
1053.986, 11.21255
1054.468, 12.82043
1054.950, 15.02426
1055.432, 18.25784
1055.914, 21.56827
1056.396, 24.66330
1056.879, 27.68777
1057.361, 30.84384
1057.843, 33.95627
1058.325, 36.50937
1058.807, 38.46442
1059.289, 41.21207
1059.771, 46.35608
1060.253, 50.81992
1060.736, 52.86847
1061.218, 54.37888
1061.700, 56.47467
1062.182, 59.20041
1062.664, 62.46225
1063.146, 66.22522
1063.628, 70.31918
1064.110, 75.38907
1064.593, 79.80298
1065.075, 82.48779
1065.557, 84.66757
1066.039, 87.42621
1066.521, 90.24240
1067.003, 92.17041
1067.485, 93.11694
1067.967, 93.75302
1068.449, 94.36658
1068.932, 94.64273
1069.414, 94.72433
1069.896, 94.12561
1070.378, 92.02710
1070.860, 89.27155
1071.342, 87.01083
1071.824, 85.35233
1072.306, 83.65793
1072.788, 81.59860
1073.271, 79.69318
1073.753, 78.32471
1074.235, 77.04584
1074.717, 75.70642
1075.199, 74.15158
1075.681, 71.94058
1076.163, 69.28629
1076.645, 67.25296
1077.127, 66.37375
1077.610, 65.57666
1078.092, 64.16608
1078.574, 62.87915
1079.056, 62.38229
1079.538, 62.17072
1080.020, 61.61417
1080.502, 60.73999
1080.984, 59.89517
1081.467, 59.15945
1081.949, 58.61151
1082.431, 58.56381
1082.913, 58.38669
1083.395, 57.63412
1083.877, 56.60049
1084.359, 55.68582
1084.841, 54.77118
1085.323, 53.33762
1085.806, 51.17499
1086.288, 49.29361
1086.770, 47.91241
1087.252, 47.17780
1087.734, 47.84277
1088.216, 48.58511
1088.698, 48.07397
1089.180, 46.69019
1089.662, 45.40671
1090.145, 44.41483
1090.627, 43.48730
1091.109, 42.21289
1091.591, 41.40976
1092.073, 41.97830
1092.555, 42.62112
1093.037, 42.19196
1093.519, 41.17322
1094.002, 40.46521
1094.484, 40.18866
1094.966, 39.90686
1095.448, 39.22879
1095.930, 38.89969
1096.412, 39.30878
1096.894, 39.87262
1097.376, 40.32254
1097.859, 40.67331
1098.341, 40.93723
1098.823, 41.11591
1099.305, 41.26526
1099.787, 41.32083
1100.269, 41.66394
1100.751, 42.54150
1101.233, 43.42798
1101.715, 44.18585
1102.198, 44.80075
1102.680, 45.29626
1103.162, 45.63629
1103.644, 45.66095
1104.126, 45.24387
1104.608, 45.15005
1105.090, 45.33035
1105.572, 45.77386
1106.054, 46.29288
1106.537, 47.30707
1107.019, 49.56937
1107.501, 52.57153
1107.983, 55.07166
1108.465, 56.89059
1108.947, 58.12671
1109.429, 58.36209
1109.911, 58.62210
1110.394, 58.73831
1110.876, 59.32089
1111.358, 60.96609
1111.840, 63.20175
1112.322, 65.33997
1112.804, 67.37537
1113.286, 69.11188
1113.768, 70.31589
1114.250, 71.60223
1114.733, 73.10944
1115.215, 74.56488
1115.697, 75.75244
1116.179, 76.93451
1116.661, 78.53094
1117.143, 80.43304
1117.625, 81.82568
1118.107, 82.66449
1118.589, 83.05817
1119.072, 82.65942
1119.554, 82.51425
1120.036, 82.93066
1120.518, 83.77484
1121.000, 85.09616
1121.482, 86.62183
1121.964, 87.50903
1122.446, 87.65561
1122.929, 87.90366
1123.411, 88.35565
1123.893, 88.23941
1124.375, 87.16418
1124.857, 86.20581
1125.339, 86.02887
1125.821, 86.26208
1126.303, 86.29968
1126.786, 86.17538
1127.268, 86.44272
1127.750, 87.16681
1128.232, 87.28473
1128.714, 86.62723
1129.196, 86.15710
1129.678, 86.27646
1130.160, 86.73764
1130.642, 87.26556
1131.125, 87.86237
1131.607, 88.44836
1132.089, 89.10867
1132.571, 90.74423
1133.053, 93.30652
1133.535, 95.26373
1134.017, 96.19028
1134.499, 97.14484
1134.981, 98.90509
1135.464, 101.3879
1135.946, 104.9063
1136.428, 106.8802
1136.910, 111.2869
1137.392, 112.2697
1137.874, 114.2401
1138.356, 117.4607
1138.838, 120.3298
1139.321, 122.0939
1139.803, 123.2254
1140.285, 124.3950
1140.767, 125.1547
1141.249, 124.4800
1141.731, 122.8956
1142.213, 121.3075
1142.695, 119.8249
1143.177, 118.4424
1143.660, 117.1436
1144.142, 115.9445
1144.624, 115.0668
1145.106, 113.8078
1145.588, 111.4875
1146.070, 108.4304
1146.552, 104.7429
1147.034, 100.7270
1147.516, 96.80637
1147.999, 93.08365
1148.481, 89.43549
1148.963, 85.72226
1149.445, 82.34027
1149.927, 79.80795
1150.409, 77.41241
1150.891, 74.67520
1151.373, 71.78687
1151.856, 69.00537
1152.338, 66.22449
1152.820, 63.09259
1153.302, 59.54214
1153.784, 55.96106
1154.266, 52.30359
1154.748, 48.80338
1155.230, 45.33102
1155.713, 42.33774
1156.195, 40.51550
1156.677, 39.08362
1157.159, 36.94186
1157.641, 34.16962
1158.123, 31.53516
1158.605, 28.94687
1159.087, 26.82333
1159.569, 25.46161
1160.052, 24.16245
1160.534, 22.65594
1161.016, 21.25931
1161.498, 20.47061
1161.980, 19.77252
1162.462, 17.85443
1162.944, 14.48508
1163.426, 12.31482
1163.908, 11.78610
1164.391, 11.13300
1164.873, 10.05823
1165.355, 9.084381
1165.837, 8.457855
1166.319, 7.996979
1166.801, 7.470062
1167.283, 6.909119
1167.765, 6.439056
1168.247, 6.068817
1168.730, 5.531921
1169.212, 4.812134
1169.694, 4.286224
1170.176, 4.060608
1170.658, 3.928528
1171.140, 3.749664
1171.622, 3.648102
1172.104, 3.979828
1172.587, 3.505554
1173.069, 3.970184
1173.551, 2.826355
1174.033, 2.029053
1174.515, 1.708191
1174.997, 1.824524
1175.479, 2.302643
1175.961, 2.595673
1176.443, 2.207123
1176.926, 1.472198
1177.408, 0.5024410
1177.890, 0.3078000
1178.372, 6.0729999E-02
1178.854, 0.6654050
1179.336, 0.5101930
1179.818, 0.4640810
1180.300, 0.8894960
1180.782, 0.1116640
1181.265, 0.5167540
1181.747, 5.2124001E-02
1182.229, 0.7707520
1182.711, 0.9041440
1183.193, 0.8966670
1183.675, 1.287323
1184.157, 1.831329
1184.639, 1.893280
1185.122, 1.428192
1185.604, 1.361206
1186.086, 2.393555
1186.568, 3.045166
1187.050, 3.007263
1187.532, 2.621429
1188.014, 1.551025
1188.496, 0.6341550
1188.979, 0.9041140
1189.461, 1.844269
1189.943, 1.873413
1190.425, 0.7432860
1190.907, 0.2055360
1191.389, 0.4649350
1191.871, 0.7861330
1192.353, 1.156952
1192.835, 1.231567
1193.318, 0.7122800
1193.800, 0.1981200
1194.282, 0.5034480
1194.764, 0.1401060
1195.246, 0.1234440
1195.728, 0.2882690
1196.210, 9.7961001E-02
1196.692, 0.6597290
1197.174, 0.7421260
1197.657, 7.5928003E-02
1198.139, 0.2653500
1198.621, 0.4247440
1199.103, 1.178436
1199.585, 0.4971620
1200.067, 0.8633420
1200.549, 1.575195
1201.031, 1.700226
1201.514, 0.8587340
1201.996, 0.3643190
1202.478, 4.9896002E-02
1202.960, 2.333771
1203.442, 3.979919
1203.924, 3.420441
1204.406, 2.153046
1204.888, 0.8357540
1205.370, 0.2242430
1205.853, 0.7629700
1206.335, 0.8738400
1206.817, 0.4345090
1207.299, 0.2609560
1207.781, 0.4500120
1208.263, 6.6132002E-02
1208.745, 0.2758480
1209.227, 0.3322140
1209.709, 0.8651120
1210.192, 1.255646
1210.674, 1.390991
1211.156, 0.7420650
1211.638, 0.2237240
1212.120, 1.092163
1212.602, 2.776154
1213.084, 2.875488
1213.566, 0.7660220
1214.049, 0.3890380
1214.531, 2.398102
1215.013, 3.463409
1215.495, 2.807587
1215.977, 1.869720
1216.459, 1.364166
1216.941, 1.224365
1217.423, 1.438751
1217.906, 1.806335
1218.388, 1.503906
1218.870, 1.929688
1219.352, 2.133331
1219.834, 2.167480
1220.316, 2.635895
1220.798, 2.258087
1221.280, 2.175018
1221.762, 3.016632
1222.245, 3.925934
1222.727, 3.846710
1223.209, 4.528778
1223.691, 4.165131
1224.173, 5.009521
1224.655, 5.396057
1225.137, 5.329498
1225.619, 4.852661
1226.101, 4.068542
1226.584, 3.353455
1227.066, 2.944580
1227.548, 2.765930
1228.030, 3.119354
1228.512, 3.353241
1228.994, 2.845673
1229.476, 2.460175
1229.958, 3.181824
1230.441, 4.334381
1230.923, 4.586365
1231.405, 5.022888
1231.887, 5.332733
1232.369, 4.976257
1232.851, 5.337738
1233.333, 4.617004
1233.815, 4.223572
1234.297, 4.598755
1234.780, 5.206329
1235.262, 5.615906
1235.744, 5.704437
1236.226, 5.841858
1236.708, 6.039978
1237.190, 5.651001
1237.672, 5.151337
1238.154, 4.637146
1238.636, 4.137085
1239.119, 4.134674
1239.601, 4.562378
1240.083, 4.990875
1240.565, 5.078217
1241.047, 5.191162
1241.529, 5.883606
1242.011, 6.470276
1242.493, 6.892731
1242.975, 7.016205
1243.458, 6.811310
1243.940, 6.657532
1244.422, 6.178986
1244.904, 5.269043
1245.386, 4.786316
1245.868, 6.116638
1246.350, 6.578583
1246.832, 4.890594
1247.315, 3.395691
1247.797, 2.632233
1248.279, 2.176575
1248.761, 1.973938
1249.243, 1.786987
1249.725, 2.087494
1250.207, 2.674286
1250.689, 3.525665
1251.172, 4.858643
1251.654, 4.826721
1252.136, 3.241486
1252.618, 2.493073
1253.100, 3.286896
1253.582, 4.195740
1254.064, 4.158691
1254.546, 3.725433
1255.028, 3.476440
1255.510, 3.397400
1255.993, 3.559540
1256.475, 3.973267
1256.957, 4.847992
1257.439, 5.830383
1257.921, 5.557190
1258.403, 4.042328
1258.885, 3.256958
1259.367, 4.361481
1259.850, 5.107117
1260.332, 4.074829
1260.814, 2.810486
1261.296, 1.543579
1261.778, 0.7957460
1262.260, 1.259888
1262.742, 2.366913
1263.224, 3.462433
1263.707, 4.420227
1264.189, 4.278259
1264.671, 2.406006
1265.153, 1.613312
1265.635, 2.178802
1266.117, 2.687683
1266.599, 2.909760
1267.081, 2.587280
1267.563, 1.535309
1268.046, 0.6536560
1268.528, 1.087982
1269.010, 0.3762210
1269.492, 1.704315
1269.974, 0.5156860
1270.456, 0.6680910
1270.938, 1.720367
1271.420, 2.139008
1271.902, 1.846680
1272.385, 1.877533
1272.867, 2.585083
1273.349, 2.784790
1273.831, 1.291016
1274.313, 8.1055000E-02
1274.795, 0.4685360
1275.277, 1.132080
1275.759, 1.272522
1276.242, 1.039581
1276.724, 0.5184330
1277.206, 4.7300002E-03
1277.688, 0.2629390
1278.170, 0.2543030
1278.652, 0.3474730
1279.134, 1.037048
1279.616, 0.6755980
1280.099, 1.288696
1280.581, 1.469116
1281.063, 0.6047360
1281.545, 6.4727999E-02
1282.027, 0.4339290
1282.509, 1.315552
1282.991, 1.027405
1283.473, 0.3253170
1283.955, 0.0000000E+00
##END=



