##NAMES=Calcite
##RRUFFID=R050127
##IDEAL CHEMISTRY=CaCO_3_
##LOCALITY=Rodeo, Durango, Mexico
##OWNER=RRUFF
##SOURCE=Dave Bunk Minerals
##DESCRIPTION=Group of colorless crystals
##STATUS=The identification of this mineral has been confirmed by X-ray diffraction and chemical analysis
##URL=rruff.info/R050127
##MEASURED CHEMISTRY=Ca_1.00_CO_3_
129.9852, 0.0000000E+00
130.4673, 7.846985
130.9494, 2.940948
131.4316, 0.2946170
131.9137, 8.220642
132.3958, 19.21594
132.8779, 36.50439
133.3600, 63.35956
133.8421, 98.76147
134.3243, 141.2756
134.8064, 192.4739
135.2885, 250.9009
135.7706, 308.0641
136.2527, 363.0587
136.7348, 416.1753
137.2170, 467.1344
137.6991, 516.3938
138.1812, 563.9075
138.6633, 610.3154
139.1454, 656.2554
139.6275, 697.2741
140.1097, 730.9429
140.5918, 758.7554
141.0739, 788.5048
141.5560, 819.5831
142.0381, 853.0156
142.5202, 890.4001
143.0023, 932.2877
143.4845, 975.7785
143.9666, 1019.938
144.4487, 1065.099
144.9308, 1112.022
145.4129, 1160.825
145.8951, 1211.348
146.3772, 1264.470
146.8593, 1317.451
147.3414, 1376.349
147.8235, 1441.051
148.3056, 1511.159
148.7878, 1590.676
149.2699, 1680.228
149.7520, 1779.839
150.2341, 1887.855
150.7162, 1998.485
151.1983, 2124.880
151.6805, 2272.673
152.1626, 2445.102
152.6447, 2626.810
153.1268, 2830.538
153.6089, 3043.337
154.0910, 3242.756
154.5732, 3467.457
155.0553, 3645.588
155.5374, 3758.727
156.0195, 3818.565
156.5016, 3786.828
156.9837, 3634.774
157.4659, 3389.668
157.9480, 3106.947
158.4301, 2760.090
158.9122, 2411.968
159.3943, 2090.432
159.8764, 1793.178
160.3586, 1530.490
160.8407, 1309.024
161.3228, 1125.000
161.8049, 967.8086
162.2870, 840.6780
162.7691, 734.2422
163.2513, 643.5513
163.7334, 570.9056
164.2155, 507.2479
164.6976, 452.3575
165.1797, 403.7743
165.6618, 358.7030
166.1440, 317.6953
166.6261, 280.9071
167.1082, 248.4825
167.5903, 220.7939
168.0724, 197.3317
168.5545, 179.1380
169.0367, 165.5951
169.5188, 152.9100
170.0009, 138.4186
170.4830, 123.8114
170.9651, 110.5999
171.4472, 99.71332
171.9293, 90.08060
172.4115, 81.10803
172.8936, 72.76120
173.3757, 64.60074
173.8578, 56.13126
174.3399, 47.76562
174.8220, 40.03857
175.3042, 33.07092
175.7863, 26.89505
176.2684, 21.41379
176.7505, 16.62155
177.2326, 12.60529
177.7147, 9.044434
178.1969, 6.306915
178.6790, 5.293213
179.1611, 8.875305
179.6432, 13.48477
180.1253, 12.87796
180.6074, 6.794250
181.0896, 2.2705000E-02
181.5717, 2.147400
182.0538, 0.9646610
182.5359, 0.4714970
183.0180, 3.073761
183.5001, 7.439026
183.9823, 11.00620
184.4644, 13.75046
184.9465, 15.55594
185.4286, 15.22968
185.9107, 13.33731
186.3928, 12.82623
186.8750, 16.30884
187.3571, 22.26459
187.8392, 25.75937
188.3213, 26.67197
188.8034, 26.05286
189.2855, 24.84821
189.7677, 23.24921
190.2498, 21.93677
190.7319, 21.37100
191.2140, 21.43280
191.6961, 21.50571
192.1782, 21.62582
192.6604, 21.63184
193.1425, 21.26273
193.6246, 20.52182
194.1067, 19.54581
194.5888, 18.21643
195.0709, 16.59872
195.5531, 15.53571
196.0352, 15.28342
196.5173, 15.09048
196.9994, 13.21127
197.4815, 9.451141
197.9636, 6.516449
198.4458, 6.633453
198.9279, 9.842529
199.4100, 10.26428
199.8921, 7.132874
200.3742, 2.190308
200.8563, 1.440369
201.3385, 3.647980
201.8206, 5.337097
202.3027, 6.821625
202.7848, 8.074615
203.2669, 9.519653
203.7490, 11.27133
204.2311, 13.10294
204.7133, 14.48694
205.1954, 15.32233
205.6775, 16.14752
206.1596, 17.22025
206.6417, 18.56796
207.1238, 20.01498
207.6060, 21.55743
208.0881, 23.20505
208.5702, 24.90485
209.0523, 26.54520
209.5344, 28.57700
210.0165, 31.55637
210.4987, 35.98227
210.9808, 38.90555
211.4629, 39.82037
211.9450, 39.51511
212.4271, 39.59009
212.9092, 39.79636
213.3914, 40.99298
213.8735, 44.17828
214.3556, 50.45816
214.8377, 54.25549
215.3198, 54.71231
215.8019, 53.01913
216.2841, 51.75781
216.7662, 50.41760
217.2483, 50.54404
217.7304, 53.37872
218.2125, 60.24988
218.6946, 65.45743
219.1768, 68.41608
219.6589, 69.86765
220.1410, 71.68521
220.6231, 73.85022
221.1052, 76.43649
221.5873, 79.71951
222.0695, 84.31348
222.5516, 87.71939
223.0337, 89.46472
223.5158, 90.18405
223.9979, 91.48257
224.4800, 93.44858
224.9622, 95.81616
225.4443, 98.44699
225.9264, 101.3543
226.4085, 104.5323
226.8906, 107.9628
227.3727, 111.6701
227.8549, 115.9663
228.3370, 121.1350
228.8191, 126.3629
229.3012, 131.4175
229.7833, 136.3357
230.2654, 140.7921
230.7476, 144.2266
231.2297, 147.3947
231.7118, 152.0296
232.1939, 158.5532
232.6760, 165.8425
233.1581, 173.6793
233.6402, 182.4180
234.1224, 190.5667
234.6045, 198.0873
235.0866, 205.0780
235.5687, 211.4522
236.0508, 215.7619
236.5329, 221.8384
237.0151, 231.7361
237.4972, 247.3373
237.9793, 260.7313
238.4614, 270.7437
238.9435, 278.7982
239.4256, 288.3665
239.9078, 299.8839
240.3899, 312.5533
240.8720, 326.3256
241.3541, 342.0370
241.8362, 355.2808
242.3183, 364.5654
242.8005, 372.4714
243.2826, 383.7274
243.7647, 399.4709
244.2468, 416.6522
244.7289, 434.2660
245.2110, 452.3378
245.6932, 469.9531
246.1753, 486.1861
246.6574, 502.9208
247.1395, 523.2396
247.6216, 548.3866
248.1037, 574.5116
248.5859, 600.1240
249.0680, 624.2115
249.5501, 651.6773
250.0322, 683.2615
250.5143, 717.6159
250.9964, 752.8599
251.4786, 788.4570
251.9607, 826.0792
252.4428, 866.2336
252.9249, 908.3400
253.4070, 954.7832
253.8891, 1005.741
254.3713, 1060.765
254.8534, 1119.443
255.3355, 1180.508
255.8176, 1247.050
256.2997, 1319.933
256.7818, 1398.248
257.2639, 1483.712
257.7461, 1576.043
258.2282, 1676.869
258.7103, 1786.086
259.1924, 1903.372
259.6745, 2031.810
260.1566, 2169.288
260.6388, 2317.531
261.1209, 2476.257
261.6030, 2646.333
262.0851, 2827.912
262.5672, 3020.892
263.0493, 3232.421
263.5315, 3441.517
264.0136, 3645.252
264.4957, 3842.951
264.9778, 4037.048
265.4599, 4225.048
265.9420, 4411.084
266.4242, 4596.565
266.9063, 4785.414
267.3884, 4966.235
267.8705, 5134.518
268.3526, 5292.896
268.8347, 5460.453
269.3169, 5639.261
269.7990, 5819.721
270.2811, 5995.896
270.7632, 6164.146
271.2453, 6338.495
271.7274, 6522.262
272.2096, 6713.206
272.6917, 6910.667
273.1738, 7114.792
273.6559, 7330.481
274.1380, 7561.198
274.6201, 7810.271
275.1023, 8065.966
275.5844, 8326.522
276.0665, 8592.923
276.5486, 8880.517
277.0307, 9190.603
277.5128, 9510.910
277.9950, 9840.028
278.4771, 10179.62
278.9592, 10510.14
279.4413, 10842.78
279.9234, 11155.86
280.4055, 11420.19
280.8877, 11642.77
281.3698, 11778.17
281.8519, 11812.24
282.3340, 11744.89
282.8161, 11556.74
283.2982, 11242.93
283.7804, 10817.27
284.2625, 10287.07
284.7446, 9648.104
285.2267, 8971.022
285.7088, 8262.982
286.1909, 7533.295
286.6731, 6843.785
287.1552, 6192.863
287.6373, 5586.337
288.1194, 5039.999
288.6015, 4550.670
289.0836, 4109.680
289.5658, 3717.920
290.0479, 3371.900
290.5300, 3060.421
291.0121, 2786.757
291.4942, 2542.832
291.9763, 2324.739
292.4585, 2133.029
292.9406, 1958.812
293.4227, 1802.867
293.9048, 1663.081
294.3869, 1537.860
294.8690, 1426.797
295.3512, 1327.003
295.8333, 1236.384
296.3154, 1154.637
296.7975, 1077.330
297.2796, 1003.718
297.7617, 935.6813
298.2439, 878.2857
298.7260, 831.2918
299.2081, 787.8577
299.6902, 742.7261
300.1723, 698.4019
300.6544, 658.4356
301.1366, 624.5582
301.6187, 593.3743
302.1008, 559.7374
302.5829, 525.2126
303.0650, 494.3479
303.5471, 472.5813
304.0293, 455.4926
304.5114, 436.5810
304.9935, 414.7444
305.4756, 392.8231
305.9577, 372.6019
306.4398, 354.0371
306.9220, 336.8648
307.4041, 321.7071
307.8862, 307.3821
308.3683, 291.5745
308.8504, 274.2573
309.3326, 258.4224
309.8147, 247.9492
310.2968, 240.3541
310.7789, 231.7452
311.2610, 219.2098
311.7431, 206.1848
312.2252, 195.1696
312.7073, 186.1333
313.1895, 177.8488
313.6716, 170.0737
314.1537, 162.5157
314.6358, 155.0509
315.1179, 146.9942
315.6000, 139.3791
316.0822, 133.0723
316.5643, 127.8683
317.0464, 122.5554
317.5285, 116.2908
318.0106, 109.8865
318.4927, 103.9133
318.9749, 98.34680
319.4570, 93.31531
319.9391, 89.07333
320.4212, 85.41751
320.9033, 81.75620
321.3854, 77.99515
321.8676, 74.15256
322.3497, 70.29083
322.8318, 66.65668
323.3139, 62.38968
323.7960, 56.10889
324.2781, 49.36557
324.7603, 44.29514
325.2424, 43.19275
325.7245, 42.10715
326.2066, 39.92545
326.6887, 36.42059
327.1708, 32.58810
327.6530, 26.70688
328.1351, 21.32379
328.6172, 18.71664
329.0993, 23.51038
329.5814, 26.20874
330.0635, 24.51520
330.5457, 18.56772
331.0278, 14.48108
331.5099, 13.35794
331.9920, 13.33817
332.4741, 13.31348
332.9562, 13.27283
333.4384, 13.07797
333.9205, 12.65701
334.4026, 11.89746
334.8847, 10.68094
335.3668, 8.693909
335.8489, 6.869965
336.3311, 5.899841
336.8132, 6.660828
337.2953, 5.721313
337.7774, 2.086456
338.2595, 2.582947
338.7416, 4.718658
339.2238, 3.593658
339.7059, 2.080292
340.1880, 1.251740
340.6701, 1.189178
341.1522, 0.6882930
341.6343, 0.5755310
342.1165, 1.788635
342.5986, 1.787506
343.0807, 0.3701170
343.5628, 1.507782
344.0449, 3.781311
344.5270, 6.126862
345.0092, 7.646973
345.4913, 8.405396
345.9734, 8.610107
346.4555, 8.010071
346.9376, 6.689484
347.4197, 5.705261
347.9019, 5.334839
348.3840, 5.269928
348.8661, 5.173523
349.3482, 5.038635
349.8303, 4.469574
350.3124, 2.225220
350.7946, 0.6637270
351.2767, 1.065735
351.7588, 1.779266
352.2409, 5.240173
352.7230, 6.558289
353.2051, 6.084351
353.6873, 4.813080
354.1694, 1.424744
354.6515, 1.725342
355.1336, 0.4214170
355.6157, 5.560303
356.0978, 10.77301
356.5800, 9.888794
357.0621, 5.748016
357.5442, 2.580872
358.0263, 2.395081
358.5084, 3.160217
358.9905, 3.696686
359.4727, 4.037048
359.9548, 4.152100
360.4369, 3.928406
360.9190, 3.495270
361.4011, 2.870300
361.8832, 1.724091
362.3654, 1.022858
362.8475, 1.855957
363.3296, 3.513916
363.8117, 4.378906
364.2938, 3.275391
364.7759, 1.712036
365.2581, 0.1444700
365.7402, 1.596954
366.2223, 2.322021
366.7044, 0.7340390
367.1865, 1.589966
367.6686, 2.943634
368.1508, 2.520508
368.6329, 1.758392
369.1150, 0.6970520
369.5971, 0.6724240
370.0792, 1.562225
370.5613, 1.992828
371.0435, 1.933960
371.5256, 1.273743
372.0077, 1.393768
372.4898, 2.442566
372.9719, 1.128143
373.4540, 1.844482
373.9361, 4.333618
374.4182, 6.364410
374.9004, 7.850189
375.3825, 8.650879
375.8646, 8.579559
376.3467, 8.717010
376.8288, 9.347595
377.3109, 9.839935
377.7931, 8.982697
378.2752, 6.331268
378.7573, 4.297455
379.2394, 3.752930
379.7215, 4.464447
380.2036, 4.653748
380.6858, 4.242218
381.1679, 3.746979
381.6500, 3.876434
382.1321, 4.534180
382.6142, 4.462494
383.0963, 3.167953
383.5785, 1.409485
384.0606, 0.5231320
384.5427, 0.5074010
385.0248, 1.006546
385.5069, 2.242752
385.9890, 3.807098
386.4712, 4.596237
386.9533, 4.415619
387.4354, 4.096146
387.9175, 5.039124
388.3996, 6.561401
388.8817, 7.103348
389.3639, 4.943054
389.8460, 2.109131
390.3281, 0.3211980
390.8102, 0.3813630
391.2923, 2.3224000E-02
391.7744, 2.490143
392.2566, 5.671204
392.7387, 8.218979
393.2208, 10.10770
393.7029, 10.81479
394.1850, 9.098083
394.6671, 5.886444
395.1493, 3.626434
395.6314, 3.912354
396.1135, 4.854904
396.5956, 5.436981
397.0777, 5.437347
397.5598, 5.836975
398.0420, 7.653076
398.5241, 9.689606
399.0062, 10.56059
399.4883, 7.946945
399.9704, 6.320648
400.4525, 7.451340
400.9347, 11.22925
401.4168, 12.98776
401.8989, 10.71629
402.3810, 8.173660
402.8631, 7.744385
403.3452, 11.21234
403.8274, 13.34570
404.3095, 13.55910
404.7916, 12.54065
405.2737, 11.64209
405.7558, 10.62976
406.2379, 10.26343
406.7201, 11.12064
407.2022, 13.29050
407.6843, 14.53764
408.1664, 14.77795
408.6485, 14.45541
409.1306, 13.72784
409.6128, 12.54582
410.0949, 12.06151
410.5770, 12.89514
411.0591, 14.54134
411.5412, 15.63309
412.0233, 16.24046
412.5055, 16.42883
412.9876, 16.14734
413.4697, 15.29630
413.9518, 13.96051
414.4339, 12.38860
414.9160, 11.12241
415.3982, 10.02493
415.8803, 9.358521
416.3624, 9.973770
416.8445, 14.57687
417.3266, 19.24254
417.8087, 19.53949
418.2909, 15.66159
418.7730, 11.63342
419.2551, 8.914627
419.7372, 7.782166
420.2193, 8.797531
420.7014, 14.10071
421.1836, 18.32030
421.6657, 18.35011
422.1478, 15.68120
422.6299, 13.63661
423.1120, 14.09946
423.5941, 14.62880
424.0763, 13.77438
424.5584, 10.74794
425.0405, 9.081131
425.5226, 10.31352
426.0047, 12.69334
426.4868, 14.46309
426.9690, 15.51414
427.4511, 16.11389
427.9332, 16.07883
428.4153, 15.51189
428.8974, 15.02715
429.3795, 14.43639
429.8617, 14.07994
430.3438, 14.37114
430.8259, 15.73344
431.3080, 16.90642
431.7901, 17.80998
432.2722, 18.33917
432.7544, 18.48013
433.2365, 18.27014
433.7186, 17.26132
434.2007, 14.89340
434.6828, 11.68948
435.1649, 9.551178
435.6470, 8.484787
436.1292, 8.411621
436.6113, 9.602341
437.0934, 11.79318
437.5755, 14.12187
438.0576, 16.69562
438.5397, 18.82179
439.0219, 19.44290
439.5040, 18.90291
439.9861, 18.18233
440.4682, 17.67387
440.9503, 17.16881
441.4324, 16.45813
441.9146, 15.57520
442.3967, 14.72928
442.8788, 13.89209
443.3609, 13.28625
443.8430, 13.15034
444.3251, 14.00310
444.8073, 14.57669
445.2894, 14.07529
445.7715, 12.99071
446.2536, 12.47762
446.7357, 13.57828
447.2178, 14.46088
447.7000, 14.24193
448.1821, 12.54973
448.6642, 11.25371
449.1463, 10.76804
449.6284, 10.68376
450.1105, 10.46701
450.5927, 9.489182
451.0748, 9.357254
451.5569, 10.69067
452.0390, 12.91219
452.5211, 13.77943
453.0032, 12.95930
453.4854, 11.79089
453.9675, 11.07597
454.4496, 10.86819
454.9317, 9.597000
455.4138, 6.933472
455.8959, 4.270615
456.3781, 3.203018
456.8602, 3.617798
457.3423, 4.993561
457.8244, 7.911163
458.3065, 11.19690
458.7886, 12.22017
459.2708, 11.09657
459.7529, 9.322495
460.2350, 7.239929
460.7171, 5.421600
461.1992, 4.849289
461.6813, 5.746033
462.1635, 6.894577
462.6456, 7.489883
463.1277, 7.728287
463.6098, 7.916595
464.0919, 8.370209
464.5740, 8.669022
465.0562, 8.525879
465.5383, 7.980728
466.0204, 7.451736
466.5025, 7.101807
466.9846, 6.755371
467.4667, 6.294022
467.9489, 5.568329
468.4310, 5.059647
468.9131, 4.623047
469.3952, 4.489502
469.8773, 5.058975
470.3594, 6.900055
470.8416, 8.395004
471.3237, 9.413101
471.8058, 9.898895
472.2879, 9.124451
472.7700, 6.466324
473.2521, 4.079239
473.7343, 3.853806
474.2164, 6.034851
474.6985, 6.476440
475.1806, 4.452591
475.6627, 1.781387
476.1448, 0.9246520
476.6270, 1.696945
477.1091, 3.385162
477.5912, 6.789230
478.0733, 10.34189
478.5554, 10.40031
479.0375, 7.259216
479.5197, 4.232803
480.0018, 3.768478
480.4839, 4.601196
480.9660, 5.417725
481.4481, 6.014862
481.9302, 6.571091
482.4124, 6.996964
482.8945, 7.478760
483.3766, 8.334869
483.8587, 10.39844
484.3408, 12.15118
484.8229, 13.16078
485.3051, 13.38745
485.7872, 12.69884
486.2693, 9.696777
486.7514, 6.837814
487.2335, 5.579529
487.7156, 7.177078
488.1978, 7.462585
488.6799, 5.397003
489.1620, 2.712494
489.6441, 1.821625
490.1262, 3.478897
490.6083, 4.961441
491.0905, 5.655457
491.5726, 5.724930
492.0547, 6.173553
492.5368, 7.210938
493.0189, 7.405579
493.5010, 4.861969
493.9832, 0.2611540
494.4653, 1.518829
494.9474, 0.1177520
495.4295, 2.807037
495.9116, 3.981781
496.3937, 4.041870
496.8758, 4.090408
497.3579, 4.596970
497.8401, 5.139862
498.3222, 5.032043
498.8043, 4.502243
499.2864, 4.411819
499.7685, 5.610596
500.2506, 7.166916
500.7328, 8.554184
501.2149, 9.704559
501.6970, 10.18565
502.1791, 9.009995
502.6612, 7.478836
503.1433, 6.834656
503.6255, 8.555115
504.1076, 9.562286
504.5897, 9.193481
505.0718, 7.861099
505.5539, 6.745026
506.0360, 5.938019
506.5182, 5.177277
507.0003, 4.274216
507.4824, 3.182755
507.9645, 2.881760
508.4466, 3.622849
508.9287, 4.551193
509.4109, 4.645615
509.8930, 3.925354
510.3751, 4.118881
510.8572, 5.786530
511.3393, 7.833099
511.8214, 8.190430
512.3036, 7.160019
512.7857, 6.341110
513.2678, 7.174026
513.7499, 8.411179
514.2321, 7.827026
514.7142, 5.497513
515.1963, 3.414490
515.6784, 2.877991
516.1605, 3.217529
516.6426, 3.941772
517.1248, 5.292465
517.6069, 6.104889
518.0890, 5.290573
518.5711, 3.815430
519.0532, 3.084610
519.5353, 4.355774
520.0175, 5.371521
520.4996, 5.519638
520.9817, 4.901382
521.4638, 4.277466
521.9459, 3.504456
522.4280, 2.911652
522.9102, 2.607376
523.3923, 2.529800
523.8744, 3.164520
524.3565, 4.842239
524.8386, 6.576599
525.3207, 7.272858
525.8029, 6.922516
526.2849, 5.429642
526.7670, 2.030655
527.2491, 1.486404
527.7313, 0.7897190
528.2134, 3.419052
528.6955, 7.059494
529.1776, 6.555847
529.6597, 4.680313
530.1418, 5.703552
530.6240, 9.725021
531.1061, 12.79005
531.5882, 11.87994
532.0703, 8.973511
532.5524, 5.678207
533.0345, 1.244217
533.5167, 1.483292
533.9988, 0.2005000
534.4809, 3.218872
534.9630, 5.532242
535.4451, 6.295944
535.9272, 5.862885
536.4094, 3.410110
536.8915, 0.7483830
537.3736, 2.245010
537.8557, 0.4014280
538.3378, 3.294128
538.8199, 3.976669
539.3021, 2.017166
539.7842, 1.225616
540.2663, 1.929642
540.7484, 2.973389
541.2305, 2.608170
541.7126, 1.072372
542.1948, 0.3731540
542.6769, 1.205811
543.1590, 2.838928
543.6411, 4.757126
544.1232, 6.674545
544.6053, 7.509201
545.0875, 5.640152
545.5696, 3.105972
546.0517, 1.715927
546.5338, 1.528809
547.0159, 1.919891
547.4980, 3.328857
547.9802, 4.779999
548.4623, 5.468872
548.9444, 4.765930
549.4265, 4.163162
549.9086, 3.843979
550.3907, 3.762115
550.8729, 3.897491
551.3550, 4.773056
551.8371, 4.867828
552.3192, 3.429733
552.8013, 1.023499
553.2834, 4.7531001E-02
553.7656, 0.7749330
554.2477, 1.847488
554.7298, 2.579514
555.2119, 3.005020
555.6940, 3.683167
556.1761, 4.716064
556.6583, 5.174454
557.1404, 3.156082
557.6225, 9.9074997E-02
558.1046, 1.339767
558.5867, 0.9566190
559.0688, 3.533264
559.5510, 2.894547
560.0331, 0.4284670
560.5152, 1.132660
560.9973, 1.5732000E-02
561.4794, 1.689453
561.9615, 3.366211
562.4437, 4.894730
562.9258, 5.571045
563.4079, 4.567490
563.8900, 3.242767
564.3721, 2.145767
564.8542, 1.116684
565.3364, 0.9339900
565.8185, 2.218201
566.3006, 3.613876
566.7827, 3.374817
567.2648, 1.032074
567.7469, 0.1187900
568.2291, 1.641586
568.7112, 4.196274
569.1933, 5.098373
569.6754, 4.424393
570.1575, 3.043320
570.6396, 0.4797820
571.1218, 2.099731
571.6039, 2.478363
572.0860, 0.8683620
572.5681, 1.053940
573.0502, 2.553543
573.5323, 3.601395
574.0145, 4.077133
574.4966, 3.824966
574.9787, 3.681763
575.4608, 4.177719
575.9429, 4.821060
576.4250, 5.128647
576.9072, 4.833557
577.3893, 4.413467
577.8714, 3.593658
578.3535, 2.743790
578.8356, 2.867905
579.3177, 4.499146
579.7999, 5.802887
580.2820, 6.278046
580.7641, 5.962402
581.2462, 4.828049
581.7283, 2.787903
582.2104, 1.073303
582.6926, 0.9049220
583.1747, 1.856369
583.6568, 2.780869
584.1389, 3.628723
584.6210, 4.270309
585.1031, 4.223465
585.5853, 3.803665
586.0674, 3.759583
586.5495, 4.728714
587.0316, 5.657822
587.5137, 5.906067
587.9958, 5.855453
588.4780, 6.051300
588.9601, 6.946686
589.4422, 7.562851
589.9243, 7.728180
590.4064, 7.508255
590.8885, 7.209259
591.3707, 6.946121
591.8528, 6.405792
592.3349, 5.084991
592.8170, 2.741821
593.2991, 2.285812
593.7813, 4.236282
594.2634, 6.187302
594.7455, 4.942841
595.2276, 1.284821
595.7097, 0.7940670
596.1918, 0.4907840
596.6740, 0.9268950
597.1561, 2.478073
597.6382, 4.019669
598.1203, 5.294937
598.6024, 6.062775
599.0845, 6.791733
599.5667, 7.986603
600.0488, 9.272385
600.5309, 9.675232
601.0130, 7.708832
601.4951, 5.878616
601.9772, 5.410706
602.4594, 6.495590
602.9415, 7.223328
603.4236, 7.634689
603.9057, 7.637207
604.3878, 6.894852
604.8699, 5.122910
605.3521, 4.698441
605.8342, 6.105301
606.3163, 8.117401
606.7984, 9.086685
607.2805, 9.097504
607.7626, 9.302521
608.2448, 10.24200
608.7269, 11.10786
609.2090, 10.76715
609.6911, 9.515747
610.1732, 8.159882
610.6553, 6.894516
611.1375, 5.843430
611.6196, 4.208038
612.1017, 2.289780
612.5838, 3.253448
613.0659, 12.77414
613.5480, 21.46045
614.0302, 23.95453
614.5123, 18.57843
614.9944, 14.22012
615.4765, 10.77946
615.9586, 8.499100
616.4407, 8.093994
616.9229, 9.874115
617.4050, 10.60521
617.8871, 9.727203
618.3692, 8.215591
618.8513, 7.462357
619.3334, 7.404587
619.8156, 7.888092
620.2977, 9.188248
620.7798, 10.59697
621.2619, 11.51328
621.7440, 11.88914
622.2261, 11.58566
622.7083, 9.721008
623.1904, 7.844742
623.6725, 6.882462
624.1546, 6.874283
624.6367, 6.990952
625.1188, 7.211227
625.6010, 7.407578
626.0831, 7.547821
626.5652, 7.655106
627.0473, 7.553482
627.5294, 7.125793
628.0115, 6.675552
628.4937, 6.578262
628.9758, 6.767517
629.4579, 6.786850
629.9400, 6.733124
630.4221, 6.349396
630.9042, 4.907837
631.3864, 2.805893
631.8685, 1.315659
632.3506, 1.083481
632.8327, 1.444733
633.3148, 2.266937
633.7969, 3.275620
634.2791, 3.649704
634.7612, 2.218689
635.2433, 0.8861540
635.7254, 0.5358430
636.2075, 1.235046
636.6896, 1.997528
637.1718, 3.328949
637.6539, 4.063385
638.1360, 3.234787
638.6181, 0.3421020
639.1002, 0.3995210
639.5823, 1.587952
640.0645, 4.041351
640.5466, 4.795059
641.0287, 4.035370
641.5108, 2.302475
641.9929, 0.7203220
642.4750, 3.100891
642.9572, 1.499451
643.4393, 2.157471
643.9214, 4.315613
644.4035, 2.581131
644.8856, 0.3046110
645.3677, 1.229721
645.8499, 2.006653
646.3320, 1.945023
646.8141, 1.4404000E-02
647.2962, 1.666306
647.7783, 2.610413
648.2604, 2.847916
648.7426, 2.496750
649.2247, 1.202026
649.7068, 0.1674190
650.1888, 0.1279300
650.6710, 0.9960020
651.1531, 1.473480
651.6352, 1.516724
652.1173, 1.617294
652.5994, 2.753159
653.0815, 4.120804
653.5637, 3.803268
654.0458, 1.331635
654.5279, 1.009872
655.0100, 1.393799
655.4921, 0.8289950
655.9742, 0.4727330
656.4564, 1.283279
656.9385, 1.360733
657.4206, 0.2625890
657.9027, 2.710724
658.3848, 4.598557
658.8669, 6.223892
659.3491, 6.571396
659.8312, 4.891922
660.3133, 2.141495
660.7954, 1.461884
661.2775, 3.015564
661.7596, 4.054764
662.2418, 2.917358
662.7239, 0.6012120
663.2060, 0.8467250
663.6881, 1.449875
664.1702, 1.298676
664.6523, 0.2350310
665.1345, 2.043915
665.6166, 3.215546
666.0987, 3.660233
666.5808, 3.671783
667.0629, 3.168015
667.5450, 2.398514
668.0272, 1.442886
668.5093, 3.4667999E-02
668.9914, 0.7924650
669.4735, 0.6520690
669.9556, 1.4954000E-02
670.4377, 0.9016420
670.9199, 2.141586
671.4020, 2.668945
671.8841, 2.113464
672.3662, 1.418365
672.8483, 2.358963
673.3304, 4.362885
673.8126, 5.642868
674.2947, 5.270584
674.7768, 4.344772
675.2589, 3.055649
675.7410, 1.926361
676.2231, 2.164124
676.7053, 6.390411
677.1874, 9.819626
677.6695, 10.21704
678.1516, 7.992950
678.6337, 6.635498
679.1158, 6.033340
679.5980, 6.528305
680.0801, 8.814285
680.5622, 12.63377
681.0443, 14.27792
681.5264, 13.54610
682.0085, 12.41139
682.4907, 12.39520
682.9728, 13.05177
683.4549, 13.13948
683.9370, 12.55234
684.4191, 12.56233
684.9012, 14.74107
685.3834, 17.67514
685.8655, 19.77356
686.3476, 20.07568
686.8297, 21.27902
687.3118, 25.33656
687.7939, 29.92940
688.2761, 32.47527
688.7582, 31.20580
689.2403, 31.77100
689.7224, 35.01201
690.2045, 39.71536
690.6866, 43.86014
691.1688, 47.45456
691.6509, 52.03787
692.1330, 57.79507
692.6151, 65.09029
693.0972, 73.94243
693.5793, 84.71254
694.0615, 98.15430
694.5436, 112.3206
695.0257, 131.6656
695.5078, 157.7287
695.9899, 191.0293
696.4720, 233.5012
696.9542, 289.2618
697.4363, 351.2834
697.9184, 420.1244
698.4005, 495.0161
698.8826, 556.0399
699.3647, 601.4929
699.8469, 637.8601
700.3290, 665.7062
700.8111, 686.7558
701.2932, 711.3622
701.7753, 739.1951
702.2574, 770.2628
702.7396, 804.0917
703.2217, 841.2382
703.7038, 881.8174
704.1859, 925.5782
704.6680, 976.4641
705.1501, 1031.693
705.6323, 1097.459
706.1144, 1179.164
706.5965, 1272.007
707.0786, 1391.562
707.5607, 1543.667
708.0428, 1716.795
708.5250, 1901.442
709.0071, 2101.115
709.4892, 2295.735
709.9713, 2482.560
710.4534, 2670.813
710.9355, 2875.202
711.4177, 3093.545
711.8998, 3324.486
712.3819, 3618.513
712.8640, 3844.493
713.3461, 3918.237
713.8282, 3837.584
714.3104, 3592.397
714.7925, 3042.447
715.2746, 2481.873
715.7567, 1952.352
716.2388, 1474.293
716.7209, 1098.292
717.2031, 848.9484
717.6852, 659.5889
718.1673, 518.4942
718.6494, 420.3837
719.1315, 344.4460
719.6136, 290.9037
720.0958, 249.1809
720.5779, 218.0850
721.0600, 193.4559
721.5421, 170.9254
722.0242, 150.3438
722.5063, 132.5112
722.9885, 118.1124
723.4706, 106.0859
723.9527, 96.44084
724.4348, 89.28180
724.9169, 82.23093
725.3990, 74.46599
725.8812, 67.59259
726.3633, 62.84305
726.8454, 60.39728
727.3275, 56.97040
727.8096, 52.41684
728.2917, 47.88544
728.7739, 44.65381
729.2560, 42.21829
729.7381, 39.08948
730.2202, 34.98276
730.7023, 31.41235
731.1844, 29.98116
731.6666, 29.38464
732.1487, 28.23015
732.6308, 25.91113
733.1129, 23.76166
733.5950, 21.75485
734.0771, 20.15611
734.5593, 19.24419
735.0414, 19.12906
735.5235, 19.53636
736.0056, 20.86606
736.4877, 21.84897
736.9698, 20.08710
737.4520, 16.15915
737.9341, 12.99898
738.4162, 11.45889
738.8983, 10.64433
739.3804, 9.706558
739.8625, 8.852005
740.3447, 8.411392
740.8268, 8.402390
741.3089, 8.940430
741.7910, 11.23546
742.2731, 13.92346
742.7552, 13.73949
743.2374, 8.457123
743.7195, 5.409241
744.2016, 6.796341
744.6837, 10.44392
745.1658, 11.01807
745.6479, 8.669220
746.1301, 6.319977
746.6122, 5.196365
747.0943, 4.688034
747.5764, 3.875900
748.0585, 2.954926
748.5406, 2.602036
749.0228, 4.021225
749.5049, 5.217300
749.9870, 5.109543
750.4691, 3.832687
750.9512, 2.606827
751.4333, 1.328827
751.9155, 0.3568730
752.3976, 0.2202450
752.8797, 0.3975980
753.3618, 1.9592000E-02
753.8439, 0.9326320
754.3260, 1.846008
754.8082, 2.465515
755.2903, 2.745422
755.7724, 2.280365
756.2545, 1.249237
756.7366, 0.8307190
757.2188, 2.389359
757.7009, 3.953171
758.1830, 4.484665
758.6651, 3.862045
759.1472, 2.558029
759.6293, 0.3159940
760.1115, 2.571442
760.5936, 2.991669
761.0757, 1.563568
761.5578, 2.9602000E-02
762.0399, 1.833191
762.5220, 3.343109
763.0042, 4.008072
763.4863, 4.281738
763.9684, 4.984970
764.4505, 6.034607
764.9326, 6.819077
765.4147, 6.838654
765.8969, 6.412827
766.3790, 5.641724
766.8611, 4.339005
767.3432, 3.595612
767.8253, 3.730118
768.3074, 4.113434
768.7896, 4.392578
769.2717, 4.588272
769.7538, 4.422943
770.2359, 3.831741
770.7180, 3.223145
771.2001, 2.563065
771.6823, 2.273132
772.1644, 3.661591
772.6465, 7.189667
773.1285, 10.09807
773.6107, 10.25949
774.0928, 9.185181
774.5749, 8.195251
775.0570, 7.637497
775.5391, 6.771408
776.0212, 5.186417
776.5034, 3.699783
776.9855, 3.162155
777.4676, 3.661774
777.9497, 3.719788
778.4318, 3.044006
778.9139, 3.009338
779.3961, 6.715912
779.8782, 11.87866
780.3603, 13.46204
780.8424, 9.641556
781.3245, 5.447235
781.8066, 3.842010
782.2888, 3.384140
782.7709, 2.560562
783.2530, 0.5664370
783.7351, 1.034103
784.2172, 2.899109
784.6993, 7.567978
785.1815, 8.507431
785.6636, 5.577454
786.1457, 3.309906
786.6278, 2.253403
787.1099, 1.887955
787.5920, 1.393143
788.0742, 1.185364
788.5563, 2.336319
789.0384, 6.019913
789.5205, 8.639664
790.0026, 7.563126
790.4847, 4.848892
790.9669, 2.763138
791.4490, 1.226776
791.9311, 0.8887330
792.4132, 2.271957
792.8953, 4.209503
793.3774, 5.212234
793.8596, 5.303604
794.3417, 5.300323
794.8238, 5.339584
795.3059, 5.302719
795.7880, 4.721451
796.2701, 4.075012
796.7523, 4.200592
797.2344, 5.865707
797.7165, 7.236694
798.1986, 7.653839
798.6807, 7.434006
799.1628, 7.067688
799.6450, 7.004272
800.1271, 5.486725
800.6092, 1.633392
801.0913, 2.307434
801.5734, 2.597473
802.0555, 0.1235050
802.5377, 2.229843
803.0198, 3.080872
803.5019, 3.072815
803.9840, 1.712433
804.4661, 5.9204001E-02
804.9482, 0.3618470
805.4304, 1.723114
805.9125, 3.636765
806.3946, 4.963425
806.8767, 5.597961
807.3588, 5.218094
807.8409, 3.453537
808.3231, 2.167587
808.8052, 1.541565
809.2873, 1.371094
809.7694, 1.670471
810.2515, 2.206070
810.7336, 2.212158
811.2158, 1.363052
811.6979, 0.6008450
812.1800, 1.021744
812.6621, 1.720596
813.1442, 1.647552
813.6263, 0.5443570
814.1085, 1.626984
814.5906, 1.503845
815.0727, 0.2026210
815.5548, 3.041931
816.0369, 8.499771
816.5190, 10.88004
817.0012, 9.354782
817.4833, 6.293320
817.9654, 3.564224
818.4475, 1.361481
818.9296, 0.1974950
819.4117, 0.4146420
819.8939, 0.4667820
820.3760, 1.277878
820.8581, 2.996613
821.3402, 2.760788
821.8223, 1.067490
822.3044, 2.878662
822.7866, 1.763489
823.2687, 0.3764190
823.7508, 2.320038
824.2329, 6.764221
824.7150, 8.012100
825.1971, 5.219772
825.6793, 2.042877
826.1614, 1.846039
826.6435, 2.995728
827.1256, 3.822525
827.6077, 4.053818
828.0898, 3.836304
828.5720, 2.863052
829.0541, 1.730392
829.5362, 0.6571500
830.0183, 0.5674290
830.5004, 0.4790800
830.9825, 1.112442
831.4647, 3.074371
831.9468, 4.889511
832.4289, 6.176315
832.9110, 5.637314
833.3931, 3.171692
833.8752, 0.9058380
834.3574, 0.2833400
834.8395, 0.4394990
835.3216, 0.9279630
835.8037, 4.528198
836.2858, 5.730209
836.7679, 3.279449
837.2501, 0.6093750
837.7322, 9.6786000E-02
838.2143, 0.9627530
838.6964, 1.514694
839.1785, 1.556412
839.6606, 1.485458
840.1428, 1.454575
840.6249, 1.548004
841.1070, 1.826996
841.5891, 2.297119
842.0712, 3.032349
842.5533, 4.547211
843.0355, 5.713104
843.5176, 6.006836
843.9997, 5.490189
844.4818, 5.017242
844.9639, 4.572906
845.4460, 4.252335
845.9282, 4.171768
846.4103, 4.219299
846.8924, 4.266464
847.3745, 4.272079
847.8566, 4.013626
848.3387, 2.223495
848.8209, 1.133118
849.3030, 2.923584
849.7851, 6.804642
850.2672, 8.281158
850.7493, 6.126434
851.2314, 3.910126
851.7136, 2.554184
852.1957, 1.845474
852.6778, 1.087219
853.1599, 0.3461150
853.6420, 0.1322630
854.1241, 0.7658840
854.6063, 1.889130
855.0884, 3.870453
855.5705, 6.007889
856.0526, 6.859711
856.5347, 3.888809
857.0168, 2.361771
857.4990, 4.167099
857.9811, 7.196457
858.4632, 6.825668
858.9453, 2.615646
859.4274, 0.6032560
859.9095, 2.690842
860.3917, 6.157455
860.8738, 8.592697
861.3559, 9.714676
861.8380, 8.764252
862.3201, 4.009460
862.8022, 0.1491090
863.2844, 0.6635740
863.7665, 0.2213130
864.2486, 1.282578
864.7307, 2.755646
865.2128, 3.487930
865.6949, 3.047684
866.1771, 2.913101
866.6592, 5.773697
867.1413, 10.23213
867.6234, 12.06323
868.1055, 10.44974
868.5876, 8.254593
869.0698, 6.622070
869.5519, 5.799316
870.0340, 6.295715
870.5161, 8.997177
870.9982, 9.779922
871.4803, 7.782028
871.9625, 5.206528
872.4446, 3.457703
872.9267, 2.578171
873.4088, 2.445099
873.8909, 3.038544
874.3730, 3.687897
874.8552, 3.967773
875.3373, 3.983429
875.8194, 3.666443
876.3015, 3.060104
876.7836, 2.765533
877.2657, 3.098450
877.7479, 3.588898
878.2300, 4.011215
878.7121, 4.380295
879.1942, 5.222214
879.6763, 6.695251
880.1584, 7.797256
880.6406, 8.078690
881.1227, 7.814438
881.6048, 7.209091
882.0869, 6.347427
882.5690, 5.458817
883.0511, 4.323975
883.5333, 3.529129
884.0154, 3.207901
884.4975, 3.349487
884.9796, 4.149307
885.4617, 5.833328
885.9438, 6.819611
886.4260, 6.601379
886.9081, 6.070053
887.3902, 6.850739
887.8723, 8.251831
888.3544, 8.782959
888.8365, 7.621887
889.3187, 6.593536
889.8008, 6.399765
890.2829, 6.773972
890.7650, 7.483917
891.2471, 8.805557
891.7292, 9.792557
892.2114, 10.55615
892.6935, 10.55054
893.1756, 8.414185
893.6577, 5.159317
894.1398, 4.000519
894.6219, 5.305328
895.1041, 6.513535
895.5862, 5.635834
896.0683, 4.410919
896.5504, 3.949539
897.0325, 4.353958
897.5146, 5.144760
897.9967, 6.661865
898.4788, 7.854111
898.9609, 7.921951
899.4431, 7.297882
899.9252, 7.844666
900.4073, 9.359177
900.8894, 10.61696
901.3715, 10.80405
901.8536, 10.52940
902.3358, 10.12898
902.8179, 9.596359
903.3000, 8.904800
903.7821, 8.170044
904.2642, 7.048126
904.7463, 4.951859
905.2285, 2.979431
905.7106, 4.494522
906.1927, 8.907700
906.6748, 11.59169
907.1569, 10.61758
907.6390, 8.741180
908.1212, 8.032532
908.6033, 7.998520
909.0854, 7.963989
909.5675, 7.046951
910.0496, 7.893036
910.5317, 11.79114
911.0139, 16.03458
911.4960, 17.98056
911.9781, 17.72795
912.4602, 15.92017
912.9423, 12.50301
913.4244, 9.719650
913.9066, 10.05176
914.3887, 11.60504
914.8708, 12.52135
915.3529, 12.52505
915.8350, 12.47998
916.3171, 12.14275
916.7993, 12.20872
917.2814, 13.29855
917.7635, 15.18842
918.2456, 15.67940
918.7277, 14.76834
919.2098, 13.83838
919.6920, 13.95889
920.1741, 14.46274
920.6562, 14.30391
921.1383, 13.83295
921.6204, 14.28818
922.1025, 17.63571
922.5847, 19.68576
923.0668, 19.19751
923.5489, 17.69286
924.0310, 18.58675
924.5131, 21.69193
924.9952, 22.45181
925.4774, 19.50015
925.9595, 15.74170
926.4416, 13.64680
926.9237, 12.68408
927.4058, 12.12061
927.8879, 11.56915
928.3701, 12.22343
928.8522, 15.47469
929.3343, 18.35187
929.8164, 18.42824
930.2985, 15.75273
930.7806, 13.36966
931.2628, 11.28479
931.7449, 10.50278
932.2270, 13.20770
932.7091, 16.51144
933.1912, 17.39188
933.6733, 15.95099
934.1555, 14.62050
934.6376, 14.13347
935.1197, 13.52795
935.6018, 12.34756
936.0839, 10.97519
936.5660, 10.68990
937.0482, 11.43820
937.5303, 12.39661
938.0124, 13.35777
938.4945, 14.31142
938.9766, 15.60472
939.4587, 16.78612
939.9409, 17.18190
940.4230, 16.00716
940.9051, 14.89326
941.3872, 13.88620
941.8693, 13.00583
942.3514, 12.06778
942.8336, 11.18291
943.3157, 11.77251
943.7978, 14.01564
944.2799, 15.75717
944.7620, 15.00240
945.2441, 13.11061
945.7263, 10.88324
946.2084, 8.376587
946.6905, 6.980453
947.1726, 7.176910
947.6547, 7.714325
948.1368, 8.193329
948.6190, 8.591949
949.1011, 8.815430
949.5832, 8.891602
950.0653, 8.985672
950.5474, 9.216568
951.0295, 9.446075
951.5117, 10.04121
951.9938, 10.45972
952.4759, 9.550262
952.9580, 6.115540
953.4401, 3.623810
953.9222, 2.284760
954.4044, 2.066711
954.8865, 3.798187
955.3686, 6.679016
955.8507, 7.597107
956.3328, 6.050476
956.8149, 4.162201
957.2971, 2.983704
957.7792, 2.277771
958.2613, 1.942566
958.7434, 1.980560
959.2255, 2.063263
959.7076, 2.091675
960.1898, 2.505646
960.6719, 3.869720
961.1540, 5.565704
961.6361, 6.428253
962.1182, 6.381683
962.6003, 5.160309
963.0825, 0.7875060
963.5646, 2.680908
964.0467, 2.845032
964.5288, 1.357910
965.0109, 1.138275
965.4930, 2.744232
965.9752, 2.746552
966.4573, 0.2475590
966.9394, 2.127716
967.4215, 0.2805180
967.9036, 3.573853
968.3857, 5.676544
968.8679, 5.300049
969.3500, 4.692291
969.8321, 4.557983
970.3142, 4.523163
970.7963, 4.253326
971.2784, 3.824677
971.7606, 4.498291
972.2427, 6.320374
972.7248, 7.573120
973.2069, 7.041931
973.6890, 5.691620
974.1711, 4.160858
974.6533, 2.794403
975.1354, 2.330444
975.6175, 4.589691
976.0996, 5.505219
976.5817, 3.599854
977.0638, 1.190186
977.5460, 2.240356
978.0281, 6.282837
978.5102, 7.958038
978.9923, 6.365479
979.4744, 4.086456
979.9565, 2.953247
980.4387, 2.417450
980.9208, 2.080383
981.4029, 1.940796
981.8850, 1.558502
982.3671, 0.8128050
982.8492, 9.7321004E-02
983.3314, 0.3407290
983.8135, 0.6487430
984.2956, 1.173004
984.7777, 1.950012
985.2598, 3.115936
985.7419, 5.433044
986.2241, 7.392578
986.7062, 7.839935
987.1883, 7.605865
987.6704, 8.221802
988.1525, 10.17358
988.6346, 11.19629
989.1168, 10.95581
989.5989, 10.32382
990.0810, 10.09933
990.5631, 10.22839
991.0452, 10.83337
991.5273, 11.92935
992.0095, 12.66177
992.4916, 12.30222
992.9737, 11.86365
993.4558, 11.42999
993.9379, 11.25784
994.4200, 13.25638
994.9022, 17.42670
995.3843, 21.15942
995.8664, 23.45297
996.3485, 24.76202
996.8306, 25.04089
997.3127, 24.82291
997.7949, 24.97034
998.2770, 25.44495
998.7591, 26.82620
999.2412, 29.67905
999.7233, 32.55124
1000.205, 33.74057
1000.688, 33.62979
1001.170, 34.28467
1001.652, 35.76358
1002.134, 37.06122
1002.616, 37.29526
1003.098, 37.29282
1003.580, 37.44144
1004.062, 37.77762
1004.544, 38.42511
1005.027, 39.49222
1005.509, 40.59076
1005.991, 41.44189
1006.473, 42.65482
1006.955, 45.61664
1007.437, 49.58939
1007.919, 53.44797
1008.401, 57.47668
1008.884, 59.57196
1009.366, 56.94937
1009.848, 53.92480
1010.330, 53.17953
1010.812, 54.72729
1011.294, 57.36136
1011.776, 61.14890
1012.258, 64.22321
1012.740, 64.69702
1013.223, 64.60901
1013.705, 66.41592
1014.187, 69.20511
1014.669, 69.75406
1015.151, 65.31665
1015.633, 63.05438
1016.115, 64.72885
1016.597, 67.65063
1017.080, 67.72073
1017.562, 65.67068
1018.044, 63.66727
1018.526, 62.05057
1019.008, 60.91739
1019.490, 61.14996
1019.972, 61.10757
1020.454, 59.09164
1020.936, 55.16248
1021.419, 54.17944
1021.901, 56.80148
1022.383, 58.58386
1022.865, 56.85437
1023.347, 53.60031
1023.829, 51.37741
1024.311, 50.11459
1024.793, 49.33188
1025.276, 48.94092
1025.758, 48.34097
1026.240, 47.66315
1026.722, 46.95782
1027.204, 46.13831
1027.686, 45.18021
1028.168, 44.27740
1028.650, 43.42227
1029.132, 41.93399
1029.615, 38.32208
1030.097, 34.62100
1030.579, 31.93015
1031.061, 30.53860
1031.543, 31.12067
1032.025, 34.41321
1032.507, 36.67700
1032.989, 36.84412
1033.471, 35.54343
1033.954, 32.84625
1034.436, 30.11966
1034.918, 29.67255
1035.400, 32.60526
1035.882, 34.34543
1036.364, 33.51471
1036.846, 32.11398
1037.328, 31.04398
1037.811, 30.19116
1038.293, 28.93076
1038.775, 27.34024
1039.257, 26.26599
1039.739, 26.41858
1040.221, 27.02463
1040.703, 28.21332
1041.185, 29.28265
1041.667, 28.73224
1042.150, 25.54565
1042.632, 23.88089
1043.114, 24.25568
1043.596, 25.39737
1044.078, 25.90399
1044.560, 27.36133
1045.042, 27.89017
1045.524, 30.55865
1046.006, 32.98029
1046.489, 34.99643
1046.971, 36.26007
1047.453, 36.46338
1047.935, 35.99353
1048.417, 35.75604
1048.899, 35.78445
1049.381, 36.22754
1049.863, 36.95303
1050.346, 38.67264
1050.828, 42.74100
1051.310, 47.56369
1051.792, 51.37561
1052.274, 53.79947
1052.756, 57.07141
1053.238, 61.14255
1053.720, 66.31766
1054.203, 73.31924
1054.685, 81.16266
1055.167, 88.22507
1055.649, 94.74600
1056.131, 101.3859
1056.613, 108.9285
1057.095, 115.6338
1057.577, 120.8092
1058.059, 125.6985
1058.542, 132.0281
1059.024, 139.4706
1059.506, 145.1728
1059.988, 148.9571
1060.470, 154.5801
1060.952, 164.5808
1061.434, 177.2571
1061.916, 191.4746
1062.398, 207.4308
1062.881, 225.5588
1063.363, 245.4841
1063.845, 270.0631
1064.327, 299.9673
1064.809, 334.3341
1065.291, 371.5581
1065.773, 413.1671
1066.255, 463.8309
1066.738, 528.2874
1067.220, 582.9080
1067.702, 632.4885
1068.184, 658.6757
1068.666, 640.7117
1069.148, 597.1775
1069.630, 578.1331
1070.112, 586.3559
1070.594, 630.9404
1071.077, 697.1882
1071.559, 825.6290
1072.041, 1006.277
1072.523, 1279.776
1073.005, 1694.597
1073.487, 2251.560
1073.969, 2938.987
1074.451, 3759.683
1074.933, 4524.009
1075.416, 5088.551
1075.898, 5534.520
1076.380, 5882.080
1076.862, 6161.339
1077.344, 6470.024
1077.826, 6810.507
1078.308, 7195.624
1078.790, 7619.752
1079.273, 8097.074
1079.755, 8628.161
1080.237, 9221.188
1080.719, 9869.850
1081.201, 10562.38
1081.683, 11457.58
1082.165, 12479.48
1082.647, 13893.73
1083.129, 15735.65
1083.612, 18073.62
1084.094, 21210.40
1084.576, 25104.35
1085.058, 29597.69
1085.540, 34709.07
1086.022, 40237.71
1086.504, 48688.45
1086.986, 55665.41
1087.469, 57289.58
1087.951, 53320.70
1088.433, 45730.22
1088.915, 34228.97
1089.397, 23341.55
1089.879, 15726.27
1090.361, 10390.90
1090.843, 6891.147
1091.325, 4826.917
1091.807, 3386.204
1092.290, 2643.222
1092.772, 2076.823
1093.254, 1683.633
1093.736, 1400.983
1094.218, 1184.809
1094.700, 1021.619
1095.182, 890.1688
1095.664, 786.9288
1096.147, 698.4036
1096.629, 622.9948
1097.111, 557.8033
1097.593, 502.4915
1098.075, 455.4049
1098.557, 414.7704
1099.039, 380.2015
1099.521, 349.6856
1100.004, 323.2233
1100.486, 299.7990
1100.968, 280.5569
1101.450, 263.0062
1101.932, 245.6554
1102.414, 228.5184
1102.896, 212.4503
1103.378, 197.4750
1103.860, 184.4016
1104.343, 174.3306
1104.825, 165.1157
1105.307, 154.0019
1105.789, 142.5697
1106.271, 132.7328
1106.753, 125.2139
1107.235, 117.6971
1107.717, 110.0991
1108.199, 102.7524
1108.682, 95.49197
1109.164, 88.92422
1109.646, 84.03467
1110.128, 80.51581
1110.610, 77.74881
1111.092, 77.03494
1111.574, 74.67508
1112.056, 69.79733
1112.539, 64.66229
1113.021, 61.22845
1113.503, 59.01086
1113.985, 56.18680
1114.467, 52.78751
1114.949, 49.29044
1115.431, 45.35913
1115.913, 42.22241
1116.396, 40.74405
1116.878, 39.99884
1117.360, 38.14478
1117.842, 35.32578
1118.324, 34.57523
1118.806, 36.43219
1119.288, 37.23709
1119.770, 32.56458
1120.252, 27.26328
1120.734, 25.11600
1121.217, 25.51962
1121.699, 25.12094
1122.181, 23.89417
1122.663, 22.06522
1123.145, 19.41528
1123.627, 17.35080
1124.109, 18.35172
1124.591, 20.26492
1125.074, 20.57025
1125.556, 18.60406
1126.038, 17.04739
1126.520, 15.94473
1127.002, 15.30695
1127.484, 15.37131
1127.966, 15.51694
1128.448, 13.46844
1128.931, 10.76688
1129.413, 10.42023
1129.895, 15.25061
1130.377, 17.49124
1130.859, 15.70279
1131.341, 12.81143
1131.823, 10.37845
1132.305, 8.401520
1132.787, 6.848022
1133.270, 5.745789
1133.752, 5.171326
1134.234, 5.945068
1134.716, 6.159027
1135.198, 4.899689
1135.680, 3.378876
1136.162, 3.058289
1136.644, 3.709991
1137.126, 2.633270
1137.609, 7.6290001E-03
1138.091, 1.764160
1138.573, 7.4371003E-02
1139.055, 1.476318
1139.537, 0.5817870
1140.019, 1.344635
1140.501, 2.111603
1140.983, 1.712860
1141.466, 1.627655
1141.948, 1.987061
1142.430, 2.174164
1142.912, 1.157318
1143.394, 0.2568050
1143.876, 0.7198790
1144.358, 2.215454
1144.840, 3.128448
1145.323, 3.386597
1145.805, 3.491821
1146.287, 3.603729
1146.769, 3.365845
1147.251, 0.8786010
1147.733, 1.208435
1148.215, 1.146179
1148.697, 8.342743
1149.179, 10.57541
1149.661, 6.271973
1150.144, 2.268188
1150.626, 0.5216060
1151.108, 0.4467160
1151.590, 2.456879
1152.072, 5.065948
1152.554, 5.972168
1153.036, 4.315826
1153.518, 3.240875
1154.001, 3.181396
1154.483, 3.102844
1154.965, 2.493011
1155.447, 1.622192
1155.929, 0.9672240
1156.411, 0.5025020
1156.893, 0.1299740
1157.375, 0.4013980
1157.858, 0.2678530
1158.340, 0.8669430
1158.822, 2.159302
1159.304, 3.433350
1159.786, 4.328583
1160.268, 3.111755
1160.750, 0.4624330
1161.232, 1.390472
1161.714, 0.7428890
1162.197, 0.3439640
1162.679, 0.9005130
1163.161, 1.685089
1163.643, 2.259735
1164.125, 2.546356
1164.607, 2.004303
1165.089, 0.7203370
1165.571, 0.8051450
1166.053, 4.071045
1166.536, 5.275696
1167.018, 1.520660
1167.500, 3.546783
1167.982, 6.159882
1168.464, 6.440155
1168.946, 4.639404
1169.428, 0.9609990
1169.910, 1.597412
1170.393, 3.0210000E-03
1170.875, 2.049377
1171.357, 2.408661
1171.839, 2.207275
1172.321, 3.648346
1172.803, 6.624817
1173.285, 7.893494
1173.767, 7.051178
1174.250, 6.073761
1174.732, 6.551331
1175.214, 7.200775
1175.696, 7.239166
1176.178, 6.797943
1176.660, 6.131958
1177.142, 5.239258
1177.624, 4.415039
1178.106, 3.669739
1178.589, 3.505402
1179.071, 5.222382
1179.553, 6.965240
1180.035, 6.955872
1180.517, 5.587311
1180.999, 5.110870
1181.481, 5.609436
1181.963, 5.612030
1182.445, 4.586700
1182.928, 3.750397
1183.410, 4.761414
1183.892, 6.186462
1184.374, 6.130280
1184.856, 7.728546
1185.338, 5.721680
1185.820, 9.669891
1186.302, 12.49484
1186.785, 12.60623
1187.267, 11.93396
1187.749, 12.33566
1188.231, 13.16177
1188.713, 13.74255
1189.195, 14.02890
1189.677, 13.82532
1190.159, 13.06042
1190.641, 12.33057
1191.124, 11.90475
1191.606, 11.55280
1192.088, 10.44125
1192.570, 9.525177
1193.052, 10.47818
1193.534, 14.24609
1194.016, 15.15411
1194.498, 12.74124
1194.980, 10.28027
1195.463, 9.371399
1195.945, 9.332611
1196.427, 9.833130
1196.909, 10.51614
1197.391, 10.74387
1197.873, 9.914124
1198.355, 10.70233
1198.837, 13.54471
1199.320, 15.79160
1199.802, 15.13492
1200.284, 13.67603
1200.766, 14.48663
1201.248, 16.22406
1201.730, 16.33521
1202.212, 13.34061
1202.694, 11.40482
1203.177, 10.53665
1203.659, 10.74927
1204.141, 12.86880
1204.623, 15.42053
1205.105, 16.81375
1205.587, 17.22888
1206.069, 17.07608
1206.551, 15.85666
1207.033, 14.68015
1207.516, 14.03677
1207.998, 13.33313
1208.480, 11.40063
1208.962, 9.405151
1209.444, 8.864197
1209.926, 9.357544
1210.408, 10.06213
1210.890, 11.45132
1211.372, 11.72607
1211.854, 10.53522
1212.337, 9.218536
1212.819, 8.811188
1213.301, 9.038879
1213.783, 9.917480
1214.265, 11.15012
1214.747, 11.83578
1215.229, 11.93433
1215.711, 11.39145
1216.194, 10.02051
1216.676, 8.730072
1217.158, 8.732300
1217.640, 9.035645
1218.122, 8.397095
1218.604, 8.726807
1219.086, 9.114563
1219.568, 8.837128
1220.051, 9.655029
1220.533, 9.458191
1221.015, 9.137146
1221.497, 9.493256
1221.979, 10.14252
1222.461, 10.74945
1222.943, 11.25061
1223.425, 11.71512
1223.907, 12.22192
1224.390, 11.82834
1224.872, 10.66541
1225.354, 9.151367
1225.836, 6.351349
1226.318, 4.019897
1226.800, 4.372894
1227.282, 6.743927
1227.764, 7.630524
1228.246, 6.867950
1228.729, 7.568329
1229.211, 10.30139
1229.693, 12.83795
1230.175, 13.43472
1230.657, 12.79556
1231.139, 10.62726
1231.621, 7.656494
1232.103, 6.754211
1232.586, 8.182861
1233.068, 9.826080
1233.550, 11.45883
1234.032, 12.23312
1234.514, 10.42221
1234.996, 8.277588
1235.478, 7.708099
1235.960, 8.379242
1236.443, 9.218201
1236.925, 10.33237
1237.407, 10.05051
1237.889, 7.878906
1238.371, 5.830139
1238.853, 5.955078
1239.335, 6.522797
1239.817, 6.355682
1240.299, 5.563171
1240.781, 4.103363
1241.264, 2.176483
1241.746, 2.383362
1242.228, 5.375244
1242.710, 8.187042
1243.192, 8.395599
1243.674, 8.035858
1244.156, 8.204071
1244.638, 7.706848
1245.121, 7.999084
1245.603, 6.673462
1246.085, 5.673431
1246.567, 5.217621
1247.049, 4.992950
1247.531, 4.930298
1248.013, 4.905151
1248.495, 4.750183
1248.978, 4.653534
1249.460, 5.384308
1249.942, 6.788452
1250.424, 7.813721
1250.906, 8.273346
1251.388, 8.100677
1251.870, 5.773163
1252.352, 4.726501
1252.834, 6.731689
1253.317, 9.889923
1253.799, 9.937805
1254.281, 7.878693
1254.763, 6.373657
1255.245, 6.008148
1255.727, 5.901489
1256.209, 5.793243
1256.691, 5.991974
1257.173, 6.791565
1257.656, 7.464539
1258.138, 6.602753
1258.620, 5.033936
1259.102, 3.999634
1259.584, 3.696045
1260.066, 4.614929
1260.548, 7.762726
1261.030, 9.588684
1261.513, 8.935242
1261.995, 7.004608
1262.477, 4.639923
1262.959, 2.483154
1263.441, 1.522400
1263.923, 1.909760
1264.405, 2.573914
1264.887, 3.559326
1265.370, 4.417267
1265.852, 5.059326
1266.334, 5.184998
1266.816, 4.470398
1267.298, 3.480621
1267.780, 3.022461
1268.262, 3.081909
1268.744, 2.680939
1269.226, 1.730957
1269.708, 0.9144590
1270.191, 0.1817630
1270.673, 0.6430970
1271.155, 5.768982
1271.637, 10.48413
1272.119, 8.962219
1272.601, 3.253326
1273.083, 1.411652
1273.565, 3.172638
1274.048, 4.051849
1274.530, 3.079193
1275.012, 1.823792
1275.494, 0.9554750
1275.976, 0.7268980
1276.458, 1.436310
1276.940, 2.682098
1277.422, 3.388611
1277.905, 3.724670
1278.387, 4.620453
1278.869, 6.279358
1279.351, 7.519043
1279.833, 7.303284
1280.315, 7.140686
1280.797, 7.777740
1281.279, 8.444244
1281.761, 7.048523
1282.244, 4.687469
1282.726, 4.619873
1283.208, 7.246460
1283.690, 8.485626
1284.172, 5.776978
1284.654, 4.145721
1285.136, 5.083160
1285.618, 6.786591
1286.100, 6.782471
1286.583, 5.818146
1287.065, 5.108429
1287.547, 4.694092
1288.029, 3.360748
1288.511, 0.5281370
1288.993, 0.8907780
1289.475, 0.2405090
1289.957, 1.231964
1290.440, 2.756836
1290.922, 3.898956
1291.404, 4.241699
1291.886, 3.761353
1292.368, 2.454742
1292.850, 5.5298001E-02
1293.332, 0.2332760
1293.814, 2.202271
1294.297, 4.607941
1294.779, 4.083832
1295.261, 3.446350
1295.743, 5.660675
1296.225, 4.342133
1296.707, 7.787354
1297.189, 3.669067
1297.671, 0.9928890
1298.153, 0.6806340
1298.635, 1.615753
1299.118, 5.514343
1299.600, 7.472809
1300.082, 5.109375
1300.564, 1.494537
1301.046, 1.077393
1301.528, 2.911438
1302.010, 4.627747
1302.492, 5.923401
1302.975, 6.262085
1303.457, 4.889923
1303.939, 3.242096
1304.421, 1.282013
1304.903, 2.1149000E-02
1305.385, 0.0000000E+00
##END=



