##NAMES=Calcite
##RRUFFID=R050130
##IDEAL CHEMISTRY=CaCO_3_
##LOCALITY=Mexico
##OWNER=RRUFF
##SOURCE=Dave Bunk Minerals
##DESCRIPTION=Colorless cleavage rhomb
##STATUS=The identification of this mineral has been confirmed by X-ray diffraction and chemical analysis
##URL=rruff.info/R050130
##MEASURED CHEMISTRY=Ca_1.00_CO_3_; trace amounts of Si (?)
133.5831, 0.0000000E+00
134.0652, 0.7890630
134.5473, 2.418488
135.0294, 8.806305
135.5115, 15.78839
135.9937, 21.76355
136.4758, 26.38446
136.9579, 31.25821
137.4400, 36.15692
137.9221, 40.99564
138.4042, 44.80508
138.8864, 48.20715
139.3685, 52.66138
139.8506, 59.46997
140.3327, 68.84882
140.8148, 79.35458
141.2969, 91.05914
141.7791, 103.5004
142.2612, 116.3670
142.7433, 129.6144
143.2254, 143.2450
143.7075, 157.0481
144.1896, 170.8547
144.6718, 186.7183
145.1539, 205.4692
145.6360, 226.1789
146.1181, 247.2433
146.6002, 267.9367
147.0823, 290.3527
147.5645, 317.3602
148.0466, 348.1965
148.5287, 381.5559
149.0108, 415.8623
149.4929, 451.9709
149.9750, 492.7390
150.4572, 537.6968
150.9393, 589.4078
151.4214, 649.5421
151.9035, 717.9045
152.3856, 789.7698
152.8677, 868.0840
153.3499, 954.0151
153.8320, 1020.599
154.3141, 1066.122
154.7962, 1086.907
155.2783, 1076.031
155.7604, 1033.908
156.2425, 969.5787
156.7247, 889.8196
157.2068, 785.6176
157.6889, 687.2852
158.1710, 592.3450
158.6531, 504.8451
159.1352, 427.1152
159.6174, 361.0341
160.0995, 306.2370
160.5816, 258.6596
161.0637, 218.8830
161.5458, 185.9166
162.0279, 161.8076
162.5101, 143.1193
162.9922, 126.5892
163.4743, 111.6024
163.9564, 99.17648
164.4385, 88.61147
164.9206, 79.15567
165.4028, 69.96890
165.8849, 61.73161
166.3670, 54.31104
166.8491, 47.83713
167.3312, 42.52493
167.8133, 38.21541
168.2955, 34.37387
168.7776, 31.45323
169.2597, 28.61308
169.7418, 25.30937
170.2239, 21.61682
170.7060, 18.11226
171.1882, 14.81514
171.6703, 12.15697
172.1524, 10.65079
172.6345, 10.84142
173.1166, 11.47903
173.5987, 11.43466
174.0809, 10.69142
174.5630, 9.769196
175.0451, 8.710846
175.5272, 7.631210
176.0093, 6.776672
176.4914, 6.382706
176.9736, 5.980728
177.4557, 4.555145
177.9378, 1.404037
178.4199, 1.002762
178.9020, 1.443909
179.3841, 0.9964600
179.8663, 0.6865080
180.3484, 0.9449460
180.8305, 1.694504
181.3126, 2.747711
181.7947, 4.592560
182.2768, 6.026566
182.7590, 7.074020
183.2411, 7.555939
183.7232, 7.009781
184.2053, 5.039429
184.6874, 2.087463
185.1695, 0.9378360
185.6517, 3.743866
186.1338, 6.261520
186.6159, 7.910538
187.0980, 8.825150
187.5801, 9.264481
188.0622, 9.365631
188.5444, 9.150040
189.0265, 8.974396
189.5086, 8.914917
189.9907, 8.820068
190.4728, 8.673859
190.9549, 8.456451
191.4371, 7.505188
191.9192, 6.012527
192.4013, 4.114075
192.8834, 3.494171
193.3655, 5.399933
193.8476, 7.273499
194.3298, 8.105637
194.8119, 7.840271
195.2940, 6.310181
195.7761, 2.749512
196.2582, 2.277435
196.7403, 5.273499
197.2225, 4.708771
197.7046, 3.201660
198.1867, 2.715134
198.6688, 3.286713
199.1509, 4.126999
199.6330, 4.746292
200.1152, 5.255539
200.5973, 5.888702
201.0794, 6.443893
201.5615, 7.294434
202.0436, 9.225128
202.5257, 12.56883
203.0079, 15.47520
203.4900, 16.56151
203.9721, 16.60039
204.4542, 16.38379
204.9363, 15.95872
205.4184, 15.60538
205.9006, 15.89906
206.3827, 17.02530
206.8648, 18.41025
207.3469, 20.22488
207.8290, 22.01859
208.3111, 23.11032
208.7933, 22.96138
209.2754, 22.12680
209.7575, 22.33174
210.2396, 24.43312
210.7217, 26.24112
211.2038, 26.86546
211.6860, 26.94379
212.1681, 27.33769
212.6502, 28.58797
213.1323, 30.40704
213.6144, 31.46652
214.0965, 31.05208
214.5787, 30.70207
215.0608, 30.48170
215.5429, 30.54344
216.0250, 31.14931
216.5071, 32.49640
216.9892, 34.41060
217.4714, 35.87740
217.9535, 36.27805
218.4356, 36.84914
218.9177, 38.00150
219.3998, 39.40305
219.8819, 40.49156
220.3641, 40.91551
220.8462, 40.82266
221.3283, 41.17288
221.8104, 42.43166
222.2925, 43.57886
222.7746, 44.48904
223.2568, 45.14835
223.7389, 45.39999
224.2210, 45.05502
224.7031, 44.37790
225.1852, 44.93753
225.6673, 47.79124
226.1495, 50.43172
226.6316, 52.25945
227.1137, 53.33975
227.5958, 53.69955
228.0779, 53.13164
228.5600, 52.10605
229.0422, 52.47754
229.5243, 54.95903
230.0064, 57.62337
230.4885, 59.63802
230.9706, 61.24992
231.4527, 63.24977
231.9349, 66.17784
232.4170, 69.56386
232.8991, 72.27037
233.3812, 74.30943
233.8633, 75.76665
234.3454, 76.02789
234.8276, 75.51454
235.3097, 76.08394
235.7918, 78.81456
236.2739, 82.59924
236.7560, 85.56989
237.2381, 87.60968
237.7203, 89.41306
238.2024, 91.13467
238.6845, 92.81963
239.1666, 95.04550
239.6487, 98.50867
240.1308, 102.0811
240.6130, 104.0154
241.0951, 103.9966
241.5772, 104.6690
242.0593, 108.6679
242.5414, 115.8094
243.0235, 122.2491
243.5057, 126.4600
243.9878, 129.6412
244.4699, 132.6382
244.9520, 135.5829
245.4341, 138.8597
245.9162, 142.7704
246.3984, 147.3343
246.8805, 152.4018
247.3626, 157.5723
247.8447, 163.6947
248.3268, 171.7377
248.8089, 181.4948
249.2911, 191.3583
249.7732, 199.4045
250.2553, 205.5313
250.7374, 213.1617
251.2195, 223.1626
251.7016, 233.9971
252.1838, 244.7124
252.6659, 255.5729
253.1480, 267.9078
253.6301, 283.0347
254.1122, 301.2190
254.5943, 319.8013
255.0765, 337.4203
255.5586, 356.7256
256.0407, 378.6870
256.5228, 403.3330
257.0049, 430.2138
257.4870, 459.0861
257.9691, 489.9550
258.4513, 522.2279
258.9334, 554.7527
259.4155, 590.2767
259.8976, 631.0120
260.3797, 675.4814
260.8618, 720.6084
261.3440, 763.9240
261.8261, 805.7098
262.3082, 849.2264
262.7903, 899.1996
263.2724, 945.9119
263.7545, 986.5048
264.2367, 1022.333
264.7188, 1055.781
265.2009, 1088.059
265.6830, 1119.440
266.1651, 1151.005
266.6472, 1182.818
267.1294, 1214.933
267.6115, 1247.007
268.0936, 1279.492
268.5757, 1312.936
269.0578, 1347.527
269.5399, 1383.494
270.0221, 1421.660
270.5042, 1461.833
270.9863, 1504.648
271.4684, 1550.982
271.9505, 1599.782
272.4326, 1649.260
272.9148, 1698.817
273.3969, 1749.634
273.8790, 1804.736
274.3611, 1865.479
274.8432, 1929.717
275.3253, 1996.849
275.8075, 2067.841
276.2896, 2145.367
276.7717, 2230.413
277.2538, 2319.531
277.7359, 2407.239
278.2180, 2498.711
278.7002, 2579.709
279.1823, 2654.245
279.6644, 2715.786
280.1465, 2762.054
280.6286, 2791.428
281.1107, 2797.116
281.5929, 2769.323
282.0750, 2699.911
282.5571, 2606.311
283.0392, 2480.453
283.5213, 2335.653
284.0034, 2177.469
284.4856, 2008.527
284.9677, 1837.124
285.4498, 1670.770
285.9319, 1509.214
286.4140, 1360.614
286.8961, 1224.440
287.3783, 1100.580
287.8604, 990.7346
288.3425, 894.4020
288.8246, 808.3034
289.3067, 731.0653
289.7888, 663.2034
290.2710, 603.0622
290.7531, 551.5585
291.2352, 505.8689
291.7173, 465.4044
292.1994, 429.6985
292.6815, 397.0541
293.1637, 366.4846
293.6458, 338.2426
294.1279, 313.2506
294.6100, 292.4547
295.0921, 273.5203
295.5742, 255.5123
296.0564, 238.5984
296.5385, 223.4410
297.0206, 210.4849
297.5027, 199.2301
297.9848, 188.0312
298.4669, 176.3955
298.9491, 165.5969
299.4312, 156.1579
299.9133, 147.7379
300.3954, 139.7218
300.8775, 131.8672
301.3596, 124.2778
301.8418, 117.1998
302.3239, 110.3791
302.8060, 104.4203
303.2881, 99.77682
303.7702, 95.99391
304.2523, 92.72321
304.7345, 89.97264
305.2166, 87.00932
305.6987, 82.57082
306.1808, 76.45064
306.6629, 71.55104
307.1451, 69.20587
307.6272, 67.75484
308.1093, 65.56755
308.5914, 62.43277
309.0735, 58.82704
309.5556, 54.92258
310.0378, 50.80275
310.5199, 47.45441
311.0020, 45.38609
311.4841, 43.77539
311.9662, 42.01846
312.4483, 40.10750
312.9305, 38.30853
313.4126, 36.82817
313.8947, 35.58452
314.3768, 34.11935
314.8589, 32.48097
315.3410, 30.59764
315.8232, 28.09531
316.3053, 25.22601
316.7874, 22.92859
317.2695, 21.70369
317.7516, 21.23769
318.2337, 20.74921
318.7159, 20.18745
319.1980, 19.70863
319.6801, 19.56073
320.1622, 19.51421
320.6443, 19.09305
321.1264, 18.12602
321.6086, 16.82130
322.0907, 15.39755
322.5728, 13.77844
323.0549, 12.50052
323.5370, 11.97290
324.0191, 11.72722
324.5013, 11.18285
324.9834, 10.23157
325.4655, 9.092712
325.9476, 7.885483
326.4297, 6.621109
326.9118, 5.595306
327.3940, 5.253784
327.8761, 4.879333
328.3582, 3.477203
328.8403, 1.161942
329.3224, 0.4465480
329.8045, 0.1401060
330.2867, 2.549896
330.7688, 3.724091
331.2509, 2.684052
331.7330, 1.119034
332.2151, 0.3391420
332.6972, 1.541588
333.1794, 2.066452
333.6615, 1.530525
334.1436, 0.4342350
334.6257, 0.1748350
335.1078, 0.9848630
335.5899, 1.934601
336.0721, 3.044403
336.5542, 4.085457
337.0363, 4.654327
337.5184, 4.632584
338.0005, 4.117287
338.4826, 3.026360
338.9648, 1.008263
339.4469, 4.8492000E-02
339.9290, 0.9826660
340.4111, 2.584053
340.8932, 3.083984
341.3753, 2.314461
341.8575, 1.562126
342.3396, 2.115768
342.8217, 4.069443
343.3038, 5.093719
343.7859, 5.060997
344.2680, 4.379845
344.7502, 2.791481
345.2323, 0.6209260
345.7144, 1.028603
346.1965, 1.405167
346.6786, 0.7034000
347.1607, 7.0039998E-03
347.6429, 1.022263
348.1250, 1.679756
348.6071, 1.670776
349.0892, 1.206779
349.5713, 0.5157700
350.0534, 0.3660580
350.5356, 1.172615
351.0177, 1.254311
351.4998, 0.1386720
351.9819, 0.9730380
352.4640, 0.8364410
352.9461, 0.2449190
353.4283, 0.4195860
353.9104, 1.052261
354.3925, 1.606064
354.8746, 2.050529
355.3567, 2.418785
355.8388, 2.447983
356.3210, 1.664070
356.8031, 0.9757460
357.2852, 1.064087
357.7673, 1.722809
358.2494, 2.140739
358.7315, 1.664124
359.2137, 0.4523620
359.6958, 0.1863100
360.1779, 2.015678
360.6600, 3.405907
361.1421, 3.443680
361.6242, 2.853043
362.1064, 2.732559
362.5885, 3.547478
363.0706, 4.775749
363.5527, 5.265755
364.0348, 4.354042
364.5169, 3.699509
364.9991, 3.185425
365.4812, 2.998314
365.9633, 3.428764
366.4454, 4.435059
366.9275, 5.573936
367.4096, 6.342911
367.8918, 6.658348
368.3739, 7.046394
368.8560, 8.191620
369.3381, 8.740196
369.8202, 7.589104
370.3023, 5.402542
370.7845, 3.680252
371.2666, 3.442528
371.7487, 4.451141
372.2308, 5.366570
372.7129, 6.239258
373.1950, 6.920090
373.6772, 7.286888
374.1593, 7.500793
374.6414, 7.772156
375.1235, 8.169090
375.6056, 8.497513
376.0877, 8.278069
376.5699, 7.059929
377.0520, 6.592400
377.5341, 8.047287
378.0162, 9.425461
378.4983, 9.439354
378.9804, 8.163963
379.4626, 6.680908
379.9447, 6.023239
380.4268, 6.168350
380.9089, 5.885483
381.3910, 4.754234
381.8731, 3.721428
382.3553, 2.963005
382.8374, 2.572304
383.3195, 2.766220
383.8016, 3.811600
384.2837, 5.243004
384.7658, 6.099503
385.2480, 6.326866
385.7301, 6.167297
386.2122, 5.645538
386.6943, 4.797882
387.1764, 3.303429
387.6585, 1.097588
388.1407, 0.6173860
388.6228, 0.3444140
389.1049, 1.750580
389.5870, 3.335243
390.0691, 3.954002
390.5512, 4.098328
391.0334, 4.160332
391.5155, 4.161552
391.9976, 4.061234
392.4797, 3.554581
392.9618, 2.968132
393.4439, 3.049561
393.9261, 3.917023
394.4082, 4.704712
394.8903, 5.132645
395.3724, 5.148338
395.8545, 4.563278
396.3366, 3.044876
396.8188, 1.575287
397.3009, 0.7786330
397.7830, 0.5421370
398.2651, 0.5866620
398.7472, 1.063309
399.2293, 1.546265
399.7115, 1.161964
400.1936, 0.1749340
400.6757, 1.275620
401.1578, 1.619026
401.6399, 1.503372
402.1220, 1.327034
402.6042, 1.098289
403.0863, 0.5977480
403.5684, 0.4235080
404.0505, 1.838219
404.5326, 2.620514
405.0147, 2.405388
405.4969, 1.915840
405.9790, 1.455856
406.4611, 1.036865
406.9432, 0.5250170
407.4253, 0.2073210
407.9074, 0.8280260
408.3896, 0.5431900
408.8717, 1.355339
409.3538, 2.811081
409.8359, 3.522041
410.3180, 3.842262
410.8001, 4.076096
411.2823, 4.258270
411.7644, 4.173332
412.2465, 3.524536
412.7286, 2.177063
413.2107, 1.773720
413.6928, 3.233833
414.1750, 4.511795
414.6571, 4.840454
415.1392, 4.511490
415.6213, 4.101578
416.1034, 3.908882
416.5855, 3.430946
417.0677, 2.889549
417.5498, 2.478508
418.0319, 1.744316
418.5140, 1.125000
418.9961, 0.7603680
419.4782, 0.7980580
419.9604, 1.227600
420.4425, 1.891777
420.9246, 2.750221
421.4067, 3.828629
421.8888, 4.388428
422.3709, 3.945465
422.8531, 3.543068
423.3352, 3.596596
423.8173, 3.908195
424.2994, 4.156334
424.7815, 4.201431
425.2636, 4.105064
425.7458, 3.832199
426.2279, 3.197395
426.7100, 3.184654
427.1921, 4.986420
427.6742, 6.872276
428.1563, 7.515556
428.6385, 6.837280
429.1206, 5.733902
429.6027, 4.355003
430.0848, 3.004440
430.5669, 3.075951
431.0490, 5.291161
431.5312, 7.357971
432.0133, 7.207397
432.4954, 5.738937
432.9775, 4.588509
433.4596, 4.244972
433.9417, 4.195030
434.4239, 3.975609
434.9060, 3.628761
435.3881, 3.405533
435.8702, 3.342354
436.3523, 3.542236
436.8344, 4.391823
437.3166, 6.072937
437.7987, 7.164993
438.2808, 6.822578
438.7629, 5.959793
439.2450, 5.779976
439.7271, 6.373016
440.2093, 6.679520
440.6914, 5.642128
441.1735, 3.387016
441.6556, 2.350494
442.1377, 3.028221
442.6198, 4.162712
443.1020, 5.960373
443.5841, 7.787102
444.0662, 8.478142
444.5483, 7.599365
445.0304, 6.039192
445.5125, 5.260361
445.9947, 5.490486
446.4768, 6.051872
446.9589, 7.996498
447.4410, 9.447281
447.9231, 8.951256
448.4052, 6.904274
448.8874, 4.751976
449.3695, 3.537003
449.8516, 3.115837
450.3337, 2.652206
450.8158, 1.811592
451.2979, 1.478310
451.7801, 2.270836
452.2622, 3.343132
452.7443, 3.841293
453.2264, 3.561996
453.7085, 3.057465
454.1906, 3.006500
454.6728, 3.401787
455.1549, 3.498390
455.6370, 2.987602
456.1191, 2.620796
456.6012, 2.848206
457.0833, 3.451569
457.5655, 3.945168
458.0476, 4.107391
458.5297, 3.990479
459.0118, 3.673714
459.4939, 3.183723
459.9760, 2.607620
460.4582, 1.761787
460.9403, 1.056030
461.4224, 1.174652
461.9045, 2.242844
462.3866, 3.098267
462.8687, 2.866112
463.3508, 2.129364
463.8329, 1.666550
464.3151, 1.576752
464.7972, 1.801567
465.2793, 2.416046
465.7614, 3.304245
466.2435, 3.596321
466.7256, 2.784103
467.2078, 2.090538
467.6899, 2.011238
468.1720, 2.319893
468.6541, 2.690170
469.1362, 3.011353
469.6183, 3.273277
470.1005, 3.472404
470.5826, 3.639084
471.0647, 3.668304
471.5468, 3.153168
472.0289, 2.806068
472.5110, 3.180855
472.9932, 4.041039
473.4753, 4.658340
473.9574, 4.586006
474.4395, 4.101440
474.9216, 3.952339
475.4037, 4.304428
475.8859, 4.660904
476.3680, 5.313675
476.8501, 5.689796
477.3322, 5.072144
477.8143, 3.606216
478.2964, 2.405792
478.7786, 2.764275
479.2607, 4.328865
479.7428, 4.706779
480.2249, 3.257683
480.7070, 1.997375
481.1891, 2.279259
481.6713, 3.182083
482.1534, 3.493881
482.6355, 2.785469
483.1176, 2.045830
483.5997, 2.198357
484.0818, 3.035416
484.5640, 3.814987
485.0461, 4.474831
485.5282, 4.786919
486.0103, 4.194870
486.4924, 2.863365
486.9745, 2.210007
487.4567, 2.887512
487.9388, 3.907684
488.4209, 4.898956
488.9030, 5.703728
489.3851, 5.816322
489.8672, 4.935387
490.3494, 3.517067
490.8315, 2.458473
491.3136, 1.874878
491.7957, 1.505287
492.2778, 1.601051
492.7599, 1.705872
493.2421, 1.324097
493.7242, 0.6335220
494.2063, 0.2491990
494.6884, 0.7172160
495.1705, 1.854538
495.6526, 2.659615
496.1348, 3.139915
496.6169, 3.238602
497.0990, 2.362778
497.5811, 1.534439
498.0632, 1.892235
498.5453, 3.465584
499.0275, 4.947098
499.5096, 4.880173
499.9917, 3.473373
500.4738, 2.778618
500.9559, 3.253571
501.4380, 3.538429
501.9202, 2.333847
502.4023, 0.7225420
502.8844, 0.3105320
503.3665, 1.753075
503.8486, 3.565720
504.3307, 4.885117
504.8129, 5.672775
505.2950, 5.279335
505.7771, 3.376015
506.2592, 1.246635
506.7413, 9.8595001E-02
507.2234, 7.6935001E-02
507.7056, 0.1529770
508.1877, 1.364723
508.6698, 2.374977
509.1519, 2.222656
509.6340, 1.387672
510.1161, 1.018799
510.5983, 1.628952
511.0804, 2.593781
511.5625, 2.823784
512.0446, 2.049362
512.5267, 1.285744
513.0089, 7.7056997E-02
513.4910, 0.7017210
513.9731, 0.3761830
514.4552, 0.7578580
514.9373, 2.060715
515.4194, 3.209038
515.9016, 4.043884
516.3837, 4.004295
516.8658, 2.640228
517.3479, 1.631577
517.8300, 1.773567
518.3121, 1.937675
518.7943, 1.110519
519.2764, 0.4760440
519.7585, 1.453587
520.2406, 0.3803250
520.7227, 1.672485
521.2048, 2.156441
521.6870, 0.8489460
522.1691, 0.1920320
522.6512, 0.1283720
523.1333, 1.123138
523.6154, 1.592407
524.0975, 1.413834
524.5797, 1.266945
525.0618, 1.481911
525.5439, 1.836845
526.0260, 2.168793
526.5081, 2.421906
526.9902, 2.256668
527.4724, 1.303055
527.9545, 0.2245030
528.4366, 0.9838520
528.9187, 0.1656040
529.4008, 0.3059770
529.8829, 0.3589170
530.3651, 1.147209
530.8472, 0.9107480
531.3293, 0.3981090
531.8114, 1.810577
532.2935, 2.373848
532.7756, 2.132919
533.2578, 2.031296
533.7399, 2.164314
534.2220, 2.295708
534.7041, 2.578430
535.1862, 2.716003
535.6683, 2.199753
536.1505, 0.9352380
536.6326, 0.1539190
537.1147, 3.7380001E-03
537.5968, 1.115978
538.0789, 1.774395
538.5610, 1.725178
539.0432, 1.694660
539.5253, 2.452141
540.0074, 3.515079
540.4895, 3.731659
540.9716, 2.540962
541.4537, 1.319046
541.9359, 0.8470800
542.4180, 0.8064770
542.9001, 0.5507770
543.3822, 4.7703002E-02
543.8643, 0.3958020
544.3464, 0.2135540
544.8286, 1.829021
545.3107, 2.577751
545.7928, 1.638580
546.2749, 0.9401740
546.7570, 1.299545
547.2391, 2.013992
547.7213, 2.120811
548.2034, 1.400631
548.6855, 0.5168230
549.1676, 0.3476600
549.6497, 0.9635540
550.1318, 1.082642
550.6140, 9.7540002E-03
551.0961, 0.5530050
551.5782, 0.5123330
552.0603, 2.213741
552.5424, 3.251717
553.0245, 3.234295
553.5067, 2.740421
553.9888, 2.038311
554.4709, 1.258942
554.9530, 0.9789510
555.4351, 1.385155
555.9172, 1.882759
556.3994, 1.952827
556.8815, 1.693699
557.3636, 1.691452
557.8457, 2.410221
558.3278, 2.857555
558.8099, 2.236267
559.2921, 1.247898
559.7742, 1.142910
560.2563, 2.125225
560.7384, 2.998787
561.2205, 2.347977
561.7026, 5.8846001E-02
562.1848, 1.022240
562.6669, 0.2072940
563.1490, 1.418163
563.6311, 2.266754
564.1132, 2.830086
564.5953, 3.198589
565.0775, 3.411030
565.5596, 3.516014
566.0417, 3.706364
566.5238, 3.914570
567.0059, 3.260010
567.4880, 1.193481
567.9702, 0.5004120
568.4523, 0.6093900
568.9344, 0.1863250
569.4165, 1.086803
569.8986, 2.075726
570.3807, 2.877815
570.8629, 3.183693
571.3450, 3.209576
571.8271, 3.441505
572.3092, 3.937176
572.7913, 4.481033
573.2734, 4.954010
573.7556, 5.336422
574.2377, 5.511257
574.7198, 5.711514
575.2019, 5.405075
575.6840, 3.821903
576.1661, 2.163486
576.6483, 1.588192
577.1304, 2.126385
577.6125, 3.014610
578.0946, 3.839218
578.5767, 4.546429
579.0588, 5.073757
579.5410, 5.519974
580.0231, 5.565563
580.5052, 4.380356
580.9873, 3.175606
581.4694, 3.182327
581.9515, 4.388672
582.4337, 5.160084
582.9158, 4.036678
583.3979, 2.146057
583.8800, 1.235634
584.3621, 1.336647
584.8442, 2.077255
585.3264, 3.518135
585.8085, 5.137592
586.2906, 5.841709
586.7727, 5.530647
587.2548, 5.012539
587.7369, 3.898140
588.2191, 2.929428
588.7012, 2.837646
589.1833, 3.476040
589.6654, 4.250687
590.1475, 4.927208
590.6296, 5.405899
591.1118, 5.108772
591.5939, 3.550930
592.0760, 2.622738
592.5581, 3.282032
593.0402, 3.832523
593.5223, 3.202579
594.0045, 1.893826
594.4866, 1.035770
594.9687, 1.156403
595.4508, 1.864807
595.9329, 3.000660
596.4150, 4.453899
596.8972, 5.406780
597.3793, 5.591976
597.8614, 5.400650
598.3435, 5.075096
598.8256, 4.693119
599.3077, 4.739265
599.7899, 5.726696
600.2720, 6.599922
600.7541, 6.877705
601.2362, 6.806210
601.7183, 6.747017
602.2004, 6.836842
602.6826, 6.770119
603.1647, 6.115685
603.6468, 4.906525
604.1289, 4.401573
604.6110, 5.139252
605.0931, 5.744854
605.5753, 5.863853
606.0574, 5.710396
606.5395, 5.447685
607.0216, 5.112198
607.5037, 4.731121
607.9858, 3.967049
608.4680, 3.274391
608.9501, 3.895470
609.4322, 5.934757
609.9143, 7.469368
610.3964, 7.487473
610.8785, 6.586159
611.3607, 5.854130
611.8428, 5.143845
612.3249, 5.041054
612.8070, 6.151146
613.2891, 7.413574
613.7712, 8.319817
614.2534, 8.820992
614.7355, 8.673279
615.2176, 7.836594
615.6997, 6.702923
616.1818, 5.998127
616.6639, 5.777821
617.1461, 5.711384
617.6282, 6.043552
618.1103, 6.227608
618.5924, 5.994122
619.0745, 5.451595
619.5566, 4.703217
620.0388, 3.582634
620.5209, 2.802212
621.0030, 3.157505
621.4851, 4.158699
621.9672, 4.453972
622.4493, 3.801239
622.9315, 3.054249
623.4136, 2.858540
623.8957, 3.129917
624.3778, 3.353306
624.8599, 3.323265
625.3420, 3.527851
625.8242, 4.403023
626.3063, 5.244267
626.7884, 5.343262
627.2705, 4.769569
627.7526, 4.212177
628.2347, 4.179256
628.7169, 4.443386
629.1990, 4.375847
629.6811, 3.947453
630.1632, 3.303238
630.6453, 2.183052
631.1274, 1.172436
631.6096, 0.7430800
632.0917, 0.8113170
632.5738, 1.017502
633.0559, 1.254078
633.5380, 1.592094
634.0201, 2.092556
634.5023, 2.736382
634.9844, 3.732037
635.4665, 5.130428
635.9486, 5.880203
636.4307, 4.629463
636.9128, 1.332668
637.3950, 0.4474720
637.8771, 0.7193980
638.3592, 1.680519
638.8413, 1.790524
639.3234, 1.602890
639.8055, 1.668560
640.2877, 2.035183
640.7698, 2.350025
641.2519, 2.294487
641.7340, 2.013737
642.2161, 1.938847
642.6982, 2.099445
643.1804, 2.021812
643.6625, 1.432739
644.1446, 0.6767880
644.6267, 8.3942004E-02
645.1088, 0.3815990
645.5909, 0.2301710
646.0731, 1.772118
646.5552, 3.231491
647.0373, 2.046085
647.5194, 0.4623950
648.0015, 1.840305
648.4836, 1.345070
648.9658, 2.2980001E-02
649.4479, 0.9732860
649.9300, 1.649277
650.4121, 1.723049
650.8942, 0.6217650
651.3763, 0.1086270
651.8585, 0.4995990
652.3406, 1.386963
652.8227, 1.461609
653.3048, 0.6086240
653.7869, 0.2866250
654.2690, 0.9144780
654.7512, 1.203911
655.2333, 0.8260190
655.7154, 7.6632999E-02
656.1975, 0.6386870
656.6796, 0.4694560
657.1617, 7.5138003E-02
657.6439, 0.4802400
658.1260, 0.8042110
658.6081, 0.7312810
659.0902, 1.3451000E-02
659.5723, 0.7871890
660.0544, 1.612553
660.5366, 2.228134
661.0187, 2.120209
661.5008, 1.222260
661.9829, 0.4063570
662.4650, 0.7772980
662.9471, 1.978733
663.4293, 2.456429
663.9114, 2.078094
664.3935, 1.657806
664.8756, 1.485943
665.3577, 1.529636
665.8398, 1.858013
666.3220, 2.580376
666.8041, 2.838856
667.2862, 2.070763
667.7683, 1.204330
668.2504, 0.6322100
668.7325, 0.4501460
669.2147, 1.021633
669.6968, 2.411373
670.1789, 3.625599
670.6610, 3.050316
671.1431, 0.5731960
671.6252, 0.5129590
672.1074, 0.5903850
672.5895, 1.575909
673.0716, 1.006851
673.5537, 0.1358720
674.0358, 0.4248200
674.5179, 2.064991
675.0001, 3.535614
675.4822, 3.928993
675.9643, 3.991005
676.4464, 4.608154
676.9285, 5.620499
677.4106, 6.246265
677.8928, 6.147209
678.3749, 5.879158
678.8570, 6.346573
679.3391, 7.781311
679.8212, 8.541145
680.3033, 7.970547
680.7855, 7.488453
681.2676, 7.367107
681.7497, 7.547165
682.2318, 7.968842
682.7139, 8.615181
683.1960, 9.442856
683.6782, 10.71405
684.1603, 12.02085
684.6424, 12.33963
685.1245, 11.79367
685.6066, 11.84350
686.0887, 13.09632
686.5709, 15.07215
687.0530, 17.12345
687.5351, 19.27400
688.0172, 21.41178
688.4993, 23.51878
688.9814, 25.63286
689.4636, 27.34432
689.9457, 29.28405
690.4278, 32.05173
690.9099, 35.83559
691.3920, 40.60755
691.8741, 46.21291
692.3563, 52.86906
692.8384, 60.64397
693.3205, 69.37737
693.8026, 81.42691
694.2847, 96.93414
694.7668, 117.0361
695.2490, 143.8700
695.7311, 177.8996
696.2132, 212.7117
696.6953, 251.7734
697.1774, 287.1840
697.6595, 317.6372
698.1417, 341.5575
698.6238, 355.6535
699.1059, 360.4242
699.5880, 361.3776
700.0701, 361.6687
700.5522, 362.9142
701.0344, 371.2638
701.5165, 387.3361
701.9986, 407.2358
702.4807, 430.4453
702.9628, 456.6126
703.4449, 485.8140
703.9271, 517.8607
704.4092, 551.7777
704.8913, 584.5488
705.3734, 622.5129
705.8555, 664.9966
706.3376, 715.9635
706.8198, 775.7866
707.3019, 847.3364
707.7840, 938.1191
708.2661, 1051.707
708.7482, 1193.033
709.2303, 1383.118
709.7125, 1632.051
710.1946, 1888.687
710.6767, 2184.225
711.1588, 2434.835
711.6409, 2617.445
712.1230, 2712.947
712.6052, 2660.623
713.0873, 2408.467
713.5694, 2085.788
714.0515, 1694.027
714.5336, 1299.103
715.0157, 974.8079
715.4979, 729.6367
715.9800, 545.5698
716.4621, 415.0195
716.9442, 326.6698
717.4263, 260.0410
717.9084, 218.3292
718.3906, 183.6143
718.8727, 156.5889
719.3548, 134.5446
719.8369, 116.9863
720.3190, 103.0383
720.8011, 91.74715
721.2833, 83.35531
721.7654, 75.78819
722.2475, 67.82728
722.7296, 60.37779
723.2117, 54.68285
723.6938, 50.46484
724.1760, 46.51455
724.6581, 42.25460
725.1402, 38.14549
725.6223, 34.89101
726.1044, 32.55685
726.5865, 30.52301
727.0687, 28.95291
727.5508, 27.39921
728.0329, 25.54739
728.5150, 23.72343
728.9971, 22.34595
729.4792, 21.39282
729.9614, 20.34280
730.4435, 18.60546
730.9256, 16.85667
731.4077, 15.94213
731.8898, 15.48000
732.3719, 14.32936
732.8541, 12.21070
733.3362, 10.16210
733.8183, 9.317879
734.3004, 9.567684
734.7825, 9.681671
735.2646, 9.485352
735.7468, 9.535137
736.2289, 10.71984
736.7110, 11.53107
737.1931, 10.37014
737.6752, 7.805336
738.1573, 6.265732
738.6395, 7.308033
739.1216, 8.455925
739.6037, 7.742805
740.0858, 6.167683
740.5679, 5.396049
741.0500, 5.564018
741.5322, 5.631962
742.0143, 4.842457
742.4964, 3.593380
742.9785, 3.065411
743.4606, 3.489876
743.9427, 3.778393
744.4249, 3.773289
744.9070, 3.725876
745.3891, 3.986919
745.8712, 4.228714
746.3533, 3.753174
746.8354, 2.199650
747.3176, 1.033749
747.7997, 1.432652
748.2818, 2.156921
748.7639, 1.660999
749.2460, 0.3512880
749.7281, 0.1065370
750.2103, 0.9630090
750.6924, 2.418060
751.1745, 2.650887
751.6566, 1.649746
752.1387, 0.6566390
752.6208, 0.5469400
753.1030, 1.196854
753.5851, 0.6239740
754.0672, 0.3270490
754.5493, 0.8017040
755.0314, 0.8022350
755.5135, 0.6596640
755.9957, 0.3960880
756.4778, 7.2711997E-02
756.9599, 0.7022290
757.4420, 1.319881
757.9241, 0.5183180
758.4063, 1.622089
758.8884, 3.466118
759.3705, 3.787560
759.8526, 2.848202
760.3347, 0.8883480
760.8168, 2.403496
761.2990, 3.757561
761.7811, 1.982292
762.2632, 0.5537830
762.7453, 2.435051
763.2274, 3.689632
763.7095, 4.514111
764.1917, 4.938046
764.6738, 4.872757
765.1559, 4.051495
765.6380, 2.946903
766.1201, 1.468266
766.6022, 7.8631997E-02
767.0844, 0.2371140
767.5665, 0.8940890
768.0486, 2.497208
768.5307, 3.555115
769.0128, 4.088512
769.4949, 4.131897
769.9771, 3.632530
770.4592, 3.114723
770.9413, 2.741264
771.4234, 2.507915
771.9055, 2.425526
772.3876, 2.511818
772.8698, 2.610565
773.3519, 2.526123
773.8340, 2.700363
774.3161, 3.657402
774.7982, 4.647202
775.2803, 4.980171
775.7625, 4.617336
776.2446, 3.747501
776.7267, 2.084106
777.2088, 0.7722240
777.6909, 1.994965
778.1730, 4.971542
778.6552, 6.646770
779.1373, 6.521114
779.6194, 5.746006
780.1015, 4.982647
780.5836, 4.277752
781.0657, 3.766598
781.5479, 3.470127
782.0300, 3.319775
782.5121, 3.640965
782.9942, 3.740143
783.4763, 3.048328
783.9584, 2.120800
784.4406, 1.805668
784.9227, 2.260311
785.4048, 2.648399
785.8869, 2.135895
786.3690, 1.575352
786.8511, 2.262833
787.3333, 3.701630
787.8154, 4.329556
788.2975, 3.735004
788.7796, 2.858150
789.2617, 2.682167
789.7438, 3.041702
790.2260, 2.694324
790.7081, 1.047199
791.1902, 0.5638390
791.6723, 2.732746
792.1544, 4.916611
792.6365, 5.174358
793.1187, 4.025272
793.6008, 2.713295
794.0829, 1.144611
794.5650, 6.8049999E-03
795.0471, 0.1812360
795.5292, 3.8345002E-02
796.0114, 0.1869280
796.4935, 0.4653550
796.9756, 0.2995340
797.4577, 0.5294340
797.9398, 1.510448
798.4219, 2.070763
798.9041, 2.238884
799.3862, 2.087112
799.8683, 1.573414
800.3504, 1.267811
800.8325, 1.432281
801.3146, 1.791687
801.7968, 2.028179
802.2789, 2.137417
802.7610, 2.358936
803.2431, 3.081566
803.7252, 3.378792
804.2073, 2.908989
804.6895, 2.114319
805.1716, 1.081669
805.6537, 4.0557999E-02
806.1358, 0.4808310
806.6179, 0.1748350
807.1000, 0.3589320
807.5822, 0.4774320
808.0643, 0.9804230
808.5464, 0.9001310
809.0285, 1.773033
809.5106, 2.490021
809.9927, 2.784752
810.4749, 2.705120
810.9570, 2.299820
811.4391, 1.577835
811.9212, 1.335266
812.4033, 1.596504
812.8854, 2.191017
813.3676, 3.678123
813.8497, 4.997166
814.3318, 5.112614
814.8139, 4.125431
815.2960, 3.015141
815.7781, 1.373482
816.2603, 0.6073490
816.7424, 1.900459
817.2245, 3.976105
817.7066, 6.085476
818.1887, 7.662010
818.6708, 7.042824
819.1530, 3.340237
819.6351, 0.6107250
820.1172, 0.5225790
820.5993, 2.792458
821.0814, 4.807545
821.5635, 5.252911
822.0457, 5.005245
822.5278, 4.270241
823.0099, 3.360775
823.4920, 2.698212
823.9741, 2.295109
824.4562, 2.015297
824.9384, 2.049744
825.4205, 1.947338
825.9026, 1.111153
826.3847, 0.5017510
826.8668, 1.351589
827.3489, 3.153511
827.8311, 4.052364
828.3132, 3.064850
828.7953, 1.685211
829.2774, 0.6599620
829.7595, 0.1482930
830.2416, 0.8160860
830.7238, 2.323055
831.2059, 3.085342
831.6880, 2.356731
832.1701, 1.274410
832.6522, 1.604183
833.1343, 3.272102
833.6165, 4.301430
834.0985, 4.554447
834.5806, 4.708672
835.0627, 5.052532
835.5449, 5.262787
836.0270, 4.886261
836.5091, 3.975052
836.9912, 3.361275
837.4733, 3.072353
837.9554, 3.054729
838.4376, 3.425179
838.9197, 3.952423
839.4018, 4.798210
839.8839, 5.600967
840.3660, 5.534077
840.8481, 4.243095
841.3303, 2.821079
841.8124, 2.088020
842.2945, 1.880337
842.7766, 2.160370
843.2587, 2.754391
843.7408, 2.943214
844.2230, 2.486717
844.7051, 1.649105
845.1872, 0.5936660
845.6693, 0.5274010
846.1514, 0.4792100
846.6335, 1.264759
847.1157, 2.298260
847.5978, 1.730007
848.0799, 1.068813
848.5620, 1.333958
849.0441, 2.285107
849.5262, 3.426983
850.0084, 4.979729
850.4905, 6.044323
850.9726, 6.372887
851.4547, 6.294361
851.9368, 5.632362
852.4189, 4.754711
852.9011, 4.379230
853.3832, 4.578861
853.8653, 4.443703
854.3474, 2.873886
854.8295, 0.9918440
855.3116, 0.7231640
855.7938, 1.519154
856.2759, 1.388943
856.7580, 7.7953003E-02
857.2401, 0.5633930
857.7222, 0.8571620
858.2043, 3.303345
858.6865, 4.178780
859.1686, 3.070770
859.6507, 2.460777
860.1328, 2.417343
860.6149, 2.829411
861.0970, 4.129967
861.5792, 5.477562
862.0613, 5.624493
862.5434, 4.591751
863.0255, 4.004280
863.5076, 4.352493
863.9897, 4.731361
864.4719, 4.980106
864.9540, 5.083481
865.4361, 5.098827
865.9182, 4.962437
866.4003, 4.405087
866.8824, 3.216091
867.3646, 2.180218
867.8467, 2.265953
868.3288, 1.784245
868.8109, 1.805531
869.2930, 2.338322
869.7751, 2.505054
870.2573, 3.781086
870.7394, 4.987762
871.2215, 4.780838
871.7036, 3.398586
872.1857, 2.024071
872.6678, 0.4212270
873.1500, 0.1595310
873.6321, 2.338821
874.1142, 4.255920
874.5963, 3.734955
875.0784, 1.658699
875.5605, 0.5924380
876.0427, 0.8983570
876.5248, 1.066879
877.0069, 0.8636170
877.4890, 0.6546900
877.9711, 0.1519930
878.4532, 2.9155999E-02
878.9354, 1.608173
879.4175, 4.619061
879.8996, 6.519730
880.3817, 5.378910
880.8638, 3.614395
881.3459, 3.333641
881.8281, 3.830132
882.3102, 4.108810
882.7923, 4.020123
883.2744, 3.456715
883.7565, 2.348583
884.2386, 1.500263
884.7208, 2.573662
885.2029, 5.179844
885.6850, 5.737999
886.1671, 4.062485
886.6492, 2.439854
887.1313, 1.458183
887.6135, 1.048973
888.0956, 1.292461
888.5777, 2.043808
889.0598, 2.310444
889.5419, 1.433987
890.0240, 1.242767
890.5062, 2.436695
890.9883, 3.634674
891.4704, 4.466434
891.9525, 4.808865
892.4346, 4.191193
892.9167, 2.509068
893.3989, 1.670815
893.8810, 3.162247
894.3631, 4.716583
894.8452, 4.768726
895.3273, 4.262730
895.8094, 4.720146
896.2916, 5.906929
896.7737, 5.951389
897.2558, 3.618980
897.7379, 1.307224
898.2200, 2.802349
898.7021, 6.318043
899.1843, 7.142441
899.6664, 5.337711
900.1485, 3.433033
900.6306, 2.348331
901.1127, 2.056179
901.5948, 2.654636
902.0770, 3.935635
902.5591, 4.710148
903.0412, 4.994015
903.5233, 4.791897
904.0054, 3.618328
904.4875, 2.915646
904.9697, 3.965862
905.4518, 5.942074
905.9339, 6.891445
906.4160, 6.450447
906.8981, 5.873699
907.3802, 5.571980
907.8624, 4.908443
908.3445, 3.041676
908.8266, 1.358929
909.3087, 1.660946
909.7908, 3.498528
910.2729, 4.446507
910.7551, 3.146420
911.2372, 2.055645
911.7193, 2.911591
912.2014, 4.454010
912.6835, 5.419651
913.1656, 6.048874
913.6478, 7.295788
914.1299, 9.247105
914.6120, 10.39438
915.0941, 9.024426
915.5762, 6.626381
916.0583, 6.163189
916.5405, 7.175297
917.0226, 7.427521
917.5047, 6.536251
917.9868, 6.115910
918.4689, 7.351582
918.9510, 9.286663
919.4332, 9.634739
919.9153, 8.044582
920.3974, 7.588051
920.8795, 8.679379
921.3616, 9.746670
921.8438, 10.56377
922.3259, 10.93718
922.8080, 10.44558
923.2901, 9.257858
923.7722, 8.595325
924.2543, 8.951324
924.7365, 9.031670
925.2186, 8.184345
925.7007, 7.676567
926.1828, 8.469803
926.6649, 9.777908
927.1470, 10.60277
927.6292, 10.79847
928.1113, 10.59730
928.5934, 9.510944
929.0755, 8.732006
929.5576, 9.332623
930.0397, 10.37468
930.5219, 10.74609
931.0040, 10.52562
931.4861, 10.43248
931.9682, 10.77385
932.4503, 10.98710
932.9324, 10.36179
933.4146, 9.294682
933.8967, 8.450218
934.3788, 7.847488
934.8609, 7.516827
935.3430, 7.458355
935.8251, 7.632698
936.3073, 8.052994
936.7894, 8.527607
937.2715, 8.447876
937.7536, 7.801228
938.2357, 7.952305
938.7178, 9.207951
939.2000, 9.796913
939.6821, 8.775112
940.1642, 7.442238
940.6463, 7.450500
941.1284, 8.649467
941.6105, 8.799805
942.0927, 6.943588
942.5748, 5.931927
943.0569, 6.490788
943.5390, 7.364532
944.0211, 8.157272
944.5032, 8.759525
944.9854, 8.860214
945.4675, 8.369888
945.9496, 8.344982
946.4317, 10.16565
946.9138, 10.93182
947.3959, 8.373623
947.8781, 5.359215
948.3602, 4.615356
948.8423, 5.584248
949.3244, 6.291897
949.8065, 6.137096
950.2886, 5.519447
950.7708, 4.045654
951.2529, 2.807831
951.7350, 3.179577
952.2171, 4.425385
952.6992, 5.402679
953.1813, 5.789127
953.6635, 5.490311
954.1456, 4.359932
954.6277, 2.914150
955.1098, 1.696903
955.5919, 0.7507970
956.0740, 0.3105390
956.5562, 0.3166890
957.0383, 0.4167180
957.5204, 0.4870190
958.0025, 0.4704440
958.4846, 0.2730290
958.9667, 5.8559999E-03
959.4489, 8.4820002E-02
959.9310, 0.5769420
960.4131, 0.5367240
960.8952, 0.2656860
961.3773, 0.8747290
961.8594, 0.7719040
962.3416, 0.3785590
962.8237, 0.3980790
963.3058, 0.8513790
963.7879, 9.2589997E-02
964.2700, 3.337975
964.7521, 4.677429
965.2343, 1.734741
965.7164, 1.499023
966.1985, 2.588127
966.6806, 2.313396
967.1627, 2.123131
967.6448, 1.978352
968.1270, 1.969681
968.6091, 2.380451
969.0912, 2.626396
969.5733, 2.056778
970.0554, 1.583427
970.5375, 2.436104
971.0197, 3.998726
971.5018, 4.323677
971.9839, 2.570560
972.4660, 1.360992
972.9481, 2.390900
973.4302, 3.699745
973.9124, 4.084774
974.3945, 3.824623
974.8766, 3.052666
975.3587, 2.085358
975.8408, 1.899727
976.3229, 3.210533
976.8051, 4.432117
977.2872, 4.060608
977.7693, 2.865929
978.2514, 1.613926
978.7335, 0.4768450
979.2156, 0.2699510
979.6978, 0.5716020
980.1799, 0.6628460
980.6620, 0.7145840
981.1441, 0.6711010
981.6262, 0.1833530
982.1083, 0.4494900
982.5905, 1.8840000E-03
983.0726, 1.443844
983.5547, 2.484650
984.0368, 2.595188
984.5189, 2.402618
985.0010, 2.575134
985.4832, 2.974911
985.9653, 3.014236
986.4474, 2.686562
986.9295, 2.871288
987.4116, 3.768738
987.8937, 4.330002
988.3759, 3.907921
988.8580, 3.342102
989.3401, 3.834885
989.8222, 5.342236
990.3043, 6.838749
990.7864, 8.426655
991.2686, 9.679977
991.7507, 10.50963
992.2328, 11.03150
992.7149, 11.12662
993.1970, 11.11167
993.6791, 11.55417
994.1613, 12.50498
994.6434, 13.55853
995.1255, 15.08646
995.6076, 16.14462
996.0897, 15.99098
996.5718, 15.94100
997.0540, 17.13055
997.5361, 18.87225
998.0182, 19.61758
998.5003, 18.99444
998.9824, 19.07669
999.4645, 20.91501
999.9467, 22.50734
1000.429, 22.83947
1000.911, 22.97378
1001.393, 24.20733
1001.875, 25.88274
1002.357, 25.99471
1002.839, 23.73496
1003.321, 22.39648
1003.804, 23.93324
1004.286, 25.99097
1004.768, 27.27904
1005.250, 28.22534
1005.732, 29.55923
1006.214, 31.06158
1006.696, 31.59747
1007.178, 30.46854
1007.661, 30.18090
1008.143, 33.77489
1008.625, 37.71460
1009.107, 38.23333
1009.589, 36.89794
1010.071, 36.11165
1010.553, 36.30407
1011.035, 37.26077
1011.517, 39.00480
1012.000, 40.43858
1012.482, 39.84801
1012.964, 38.59288
1013.446, 39.01392
1013.928, 40.52261
1014.410, 41.42567
1014.892, 41.42340
1015.374, 41.30247
1015.857, 41.58725
1016.339, 41.73826
1016.821, 40.69685
1017.303, 40.42937
1017.785, 39.79105
1018.267, 38.65810
1018.749, 38.19136
1019.231, 36.74217
1019.713, 35.51113
1020.196, 35.42181
1020.678, 35.78692
1021.160, 35.41397
1021.642, 34.42343
1022.124, 32.87675
1022.606, 30.73943
1023.088, 29.47278
1023.570, 29.38152
1024.052, 29.41743
1024.535, 28.70314
1025.017, 27.60329
1025.499, 27.09128
1025.981, 27.17235
1026.463, 26.96739
1026.945, 26.48697
1027.427, 25.44695
1027.909, 23.54960
1028.392, 21.92064
1028.874, 21.70735
1029.356, 22.39854
1029.838, 22.26403
1030.320, 21.10094
1030.802, 19.87165
1031.284, 18.50171
1031.766, 17.37359
1032.249, 16.74704
1032.731, 16.17616
1033.213, 15.19056
1033.695, 13.90799
1034.177, 12.77437
1034.659, 11.63702
1035.141, 11.39558
1035.623, 12.67446
1036.105, 13.64523
1036.588, 13.72585
1037.070, 13.22780
1037.552, 12.13073
1038.034, 10.75666
1038.516, 10.42073
1038.998, 11.62114
1039.480, 12.52617
1039.962, 13.37122
1040.444, 13.52944
1040.927, 12.21124
1041.409, 10.72561
1041.891, 10.39130
1042.373, 10.84630
1042.855, 10.53261
1043.337, 8.174767
1043.819, 8.084564
1044.301, 12.50048
1044.784, 16.24464
1045.266, 17.46710
1045.748, 17.85088
1046.230, 18.84443
1046.712, 20.15712
1047.194, 20.67133
1047.676, 19.82332
1048.158, 19.63544
1048.641, 20.79072
1049.123, 21.98511
1049.605, 22.82232
1050.087, 23.53115
1050.569, 23.84354
1051.051, 24.24406
1051.533, 25.98538
1052.015, 29.21436
1052.497, 33.78910
1052.979, 41.33067
1053.462, 48.07966
1053.944, 52.61147
1054.426, 55.82362
1054.908, 57.87154
1055.390, 59.31982
1055.872, 61.27682
1056.354, 63.87807
1056.836, 67.20840
1057.319, 72.01128
1057.801, 76.60739
1058.283, 79.40525
1058.765, 82.52549
1059.247, 87.51999
1059.729, 94.37065
1060.211, 102.8936
1060.693, 113.1269
1061.176, 123.8014
1061.658, 133.8631
1062.140, 145.2002
1062.622, 157.3034
1063.104, 172.2707
1063.586, 189.6856
1064.068, 212.1424
1064.550, 245.3242
1065.032, 290.5677
1065.515, 337.9973
1065.997, 398.3644
1066.479, 441.4203
1066.961, 447.3185
1067.443, 435.8997
1067.925, 410.4326
1068.407, 385.5486
1068.889, 379.1765
1069.371, 395.7069
1069.854, 442.8402
1070.336, 510.9165
1070.818, 626.6718
1071.300, 784.2756
1071.782, 1012.091
1072.264, 1345.949
1072.746, 1760.032
1073.228, 2259.093
1073.711, 2817.381
1074.193, 3279.163
1074.675, 3589.387
1075.157, 3775.876
1075.639, 3759.293
1076.121, 3717.944
1076.603, 3752.047
1077.085, 3873.729
1077.568, 4085.230
1078.050, 4385.772
1078.532, 4769.819
1079.014, 5251.015
1079.496, 5779.119
1079.978, 6316.481
1080.460, 6909.486
1080.942, 7560.338
1081.424, 8303.641
1081.906, 9080.876
1082.389, 9980.807
1082.871, 11267.89
1083.353, 12890.57
1083.835, 15401.97
1084.317, 19032.85
1084.799, 23639.72
1085.281, 31272.37
1085.763, 38312.23
1086.245, 41088.55
1086.728, 39536.06
1087.210, 34347.48
1087.692, 25082.89
1088.174, 16641.82
1088.656, 10889.43
1089.138, 6837.549
1089.620, 4504.977
1090.102, 3141.828
1090.585, 2275.790
1091.067, 1731.658
1091.549, 1348.712
1092.031, 1092.129
1092.513, 896.8812
1092.995, 758.7043
1093.477, 649.2621
1093.959, 563.5746
1094.442, 493.1438
1094.924, 433.1624
1095.406, 382.3033
1095.888, 340.7491
1096.370, 308.0902
1096.852, 279.4651
1097.334, 254.2490
1097.816, 231.2951
1098.298, 209.6092
1098.781, 190.6083
1099.263, 176.1122
1099.745, 164.4113
1100.227, 153.7253
1100.709, 143.6567
1101.191, 133.2343
1101.673, 121.1105
1102.155, 110.8257
1102.637, 104.9164
1103.120, 99.50021
1103.602, 91.95134
1104.084, 84.50362
1104.566, 79.80803
1105.048, 77.13582
1105.530, 73.60422
1106.012, 68.64502
1106.494, 63.50188
1106.977, 57.25499
1107.459, 52.38269
1107.941, 51.00418
1108.423, 49.95963
1108.905, 46.72308
1109.387, 42.14513
1109.869, 37.81641
1110.351, 33.57559
1110.833, 30.98383
1111.316, 31.43456
1111.798, 31.82967
1112.280, 32.10397
1112.762, 31.56854
1113.244, 29.18006
1113.726, 26.11806
1114.208, 24.18085
1114.690, 23.43873
1115.172, 22.52156
1115.655, 21.06967
1116.137, 19.92525
1116.619, 19.51216
1117.101, 18.86947
1117.583, 17.31226
1118.065, 15.72926
1118.547, 15.19681
1119.029, 15.41534
1119.512, 14.82156
1119.994, 12.51288
1120.476, 11.89496
1120.958, 14.40656
1121.440, 15.44714
1121.922, 12.88500
1122.404, 9.974403
1122.886, 9.230652
1123.369, 9.923813
1123.851, 10.32143
1124.333, 10.39146
1124.815, 10.49579
1125.297, 10.82693
1125.779, 10.44778
1126.261, 8.905220
1126.743, 7.454277
1127.225, 6.774841
1127.708, 6.669449
1128.190, 6.962395
1128.672, 7.549385
1129.154, 7.255829
1129.636, 5.890717
1130.118, 5.146790
1130.600, 5.285789
1131.082, 5.217842
1131.564, 4.428673
1132.047, 3.742577
1132.529, 4.025406
1133.011, 4.835777
1133.493, 4.854729
1133.975, 4.105469
1134.457, 3.315643
1134.939, 2.511070
1135.421, 1.867142
1135.904, 1.432022
1136.386, 1.203003
1136.868, 1.189262
1137.350, 1.298111
1137.832, 1.401016
1138.314, 1.493866
1138.796, 1.650909
1139.278, 1.799675
1139.760, 1.291084
1140.243, 0.1558800
1140.725, 0.5216330
1141.207, 0.2922820
1141.689, 3.8403001E-02
1142.171, 0.3616290
1142.653, 1.123726
1143.135, 1.764820
1143.617, 2.176460
1144.099, 2.009548
1144.582, 1.393848
1145.064, 0.5469250
1145.546, 0.2943920
1146.028, 7.3540002E-02
1146.510, 2.137512
1146.992, 4.195732
1147.474, 3.141983
1147.956, 1.201500
1148.439, 1.582561
1148.921, 0.7412910
1149.403, 0.3902970
1149.885, 1.105831
1150.367, 0.5954590
1150.849, 2.102402
1151.331, 3.302464
1151.813, 2.173893
1152.296, 0.8242950
1152.778, 0.8913420
1153.260, 1.369816
1153.742, 1.202442
1154.224, 0.6917690
1154.706, 0.5877000
1155.188, 0.9492950
1155.670, 1.113308
1156.152, 0.6942440
1156.635, 0.3835490
1157.117, 0.4019360
1157.599, 0.6291500
1158.081, 1.399467
1158.563, 2.024162
1159.045, 1.521763
1159.527, 0.3017310
1160.009, 0.2827450
1160.491, 6.2899999E-03
1160.974, 0.5644650
1161.456, 2.155548
1161.938, 2.917244
1162.420, 1.713181
1162.902, 0.4278760
1163.384, 5.0430000E-03
1163.866, 0.1632080
1164.348, 0.8018530
1164.831, 1.834366
1165.313, 1.887142
1165.795, 0.2041360
1166.277, 0.3664130
1166.759, 0.9054680
1167.241, 1.695057
1167.723, 1.125305
1168.205, 0.1047130
1168.688, 0.6264110
1169.170, 1.214718
1169.652, 2.116062
1170.134, 3.344547
1170.616, 3.707714
1171.098, 3.149048
1171.580, 2.462727
1172.062, 1.764454
1172.544, 1.351719
1173.026, 1.375435
1173.509, 1.787598
1173.991, 2.699879
1174.473, 3.663872
1174.955, 3.207718
1175.437, 1.727932
1175.919, 0.9857030
1176.401, 0.9342310
1176.883, 0.4386100
1177.366, 0.6259380
1177.848, 0.6844790
1178.330, 1.386620
1178.812, 3.734825
1179.294, 4.054676
1179.776, 3.416435
1180.258, 3.283344
1180.740, 3.437046
1181.223, 3.318909
1181.705, 3.082062
1182.187, 3.445904
1182.669, 4.563465
1183.151, 5.539551
1183.633, 5.885975
1184.115, 5.863766
1184.597, 5.356308
1185.079, 4.842419
1185.562, 4.837387
1186.044, 5.001530
1186.526, 4.455612
1187.008, 3.604500
1187.490, 4.432140
1187.972, 8.104591
1188.454, 10.11433
1188.936, 7.745640
1189.418, 5.869637
1189.901, 6.356567
1190.383, 7.416424
1190.865, 8.143532
1191.347, 8.541729
1191.829, 8.673512
1192.311, 8.539898
1192.793, 8.145046
1193.275, 7.304321
1193.758, 6.596344
1194.240, 5.890198
1194.722, 5.779022
1195.204, 6.744381
1195.686, 7.477325
1196.168, 6.752640
1196.650, 5.636860
1197.132, 6.520477
1197.615, 9.175362
1198.097, 10.17466
1198.579, 9.538177
1199.061, 9.106178
1199.543, 9.120056
1200.025, 9.607510
1200.507, 10.55714
1200.989, 11.15682
1201.471, 10.60215
1201.953, 9.600498
1202.436, 9.223763
1202.918, 9.400322
1203.400, 10.42754
1203.882, 11.71110
1204.364, 11.37545
1204.846, 9.563923
1205.328, 8.315262
1205.810, 8.416752
1206.293, 8.975258
1206.775, 9.591312
1207.257, 10.28233
1207.739, 11.26869
1208.221, 12.13464
1208.703, 12.14724
1209.185, 11.72417
1209.667, 11.83978
1210.150, 11.42155
1210.632, 12.21609
1211.114, 10.72804
1211.596, 9.677628
1212.078, 9.518047
1212.560, 9.838516
1213.042, 11.25549
1213.524, 12.29490
1214.006, 11.27441
1214.489, 9.770611
1214.971, 10.41510
1215.453, 12.89671
1215.935, 13.32083
1216.417, 10.76926
1216.899, 9.349697
1217.381, 9.570366
1217.863, 9.565910
1218.345, 8.613197
1218.828, 8.058800
1219.310, 8.935883
1219.792, 10.18305
1220.274, 9.809772
1220.756, 8.379513
1221.238, 8.604675
1221.720, 10.16098
1222.202, 11.68587
1222.685, 12.88501
1223.167, 13.07018
1223.649, 12.26027
1224.131, 11.65136
1224.613, 12.04002
1225.095, 12.59936
1225.577, 12.35989
1226.059, 11.98582
1226.542, 12.34893
1227.024, 12.90393
1227.506, 12.82321
1227.988, 12.17526
1228.470, 11.06670
1228.952, 9.655930
1229.434, 9.314407
1229.916, 11.58104
1230.398, 13.12386
1230.880, 12.63807
1231.363, 11.39501
1231.845, 8.942833
1232.327, 6.922382
1232.809, 7.821297
1233.291, 10.50163
1233.773, 11.09109
1234.255, 9.412468
1234.737, 8.449829
1235.220, 8.442829
1235.702, 8.898830
1236.184, 10.11182
1236.666, 10.29424
1237.148, 8.460632
1237.630, 6.664486
1238.112, 6.547256
1238.594, 7.415127
1239.077, 8.151619
1239.559, 8.800076
1240.041, 10.13923
1240.523, 9.756390
1241.005, 11.34649
1241.487, 9.173100
1241.969, 7.503841
1242.451, 7.188763
1242.933, 7.115509
1243.416, 6.358624
1243.898, 5.862564
1244.380, 7.156479
1244.862, 8.553112
1245.344, 8.096230
1245.826, 6.877758
1246.308, 6.439091
1246.790, 6.532028
1247.272, 5.924412
1247.755, 4.409630
1248.237, 3.684444
1248.719, 5.348343
1249.201, 6.049217
1249.683, 4.023323
1250.165, 2.520168
1250.647, 3.188274
1251.129, 4.303009
1251.612, 4.532536
1252.094, 4.315422
1252.576, 4.548141
1253.058, 5.203575
1253.540, 5.849712
1254.022, 6.549320
1254.504, 6.118587
1254.986, 4.372272
1255.469, 3.902451
1255.951, 5.539211
1256.433, 6.621868
1256.915, 5.113182
1257.397, 2.951740
1257.879, 3.140465
1258.361, 4.482529
1258.843, 4.733662
1259.325, 4.405205
1259.807, 4.523758
1260.290, 4.950100
1260.772, 5.089733
1261.254, 4.810280
1261.736, 4.216869
1262.218, 3.189060
1262.700, 2.481426
1263.182, 2.428226
1263.664, 2.797550
1264.147, 4.032303
1264.629, 5.089592
1265.111, 5.157150
1265.593, 4.523018
1266.075, 3.381603
1266.557, 1.921768
1267.039, 1.731174
1267.521, 3.546253
1268.004, 3.985550
1268.486, 2.681679
1268.968, 1.630989
1269.450, 1.342922
1269.932, 1.346264
1270.414, 1.418209
1270.896, 1.542740
1271.378, 1.709442
1271.860, 1.898647
1272.343, 2.157265
1272.825, 2.366108
1273.307, 1.931965
1273.789, 1.266117
1274.271, 1.648102
1274.753, 2.945889
1275.235, 4.089855
1275.717, 4.671848
1276.199, 4.325726
1276.682, 1.907578
1277.164, 6.4152002E-02
1277.646, 6.1073001E-02
1278.128, 0.4635200
1278.610, 0.5578880
1279.092, 0.7469830
1279.574, 2.177597
1280.056, 3.981182
1280.539, 3.513649
1281.021, 3.954830
1281.503, 3.980999
1281.985, 2.434311
1282.467, 2.901020
1282.949, 0.7684860
1283.431, 0.1791500
1283.913, 1.379520
1284.396, 3.086063
1284.878, 3.329605
1285.360, 1.983376
1285.842, 1.201565
1286.324, 0.4145360
1286.806, 0.0000000E+00
##END=



