##NAMES=Calcioancylite-(Ce)
##RRUFFID=R060205
##IDEAL CHEMISTRY=(Ce,Ca,Sr)CO_3_(OH,H_2_O)
##LOCALITY=Mont Saint-Hilaire, Rouville County, Quebec, Canada
##OWNER=RRUFF
##SOURCE=Royal Ontario Museum
##DESCRIPTION=Aggregate of coarse, poorly formed pink crystals, color is pale green under fluorescent lights
##STATUS=The identification of this mineral is confirmed by single-crystal X-ray diffraction and chemical analysis.
##URL=rruff.info/R060205
##MEASURED CHEMISTRY=(Ce_0.57_La_0.35_Nd_0.12_Pr_0.05_)_Σ=1.09_(Ca_0.44_Sr_0.36_Ba_0.04_)_Σ=0.84_(CO_3_)_1.97_(OH_0.83_F_0.17_)_Σ=1.00_·H_2_O
91.82715, 0.0000000E+00
92.30927, 2.1118000E-02
92.79138, 1.162155
93.27350, 2.087341
93.75562, 2.380905
94.23773, 2.236069
94.71985, 1.883362
95.20197, 1.463074
95.68408, 1.185471
96.16620, 1.046600
96.64832, 1.174423
97.13043, 1.336136
97.61255, 1.374313
98.09467, 1.535217
98.57678, 1.929871
99.05890, 1.992966
99.54102, 1.968758
100.0231, 1.923637
100.5052, 1.795883
100.9874, 1.495354
101.4695, 1.121590
101.9516, 1.295921
102.4337, 2.625893
102.9158, 3.927963
103.3979, 4.939964
103.8801, 5.760765
104.3622, 6.614349
104.8443, 7.703201
105.3264, 9.081696
105.8085, 10.40633
106.2906, 11.79768
106.7728, 12.91950
107.2549, 13.57761
107.7370, 13.72999
108.2191, 13.57785
108.7012, 13.29063
109.1833, 12.83940
109.6655, 12.72950
110.1476, 13.30757
110.6297, 14.25299
111.1118, 14.96877
111.5939, 15.38030
112.0760, 15.74797
112.5582, 15.85110
113.0403, 15.90727
113.5224, 16.59948
114.0045, 18.06413
114.4866, 18.64867
114.9687, 19.03369
115.4509, 19.22994
115.9330, 18.67190
116.4151, 19.08784
116.8972, 19.11345
117.3793, 19.12306
117.8614, 19.67608
118.3436, 19.57465
118.8257, 19.72527
119.3078, 19.29160
119.7899, 18.27891
120.2720, 17.51573
120.7541, 17.77410
121.2363, 17.83290
121.7184, 17.70296
122.2005, 16.81875
122.6826, 16.90851
123.1647, 16.60795
123.6468, 16.29139
124.1290, 16.21139
124.6111, 15.43186
125.0932, 14.24046
125.5753, 13.27174
126.0574, 12.61475
126.5395, 12.02646
127.0217, 11.45155
127.5038, 10.87511
127.9859, 10.24238
128.4680, 9.466873
128.9501, 8.594971
129.4323, 7.874893
129.9144, 7.517204
130.3965, 7.206779
130.8786, 6.523521
131.3607, 5.356285
131.8428, 4.278145
132.3250, 3.922752
132.8071, 3.966301
133.2892, 3.844337
133.7713, 3.096779
134.2534, 1.963470
134.7355, 1.309364
135.2176, 1.460983
135.6998, 1.680382
136.1819, 1.591881
136.6640, 1.265945
137.1461, 0.8914870
137.6282, 0.5866390
138.1103, 0.3459930
138.5925, 0.2328490
139.0746, 0.4479220
139.5567, 0.6272430
140.0388, 0.6337430
140.5209, 0.4630580
141.0030, 0.1935500
141.4852, 9.2460997E-02
141.9673, 0.4153060
142.4494, 0.6963650
142.9315, 0.9563450
143.4136, 1.171448
143.8957, 1.304909
144.3779, 1.355019
144.8600, 1.376213
145.3421, 1.479836
145.8242, 1.924271
146.3063, 1.917778
146.7884, 0.8174670
147.2706, 0.5596390
147.7527, 1.139961
148.2348, 0.4858400
148.7169, 0.8582840
149.1990, 1.912384
149.6811, 2.490608
150.1633, 2.595520
150.6454, 1.744949
151.1275, 0.2474440
151.6096, 0.8866650
152.0917, 1.178009
152.5738, 0.9992140
153.0560, 0.9748230
153.5381, 1.111122
154.0202, 1.375595
154.5023, 1.783997
154.9844, 2.340668
155.4665, 2.893921
155.9487, 3.392769
156.4308, 3.855118
156.9129, 4.303993
157.3950, 4.753548
157.8771, 5.146011
158.3592, 5.356949
158.8414, 5.263947
159.3235, 5.293007
159.8056, 5.538010
160.2877, 5.950485
160.7698, 6.556892
161.2519, 7.384933
161.7341, 8.280327
162.2162, 8.761887
162.6983, 8.387825
163.1804, 8.176048
163.6625, 8.182930
164.1446, 8.446167
164.6268, 9.031845
165.1089, 9.995712
165.5910, 11.27376
166.0731, 12.49236
166.5552, 13.74234
167.0373, 14.83862
167.5195, 15.69691
168.0016, 16.37593
168.4837, 16.96130
168.9658, 17.47504
169.4479, 17.95029
169.9300, 18.73804
170.4122, 19.95226
170.8943, 21.29137
171.3764, 22.83530
171.8585, 24.46817
172.3406, 25.71156
172.8227, 26.04245
173.3049, 25.59740
173.7870, 25.77019
174.2691, 27.25372
174.7512, 28.87552
175.2333, 29.51959
175.7154, 29.11960
176.1976, 28.75500
176.6797, 29.33820
177.1618, 30.56404
177.6439, 31.69193
178.1260, 32.52295
178.6081, 33.19284
179.0903, 33.94463
179.5724, 34.83980
180.0545, 35.61234
180.5366, 35.95358
181.0187, 36.08640
181.5008, 36.35429
181.9830, 36.94746
182.4651, 37.77904
182.9472, 38.68788
183.4293, 40.07326
183.9114, 40.83092
184.3935, 40.18797
184.8757, 38.72475
185.3578, 37.43867
185.8399, 37.04118
186.3220, 37.43089
186.8041, 37.53459
187.2862, 37.15970
187.7684, 36.68005
188.2505, 36.30240
188.7326, 35.90192
189.2147, 35.19516
189.6968, 33.89676
190.1789, 31.98288
190.6611, 30.50061
191.1432, 30.09834
191.6253, 29.46933
192.1074, 27.98331
192.5895, 25.86960
193.0716, 23.81474
193.5538, 22.44408
194.0359, 21.88190
194.5180, 20.79276
195.0001, 18.72899
195.4822, 16.66415
195.9643, 15.04927
196.4465, 13.88348
196.9286, 12.92381
197.4107, 11.93272
197.8928, 10.88486
198.3749, 10.01207
198.8570, 9.434830
199.3392, 8.908859
199.8213, 8.249023
200.3034, 7.457687
200.7855, 6.684311
201.2676, 6.068741
201.7497, 5.645279
202.2319, 5.334595
202.7140, 4.908981
203.1961, 4.682617
203.6782, 5.251663
204.1603, 6.775757
204.6424, 8.093994
205.1246, 7.795334
205.6067, 6.182510
206.0888, 4.833633
206.5709, 4.136505
207.0530, 3.793884
207.5351, 3.421631
208.0173, 2.998520
208.4994, 2.800629
208.9815, 3.161072
209.4636, 3.866226
209.9457, 4.529709
210.4278, 4.965317
210.9100, 5.270493
211.3921, 5.659164
211.8742, 6.137527
212.3563, 6.720001
212.8384, 7.441269
213.3205, 8.239975
213.8027, 9.025284
214.2848, 9.730759
214.7669, 10.38385
215.2490, 11.08826
215.7311, 11.93378
216.2132, 12.68745
216.6953, 13.20116
217.1775, 13.57544
217.6596, 13.98094
218.1417, 14.50826
218.6238, 15.15207
219.1059, 15.89012
219.5880, 16.90192
220.0702, 17.77292
220.5523, 18.28590
221.0344, 18.59433
221.5165, 18.92752
221.9986, 19.40291
222.4807, 20.03554
222.9629, 20.98212
223.4450, 23.03142
223.9271, 24.53603
224.4092, 24.99661
224.8913, 24.69597
225.3734, 24.08026
225.8556, 23.40100
226.3377, 22.69000
226.8198, 22.31383
227.3019, 22.41278
227.7840, 22.71501
228.2661, 23.41196
228.7483, 24.25865
229.2304, 24.84679
229.7125, 24.90956
230.1946, 24.48669
230.6767, 23.99843
231.1588, 23.15686
231.6410, 22.56346
232.1231, 22.52112
232.6052, 22.83231
233.0873, 23.10216
233.5694, 23.08095
234.0515, 22.82712
234.5337, 22.76755
235.0158, 23.24049
235.4979, 23.50720
235.9800, 23.20009
236.4621, 22.52039
236.9442, 21.93083
237.4264, 21.71216
237.9085, 21.75049
238.3906, 21.51114
238.8727, 20.72624
239.3548, 20.02403
239.8369, 19.69788
240.3191, 19.62283
240.8012, 19.49460
241.2833, 19.16145
241.7654, 18.67770
242.2475, 18.20796
242.7296, 17.74005
243.2118, 17.30034
243.6939, 16.98332
244.1760, 16.71855
244.6581, 16.24014
245.1402, 15.31139
245.6223, 14.26737
246.1045, 13.82353
246.5866, 14.20840
247.0687, 14.49469
247.5508, 14.13628
248.0329, 13.27762
248.5150, 12.41978
248.9972, 11.68581
249.4793, 11.07957
249.9614, 10.68651
250.4435, 10.58572
250.9256, 10.21867
251.4077, 9.054428
251.8899, 7.292099
252.3720, 5.791412
252.8541, 4.836731
253.3362, 4.157440
253.8183, 3.393616
254.3004, 2.543320
254.7826, 1.864212
255.2647, 1.690216
255.7468, 1.888733
256.2289, 1.737869
256.7110, 0.8648220
257.1931, 5.7601999E-02
257.6753, 0.3949430
258.1574, 0.2352450
258.6395, 0.1431730
259.1216, 0.6993410
259.6037, 1.717728
260.0858, 2.131012
260.5680, 1.617310
261.0501, 0.7422790
261.5322, 0.4505460
262.0143, 1.738983
262.4964, 2.461472
262.9785, 1.815521
263.4607, 9.4589002E-02
263.9428, 0.9235380
264.4249, 0.7530820
264.9070, 0.5390630
265.3891, 0.9475560
265.8712, 1.722656
266.3534, 2.343872
266.8355, 2.485168
267.3176, 2.233902
267.7997, 1.942825
268.2818, 1.553894
268.7639, 1.216324
269.2461, 1.132813
269.7282, 1.098236
270.2103, 0.8352970
270.6924, 0.2250370
271.1745, 0.7413020
271.6566, 2.241287
272.1388, 5.139374
272.6209, 7.015594
273.1030, 6.850433
273.5851, 5.642700
274.0672, 4.391693
274.5493, 3.490021
275.0315, 3.016785
275.5136, 3.255096
275.9957, 4.693527
276.4778, 5.943344
276.9599, 6.714691
277.4420, 7.240784
277.9242, 7.691071
278.4063, 8.131470
278.8884, 8.602768
279.3705, 9.237411
279.8526, 10.27061
280.3347, 10.93839
280.8169, 10.80893
281.2990, 10.58054
281.7811, 10.80840
282.2632, 11.60983
282.7453, 12.65366
283.2274, 13.45932
283.7096, 13.93675
284.1917, 14.39064
284.6738, 14.91486
285.1559, 15.35799
285.6380, 15.45233
286.1201, 15.27074
286.6023, 15.27084
287.0844, 16.07401
287.5665, 17.98634
288.0486, 19.45381
288.5307, 20.06941
289.0128, 20.63484
289.4950, 21.50845
289.9771, 22.67484
290.4592, 23.92157
290.9413, 25.07701
291.4234, 26.14236
291.9055, 27.05913
292.3877, 27.75143
292.8698, 28.37723
293.3519, 28.83990
293.8340, 29.27393
294.3161, 29.96899
294.7982, 31.17122
295.2804, 32.82251
295.7625, 34.09802
296.2446, 34.55602
296.7267, 35.09961
297.2088, 35.82332
297.6909, 36.75314
298.1731, 37.95177
298.6552, 39.46359
299.1373, 41.17453
299.6194, 42.64386
300.1015, 43.80791
300.5836, 44.75708
301.0658, 45.27582
301.5479, 45.66827
302.0300, 46.26836
302.5121, 47.20334
302.9942, 48.34604
303.4763, 49.45116
303.9585, 50.47221
304.4406, 51.51244
304.9227, 52.77136
305.4048, 53.92790
305.8869, 54.55786
306.3690, 54.63763
306.8512, 54.70035
307.3333, 55.52951
307.8154, 57.54645
308.2975, 59.23294
308.7796, 60.54472
309.2617, 61.63641
309.7439, 62.52698
310.2260, 63.26433
310.7081, 63.96500
311.1902, 64.76016
311.6723, 65.70386
312.1544, 66.36699
312.6366, 65.92360
313.1187, 66.03989
313.6008, 67.90042
314.0829, 70.91544
314.5650, 73.67259
315.0471, 75.16818
315.5293, 75.44514
316.0114, 74.98110
316.4935, 74.73228
316.9756, 75.59985
317.4577, 76.18403
317.9398, 76.49549
318.4220, 75.96882
318.9041, 76.33219
319.3862, 76.22134
319.8683, 76.01057
320.3504, 76.25933
320.8326, 75.42277
321.3147, 75.49509
321.7968, 75.08723
322.2789, 74.77686
322.7610, 72.80774
323.2431, 69.58524
323.7253, 67.04582
324.2074, 65.37592
324.6895, 64.12292
325.1716, 63.70218
325.6537, 63.34198
326.1358, 62.47972
326.6180, 61.07457
327.1001, 59.47208
327.5822, 58.02269
328.0643, 56.72885
328.5464, 55.61319
329.0285, 54.74446
329.5107, 53.94547
329.9928, 53.27489
330.4749, 52.62300
330.9570, 51.75055
331.4391, 50.44789
331.9212, 48.75427
332.4034, 47.25163
332.8855, 45.94882
333.3676, 44.83165
333.8497, 44.16939
334.3318, 43.63081
334.8139, 42.72270
335.2961, 41.19954
335.7782, 39.27460
336.2603, 37.62456
336.7424, 36.50291
337.2245, 35.27956
337.7066, 33.64534
338.1888, 32.03735
338.6708, 30.93599
339.1530, 30.43082
339.6351, 30.14211
340.1172, 29.48679
340.5993, 28.29857
341.0814, 27.16386
341.5635, 26.03036
342.0457, 24.99065
342.5278, 24.03589
343.0099, 23.20821
343.4920, 22.67844
343.9741, 22.75491
344.4562, 23.52179
344.9384, 23.48994
345.4205, 21.47272
345.9026, 19.76895
346.3847, 19.21072
346.8668, 19.37123
347.3489, 19.44176
347.8311, 18.93550
348.3132, 17.97748
348.7953, 17.05138
349.2774, 15.95267
349.7595, 15.23120
350.2416, 15.22473
350.7238, 15.53174
351.2059, 15.69504
351.6880, 15.53798
352.1701, 15.28300
352.6522, 15.40431
353.1343, 16.15295
353.6165, 16.52100
354.0986, 16.10788
354.5807, 15.51076
355.0628, 14.95201
355.5449, 14.51765
356.0270, 14.32208
356.5092, 14.54814
356.9913, 15.21570
357.4734, 15.80963
357.9555, 15.64005
358.4376, 16.33369
358.9197, 16.82782
359.4019, 17.13319
359.8840, 16.68426
360.3661, 17.20929
360.8482, 17.34401
361.3303, 17.46271
361.8124, 18.12484
362.2946, 17.78565
362.7767, 18.43916
363.2588, 18.69638
363.7409, 19.13498
364.2230, 19.18083
364.7051, 19.34799
365.1873, 19.90805
365.6694, 20.25055
366.1515, 19.90947
366.6336, 20.83656
367.1157, 21.86337
367.5978, 22.49757
368.0800, 22.75328
368.5621, 22.85982
369.0442, 22.88185
369.5263, 22.80785
370.0084, 22.71992
370.4905, 22.63503
370.9727, 22.57846
371.4548, 22.67671
371.9369, 22.84198
372.4190, 22.77087
372.9011, 22.11742
373.3832, 21.26138
373.8654, 20.84097
374.3475, 20.93031
374.8296, 20.89163
375.3117, 20.29272
375.7938, 19.44322
376.2759, 18.74336
376.7581, 18.16765
377.2402, 17.85251
377.7223, 18.13803
378.2044, 18.84044
378.6865, 19.12094
379.1686, 18.63293
379.6508, 17.82814
380.1329, 17.28171
380.6150, 16.98944
381.0971, 16.62492
381.5792, 15.99348
382.0613, 15.26973
382.5435, 14.75716
383.0256, 14.49017
383.5077, 14.13850
383.9898, 13.32237
384.4719, 12.16054
384.9540, 11.41158
385.4362, 11.40724
385.9183, 11.56403
386.4004, 11.64928
386.8825, 11.63101
387.3646, 11.37776
387.8467, 10.80946
388.3289, 10.00975
388.8110, 9.146988
389.2931, 8.082336
389.7752, 7.245728
390.2573, 6.744461
390.7394, 6.502899
391.2216, 6.572159
391.7037, 6.941132
392.1858, 7.198242
392.6679, 6.791031
393.1500, 5.491562
393.6321, 4.740723
394.1143, 5.105713
394.5964, 5.452179
395.0785, 4.974670
395.5606, 3.907211
396.0427, 3.087524
396.5248, 3.087891
397.0070, 3.716873
397.4891, 3.930984
397.9712, 3.465424
398.4533, 2.886948
398.9354, 2.052734
399.4175, 1.225220
399.8997, 0.7114260
400.3818, 0.5958710
400.8639, 0.6697390
401.3460, 0.6155850
401.8281, 0.3566740
402.3102, 0.1838840
402.7924, 9.9716000E-02
403.2745, 8.2092002E-02
403.7566, 0.1437840
404.2387, 0.2654720
404.7208, 0.4110260
405.2029, 0.5660400
405.6851, 0.7182770
406.1672, 0.7847600
406.6493, 0.8494870
407.1314, 0.6848600
407.6135, 1.4465000E-02
408.0956, 0.7884520
408.5778, 1.302689
409.0599, 1.374954
409.5420, 1.219757
410.0241, 1.142792
410.5062, 1.165314
410.9883, 1.146957
411.4705, 0.9883730
411.9526, 0.8501430
412.4347, 0.8166500
412.9168, 0.8857880
413.3989, 1.019318
413.8810, 1.251526
414.3632, 1.532166
414.8453, 1.660767
415.3274, 1.596634
415.8095, 1.479553
416.2916, 1.361008
416.7737, 1.242554
417.2559, 1.092972
417.7380, 0.8212740
418.2201, 0.3280354
418.7022, 0.7947605
419.1843, 1.061967
419.6664, 1.140376
420.1486, 0.4645218
420.6307, 0.7626433
421.1128, 0.6704382
421.5949, 0.5622283
422.0770, 0.9974322
422.5591, 0.4312827
423.0413, 0.8578710
423.5234, 0.8881756
424.0055, 1.099848
424.4876, 0.9187847
424.9697, 0.8590245
425.4518, 1.192127
425.9340, 1.307701
426.4161, 1.081427
426.8982, 1.304628
427.3803, 0.7247596
427.8624, 0.8495960
428.3445, 1.278482
428.8267, 1.071956
429.3088, 1.302339
429.7909, 1.366321
430.2730, 0.6740900
430.7551, 1.296991
431.2372, 1.351141
431.7194, 0.8213080
432.2015, 0.6893010
432.6836, 0.2456970
433.1657, 8.7035999E-02
433.6478, 0.1009830
434.1299, 0.1765750
434.6121, 0.3818970
435.0942, 0.4428560
435.5763, 0.5137940
436.0584, 0.6136630
436.5405, 0.7375790
437.0226, 0.9156650
437.5048, 1.148254
437.9869, 1.334045
438.4690, 1.267792
438.9511, 0.8067320
439.4332, 0.5600740
439.9153, 0.4859010
440.3975, 0.6809390
440.8796, 1.280975
441.3617, 2.203049
441.8438, 3.290543
442.3259, 4.598907
442.8080, 5.885147
443.2902, 6.146408
443.7723, 4.877518
444.2544, 3.856506
444.7365, 4.052795
445.2186, 4.588333
445.7007, 4.630157
446.1829, 3.990295
446.6650, 3.274551
447.1471, 2.965210
447.6292, 3.026825
448.1113, 3.307327
448.5934, 3.881851
449.0756, 4.478439
449.5577, 4.912766
450.0398, 5.193909
450.5219, 5.307068
451.0040, 5.088867
451.4861, 4.814331
451.9683, 4.729950
452.4504, 4.825043
452.9325, 5.056412
453.4146, 5.480682
453.8967, 5.937439
454.3788, 6.011246
454.8610, 5.546753
455.3431, 5.273300
455.8252, 5.388397
456.3073, 5.759048
456.7894, 6.396271
457.2715, 7.239471
457.7537, 7.846298
458.2358, 7.778946
458.7179, 7.044159
459.2000, 6.826218
459.6821, 7.580917
460.1642, 8.220978
460.6464, 8.437347
461.1285, 8.368317
461.6106, 8.197266
462.0927, 7.999161
462.5748, 7.777420
463.0569, 7.485428
463.5391, 6.923676
464.0212, 6.843048
464.5033, 7.840561
464.9854, 8.721115
465.4675, 8.728897
465.9496, 8.098129
466.4318, 7.603287
466.9139, 7.816925
467.3960, 8.478699
467.8781, 8.658890
468.3602, 8.085709
468.8423, 7.727844
469.3245, 8.124680
469.8066, 8.701096
470.2887, 8.992935
470.7708, 8.930328
471.2529, 8.784210
471.7350, 8.805786
472.2172, 8.916687
472.6993, 8.754074
473.1814, 8.152222
473.6635, 7.721848
474.1456, 8.068771
474.6277, 8.898865
475.1099, 9.589783
475.5920, 10.15135
476.0741, 10.41229
476.5562, 10.03963
477.0383, 9.190353
477.5204, 8.411667
478.0026, 7.897720
478.4847, 7.623398
478.9668, 7.543472
479.4489, 7.683746
479.9310, 7.859863
480.4131, 7.574142
480.8953, 7.545120
481.3774, 8.093990
481.8595, 8.443336
482.3416, 8.603889
482.8237, 8.010173
483.3058, 8.390433
483.7880, 8.380391
484.2701, 8.354325
484.7522, 8.871669
485.2343, 8.387664
485.7164, 9.263214
486.1985, 9.815704
486.6807, 10.15025
487.1628, 10.12910
487.6449, 9.567917
488.1270, 8.567093
488.6091, 7.971420
489.0912, 7.959747
489.5734, 8.063004
490.0555, 8.090317
490.5376, 8.142197
491.0197, 8.236923
491.5018, 7.945042
491.9839, 8.507153
492.4661, 8.869773
492.9482, 9.043575
493.4303, 8.463105
493.9124, 8.856619
494.3945, 8.859800
494.8766, 8.846976
495.3588, 9.377594
495.8409, 8.822266
496.3230, 9.895966
496.8051, 11.12761
497.2872, 11.36052
497.7693, 10.81932
498.2515, 10.27469
498.7336, 9.975433
499.2157, 9.939148
499.6978, 10.25183
500.1799, 11.06252
500.6620, 11.62035
501.1442, 11.71500
501.6263, 11.67766
502.1084, 11.73920
502.5905, 11.88380
503.0726, 11.93158
503.5547, 11.74458
504.0368, 11.45891
504.5190, 11.57455
505.0011, 12.56639
505.4832, 13.22194
505.9653, 13.43481
506.4474, 13.36382
506.9295, 12.91365
507.4117, 12.22119
507.8938, 11.75140
508.3759, 11.91219
508.8580, 12.62411
509.3401, 13.49846
509.8222, 14.81485
510.3044, 15.67276
510.7865, 15.35905
511.2686, 14.64120
511.7507, 14.26581
512.2328, 14.38426
512.7150, 14.55200
513.1971, 14.34883
513.6792, 13.93652
514.1613, 13.82773
514.6434, 14.13531
515.1255, 14.50406
515.6077, 14.69322
516.0898, 14.72327
516.5719, 14.71150
517.0540, 14.55629
517.5361, 14.48871
518.0182, 14.70013
518.5004, 15.04601
518.9825, 15.26759
519.4646, 15.29649
519.9467, 15.26268
520.4288, 15.29973
520.9109, 15.38821
521.3931, 15.69568
521.8752, 16.59375
522.3573, 17.27391
522.8394, 17.30115
523.3215, 16.97229
523.8036, 16.78207
524.2858, 16.92407
524.7679, 17.11732
525.2500, 16.76895
525.7321, 15.64250
526.2142, 15.18341
526.6964, 16.08128
527.1785, 17.02629
527.6606, 17.36575
528.1427, 17.28836
528.6248, 17.26244
529.1069, 17.51614
529.5891, 17.85236
530.0712, 17.98764
530.5533, 17.93539
531.0354, 17.93951
531.5175, 18.10774
531.9996, 18.29190
532.4818, 18.37236
532.9639, 18.35559
533.4460, 18.06734
533.9281, 17.04283
534.4102, 16.09381
534.8923, 15.97220
535.3745, 16.49246
535.8566, 16.98981
536.3387, 17.16170
536.8208, 17.09502
537.3029, 16.93849
537.7850, 16.47116
538.2672, 16.40178
538.7493, 17.29395
539.2314, 18.04431
539.7135, 17.79034
540.1956, 16.85522
540.6777, 16.21057
541.1599, 16.47566
541.6420, 17.24867
542.1241, 17.48387
542.6062, 17.01096
543.0883, 16.54269
543.5704, 15.78233
544.0526, 15.10254
544.5347, 15.60415
545.0168, 15.90624
545.4989, 16.01954
545.9810, 15.37857
546.4631, 15.71157
546.9453, 15.65427
547.4274, 15.58094
547.9095, 16.05103
548.3916, 15.51976
548.8737, 15.98123
549.3558, 16.57693
549.8380, 16.90401
550.3201, 16.89796
550.8022, 16.20609
551.2843, 15.45396
551.7664, 15.18962
552.2485, 15.34459
552.7307, 15.53807
553.2128, 15.55305
553.6949, 15.46721
554.1770, 15.52124
554.6591, 15.99609
555.1412, 16.09213
555.6234, 15.45346
556.1055, 14.77832
556.5876, 14.56158
557.0697, 14.69264
557.5518, 14.68362
558.0339, 14.13506
558.5161, 13.44289
558.9982, 13.45023
559.4803, 13.83319
559.9624, 14.12642
560.4445, 14.22012
560.9266, 14.12505
561.4088, 13.27566
561.8909, 13.40028
562.3730, 13.13460
562.8551, 12.85289
563.3372, 13.11460
563.8193, 12.37497
564.3015, 12.52768
564.7836, 12.42343
565.2657, 12.53780
565.7478, 12.71082
566.2299, 12.62956
566.7120, 12.13512
567.1942, 11.74168
567.6763, 11.45438
568.1584, 11.21892
568.6405, 10.96986
569.1226, 10.76111
569.6047, 10.73969
570.0869, 10.99629
570.5690, 11.37473
571.0511, 11.56499
571.5332, 11.56328
572.0153, 11.35837
572.4974, 10.65562
572.9796, 10.06703
573.4617, 10.00278
573.9438, 10.27933
574.4259, 10.44102
574.9080, 10.29721
575.3901, 10.01089
575.8723, 9.593796
576.3544, 9.092773
576.8365, 8.987961
577.3186, 9.533554
577.8007, 10.21013
578.2828, 10.42233
578.7650, 10.14240
579.2471, 9.858002
579.7292, 9.548904
580.2113, 9.269394
580.6934, 9.017548
581.1755, 8.818390
581.6577, 8.746262
582.1398, 8.820496
582.6219, 8.886322
583.1040, 8.708466
583.5861, 8.234146
584.0682, 7.973114
584.5504, 8.287506
585.0325, 8.370605
585.5145, 7.718918
585.9966, 6.816498
586.4788, 6.308792
586.9609, 6.384750
587.4430, 6.650757
587.9251, 6.782959
588.4072, 6.800903
588.8893, 6.777191
589.3715, 6.718674
589.8536, 6.607681
590.3357, 6.382782
590.8178, 6.103500
591.2999, 5.969086
591.7820, 6.015488
592.2642, 6.130692
592.7463, 6.517960
593.2284, 6.819016
593.7105, 6.523743
594.1926, 5.660416
594.6747, 4.682755
595.1569, 3.905350
595.6390, 3.376968
596.1211, 3.403229
596.6032, 4.451111
597.0853, 5.244339
597.5674, 5.627869
598.0496, 5.741150
598.5317, 5.618042
599.0138, 5.304352
599.4959, 4.921967
599.9780, 4.579407
600.4601, 4.195526
600.9423, 3.466629
601.4244, 2.384430
601.9065, 1.737411
602.3886, 1.913284
602.8707, 2.456955
603.3528, 2.797272
603.8350, 2.942245
604.3171, 3.018692
604.7992, 2.986603
605.2813, 2.944565
605.7634, 2.980881
606.2455, 3.050156
606.7277, 3.028229
607.2098, 2.871674
607.6919, 2.700928
608.1740, 2.747894
608.6561, 3.117188
609.1382, 3.122772
609.6204, 2.324051
610.1025, 1.665268
610.5846, 1.572250
611.0667, 1.738327
611.5488, 1.733704
612.0309, 1.433334
612.5131, 1.082535
612.9952, 0.9200130
613.4773, 0.8900600
613.9594, 0.8381650
614.4415, 0.7650150
614.9236, 0.5229340
615.4058, 0.1580350
615.8879, 1.010071
616.3700, 1.148529
616.8521, 0.1712490
617.3342, 0.6063390
617.8163, 0.8448330
618.2985, 0.8306430
618.7806, 0.7279510
619.2627, 0.6035770
619.7448, 0.5606080
620.2269, 0.6743320
620.7090, 0.8759310
621.1912, 1.001236
621.6733, 1.104935
622.1554, 0.9643710
622.6375, 0.3517000
623.1196, 0.3331450
623.6017, 0.9850620
624.0839, 1.529984
624.5660, 1.781448
625.0481, 1.560349
625.5302, 1.186539
626.0123, 0.9112400
626.4944, 0.7410890
626.9766, 0.7294620
627.4587, 0.9027860
627.9408, 1.116867
628.4229, 1.227798
628.9050, 1.237549
629.3871, 1.357224
629.8693, 1.849731
630.3514, 2.102142
630.8335, 1.684479
631.3156, 1.150604
631.7977, 1.209076
632.2798, 1.849289
632.7620, 2.357697
633.2441, 2.062408
633.7262, 1.195145
634.2083, 0.6954500
634.6904, 0.6745300
635.1725, 0.5739590
635.6547, 0.1233220
636.1368, 0.3753510
636.6189, 0.6106870
637.1010, 0.5970000
637.5831, 0.5596620
638.0652, 0.5874790
638.5474, 0.6022190
639.0295, 0.4519810
639.5116, 0.2424470
639.9937, 0.2903440
640.4758, 0.7054900
640.9579, 1.201340
641.4401, 1.396011
641.9222, 1.249100
642.4043, 1.180573
642.8864, 1.267059
643.3685, 1.343353
643.8506, 1.261719
644.3328, 1.215485
644.8149, 1.519302
645.2970, 2.187439
645.7791, 2.729248
646.2612, 2.531189
646.7433, 1.955551
647.2255, 1.998932
647.7076, 2.703278
648.1897, 3.304413
648.6718, 3.449188
649.1539, 3.353088
649.6360, 3.357376
650.1182, 3.461960
650.6003, 3.651917
651.0824, 4.083694
651.5645, 4.444321
652.0466, 4.455566
652.5287, 4.293182
653.0109, 4.345551
653.4930, 4.736069
653.9751, 5.115128
654.4572, 4.869385
654.9393, 3.968796
655.4214, 3.759354
655.9036, 4.530518
656.3857, 5.421814
656.8678, 6.319504
657.3499, 6.992920
657.8320, 7.008789
658.3141, 6.230591
658.7963, 5.700623
659.2784, 6.138199
659.7605, 6.892319
660.2426, 7.231491
660.7247, 7.197922
661.2068, 7.165161
661.6890, 7.306595
662.1711, 7.553314
662.6532, 7.775406
663.1353, 7.936508
663.6174, 8.200119
664.0995, 8.777679
664.5817, 9.223923
665.0638, 9.304642
665.5459, 9.206848
666.0280, 9.187500
666.5101, 9.314438
666.9922, 9.106804
667.4744, 9.719940
667.9565, 10.13350
668.4386, 10.35828
668.9207, 9.828796
669.4028, 10.27327
669.8849, 10.32744
670.3671, 10.36564
670.8492, 10.94720
671.3313, 10.52743
671.8134, 11.10039
672.2955, 11.27705
672.7776, 11.63509
673.2598, 11.60045
673.7419, 11.68704
674.2240, 12.16652
674.7061, 12.42847
675.1882, 12.34855
675.6703, 12.71813
676.1525, 12.28468
676.6346, 13.21686
677.1167, 13.17848
677.5988, 12.91914
678.0809, 12.53705
678.5630, 12.20659
679.0452, 12.25185
679.5273, 12.73709
680.0094, 13.23051
680.4915, 13.66716
680.9736, 14.03258
681.4557, 14.21373
681.9379, 14.31422
682.4200, 14.55771
682.9021, 15.05247
683.3842, 15.76797
683.8663, 16.73357
684.3484, 17.99988
684.8306, 18.90698
685.3127, 19.11673
685.7948, 19.48705
686.2769, 20.68547
686.7590, 22.04208
687.2411, 22.69739
687.7233, 22.50589
688.2054, 22.56204
688.6875, 23.57915
689.1696, 24.93071
689.6517, 25.92036
690.1339, 26.59743
690.6160, 27.17662
691.0981, 27.76205
691.5802, 28.85126
692.0623, 31.29889
692.5444, 35.34134
693.0266, 38.42764
693.5087, 40.54050
693.9908, 40.53681
694.4729, 41.54066
694.9550, 42.20510
695.4371, 42.54083
695.9193, 41.98247
696.4014, 42.25814
696.8835, 42.00364
697.3656, 41.59322
697.8477, 42.24338
698.3298, 41.69470
698.8120, 41.12291
699.2941, 40.63681
699.7762, 39.90533
700.2583, 38.46602
700.7404, 36.25465
701.2225, 34.04422
701.7047, 31.69754
702.1868, 29.57464
702.6689, 27.95230
703.1510, 26.49849
703.6331, 24.72463
704.1152, 22.68915
704.5974, 20.84966
705.0795, 19.60423
705.5616, 18.65088
706.0437, 17.50264
706.5258, 16.21609
707.0079, 15.08502
707.4901, 14.15626
707.9722, 13.59155
708.4543, 13.66989
708.9364, 14.37408
709.4185, 14.64680
709.9006, 14.23727
710.3828, 13.75385
710.8649, 13.10931
711.3470, 12.55469
711.8291, 12.28459
712.3112, 12.30271
712.7933, 12.56190
713.2755, 13.11396
713.7576, 13.74220
714.2397, 14.03512
714.7218, 14.06507
715.2039, 14.40224
715.6860, 15.23458
716.1682, 15.91453
716.6503, 15.77436
717.1324, 15.06038
717.6145, 15.14123
718.0966, 16.96445
718.5787, 18.18191
719.0609, 18.09288
719.5430, 17.76760
720.0251, 18.01055
720.5072, 18.65407
720.9893, 19.05273
721.4714, 18.87311
721.9536, 18.58088
722.4357, 18.91743
722.9178, 19.72517
723.3999, 20.06604
723.8820, 19.80678
724.3641, 19.40312
724.8463, 19.11160
725.3284, 18.82902
725.8105, 18.36373
726.2926, 17.68234
726.7747, 16.95791
727.2568, 16.15973
727.7390, 15.30661
728.2211, 14.48885
728.7032, 13.63107
729.1853, 12.53418
729.6674, 11.14013
730.1495, 9.765800
730.6317, 8.827309
731.1138, 8.216553
731.5959, 7.474464
732.0780, 6.570320
732.5601, 5.715660
733.0422, 4.923317
733.5244, 4.360519
734.0065, 4.364693
734.4886, 5.100967
734.9707, 5.336624
735.4528, 4.851601
735.9349, 4.128822
736.4171, 3.101669
736.8992, 2.066292
737.3813, 1.294693
737.8634, 0.8463970
738.3455, 0.6406330
738.8276, 0.6668090
739.3098, 0.8460010
739.7919, 1.136131
740.2740, 1.505989
740.7561, 1.446754
741.2382, 0.7458500
741.7203, 6.4354002E-02
742.2025, 0.5492400
742.6846, 0.7288890
743.1667, 0.6929550
743.6488, 0.1273500
744.1309, 0.2241210
744.6130, 0.1687010
745.0952, 4.1901000E-02
745.5773, 0.3562770
746.0594, 0.6503070
746.5415, 0.6680220
747.0236, 0.2573850
747.5057, 0.2453460
747.9879, 0.4864880
748.4700, 0.4989620
748.9521, 0.2958070
749.4342, 0.1298290
749.9163, 0.3328020
750.3984, 6.5444998E-02
750.8806, 0.4236910
751.3627, 0.6664660
751.8448, 0.5634840
752.3269, 0.5536580
752.8090, 0.7360080
753.2911, 0.9206920
753.7733, 1.036728
754.2554, 1.071396
754.7375, 1.097000
755.2196, 1.130058
755.7017, 1.042053
756.1838, 0.5246960
756.6660, 0.1044310
757.1481, 0.3142850
757.6302, 0.1296620
758.1123, 0.3722990
758.5944, 1.229630
759.0765, 1.875931
759.5587, 1.532288
760.0408, 0.2218400
760.5229, 0.3985140
761.0050, 0.2835390
761.4871, 0.7577210
761.9692, 0.6123120
762.4514, 0.3777390
762.9335, 0.4505000
763.4156, 0.7741090
763.8977, 1.047852
764.3798, 1.113762
764.8619, 1.171631
765.3441, 1.476357
765.8262, 1.853386
766.3083, 1.940186
766.7904, 1.719780
767.2725, 1.456932
767.7546, 1.307999
768.2368, 1.238937
768.7189, 1.161186
769.2010, 1.045479
769.6831, 1.040138
770.1652, 1.229271
770.6473, 1.390396
771.1295, 1.454933
771.6116, 1.431755
772.0937, 1.261108
772.5758, 0.9144060
773.0579, 0.7829360
773.5400, 1.263245
774.0222, 1.793358
774.5043, 1.924721
774.9864, 1.763527
775.4685, 1.482117
775.9506, 1.160774
776.4327, 0.9467390
776.9149, 0.9930880
777.3970, 1.259727
777.8791, 1.618263
778.3612, 2.128159
778.8433, 2.390289
779.3254, 2.207092
779.8076, 1.928802
780.2897, 1.935471
780.7718, 2.108994
781.2539, 1.942245
781.7360, 1.007172
782.2181, 0.3836980
782.7003, 0.6545410
783.1824, 1.064941
783.6645, 0.8542480
784.1466, 0.2768550
784.6287, 0.1493910
785.1108, 0.8336180
785.5930, 1.669647
786.0751, 1.752144
786.5572, 1.300354
787.0393, 1.301109
787.5214, 1.820580
788.0035, 2.093670
788.4857, 1.720310
788.9678, 1.122875
789.4499, 0.9240300
789.9320, 1.186104
790.4141, 1.344978
790.8962, 0.8448699
791.3784, 1.288505
791.8605, 1.532626
792.3426, 1.587948
792.8247, 0.8890054
793.3068, 1.164040
793.7889, 1.048750
794.2711, 0.9174496
794.7532, 1.329569
795.2353, 0.7403319
795.7174, 1.143832
796.1995, 1.151049
796.6816, 1.339637
797.1638, 1.135483
797.6459, 1.052638
798.1280, 1.362654
798.6101, 1.455139
799.0922, 1.205778
799.5743, 1.405894
800.0565, 0.8029357
800.5386, 0.9046872
801.0207, 1.310486
801.5028, 1.080872
801.9849, 0.6284940
802.4670, 0.4850880
802.9492, 0.3865200
803.4313, 0.1908760
803.9134, 0.1323780
804.3955, 0.5738950
804.8776, 1.187695
805.3597, 1.493607
805.8419, 1.387447
806.3240, 0.6013864
806.8061, 1.080288
807.2882, 1.359671
807.7703, 1.450257
808.2524, 0.7865749
808.7346, 1.096879
809.2167, 1.016848
809.6988, 0.9208142
810.1809, 1.368195
810.6630, 0.8142221
811.1451, 1.252982
811.6273, 1.295469
812.1094, 1.519316
812.5915, 1.350429
813.0736, 1.302846
813.5557, 1.648125
814.0378, 1.775870
814.5200, 1.561779
815.0021, 1.797154
815.4842, 1.229462
815.9663, 1.366475
816.4484, 1.807537
816.9305, 1.613184
817.4127, 1.855748
817.8948, 1.931905
818.3769, 1.251850
818.8590, 1.886928
819.3411, 1.953254
819.8232, 1.435593
820.3054, 2.025615
820.7875, 1.588462
821.2696, 1.517948
821.7517, 1.723351
822.2338, 1.641120
822.7159, 2.012373
823.1981, 1.946759
823.6802, 1.842102
824.1623, 1.907791
824.6444, 1.490783
825.1265, 1.969273
825.6086, 1.836060
826.0908, 2.006918
826.5729, 2.246687
827.0550, 1.958742
827.5371, 2.229480
828.0192, 1.633831
828.5013, 1.763118
828.9835, 2.235298
829.4656, 2.431973
829.9477, 2.603558
830.4298, 2.628689
830.9119, 2.487869
831.3940, 2.369965
831.8762, 2.404419
832.3583, 2.514008
832.8404, 2.504631
833.3225, 2.326763
833.8046, 2.155888
834.2867, 1.982746
834.7689, 1.840755
835.2510, 1.730228
835.7331, 1.663601
836.2152, 1.664993
836.6973, 1.730324
837.1794, 1.827198
837.6616, 1.992985
838.1437, 2.165913
838.6258, 2.295464
839.1079, 2.355827
839.5900, 2.247940
840.0721, 2.013924
840.5543, 1.876949
841.0364, 1.974613
841.5185, 2.188385
842.0006, 2.357231
842.4827, 2.477386
842.9648, 2.510464
843.4470, 2.448601
843.9291, 2.322227
844.4112, 2.089054
844.8933, 1.944603
845.3754, 2.260220
845.8575, 3.161846
846.3397, 3.692501
846.8218, 3.579121
847.3039, 3.408401
847.7860, 3.191555
848.2681, 3.067234
848.7502, 3.259087
849.2324, 3.650547
849.7145, 3.799999
850.1966, 3.400795
850.6787, 3.097206
851.1608, 3.359901
851.6429, 3.798588
852.1251, 4.020565
852.6072, 4.018867
853.0893, 3.846863
853.5714, 3.532482
854.0535, 3.282833
854.5356, 3.470814
855.0178, 3.970016
855.4999, 4.144287
855.9820, 3.996422
856.4641, 3.852112
856.9462, 3.768021
857.4283, 3.786819
857.9105, 4.041996
858.3926, 4.465408
858.8747, 4.451408
859.3568, 3.490284
859.8389, 2.964020
860.3210, 3.437763
860.8032, 3.852940
861.2853, 3.512981
861.7674, 2.851837
862.2495, 2.596691
862.7316, 2.862129
863.2137, 3.253059
863.6959, 3.758213
864.1780, 4.150555
864.6601, 4.203438
865.1422, 4.006943
865.6243, 3.771866
866.1064, 3.582367
866.5886, 3.411713
867.0707, 3.225300
867.5528, 2.991894
868.0349, 2.516159
868.5170, 1.894928
868.9991, 1.738186
869.4813, 1.772890
869.9634, 2.202912
870.4455, 2.433413
870.9276, 2.475116
871.4097, 1.762554
871.8918, 2.023972
872.3740, 1.895055
872.8561, 1.750142
873.3382, 2.148640
873.8203, 1.545785
874.3024, 1.935665
874.7845, 1.929267
875.2667, 2.104227
875.7488, 1.886460
876.2309, 1.789994
876.7130, 2.086391
877.1951, 2.165256
877.6772, 1.902279
878.1594, 2.088768
878.6415, 1.472196
879.1236, 1.560327
879.6057, 1.952506
880.0878, 1.175476
880.5699, 1.300537
881.0521, 1.670811
881.5342, 1.773235
882.0163, 1.694374
882.4984, 1.780060
882.9805, 2.101414
883.4626, 2.326839
883.9448, 2.175014
884.4269, 1.801231
884.9090, 1.702686
885.3911, 1.953796
885.8732, 2.082573
886.3553, 2.003944
886.8375, 1.926620
887.3196, 1.996307
887.8017, 2.086353
888.2838, 1.980080
888.7659, 1.648529
889.2480, 1.422421
889.7302, 1.334553
890.2123, 1.301731
890.6944, 1.273388
891.1765, 0.9641330
891.6586, 1.428625
892.1407, 1.693599
892.6229, 1.769778
893.1050, 1.091689
893.5871, 1.387578
894.0692, 1.293141
894.5513, 1.182697
895.0334, 1.615670
895.5156, 1.047290
895.9977, 1.471643
896.4798, 1.499716
896.9619, 1.709157
897.4440, 1.525860
897.9261, 1.463868
898.4083, 1.794741
898.8904, 1.908080
899.3725, 1.679574
899.8546, 1.900544
900.3367, 1.318442
900.8188, 1.441047
901.3010, 1.342056
901.7831, 1.104580
902.2652, 0.3803677
902.7473, 0.8248696
903.2294, 1.069855
903.7115, 1.126041
904.1937, 0.4279595
904.6758, 0.7038592
905.1579, 0.5894315
905.6400, 0.4589985
906.1221, 0.8719812
906.6042, 0.7830310
907.0864, 0.8903050
907.5685, 0.7298200
908.0506, 0.5920940
908.5327, 0.7485390
909.0148, 1.035568
909.4969, 1.166561
909.9791, 1.079239
910.4612, 0.9523120
910.9433, 0.8521770
911.4254, 0.8156700
911.9075, 1.007210
912.3896, 1.250721
912.8718, 1.107632
913.3539, 0.6082310
913.8360, 0.2441790
914.3181, 0.2968180
914.8002, 0.5339130
915.2823, 0.5545690
915.7644, 0.3757550
916.2465, 0.3366850
916.7286, 0.4609870
917.2108, 0.5107610
917.6929, 0.4152760
918.1750, -0.1603530
918.6571, 0.3333846
919.1392, 0.6276041
919.6213, 0.7330215
920.1035, 8.4188111E-02
920.5856, 0.4093175
921.0677, 0.3441258
921.5498, 0.2629288
922.0319, 9.9776998E-02
922.5140, 0.1566240
922.9962, 0.3412210
923.4783, 0.4591710
923.9604, 0.4924240
924.4425, 0.3916970
924.9246, 0.2650790
925.4067, 9.6569002E-02
925.8889, 4.3823000E-02
926.3710, 0.1995430
926.8531, 0.1187488
927.3352, 0.5765270
927.8173, 0.8347870
928.2994, 0.9042495
928.7816, 0.2194475
929.2637, 0.5086219
929.7458, 0.4074708
930.2279, 0.2903142
930.7100, 0.7165719
931.1921, 0.2463720
931.6743, 3.4145001E-02
932.1564, 0.1667670
932.6385, 0.5440900
933.1206, 0.6200490
933.6027, 0.4198880
934.0848, 0.1169360
934.5670, -7.8622818E-02
935.0491, 0.4215622
935.5312, 0.7222348
936.0133, 0.8341106
936.4954, 0.1917212
936.9775, 0.5233036
937.4597, 9.8077938E-02
937.9418, 0.5553951
938.4239, 0.8131942
938.9060, 0.8821961
939.3881, 0.1969327
939.8702, 0.4856463
940.3524, 0.3840347
940.8345, 0.2664171
941.3166, 0.6922140
941.7987, 0.1166569
942.2808, 0.5338362
942.7629, 0.5547330
943.2451, 0.7569990
943.7272, 0.5322110
944.2093, 0.4110830
944.6914, 0.2095910
945.1735, 0.2530940
945.6556, 0.7488370
946.1378, 1.119411
946.6199, 1.122688
947.1020, 0.9706270
947.5841, 0.6620980
948.0662, 0.3714980
948.5483, 0.4051090
949.0305, 0.7518880
949.5126, 1.010536
949.9947, 0.9302980
950.4768, 0.6951410
950.9589, 0.3938410
951.4410, 0.1158100
951.9232, 3.4313001E-02
952.4053, 0.1152530
952.8874, 0.1791000
953.3695, 0.1436770
953.8516, 7.6134004E-02
954.3337, 0.1234700
954.8159, 0.2498820
955.2980, 0.3526690
955.7801, 0.4233440
956.2622, 0.3659480
956.7443, 0.1704710
957.2264, 1.1974000E-02
957.7086, 1.5648000E-02
958.1907, 5.5744000E-02
958.6728, 0.1939850
959.1549, 0.4038310
959.6370, 0.5850490
960.1191, 0.7681690
960.6013, 0.7647360
961.0834, 0.4673390
961.5655, 0.1103710
962.0476, 0.1302800
962.5297, 0.2700160
963.0118, 0.4678800
963.4940, 0.8561590
963.9761, 0.9399220
964.4582, 0.4958270
964.9403, 8.9027002E-02
965.4224, 0.1029090
965.9045, 0.2004130
966.3867, 0.3138890
966.8688, 0.4295430
967.3509, 0.4602390
967.8330, 0.4123190
968.3151, 0.2534030
968.7972, 4.7591999E-02
969.2794, -2.8853426E-02
969.7615, 0.4780376
970.2436, 0.7854168
970.7257, 0.9039987
971.2078, 0.2683153
971.6899, 0.6066023
972.1721, 0.5545830
972.6542, 0.4865386
973.1363, 0.9619150
973.6184, 0.4359373
974.1005, 0.9026959
974.5826, 0.9731656
975.0648, 1.225023
975.5469, 1.084125
976.0290, 1.064537
976.5111, 1.437811
976.9932, 0.2604450
977.4753, 7.7858001E-02
977.9575, 0.4099960
978.4396, 0.9342270
978.9217, 1.507317
979.4038, 1.700371
979.8859, 1.294334
980.3680, 0.7805860
980.8502, 0.8529280
981.3323, 1.344429
981.8144, 1.723625
982.2965, 1.980011
982.7786, 1.886871
983.2607, 1.394714
983.7429, 1.059357
984.2250, 1.257492
984.7071, 1.756714
985.1892, 2.202278
985.6713, 2.583618
986.1534, 2.595177
986.6356, 2.151390
987.1177, 1.784073
987.5998, 1.616417
988.0819, 1.637039
988.5640, 1.909889
989.0461, 2.353447
989.5283, 2.553055
990.0104, 2.339058
990.4925, 2.352386
990.9746, 2.895378
991.4567, 3.122292
991.9388, 2.500420
992.4210, 1.718300
992.9031, 1.410805
993.3852, 1.545525
993.8673, 1.886696
994.3494, 2.875916
994.8315, 3.315392
995.3137, 2.469749
995.7958, 1.887901
996.2779, 2.551826
996.7600, 3.615059
997.2421, 4.094872
997.7242, 4.005089
998.2064, 4.019112
998.6885, 4.324234
999.1706, 4.645752
999.6527, 4.171291
1000.135, 4.555052
1000.617, 4.739340
1001.099, 4.734831
1001.581, 3.976056
1002.063, 4.191257
1002.545, 4.016132
1003.028, 3.824846
1003.510, 4.177129
1003.992, 3.528058
1004.474, 3.871722
1004.956, 3.751801
1005.438, 3.892395
1005.920, 4.103279
1006.402, 4.294479
1006.884, 4.380623
1007.367, 4.276978
1007.849, 4.111313
1008.331, 3.919052
1008.813, 3.785919
1009.295, 3.863800
1009.777, 4.102737
1010.259, 4.378151
1010.741, 4.633995
1011.224, 4.793365
1011.706, 4.738747
1012.188, 4.595909
1012.670, 4.597504
1013.152, 4.651886
1013.634, 4.381538
1014.116, 3.905228
1014.598, 3.494822
1015.080, 3.997285
1015.563, 4.300325
1016.045, 4.414473
1016.527, 3.774355
1017.009, 4.108215
1017.491, 4.051755
1017.973, 3.979283
1018.455, 4.450226
1018.937, 3.958199
1019.419, 4.130760
1019.902, 4.550362
1020.384, 4.904716
1020.866, 5.193817
1021.348, 5.457306
1021.830, 5.689850
1022.312, 5.645210
1022.794, 5.259010
1023.276, 5.148216
1023.759, 5.715118
1024.241, 6.494408
1024.723, 6.732582
1025.205, 6.473808
1025.687, 6.270607
1026.169, 6.108856
1026.651, 6.167580
1027.133, 6.531013
1027.615, 6.872391
1028.098, 6.980133
1028.580, 6.971901
1029.062, 7.064697
1029.544, 7.266060
1030.026, 7.324028
1030.508, 7.191940
1030.990, 7.149216
1031.472, 7.243530
1031.955, 7.400047
1032.437, 7.603477
1032.919, 7.807571
1033.401, 7.935677
1033.883, 7.973106
1034.365, 8.134140
1034.847, 8.374779
1035.329, 8.851883
1035.812, 9.837349
1036.294, 10.70500
1036.776, 11.03738
1037.258, 10.99999
1037.740, 10.87577
1038.222, 10.63159
1038.704, 10.49571
1039.186, 10.36638
1039.668, 10.52933
1040.151, 11.36441
1040.633, 12.11434
1041.115, 12.14062
1041.597, 11.82464
1042.079, 11.91511
1042.561, 12.48684
1043.043, 12.96786
1043.525, 13.17886
1044.007, 13.52558
1044.490, 14.26105
1044.972, 14.97124
1045.454, 15.41312
1045.936, 15.64291
1046.418, 15.70177
1046.900, 15.54538
1047.382, 15.71969
1047.864, 16.61435
1048.347, 17.36544
1048.829, 17.61979
1049.311, 17.86887
1049.793, 18.51176
1050.275, 19.31779
1050.757, 19.87766
1051.239, 20.13897
1051.721, 20.37862
1052.203, 20.46981
1052.686, 20.79065
1053.168, 21.44368
1053.650, 22.35315
1054.132, 23.61314
1054.614, 25.03453
1055.096, 26.30997
1055.578, 27.39539
1056.060, 28.53764
1056.542, 29.78876
1057.025, 31.13156
1057.507, 32.58833
1057.989, 34.10765
1058.471, 35.58110
1058.953, 37.13722
1059.435, 38.99635
1059.917, 41.18585
1060.399, 43.48599
1060.882, 45.66686
1061.364, 48.18742
1061.846, 51.61345
1062.328, 55.05099
1062.810, 57.55602
1063.292, 59.78961
1063.774, 62.70181
1064.256, 66.41577
1064.739, 70.62640
1065.221, 75.35718
1065.703, 80.34290
1066.185, 85.50444
1066.667, 90.83449
1067.149, 96.36513
1067.631, 102.0670
1068.113, 107.9279
1068.595, 113.9228
1069.078, 120.0683
1069.560, 126.4300
1070.042, 132.8719
1070.524, 139.0971
1071.006, 145.6709
1071.488, 153.5807
1071.970, 161.8113
1072.452, 169.0532
1072.934, 175.2975
1073.417, 181.3810
1073.899, 187.4253
1074.381, 194.0510
1074.863, 202.0668
1075.345, 210.1297
1075.827, 217.1114
1076.309, 223.6227
1076.791, 230.5304
1077.274, 237.8676
1077.756, 245.2556
1078.238, 252.7170
1078.720, 259.9012
1079.202, 266.6347
1079.684, 272.8597
1080.166, 279.2497
1080.648, 284.6530
1081.130, 288.2992
1081.613, 289.7844
1082.095, 288.6611
1082.577, 284.8177
1083.059, 278.4363
1083.541, 269.3182
1084.023, 257.9115
1084.505, 244.2348
1084.987, 228.5916
1085.469, 210.2701
1085.952, 190.4592
1086.434, 171.5198
1086.916, 154.0034
1087.398, 137.7211
1087.880, 122.2475
1088.362, 108.3639
1088.844, 96.35066
1089.326, 86.20757
1089.808, 78.34978
1090.291, 72.21242
1090.773, 66.94353
1091.255, 62.39206
1091.737, 58.79558
1092.219, 56.62903
1092.701, 54.82726
1093.183, 53.06868
1093.665, 51.43925
1094.148, 49.84145
1094.630, 48.46925
1095.112, 47.81403
1095.594, 47.79947
1096.076, 47.43031
1096.558, 46.10812
1097.040, 45.01534
1097.522, 44.69577
1098.005, 44.55887
1098.487, 44.24945
1098.969, 43.92940
1099.451, 43.74132
1099.933, 43.72041
1100.415, 44.07140
1100.897, 45.20070
1101.379, 45.61261
1101.861, 43.83641
1102.344, 44.06582
1102.826, 44.09617
1103.308, 43.93777
1103.790, 43.02506
1104.272, 43.08638
1104.754, 42.75732
1105.236, 42.41231
1105.718, 42.61066
1106.200, 41.80771
1106.683, 41.99699
1107.165, 41.79044
1107.647, 41.76532
1108.129, 41.34740
1108.611, 41.05084
1109.093, 41.14709
1109.575, 41.02587
1110.057, 40.56275
1110.540, 39.48643
1111.022, 38.53918
1111.504, 36.48947
1111.986, 34.93329
1112.468, 35.34702
1112.950, 36.30254
1113.432, 35.72014
1113.914, 33.70813
1114.396, 32.38811
1114.879, 32.20567
1115.361, 31.94667
1115.843, 31.62305
1116.325, 31.17731
1116.807, 30.56657
1117.289, 29.85361
1117.771, 29.07584
1118.253, 28.26073
1118.735, 27.51790
1119.218, 26.91589
1119.700, 26.11121
1120.182, 24.80707
1120.664, 23.98639
1121.146, 24.29401
1121.628, 24.44257
1122.110, 23.46689
1122.592, 21.72714
1123.075, 19.83582
1123.557, 17.72812
1124.039, 16.63663
1124.521, 17.10339
1125.003, 16.53232
1125.485, 14.23288
1125.967, 11.76944
1126.449, 9.840363
1126.932, 8.447540
1127.414, 7.742981
1127.896, 7.534515
1128.378, 6.372559
1128.860, 4.084808
1129.342, 2.566467
1129.824, 2.074402
1130.306, 1.424561
1130.788, 0.1739810
1131.271, 1.415924
1131.753, 2.750754
1132.235, 3.196074
1132.717, 3.441873
1133.199, 3.498878
1133.681, 2.801614
1134.163, 3.078330
1134.645, 2.964718
1135.127, 2.835103
1135.610, 3.248878
1136.092, 2.661321
1136.574, 3.066503
1137.056, 3.075399
1137.538, 0.9646000
1138.020, 0.1631770
1138.502, 0.3307190
1138.984, 8.5205004E-02
1139.467, 0.6831670
1139.949, 1.231812
1140.431, 1.282745
1140.913, 1.329865
1141.395, 1.810577
1141.877, 2.495636
1142.359, 2.989655
1142.841, 3.401733
1143.323, 4.003601
1143.806, 4.683319
1144.288, 4.859680
1144.770, 4.586731
1145.252, 4.965851
1145.734, 6.795227
1146.216, 8.755493
1146.698, 9.451508
1147.180, 9.620270
1147.662, 10.15268
1148.145, 10.71228
1148.627, 10.47153
1149.109, 9.636597
1149.591, 9.328796
1150.073, 9.928802
1150.555, 10.80554
1151.037, 11.36600
1151.519, 12.32175
1152.002, 14.81165
1152.484, 17.38419
1152.966, 18.51523
1153.448, 18.74997
1153.930, 19.22070
1154.412, 20.01712
1154.894, 20.28946
1155.376, 19.43356
1155.859, 18.68527
1156.341, 18.14105
1156.823, 18.15927
1157.305, 19.36984
1157.787, 20.83731
1158.269, 21.43787
1158.751, 21.38556
1159.233, 21.89514
1159.715, 23.39279
1160.198, 24.40665
1160.680, 24.81580
1161.162, 24.67493
1161.644, 23.49908
1162.126, 21.59204
1162.608, 19.87659
1163.090, 19.09216
1163.572, 19.70123
1164.054, 21.30273
1164.537, 21.25148
1165.019, 21.50032
1165.501, 21.54969
1165.983, 21.41021
1166.465, 20.51652
1166.947, 20.59675
1167.429, 20.28671
1167.911, 19.96061
1168.394, 20.17750
1168.876, 19.39351
1169.358, 19.60221
1169.840, 20.12152
1170.322, 19.58960
1170.804, 18.35004
1171.286, 16.53241
1171.768, 15.21704
1172.250, 14.75635
1172.733, 14.69543
1173.215, 14.57086
1173.697, 14.36334
1174.179, 14.57373
1174.661, 14.98102
1175.143, 14.11139
1175.625, 12.29694
1176.107, 10.85193
1176.589, 10.18079
1177.072, 10.07556
1177.554, 10.68250
1178.036, 11.35400
1178.518, 11.03388
1179.000, 10.54108
1179.482, 10.54138
1179.964, 10.96576
1180.446, 11.84467
1180.929, 12.73566
1181.411, 12.71527
1181.893, 11.59406
1182.375, 10.13336
1182.857, 8.430054
1183.339, 7.023621
1183.821, 6.676331
1184.303, 6.355774
1184.786, 4.573120
1185.268, 2.517578
1185.750, 2.461609
1186.232, 4.187256
1186.714, 4.723022
1187.196, 2.883728
1187.678, 1.483215
1188.160, 0.4737550
1188.642, 0.1207280
1189.125, 1.362549
1189.607, 1.883789
1190.089, 0.8802490
1190.571, 0.0000000E+00
##END=



