##NAMES=Calderonite
##RRUFFID=R060427
##IDEAL CHEMISTRY=Pb_2_Fe^3+^(VO_4_)_2_(OH)
##LOCALITY=Las Colmenitas mine, Santa Marta, Badajoz, Extremadura, Spain
##OWNER=RRUFF
##SOURCE=Michael Scott
##DESCRIPTION=Sheaf of brown bladed crystals
##STATUS=The identification of this mineral is confirmed by single-crystal X-ray diffraction and chemical analysis.
##URL=rruff.info/R060427
##MEASURED CHEMISTRY=(Pb_1.90_Cu_0.08_Zn_0.02_)_Σ=2_(Fe^3+^_0.84_Cr_0.14_Al_0.02_)_Σ=1_((V_0.98_As_0.01_P_0.01_)_Σ=1_O_4_)_2_(OH); OH estimated by difference and charge balance
172.5130, 0.0000000E+00
172.9951, 4.371887
173.4772, 8.179565
173.9593, 11.13608
174.4414, 12.55328
174.9236, 13.24176
175.4057, 14.25269
175.8878, 15.71295
176.3699, 16.93372
176.8520, 17.24609
177.3341, 16.97156
177.8163, 16.53036
178.2984, 15.42664
178.7805, 14.29504
179.2626, 14.04013
179.7447, 14.39526
180.2268, 14.62094
180.7090, 13.86514
181.1911, 12.37061
181.6732, 11.08600
182.1553, 9.585846
182.6374, 8.710083
183.1195, 9.374817
183.6017, 9.442108
184.0838, 9.443420
184.5659, 8.411957
185.0480, 6.449890
185.5301, 4.426575
186.0123, 3.636322
186.4944, 3.770020
186.9765, 3.584015
187.4586, 2.989349
187.9407, 2.284760
188.4228, 1.924255
188.9050, 1.907990
189.3871, 1.828369
189.8692, 1.384705
190.3513, 0.7371220
190.8334, 0.6916810
191.3155, 1.462646
191.7977, 2.390839
192.2798, 2.018585
192.7619, 0.3647460
193.2440, 0.5316470
193.7261, 0.9598690
194.2082, 4.558899
194.6904, 6.984924
195.1725, 7.920441
195.6546, 7.943848
196.1367, 7.799011
196.6188, 7.418671
197.1009, 7.693085
197.5831, 9.492462
198.0652, 12.80704
198.5473, 15.48517
199.0294, 17.25403
199.5115, 18.53064
199.9937, 19.95874
200.4758, 21.40103
200.9579, 23.25974
201.4400, 26.07770
201.9221, 29.28772
202.4042, 31.98431
202.8864, 35.30923
203.3685, 38.35001
203.8506, 40.84744
204.3327, 43.36288
204.8148, 46.97931
205.2969, 51.63675
205.7791, 57.04758
206.2612, 61.11356
206.7433, 63.94272
207.2254, 66.47351
207.7075, 69.87720
208.1896, 74.26553
208.6718, 77.51387
209.1539, 78.63336
209.6360, 76.92888
210.1181, 76.25696
210.6002, 77.17575
211.0823, 78.99652
211.5645, 81.16922
212.0466, 84.69193
212.5287, 87.63535
213.0108, 87.96426
213.4929, 84.96347
213.9750, 83.32986
214.4572, 83.40891
214.9393, 84.68060
215.4214, 85.27206
215.9035, 85.10500
216.3856, 83.92526
216.8678, 81.79335
217.3499, 78.37582
217.8320, 75.08519
218.3141, 72.08289
218.7962, 69.25369
219.2783, 66.31790
219.7605, 63.40436
220.2426, 60.16551
220.7247, 56.25792
221.2068, 51.13895
221.6889, 46.97232
222.1710, 44.22856
222.6532, 42.41786
223.1353, 40.03632
223.6174, 36.73956
224.0995, 33.42899
224.5816, 30.65012
225.0637, 28.81837
225.5459, 26.34158
226.0280, 22.72290
226.5101, 18.52228
226.9922, 15.66653
227.4743, 14.95670
227.9564, 14.29950
228.4386, 12.63235
228.9207, 9.528290
229.4028, 6.426910
229.8849, 3.040222
230.3670, 1.100922
230.8492, 0.3391720
231.3313, 1.662933
231.8134, 2.788452
232.2955, 2.494232
232.7776, 0.3290100
233.2597, 1.884537
233.7419, 1.527039
234.2240, 5.9204001E-02
234.7061, 0.4079900
235.1882, 0.4861150
235.6703, 1.810562
236.1524, 3.314987
236.6346, 5.498154
237.1167, 6.684784
237.5988, 6.629028
238.0809, 5.674332
238.5630, 4.535904
239.0451, 2.951950
239.5273, 1.598206
240.0094, 0.7161870
240.4915, 0.2729190
240.9736, 0.4482420
241.4557, 1.553711
241.9378, 3.127060
242.4200, 4.231369
242.9021, 4.788803
243.3842, 5.019974
243.8663, 4.890137
244.3484, 4.081390
244.8306, 3.869141
245.3127, 4.592621
245.7948, 5.747162
246.2769, 6.372681
246.7590, 6.189362
247.2411, 5.945801
247.7233, 5.947449
248.2054, 6.350372
248.6875, 6.370728
249.1696, 5.638092
249.6517, 4.734985
250.1338, 4.708679
250.6160, 6.039642
251.0981, 7.531189
251.5802, 8.804047
252.0623, 9.967651
252.5444, 10.17767
253.0265, 8.945313
253.5087, 7.222260
253.9908, 6.452026
254.4729, 7.141907
254.9550, 7.718964
255.4371, 7.640442
255.9192, 6.782104
256.4014, 6.253815
256.8835, 6.207550
257.3656, 6.359100
257.8477, 6.403015
258.3298, 6.495697
258.8120, 6.110779
259.2941, 4.901672
259.7762, 2.770569
260.2583, 1.448792
260.7404, 1.313538
261.2225, 1.510376
261.7047, 1.057953
262.1868, 0.3078610
262.6689, 1.619415
263.1510, 2.711304
263.6331, 3.567200
264.1152, 4.335876
264.5974, 5.126495
265.0795, 5.643860
265.5616, 5.356201
266.0437, 3.789612
266.5258, 3.059784
267.0079, 3.776672
267.4901, 5.763275
267.9722, 7.330139
268.4543, 8.485718
268.9364, 9.274597
269.4185, 9.616669
269.9006, 9.344452
270.3828, 9.376495
270.8649, 9.947327
271.3470, 10.92770
271.8291, 11.75473
272.3112, 12.45996
272.7933, 12.96252
273.2755, 12.99167
273.7576, 12.37173
274.2397, 12.44977
274.7218, 13.44431
275.2039, 15.18594
275.6860, 17.28015
276.1682, 19.86282
276.6503, 22.39014
277.1324, 24.16296
277.6145, 24.99564
278.0966, 27.51837
278.5787, 32.47424
279.0609, 38.58472
279.5430, 42.66599
280.0251, 44.25385
280.5072, 46.63617
280.9893, 52.50778
281.4715, 61.78668
281.9536, 68.36139
282.4357, 71.21405
282.9178, 72.78268
283.3999, 77.42569
283.8820, 85.28253
284.3642, 93.49332
284.8463, 100.5554
285.3284, 106.6685
285.8105, 113.6628
286.2926, 121.6971
286.7747, 130.1402
287.2569, 138.0326
287.7390, 145.3512
288.2211, 152.9706
288.7032, 161.3045
289.1853, 170.3914
289.6674, 180.1818
290.1496, 190.7498
290.6317, 201.2122
291.1138, 210.7048
291.5959, 219.5158
292.0780, 228.4484
292.5602, 237.7880
293.0423, 247.3267
293.5244, 256.7152
294.0065, 265.8930
294.4886, 275.0309
294.9707, 285.4117
295.4529, 296.4022
295.9350, 305.0972
296.4171, 310.1245
296.8992, 313.2278
297.3813, 317.2921
297.8634, 322.1788
298.3456, 326.9051
298.8277, 330.5144
299.3098, 333.2879
299.7919, 335.9280
300.2740, 338.6525
300.7561, 341.2504
301.2383, 343.2918
301.7204, 344.8918
302.2025, 346.2893
302.6846, 346.9633
303.1667, 347.6100
303.6488, 349.3683
304.1310, 352.4538
304.6131, 356.6551
305.0952, 361.3176
305.5773, 366.7777
306.0594, 373.9257
306.5415, 384.6868
307.0237, 396.7899
307.5058, 407.4916
307.9879, 416.0599
308.4700, 425.5532
308.9521, 438.7412
309.4343, 454.5076
309.9164, 471.1399
310.3985, 488.3470
310.8806, 506.1957
311.3627, 524.2092
311.8448, 542.4508
312.3270, 562.5344
312.8091, 585.7427
313.2912, 611.3683
313.7733, 638.5728
314.2554, 667.8076
314.7375, 697.8170
315.2197, 727.7652
315.7018, 757.9807
316.1839, 788.9277
316.6660, 819.7535
317.1481, 852.2104
317.6302, 887.3642
318.1124, 926.7180
318.5945, 967.3546
319.0766, 1009.143
319.5587, 1051.760
320.0408, 1094.666
320.5229, 1137.712
321.0051, 1180.956
321.4872, 1224.618
321.9693, 1268.343
322.4514, 1312.268
322.9335, 1358.175
323.4156, 1404.146
323.8978, 1446.487
324.3799, 1482.015
324.8620, 1516.035
325.3441, 1551.063
325.8262, 1588.446
326.3083, 1622.009
326.7905, 1650.570
327.2726, 1675.404
327.7547, 1697.721
328.2368, 1719.560
328.7189, 1737.028
329.2010, 1748.448
329.6832, 1753.208
330.1653, 1757.790
330.6474, 1763.012
331.1295, 1767.465
331.6116, 1769.981
332.0938, 1769.379
332.5759, 1768.684
333.0580, 1768.160
333.5401, 1767.803
334.0222, 1767.685
334.5043, 1768.046
334.9865, 1768.298
335.4686, 1767.712
335.9507, 1764.989
336.4328, 1765.278
336.9149, 1770.341
337.3970, 1777.885
337.8792, 1781.726
338.3613, 1781.437
338.8434, 1778.898
339.3255, 1775.276
339.8076, 1770.898
340.2898, 1762.975
340.7719, 1751.599
341.2540, 1736.512
341.7361, 1716.975
342.2182, 1693.345
342.7003, 1665.461
343.1825, 1634.197
343.6646, 1598.853
344.1467, 1555.925
344.6288, 1504.282
345.1109, 1448.874
345.5930, 1393.105
346.0752, 1337.561
346.5573, 1281.040
347.0394, 1221.930
347.5215, 1162.380
348.0036, 1105.291
348.4857, 1050.924
348.9679, 999.2773
349.4500, 949.8483
349.9321, 902.5860
350.4142, 857.5681
350.8963, 814.5042
351.3784, 773.7956
351.8606, 736.3414
352.3427, 702.4197
352.8248, 672.0726
353.3069, 646.8093
353.7890, 624.7700
354.2711, 603.1415
354.7533, 581.8251
355.2354, 561.5140
355.7175, 543.1210
356.1996, 526.2344
356.6817, 510.2035
357.1638, 493.8022
357.6460, 478.9357
358.1281, 467.4361
358.6102, 459.1578
359.0923, 451.3202
359.5744, 442.2184
360.0565, 432.7920
360.5387, 424.0240
361.0208, 416.4034
361.5029, 409.2717
361.9850, 402.5152
362.4671, 396.1343
362.9492, 390.0999
363.4314, 383.9227
363.9135, 378.4540
364.3956, 374.2235
364.8777, 371.4851
365.3598, 369.5127
365.8419, 369.2143
366.3241, 369.3613
366.8062, 368.1110
367.2883, 363.1633
367.7704, 358.7628
368.2526, 356.2401
368.7347, 355.9766
369.2168, 355.4970
369.6989, 354.4601
370.1810, 353.3625
370.6631, 352.5530
371.1453, 351.5960
371.6274, 351.5779
372.1095, 352.7061
372.5916, 354.9081
373.0737, 357.7181
373.5558, 361.4511
374.0380, 365.3457
374.5201, 368.7703
375.0022, 371.0169
375.4843, 375.2034
375.9664, 382.0899
376.4485, 390.3815
376.9307, 397.6654
377.4128, 403.7009
377.8949, 409.5338
378.3770, 415.8658
378.8591, 422.5740
379.3412, 427.4815
379.8234, 430.3965
380.3055, 432.0600
380.7876, 433.3181
381.2697, 434.1401
381.7518, 433.9079
382.2339, 432.5791
382.7161, 430.0333
383.1982, 425.8210
383.6803, 420.0035
384.1624, 412.9462
384.6445, 405.2885
385.1266, 396.6513
385.6088, 385.7262
386.0909, 371.8941
386.5730, 357.2095
387.0551, 344.3787
387.5372, 332.8983
388.0193, 321.0474
388.5015, 307.8257
388.9836, 293.9691
389.4657, 280.1786
389.9478, 266.4885
390.4299, 252.9031
390.9120, 239.5417
391.3942, 226.2065
391.8763, 212.8596
392.3584, 199.1594
392.8405, 185.7342
393.3226, 172.8701
393.8047, 160.5453
394.2869, 148.6571
394.7690, 136.9760
395.2511, 125.8493
395.7332, 115.5284
396.2154, 106.2602
396.6975, 97.40683
397.1796, 88.62048
397.6617, 80.09912
398.1438, 72.25101
398.6259, 65.58926
399.1081, 59.06482
399.5902, 52.26276
400.0723, 45.02469
400.5544, 38.50626
401.0365, 32.94604
401.5186, 27.89557
402.0008, 23.06808
402.4829, 18.40714
402.9650, 13.97510
403.4471, 9.667297
403.9292, 5.573181
404.4113, 2.244385
404.8935, 0.1595760
405.3756, 2.230133
405.8577, 4.274841
406.3398, 6.289032
406.8219, 8.097717
407.3040, 9.690948
407.7862, 11.09509
408.2683, 12.27670
408.7504, 13.21863
409.2325, 14.45563
409.7146, 16.61130
410.1967, 19.07892
410.6789, 19.71674
411.1610, 18.46265
411.6431, 16.95410
412.1252, 16.77609
412.6073, 17.47791
413.0894, 17.73041
413.5716, 17.12671
414.0537, 16.26672
414.5358, 15.90610
415.0179, 15.90698
415.5000, 15.83652
415.9821, 15.93143
416.4643, 15.57812
416.9464, 13.89117
417.4285, 10.73630
417.9106, 7.433014
418.3927, 4.633728
418.8748, 2.235474
419.3570, 0.1481630
419.8391, 1.182526
420.3212, 2.685120
420.8033, 4.732697
421.2854, 7.286438
421.7675, 10.16339
422.2497, 13.58105
422.7318, 17.11130
423.2139, 20.61276
423.6960, 24.46806
424.1781, 27.42252
424.6602, 27.97331
425.1424, 27.90886
425.6245, 29.89474
426.1066, 35.88246
426.5887, 41.43256
427.0709, 45.52319
427.5530, 48.15399
428.0351, 50.74394
428.5172, 53.31488
428.9993, 55.83357
429.4814, 58.22964
429.9636, 60.40414
430.4457, 62.87419
430.9278, 65.82072
431.4099, 68.94489
431.8920, 71.59483
432.3741, 73.75754
432.8563, 75.64383
433.3384, 76.89789
433.8205, 77.79709
434.3026, 80.71851
434.7847, 85.94713
435.2668, 90.99402
435.7490, 92.56335
436.2311, 91.67459
436.7132, 92.02151
437.1953, 95.01703
437.6774, 99.06387
438.1595, 102.1926
438.6417, 104.5419
439.1238, 106.6864
439.6059, 108.8049
440.0880, 110.9826
440.5701, 113.2244
441.0522, 115.4906
441.5344, 118.1786
442.0165, 121.8938
442.4986, 126.0595
442.9807, 129.9550
443.4628, 132.7633
443.9449, 135.8234
444.4271, 139.8307
444.9092, 144.6235
445.3913, 149.2865
445.8734, 153.6811
446.3555, 157.7516
446.8376, 161.3579
447.3198, 163.8292
447.8019, 167.1269
448.2840, 171.9262
448.7661, 177.3047
449.2482, 181.9571
449.7303, 185.3578
450.2125, 188.8063
450.6946, 192.6801
451.1767, 196.9584
451.6588, 200.9350
452.1409, 204.6634
452.6230, 208.0528
453.1052, 211.0374
453.5873, 213.6339
454.0694, 215.8094
454.5515, 217.6484
455.0337, 218.8627
455.5158, 218.7550
455.9979, 217.3907
456.4800, 215.8523
456.9621, 214.9838
457.4442, 214.0885
457.9264, 211.4947
458.4085, 207.2844
458.8906, 202.2909
459.3727, 196.5984
459.8548, 190.5623
460.3369, 185.1135
460.8191, 180.7630
461.3012, 176.2869
461.7833, 170.5758
462.2654, 164.0273
462.7475, 157.4684
463.2296, 150.5787
463.7118, 143.8372
464.1939, 137.6797
464.6760, 132.1409
465.1581, 126.9840
465.6402, 122.3120
466.1223, 117.6783
466.6045, 112.8665
467.0866, 107.6566
467.5687, 102.5623
468.0508, 97.89491
468.5329, 93.39970
469.0150, 88.22113
469.4972, 81.49266
469.9793, 75.43073
470.4614, 70.90204
470.9435, 68.07265
471.4256, 65.34892
471.9077, 62.75481
472.3899, 59.90207
472.8720, 56.31952
473.3541, 51.90701
473.8362, 48.27139
474.3183, 45.84203
474.8004, 44.05714
475.2826, 41.63213
475.7647, 38.62442
476.2468, 35.93413
476.7289, 34.07494
477.2110, 32.84068
477.6931, 31.83417
478.1753, 30.99521
478.6574, 30.17897
479.1395, 29.47311
479.6216, 28.66998
480.1037, 27.39946
480.5858, 25.12956
481.0680, 23.16646
481.5501, 22.82271
482.0322, 23.42455
482.5143, 23.58072
482.9964, 21.92349
483.4786, 20.41133
483.9607, 20.19122
484.4428, 21.44934
484.9249, 22.31679
485.4070, 22.12042
485.8892, 21.62973
486.3713, 21.37614
486.8534, 21.50287
487.3355, 21.66920
487.8176, 22.07910
488.2997, 22.47450
488.7819, 22.18584
489.2640, 20.82520
489.7461, 19.65108
490.2282, 19.14751
490.7103, 19.23967
491.1924, 19.06960
491.6746, 18.62312
492.1567, 17.99347
492.6388, 16.98145
493.1209, 15.68340
493.6030, 15.39539
494.0851, 16.56084
494.5673, 17.98192
495.0494, 17.82143
495.5315, 16.39935
496.0136, 14.90778
496.4957, 13.80032
496.9778, 12.96968
497.4600, 12.40752
497.9421, 12.06822
498.4242, 11.47791
498.9063, 9.594009
499.3884, 7.757141
499.8705, 7.340546
500.3527, 9.472061
500.8348, 10.88834
501.3169, 9.844666
501.7990, 7.559174
502.2811, 5.727020
502.7632, 5.130707
503.2454, 4.524124
503.7275, 3.421356
504.2096, 1.932541
504.6917, 1.197937
505.1738, 1.721085
505.6559, 2.301590
506.1381, 2.237595
506.6202, 1.254486
507.1023, 0.8965530
507.5844, 1.364914
508.0665, 2.071877
508.5486, 2.236656
509.0308, 1.849045
509.5129, 1.342751
509.9950, 0.7696610
510.4771, 0.1994930
510.9592, 0.2498930
511.4413, 0.5800090
511.9235, 0.8118820
512.4056, 0.8996660
512.8877, 0.9226070
513.3698, 1.036514
513.8519, 1.259872
514.3340, 1.409599
514.8162, 1.105759
515.2983, 0.7524260
515.7804, 0.8665470
516.2625, 2.315033
516.7446, 3.332718
517.2267, 2.817055
517.7089, 1.328842
518.1910, 0.2401660
518.6731, 0.1614690
519.1552, 0.1203230
519.6373, 0.5926970
520.1194, 2.141243
520.6016, 2.604820
521.0837, 0.9575500
521.5658, 0.6539690
522.0479, 0.3984150
522.5300, 2.586891
523.0121, 4.174622
523.4943, 3.752060
523.9764, 2.271698
524.4585, 1.343208
524.9406, 0.9848630
525.4227, 0.8120800
525.9048, 0.7523350
526.3870, 0.7425540
526.8691, 0.4447400
527.3513, 8.9249000E-02
527.8334, 0.1471790
528.3155, 1.517311
528.7976, 3.704277
529.2797, 4.529228
529.7618, 3.604553
530.2440, 2.399094
530.7261, 1.853294
531.2082, 1.675354
531.6903, 1.491447
532.1724, 1.373795
532.6545, 1.026024
533.1367, 8.6952001E-02
533.6188, 1.591011
534.1009, 2.178436
534.5830, 0.2187190
535.0651, 1.297745
535.5472, 1.102814
536.0294, 1.192917
536.5115, 2.307091
536.9936, 1.746620
537.4757, 0.7020420
537.9578, 0.1253200
538.4399, 5.9464000E-02
538.9221, 0.1429140
539.4042, 0.3544920
539.8863, 0.6623610
540.3684, 1.002708
540.8505, 1.380386
541.3326, 1.858788
541.8148, 2.660957
542.2969, 3.462578
542.7790, 3.419235
543.2611, 2.663811
543.7432, 2.249245
544.2253, 3.466019
544.7075, 5.080505
545.1896, 5.752579
545.6717, 5.175819
546.1538, 4.368126
546.6359, 3.427147
547.1180, 2.683640
547.6002, 2.509605
548.0823, 3.804062
548.5644, 4.733543
549.0465, 4.662842
549.5286, 3.972603
550.0107, 3.782196
550.4929, 4.377350
550.9750, 5.040855
551.4571, 5.517982
551.9392, 5.808487
552.4213, 6.381477
552.9034, 7.353333
553.3856, 8.253235
553.8677, 8.696655
554.3498, 8.705734
554.8319, 8.512543
555.3140, 8.100540
555.7961, 7.630836
556.2783, 7.124924
556.7604, 6.716415
557.2425, 6.827812
557.7246, 7.964134
558.2067, 9.328705
558.6888, 10.18692
559.1710, 10.62571
559.6531, 10.92731
560.1352, 11.50468
560.6173, 11.76996
561.0994, 10.97135
561.5815, 8.781578
562.0637, 7.795944
562.5458, 10.16781
563.0279, 12.91028
563.5100, 13.74305
563.9921, 10.79502
564.4742, 9.207092
564.9564, 9.647667
565.4385, 11.11713
565.9206, 11.90177
566.4027, 11.89584
566.8848, 11.57894
567.3669, 10.91958
567.8491, 10.11756
568.3312, 9.882668
568.8133, 10.21134
569.2954, 10.84577
569.7775, 12.00774
570.2596, 13.27207
570.7418, 13.58141
571.2239, 12.83177
571.7060, 12.28950
572.1881, 13.45100
572.6702, 15.14831
573.1523, 16.01820
573.6345, 15.23467
574.1166, 14.30359
574.5987, 13.89680
575.0808, 13.82733
575.5629, 13.68793
576.0450, 12.82124
576.5272, 12.50301
577.0093, 13.29581
577.4914, 14.89758
577.9735, 15.49395
578.4556, 14.87955
578.9377, 14.05042
579.4199, 13.30860
579.9020, 12.60972
580.3841, 11.76514
580.8662, 10.73164
581.3483, 10.18684
581.8304, 11.22819
582.3126, 13.33257
582.7947, 14.65775
583.2768, 14.67895
583.7589, 14.39397
584.2410, 15.25544
584.7231, 16.57420
585.2053, 16.96355
585.6874, 14.65710
586.1696, 12.26559
586.6517, 11.11295
587.1338, 11.10109
587.6159, 11.49021
588.0980, 12.59516
588.5801, 13.57634
589.0623, 14.03933
589.5444, 13.91820
590.0265, 13.62548
590.5086, 12.97639
590.9907, 12.41923
591.4728, 12.26649
591.9550, 12.53045
592.4371, 13.20113
592.9192, 14.39914
593.4013, 15.65875
593.8834, 16.24461
594.3655, 16.21482
594.8477, 16.04275
595.3298, 15.75426
595.8119, 15.55135
596.2940, 15.81956
596.7761, 16.43604
597.2582, 16.99432
597.7404, 17.52548
598.2225, 17.72809
598.7046, 17.09306
599.1867, 15.61705
599.6688, 14.69970
600.1509, 15.18870
600.6331, 16.05116
601.1152, 16.63628
601.5973, 16.73035
602.0794, 17.06396
602.5615, 17.76813
603.0436, 18.52937
603.5258, 19.09187
604.0079, 19.52750
604.4900, 19.28326
604.9721, 18.00971
605.4542, 16.43648
605.9363, 16.19201
606.4185, 17.12241
606.9006, 17.96028
607.3827, 17.95676
607.8648, 17.63998
608.3469, 17.90090
608.8290, 18.61719
609.3112, 19.05273
609.7933, 18.61802
610.2754, 17.84887
610.7575, 17.07119
611.2396, 16.31113
611.7217, 15.71209
612.2039, 15.31139
612.6860, 15.08990
613.1681, 15.03526
613.6502, 15.14330
614.1323, 15.44169
614.6144, 16.14014
615.0966, 16.84080
615.5787, 16.83837
616.0608, 15.95860
616.5429, 15.54491
617.0250, 16.08307
617.5071, 17.06828
617.9893, 17.15632
618.4714, 16.48950
618.9535, 16.15685
619.4356, 17.28840
619.9177, 18.77138
620.3998, 19.10412
620.8820, 18.37186
621.3641, 17.48874
621.8462, 16.72673
622.3283, 16.15044
622.8104, 15.90675
623.2925, 16.17032
623.7747, 16.12685
624.2568, 15.07301
624.7389, 13.99829
625.2210, 13.74419
625.7031, 14.83927
626.1852, 15.61378
626.6674, 15.99081
627.1495, 15.99356
627.6316, 15.44401
628.1137, 14.30165
628.5958, 13.63808
629.0779, 13.90731
629.5601, 14.65969
630.0422, 15.17448
630.5243, 15.43411
631.0064, 15.37096
631.4885, 14.42904
631.9706, 13.48946
632.4528, 13.80297
632.9349, 15.22089
633.4170, 15.81831
633.8991, 13.42343
634.3812, 10.94933
634.8633, 10.30220
635.3455, 12.43378
635.8276, 14.02644
636.3097, 15.13232
636.7918, 15.53117
637.2739, 14.74860
637.7560, 12.20677
638.2382, 10.91789
638.7203, 11.37186
639.2024, 12.67901
639.6845, 13.68333
640.1666, 14.39312
640.6487, 14.80034
641.1309, 14.84528
641.6130, 14.66858
642.0951, 14.31980
642.5772, 13.89445
643.0594, 13.65605
643.5415, 13.91594
644.0236, 14.22311
644.5057, 14.39916
644.9879, 14.42883
645.4700, 14.20532
645.9521, 13.16470
646.4342, 12.37554
646.9163, 12.32946
647.3984, 13.13669
647.8806, 14.02734
648.3627, 15.19242
648.8448, 16.10908
649.3269, 16.16473
649.8090, 15.36420
650.2911, 15.19574
650.7733, 15.88732
651.2554, 16.73545
651.7375, 16.84569
652.2196, 16.46535
652.7017, 16.19884
653.1838, 16.18866
653.6660, 16.36592
654.1481, 16.72815
654.6302, 17.25630
655.1123, 17.89407
655.5944, 18.60326
656.0765, 19.40204
656.5587, 20.45725
657.0408, 21.64087
657.5229, 22.43578
658.0050, 22.74753
658.4871, 22.73269
658.9692, 22.19310
659.4514, 21.27711
659.9335, 21.74030
660.4156, 23.67787
660.8977, 25.94433
661.3798, 28.00128
661.8619, 29.70824
662.3441, 30.46629
662.8262, 30.20671
663.3083, 30.15083
663.7904, 31.49292
664.2725, 33.49776
664.7546, 35.39171
665.2368, 37.03825
665.7189, 38.46979
666.2010, 39.09238
666.6831, 39.74374
667.1652, 41.45357
667.6473, 45.25206
668.1295, 48.46814
668.6116, 50.85283
669.0937, 52.63880
669.5758, 53.99567
670.0579, 54.80359
670.5400, 56.51196
671.0222, 60.00412
671.5043, 64.19566
671.9864, 66.59650
672.4685, 67.55614
672.9506, 68.88599
673.4327, 71.93438
673.9149, 75.52119
674.3970, 78.76499
674.8791, 81.68397
675.3612, 84.36291
675.8433, 85.97020
676.3254, 88.07948
676.8076, 91.82298
677.2897, 97.75831
677.7718, 102.2194
678.2539, 104.5025
678.7360, 106.3444
679.2181, 108.7500
679.7003, 111.6617
680.1824, 115.5263
680.6645, 120.5167
681.1466, 125.4638
681.6287, 128.5202
682.1108, 130.5564
682.5930, 134.2312
683.0751, 140.7098
683.5572, 146.9254
684.0393, 150.1096
684.5214, 151.4442
685.0035, 152.6572
685.4857, 153.7680
685.9678, 155.4344
686.4499, 158.6781
686.9320, 162.5090
687.4141, 164.7623
687.8962, 164.8426
688.3784, 164.3747
688.8605, 163.4706
689.3426, 162.2178
689.8247, 161.1467
690.3068, 160.3176
690.7889, 159.9451
691.2711, 160.9317
691.7532, 162.0055
692.2353, 160.2674
692.7174, 156.0548
693.1995, 151.4736
693.6816, 147.5392
694.1638, 143.9223
694.6459, 140.2584
695.1280, 136.5249
695.6101, 133.6434
696.0922, 133.0402
696.5743, 132.2870
697.0565, 130.0082
697.5386, 125.8165
698.0207, 121.9573
698.5028, 118.5430
698.9849, 115.1958
699.4670, 111.4774
699.9492, 107.4532
700.4313, 103.7362
700.9135, 100.3715
701.3956, 97.40320
701.8777, 95.18488
702.3598, 93.33287
702.8419, 91.15083
703.3240, 88.19701
703.8062, 85.36241
704.2883, 83.14667
704.7704, 81.38120
705.2525, 79.81290
705.7346, 78.58528
706.2167, 77.22923
706.6989, 75.76158
707.1810, 74.11836
707.6631, 72.13112
708.1452, 69.80612
708.6273, 66.97630
709.1094, 63.20334
709.5916, 59.34064
710.0737, 57.97726
710.5558, 58.60770
711.0379, 58.51880
711.5200, 55.32817
712.0021, 51.44153
712.4843, 49.03690
712.9664, 47.89992
713.4485, 46.73672
713.9306, 44.47995
714.4127, 42.61725
714.8948, 42.32889
715.3770, 43.66205
715.8591, 43.22522
716.3412, 40.14062
716.8233, 36.99742
717.3054, 35.38452
717.7875, 35.25060
718.2697, 34.72591
718.7518, 33.79208
719.2339, 32.85957
719.7160, 32.60036
720.1981, 32.45453
720.6802, 31.46439
721.1624, 29.45921
721.6445, 27.21953
722.1266, 24.61266
722.6087, 22.31836
723.0908, 21.02393
723.5729, 21.59413
724.0551, 21.58305
724.5372, 20.65640
725.0193, 19.31839
725.5014, 17.94395
725.9835, 16.45049
726.4656, 15.53795
726.9478, 15.47098
727.4299, 15.51927
727.9120, 14.41205
728.3941, 12.53000
728.8762, 11.03302
729.3583, 10.26991
729.8405, 9.931396
730.3226, 10.04895
730.8047, 10.36774
731.2868, 10.39880
731.7689, 10.23709
732.2510, 9.513611
732.7332, 7.453522
733.2153, 4.917419
733.6974, 3.812317
734.1795, 4.850555
734.6616, 5.357819
735.1437, 4.589172
735.6259, 2.924133
736.1080, 1.081604
736.5901, 0.8860780
737.0722, 2.508881
737.5543, 3.756805
738.0364, 4.397919
738.5186, 3.679321
739.0007, 2.029419
739.4828, 0.8789980
739.9649, 1.049408
740.4470, 1.665375
740.9291, 2.598846
741.4113, 3.777161
741.8934, 4.330475
742.3755, 3.908813
742.8576, 3.463501
743.3397, 3.258484
743.8218, 3.318817
744.3040, 3.996429
744.7861, 5.317780
745.2682, 6.679321
745.7503, 8.193146
746.2324, 9.251892
746.7145, 8.360779
747.1967, 5.631378
747.6788, 3.606506
748.1609, 4.254089
748.6430, 5.656830
749.1251, 6.642456
749.6072, 7.062164
750.0894, 7.119812
750.5715, 6.559906
751.0536, 6.003265
751.5357, 5.772858
752.0178, 5.817383
752.4999, 6.772491
752.9821, 8.785797
753.4642, 10.67621
753.9463, 10.91956
754.4284, 10.33801
754.9105, 10.71118
755.3926, 12.33365
755.8748, 14.02158
756.3569, 14.98157
756.8390, 15.67142
757.3211, 16.51904
757.8032, 17.89270
758.2853, 18.76266
758.7675, 18.92151
759.2496, 18.74847
759.7318, 18.50647
760.2139, 18.20157
760.6960, 17.89545
761.1781, 17.55594
761.6602, 17.39386
762.1423, 17.96820
762.6245, 18.89185
763.1066, 19.17615
763.5887, 18.49097
764.0708, 17.54498
764.5529, 17.12225
765.0350, 16.62772
765.5172, 15.35724
765.9993, 12.48511
766.4814, 9.704590
766.9635, 6.955780
767.4456, 4.481201
767.9277, 2.948944
768.4099, 2.671295
768.8920, 0.8380130
769.3741, 3.306427
769.8562, 8.349304
770.3383, 12.03604
770.8204, 15.04755
771.3026, 19.35864
771.7847, 26.39789
772.2668, 33.32538
772.7489, 37.41034
773.2310, 40.41782
773.7131, 44.95932
774.1953, 52.54324
774.6774, 60.56497
775.1595, 69.02417
775.6416, 77.65430
776.1237, 85.92273
776.6058, 93.80710
777.0880, 101.3760
777.5701, 108.3108
778.0522, 115.3746
778.5343, 124.0612
779.0164, 133.8668
779.4985, 143.4224
779.9807, 151.5897
780.4628, 159.8209
780.9449, 169.1425
781.4270, 179.1606
781.9091, 189.2266
782.3912, 199.0590
782.8734, 208.8999
783.3555, 219.1454
783.8376, 229.2723
784.3197, 237.4751
784.8018, 243.6818
785.2839, 250.4742
785.7661, 259.0262
786.2482, 267.8958
786.7303, 274.8352
787.2124, 280.0741
787.6945, 284.4744
788.1766, 288.4233
788.6588, 291.6540
789.1409, 293.6592
789.6230, 294.8759
790.1051, 296.7417
790.5872, 300.3045
791.0693, 302.8455
791.5515, 303.5773
792.0336, 303.2579
792.5157, 303.8475
792.9978, 305.2972
793.4799, 305.7678
793.9620, 304.0117
794.4442, 301.6007
794.9263, 301.3531
795.4084, 302.4799
795.8905, 302.7803
796.3726, 300.6794
796.8547, 298.3419
797.3369, 296.6237
797.8190, 295.2601
798.3011, 293.4091
798.7832, 290.0297
799.2653, 288.2690
799.7474, 289.5613
800.2296, 292.5794
800.7117, 293.2859
801.1938, 291.8658
801.6759, 290.4450
802.1580, 289.5724
802.6401, 289.4283
803.1223, 290.2047
803.6044, 291.9104
804.0865, 294.5276
804.5686, 299.0945
805.0507, 303.7861
805.5328, 307.8339
806.0150, 311.4379
806.4971, 315.5300
806.9792, 320.3936
807.4613, 324.9098
807.9434, 328.5198
808.4255, 331.9257
808.9077, 336.8792
809.3898, 343.1431
809.8719, 349.7291
810.3540, 356.1328
810.8361, 362.6070
811.3182, 369.6147
811.8004, 376.9003
812.2825, 383.9312
812.7646, 389.0417
813.2467, 395.6942
813.7288, 405.4970
814.2109, 416.9174
814.6931, 425.3812
815.1752, 430.5592
815.6573, 436.6051
816.1394, 444.8979
816.6215, 454.6420
817.1037, 464.8514
817.5858, 475.3696
818.0679, 486.0638
818.5500, 496.6487
819.0322, 507.7072
819.5143, 518.6790
819.9964, 530.2101
820.4785, 543.7223
820.9606, 559.8286
821.4427, 576.4304
821.9249, 593.0593
822.4070, 610.1940
822.8891, 628.8633
823.3712, 648.9663
823.8533, 669.0772
824.3354, 688.6264
824.8176, 708.7247
825.2997, 729.2832
825.7818, 751.4354
826.2639, 776.6589
826.7460, 809.3881
827.2281, 840.8687
827.7103, 867.8364
828.1924, 893.4794
828.6745, 922.7280
829.1566, 956.3051
829.6387, 989.6176
830.1208, 1021.632
830.6030, 1053.395
831.0851, 1085.371
831.5672, 1117.508
832.0493, 1149.994
832.5314, 1182.617
833.0135, 1215.353
833.4957, 1248.603
833.9778, 1281.274
834.4599, 1312.622
834.9420, 1341.034
835.4241, 1369.470
835.9063, 1399.029
836.3884, 1427.314
836.8705, 1450.363
837.3526, 1468.347
837.8347, 1487.307
838.3168, 1508.601
838.7990, 1528.851
839.2811, 1545.145
839.7632, 1558.282
840.2453, 1569.159
840.7274, 1577.803
841.2095, 1585.051
841.6917, 1591.275
842.1738, 1596.029
842.6559, 1599.094
843.1380, 1600.306
843.6201, 1600.185
844.1022, 1598.529
844.5844, 1596.233
845.0665, 1594.147
845.5486, 1592.094
846.0307, 1589.417
846.5128, 1586.041
846.9949, 1583.045
847.4771, 1580.829
847.9592, 1579.537
848.4413, 1579.282
848.9234, 1580.132
849.4055, 1581.823
849.8876, 1583.563
850.3698, 1587.309
850.8519, 1594.596
851.3340, 1605.161
851.8161, 1615.474
852.2982, 1625.522
852.7803, 1636.380
853.2625, 1649.215
853.7446, 1662.963
854.2267, 1676.612
854.7088, 1690.206
855.1909, 1704.939
855.6730, 1721.554
856.1552, 1738.936
856.6373, 1757.169
857.1194, 1775.943
857.6015, 1792.881
858.0836, 1807.936
858.5657, 1822.729
859.0479, 1838.782
859.5300, 1854.800
860.0121, 1868.302
860.4942, 1879.489
860.9763, 1888.879
861.4584, 1896.885
861.9406, 1902.782
862.4227, 1906.200
862.9048, 1907.027
863.3869, 1905.726
863.8690, 1903.114
864.3511, 1896.132
864.8333, 1883.551
865.3154, 1866.690
865.7975, 1847.411
866.2796, 1825.730
866.7617, 1801.513
867.2438, 1773.994
867.7260, 1744.686
868.2081, 1713.183
868.6902, 1680.830
869.1723, 1649.138
869.6544, 1620.330
870.1365, 1588.942
870.6187, 1554.314
871.1008, 1517.395
871.5829, 1479.313
872.0650, 1440.244
872.5471, 1403.319
873.0292, 1369.355
873.5114, 1335.941
873.9935, 1299.718
874.4756, 1262.989
874.9577, 1229.007
875.4399, 1198.815
875.9220, 1168.556
876.4041, 1136.532
876.8862, 1105.137
877.3683, 1076.249
877.8505, 1050.334
878.3326, 1023.502
878.8147, 995.6462
879.2968, 968.3048
879.7789, 943.1636
880.2610, 919.7652
880.7432, 897.3998
881.2253, 875.8461
881.7074, 853.1199
882.1895, 826.2105
882.6716, 800.0602
883.1537, 777.5524
883.6359, 758.4971
884.1180, 738.9398
884.6001, 718.6573
885.0822, 698.7852
885.5643, 679.9923
886.0464, 661.8676
886.5286, 643.1099
887.0107, 624.0377
887.4928, 605.8494
887.9749, 590.6266
888.4570, 575.6848
888.9391, 559.2025
889.4213, 541.9324
889.9034, 526.3170
890.3855, 513.2974
890.8676, 500.3046
891.3497, 486.7137
891.8318, 472.9411
892.3140, 458.7194
892.7961, 444.3879
893.2782, 431.3719
893.7603, 420.8717
894.2424, 410.2740
894.7245, 397.4568
895.2067, 383.7198
895.6888, 370.4485
896.1709, 358.2989
896.6530, 346.2047
897.1351, 334.0999
897.6172, 322.4546
898.0994, 312.2396
898.5815, 303.1597
899.0636, 293.3721
899.5457, 282.8477
900.0278, 272.4748
900.5099, 262.9590
900.9921, 253.8585
901.4742, 244.5073
901.9563, 234.8644
902.4384, 225.6270
902.9205, 217.3573
903.4026, 209.1384
903.8848, 200.3966
904.3669, 191.3032
904.8490, 182.3414
905.3311, 173.5630
905.8132, 165.1663
906.2953, 156.8412
906.7775, 149.1404
907.2596, 142.8157
907.7417, 137.5263
908.2238, 131.8662
908.7059, 124.9231
909.1880, 118.3515
909.6702, 112.7611
910.1523, 107.5894
910.6344, 101.1681
911.1165, 93.54636
911.5986, 86.89444
912.0807, 82.03616
912.5629, 77.81256
913.0450, 73.02097
913.5271, 67.98105
914.0092, 62.97235
914.4913, 57.63779
914.9734, 53.46469
915.4556, 51.62366
915.9377, 50.10767
916.4198, 47.06583
916.9019, 42.41565
917.3840, 37.54855
917.8661, 32.41626
918.3483, 27.88968
918.8304, 24.93604
919.3125, 22.83441
919.7946, 20.81525
920.2767, 18.84241
920.7589, 16.69644
921.2410, 13.95245
921.7231, 11.42807
922.2052, 9.578644
922.6873, 8.257202
923.1694, 5.916290
923.6516, 2.555634
924.1337, 0.2864990
924.6158, 1.488525
925.0979, 2.070587
925.5800, 3.138611
926.0621, 4.619690
926.5443, 6.386932
927.0264, 9.249634
927.5085, 11.24979
927.9906, 11.67932
928.4727, 11.38620
928.9548, 11.68613
929.4370, 12.57358
929.9191, 13.66394
930.4012, 14.88336
930.8833, 16.13486
931.3654, 17.59441
931.8475, 18.86597
932.3297, 19.39949
932.8118, 18.85684
933.2939, 18.37558
933.7761, 18.19403
934.2582, 18.17424
934.7403, 18.22311
935.2224, 18.37578
935.7045, 18.61488
936.1866, 18.95267
936.6688, 19.41142
937.1509, 20.53667
937.6330, 21.44505
938.1151, 20.59708
938.5972, 18.43074
939.0793, 17.17647
939.5615, 19.04381
940.0436, 19.98036
940.5257, 18.56819
941.0078, 15.81300
941.4899, 14.38751
941.9720, 14.22620
942.4542, 13.96304
942.9363, 13.26607
943.4184, 12.27823
943.9005, 10.83353
944.3826, 9.297806
944.8647, 8.257538
945.3469, 8.305237
945.8290, 7.956787
946.3111, 6.895584
946.7932, 5.695877
947.2753, 4.928848
947.7574, 4.563431
948.2396, 3.607727
948.7217, 2.050247
949.2038, 0.5465700
949.6859, 0.2981870
950.1680, 0.9847720
950.6501, 1.885513
951.1323, 3.006607
951.6144, 4.340714
952.0965, 6.005066
952.5786, 7.766266
953.0607, 9.785294
953.5428, 11.69937
954.0250, 11.93674
954.5071, 10.83931
954.9892, 10.56075
955.4713, 12.39664
955.9534, 14.58008
956.4355, 15.74318
956.9177, 16.45845
957.3998, 17.53036
957.8819, 19.20764
958.3640, 20.92796
958.8461, 22.72803
959.3282, 24.50584
959.8104, 26.18059
960.2925, 27.73813
960.7746, 29.14848
961.2567, 30.41206
961.7388, 31.53120
962.2209, 32.28594
962.7031, 33.07369
963.1852, 34.19212
963.6673, 35.62894
964.1494, 37.06099
964.6315, 38.52509
965.1136, 39.87225
965.5958, 40.88983
966.0779, 41.90731
966.5600, 43.82733
967.0421, 46.34225
967.5242, 48.57018
968.0063, 50.11955
968.4885, 51.36266
968.9706, 52.47193
969.4527, 53.34995
969.9348, 53.73578
970.4169, 53.38405
970.8990, 53.72324
971.3812, 54.86655
971.8633, 56.57562
972.3454, 59.16855
972.8275, 61.90336
973.3096, 63.68546
973.7917, 64.41414
974.2739, 64.69830
974.7560, 63.95010
975.2381, 63.69652
975.7202, 64.68680
976.2023, 66.62820
976.6844, 68.07195
977.1666, 69.01962
977.6487, 69.74614
978.1308, 70.34922
978.6129, 70.83427
979.0950, 71.01842
979.5771, 71.12770
980.0593, 71.52913
980.5414, 72.76080
981.0235, 73.61040
981.5056, 73.80703
981.9877, 73.91277
982.4698, 74.57595
982.9520, 75.68865
983.4341, 76.67828
983.9162, 77.49138
984.3983, 77.73235
984.8804, 76.20559
985.3625, 74.69364
985.8447, 74.78393
986.3268, 76.48253
986.8089, 77.62124
987.2910, 78.08168
987.7731, 78.17627
988.2552, 77.97794
988.7374, 77.49359
989.2195, 76.56642
989.7016, 75.38902
990.1837, 74.52021
990.6658, 74.48090
991.1479, 74.23742
991.6301, 72.82428
992.1122, 71.34462
992.5944, 71.02526
993.0765, 72.26483
993.5586, 72.26822
994.0407, 70.87955
994.5228, 69.24183
995.0049, 68.20685
995.4871, 67.48636
995.9692, 67.06658
996.4513, 66.88108
996.9334, 66.04814
997.4155, 62.92767
997.8976, 60.54368
998.3798, 60.13732
998.8619, 60.86123
999.3440, 60.13905
999.8261, 58.10021
1000.308, 56.91446
1000.790, 57.51651
1001.272, 57.96765
1001.755, 56.31463
1002.237, 53.87624
1002.719, 51.98911
1003.201, 50.79639
1003.683, 50.15006
1004.165, 50.47963
1004.647, 50.43762
1005.129, 48.47588
1005.612, 45.54086
1006.094, 45.00982
1006.576, 46.35041
1007.058, 46.85069
1007.540, 43.65877
1008.022, 40.87011
1008.504, 40.85092
1008.986, 42.08437
1009.468, 41.94568
1009.951, 40.28368
1010.433, 38.41098
1010.915, 36.35959
1011.397, 34.87845
1011.879, 35.21101
1012.361, 36.24193
1012.843, 36.80494
1013.325, 36.83035
1013.807, 36.29259
1014.290, 34.44852
1014.772, 33.06211
1015.254, 33.14692
1015.736, 34.26784
1016.218, 34.53285
1016.700, 34.06981
1017.182, 33.64175
1017.664, 33.75919
1018.147, 33.78350
1018.629, 33.24101
1019.111, 32.36710
1019.593, 31.45658
1020.075, 30.26699
1020.557, 29.90007
1021.039, 30.59457
1021.521, 31.38372
1022.003, 31.13538
1022.486, 30.43056
1022.968, 30.48413
1023.450, 31.25406
1023.932, 31.53902
1024.414, 30.10551
1024.896, 29.07311
1025.378, 29.38812
1025.860, 30.41808
1026.343, 30.14389
1026.825, 28.69424
1027.307, 27.87782
1027.789, 28.35604
1028.271, 29.03205
1028.753, 28.91173
1029.235, 28.49133
1029.717, 28.36326
1030.199, 28.80119
1030.682, 28.79184
1031.164, 28.14961
1031.646, 27.52750
1032.128, 27.36855
1032.610, 27.50944
1033.092, 27.54501
1033.574, 27.52573
1034.056, 27.60484
1034.539, 28.35902
1035.021, 28.57392
1035.503, 27.44098
1035.985, 25.84396
1036.467, 24.92005
1036.949, 24.68671
1037.431, 24.59902
1037.913, 24.60644
1038.396, 24.71534
1038.878, 25.06974
1039.360, 25.41230
1039.842, 25.55862
1040.324, 25.48339
1040.806, 25.03500
1041.288, 23.91772
1041.770, 23.14486
1042.252, 23.13713
1042.734, 23.49621
1043.217, 23.38726
1043.699, 23.00810
1044.181, 22.89553
1044.663, 23.38961
1045.145, 23.72112
1045.627, 23.76097
1046.109, 23.35448
1046.591, 22.11958
1047.074, 19.97308
1047.556, 19.38046
1048.038, 20.34862
1048.520, 21.28107
1049.002, 20.98916
1049.484, 20.29395
1049.966, 19.83298
1050.448, 19.56320
1050.931, 19.29169
1051.413, 18.79386
1051.895, 18.77115
1052.377, 19.50401
1052.859, 20.23135
1053.341, 19.71889
1053.823, 18.58189
1054.305, 18.38104
1054.787, 19.29623
1055.270, 19.75430
1055.752, 18.79037
1056.234, 17.47012
1056.716, 15.95658
1057.198, 14.53734
1057.680, 14.80536
1058.162, 16.62427
1058.644, 17.69617
1059.126, 17.03045
1059.609, 15.98081
1060.091, 15.59563
1060.573, 15.58578
1061.055, 15.67413
1061.537, 15.86717
1062.019, 16.07808
1062.501, 16.37712
1062.983, 16.40354
1063.466, 15.72210
1063.948, 14.72946
1064.430, 14.08233
1064.912, 13.69948
1065.394, 13.38708
1065.876, 13.23050
1066.358, 12.94818
1066.840, 12.38576
1067.323, 11.80640
1067.805, 11.60478
1068.287, 11.72496
1068.769, 11.64661
1069.251, 11.33160
1069.733, 11.45464
1070.215, 13.46297
1070.697, 15.18485
1071.179, 14.75477
1071.661, 12.69748
1072.144, 11.23676
1072.626, 10.39845
1073.108, 10.19175
1073.590, 10.79418
1074.072, 11.53761
1074.554, 11.63178
1075.036, 11.34690
1075.518, 10.97831
1076.001, 10.51059
1076.483, 10.04308
1076.965, 9.490860
1077.447, 9.132629
1077.929, 9.197350
1078.411, 9.516586
1078.893, 9.601257
1079.375, 9.508224
1079.858, 9.410690
1080.340, 9.425819
1080.822, 9.391464
1081.304, 9.022758
1081.786, 8.783913
1082.268, 9.184990
1082.750, 10.22935
1083.232, 10.64073
1083.714, 10.40015
1084.197, 9.862923
1084.679, 8.846413
1085.161, 7.860168
1085.643, 7.398430
1086.125, 7.321571
1086.607, 7.095451
1087.089, 6.647301
1087.571, 6.095886
1088.054, 5.355309
1088.536, 4.934662
1089.018, 5.859444
1089.500, 7.337334
1089.982, 8.045349
1090.464, 7.734756
1090.946, 7.611359
1091.428, 8.064980
1091.911, 8.460022
1092.393, 8.627747
1092.875, 8.657730
1093.357, 8.823006
1093.839, 9.022667
1094.321, 8.748222
1094.803, 7.436745
1095.285, 6.747887
1095.767, 8.612564
1096.250, 10.27978
1096.732, 9.581718
1097.214, 6.712776
1097.696, 5.835083
1098.178, 6.838631
1098.660, 7.497780
1099.142, 6.228935
1099.624, 4.770477
1100.106, 4.329674
1100.589, 4.580338
1101.071, 5.038727
1101.553, 5.821167
1102.035, 6.175331
1102.517, 6.034370
1102.999, 5.898422
1103.481, 6.509270
1103.963, 7.151550
1104.446, 6.540070
1104.928, 5.025208
1105.410, 4.194763
1105.892, 4.881546
1106.374, 5.494324
1106.856, 5.814796
1107.338, 5.981125
1107.820, 6.122581
1108.302, 6.272034
1108.785, 6.624474
1109.267, 7.194939
1109.749, 7.423492
1110.231, 6.688576
1110.713, 6.036995
1111.195, 6.048141
1111.677, 6.294228
1112.159, 5.247078
1112.641, 3.215691
1113.124, 2.223938
1113.606, 2.998390
1114.088, 3.858620
1114.570, 3.739662
1115.052, 3.181526
1115.534, 2.473465
1116.016, 1.692688
1116.498, 1.514000
1116.981, 1.937195
1117.463, 2.440407
1117.945, 2.822014
1118.427, 3.136528
1118.909, 3.576263
1119.391, 3.923416
1119.873, 3.838448
1120.355, 3.200516
1120.838, 2.261909
1121.320, 0.8091580
1121.802, 3.9223000E-02
1122.284, 1.338959
1122.766, 3.268074
1123.248, 2.808052
1123.730, 0.7952880
1124.212, 0.4854280
1124.694, 0.4311600
1125.177, 0.9085620
1125.659, 0.5674820
1126.141, 0.1467210
1126.623, 0.7082750
1127.105, 1.736832
1127.587, 1.678200
1128.069, 0.6241070
1128.551, 0.1875150
1129.033, 9.7946003E-02
1129.516, 0.2141800
1129.998, 0.7254490
1130.480, 1.150703
1130.962, 0.9024510
1131.444, 0.1151430
1131.926, 0.7119520
1132.408, 1.543282
1132.890, 1.662773
1133.373, 0.3374100
1133.855, 2.220589
1134.337, 2.631706
1134.819, 1.952637
1135.301, 1.384079
1135.783, 0.9317930
1136.265, 0.5820240
1136.747, 0.3539660
1137.229, 0.1256260
1137.712, 0.2029420
1138.194, 0.5806270
1138.676, 1.154076
1139.158, 1.923851
1139.640, 1.402191
1140.122, 0.6376420
1140.604, 1.716576
1141.086, 0.2539670
1141.569, 1.545380
1142.051, 0.8104100
1142.533, 0.9353560
1143.015, 1.524040
1143.497, 8.4045000E-02
1143.979, 0.5263750
1144.461, 0.1592330
1144.943, 0.4916760
1145.426, 1.441887
1145.908, 2.043541
1146.390, 0.6575780
1146.872, 1.787674
1147.354, 3.376534
1147.836, 3.090019
1148.318, 2.503403
1148.800, 1.466103
1149.282, 0.5897370
1149.765, 0.4522780
1150.247, 0.8295440
1150.729, 1.571114
1151.211, 2.436844
1151.693, 2.516327
1152.175, 0.3287810
1152.657, 1.043671
1153.139, 0.8151630
1153.621, 9.2262000E-02
1154.104, 0.3231890
1154.586, 1.139977
1155.068, 1.287109
1155.550, 0.7190780
1156.032, 6.4773999E-02
1156.514, 1.186844
1156.996, 2.034706
1157.478, 2.493454
1157.961, 2.552177
1158.443, 2.017258
1158.925, 1.016533
1159.407, 0.2759550
1159.889, 9.4231002E-02
1160.371, 0.3347400
1160.853, 0.3788450
1161.335, 0.5725250
1161.818, 1.340172
1162.300, 2.291046
1162.782, 2.019508
1163.264, 0.6656040
1163.746, 4.7782999E-02
1164.228, 0.6696320
1164.710, 1.369347
1165.192, 1.108833
1165.674, 0.7830280
1166.156, 1.267715
1166.639, 2.336845
1167.121, 2.357513
1167.603, 1.336365
1168.085, 0.3778610
1168.567, 0.2467190
1169.049, 0.4798050
1169.531, 8.5547999E-02
1170.013, 0.6010130
1170.496, 1.350166
1170.978, 2.148331
1171.460, 2.560577
1171.942, 2.588486
1172.424, 2.127434
1172.906, 0.7429660
1173.388, 0.4651790
1173.870, 0.2180400
1174.353, 0.7985380
1174.835, 1.753136
1175.317, 2.628265
1175.799, 3.160812
1176.281, 3.316612
1176.763, 3.443024
1177.245, 3.966515
1177.727, 4.316071
1178.209, 3.321312
1178.692, 1.876595
1179.174, 1.639389
1179.656, 3.694298
1180.138, 4.248795
1180.620, 2.989372
1181.102, 1.829285
1181.584, 2.344116
1182.066, 3.582985
1182.548, 4.645691
1183.031, 5.450424
1183.513, 5.831055
1183.995, 5.653572
1184.477, 5.256821
1184.959, 4.548370
1185.441, 4.023483
1185.923, 4.248230
1186.405, 4.831245
1186.888, 5.261292
1187.370, 5.583366
1187.852, 6.019608
1188.334, 6.900719
1188.816, 7.191048
1189.298, 6.618675
1189.780, 6.018517
1190.262, 6.373947
1190.745, 7.198647
1191.227, 7.937874
1191.709, 8.465576
1192.191, 8.524841
1192.673, 7.513344
1193.155, 7.204109
1193.637, 8.025398
1194.119, 9.084343
1194.601, 9.288361
1195.084, 9.037354
1195.566, 8.942413
1196.048, 9.035683
1196.530, 9.083206
1197.012, 8.743729
1197.494, 9.051025
1197.976, 10.45348
1198.458, 11.96577
1198.941, 12.17271
1199.423, 11.55035
1199.905, 10.89957
1200.387, 10.30810
1200.869, 10.11141
1201.351, 10.51467
1201.833, 11.03564
1202.315, 11.67257
1202.797, 12.20384
1203.280, 11.93143
1203.762, 11.44062
1204.244, 12.01247
1204.726, 13.85001
1205.208, 14.74290
1205.690, 14.09004
1206.172, 13.24661
1206.654, 12.49172
1207.136, 11.98930
1207.619, 12.11163
1208.101, 12.61942
1208.583, 13.20158
1209.065, 13.85686
1209.547, 14.07931
1210.029, 13.73835
1210.511, 13.35417
1210.993, 13.13148
1211.476, 12.96396
1211.958, 12.28202
1212.440, 11.63323
1212.922, 12.26936
1213.404, 14.86082
1213.886, 16.34737
1214.368, 16.00903
1214.850, 15.47839
1215.333, 15.50200
1215.815, 15.67734
1216.297, 15.05706
1216.779, 14.13663
1217.261, 13.78798
1217.743, 14.33082
1218.225, 14.93657
1218.707, 15.77944
1219.189, 15.96386
1219.672, 14.72231
1220.154, 13.02489
1220.636, 12.49290
1221.118, 12.86753
1221.600, 13.74920
1222.082, 15.29439
1222.564, 16.52805
1223.046, 17.52263
1223.528, 17.82622
1224.011, 16.85699
1224.493, 15.47451
1224.975, 15.17975
1225.457, 15.52401
1225.939, 15.76772
1226.421, 15.89375
1226.903, 15.19981
1227.385, 13.28330
1227.868, 12.13278
1228.350, 13.26079
1228.832, 15.31929
1229.314, 16.79073
1229.796, 17.52634
1230.278, 17.08781
1230.760, 14.55188
1231.242, 13.30249
1231.724, 13.53353
1232.207, 14.31249
1232.689, 15.39926
1233.171, 16.35205
1233.653, 16.55608
1234.135, 16.25362
1234.617, 15.82705
1235.099, 15.29443
1235.581, 14.76035
1236.063, 14.22382
1236.546, 13.73077
1237.028, 13.35304
1237.510, 13.01452
1237.992, 12.54075
1238.474, 12.10265
1238.956, 12.01219
1239.438, 12.41275
1239.920, 12.61203
1240.403, 12.62113
1240.885, 12.41457
1241.367, 11.65263
1241.849, 11.00009
1242.331, 11.06701
1242.813, 11.62099
1243.295, 12.41290
1243.777, 13.63113
1244.260, 13.77904
1244.742, 12.85841
1245.224, 11.92654
1245.706, 11.92220
1246.188, 11.80119
1246.670, 10.26868
1247.152, 8.531647
1247.634, 8.400993
1248.116, 10.07427
1248.599, 10.27825
1249.081, 9.096489
1249.563, 8.021767
1250.045, 8.007584
1250.527, 8.278580
1251.009, 8.436920
1251.491, 8.678276
1251.973, 9.430840
1252.455, 10.62957
1252.938, 10.31351
1253.420, 8.696259
1253.902, 7.589409
1254.384, 8.680016
1254.866, 9.572693
1255.348, 9.320663
1255.830, 8.577339
1256.313, 7.696724
1256.795, 6.777756
1257.277, 6.565910
1257.759, 6.946945
1258.241, 7.316261
1258.723, 7.665359
1259.205, 7.544220
1259.687, 6.682091
1260.169, 5.677231
1260.651, 4.839363
1261.134, 4.320847
1261.616, 5.106194
1262.098, 6.699188
1262.580, 7.393974
1263.062, 5.217552
1263.544, 4.275986
1264.026, 5.391838
1264.508, 6.646973
1264.991, 6.237854
1265.473, 4.974838
1265.955, 4.253746
1266.437, 4.000069
1266.919, 3.983192
1267.401, 4.431435
1267.883, 4.526520
1268.365, 4.137199
1268.848, 3.862427
1269.330, 4.569290
1269.812, 5.338959
1270.294, 4.518661
1270.776, 2.944687
1271.258, 2.611824
1271.740, 4.315510
1272.222, 5.011501
1272.704, 4.561447
1273.187, 3.979633
1273.669, 4.188793
1274.151, 4.355984
1274.633, 3.373409
1275.115, 2.047359
1275.597, 1.688133
1276.079, 2.483055
1276.561, 3.286831
1277.043, 4.066910
1277.526, 4.042660
1278.008, 1.691730
1278.490, 0.3990550
1278.972, 0.5810970
1279.454, 0.2368090
1279.936, 1.281666
1280.418, 2.518780
1280.900, 3.404003
1281.383, 3.901878
1281.865, 3.818073
1282.347, 2.597507
1282.829, 1.404999
1283.311, 0.3422970
1283.793, 0.2217790
1284.275, 0.2826880
1284.757, 1.505596
1285.240, 2.023022
1285.722, 1.971016
1286.204, 1.766350
1286.686, 1.333443
1287.168, 1.207890
1287.650, 1.542805
1288.132, 1.931671
1288.614, 1.976498
1289.096, 1.973827
1289.578, 2.963364
1290.061, 4.276577
1290.543, 4.449539
1291.025, 2.014557
1291.507, 0.9590070
1291.989, 1.333832
1292.471, 2.042072
1292.953, 2.792061
1293.435, 3.068851
1293.918, 1.628658
1294.400, 0.2260210
1294.882, 0.1601300
1295.364, 2.253162
1295.846, 2.696388
1296.328, 1.129395
1296.810, 1.0616000E-02
1297.292, 0.5919760
1297.775, 1.716309
1298.257, 2.978489
1298.739, 3.637196
1299.221, 3.361736
1299.703, 2.487274
1300.185, 1.822937
1300.667, 1.717762
1301.149, 1.458111
1301.631, 0.7264710
1302.114, 0.1416090
1302.596, 0.0000000E+00
##END=



