##NAMES=Calderonite
##RRUFFID=R050538
##IDEAL CHEMISTRY=Pb_2_Fe^3+^(VO_4_)_2_(OH)
##LOCALITY=Tres de Mayo, Santa Cruz County, Arizona, USA
##OWNER=RRUFF
##SOURCE=Andy Anderson
##DESCRIPTION=Lathlike brown crystals.
##STATUS=The identification of this mineral is confirmed by single-crystal X-ray diffraction and chemical analysis.
##URL=rruff.info/R050538
##MEASURED CHEMISTRY=Pb_2.00_(Fe^3+^_0.96_Mn^3+^_0.02_Mg_0.02_)_Î£=1_(V_1.00_O_4_)_2_(OH)
103.399, 0.000
103.882, 10.562
104.364, 21.152
104.846, 30.543
105.328, 39.641
105.810, 48.534
106.292, 55.624
106.774, 61.234
107.257, 64.183
107.739, 64.154
108.221, 60.555
108.703, 59.428
109.185, 56.698
109.667, 51.138
110.149, 47.594
110.631, 41.032
111.113, 29.075
111.595, 18.908
112.078, 10.202
112.560, 3.366
113.042, 0.140
113.524, 4.796
114.006, 9.781
114.488, 10.219
114.970, 11.366
115.452, 9.265
115.935, 9.420
116.417, 3.325
116.899, 1.652
117.381, 0.932
117.863, 0.848
118.345, 0.282
118.827, 0.806
119.309, 0.541
119.791, 2.112
120.274, 3.276
120.756, 4.055
121.238, 3.208
121.720, 4.520
122.202, 4.999
122.684, 5.466
123.166, 7.145
123.648, 3.350
124.131, 0.908
124.613, 3.943
125.095, 9.827
125.577, 16.270
126.059, 19.085
126.541, 12.107
127.023, 3.911
127.505, 8.381
127.988, 25.121
128.470, 42.835
128.952, 51.278
129.434, 52.513
129.916, 52.752
130.398, 52.901
130.880, 53.844
131.362, 58.500
131.844, 67.154
132.327, 76.424
132.809, 82.025
133.291, 84.451
133.773, 88.518
134.255, 94.796
134.737, 103.866
135.219, 121.018
135.701, 148.702
136.184, 176.003
136.666, 188.416
137.148, 184.770
137.630, 180.890
138.112, 181.383
138.594, 186.104
139.076, 192.115
139.558, 199.055
140.040, 207.867
140.523, 220.586
141.005, 238.823
141.487, 255.148
141.969, 265.681
142.451, 269.388
142.933, 281.430
143.415, 306.966
143.897, 335.763
144.380, 352.789
144.862, 350.218
145.344, 350.121
145.826, 358.363
146.308, 375.888
146.790, 396.774
147.272, 423.273
147.754, 451.828
148.236, 477.061
148.719, 492.361
149.201, 512.090
149.683, 541.686
150.165, 586.865
150.647, 623.001
151.129, 647.256
151.611, 663.378
152.093, 675.862
152.575, 675.249
153.058, 679.809
153.540, 694.698
154.022, 722.480
154.504, 751.380
154.986, 783.478
155.468, 815.183
155.950, 841.890
156.432, 862.309
156.915, 878.499
157.397, 890.986
157.879, 899.510
158.361, 905.680
158.843, 911.837
159.325, 915.382
159.807, 913.008
160.289, 895.989
160.771, 879.280
161.254, 869.199
161.736, 867.805
162.218, 867.699
162.700, 869.986
163.182, 871.174
163.664, 866.461
164.146, 847.404
164.628, 826.755
165.111, 812.013
165.593, 804.255
166.075, 798.733
166.557, 796.619
167.039, 794.600
167.521, 787.705
168.003, 770.254
168.485, 749.300
168.967, 729.352
169.449, 710.296
169.932, 694.562
170.414, 686.686
170.896, 682.961
171.378, 677.236
171.860, 664.864
172.342, 649.899
172.824, 637.559
173.307, 628.089
173.789, 616.278
174.271, 594.838
174.753, 567.648
175.235, 543.403
175.717, 530.476
176.199, 520.668
176.681, 502.346
177.163, 474.838
177.645, 445.798
178.128, 416.272
178.610, 390.317
179.092, 377.370
179.574, 397.884
180.056, 429.544
180.538, 434.018
181.020, 409.355
181.503, 371.410
181.985, 327.424
182.467, 281.119
182.949, 244.005
183.431, 227.206
183.913, 222.570
184.395, 210.976
184.877, 191.795
185.359, 171.973
185.842, 159.583
186.324, 153.340
186.806, 149.047
187.288, 146.365
187.770, 145.280
188.252, 144.213
188.734, 142.796
189.216, 140.520
189.698, 137.890
190.181, 134.883
190.663, 129.946
191.145, 120.305
191.627, 108.278
192.109, 103.115
192.591, 105.289
193.073, 112.144
193.555, 119.653
194.038, 127.792
194.520, 131.006
195.002, 121.235
195.484, 130.159
195.966, 134.121
196.448, 118.583
196.930, 128.496
197.412, 117.491
197.894, 111.906
198.376, 114.191
198.859, 123.247
199.341, 137.070
199.823, 148.394
200.305, 156.995
200.787, 163.926
201.269, 169.699
201.751, 174.044
202.234, 179.441
202.716, 187.308
203.198, 196.458
203.680, 199.572
204.162, 194.033
204.644, 190.526
205.126, 200.689
205.608, 228.160
206.090, 246.209
206.572, 247.533
207.055, 237.554
207.537, 239.179
208.019, 255.072
208.501, 275.527
208.983, 295.173
209.465, 315.019
209.947, 330.005
210.430, 340.022
210.912, 344.952
211.394, 343.182
211.876, 332.160
212.358, 320.440
212.840, 312.985
213.322, 310.594
213.804, 309.638
214.286, 309.767
214.768, 311.274
215.251, 316.038
215.733, 326.897
216.215, 334.864
216.697, 334.502
217.179, 322.718
217.661, 312.897
218.143, 305.765
218.625, 300.492
219.108, 295.268
219.590, 290.216
220.072, 284.946
220.554, 279.390
221.036, 273.790
221.518, 266.878
222.000, 258.257
222.482, 248.651
222.964, 239.542
223.447, 232.423
223.929, 223.003
224.411, 209.245
224.893, 190.173
225.375, 171.870
225.857, 153.982
226.339, 137.302
226.821, 122.986
227.303, 111.362
227.786, 101.563
228.268, 94.016
228.750, 89.087
229.232, 82.572
229.714, 72.926
230.196, 63.044
230.678, 56.261
231.161, 54.301
231.643, 52.017
232.125, 48.376
232.607, 43.313
233.089, 37.359
233.571, 28.658
234.053, 20.989
234.535, 18.651
235.017, 25.631
235.499, 29.828
235.982, 28.463
236.464, 21.932
236.946, 17.315
237.428, 16.244
237.910, 15.166
238.392, 11.142
238.874, 10.799
239.357, 9.476
239.839, 9.040
240.321, 9.483
240.803, 10.737
241.285, 13.485
241.767, 16.149
242.249, 17.918
242.731, 19.083
243.213, 18.528
243.695, 14.445
244.178, 8.809
244.660, 8.548
245.142, 17.720
245.624, 26.337
246.106, 29.515
246.588, 24.473
247.070, 20.902
247.552, 19.461
248.035, 19.211
248.517, 18.122
248.999, 15.374
249.481, 13.195
249.963, 12.806
250.445, 15.182
250.927, 15.174
251.409, 11.593
251.891, 6.517
252.374, 2.779
252.856, 0.262
253.338, 0.654
253.820, 0.551
254.302, 4.169
254.784, 7.584
255.266, 12.964
255.748, 15.849
256.231, 19.642
256.713, 25.052
257.195, 25.508
257.677, 34.332
258.159, 36.053
258.641, 37.850
259.123, 39.490
259.605, 41.524
260.087, 44.499
260.570, 48.691
261.052, 53.050
261.534, 57.579
262.016, 62.182
262.498, 65.822
262.980, 67.669
263.462, 70.079
263.944, 75.057
264.427, 84.133
264.909, 90.796
265.391, 94.327
265.873, 95.316
266.355, 95.256
266.837, 93.634
267.319, 92.203
267.801, 92.424
268.284, 95.324
268.766, 94.734
269.248, 89.213
269.730, 81.598
270.212, 78.055
270.694, 80.446
271.176, 80.528
271.658, 74.357
272.140, 61.518
272.622, 50.184
273.105, 39.947
273.587, 32.077
274.069, 29.460
274.551, 33.591
275.033, 35.401
275.515, 31.248
275.997, 22.066
276.479, 17.315
276.962, 18.082
277.444, 20.405
277.926, 20.242
278.408, 17.226
278.890, 15.434
279.372, 16.344
279.854, 18.768
280.336, 16.843
280.819, 9.307
281.301, 3.684
281.783, 7.091
282.265, 19.651
282.747, 29.486
283.229, 34.267
283.711, 36.812
284.193, 43.858
284.675, 55.771
285.158, 67.049
285.640, 73.577
286.122, 75.930
286.604, 80.455
287.086, 87.342
287.568, 96.538
288.050, 109.088
288.532, 124.832
289.014, 139.633
289.497, 150.137
289.979, 157.917
290.461, 170.678
290.943, 189.036
291.425, 207.452
291.907, 219.255
292.389, 225.246
292.871, 230.578
293.353, 235.868
293.836, 242.063
294.318, 252.188
294.800, 266.208
295.282, 280.769
295.764, 293.908
296.246, 305.469
296.728, 315.204
297.211, 323.189
297.693, 329.069
298.175, 331.472
298.657, 330.760
299.139, 329.659
299.621, 330.174
300.103, 331.608
300.585, 333.099
301.067, 335.224
301.549, 335.575
302.032, 328.456
302.514, 316.350
302.996, 307.147
303.478, 307.288
303.960, 312.158
304.442, 316.311
304.924, 319.352
305.406, 321.458
305.889, 322.128
306.371, 322.127
306.853, 322.777
307.335, 322.258
307.817, 324.108
308.299, 333.495
308.781, 349.505
309.263, 365.036
309.746, 372.515
310.228, 377.837
310.710, 387.865
311.192, 405.712
311.674, 426.045
312.156, 445.700
312.638, 465.076
313.120, 485.322
313.602, 508.818
314.085, 533.344
314.567, 557.312
315.049, 579.459
315.531, 600.672
316.013, 619.711
316.495, 638.477
316.977, 660.093
317.459, 684.915
317.941, 713.525
318.424, 747.207
318.906, 786.225
319.388, 825.868
319.870, 865.305
320.352, 904.243
320.834, 942.413
321.316, 981.251
321.798, 1017.777
322.280, 1050.273
322.763, 1079.403
323.245, 1108.415
323.727, 1134.903
324.209, 1163.864
324.691, 1198.932
325.173, 1254.107
325.655, 1295.539
326.138, 1309.842
326.620, 1307.927
327.102, 1314.557
327.584, 1337.432
328.066, 1363.936
328.548, 1391.631
329.030, 1424.039
329.512, 1446.922
329.994, 1454.490
330.477, 1455.213
330.959, 1458.801
331.441, 1467.530
331.923, 1475.988
332.405, 1484.194
332.887, 1492.124
333.369, 1494.817
333.851, 1487.300
334.333, 1480.145
334.816, 1482.663
335.298, 1503.503
335.780, 1512.410
336.262, 1501.338
336.744, 1478.087
337.226, 1468.648
337.708, 1480.277
338.190, 1489.596
338.672, 1484.547
339.155, 1462.405
339.637, 1440.587
340.119, 1418.783
340.601, 1397.490
341.083, 1378.104
341.565, 1361.658
342.047, 1341.492
342.529, 1315.389
343.012, 1283.462
343.494, 1249.379
343.976, 1212.464
344.458, 1174.453
344.940, 1136.894
345.422, 1099.914
345.904, 1059.690
346.386, 1014.464
346.868, 967.346
347.351, 925.051
347.833, 887.237
348.315, 851.088
348.797, 815.290
349.279, 780.742
349.761, 749.263
350.243, 721.446
350.725, 693.627
351.208, 661.007
351.690, 625.216
352.172, 590.835
352.654, 558.152
353.136, 528.442
353.618, 504.586
354.100, 486.399
354.582, 471.624
355.065, 460.616
355.547, 451.776
356.029, 442.947
356.511, 433.722
356.993, 424.067
357.475, 411.693
357.957, 397.967
358.439, 388.126
358.921, 390.580
359.404, 395.585
359.886, 394.297
360.368, 383.646
360.850, 372.349
361.332, 364.685
361.814, 359.284
362.296, 354.185
362.778, 346.855
363.260, 341.833
363.743, 341.673
364.225, 345.767
364.707, 348.345
365.189, 349.011
365.671, 347.636
366.153, 344.143
366.635, 332.758
367.117, 325.889
367.599, 329.482
368.082, 339.404
368.564, 342.708
369.046, 326.960
369.528, 314.703
370.010, 315.354
370.492, 336.750
370.974, 349.082
371.457, 346.540
371.939, 338.209
372.421, 335.186
372.903, 341.584
373.385, 346.192
373.867, 346.318
374.349, 342.267
374.831, 338.486
375.313, 333.761
375.796, 331.622
376.278, 335.746
376.760, 348.026
377.242, 357.602
377.724, 363.475
378.206, 366.235
378.688, 366.584
379.170, 364.282
379.652, 361.379
380.135, 359.263
380.617, 357.638
381.099, 353.298
381.581, 345.773
382.063, 337.608
382.545, 332.553
383.027, 329.852
383.509, 323.703
383.991, 310.575
384.474, 295.210
384.956, 288.119
385.438, 288.434
385.920, 288.474
386.402, 282.203
386.884, 272.218
387.366, 263.589
387.848, 257.488
388.331, 250.475
388.813, 238.260
389.295, 222.828
389.777, 208.017
390.259, 194.329
390.741, 182.989
391.223, 176.980
391.705, 175.735
392.188, 172.595
392.670, 162.499
393.152, 149.375
393.634, 136.593
394.116, 123.268
394.598, 112.702
395.080, 108.663
395.562, 108.446
396.044, 105.900
396.526, 97.115
397.009, 87.558
397.491, 79.346
397.973, 72.976
398.455, 66.719
398.937, 60.656
399.419, 54.526
399.901, 48.107
400.384, 40.869
400.866, 33.945
401.348, 26.905
401.830, 20.068
402.312, 15.752
402.794, 16.587
403.276, 16.486
403.758, 11.569
404.240, 10.676
404.723, 8.232
405.205, 5.888
405.687, 6.468
406.169, 0.361
406.651, 6.561
407.133, 11.235
407.615, 9.767
408.097, 3.717
408.579, 2.390
409.062, 6.392
409.544, 11.427
410.026, 14.431
410.508, 15.452
410.990, 14.745
411.472, 11.810
411.954, 8.459
412.436, 7.587
412.918, 8.847
413.401, 10.591
413.883, 13.039
414.365, 15.066
414.847, 13.548
415.329, 8.493
415.811, 4.847
416.293, 8.666
416.775, 15.804
417.258, 20.340
417.740, 19.454
418.222, 17.155
418.704, 15.452
419.186, 14.467
419.668, 14.559
420.150, 19.901
420.632, 23.335
421.115, 19.087
421.597, 5.007
422.079, 6.588
422.561, 10.867
423.043, 11.216
423.525, 10.955
424.007, 8.710
424.489, 8.051
424.971, 10.392
425.453, 15.173
425.936, 19.277
426.418, 23.619
426.900, 26.280
427.382, 25.805
427.864, 19.950
428.346, 18.290
428.828, 23.049
429.310, 30.007
429.793, 33.185
430.275, 30.789
430.757, 30.394
431.239, 33.816
431.721, 40.544
432.203, 49.380
432.685, 61.289
433.167, 70.651
433.650, 71.456
434.132, 64.853
434.614, 62.939
435.096, 67.287
435.578, 74.126
436.060, 78.115
436.542, 80.072
437.024, 83.545
437.506, 90.335
437.989, 99.219
438.471, 109.997
438.953, 122.069
439.435, 131.106
439.917, 129.814
440.399, 125.524
440.881, 127.860
441.363, 140.617
441.845, 153.860
442.328, 161.623
442.810, 165.419
443.292, 168.040
443.774, 168.351
444.256, 169.638
444.738, 173.913
445.220, 181.070
445.702, 187.839
446.185, 191.501
446.667, 195.774
447.149, 203.146
447.631, 219.065
448.113, 230.185
448.595, 232.588
449.077, 231.079
449.559, 234.277
450.042, 246.792
450.524, 256.594
451.006, 259.928
451.488, 257.007
451.970, 255.248
452.452, 254.897
452.934, 255.107
453.416, 255.101
453.898, 254.786
454.380, 256.098
454.863, 260.273
455.345, 264.019
455.827, 260.023
456.309, 248.850
456.791, 239.405
457.273, 235.847
457.755, 236.360
458.237, 238.611
458.720, 242.381
459.202, 242.771
459.684, 233.457
460.166, 218.814
460.648, 205.132
461.130, 192.433
461.612, 183.993
462.094, 187.078
462.577, 195.531
463.059, 198.446
463.541, 184.786
464.023, 169.879
464.505, 162.644
464.987, 162.416
465.469, 161.209
465.951, 156.099
466.434, 149.650
466.916, 143.283
467.398, 136.218
467.880, 130.632
468.362, 128.037
468.844, 126.905
469.326, 124.848
469.808, 121.584
470.290, 117.654
470.772, 112.753
471.255, 106.968
471.737, 102.822
472.219, 101.344
472.701, 99.461
473.183, 94.147
473.665, 84.778
474.147, 78.483
474.629, 76.200
475.112, 75.791
475.594, 74.454
476.076, 72.529
476.558, 70.791
477.040, 69.429
477.522, 67.779
478.004, 65.103
478.486, 61.636
478.969, 58.443
479.451, 56.033
479.933, 54.912
480.415, 55.882
480.897, 59.279
481.379, 60.992
481.861, 56.632
482.343, 49.916
482.825, 45.807
483.308, 47.469
483.790, 50.561
484.272, 54.773
484.754, 59.631
485.236, 62.340
485.718, 60.029
486.200, 57.277
486.682, 56.025
487.164, 56.538
487.647, 56.777
488.129, 57.509
488.611, 57.859
489.093, 56.460
489.575, 52.075
490.057, 49.406
490.539, 49.844
491.021, 52.205
491.504, 52.624
491.986, 50.862
492.468, 49.093
492.950, 48.689
493.432, 49.299
493.914, 48.908
494.396, 47.408
494.878, 46.392
495.361, 48.414
495.843, 52.009
496.325, 53.628
496.807, 51.715
497.289, 48.932
497.771, 48.048
498.253, 48.437
498.735, 48.421
499.217, 47.579
499.699, 45.769
500.182, 42.293
500.664, 37.190
501.146, 32.865
501.628, 29.621
502.110, 27.918
502.592, 28.124
503.074, 32.335
503.556, 35.429
504.039, 37.546
504.521, 38.167
505.003, 36.088
505.485, 28.311
505.967, 23.219
506.449, 24.012
506.931, 29.630
507.413, 30.558
507.896, 25.371
508.378, 19.962
508.860, 18.750
509.342, 21.536
509.824, 22.771
510.306, 22.147
510.788, 20.078
511.270, 15.883
511.752, 10.420
512.235, 6.917
512.717, 7.260
513.199, 8.845
513.681, 7.650
514.163, 4.697
514.645, 3.613
515.127, 8.073
515.609, 14.130
516.091, 19.415
516.574, 23.811
517.056, 25.607
517.538, 21.867
518.020, 16.460
518.502, 12.558
518.984, 11.774
519.466, 11.166
519.948, 11.255
520.430, 11.234
520.913, 9.061
521.395, 0.718
521.877, 3.045
522.359, 3.169
522.841, 18.172
523.323, 22.946
523.805, 14.744
524.287, 4.590
524.770, 0.434
525.252, 2.034
525.734, 3.290
526.216, 3.635
526.698, 4.126
527.180, 6.879
527.662, 11.049
528.144, 13.744
528.627, 13.857
529.109, 12.153
529.591, 8.280
530.073, 3.076
530.555, 0.553
531.037, 0.512
531.519, 2.635
532.001, 3.319
532.484, 2.270
532.966, 0.796
533.448, 2.623
533.930, 5.133
534.412, 4.608
534.894, 4.081
535.376, 9.543
535.858, 10.955
536.340, 9.235
536.823, 5.322
537.305, 3.698
537.787, 8.553
538.269, 5.434
538.751, 4.082
539.233, 9.627
539.715, 10.890
540.197, 10.124
540.679, 8.486
541.162, 6.007
541.644, 2.820
542.126, 1.168
542.608, 5.030
543.090, 8.573
543.572, 11.134
544.054, 11.075
544.536, 6.512
545.018, 1.353
545.501, 1.248
545.983, 1.962
546.465, 2.300
546.947, 1.356
547.429, 1.552
547.911, 5.523
548.393, 13.502
548.875, 17.590
549.357, 12.038
549.840, 5.710
550.322, 3.712
550.804, 9.470
551.286, 11.163
551.768, 6.407
552.250, 0.080
552.732, 0.482
553.214, 5.844
553.697, 10.668
554.179, 11.880
554.661, 10.728
555.143, 10.078
555.625, 10.047
556.107, 10.403
556.589, 10.623
557.071, 11.290
557.554, 14.044
558.036, 18.844
558.518, 23.117
559.000, 25.767
559.482, 26.429
559.964, 24.076
560.446, 16.673
560.928, 11.103
561.411, 11.683
561.893, 15.321
562.375, 17.858
562.857, 16.393
563.339, 16.208
563.821, 19.352
564.303, 24.671
564.785, 27.029
565.267, 25.138
565.750, 22.671
566.232, 20.674
566.714, 19.176
567.196, 20.898
567.678, 26.929
568.160, 31.325
568.642, 26.543
569.124, 15.100
569.606, 8.460
570.089, 8.839
570.571, 12.687
571.053, 18.235
571.535, 23.986
572.017, 26.465
572.499, 21.265
572.981, 15.397
573.463, 13.645
573.945, 15.078
574.428, 16.554
574.910, 16.020
575.392, 15.757
575.874, 17.485
576.356, 21.901
576.838, 24.753
577.320, 25.242
577.802, 24.826
578.284, 24.367
578.767, 23.818
579.249, 23.396
579.731, 22.966
580.213, 22.867
580.695, 22.979
581.177, 23.240
581.659, 22.794
582.141, 21.048
582.624, 18.792
583.106, 17.487
583.588, 17.024
584.070, 16.900
584.552, 16.402
585.034, 16.390
585.516, 18.497
585.998, 22.619
586.481, 25.311
586.963, 23.035
587.445, 19.862
587.927, 18.877
588.409, 22.046
588.891, 24.115
589.373, 23.245
589.855, 21.538
590.338, 21.070
590.820, 21.873
591.302, 23.921
591.784, 28.818
592.266, 34.223
592.748, 32.504
593.230, 22.426
593.712, 14.995
594.194, 16.114
594.677, 22.679
595.159, 26.467
595.641, 27.491
596.123, 26.721
596.605, 22.330
597.087, 17.321
597.569, 16.197
598.051, 19.820
598.533, 23.912
599.016, 27.421
599.498, 29.533
599.980, 29.368
600.462, 24.971
600.944, 20.410
601.426, 15.102
601.908, 10.555
602.390, 9.680
602.872, 14.984
603.355, 19.010
603.837, 19.896
604.319, 18.202
604.801, 16.120
605.283, 13.521
605.765, 11.562
606.247, 11.402
606.729, 12.390
607.211, 12.009
607.694, 10.220
608.176, 8.593
608.658, 9.365
609.140, 10.755
609.622, 10.170
610.104, 6.644
610.586, 2.896
611.068, 0.779
611.551, 0.151
612.033, 3.541
612.515, 1.571
612.997, 5.895
613.479, 8.712
613.961, 10.099
614.443, 10.102
614.925, 8.150
615.407, 5.833
615.890, 2.855
616.372, 0.181
616.854, 1.923
617.336, 9.845
617.818, 15.953
618.300, 13.064
618.782, 4.397
619.265, 0.593
619.747, 1.461
620.229, 0.992
620.711, 1.261
621.193, 1.690
621.675, 1.528
622.157, 2.141
622.639, 0.854
623.121, 2.921
623.604, 4.713
624.086, 4.870
624.568, 0.481
625.050, 2.867
625.532, 0.963
626.014, 8.138
626.496, 9.765
626.978, 3.580
627.460, 1.775
627.943, 2.969
628.425, 0.819
628.907, 0.868
629.389, 2.111
629.871, 2.265
630.353, 3.800
630.835, 3.797
631.317, 6.009
631.799, 6.639
632.282, 5.685
632.764, 6.637
633.246, 6.348
633.728, 6.566
634.210, 6.969
634.692, 7.341
635.174, 9.134
635.656, 11.065
636.138, 11.202
636.621, 7.250
637.103, 5.503
637.585, 7.970
638.067, 12.588
638.549, 13.522
639.031, 10.150
639.513, 7.302
639.995, 7.020
640.478, 8.503
640.960, 9.499
641.442, 10.071
641.924, 10.730
642.406, 12.630
642.888, 14.346
643.370, 13.493
643.852, 9.868
644.334, 7.511
644.817, 10.334
645.299, 14.049
645.781, 15.161
646.263, 11.138
646.745, 8.646
647.227, 7.410
647.709, 8.243
648.192, 12.630
648.674, 22.243
649.156, 29.931
649.638, 34.828
650.120, 37.345
650.602, 37.334
651.084, 35.048
651.566, 34.241
652.048, 38.287
652.531, 42.849
653.013, 38.373
653.495, 27.865
653.977, 23.107
654.459, 37.542
654.941, 54.084
655.423, 61.421
655.905, 58.896
656.388, 57.103
656.870, 58.191
657.352, 60.800
657.834, 64.305
658.316, 68.788
658.798, 73.633
659.280, 79.004
659.762, 84.423
660.244, 89.310
660.727, 93.773
661.209, 98.836
661.691, 104.829
662.173, 110.838
662.655, 115.080
663.137, 118.359
663.619, 122.517
664.101, 128.372
664.583, 135.034
665.066, 141.999
665.548, 149.381
666.030, 157.289
666.512, 167.740
666.994, 176.727
667.476, 181.208
667.958, 182.510
668.440, 187.714
668.922, 198.730
669.405, 209.610
669.887, 217.997
670.369, 224.289
670.851, 231.455
671.333, 239.642
671.815, 247.148
672.297, 252.438
672.779, 256.383
673.261, 259.721
673.744, 262.283
674.226, 267.626
674.708, 281.206
675.190, 297.677
675.672, 311.336
676.154, 319.938
676.636, 327.896
677.119, 337.039
677.601, 345.604
678.083, 350.957
678.565, 349.687
679.047, 353.049
679.529, 363.924
680.011, 378.478
680.493, 390.258
680.975, 399.153
681.458, 403.646
681.940, 400.648
682.422, 395.552
682.904, 399.502
683.386, 410.071
683.868, 417.114
684.350, 411.877
684.832, 403.958
685.315, 400.459
685.797, 401.002
686.279, 399.495
686.761, 390.707
687.243, 382.781
687.725, 379.659
688.207, 381.994
688.689, 382.321
689.171, 381.063
689.654, 377.096
690.136, 368.690
690.618, 356.393
691.100, 345.368
691.582, 336.092
692.064, 326.528
692.546, 312.626
693.028, 297.830
693.510, 288.460
693.993, 287.896
694.475, 286.904
694.957, 279.770
695.439, 269.426
695.921, 259.430
696.403, 249.764
696.885, 241.101
697.367, 234.965
697.849, 229.519
698.332, 220.325
698.814, 205.539
699.296, 194.254
699.778, 190.120
700.260, 190.039
700.742, 184.881
701.224, 175.538
701.706, 168.632
702.188, 170.747
702.671, 175.211
703.153, 174.890
703.635, 170.250
704.117, 164.141
704.599, 156.602
705.081, 149.284
705.563, 143.433
706.045, 139.404
706.528, 134.852
707.010, 128.910
707.492, 122.763
707.974, 116.675
708.456, 110.551
708.938, 108.985
709.420, 113.023
709.902, 116.264
710.385, 110.607
710.867, 99.424
711.349, 90.624
711.831, 85.255
712.313, 81.710
712.795, 79.399
713.277, 78.425
713.759, 78.985
714.242, 83.277
714.724, 84.464
715.206, 77.536
715.688, 69.019
716.170, 66.865
716.652, 74.158
717.134, 77.957
717.616, 75.985
718.098, 70.339
718.581, 64.403
719.063, 58.518
719.545, 54.690
720.027, 54.047
720.509, 54.677
720.991, 55.929
721.473, 57.204
721.955, 56.733
722.437, 52.625
722.920, 47.651
723.402, 41.634
723.884, 35.345
724.366, 33.002
724.848, 36.465
725.330, 41.264
725.812, 46.635
726.294, 52.235
726.776, 54.784
727.259, 53.973
727.741, 52.711
728.223, 54.080
728.705, 56.036
729.187, 52.794
729.669, 44.567
730.151, 37.508
730.633, 37.156
731.115, 38.646
731.598, 37.588
732.080, 32.746
732.562, 29.483
733.044, 28.739
733.526, 29.906
734.008, 33.191
734.490, 39.807
734.972, 43.870
735.455, 44.744
735.937, 44.807
736.419, 47.117
736.901, 50.939
737.383, 53.048
737.865, 52.758
738.347, 51.601
738.829, 51.019
739.312, 50.449
739.794, 49.026
740.276, 45.093
740.758, 42.588
741.240, 44.314
741.722, 47.474
742.204, 47.554
742.686, 41.614
743.169, 39.913
743.651, 45.603
744.133, 53.973
744.615, 54.765
745.097, 48.683
745.579, 44.050
746.061, 44.439
746.543, 46.293
747.025, 45.630
747.508, 42.784
747.990, 38.564
748.472, 29.877
748.954, 23.402
749.436, 23.882
749.918, 29.352
750.400, 30.999
750.882, 26.547
751.364, 21.773
751.847, 18.180
752.329, 15.600
752.811, 12.959
753.293, 10.220
753.775, 9.105
754.257, 13.801
754.739, 19.273
755.221, 14.797
755.703, 2.164
756.186, 7.635
756.668, 5.363
757.150, 1.248
757.632, 1.891
758.114, 8.082
758.596, 11.678
759.078, 10.756
759.560, 9.271
760.042, 9.158
760.525, 10.466
761.007, 10.558
761.489, 9.239
761.971, 8.338
762.453, 9.127
762.935, 11.398
763.417, 15.755
763.899, 22.296
764.382, 26.499
764.864, 22.916
765.346, 17.549
765.828, 14.843
766.310, 15.723
766.792, 18.981
767.274, 26.783
767.756, 34.299
768.239, 37.877
768.721, 37.146
769.203, 34.703
769.685, 30.049
770.167, 26.362
770.649, 28.793
771.131, 34.368
771.613, 36.068
772.096, 31.808
772.578, 27.598
773.060, 29.022
773.542, 31.702
774.024, 31.091
774.506, 24.560
774.988, 17.095
775.470, 6.198
775.952, 3.103
776.435, 2.898
776.917, 8.478
777.399, 12.716
777.881, 5.751
778.363, 4.325
778.845, 6.252
779.327, 2.801
779.809, 0.344
780.291, 0.755
780.774, 2.326
781.256, 3.461
781.738, 5.212
782.220, 9.320
782.702, 21.842
783.184, 28.946
783.666, 26.697
784.148, 20.724
784.630, 21.328
785.113, 28.946
785.595, 36.251
786.077, 41.437
786.559, 45.714
787.041, 50.905
787.523, 56.465
788.005, 61.453
788.487, 65.103
788.969, 68.874
789.452, 72.688
789.934, 77.120
790.416, 84.086
790.898, 97.249
791.380, 107.394
791.862, 112.444
792.344, 113.986
792.826, 114.283
793.309, 113.280
793.791, 115.941
794.273, 125.971
794.755, 138.011
795.237, 143.579
795.719, 144.942
796.201, 148.242
796.683, 157.748
797.166, 168.082
797.648, 177.153
798.130, 185.315
798.612, 194.257
799.094, 204.951
799.576, 214.930
800.058, 224.240
800.540, 232.011
801.023, 232.980
801.505, 228.035
801.987, 228.331
802.469, 241.656
802.951, 260.443
803.433, 277.634
803.915, 293.056
804.397, 305.848
804.879, 313.483
805.362, 320.900
805.844, 327.176
806.326, 334.341
806.808, 351.954
807.290, 384.573
807.772, 414.516
808.254, 434.712
808.736, 448.293
809.218, 463.915
809.701, 480.892
810.183, 495.327
810.665, 498.785
811.147, 503.970
811.629, 522.293
812.111, 551.895
812.593, 584.489
813.075, 625.863
813.557, 659.524
814.040, 675.532
814.522, 680.411
815.004, 707.560
815.486, 760.964
815.968, 808.838
816.450, 835.675
816.932, 850.476
817.414, 869.037
817.896, 891.176
818.379, 917.141
818.861, 944.820
819.343, 978.939
819.825, 1027.591
820.307, 1086.991
820.789, 1132.207
821.271, 1149.844
821.753, 1172.578
822.236, 1211.625
822.718, 1263.764
823.200, 1310.434
823.682, 1351.757
824.164, 1398.946
824.646, 1465.780
825.128, 1536.401
825.610, 1589.227
826.093, 1628.019
826.575, 1663.677
827.057, 1692.463
827.539, 1727.656
828.021, 1778.007
828.503, 1839.232
828.985, 1899.218
829.467, 1960.067
829.950, 2012.171
830.432, 2048.535
830.914, 2075.309
831.396, 2107.964
831.878, 2146.228
832.360, 2186.037
832.842, 2223.329
833.324, 2262.994
833.807, 2313.464
834.289, 2369.481
834.771, 2413.013
835.253, 2429.271
835.735, 2445.521
836.217, 2466.153
836.699, 2490.991
837.181, 2521.947
837.663, 2559.300
838.146, 2593.607
838.628, 2620.484
839.110, 2642.285
839.592, 2661.305
840.074, 2678.535
840.556, 2696.707
841.038, 2716.923
841.520, 2738.692
842.002, 2763.626
842.485, 2789.913
842.967, 2812.028
843.449, 2826.753
843.931, 2845.656
844.413, 2871.460
844.895, 2903.264
845.377, 2942.151
845.859, 2986.363
846.341, 3026.026
846.824, 3055.009
847.306, 3081.310
847.788, 3109.095
848.270, 3139.076
848.752, 3172.716
849.234, 3213.991
849.716, 3254.504
850.198, 3291.966
850.680, 3328.257
851.163, 3367.263
851.645, 3408.761
852.127, 3450.167
852.609, 3490.151
853.091, 3531.249
853.573, 3579.995
854.055, 3631.414
854.537, 3676.500
855.020, 3711.748
855.502, 3740.624
855.984, 3762.984
856.466, 3779.623
856.948, 3790.925
857.430, 3793.560
857.912, 3802.602
858.394, 3823.770
858.877, 3843.876
859.359, 3838.422
859.841, 3814.431
860.323, 3796.311
860.805, 3793.678
861.287, 3787.054
861.769, 3763.782
862.251, 3728.081
862.734, 3685.284
863.216, 3624.075
863.698, 3574.575
864.180, 3544.317
864.662, 3515.714
865.144, 3467.312
865.626, 3400.899
866.108, 3331.440
866.590, 3261.394
867.073, 3187.194
867.555, 3094.146
868.037, 2999.539
868.519, 2926.537
869.001, 2890.600
869.483, 2844.098
869.965, 2761.792
870.447, 2675.315
870.929, 2607.325
871.412, 2562.220
871.894, 2505.016
872.376, 2432.682
872.858, 2362.812
873.340, 2317.059
873.822, 2281.487
874.304, 2226.986
874.786, 2150.132
875.268, 2075.799
875.751, 2018.736
876.233, 1967.779
876.715, 1916.167
877.197, 1862.887
877.679, 1814.239
878.161, 1772.748
878.643, 1729.654
879.125, 1675.050
879.607, 1613.662
880.090, 1564.217
880.572, 1525.363
881.054, 1489.630
881.536, 1454.654
882.018, 1419.874
882.500, 1383.594
882.982, 1346.201
883.464, 1313.979
883.947, 1292.049
884.429, 1265.842
884.911, 1227.625
885.393, 1181.446
885.875, 1143.634
886.357, 1113.772
886.839, 1087.589
887.321, 1066.025
887.804, 1044.189
888.286, 1016.984
888.768, 985.696
889.250, 954.855
889.732, 927.888
890.214, 898.746
890.696, 862.992
891.178, 825.858
891.661, 804.056
892.143, 797.199
892.625, 788.380
893.107, 774.296
893.589, 754.714
894.071, 722.753
894.553, 685.704
895.035, 657.355
895.517, 653.828
896.000, 645.769
896.482, 624.618
896.964, 598.257
897.446, 575.573
897.928, 556.513
898.410, 538.208
898.892, 520.670
899.374, 503.514
899.856, 485.508
900.339, 467.766
900.821, 453.453
901.303, 444.997
901.785, 433.881
902.267, 412.491
902.749, 389.387
903.231, 372.845
903.713, 365.260
904.195, 354.433
904.678, 340.232
905.160, 323.597
905.642, 301.278
906.124, 278.319
906.606, 269.184
907.088, 274.407
907.570, 277.214
908.052, 266.732
908.534, 251.956
909.017, 237.261
909.499, 222.819
909.981, 212.642
910.463, 207.844
910.945, 204.002
911.427, 199.731
911.909, 194.434
912.391, 186.000
912.874, 174.767
913.356, 162.605
913.838, 145.371
914.320, 132.282
914.802, 132.245
915.284, 141.710
915.766, 143.677
916.248, 133.900
916.731, 125.110
917.213, 120.664
917.695, 118.659
918.177, 115.225
918.659, 110.539
919.141, 105.166
919.623, 98.981
920.105, 92.630
920.588, 86.829
921.070, 81.119
921.552, 74.658
922.034, 65.955
922.516, 59.742
922.998, 57.294
923.480, 55.742
923.962, 51.252
924.444, 44.428
924.927, 38.105
925.409, 32.857
925.891, 27.680
926.373, 19.894
926.855, 13.136
927.337, 11.556
927.819, 18.460
928.301, 21.254
928.783, 18.743
929.266, 14.039
929.748, 9.391
930.230, 4.430
930.712, 3.578
931.194, 14.333
931.676, 22.501
932.158, 22.971
932.640, 20.498
933.122, 18.144
933.605, 16.075
934.087, 13.411
934.569, 8.163
935.051, 6.124
935.533, 10.064
936.015, 17.842
936.497, 24.707
936.979, 30.109
937.461, 31.807
937.944, 25.602
938.426, 19.195
938.908, 18.327
939.390, 21.168
939.872, 24.448
940.354, 29.039
940.836, 31.464
941.318, 30.987
941.801, 29.076
942.283, 27.743
942.765, 26.849
943.247, 25.786
943.729, 24.524
944.211, 22.564
944.693, 19.005
945.175, 14.954
945.657, 11.141
946.140, 6.725
946.622, 6.091
947.104, 10.746
947.586, 15.968
948.068, 19.156
948.550, 20.005
949.032, 15.138
949.515, 5.204
949.997, 1.251
950.479, 5.515
950.961, 14.038
951.443, 17.257
951.925, 14.821
952.407, 10.067
952.889, 0.850
953.371, 4.682
953.854, 2.287
954.336, 3.720
954.818, 2.747
955.300, 3.628
955.782, 9.862
956.264, 14.680
956.746, 17.555
957.228, 17.509
957.710, 15.454
958.193, 12.629
958.675, 7.817
959.157, 6.157
959.639, 8.716
960.121, 12.921
960.603, 16.049
961.085, 18.268
961.567, 20.003
962.049, 21.338
962.532, 22.307
963.014, 21.386
963.496, 21.289
963.978, 24.707
964.460, 32.180
964.942, 36.324
965.424, 36.667
965.906, 35.839
966.388, 34.896
966.871, 34.262
967.353, 34.694
967.835, 36.102
968.317, 37.978
968.799, 39.216
969.281, 41.987
969.763, 48.781
970.245, 57.198
970.728, 61.174
971.210, 60.567
971.692, 56.845
972.174, 48.828
972.656, 41.524
973.138, 41.723
973.620, 47.077
974.102, 54.265
974.584, 65.665
975.067, 71.934
975.549, 68.543
976.031, 62.391
976.513, 58.842
976.995, 57.919
977.477, 56.616
977.959, 54.721
978.442, 54.981
978.924, 62.618
979.406, 71.363
979.888, 74.145
980.370, 70.677
980.852, 68.644
981.334, 70.377
981.816, 71.743
982.298, 70.944
982.781, 69.006
983.263, 69.844
983.745, 73.028
984.227, 75.932
984.709, 78.047
985.191, 78.663
985.673, 76.186
986.155, 72.168
986.638, 69.265
987.120, 66.743
987.602, 67.679
988.084, 73.701
988.566, 79.963
989.048, 79.557
989.530, 74.593
990.012, 70.976
990.494, 69.522
990.977, 69.201
991.459, 69.076
991.941, 70.275
992.423, 74.692
992.905, 82.311
993.387, 85.283
993.869, 82.940
994.351, 78.707
994.833, 73.207
995.316, 68.047
995.798, 66.648
996.280, 68.250
996.762, 70.216
997.244, 72.334
997.726, 73.219
998.208, 72.072
998.690, 69.916
999.172, 68.677
999.655, 68.418
1000.137, 67.088
1000.619, 64.333
1001.101, 60.591
1001.583, 54.145
1002.065, 48.052
1002.547, 46.083
1003.029, 49.836
1003.512, 54.509
1003.994, 61.110
1004.476, 65.843
1004.958, 65.675
1005.440, 61.412
1005.922, 57.853
1006.404, 54.944
1006.886, 51.706
1007.368, 45.167
1007.851, 40.549
1008.333, 42.793
1008.815, 48.633
1009.297, 47.364
1009.779, 36.012
1010.261, 28.953
1010.743, 30.043
1011.225, 34.281
1011.708, 33.614
1012.190, 30.169
1012.672, 29.513
1013.154, 34.511
1013.636, 37.751
1014.118, 33.363
1014.600, 28.714
1015.082, 29.091
1015.564, 34.781
1016.047, 37.413
1016.529, 36.829
1017.011, 34.527
1017.493, 29.580
1017.975, 25.192
1018.457, 25.603
1018.939, 29.635
1019.421, 31.882
1019.904, 28.791
1020.386, 28.269
1020.868, 33.088
1021.350, 39.449
1021.832, 38.775
1022.314, 33.142
1022.796, 31.411
1023.278, 37.107
1023.760, 41.413
1024.243, 36.703
1024.725, 29.423
1025.207, 25.697
1025.689, 26.424
1026.171, 26.543
1026.653, 25.783
1027.135, 25.732
1027.617, 28.571
1028.099, 32.293
1028.582, 32.945
1029.064, 31.196
1029.546, 30.488
1030.028, 34.825
1030.510, 36.627
1030.992, 32.683
1031.474, 26.591
1031.956, 26.885
1032.438, 32.816
1032.921, 34.787
1033.403, 29.403
1033.885, 24.286
1034.367, 27.503
1034.849, 33.541
1035.331, 36.285
1035.813, 33.251
1036.295, 34.424
1036.778, 42.309
1037.260, 47.792
1037.742, 41.665
1038.224, 29.530
1038.706, 26.501
1039.188, 30.962
1039.670, 35.467
1040.152, 37.331
1040.635, 37.652
1041.117, 36.109
1041.599, 33.728
1042.081, 32.332
1042.563, 31.943
1043.045, 31.170
1043.527, 29.580
1044.009, 28.280
1044.491, 29.120
1044.974, 30.470
1045.456, 30.798
1045.938, 30.073
1046.420, 26.648
1046.902, 17.873
1047.384, 11.980
1047.866, 15.072
1048.348, 24.085
1048.830, 30.056
1049.313, 33.138
1049.795, 33.808
1050.277, 30.724
1050.759, 27.125
1051.241, 23.409
1051.723, 20.373
1052.205, 19.595
1052.687, 21.460
1053.170, 20.733
1053.652, 16.095
1054.134, 12.925
1054.616, 20.387
1055.098, 30.007
1055.580, 31.228
1056.062, 21.554
1056.544, 16.065
1057.026, 18.435
1057.509, 19.686
1057.991, 14.255
1058.473, 6.049
1058.955, 8.875
1059.437, 19.406
1059.919, 25.491
1060.401, 16.331
1060.883, 8.821
1061.365, 11.213
1061.848, 17.752
1062.330, 22.281
1062.812, 24.830
1063.294, 24.028
1063.776, 19.419
1064.258, 15.447
1064.740, 17.537
1065.222, 21.194
1065.705, 22.081
1066.187, 19.959
1066.669, 16.481
1067.151, 10.123
1067.633, 6.037
1068.115, 6.405
1068.597, 9.178
1069.079, 9.776
1069.562, 8.858
1070.044, 8.213
1070.526, 8.088
1071.008, 9.179
1071.490, 14.033
1071.972, 18.304
1072.454, 17.984
1072.936, 12.632
1073.418, 9.407
1073.901, 8.346
1074.383, 8.510
1074.865, 9.698
1075.347, 11.403
1075.829, 13.859
1076.311, 16.636
1076.793, 17.764
1077.275, 17.360
1077.757, 14.427
1078.240, 7.816
1078.722, 0.919
1079.204, 0.635
1079.686, 1.013
1080.168, 2.258
1080.650, 2.455
1081.132, 3.132
1081.615, 4.756
1082.097, 7.101
1082.579, 10.929
1083.061, 15.612
1083.543, 15.085
1084.025, 9.986
1084.507, 6.222
1084.989, 8.816
1085.471, 11.914
1085.953, 10.707
1086.436, 7.802
1086.918, 8.598
1087.400, 15.490
1087.882, 16.286
1088.364, 8.761
1088.846, 1.206
1089.328, 3.655
1089.810, 10.444
1090.293, 14.493
1090.775, 15.172
1091.257, 14.926
1091.739, 14.645
1092.221, 12.780
1092.703, 8.039
1093.185, 2.262
1093.667, 0.252
1094.150, 0.998
1094.632, 1.670
1095.114, 1.058
1095.596, 1.344
1096.078, 4.482
1096.560, 8.193
1097.042, 10.813
1097.524, 12.226
1098.006, 12.335
1098.489, 11.133
1098.971, 9.253
1099.453, 5.300
1099.935, 2.454
1100.417, 5.589
1100.899, 12.043
1101.381, 13.079
1101.863, 5.542
1102.345, 1.012
1102.828, 1.659
1103.310, 4.400
1103.792, 6.178
1104.274, 6.916
1104.756, 6.410
1105.238, 4.429
1105.720, 3.664
1106.202, 5.067
1106.685, 7.623
1107.167, 12.325
1107.649, 17.240
1108.131, 13.325
1108.613, 3.072
1109.095, 3.059
1109.577, 1.748
1110.059, 7.369
1110.542, 10.337
1111.024, 10.914
1111.506, 7.725
1111.988, 0.642
1112.470, 0.737
1112.952, 12.692
1113.434, 22.567
1113.916, 18.224
1114.398, 10.060
1114.880, 6.377
1115.363, 6.896
1115.845, 8.660
1116.327, 12.560
1116.809, 13.922
1117.291, 11.262
1117.773, 7.692
1118.255, 7.810
1118.737, 9.677
1119.220, 10.404
1119.702, 9.404
1120.184, 8.005
1120.666, 5.616
1121.148, 4.157
1121.630, 5.268
1122.112, 7.628
1122.594, 6.321
1123.077, 2.477
1123.559, 0.157
1124.041, 1.713
1124.523, 4.048
1125.005, 6.882
1125.487, 9.298
1125.969, 10.651
1126.451, 10.948
1126.933, 8.639
1127.416, 3.740
1127.898, 0.024
1128.380, 1.165
1128.862, 3.451
1129.344, 4.550
1129.826, 4.661
1130.308, 4.734
1130.790, 4.029
1131.272, 5.380
1131.755, 9.985
1132.237, 13.883
1132.719, 11.485
1133.201, 6.518
1133.683, 3.305
1134.165, 2.633
1134.647, 2.672
1135.129, 4.134
1135.612, 3.936
1136.094, 0.595
1136.576, 6.173
1137.058, 4.779
1137.540, 0.841
1138.022, 4.426
1138.504, 1.594
1138.986, 0.766
1139.469, 3.981
1139.951, 8.150
1140.433, 11.411
1140.915, 13.517
1141.397, 12.348
1141.879, 8.413
1142.361, 5.848
1142.843, 8.385
1143.325, 11.049
1143.807, 11.876
1144.290, 11.529
1144.772, 11.069
1145.254, 10.470
1145.736, 8.700
1146.218, 5.293
1146.700, 3.784
1147.182, 10.135
1147.664, 16.926
1148.147, 17.609
1148.629, 12.916
1149.111, 8.922
1149.593, 5.711
1150.075, 2.314
1150.557, 2.311
1151.039, 5.864
1151.521, 5.420
1152.004, 2.476
1152.486, 1.500
1152.968, 7.980
1153.450, 9.106
1153.932, 3.371
1154.414, 1.781
1154.896, 0.049
1155.378, 4.516
1155.860, 5.783
1156.343, 4.464
1156.825, 2.598
1157.307, 0.558
1157.789, 2.181
1158.271, 1.747
1158.753, 0.286
1159.235, 2.135
1159.717, 4.534
1160.199, 3.867
1160.682, 0.205
1161.164, 1.941
1161.646, 0.895
1162.128, 3.392
1162.610, 3.729
1163.092, 3.146
1163.574, 5.088
1164.056, 8.514
1164.539, 9.200
1165.021, 5.518
1165.503, 2.426
1165.985, 3.514
1166.467, 4.934
1166.949, 4.426
1167.431, 2.317
1167.913, 1.017
1168.396, 5.205
1168.878, 6.835
1169.360, 3.031
1169.842, 1.554
1170.324, 5.417
1170.806, 7.641
1171.288, 6.632
1171.770, 1.614
1172.252, 0.773
1172.734, 4.269
1173.217, 8.079
1173.699, 9.931
1174.181, 10.520
1174.663, 9.483
1175.145, 7.758
1175.627, 8.297
1176.109, 6.759
1176.591, 4.678
1177.074, 5.563
1177.556, 0.759
1178.038, 1.152
1178.520, 1.433
1179.002, 4.486
1179.484, 7.794
1179.966, 11.463
1180.448, 16.397
1180.931, 18.275
1181.413, 15.252
1181.895, 10.238
1182.377, 4.940
1182.859, 1.256
1183.341, 3.112
1183.823, 13.995
1184.305, 16.797
1184.787, 7.500
1185.270, 0.096
1185.752, 3.067
1186.234, 10.379
1186.716, 7.682
1187.198, 0.415
1187.680, 4.096
1188.162, 4.343
1188.644, 10.070
1189.126, 11.762
1189.609, 11.878
1190.091, 13.603
1190.573, 15.607
1191.055, 13.693
1191.537, 8.797
1192.019, 5.425
1192.501, 6.138
1192.983, 7.896
1193.466, 11.101
1193.948, 13.626
1194.430, 11.440
1194.912, 6.459
1195.394, 2.838
1195.876, 0.903
1196.358, 2.353
1196.840, 13.997
1197.323, 21.324
1197.805, 18.003
1198.287, 9.393
1198.769, 8.344
1199.251, 12.677
1199.733, 14.555
1200.215, 11.789
1200.697, 8.926
1201.179, 7.753
1201.661, 7.438
1202.144, 8.045
1202.626, 9.038
1203.108, 7.198
1203.590, 3.282
1204.072, 0.824
1204.554, 1.965
1205.036, 3.305
1205.518, 2.954
1206.001, 2.525
1206.483, 3.275
1206.965, 5.152
1207.447, 7.621
1207.929, 10.509
1208.411, 12.245
1208.893, 12.066
1209.375, 10.409
1209.858, 5.211
1210.340, 0.073
1210.822, 0.467
1211.304, 6.080
1211.786, 7.863
1212.268, 5.294
1212.750, 3.319
1213.232, 6.738
1213.714, 10.001
1214.197, 9.536
1214.679, 6.769
1215.161, 3.378
1215.643, 0.494
1216.125, 0.519
1216.607, 7.954
1217.089, 14.658
1217.571, 14.490
1218.053, 12.311
1218.536, 11.036
1219.018, 10.508
1219.500, 10.348
1219.982, 10.454
1220.464, 10.213
1220.946, 8.979
1221.428, 8.909
1221.910, 12.981
1222.393, 17.851
1222.875, 21.135
1223.357, 22.689
1223.839, 20.450
1224.321, 14.548
1224.803, 9.284
1225.285, 6.068
1225.767, 4.849
1226.250, 6.777
1226.732, 9.886
1227.214, 11.968
1227.696, 12.738
1228.178, 14.787
1228.660, 18.085
1229.142, 19.590
1229.624, 15.824
1230.106, 11.287
1230.589, 8.178
1231.071, 6.599
1231.553, 6.912
1232.035, 9.348
1232.517, 10.035
1232.999, 8.703
1233.481, 7.798
1233.963, 10.759
1234.445, 13.198
1234.928, 10.233
1235.410, 4.970
1235.892, 5.912
1236.374, 13.123
1236.856, 18.051
1237.338, 19.465
1237.820, 18.166
1238.302, 11.500
1238.785, 5.353
1239.267, 5.409
1239.749, 9.568
1240.231, 9.779
1240.713, 6.227
1241.195, 4.679
1241.677, 7.161
1242.159, 9.483
1242.641, 8.455
1243.124, 7.115
1243.606, 8.653
1244.088, 12.450
1244.570, 12.823
1245.052, 9.935
1245.534, 5.742
1246.016, 1.200
1246.498, 4.561
1246.980, 5.342
1247.463, 4.218
1247.945, 3.715
1248.427, 5.244
1248.909, 5.172
1249.391, 3.771
1249.873, 7.431
1250.355, 11.381
1250.837, 13.567
1251.320, 11.051
1251.802, 7.610
1252.284, 7.490
1252.766, 10.516
1253.248, 11.576
1253.730, 10.592
1254.212, 8.498
1254.694, 3.437
1255.177, 0.142
1255.659, 2.291
1256.141, 5.923
1256.623, 5.527
1257.105, 1.888
1257.587, 2.745
1258.069, 8.302
1258.551, 12.339
1259.033, 8.797
1259.516, 6.233
1259.998, 8.773
1260.480, 13.057
1260.962, 12.462
1261.444, 8.413
1261.926, 7.071
1262.408, 9.277
1262.890, 11.343
1263.372, 11.772
1263.855, 11.215
1264.337, 9.315
1264.819, 7.243
1265.301, 8.749
1265.783, 12.210
1266.265, 12.404
1266.747, 7.583
1267.229, 4.526
1267.712, 7.200
1268.194, 9.886
1268.676, 10.629
1269.158, 9.879
1269.640, 7.804
1270.122, 5.237
1270.604, 4.305
1271.086, 6.358
1271.568, 6.472
1272.051, 4.367
1272.533, 3.007
1273.015, 4.917
1273.497, 8.160
1273.979, 8.508
1274.461, 6.929
1274.943, 5.379
1275.425, 4.069
1275.907, 3.786
1276.390, 4.985
1276.872, 5.864
1277.354, 4.262
1277.836, 2.215
1278.318, 4.525
1278.800, 2.466
1279.282, 1.851
1279.764, 1.672
1280.247, 1.260
1280.729, 1.731
1281.211, 5.229
1281.693, 3.405
1282.175, 0.933
1282.657, 4.555
1283.139, 11.725
1283.621, 15.017
1284.104, 13.417
1284.586, 10.452
1285.068, 6.080
1285.550, 3.032
1286.032, 5.072
1286.514, 8.145
1286.996, 8.590
1287.478, 7.180
1287.960, 6.932
1288.443, 7.715
1288.925, 7.217
1289.407, 4.549
1289.889, 3.042
1290.371, 6.673
1290.853, 11.211
1291.335, 15.085
1291.817, 17.268
1292.299, 13.168
1292.782, 3.716
1293.264, 0.424
1293.746, 3.183
1294.228, 8.150
1294.710, 12.812
1295.192, 11.745
1295.674, 6.809
1296.156, 0.000
##END=



