##NAMES=Callaghanite
##RRUFFID=R050598
##IDEAL CHEMISTRY=Cu_2_Mg_2_CO_3_(OH)_6_&#183;2H_2_O
##LOCALITY=Basic Refractories mine, Gabbs District, Nye County, Nevada, USA
##OWNER=RRUFF
##SOURCE=Marcus Origlieri
##DESCRIPTION=Druse of blue pseudo-octahedral crystals
##STATUS=The identification of this mineral is confirmed by single-crystal X-ray diffraction and chemical analysis.
##URL=rruff.info/R050598
##MEASURED CHEMISTRY=Cu_2.00_(Mg_1.97_Fe_0.03_)_Σ=2_CO_3_(OH)_6_·2H_2_O ; C and H not measured but estimated by stoichiometry
131.9877, 0.0000000E+00
132.4698, 0.2888870
132.9520, 0.4320560
133.4341, 6.4094998E-02
133.9162, 0.1086850
134.3983, 0.3786050
134.8804, 1.344048
135.3625, 2.560192
135.8447, 3.970463
136.3268, 5.712635
136.8089, 8.040524
137.2910, 10.99704
137.7731, 14.28645
138.2552, 17.86055
138.7374, 21.71585
139.2195, 25.76768
139.7016, 30.32122
140.1837, 34.84062
140.6658, 38.08805
141.1479, 39.82047
141.6301, 40.95419
142.1122, 41.76840
142.5943, 41.92006
143.0764, 42.84166
143.5585, 44.48360
144.0406, 46.83951
144.5228, 50.24458
145.0049, 56.01003
145.4870, 61.17057
145.9691, 64.17712
146.4512, 65.48052
146.9333, 63.95477
147.4155, 58.73356
147.8976, 50.16609
148.3797, 41.93051
148.8618, 33.28704
149.3439, 25.39610
149.8260, 18.99599
150.3082, 14.23360
150.7903, 10.70610
151.2724, 8.470238
151.7545, 7.559107
152.2366, 7.389288
152.7188, 8.342718
153.2009, 9.712139
153.6830, 11.30773
154.1651, 12.86508
154.6472, 14.34847
155.1293, 16.06500
155.6115, 18.05352
156.0936, 20.35567
156.5757, 23.37603
157.0578, 26.58551
157.5399, 29.36658
158.0220, 32.33596
158.5042, 34.23464
158.9863, 34.39299
159.4684, 32.52943
159.9505, 30.19515
160.4326, 27.40752
160.9147, 24.52757
161.3969, 22.09352
161.8790, 20.19140
162.3611, 18.84614
162.8432, 18.17252
163.3253, 18.37407
163.8074, 18.66899
164.2896, 18.90887
164.7717, 18.99251
165.2538, 18.71688
165.7359, 17.85515
166.2180, 16.67793
166.7001, 15.34326
167.1823, 13.81783
167.6644, 12.31522
168.1465, 10.95940
168.6286, 9.733391
169.1107, 8.590565
169.5928, 7.681061
170.0750, 6.772356
170.5571, 5.562983
171.0392, 3.832762
171.5213, 2.070765
172.0034, 0.5716860
172.4855, 0.6524520
172.9677, 1.510471
173.4498, 1.804178
173.9319, 1.744822
174.4140, 1.643469
174.8961, 1.659351
175.3782, 1.575672
175.8604, 1.164883
176.3425, 0.4355180
176.8246, 0.5238090
177.3067, 1.740162
177.7888, 3.151384
178.2709, 4.618498
178.7531, 6.134159
179.2352, 7.679377
179.7173, 9.306633
180.1994, 11.01487
180.6815, 12.54806
181.1636, 13.84225
181.6458, 14.82244
182.1279, 15.20346
182.6100, 14.69162
183.0921, 13.57449
183.5742, 12.35106
184.0563, 10.97624
184.5385, 9.704893
185.0206, 8.890757
185.5027, 8.543613
185.9848, 8.360548
186.4669, 8.235668
186.9490, 8.261824
187.4312, 8.661596
187.9133, 9.448002
188.3954, 10.49339
188.8775, 11.65510
189.3596, 12.92842
189.8417, 14.40094
190.3239, 16.18346
190.8060, 18.18184
191.2881, 19.86539
191.7702, 21.24236
192.2523, 22.27726
192.7344, 22.96081
193.2166, 23.28940
193.6987, 23.16697
194.1808, 22.46975
194.6629, 21.23327
195.1450, 19.77433
195.6271, 18.01650
196.1093, 16.22937
196.5914, 14.75450
197.0735, 13.58910
197.5556, 12.75366
198.0377, 12.29461
198.5198, 12.20784
199.0020, 12.31756
199.4841, 12.64380
199.9662, 13.13057
200.4483, 13.72324
200.9304, 14.43830
201.4125, 15.15566
201.8947, 15.75353
202.3768, 16.19897
202.8589, 16.95457
203.3410, 18.06574
203.8231, 19.43495
204.3052, 20.84427
204.7874, 22.26414
205.2695, 23.87165
205.7516, 25.78949
206.2337, 28.06435
206.7158, 30.36227
207.1979, 32.75058
207.6801, 35.10162
208.1622, 37.25163
208.6443, 39.40215
209.1264, 40.78721
209.6085, 41.05960
210.0906, 40.16566
210.5728, 38.27293
211.0549, 35.02337
211.5370, 31.04808
212.0191, 27.82235
212.5012, 25.39998
212.9833, 23.52820
213.4655, 22.15921
213.9476, 21.36241
214.4297, 20.79600
214.9118, 20.53793
215.3939, 20.46429
215.8760, 20.32388
216.3581, 20.26831
216.8403, 19.83707
217.3224, 18.74678
217.8045, 16.76136
218.2866, 14.80324
218.7687, 12.86830
219.2508, 10.98512
219.7330, 9.283481
220.2151, 7.778164
220.6972, 6.430763
221.1793, 5.235733
221.6614, 4.162999
222.1435, 3.297899
222.6257, 2.655722
223.1078, 2.213924
223.5899, 1.908089
224.0720, 1.799461
224.5541, 1.727884
225.0362, 1.612407
225.5184, 1.422475
226.0005, 1.269706
226.4826, 1.163453
226.9647, 1.093311
227.4468, 1.019803
227.9289, 0.9183780
228.4111, 0.8536540
228.8932, 0.8699180
229.3753, 1.035465
229.8574, 1.105846
230.3395, 1.009595
230.8216, 0.7762040
231.3038, 0.4974400
231.7859, 0.1493110
232.2680, 0.1493980
232.7501, 0.3366160
233.2322, 0.3080340
233.7143, 0.3698230
234.1965, 0.5686910
234.6786, 0.8289970
235.1607, 0.9699390
235.6428, 0.9715120
236.1249, 0.8973550
236.6070, 0.7541480
237.0892, 0.4541860
237.5713, 0.2904040
238.0534, 0.3464030
238.5355, 0.5158530
239.0176, 0.5195300
239.4997, 0.2692800
239.9819, 1.8817000E-02
240.4640, 0.2513680
240.9461, 0.3965640
241.4282, 0.5677430
241.9103, 0.7678680
242.3924, 0.9909550
242.8746, 1.223402
243.3567, 1.479160
243.8388, 1.722085
244.3209, 1.925474
244.8030, 2.050894
245.2851, 2.241210
245.7673, 2.517909
246.2494, 2.852044
246.7315, 3.182042
247.2136, 3.504895
247.6957, 3.830994
248.1778, 4.164811
248.6600, 4.501749
249.1421, 4.846281
249.6242, 5.212076
250.1063, 5.580839
250.5884, 5.925420
251.0705, 6.279294
251.5527, 6.553208
252.0348, 6.709773
252.5169, 6.735287
252.9990, 6.683472
253.4811, 6.503138
253.9632, 6.277521
254.4454, 6.142715
254.9275, 6.069145
255.4096, 6.139996
255.8917, 6.416688
256.3738, 6.956164
256.8560, 7.430486
257.3381, 7.810339
257.8202, 8.151733
258.3023, 8.547132
258.7844, 9.002872
259.2665, 9.492509
259.7487, 10.03078
260.2308, 10.63566
260.7129, 11.13743
261.1950, 11.49588
261.6771, 11.79356
262.1592, 12.14285
262.6414, 12.56094
263.1235, 12.98356
263.6056, 13.41289
264.0877, 13.86158
264.5698, 14.16536
265.0519, 14.28740
265.5341, 14.31497
266.0162, 14.34517
266.4983, 14.38144
266.9804, 14.40824
267.4625, 14.41078
267.9446, 14.39033
268.4268, 14.42285
268.9089, 14.52164
269.3910, 14.64980
269.8731, 14.79745
270.3552, 14.99719
270.8373, 15.06511
271.3195, 14.88202
271.8016, 14.49510
272.2837, 14.40907
272.7658, 14.68030
273.2479, 15.12511
273.7300, 15.61427
274.2122, 16.16262
274.6943, 16.65740
275.1764, 17.08422
275.6585, 17.43746
276.1406, 17.67910
276.6227, 17.79866
277.1049, 17.84251
277.5870, 17.85527
278.0691, 17.84213
278.5512, 17.73347
279.0333, 17.49860
279.5154, 17.16835
279.9976, 16.87228
280.4797, 16.63011
280.9618, 16.32116
281.4439, 15.81646
281.9260, 15.11729
282.4081, 14.45261
282.8903, 13.85905
283.3724, 13.30576
283.8545, 12.72611
284.3366, 12.12013
284.8187, 11.48981
285.3008, 10.81638
285.7830, 10.10246
286.2651, 9.464299
286.7472, 8.919077
287.2293, 8.437198
287.7114, 7.965706
288.1935, 7.503265
288.6757, 7.047789
289.1578, 6.612137
289.6399, 6.181118
290.1220, 5.698209
290.6041, 5.143647
291.0862, 4.623435
291.5684, 4.311772
292.0505, 4.173702
292.5326, 3.982935
293.0147, 3.584572
293.4968, 3.064283
293.9789, 2.656641
294.4611, 2.384874
294.9432, 2.180212
295.4253, 1.930306
295.9074, 1.641335
296.3895, 1.397242
296.8716, 1.061216
297.3538, 1.221109
297.8359, 1.275700
298.3180, 1.220503
298.8001, 0.7017850
299.2822, 0.7863040
299.7643, 0.6314630
300.2465, 0.4688760
300.7286, 0.6443790
301.2107, 0.2038350
301.6928, 0.3835360
302.1749, 0.3258010
302.6570, 0.3847660
303.1392, 0.2037670
303.6213, 9.9048004E-02
304.1034, 0.2336320
304.5855, 0.2318850
305.0676, 2.2219000E-02
305.5497, 4.5061000E-02
306.0319, 0.1612150
306.5140, 0.3754990
306.9961, 0.5193870
307.4782, 0.6044030
307.9603, 0.6291350
308.4424, 0.5607180
308.9246, 0.5079450
309.4067, 0.5702190
309.8888, 0.7163300
310.3709, 0.8617870
310.8530, 0.9548230
311.3351, 1.034479
311.8173, 1.143399
312.2994, 1.314692
312.7815, 1.462381
313.2636, 1.501526
313.7457, 1.484868
314.2278, 1.506477
314.7100, 1.652641
315.1921, 1.831000
315.6742, 1.996110
316.1563, 2.129058
316.6384, 2.242590
317.1205, 2.281723
317.6027, 2.340104
318.0848, 2.532934
318.5669, 3.105086
319.0490, 3.632112
319.5311, 3.911227
320.0132, 3.923717
320.4954, 3.949360
320.9775, 4.081259
321.4596, 4.252353
321.9417, 4.404049
322.4238, 4.481975
322.9059, 4.583451
323.3881, 4.776614
323.8702, 5.044430
324.3523, 5.203296
324.8344, 5.103119
325.3165, 4.967674
325.7986, 4.928480
326.2808, 5.216642
326.7629, 5.341509
327.2450, 5.154111
327.7271, 4.749732
328.2092, 4.505012
328.6913, 4.583224
329.1735, 4.680278
329.6556, 4.670626
330.1377, 4.455410
330.6198, 4.323778
331.1019, 4.335142
331.5840, 4.413384
332.0662, 4.418526
332.5483, 4.286986
333.0304, 4.183610
333.5125, 4.174409
333.9946, 4.287065
334.4767, 4.341599
334.9589, 4.307520
335.4410, 4.244485
335.9231, 4.234532
336.4052, 4.307682
336.8873, 4.353158
337.3694, 4.329954
337.8516, 4.244493
338.3336, 4.205339
338.8158, 4.212754
339.2979, 4.266560
339.7800, 4.410732
340.2621, 4.673930
340.7442, 4.791293
341.2263, 4.680789
341.7085, 4.416677
342.1906, 4.262704
342.6727, 4.233930
343.1548, 4.193847
343.6369, 4.026697
344.1190, 3.748009
344.6012, 3.535857
345.0833, 3.411707
345.5654, 3.333117
346.0475, 3.277846
346.5296, 3.245044
347.0117, 3.157803
347.4939, 2.913688
347.9760, 2.577791
348.4581, 2.383874
348.9402, 2.363126
349.4223, 2.376585
349.9044, 2.255498
350.3866, 2.033469
350.8687, 1.824277
351.3508, 1.656049
351.8329, 1.534844
352.3150, 1.497680
352.7971, 1.541347
353.2793, 1.564903
353.7614, 1.489894
354.2435, 1.341875
354.7256, 1.153076
355.2077, 0.8843870
355.6898, 0.6440950
356.1720, 0.5638130
356.6541, 0.6057310
357.1362, 0.6182430
357.6183, 0.4862970
358.1004, 0.2975300
358.5826, 0.1262230
359.0647, 2.2949999E-02
359.5468, 0.1373620
360.0289, 0.2086150
360.5110, 0.2422180
360.9931, 0.2504700
361.4753, 0.1803570
361.9574, 0.1300970
362.4395, 0.1669650
362.9216, 0.3147090
363.4037, 0.4412570
363.8858, 0.5149370
364.3680, 0.5417030
364.8501, 0.5269490
365.3322, 0.4020500
365.8143, 0.3077330
366.2964, 0.3095830
366.7785, 0.4041350
367.2607, 0.4284020
367.7428, 0.3058630
368.2249, 0.1487830
368.7070, 2.3185000E-02
369.1891, 0.1151520
369.6712, 0.1581290
370.1534, 2.8558001E-02
370.6355, 0.2007670
371.1176, 0.2944500
371.5997, 0.1427690
372.0818, 1.9090000E-03
372.5639, 1.6563000E-02
373.0461, 0.1884210
373.5282, 0.2144370
374.0103, 1.7577000E-02
374.4924, 0.3540840
374.9745, 0.5567890
375.4566, 0.5942180
375.9388, 0.6004150
376.4209, 0.6070600
376.9030, 0.6145630
377.3851, 0.6170270
377.8672, 0.6051620
378.3493, 0.6178730
378.8315, 0.7318230
379.3136, 0.9519200
379.7957, 1.051581
380.2778, 0.9580870
380.7599, 0.7518740
381.2420, 0.6339920
381.7242, 0.6061260
382.2063, 0.5641160
382.6884, 0.3926500
383.1705, 0.1449870
383.6526, 2.0934001E-02
384.1347, 5.2618001E-02
384.6169, 0.1543430
385.0990, 0.2475740
385.5811, 0.3273590
386.0632, 0.3726540
386.5453, 0.3804630
387.0274, 0.3453860
387.5096, 0.2226960
387.9917, 1.4684000E-02
388.4738, 0.1467400
388.9559, 0.1383430
389.4380, 2.5125001E-02
389.9201, 0.1132480
390.4023, 0.2942630
390.8844, 0.4426310
391.3665, 0.4701700
391.8486, 0.4122700
392.3307, 0.3974520
392.8128, 0.6117850
393.2950, 0.8082990
393.7771, 0.7900580
394.2592, 0.4225300
394.7413, 0.1188720
395.2234, 7.4049003E-02
395.7055, 0.1646140
396.1877, 0.1997540
396.6698, 4.9555998E-02
397.1519, 7.8300998E-02
397.6340, 9.6427001E-02
398.1161, 1.7310999E-02
398.5982, 6.2729001E-02
399.0804, 4.5379002E-02
399.5625, 0.1825080
400.0446, 0.2573980
400.5267, 0.2071210
401.0088, 0.1892350
401.4909, 0.2550150
401.9731, 0.3665200
402.4552, 0.3540230
402.9373, 0.1295870
403.4194, 7.5567998E-02
403.9015, 0.1327580
404.3836, 1.5553000E-02
404.8658, 7.9631001E-02
405.3479, 4.0929001E-02
405.8300, 5.7326000E-02
406.3121, 0.1590700
406.7942, 0.2654910
407.2763, 0.3664690
407.7585, 0.4599700
408.2406, 0.5456640
408.7227, 0.6186540
409.2048, 0.6780070
409.6869, 0.7291140
410.1690, 0.7654830
410.6512, 0.7935060
411.1333, 0.8525290
411.6154, 0.7346900
412.0975, 1.041388
412.5796, 1.224920
413.0617, 1.291905
413.5439, 0.8926800
414.0260, 1.094743
414.5081, 1.056030
414.9902, 1.007601
415.4723, 1.294348
415.9544, 0.9619950
416.4366, 1.241955
416.9187, 1.270870
417.4008, 1.405194
417.8829, 1.292640
418.3650, 1.253045
418.8471, 1.455730
419.3293, 1.528655
419.8114, 1.393655
420.2935, 1.534258
420.7756, 1.169819
421.2577, 1.232917
421.7398, 1.479402
422.2220, 1.332007
422.7041, 1.455626
423.1862, 1.484572
423.6683, 1.052672
424.1504, 1.191553
424.6325, 1.102436
425.1147, 0.9422930
425.5968, 0.6965780
426.0789, 0.5941700
426.5610, 0.6855200
427.0431, 0.8682170
427.5252, 1.066953
428.0074, 1.314158
428.4895, 1.478307
428.9716, 1.537733
429.4537, 1.530016
429.9358, 1.500297
430.4179, 1.409858
430.9001, 1.387953
431.3822, 1.555061
431.8643, 1.929441
432.3464, 2.217596
432.8285, 2.395517
433.3106, 2.549946
433.7928, 2.797792
434.2749, 3.128523
434.7570, 3.456286
435.2391, 3.767538
435.7212, 4.049440
436.2033, 4.233960
436.6855, 4.334107
437.1676, 4.497373
437.6497, 4.905771
438.1318, 5.421912
438.6139, 5.817289
439.0960, 6.024858
439.5782, 6.223444
440.0603, 6.578983
440.5424, 7.030278
441.0245, 7.456743
441.5066, 7.796356
441.9887, 8.109586
442.4709, 8.459438
442.9530, 8.841745
443.4351, 9.124396
443.9172, 9.160472
444.3993, 9.132527
444.8814, 9.173009
445.3636, 9.368965
445.8457, 9.546949
446.3278, 9.659320
446.8099, 9.737432
447.2920, 9.848618
447.7741, 9.988469
448.2563, 10.16128
448.7384, 10.37800
449.2205, 10.65154
449.7026, 10.88332
450.1847, 11.05958
450.6668, 11.20884
451.1490, 11.35062
451.6311, 11.47881
452.1132, 11.63138
452.5953, 11.83350
453.0774, 12.05026
453.5595, 12.16055
454.0417, 12.14569
454.5238, 12.20417
455.0059, 12.53541
455.4880, 13.06003
455.9701, 13.33959
456.4522, 13.33130
456.9344, 13.24015
457.4165, 13.29718
457.8986, 13.44974
458.3807, 13.55203
458.8628, 13.56273
459.3449, 13.48826
459.8271, 13.26122
460.3092, 12.93524
460.7913, 12.72037
461.2734, 12.84248
461.7555, 13.04804
462.2376, 13.11878
462.7198, 13.00061
463.2019, 12.85474
463.6840, 12.71309
464.1661, 12.59835
464.6482, 12.53893
465.1303, 12.55008
465.6125, 12.60858
466.0946, 12.71530
466.5767, 12.86819
467.0588, 13.04510
467.5409, 13.26745
468.0230, 13.49313
468.5052, 13.69044
468.9873, 13.79160
469.4694, 14.05022
469.9515, 14.57204
470.4336, 15.15878
470.9157, 15.49573
471.3979, 15.47414
471.8800, 15.57805
472.3621, 15.97206
472.8442, 16.58397
473.3263, 17.04153
473.8084, 17.31317
474.2906, 17.67501
474.7727, 18.40761
475.2548, 19.42654
475.7369, 20.32767
476.2190, 21.06884
476.7011, 21.70292
477.1833, 22.21337
477.6654, 22.66744
478.1475, 23.25231
478.6296, 24.22583
479.1117, 25.24260
479.5938, 25.85808
480.0760, 26.14271
480.5581, 26.54573
481.0402, 27.47702
481.5223, 28.54782
482.0044, 29.44470
482.4865, 30.06057
482.9687, 30.61690
483.4508, 31.06621
483.9329, 31.53243
484.4150, 32.18589
484.8971, 33.19641
485.3792, 34.25601
485.8614, 35.29266
486.3435, 36.30909
486.8256, 37.42580
487.3077, 38.67512
487.7898, 39.96967
488.2719, 41.25295
488.7541, 42.44181
489.2362, 43.83321
489.7183, 45.51306
490.2004, 47.28770
490.6825, 48.87743
491.1646, 50.27454
491.6468, 51.70722
492.1289, 53.30308
492.6110, 54.93910
493.0931, 56.37664
493.5752, 57.61723
494.0573, 58.69451
494.5395, 59.73674
495.0216, 60.63009
495.5037, 61.13322
495.9858, 61.18308
496.4679, 60.99289
496.9500, 60.83466
497.4322, 60.55648
497.9143, 59.90304
498.3964, 58.67696
498.8785, 57.12758
499.3606, 55.34152
499.8427, 53.32131
500.3249, 51.20861
500.8070, 49.00993
501.2891, 46.74152
501.7712, 44.41624
502.2533, 42.00409
502.7354, 39.64020
503.2176, 37.37381
503.6997, 35.15344
504.1818, 32.91434
504.6639, 30.55453
505.1460, 28.37045
505.6281, 26.43829
506.1103, 24.69689
506.5924, 22.98845
507.0745, 21.28247
507.5566, 19.72933
508.0387, 18.44295
508.5208, 17.40141
509.0030, 16.32495
509.4851, 15.20000
509.9672, 14.14634
510.4493, 13.29034
510.9314, 12.58992
511.4135, 11.93314
511.8957, 11.30278
512.3778, 10.72298
512.8599, 10.21498
513.3420, 9.762299
513.8242, 9.344168
514.3063, 9.001834
514.7884, 8.648912
515.2705, 8.178370
515.7526, 7.575617
516.2347, 7.034731
516.7169, 6.659786
517.1990, 6.365427
517.6811, 6.087997
518.1632, 5.837590
518.6453, 5.577879
519.1274, 5.303284
519.6096, 5.018930
520.0917, 4.729419
520.5738, 4.413566
521.0559, 4.116878
521.5380, 3.855061
522.0201, 3.629605
522.5023, 3.415346
522.9844, 3.207518
523.4665, 3.009663
523.9486, 2.827169
524.4307, 2.659681
524.9128, 2.496532
525.3950, 2.337753
525.8771, 2.183339
526.3592, 2.029304
526.8413, 1.880843
527.3234, 1.749079
527.8055, 1.638170
528.2877, 1.547750
528.7698, 1.511377
529.2519, 1.508124
529.7340, 1.441887
530.2161, 1.143757
530.6982, 0.8361670
531.1804, 0.7037820
531.6625, 0.8027520
532.1446, 0.8909360
532.6267, 0.8837130
533.1088, 0.8323130
533.5909, 0.7836970
534.0731, 0.7566040
534.5552, 0.7155890
535.0373, 0.6493860
535.5194, 0.5699450
536.0015, 0.5037950
536.4836, 0.4615110
536.9658, 0.4149910
537.4479, 0.3507010
537.9300, 0.2701220
538.4121, 0.2020920
538.8942, 0.1515720
539.3763, 0.1096050
539.8585, 4.2955998E-02
540.3406, 3.4692999E-02
540.8227, 3.2386001E-02
541.3048, 8.5064001E-02
541.7869, 0.1994400
542.2690, 0.1290120
542.7512, 6.2004998E-02
543.2333, 0.2126600
543.7154, 0.2385070
544.1975, 0.2116230
544.6796, 0.1756620
545.1617, 0.1330850
545.6439, 9.5475003E-02
546.1260, 5.6857001E-02
546.6081, 3.2235999E-02
547.0902, 2.7536999E-02
547.5723, 3.8077999E-02
548.0544, 8.9527003E-02
548.5366, 0.2588170
549.0187, 0.4282490
549.5008, 0.4969410
549.9829, 0.4276000
550.4650, 0.3164810
550.9471, 0.1348170
551.4293, 6.4810999E-02
551.9114, 0.1516390
552.3935, 0.1063950
552.8756, 4.1657001E-02
553.3577, 5.5100000E-04
553.8398, 2.5302000E-02
554.3220, 8.5137002E-02
554.8041, 0.1809790
555.2862, 0.2617130
555.7683, 0.2872400
556.2504, 0.2688500
556.7325, 0.2297610
557.2147, 0.1711510
557.6968, 0.1019970
558.1789, 9.6100001E-03
558.6610, 8.3857998E-02
559.1431, 0.1450390
559.6252, 0.1134090
560.1074, 9.7152002E-02
560.5895, 0.1844910
561.0716, 0.3294620
561.5537, 0.3779160
562.0358, 0.1931880
562.5179, 8.6850002E-03
563.0001, 8.8005997E-02
563.4822, 8.6837001E-02
563.9643, 0.1047900
564.4464, 0.1745670
564.9285, 0.2165530
565.4106, 0.1399820
565.8928, 9.2609003E-02
566.3749, 0.1831140
566.8570, 7.7745996E-02
567.3391, 9.0466000E-02
567.8212, 9.6143998E-02
568.3033, 3.5241999E-02
568.7855, 0.1108090
569.2676, 1.3859000E-02
569.7497, 0.1217100
570.2318, 4.9385000E-02
570.7139, 0.1787610
571.1960, 0.3393010
571.6782, 0.2146740
572.1603, 2.4692001E-02
572.6424, 4.5779001E-02
573.1245, 2.4919000E-02
573.6066, 0.1060650
574.0887, 0.1734340
574.5709, 0.2160450
575.0530, 0.2258380
575.5351, 0.1811580
576.0172, 0.1308850
576.4993, 4.9665000E-02
576.9814, 2.4029000E-02
577.4636, 1.3314000E-02
577.9457, 0.1307500
578.4278, 0.2240060
578.9099, 0.1994970
579.3920, 9.8591000E-02
579.8741, 8.9732997E-02
580.3563, 0.1802010
580.8384, 0.2660080
581.3205, 0.2722160
581.8026, 0.2264460
582.2847, 0.2105310
582.7668, 0.2272250
583.2490, 0.2474030
583.7311, 0.2440400
584.2132, 0.2305960
584.6953, 0.2267120
585.1774, 0.2454190
585.6595, 0.2541210
586.1416, 0.2079910
586.6237, 0.1480800
587.1058, 0.1355300
587.5880, 0.2534460
588.0701, 0.3448490
588.5522, 0.3619960
589.0343, 0.3201570
589.5164, 0.2836000
589.9985, 0.2365530
590.4807, 0.2222330
590.9628, 0.2706600
591.4449, 0.3837380
591.9270, 0.4639430
592.4091, 0.5125930
592.8912, 0.5227460
593.3734, 0.4606450
593.8555, 0.3467860
594.3376, 0.2905050
594.8197, 0.3203840
595.3018, 0.3541350
595.7839, 0.2600170
596.2661, 0.1089800
596.7482, 3.8619000E-02
597.2303, 0.1732770
597.7124, 0.3304910
598.1945, 0.4032670
598.6766, 0.4135220
599.1588, 0.4223030
599.6409, 0.4426750
600.1230, 0.4679910
600.6051, 0.4962750
601.0872, 0.5229170
601.5693, 0.5488020
602.0515, 0.5979400
602.5336, 0.6198590
603.0157, 0.5648480
603.4978, 0.4074300
603.9799, 0.3388130
604.4620, 0.3843250
604.9442, 0.4573920
605.4263, 0.4224820
605.9084, 0.3036140
606.3905, 0.2549230
606.8726, 0.3390160
607.3547, 0.4593850
607.8369, 0.5124340
608.3190, 0.5126530
608.8011, 0.4959620
609.2832, 0.4514490
609.7653, 0.4031660
610.2474, 0.3746750
610.7296, 0.3624610
611.2117, 0.3377930
611.6938, 0.2386520
612.1759, 0.1674620
612.6580, 0.1902670
613.1401, 0.3458550
613.6223, 0.4277500
614.1044, 0.4062020
614.5865, 0.3577900
615.0686, 0.3577530
615.5507, 0.4175330
616.0328, 0.4249470
616.5150, 0.3511060
616.9971, 0.2534800
617.4792, 0.2290250
617.9613, 0.2630450
618.4434, 0.2847550
618.9255, 0.2515410
619.4077, 0.2178630
619.8898, 0.2652220
620.3719, 0.3643600
620.8540, 0.4321640
621.3361, 0.4480710
621.8182, 0.4141910
622.3004, 0.2823260
622.7825, 5.7207000E-02
623.2646, 5.0872002E-02
623.7467, 0.1229810
624.2288, 0.3241540
624.7109, 0.4251800
625.1931, 0.3823290
625.6752, 0.3652220
626.1573, 0.3925770
626.6394, 0.4319680
627.1215, 0.4463740
627.6036, 0.4313850
628.0858, 0.4229660
628.5679, 0.4331730
629.0500, 0.4402960
629.5321, 0.4069540
630.0142, 0.3445930
630.4963, 0.3125900
630.9785, 0.3720460
631.4606, 0.4499150
631.9427, 0.4858230
632.4248, 0.4858310
632.9069, 0.4721820
633.3890, 0.4591610
633.8712, 0.4277340
634.3533, 0.3462770
634.8354, 0.2062610
635.3175, 0.1404130
635.7996, 0.1894050
636.2817, 0.2795590
636.7639, 0.3853540
637.2460, 0.5194630
637.7281, 0.5776770
638.2102, 0.5470510
638.6923, 0.4908440
639.1744, 0.4753580
639.6566, 0.4944690
640.1387, 0.5230680
640.6208, 0.5636190
641.1029, 0.5913000
641.5850, 0.5541060
642.0671, 0.4837760
642.5493, 0.4439020
643.0314, 0.4915220
643.5135, 0.5473620
643.9956, 0.5520480
644.4777, 0.5281000
644.9598, 0.5496750
645.4420, 0.6458530
645.9241, 0.7862370
646.4062, 1.001087
646.8883, 1.280010
647.3704, 1.395286
647.8525, 1.285307
648.3347, 1.144264
648.8168, 1.095271
649.2989, 1.134654
649.7810, 1.127008
650.2631, 1.065259
650.7452, 1.006594
651.2274, 1.004481
651.7095, 1.045225
652.1916, 1.116457
652.6737, 1.231081
653.1558, 1.316806
653.6379, 1.264565
654.1201, 1.164336
654.6022, 1.140310
655.0843, 1.331068
655.5664, 1.499413
656.0485, 1.583299
656.5306, 1.603647
657.0128, 1.615084
657.4949, 1.622584
657.9770, 1.607795
658.4591, 1.543076
658.9412, 1.457559
659.4233, 1.499129
659.9055, 1.680327
660.3876, 1.834187
660.8697, 1.848302
661.3518, 1.772497
661.8339, 1.729544
662.3160, 1.725632
662.7982, 1.728720
663.2803, 1.691432
663.7624, 1.650972
664.2445, 1.661105
664.7266, 1.745466
665.2087, 1.799327
665.6909, 1.740768
666.1730, 1.662785
666.6551, 1.647725
667.1372, 1.784713
667.6193, 1.827252
668.1014, 1.734623
668.5836, 1.588158
669.0657, 1.502934
669.5478, 1.485148
670.0299, 1.449548
670.5120, 1.377270
670.9941, 1.288213
671.4763, 1.197678
671.9584, 1.112907
672.4405, 1.062227
672.9226, 1.088136
673.4047, 1.129081
673.8868, 1.139866
674.3690, 1.121308
674.8511, 1.078053
675.3332, 0.9480750
675.8153, 0.8544690
676.2974, 0.8700300
676.7795, 1.001223
677.2617, 1.086587
677.7438, 1.118123
678.2259, 1.118861
678.7080, 1.090783
679.1901, 1.030199
679.6722, 1.001479
680.1544, 1.008844
680.6365, 1.016889
681.1186, 0.9896550
681.6007, 0.9466260
682.0828, 0.9061020
682.5649, 0.8691690
683.0471, 0.8417940
683.5292, 0.8353100
684.0113, 0.8397390
684.4934, 0.8466760
684.9755, 0.8972930
685.4576, 0.8837530
685.9398, 0.6930260
686.4219, 0.4475660
686.9040, 0.3509040
687.3861, 0.4898110
687.8682, 0.6072120
688.3503, 0.6697210
688.8325, 0.6811590
689.3146, 0.6323970
689.7967, 0.5226910
690.2788, 0.4261630
690.7609, 0.3764940
691.2430, 0.3568170
691.7252, 0.3397200
692.2073, 0.3253610
692.6894, 0.3146090
693.1715, 0.3242360
693.6536, 0.3253640
694.1357, 0.2837690
694.6179, 0.2007960
695.1000, 0.1462400
695.5821, 0.1754620
696.0642, 0.2021030
696.5463, 0.1764270
697.0284, 8.2217000E-02
697.5106, 4.6805002E-02
697.9927, 8.2585998E-02
698.4748, 0.1484560
698.9569, 0.2188150
699.4390, 0.2922420
699.9211, 0.3643330
700.4033, 0.4399770
700.8854, 0.4733600
701.3675, 0.3632200
701.8496, 0.1965710
702.3317, 0.1116800
702.8138, 0.1540900
703.2960, 0.2485510
703.7781, 0.4237620
704.2602, 0.6043970
704.7423, 0.6982040
705.2244, 0.5803690
705.7065, 0.5191350
706.1887, 0.5692570
706.6708, 0.6645570
707.1529, 0.6830240
707.6350, 0.6151670
708.1171, 0.5220610
708.5992, 0.4057270
709.0814, 0.2899090
709.5635, 0.2368050
710.0456, 0.2324320
710.5277, 0.2114020
711.0098, 0.1028590
711.4919, 6.0979999E-03
711.9741, 3.9476000E-02
712.4562, 6.9479998E-03
712.9383, 4.9573001E-02
713.4204, 0.1728990
713.9025, 0.2625590
714.3846, 0.2629260
714.8668, 0.1791820
715.3489, 9.4825998E-02
715.8310, 5.4469998E-03
716.3131, 7.6949999E-02
716.7952, 9.0593003E-02
717.2773, 5.0255999E-02
717.7595, 4.7539999E-03
718.2416, 7.7382997E-02
718.7237, 0.1064840
719.2058, 1.3780000E-02
719.6879, 0.1887000
720.1700, 0.2589100
720.6522, 0.2052400
721.1343, 0.1218590
721.6164, 5.1677000E-02
722.0985, 2.2985000E-02
722.5806, 0.1170230
723.0627, 0.2493720
723.5449, 0.3403570
724.0270, 0.3831670
724.5091, 0.3925120
724.9912, 0.3690390
725.4733, 0.2980970
725.9554, 0.2889320
726.4376, 0.3644380
726.9197, 0.4623400
727.4018, 0.4944540
727.8839, 0.4779010
728.3660, 0.4592780
728.8481, 0.4341280
729.3303, 0.4523280
729.8124, 0.5878040
730.2945, 0.7792250
730.7766, 0.9411150
731.2587, 1.044929
731.7408, 1.121585
732.2230, 1.134410
732.7051, 1.142660
733.1872, 1.253653
733.6693, 1.503771
734.1514, 1.714394
734.6335, 1.850240
735.1157, 1.929895
735.5978, 1.987333
736.0799, 2.022275
736.5620, 2.069165
737.0441, 2.157535
737.5262, 2.258740
738.0084, 2.332212
738.4905, 2.389276
738.9726, 2.468406
739.4547, 2.602518
739.9368, 2.746530
740.4189, 2.881895
740.9011, 3.009124
741.3832, 3.143738
741.8653, 3.315061
742.3474, 3.442416
742.8295, 3.469214
743.3116, 3.410676
743.7938, 3.416638
744.2759, 3.488558
744.7580, 3.575559
745.2401, 3.681137
745.7222, 3.761605
746.2043, 3.717144
746.6865, 3.552016
747.1686, 3.422281
747.6507, 3.460299
748.1328, 3.527313
748.6149, 3.531052
749.0970, 3.449625
749.5792, 3.362221
750.0613, 3.268219
750.5434, 3.173554
751.0255, 3.083226
751.5076, 2.999512
751.9897, 2.893493
752.4719, 2.757449
752.9540, 2.637525
753.4361, 2.593619
753.9182, 2.591002
754.4003, 2.563999
754.8824, 2.505320
755.3646, 2.409512
755.8467, 2.211380
756.3288, 2.008607
756.8109, 1.905545
757.2930, 1.995691
757.7751, 2.021088
758.2573, 1.946410
758.7394, 1.822949
759.2215, 1.688914
759.7036, 1.536745
760.1857, 1.422405
760.6678, 1.356177
761.1500, 1.314225
761.6321, 1.270956
762.1142, 1.229402
762.5963, 1.201635
763.0784, 1.202241
763.5605, 1.183999
764.0427, 1.061993
764.5248, 0.9214400
765.0069, 0.8691060
765.4890, 1.073632
765.9711, 1.172863
766.4532, 1.102468
766.9354, 0.9449340
767.4175, 0.8119000
767.8996, 0.7037010
768.3817, 0.6183200
768.8638, 0.5587120
769.3459, 0.5126230
769.8281, 0.4638810
770.3102, 0.4143080
770.7923, 0.3641190
771.2744, 0.3018110
771.7565, 0.2572840
772.2386, 0.2637710
772.7208, 0.2989510
773.2029, 0.3239680
773.6850, 0.3142470
774.1671, 0.3129280
774.6492, 0.3398860
775.1313, 0.3753310
775.6135, 0.3653370
776.0956, 0.3001240
776.5777, 0.2580990
777.0598, 0.2751240
777.5419, 0.2970240
778.0240, 0.2237040
778.5062, 8.8786997E-02
778.9883, 2.4983000E-02
779.4704, 0.1085940
779.9525, 0.1348050
780.4346, 4.0104002E-02
780.9167, 0.1240060
781.3989, 0.2317590
781.8810, 0.2207740
782.3631, 0.1934920
782.8452, 0.1535550
783.3273, 0.1140890
783.8094, 0.1281930
784.2916, 0.2046820
784.7737, 0.2435610
785.2558, 0.1971320
785.7379, 0.1065120
786.2200, 2.8650999E-02
786.7021, 3.1119000E-02
787.1843, 5.1438000E-02
787.6664, 2.7479000E-02
788.1485, 9.9552996E-02
788.6306, 0.1041210
789.1127, 5.2542001E-02
789.5948, 1.3258000E-02
790.0770, 0.1455480
790.5591, 0.2030010
791.0412, 0.1163060
791.5233, 5.7496000E-02
792.0054, 9.6339002E-02
792.4875, 3.1979999E-03
792.9697, 8.9895003E-02
793.4518, 9.3330003E-02
793.9339, 4.8457999E-02
794.4160, 3.4010001E-03
794.8981, 4.3917000E-02
795.3802, 0.1003980
795.8624, 0.1864830
796.3445, 0.2654580
796.8266, 0.3285200
797.3087, 0.3704680
797.7908, 0.3745800
798.2729, 0.3354120
798.7551, 0.2634560
799.2372, 0.1330080
799.7193, 1.6794000E-02
800.2014, 2.1330001E-02
800.6835, 0.1090540
801.1656, 0.2310230
801.6478, 0.2433050
802.1299, 0.2297880
802.6120, 0.3256990
803.0941, 0.4849410
803.5762, 0.5612370
804.0583, 0.3894870
804.5405, 0.2317400
805.0226, 0.2062920
805.5047, 0.2794740
805.9868, 0.3195200
806.4689, 0.3111880
806.9510, 0.3188220
807.4332, 0.3804170
807.9153, 0.4617240
808.3974, 0.4385820
808.8795, 0.3322100
809.3616, 0.2634580
809.8438, 0.3694830
810.3259, 0.4773380
810.8080, 0.3888810
811.2901, 0.1778940
811.7722, 8.5198000E-02
812.2543, 0.3040170
812.7365, 0.5000410
813.2186, 0.5912290
813.7007, 0.5988670
814.1828, 0.5961150
814.6649, 0.5836280
815.1470, 0.5521860
815.6292, 0.4822000
816.1113, 0.4090520
816.5934, 0.4150860
817.0755, 0.4781970
817.5576, 0.5248920
818.0397, 0.5104880
818.5219, 0.4796130
819.0040, 0.4406340
819.4861, 0.4019800
819.9682, 0.3907310
820.4503, 0.4095830
820.9324, 0.4571540
821.4146, 0.5575550
821.8967, 0.6673500
822.3788, 0.6449760
822.8609, 0.5008530
823.3430, 0.3946550
823.8251, 0.4040370
824.3073, 0.4541030
824.7894, 0.4322660
825.2715, 0.3839400
825.7536, 0.4068600
826.2357, 0.6429030
826.7178, 0.8343620
827.2000, 0.8944460
827.6821, 0.8635710
828.1642, 0.7925810
828.6463, 0.6481400
829.1284, 0.5906910
829.6105, 0.6792000
830.0927, 0.8235800
830.5748, 0.8493590
831.0569, 0.7896530
831.5390, 0.7618520
832.0211, 0.8296570
832.5032, 0.9016900
832.9854, 0.8946210
833.4675, 0.8549180
833.9496, 0.8531910
834.4317, 0.9188780
834.9138, 1.009059
835.3959, 1.151797
835.8781, 1.287931
836.3602, 1.304919
836.8423, 1.201758
837.3244, 1.147277
837.8065, 1.188068
838.2886, 1.260839
838.7708, 1.268154
839.2529, 1.246812
839.7350, 1.265593
840.2171, 1.369919
840.6992, 1.462853
841.1813, 1.537653
841.6635, 1.574849
842.1456, 1.536285
842.6277, 1.347947
843.1098, 1.315758
843.5919, 1.497164
844.0740, 1.728100
844.5562, 1.800831
845.0383, 1.759926
845.5204, 1.734541
846.0025, 1.738670
846.4846, 1.746377
846.9667, 1.741023
847.4489, 1.731799
847.9310, 1.722888
848.4131, 1.698927
848.8952, 1.730372
849.3773, 1.854561
849.8594, 1.999638
850.3416, 2.103961
850.8237, 2.140989
851.3058, 2.153663
851.7879, 2.154620
852.2700, 2.158848
852.7521, 2.166437
853.2343, 2.191260
853.7164, 2.253411
854.1985, 2.357536
854.6806, 2.478504
855.1627, 2.633834
855.6448, 2.757813
856.1270, 2.813770
856.6091, 2.802693
857.0912, 2.814697
857.5733, 2.850658
858.0554, 2.893877
858.5375, 2.936464
859.0197, 2.977871
859.5018, 3.010660
859.9839, 3.043235
860.4660, 3.110384
860.9481, 3.292224
861.4302, 3.456244
861.9124, 3.508959
862.3945, 3.459501
862.8766, 3.457225
863.3587, 3.500022
863.8408, 3.600602
864.3229, 3.789434
864.8051, 4.021430
865.2872, 4.173328
865.7693, 4.245549
866.2514, 4.231277
866.7335, 4.068225
867.2156, 3.876071
867.6978, 3.691185
868.1799, 3.552666
868.6620, 3.548442
869.1441, 3.916887
869.6262, 4.130537
870.1083, 4.066135
870.5905, 3.852509
871.0726, 3.754165
871.5547, 3.766097
872.0368, 3.735729
872.5189, 3.609161
873.0010, 3.472282
873.4832, 3.456355
873.9653, 3.487688
874.4474, 3.442631
874.9295, 3.231670
875.4116, 3.037170
875.8937, 2.930610
876.3759, 2.838969
876.8580, 2.694277
877.3401, 2.487641
877.8222, 2.263858
878.3043, 2.012110
878.7864, 1.802139
879.2686, 1.742791
879.7507, 1.764208
880.2328, 1.718231
880.7149, 1.570601
881.1970, 1.493676
881.6791, 1.681082
882.1613, 1.885594
882.6434, 1.928045
883.1255, 1.788287
883.6076, 1.625085
884.0897, 1.419735
884.5718, 1.251503
885.0540, 1.204813
885.5361, 1.234228
886.0182, 1.190317
886.5003, 1.080190
886.9824, 0.9726590
887.4645, 0.9033840
887.9467, 0.8550310
888.4288, 0.8299650
888.9109, 0.8227740
889.3930, 0.7831650
889.8751, 0.6929370
890.3572, 0.6084670
890.8394, 0.5518010
891.3215, 0.5105460
891.8036, 0.4406590
892.2857, 0.3510760
892.7678, 0.2879880
893.2499, 0.2933270
893.7321, 0.3074860
894.2142, 0.2887070
894.6963, 0.2465710
895.1784, 0.1993800
895.6605, 0.1288590
896.1426, 8.6875997E-02
896.6248, 8.6704001E-02
897.1069, 0.1061490
897.5890, 0.1217140
898.0711, 0.1307800
898.5532, 9.7232997E-02
899.0353, 4.7260001E-03
899.5175, 8.4173001E-02
899.9996, 0.1059900
900.4817, 9.3465999E-02
900.9638, 8.5528001E-02
901.4459, 9.4717003E-02
901.9280, 9.3194999E-02
902.4102, 8.9578003E-02
902.8923, 6.1686002E-02
903.3744, 3.3769000E-02
903.8565, 0.2010130
904.3386, 0.2215480
904.8207, 9.0262003E-02
905.3029, 5.5798002E-02
905.7850, 9.1697998E-02
906.2671, 9.5174000E-02
906.7492, 0.1949880
907.2313, 0.3797000
907.7134, 0.4296280
908.1956, 0.1030590
908.6777, 0.1727400
909.1598, 0.2492900
909.6419, 0.1624700
910.1240, 8.0534004E-02
910.6061, 3.9630001E-03
911.0883, 8.1266001E-02
911.5704, 0.2110000
912.0525, 0.3154150
912.5346, 0.2828400
913.0167, 0.1588510
913.4988, 4.2289998E-02
913.9810, 4.7362000E-02
914.4631, 0.1065080
914.9452, 0.1289740
915.4273, 0.1258930
915.9094, 0.1072230
916.3915, 7.1277000E-02
916.8737, 3.0801000E-02
917.3558, 2.4675000E-02
917.8379, 2.8050000E-02
918.3200, 0.1877550
918.8021, 0.4684100
919.2842, 0.5549730
919.7664, 0.3399390
920.2485, 0.2051160
920.7306, 0.3445900
921.2127, 0.5363820
921.6948, 0.6463990
922.1769, 0.6684640
922.6591, 0.7139890
923.1412, 0.7852430
923.6233, 0.8590790
924.1054, 0.9195360
924.5875, 0.9733220
925.0696, 1.039123
925.5518, 1.111313
926.0339, 1.158487
926.5160, 1.168225
926.9981, 1.145404
927.4802, 1.043688
927.9623, 0.9229750
928.4445, 0.9988420
928.9266, 1.290541
929.4087, 1.547360
929.8908, 1.694227
930.3729, 1.779195
930.8550, 1.828412
931.3372, 1.873328
931.8193, 1.972360
932.3014, 2.195168
932.7835, 2.387848
933.2656, 2.504663
933.7477, 2.585715
934.2299, 2.664042
934.7120, 2.739182
935.1941, 2.803439
935.6762, 2.851250
936.1583, 2.930712
936.6404, 3.139619
937.1226, 3.378183
937.6047, 3.493959
938.0868, 3.473638
938.5689, 3.473866
939.0510, 3.572524
939.5331, 3.669851
940.0153, 3.707372
940.4974, 3.706238
940.9795, 3.854316
941.4616, 4.156276
941.9437, 4.372724
942.4258, 4.355773
942.9080, 4.238544
943.3901, 4.143107
943.8722, 4.072927
944.3543, 4.035351
944.8364, 4.030121
945.3185, 4.067703
945.8007, 4.187644
946.2828, 4.312406
946.7649, 4.321436
947.2470, 4.218632
947.7291, 4.155427
948.2112, 4.153900
948.6934, 4.176501
949.1755, 4.201271
949.6576, 4.222844
950.1397, 4.245748
950.6218, 4.279805
951.1039, 4.244777
951.5861, 4.047716
952.0682, 3.904473
952.5503, 3.956356
953.0324, 4.161168
953.5145, 4.201187
953.9966, 4.090739
954.4788, 4.009265
954.9609, 4.139771
955.4430, 4.267203
955.9251, 4.174541
956.4072, 3.943100
956.8893, 3.793267
957.3715, 3.798560
957.8536, 3.819406
958.3357, 3.843703
958.8178, 3.872109
959.2999, 3.941801
959.7820, 4.024111
960.2642, 3.966440
960.7463, 3.720676
961.2284, 3.459109
961.7105, 3.273954
962.1926, 3.139169
962.6747, 3.034146
963.1569, 2.951090
963.6390, 2.902384
964.1211, 2.909982
964.6032, 2.893076
965.0853, 2.803585
965.5674, 2.657056
966.0496, 2.464511
966.5317, 2.236645
967.0138, 2.056210
967.4959, 2.008922
967.9780, 1.984256
968.4601, 1.947411
968.9423, 1.887376
969.4244, 1.779634
969.9065, 1.609197
970.3886, 1.468897
970.8707, 1.381309
971.3528, 1.320945
971.8350, 1.228817
972.3171, 1.138785
972.7992, 1.136456
973.2813, 1.266399
973.7634, 1.347441
974.2455, 1.299640
974.7277, 1.188591
975.2098, 1.029309
975.6919, 0.8224770
976.1740, 0.7321100
976.6561, 0.7595320
977.1382, 0.8114850
977.6204, 0.8426510
978.1025, 0.8581040
978.5846, 0.8371110
979.0667, 0.8039940
979.5488, 0.8302570
980.0309, 1.042414
980.5131, 1.174157
980.9952, 1.169097
981.4773, 1.080911
981.9594, 0.9834840
982.4415, 0.8794950
982.9236, 0.7791000
983.4058, 0.6794010
983.8879, 0.6243960
984.3700, 0.7061810
984.8521, 0.8149980
985.3342, 0.8246540
985.8163, 0.6774380
986.2985, 0.6837670
986.7806, 0.9253870
987.2627, 1.143236
987.7448, 1.172617
988.2269, 1.084338
988.7090, 1.081156
989.1912, 1.148028
989.6733, 1.221832
990.1554, 1.313938
990.6375, 1.359509
991.1196, 1.258444
991.6017, 1.113838
992.0839, 1.117501
992.5660, 1.320257
993.0481, 1.439105
993.5302, 1.431293
994.0123, 1.379737
994.4944, 1.340819
994.9766, 1.336124
995.4587, 1.428855
995.9408, 1.634612
996.4229, 1.774245
996.9050, 1.712089
997.3871, 1.649466
997.8693, 1.664940
998.3514, 1.751317
998.8335, 1.897348
999.3156, 2.095435
999.7977, 2.213088
1000.280, 2.129833
1000.762, 2.023802
1001.244, 2.065026
1001.726, 2.196402
1002.208, 2.322083
1002.690, 2.418792
1003.173, 2.526185
1003.655, 2.666704
1004.137, 2.773838
1004.619, 2.751533
1005.101, 2.637909
1005.583, 2.552474
1006.065, 2.503531
1006.547, 2.512084
1007.029, 2.640790
1007.512, 2.783085
1007.994, 2.874722
1008.476, 2.926268
1008.958, 2.992473
1009.440, 3.084180
1009.922, 3.114363
1010.404, 3.034771
1010.886, 2.930186
1011.369, 2.928017
1011.851, 2.981004
1012.333, 3.007848
1012.815, 2.976070
1013.297, 2.946696
1013.779, 2.932877
1014.261, 2.922250
1014.743, 2.898499
1015.225, 2.864220
1015.708, 2.886600
1016.190, 2.961716
1016.672, 3.024190
1017.154, 3.039679
1017.636, 3.018393
1018.118, 2.936282
1018.600, 2.822374
1019.082, 2.772792
1019.565, 2.830064
1020.047, 2.846519
1020.529, 2.791186
1021.011, 2.705618
1021.493, 2.659554
1021.975, 2.622492
1022.457, 2.506590
1022.939, 2.281204
1023.421, 2.123446
1023.904, 2.187314
1024.386, 2.264500
1024.868, 2.246024
1025.350, 2.142115
1025.832, 2.039528
1026.314, 1.938509
1026.796, 1.853776
1027.278, 1.802260
1027.760, 1.756703
1028.243, 1.694051
1028.725, 1.617135
1029.207, 1.529953
1029.689, 1.394907
1030.171, 1.326756
1030.653, 1.363667
1031.135, 1.388988
1031.617, 1.243722
1032.100, 1.001712
1032.582, 0.8818050
1033.064, 0.8870840
1033.546, 0.9094280
1034.028, 0.9124060
1034.510, 0.8949790
1034.992, 0.8366690
1035.474, 0.7610740
1035.957, 0.7553800
1036.439, 0.8267890
1036.921, 0.8312040
1037.403, 0.7216520
1037.885, 0.5797000
1038.367, 0.4667330
1038.849, 0.3916180
1039.331, 0.3830910
1039.813, 0.4754470
1040.296, 0.5009110
1040.778, 0.4291920
1041.260, 0.3341010
1041.742, 0.2488780
1042.224, 0.1741950
1042.706, 0.1274550
1043.188, 9.9192001E-02
1043.670, 4.9070001E-02
1044.152, 0.1438390
1044.635, 0.2435920
1045.117, 4.8073001E-02
1045.599, 0.2403990
1046.081, 0.3647490
1046.563, 0.3084800
1047.045, 0.2022250
1047.527, 4.8051000E-02
1048.009, 6.6532999E-02
1048.492, 1.5071000E-02
1048.974, 8.8885002E-02
1049.456, 0.1319510
1049.938, 0.1111060
1050.420, 7.1815997E-02
1050.902, 1.0140000E-03
1051.384, 5.8667000E-02
1051.866, 9.6167997E-02
1052.349, 0.1056890
1052.831, 7.2093002E-02
1053.313, 1.0907000E-02
1053.795, 4.3882001E-02
1054.277, 8.4335998E-02
1054.759, 0.1219850
1055.241, 0.1691350
1055.723, 0.2102270
1056.205, 0.2302380
1056.688, 0.2248860
1057.170, 0.2399120
1057.652, 0.2774090
1058.134, 0.3044800
1058.616, 0.2569360
1059.098, 0.2113660
1059.580, 0.2694920
1060.062, 0.3888090
1060.544, 0.4794970
1061.027, 0.5106110
1061.509, 0.5534730
1061.991, 0.6230820
1062.473, 0.6745820
1062.955, 0.6186890
1063.437, 0.5186260
1063.919, 0.5390750
1064.401, 0.6765720
1064.884, 0.8038230
1065.366, 0.8555990
1065.848, 0.8927000
1066.330, 0.9261430
1066.812, 0.9695510
1067.294, 1.044491
1067.776, 1.138804
1068.258, 1.221941
1068.740, 1.295302
1069.223, 1.363736
1069.705, 1.402200
1070.187, 1.440740
1070.669, 1.502182
1071.151, 1.588812
1071.633, 1.742456
1072.115, 1.965754
1072.597, 2.260191
1073.079, 2.669349
1073.562, 3.093473
1074.044, 3.308813
1074.526, 3.444782
1075.008, 3.753383
1075.490, 4.434693
1075.972, 5.064601
1076.454, 5.584150
1076.936, 6.080664
1077.419, 6.610912
1077.901, 7.181496
1078.383, 7.863668
1078.865, 8.633574
1079.347, 9.326660
1079.829, 9.730649
1080.311, 10.17731
1080.793, 10.75742
1081.275, 11.50503
1081.758, 12.52117
1082.240, 13.82852
1082.722, 15.12224
1083.204, 16.36257
1083.686, 17.66053
1084.168, 19.21998
1084.650, 20.84389
1085.132, 22.44408
1085.615, 23.97440
1086.097, 25.15885
1086.579, 26.14229
1087.061, 26.34581
1087.543, 25.58502
1088.025, 24.02328
1088.507, 21.64796
1088.989, 18.75196
1089.471, 15.78156
1089.953, 12.70061
1090.436, 10.07570
1090.918, 8.069382
1091.400, 6.473750
1091.882, 5.235258
1092.364, 4.302489
1092.846, 3.443238
1093.328, 2.677387
1093.810, 2.065793
1094.293, 1.688603
1094.775, 1.402207
1095.257, 1.128256
1095.739, 0.9196150
1096.221, 0.8652410
1096.703, 1.002522
1097.185, 0.9251840
1097.667, 0.6194350
1098.150, 0.3267140
1098.632, 0.2208200
1099.114, 0.2138980
1099.596, 0.2955430
1100.078, 0.4127260
1100.560, 0.3923010
1101.042, 0.1484210
1101.524, 1.4261000E-02
1102.006, 4.7945000E-02
1102.489, 0.1369310
1102.971, 0.1842140
1103.453, 0.1906240
1103.935, 0.1436390
1104.417, 4.5205999E-02
1104.899, 1.4395000E-02
1105.381, 1.7082000E-02
1105.863, 4.3097001E-02
1106.345, 3.9951000E-02
1106.828, 1.7835001E-02
1107.310, 1.2035000E-02
1107.792, 4.1926999E-02
1108.274, 3.6915999E-02
1108.756, 2.5792999E-02
1109.238, 5.3869002E-02
1109.720, 4.3970000E-02
1110.202, 0.1437600
1110.685, 0.1720200
1111.167, 0.1381820
1111.649, 0.1105680
1112.131, 8.9089997E-02
1112.613, 7.5507998E-02
1113.095, 8.3479002E-02
1113.577, 7.8197002E-02
1114.059, 8.8740001E-03
1114.542, 9.7107999E-02
1115.024, 7.5207002E-02
1115.506, 0.1032170
1115.988, 0.1446630
1116.470, 3.5918001E-02
1116.952, 7.7531002E-02
1117.434, 8.8225998E-02
1117.916, 6.0658999E-02
1118.398, 6.6757999E-02
1118.880, 9.0177998E-02
1119.363, 8.6113997E-02
1119.845, 1.7170999E-02
1120.327, 6.8910001E-03
1120.809, 3.4364998E-02
1121.291, 7.9801999E-02
1121.773, 6.0444999E-02
1122.255, 7.2110002E-03
1122.737, 2.4860000E-02
1123.220, 3.6584001E-02
1123.702, 5.5300999E-02
1124.184, 0.1413360
1124.666, 0.1533310
1125.148, 2.7905000E-02
1125.630, 0.1260650
1126.112, 0.1026430
1126.594, 3.5703000E-02
1127.077, 9.2892997E-02
1127.559, 3.9383002E-02
1128.041, 2.7892999E-02
1128.523, 7.6785997E-02
1129.005, 0.1121190
1129.487, 0.1385380
1129.969, 0.1536420
1130.451, 0.1411850
1130.933, 0.1069170
1131.416, 9.0466000E-02
1131.898, 0.1000690
1132.380, 0.1372070
1132.862, 0.2454970
1133.344, 0.3466180
1133.826, 0.3803380
1134.308, 0.3485310
1134.790, 0.2600410
1135.272, 0.1118100
1135.755, 2.4223000E-02
1136.237, 6.4250000E-02
1136.719, 0.1493920
1137.201, 0.2311660
1137.683, 0.2978470
1138.165, 0.3314540
1138.647, 0.3298930
1139.129, 0.3073040
1139.612, 0.2633460
1140.094, 0.2142530
1140.576, 0.1683700
1141.058, 0.1255840
1141.540, 6.0927000E-02
1142.022, 3.9320001E-03
1142.504, 2.0870000E-02
1142.986, 0.1882810
1143.469, 0.3102990
1143.951, 0.3848240
1144.433, 0.4090400
1144.915, 0.3492070
1145.397, 0.2533330
1145.879, 0.2069880
1146.361, 0.2051050
1146.843, 0.2156070
1147.325, 0.2244380
1147.807, 0.2561960
1148.290, 0.3261550
1148.772, 0.3959070
1149.254, 0.4211770
1149.736, 0.4136780
1150.218, 0.3940510
1150.700, 0.3664790
1151.182, 0.3591600
1151.664, 0.4081050
1152.147, 0.4516320
1152.629, 0.4772620
1153.111, 0.4834330
1153.593, 0.4552560
1154.075, 0.4035020
1154.557, 0.3674500
1155.039, 0.3523290
1155.521, 0.3682550
1156.004, 0.4677780
1156.486, 0.5470360
1156.968, 0.5452960
1157.450, 0.4948610
1157.932, 0.5151880
1158.414, 0.5897050
1158.896, 0.5838470
1159.378, 0.4420090
1159.860, 0.3291610
1160.343, 0.3927580
1160.825, 0.4919670
1161.307, 0.5280070
1161.789, 0.5074400
1162.271, 0.4816600
1162.753, 0.4513250
1163.235, 0.4626210
1163.717, 0.5489650
1164.199, 0.6333980
1164.682, 0.6710520
1165.164, 0.6598320
1165.646, 0.5805910
1166.128, 0.4308880
1166.610, 0.3482820
1167.092, 0.3311760
1167.574, 0.3651340
1168.056, 0.4917880
1168.539, 0.5973210
1169.021, 0.5421840
1169.503, 0.4204600
1169.985, 0.3681410
1170.467, 0.4115570
1170.949, 0.4266830
1171.431, 0.4110930
1171.913, 0.4017730
1172.396, 0.4272900
1172.878, 0.4538230
1173.360, 0.4161540
1173.842, 0.3579930
1174.324, 0.3709840
1174.806, 0.5182670
1175.288, 0.5535110
1175.770, 0.4530400
1176.252, 0.3334590
1176.734, 0.2680860
1177.217, 0.2482170
1177.699, 0.2887990
1178.181, 0.3652970
1178.663, 0.4048300
1179.145, 0.3746240
1179.627, 0.3641770
1180.109, 0.3858060
1180.591, 0.3952680
1181.074, 0.3140560
1181.556, 0.2180620
1182.038, 0.2395930
1182.520, 0.3546990
1183.002, 0.4042450
1183.484, 0.3081880
1183.966, 0.2527690
1184.448, 0.2612540
1184.931, 0.2943510
1185.413, 0.3313810
1185.895, 0.3575960
1186.377, 0.3231740
1186.859, 0.2377370
1187.341, 0.2145740
1187.823, 0.3238450
1188.305, 0.3932800
1188.787, 0.3831430
1189.270, 0.3390150
1189.752, 0.3152320
1190.234, 0.3063570
1190.716, 0.2974250
1191.198, 0.2868190
1191.680, 0.3056950
1192.162, 0.4049210
1192.644, 0.4435630
1193.126, 0.3664790
1193.609, 0.2495450
1194.091, 0.2451420
1194.573, 0.2900360
1195.055, 0.2419920
1195.537, 7.2195001E-02
1196.019, 1.5129000E-02
1196.501, 6.1101999E-02
1196.983, 0.1601290
1197.466, 0.2579360
1197.948, 0.3284460
1198.430, 0.2845180
1198.912, 0.1903280
1199.394, 0.1918420
1199.876, 0.3354900
1200.358, 0.4181870
1200.840, 0.3769600
1201.323, 0.3193540
1201.805, 0.2604860
1202.287, 0.2251190
1202.769, 0.3051400
1203.251, 0.4380140
1203.733, 0.4881230
1204.215, 0.4147680
1204.697, 0.3056250
1205.179, 0.1157760
1205.661, 1.5101000E-02
1206.144, 0.1220200
1206.626, 0.3171240
1207.108, 0.3021120
1207.590, 0.1685450
1208.072, 0.1264510
1208.554, 0.2811600
1209.036, 0.3545720
1209.518, 0.2679640
1210.001, 0.1742130
1210.483, 0.1395710
1210.965, 0.1590660
1211.447, 0.2733140
1211.929, 0.4224610
1212.411, 0.4708000
1212.893, 0.3293400
1213.375, 0.2165210
1213.858, 0.1575460
1214.340, 0.1310940
1214.822, 0.1291380
1215.304, 0.1484550
1215.786, 0.1939020
1216.268, 0.2520820
1216.750, 0.2937590
1217.232, 0.3239420
1217.714, 0.2941050
1218.197, 0.1652280
1218.679, 6.4421996E-02
1219.161, 9.4003998E-02
1219.643, 0.1907810
1220.125, 0.2244190
1220.607, 0.2154870
1221.089, 0.2128540
1221.571, 0.2457940
1222.053, 0.2531960
1222.536, 0.2191300
1223.018, 0.1939920
1223.500, 0.2177020
1223.982, 0.2683790
1224.464, 0.3216800
1224.946, 0.3652260
1225.428, 0.3703690
1225.910, 0.2930010
1226.393, 0.2329650
1226.875, 0.1896590
1227.357, 0.1705740
1227.839, 0.1998530
1228.321, 0.2459080
1228.803, 0.2602000
1229.285, 0.2478070
1229.767, 0.2189580
1230.250, 0.1418870
1230.732, 0.1252780
1231.214, 0.1856520
1231.696, 0.2469280
1232.178, 0.2472540
1232.660, 0.2170070
1233.142, 0.1683530
1233.624, 0.1264090
1234.106, 0.1563340
1234.589, 0.3203970
1235.071, 0.4102080
1235.553, 0.4144890
1236.035, 0.3826790
1236.517, 0.3451910
1236.999, 0.2978890
1237.481, 0.2185340
1237.963, 0.1305570
1238.445, 9.1706999E-02
1238.928, 0.1279960
1239.410, 0.1199130
1239.892, 5.7849001E-02
1240.374, 9.5690005E-03
1240.856, 4.5954000E-02
1241.338, 0.1000400
1241.820, 9.6612997E-02
1242.302, 7.1075000E-02
1242.785, 0.1039660
1243.267, 0.2182310
1243.749, 0.2775310
1244.231, 0.2744870
1244.713, 0.2641910
1245.195, 0.3077580
1245.677, 0.3388850
1246.159, 0.2833140
1246.641, 0.1908300
1247.124, 0.1541640
1247.606, 0.1803640
1248.088, 0.1739330
1248.570, 0.1314330
1249.052, 9.4222002E-02
1249.534, 8.7638997E-02
1250.016, 9.2363998E-02
1250.498, 0.1227300
1250.980, 0.1603460
1251.463, 0.1803080
1251.945, 0.1831980
1252.427, 0.1898760
1252.909, 0.1997980
1253.391, 0.2023640
1253.873, 0.1842590
1254.355, 0.1660690
1254.837, 0.1485860
1255.320, 0.1424490
1255.802, 0.1614750
1256.284, 0.1974620
1256.766, 0.2041700
1257.248, 0.1787520
1257.730, 0.1277950
1258.212, 5.5490001E-03
1258.694, 7.9542004E-02
1259.177, 3.7684001E-02
1259.659, 4.1483000E-02
1260.141, 6.9114000E-02
1260.623, 6.7299999E-02
1261.105, 0.1325700
1261.587, 0.2461810
1262.069, 0.3146730
1262.551, 0.2584290
1263.033, 0.2048080
1263.516, 0.1690910
1263.998, 0.1430890
1264.480, 0.1156910
1264.962, 9.3615003E-02
1265.444, 0.1002170
1265.926, 0.1257210
1266.408, 0.1328340
1266.890, 6.8677001E-02
1267.372, 7.8754999E-02
1267.855, 0.1984930
1268.337, 0.3016200
1268.819, 0.2324730
1269.301, 0.1144920
1269.783, 0.1413920
1270.265, 0.2594760
1270.747, 0.3082530
1271.229, 0.2516120
1271.712, 0.1924130
1272.194, 0.1310560
1272.676, 8.3086997E-02
1273.158, 6.7781001E-02
1273.640, 6.0355999E-02
1274.122, 2.3084000E-02
1274.604, 1.8160000E-02
1275.086, 1.1719000E-02
1275.568, 5.0850999E-02
1276.051, 0.1154490
1276.533, 0.1809960
1277.015, 0.2202890
1277.497, 0.1841520
1277.979, 0.1534830
1278.461, 0.2173440
1278.943, 0.2886430
1279.425, 0.2378840
1279.907, 6.8643004E-02
1280.390, 3.3629999E-02
1280.872, 0.1205330
1281.354, 0.1847750
1281.836, 0.1735930
1282.318, 0.1411380
1282.800, 7.6898001E-02
1283.282, 2.4952000E-02
1283.764, 4.0153999E-02
1284.247, 0.1022850
1284.729, 0.1028550
1285.211, 5.6841001E-02
1285.693, 2.2089001E-02
1286.175, 2.7307000E-02
1286.657, 4.0832002E-02
1287.139, 6.5853998E-02
1287.621, 8.1910998E-02
1288.104, 5.5558998E-02
1288.586, 1.9162999E-02
1289.068, 6.6391997E-02
1289.550, 0.1510870
1290.032, 0.1798630
1290.514, 5.2749999E-02
1290.996, 3.4270000E-03
1291.478, 4.4241000E-02
1291.960, 0.1130710
1292.443, 0.1920930
1292.925, 0.2560070
1293.407, 0.2555150
1293.889, 0.2207220
1294.371, 0.2074750
1294.853, 0.2262840
1295.335, 0.2050880
1295.817, 0.1431910
1296.299, 0.1042280
1296.782, 0.1299630
1297.264, 0.1822620
1297.746, 0.2779930
1298.228, 0.3491710
1298.710, 0.3157630
1299.192, 0.1862070
1299.674, 8.8767000E-02
1300.156, 2.4498999E-02
1300.639, 5.4420000E-03
1301.121, 3.2100000E-04
1301.603, 3.9972998E-02
1302.085, 0.1581310
1302.567, 0.1746910
1303.049, 0.1243210
1303.531, 0.0000000E+00
##END=



