##NAMES=Caracolite
##RRUFFID=R050096
##IDEAL CHEMISTRY=Na_2_(Pb_2_Na)(SO_4_)_3_Cl
##LOCALITY=Challacollo mine, Tarapaca Province, Chile
##OWNER=RRUFF
##SOURCE=Marcus Origlieri
##DESCRIPTION=Colorless hexagonal prisms
##STATUS=The identification of this mineral has been confirmed only by X-ray diffraction
##URL=rruff.info/R050096
52.866, 0.000
54.266, 27.187
55.666, 43.890
57.065, 5.068
58.464, 7.245
59.863, 9.418
61.262, 1.771
62.661, 98.055
64.059, 183.830
65.458, 324.610
66.856, 435.646
68.253, 596.334
69.651, 748.185
71.048, 964.810
72.445, 1184.896
73.842, 1526.182
75.239, 2152.442
76.635, 2336.929
78.031, 2676.974
79.427, 2943.117
80.823, 3107.440
82.218, 3367.928
83.614, 3500.476
85.009, 3536.000
86.404, 3515.433
87.798, 3731.726
89.193, 3855.843
90.587, 4003.743
91.981, 3931.378
93.375, 3747.698
94.768, 3459.656
96.161, 3232.189
97.554, 3125.304
98.947, 3101.741
100.340, 3011.671
101.732, 3043.989
103.124, 3167.666
104.516, 3426.677
105.908, 3619.000
107.300, 3696.613
108.691, 3706.501
110.082, 3768.648
111.473, 3736.039
112.864, 3775.660
114.254, 3836.512
115.644, 3810.022
117.034, 3743.568
118.424, 3762.612
119.813, 3511.584
121.203, 3377.833
122.592, 3224.434
123.981, 3154.438
125.369, 3078.752
126.758, 2977.339
128.146, 2989.176
129.534, 2917.182
130.922, 2914.345
132.309, 2868.683
133.696, 2815.146
135.083, 2785.742
136.470, 2882.379
137.857, 2797.917
139.243, 2869.378
140.630, 2861.782
142.016, 2772.149
143.401, 2703.500
144.787, 2785.846
146.172, 2654.201
147.557, 2683.563
148.942, 2636.939
150.327, 2680.334
151.711, 2685.749
153.096, 2727.011
154.480, 2838.652
155.863, 2855.146
157.247, 2935.667
158.630, 3032.221
160.013, 3100.806
161.396, 3153.482
162.779, 3207.071
164.161, 3219.751
165.544, 3203.463
166.926, 3193.207
168.308, 3132.011
169.689, 3034.816
171.070, 2954.651
172.452, 2921.514
173.833, 2842.692
175.213, 2805.688
176.594, 2712.087
177.974, 2613.478
179.354, 2551.437
180.734, 2505.687
182.114, 2433.969
183.493, 2379.866
184.872, 2327.915
186.251, 2271.903
187.630, 2220.855
189.008, 2164.653
190.387, 2098.383
191.765, 2068.072
193.143, 2016.277
194.520, 1990.384
195.898, 1931.738
197.275, 1897.468
198.652, 1859.416
200.029, 1824.536
201.405, 1782.102
202.782, 1755.013
204.158, 1708.142
205.534, 1715.944
206.909, 1667.202
208.285, 1600.689
209.660, 1573.949
211.035, 1449.667
212.410, 1302.634
213.784, 1303.151
215.159, 1262.440
216.533, 1297.449
217.907, 1237.896
219.281, 1157.036
220.654, 1082.842
222.027, 1025.775
223.400, 997.885
224.773, 932.006
226.146, 871.603
227.518, 842.445
228.891, 780.251
230.263, 757.669
231.634, 674.040
233.006, 659.860
234.377, 621.549
235.748, 564.620
237.119, 521.823
238.490, 483.097
239.860, 415.161
241.231, 437.424
242.601, 391.659
243.970, 393.245
245.340, 342.688
246.709, 324.301
248.079, 286.873
249.448, 273.516
250.816, 263.225
252.185, 261.994
253.553, 244.818
254.921, 216.693
256.289, 209.806
257.657, 190.585
259.024, 183.594
260.391, 164.641
261.758, 159.124
263.125, 128.835
264.492, 127.978
265.858, 109.148
267.224, 101.344
268.590, 113.564
269.956, 79.806
271.321, 63.068
272.687, 83.349
274.052, 67.647
275.416, 61.961
276.781, 69.290
278.146, 35.632
279.510, 40.987
280.874, 0.648
282.237, 14.727
283.601, 29.109
284.964, 27.498
286.327, 3.892
287.690, 21.289
289.053, 5.686
290.416, 9.083
291.778, 0.522
293.140, 13.130
294.502, 15.256
295.863, 4.362
297.225, 18.988
298.586, 4.379
299.947, 36.263
301.308, 8.916
302.668, 41.578
304.029, 15.253
305.389, 7.937
306.749, 4.628
308.108, 34.327
309.468, 34.038
310.827, 30.761
312.186, 30.496
313.545, 44.243
314.903, 40.007
316.262, 22.785
317.620, 40.576
318.978, 27.382
320.336, 16.202
321.693, 42.034
323.051, 29.885
324.408, 35.750
325.765, 42.634
327.121, 48.537
328.478, 56.462
329.834, 52.257
331.190, 57.272
332.546, 41.381
333.902, 49.402
335.257, 43.447
336.612, 18.516
337.967, 35.604
339.322, 37.716
340.677, 22.854
342.031, 32.019
343.385, 21.218
344.739, 28.440
346.093, 22.698
347.446, 29.990
348.799, 25.326
350.153, 14.700
351.505, 2.104
352.858, 7.545
354.210, 0.582
355.563, 0.906
356.915, 3.139
358.267, 2.767
359.618, 10.435
360.969, 11.148
362.321, 8.904
363.672, 6.700
365.022, 3.330
366.373, 1.565
367.723, 5.673
369.073, 3.736
370.423, 7.768
371.773, 12.766
373.122, 2.269
374.471, 12.661
375.821, 1.565
377.169, 17.536
378.518, 21.302
379.866, 35.106
381.215, 34.892
382.563, 16.683
383.910, 17.471
385.258, 9.256
386.605, 33.036
387.952, 33.815
389.299, 39.590
390.646, 55.360
391.992, 40.127
393.339, 51.341
394.685, 42.639
396.031, 56.382
397.376, 48.118
398.722, 49.844
400.067, 53.558
401.412, 76.261
402.757, 69.241
404.101, 88.639
405.446, 64.313
406.790, 83.974
408.134, 75.624
409.478, 99.261
410.821, 116.888
412.165, 94.503
413.508, 111.107
414.851, 114.698
416.193, 122.277
417.536, 110.842
418.878, 154.393
420.220, 149.930
421.562, 153.452
422.904, 179.959
424.245, 219.451
425.586, 273.926
426.927, 327.386
428.268, 419.831
429.609, 583.260
430.949, 832.672
432.289, 1230.068
433.629, 1659.448
434.969, 1933.811
436.309, 2004.159
437.648, 1823.488
438.987, 1627.801
440.326, 1483.096
441.665, 1465.374
443.003, 1493.615
444.342, 1507.860
445.680, 1417.087
447.018, 1364.297
448.355, 1339.489
449.693, 1420.664
451.030, 1605.820
452.367, 1754.959
453.704, 1764.058
455.041, 1734.974
456.377, 1703.062
457.713, 1573.071
459.049, 1579.778
460.385, 1709.814
461.721, 1879.885
463.056, 2158.744
464.391, 2430.501
465.726, 2658.161
467.061, 2865.968
468.395, 2905.811
469.730, 2855.662
471.064, 2786.470
472.398, 2433.367
473.731, 2163.218
475.065, 1767.338
476.398, 1520.602
477.731, 1229.629
479.064, 1066.716
480.397, 830.414
481.729, 663.574
483.062, 569.353
484.394, 463.720
485.725, 413.693
487.057, 337.193
488.389, 308.259
489.720, 282.778
491.051, 261.459
492.382, 240.761
493.712, 219.909
495.043, 193.507
496.373, 183.374
497.703, 174.017
499.032, 188.791
500.362, 174.755
501.691, 177.512
503.020, 198.654
504.349, 155.355
505.678, 153.559
507.007, 162.032
508.335, 161.997
509.663, 164.165
510.991, 155.461
512.319, 157.337
513.646, 137.357
514.973, 132.728
516.300, 134.071
517.627, 120.176
518.954, 122.276
520.280, 125.851
521.607, 121.266
522.933, 112.793
524.259, 126.356
525.584, 119.075
526.910, 99.845
528.235, 120.030
529.560, 104.189
530.885, 124.455
532.209, 107.910
533.534, 106.418
534.858, 96.949
536.182, 79.545
537.506, 97.180
538.829, 84.791
540.152, 107.925
541.476, 106.854
542.799, 107.042
544.121, 103.305
545.444, 103.364
546.766, 102.173
548.088, 91.963
549.410, 94.924
550.732, 82.049
552.053, 109.883
553.375, 88.062
554.696, 99.074
556.017, 92.244
557.337, 122.261
558.658, 112.236
559.978, 106.244
561.298, 93.574
562.618, 111.730
563.938, 105.023
565.257, 119.000
566.576, 107.197
567.895, 129.526
569.214, 129.940
570.533, 151.152
571.851, 136.657
573.170, 110.080
574.488, 145.311
575.805, 121.394
577.123, 145.534
578.440, 143.632
579.758, 139.703
581.075, 144.706
582.391, 144.007
583.708, 144.923
585.024, 150.487
586.341, 154.581
587.657, 161.645
588.972, 181.581
590.288, 189.453
591.603, 211.438
592.918, 193.431
594.233, 234.500
595.548, 250.305
596.863, 291.175
598.177, 371.977
599.491, 442.948
600.805, 561.904
602.119, 711.861
603.432, 905.879
604.746, 1188.681
606.059, 1593.659
607.372, 2084.477
608.685, 2534.254
609.997, 2697.873
611.309, 2519.836
612.621, 2401.893
613.933, 2447.069
615.245, 2702.811
616.557, 2948.467
617.868, 3160.742
619.179, 3117.330
620.490, 2975.008
621.801, 2659.785
623.111, 2477.215
624.421, 2408.862
625.731, 2491.463
627.041, 2459.848
628.351, 2262.445
629.660, 1896.820
630.970, 1684.168
632.279, 1675.856
633.588, 1579.243
634.896, 1498.649
636.205, 1269.507
637.513, 1016.618
638.821, 754.263
640.129, 622.149
641.437, 517.735
642.744, 416.581
644.051, 343.309
645.358, 316.900
646.665, 243.250
647.972, 259.901
649.278, 239.541
650.584, 213.825
651.890, 170.066
653.196, 152.110
654.502, 140.198
655.807, 126.046
657.113, 120.343
658.418, 110.652
659.722, 114.894
661.027, 100.093
662.331, 100.074
663.636, 101.295
664.940, 91.527
666.244, 97.115
667.547, 115.851
668.851, 84.322
670.154, 98.997
671.457, 99.880
672.760, 85.148
674.062, 112.880
675.365, 93.689
676.667, 88.328
677.969, 107.499
679.271, 95.193
680.572, 107.910
681.874, 113.912
683.175, 112.372
684.476, 102.050
685.777, 80.752
687.077, 89.554
688.378, 92.703
689.678, 101.074
690.978, 77.669
692.278, 118.394
693.577, 81.445
694.877, 101.174
696.176, 92.507
697.475, 119.568
698.774, 125.786
700.072, 110.978
701.371, 89.527
702.669, 110.696
703.967, 112.687
705.265, 109.034
706.562, 133.704
707.860, 117.670
709.157, 108.326
710.454, 102.090
711.751, 115.020
713.047, 108.048
714.344, 110.982
715.640, 111.535
716.936, 110.098
718.232, 117.606
719.527, 114.094
720.823, 118.576
722.118, 117.020
723.413, 94.622
724.708, 95.021
726.002, 110.411
727.297, 85.897
728.591, 89.431
729.885, 101.923
731.179, 115.210
732.472, 105.476
733.766, 107.806
735.059, 108.023
736.352, 113.219
737.645, 139.867
738.937, 116.928
740.230, 116.408
741.522, 92.812
742.814, 92.904
744.106, 102.974
745.397, 108.023
746.689, 92.053
747.980, 89.061
749.271, 81.048
750.562, 103.012
751.853, 91.957
753.143, 96.882
754.433, 78.786
755.723, 77.670
757.013, 75.532
758.303, 69.752
759.592, 82.191
760.881, 67.990
762.170, 75.767
763.459, 76.524
764.748, 89.261
766.036, 60.979
767.325, 54.676
768.613, 48.350
769.901, 67.000
771.188, 70.631
772.476, 40.242
773.763, 70.829
775.050, 62.397
776.337, 54.946
777.624, 81.475
778.910, 57.986
780.196, 58.479
781.482, 75.952
782.768, 54.409
784.054, 69.847
785.339, 71.268
786.625, 44.673
787.910, 60.059
789.195, 56.427
790.479, 33.778
791.764, 25.109
793.048, 38.415
794.332, 28.703
795.616, 10.969
796.900, 27.207
798.183, 29.425
799.467, 32.622
800.750, 11.801
802.033, 27.954
803.316, 27.088
804.598, 40.203
805.880, 10.302
807.163, 13.377
808.445, 11.429
809.726, 15.458
811.008, 21.466
812.289, 16.456
813.570, 18.427
814.851, 4.379
816.132, 7.307
817.413, 13.786
818.693, 1.088
819.973, 11.932
821.253, 7.763
822.533, 5.425
823.813, 9.679
825.092, 29.921
826.371, 5.201
827.650, 29.557
828.929, 15.897
830.208, 1.704
831.486, 23.736
832.764, 17.155
834.042, 2.637
835.320, 40.102
836.598, 16.606
837.875, 37.135
839.152, 22.729
840.429, 25.495
841.706, 32.225
842.983, 36.973
844.259, 41.713
845.536, 45.075
846.812, 51.861
848.088, 47.542
849.363, 58.481
850.639, 55.556
851.914, 43.497
853.189, 44.450
854.464, 51.518
855.739, 46.861
857.013, 45.215
858.288, 35.215
859.562, 42.465
860.836, 30.591
862.110, 44.828
863.383, 48.180
864.656, 33.654
865.930, 35.009
867.203, 15.461
868.475, 3.117
869.748, 0.295
871.020, 6.280
872.292, 10.923
873.564, 0.540
874.836, 10.198
876.108, 9.154
877.379, 12.254
878.650, 0.675
879.922, 7.721
881.192, 11.431
882.463, 10.875
883.733, 2.454
885.004, 2.114
886.274, 6.301
887.544, 6.310
888.813, 4.931
890.083, 5.605
891.352, 35.348
892.621, 0.052
893.890, 3.759
895.159, 30.280
896.427, 5.817
897.695, 13.466
898.964, 10.166
900.232, 20.738
901.499, 19.289
902.767, 43.751
904.034, 38.464
905.301, 68.099
906.568, 50.789
907.835, 59.298
909.102, 55.811
910.368, 74.311
911.634, 60.737
912.900, 94.370
914.166, 63.815
915.432, 54.409
916.697, 36.035
917.962, 66.809
919.227, 92.228
920.492, 88.544
921.757, 86.734
923.021, 106.347
924.285, 95.039
925.550, 139.105
926.813, 116.850
928.077, 156.502
929.341, 143.049
930.604, 211.941
931.867, 217.612
933.130, 203.322
934.393, 253.242
935.655, 265.949
936.918, 297.878
938.180, 314.832
939.442, 375.447
940.703, 364.365
941.965, 434.267
943.226, 490.715
944.488, 575.915
945.749, 575.582
947.009, 654.007
948.270, 694.739
949.530, 802.212
950.791, 865.810
952.051, 998.551
953.311, 1075.544
954.570, 1229.246
955.830, 1445.972
957.089, 1634.066
958.348, 1843.214
959.607, 2130.570
960.866, 2539.893
962.124, 2979.463
963.383, 3584.328
964.641, 4360.060
965.899, 5370.930
967.156, 6762.190
968.414, 8544.677
969.671, 10709.935
970.928, 13847.192
972.185, 17573.107
973.442, 22591.885
974.699, 28517.941
975.955, 34925.793
977.211, 39482.449
978.468, 41825.727
979.723, 44596.555
980.979, 47518.305
982.234, 50914.246
983.490, 51653.660
984.745, 44123.566
986.000, 35254.477
987.254, 25751.121
988.509, 18588.324
989.763, 13537.330
991.017, 10037.339
992.271, 7744.272
993.525, 6153.878
994.779, 5096.278
996.032, 4364.479
997.285, 3840.575
998.538, 3803.346
999.791, 3994.491
1001.044, 4690.045
1002.296, 4615.896
1003.548, 4096.610
1004.800, 3252.375
1006.052, 2739.803
1007.304, 2448.628
1008.555, 2193.651
1009.807, 2047.336
1011.058, 1999.718
1012.309, 1897.826
1013.559, 1827.269
1014.810, 1692.626
1016.060, 1622.832
1017.310, 1540.106
1018.560, 1552.198
1019.810, 1432.837
1021.060, 1433.495
1022.309, 1468.224
1023.558, 1445.991
1024.807, 1469.783
1026.056, 1485.379
1027.305, 1434.330
1028.553, 1520.249
1029.801, 1519.192
1031.049, 1531.056
1032.297, 1596.886
1033.545, 1605.772
1034.793, 1652.879
1036.040, 1699.018
1037.287, 1732.117
1038.534, 1749.340
1039.781, 1820.857
1041.027, 1931.910
1042.274, 1948.255
1043.520, 2016.622
1044.766, 2070.042
1046.012, 2132.503
1047.257, 2212.000
1048.503, 2305.538
1049.748, 2468.114
1050.993, 2586.729
1052.238, 2759.382
1053.483, 2962.069
1054.727, 3151.796
1055.971, 3312.559
1057.216, 3582.360
1058.459, 3805.198
1059.703, 4055.073
1060.947, 4179.989
1062.190, 4395.940
1063.433, 4450.931
1064.676, 4495.957
1065.919, 4446.026
1067.162, 4327.131
1068.404, 4240.273
1069.646, 4149.451
1070.888, 3967.667
1072.130, 3882.921
1073.372, 3685.210
1074.613, 3523.537
1075.855, 3360.902
1077.096, 3177.305
1078.337, 2985.745
1079.578, 2862.221
1080.818, 2756.733
1082.059, 2650.281
1083.299, 2595.864
1084.539, 2646.481
1085.779, 2673.136
1087.018, 2692.825
1088.258, 2746.549
1089.497, 2820.309
1090.736, 2856.104
1091.975, 3010.935
1093.213, 3083.805
1094.452, 3112.712
1095.690, 3246.655
1096.928, 3194.638
1098.166, 3232.660
1099.404, 3303.720
1100.642, 3302.817
1101.879, 3277.949
1103.116, 3262.122
1104.353, 3233.334
1105.590, 3266.582
1106.827, 3225.865
1108.063, 3219.625
1109.299, 3220.546
1110.536, 3174.945
1111.771, 3177.381
1113.007, 3137.854
1114.243, 3080.363
1115.478, 3016.907
1116.713, 2943.491
1117.948, 2797.113
1119.183, 2811.778
1120.418, 2660.481
1121.652, 2617.219
1122.886, 2594.993
1124.120, 2447.807
1125.354, 2331.660
1126.588, 2180.557
1127.821, 2075.493
1129.055, 2021.472
1130.288, 2008.738
1131.521, 1961.832
1132.753, 1946.394
1133.986, 1893.331
1135.218, 1863.935
1136.450, 1856.280
1137.682, 1797.903
1138.914, 1928.570
1140.146, 1918.048
1141.377, 1897.320
1142.609, 1851.813
1143.840, 1804.863
1145.071, 1812.548
1146.301, 1824.801
1147.532, 1805.144
1148.762, 1775.641
1149.992, 1757.736
1151.222, 1726.543
1152.452, 1684.353
1153.682, 1650.856
1154.911, 1593.052
1156.140, 1599.270
1157.369, 1534.622
1158.598, 1520.799
1159.827, 1439.554
1161.055, 1420.694
1162.284, 1386.183
1163.512, 1342.243
1164.740, 1323.545
1165.967, 1296.168
1167.195, 1259.052
1168.422, 1250.203
1169.650, 1206.164
1170.877, 1156.570
1172.103, 1059.864
1173.330, 1088.850
1174.557, 992.286
1175.783, 976.074
1177.009, 960.661
1178.235, 945.067
1179.461, 944.367
1180.686, 966.684
1181.912, 905.695
1183.137, 893.361
1184.362, 851.310
1185.587, 791.733
1186.811, 747.948
1188.036, 683.054
1189.260, 627.929
1190.484, 583.476
1191.708, 485.627
1192.932, 468.862
1194.155, 416.750
1195.378, 408.665
1196.602, 348.443
1197.825, 335.826
1199.047, 338.975
1200.270, 351.753
1201.492, 331.550
1202.715, 372.698
1203.937, 345.089
1205.159, 399.054
1206.380, 430.270
1207.602, 475.278
1208.823, 531.089
1210.044, 548.648
1211.265, 603.402
1212.486, 600.025
1213.707, 600.975
1214.927, 538.090
1216.147, 471.092
1217.367, 370.087
1218.587, 325.164
1219.807, 295.983
1221.027, 232.567
1222.246, 220.459
1223.465, 155.716
1224.684, 149.187
1225.903, 151.189
1227.121, 144.325
1228.340, 94.242
1229.558, 122.209
1230.776, 99.107
1231.994, 88.604
1233.212, 91.519
1234.429, 126.443
1235.646, 86.552
1236.864, 82.472
1238.081, 87.001
1239.297, 60.075
1240.514, 84.040
1241.730, 41.198
1242.947, 62.523
1244.163, 63.580
1245.378, 46.666
1246.594, 54.879
1247.810, 55.907
1249.025, 41.022
1250.240, 48.904
1251.455, 43.969
1252.670, 23.047
1253.885, 46.179
1255.099, 70.427
1256.313, 74.655
1257.527, 57.906
1258.741, 106.086
1259.955, 45.220
1261.168, 67.342
1262.382, 47.482
1263.595, 78.831
1264.808, 85.966
1266.021, 83.010
1267.233, 52.103
1268.446, 44.115
1269.658, 47.103
1270.870, 46.117
1272.082, 4.076
1273.294, 17.024
1274.505, 11.939
1275.716, 11.136
1276.928, 1.280
1278.139, 16.984
1279.349, 35.609
1280.560, 38.810
1281.770, 55.748
1282.981, 34.270
1284.191, 67.534
1285.401, 62.832
1286.610, 41.168
1287.820, 25.534
1289.029, 50.925
1290.239, 59.344
1291.448, 50.791
1292.656, 34.266
1293.865, 17.766
1295.073, 58.285
1296.282, 37.839
1297.490, 51.356
1298.698, 28.970
1299.906, 4.605
1301.113, 37.254
1302.320, 21.925
1303.528, 33.619
1304.735, 41.343
1305.942, 46.092
1307.148, 41.396
1308.355, 2.675
1309.561, 28.496
1310.767, 16.341
1311.973, 19.213
1313.179, 54.109
1314.384, 18.041
1315.590, 7.999
1316.795, 20.980
1318.000, 1.005
1319.205, 5.033
1320.410, 6.902
1321.614, 5.188
1322.819, 1.214
1324.023, 1.548
1325.227, 2.375
1326.431, 9.176
1327.634, 18.953
1328.838, 20.248
1330.041, 32.476
1331.244, 6.820
1332.447, 4.116
1333.650, 0.534
1334.852, 7.171
1336.055, 16.770
1337.257, 2.362
1338.459, 27.189
1339.661, 4.718
1340.862, 8.222
1342.064, 17.701
1343.265, 25.157
1344.466, 40.591
1345.667, 12.005
1346.868, 29.394
1348.068, 23.760
1349.269, 39.123
1350.469, 31.443
1351.669, 12.742
1352.869, 53.014
1354.069, 25.266
1355.268, 63.495
1356.468, 4.703
1357.667, 51.884
1358.866, 45.177
1360.065, 52.316
1361.263, 54.452
1362.462, 51.568
1363.660, 75.641
1364.858, 34.692
1366.056, 69.719
1367.254, 48.727
1368.451, 41.720
1369.649, 65.684
1370.846, 58.629
1372.043, 77.546
1373.240, 73.442
1374.436, 86.601
1375.633, 47.458
1376.829, 88.338
1378.025, 88.579
1379.221, 70.053
1380.417, 129.625
1381.613, 51.295
1382.808, 76.924
1384.003, 94.740
1385.199, 77.539
1386.393, 70.322
1387.588, 95.087
1388.783, 95.831
1389.977, 87.555
1391.171, 142.259
1392.365, 104.942
1393.559, 61.603
1394.753, 141.244
1395.946, 127.862
1397.140, 120.458
1398.333, 109.034
1399.526, 115.223
1400.719, 116.126
1401.911, 129.310
1403.104, 140.718
1404.296, 138.399
1405.488, 127.137
1406.680, 96.376
1407.872, 115.125
1409.063, 152.024
1410.255, 110.794
1411.446, 119.849
1412.637, 123.675
1413.828, 105.967
1415.018, 118.899
1416.209, 101.782
1417.399, 102.739
1418.589, 92.226
1419.779, 95.863
1420.969, 89.058
1422.159, 107.367
1423.348, 95.148
1424.537, 84.870
1425.726, 110.134
1426.915, 110.775
1428.104, 91.974
1429.293, 91.745
1430.481, 103.809
1431.669, 93.900
1432.857, 90.858
1434.045, 72.247
1435.233, 83.559
1436.420, 116.259
1437.608, 102.891
1438.795, 104.089
1439.982, 53.669
1441.169, 100.533
1442.355, 84.591
1443.542, 97.766
1444.728, 117.121
1445.914, 66.436
1447.100, 107.260
1448.286, 102.127
1449.472, 93.451
1450.657, 95.789
1451.842, 84.321
1453.027, 89.152
1454.212, 65.957
1455.397, 72.668
1456.581, 66.798
1457.766, 84.031
1458.950, 84.530
1460.134, 89.198
1461.318, 82.376
1462.501, 64.861
1463.685, 55.329
1464.868, 58.086
1466.051, 60.161
1467.234, 61.847
1468.417, 49.582
1469.600, 44.441
1470.782, 30.407
1471.965, 59.407
1473.147, 49.344
1474.329, 30.881
1475.510, 58.130
1476.692, 32.395
1477.873, 38.755
1479.055, 4.172
1480.236, 34.593
1481.416, 45.031
1482.597, 48.288
1483.778, 42.776
1484.958, 50.211
1486.138, 46.637
1487.318, 34.034
1488.498, 62.390
1489.678, 33.705
1490.857, 21.008
1492.037, 42.305
1493.216, 31.654
1494.395, 54.055
1495.574, 38.525
1496.752, 28.070
1497.931, 28.438
1499.109, 35.075
1500.287, 1.576
1501.465, 21.178
1502.643, 12.001
1503.820, 11.618
1504.998, 16.245
1506.175, 33.883
1507.352, 21.545
1508.529, 41.068
1509.706, 13.795
1510.882, 44.549
1512.059, 35.333
1513.235, 38.476
1514.411, 43.612
1515.587, 2.671
1516.762, 25.096
1517.938, 5.697
1519.113, 35.518
1520.288, 37.042
1521.463, 12.404
1522.638, 11.075
1523.813, 0.000
##END=



