##NAMES=Carminite
##RRUFFID=R061061
##IDEAL CHEMISTRY=PbFe^3+^_2_(As^5+^O_4_)_2_(OH)_2_
##LOCALITY=San Nicolas mine, Badajoz Province, Spain
##OWNER=RRUFF
##SOURCE=Bob Jenkins
##DESCRIPTION=Red prismatic
##STATUS=The identification of this mineral is confirmed by single-crystal X-ray diffraction and chemical analysis.
##URL=rruff.info/R061061
##MEASURED CHEMISTRY=Pb_1.00_(Fe^3+^_1.98_[box]_0.02_)_Σ=2_((As_0.97_S_0.03_)_Σ=1_O_4_)_2_(OH)_2_; (lighter phase) : (Pb_0.98_Cu_0.02_)_Σ=1_(Fe^3+^_1.99_[box]_0.01_)_Σ=2_((As_0.99_S_0.01_)_Σ=1_O_4_)_2_(OH)_2_ (darker phase); OH estimated by difference and charge balance
138.8843, 0.0000000E+00
139.3664, 26.29883
139.8486, 12.53711
140.3307, 29.88721
140.8128, 124.5596
141.2949, 271.5391
141.7770, 454.4600
142.2591, 676.0703
142.7413, 924.7485
143.2234, 1196.400
143.7055, 1488.500
144.1876, 1787.840
144.6697, 2072.283
145.1518, 2331.319
145.6340, 2595.006
146.1161, 2862.865
146.5982, 3026.772
147.0803, 3070.416
147.5624, 3102.799
148.0445, 3115.481
148.5267, 3080.322
149.0088, 2980.466
149.4909, 2892.257
149.9730, 2845.768
150.4551, 2821.526
150.9372, 2781.649
151.4194, 2708.957
151.9015, 2612.153
152.3836, 2506.343
152.8657, 2377.324
153.3478, 2262.470
153.8299, 2187.348
154.3121, 2136.403
154.7942, 2066.795
155.2763, 1952.904
155.7584, 1817.813
156.2405, 1714.424
156.7226, 1651.794
157.2048, 1594.150
157.6869, 1519.199
158.1690, 1432.099
158.6511, 1355.269
159.1332, 1302.837
159.6153, 1262.877
160.0975, 1209.500
160.5796, 1132.725
161.0617, 1069.753
161.5438, 1046.444
162.0259, 1058.008
162.5080, 1076.971
162.9902, 1092.370
163.4723, 1096.209
163.9544, 1081.990
164.4365, 1050.060
164.9186, 1010.726
165.4007, 971.4019
165.8829, 932.4326
166.3650, 891.9873
166.8471, 849.5137
167.3292, 805.9233
167.8113, 761.0298
168.2934, 711.8628
168.7756, 666.7412
169.2577, 633.8550
169.7398, 613.1992
170.2219, 597.3003
170.7040, 580.2227
171.1861, 567.8975
171.6683, 569.7505
172.1504, 593.7021
172.6325, 619.1035
173.1146, 622.6084
173.5967, 602.1567
174.0788, 580.3579
174.5610, 564.3530
175.0431, 552.1548
175.5252, 543.8394
176.0073, 543.2017
176.4894, 537.9834
176.9715, 510.7124
177.4537, 458.0430
177.9358, 406.2793
178.4179, 377.8481
178.9000, 350.5132
179.3821, 296.8867
179.8642, 184.7172
180.3464, 174.6158
180.8285, 158.4509
181.3106, 136.6854
181.7927, 84.57877
182.2748, 77.74148
182.7569, 56.48605
183.2391, 37.18595
183.7212, 44.32172
184.2033, 10.30747
184.6854, 22.38292
185.1675, 19.77964
185.6496, 27.76953
186.1318, 21.23652
186.6139, 22.66875
187.0960, 43.94661
187.5781, 58.36618
188.0602, 60.48861
188.5423, 84.93373
189.0245, 76.90762
189.5066, 102.3667
189.9887, 143.7853
190.4708, 160.0641
190.9529, 242.6147
191.4350, 319.8242
191.9172, 351.8184
192.3993, 442.6201
192.8814, 510.1060
193.3635, 576.8276
193.8456, 676.4268
194.3277, 715.8813
194.8099, 815.2246
195.2920, 890.7876
195.7741, 977.3521
196.2562, 1040.357
196.7383, 1079.254
197.2204, 1132.127
197.7026, 1198.065
198.1847, 1269.131
198.6668, 1341.556
199.1489, 1415.729
199.6310, 1485.291
200.1131, 1541.245
200.5953, 1580.934
201.0774, 1620.928
201.5595, 1662.562
202.0416, 1707.865
202.5237, 1760.145
203.0058, 1820.772
203.4880, 1881.333
203.9701, 1933.148
204.4522, 1976.048
204.9343, 2011.186
205.4164, 2020.081
205.8985, 2032.609
206.3807, 2075.932
206.8628, 2155.293
207.3449, 2236.976
207.8270, 2279.270
208.3091, 2277.046
208.7912, 2288.468
209.2734, 2337.643
209.7555, 2396.170
210.2376, 2447.770
210.7197, 2490.347
211.2018, 2524.662
211.6839, 2554.293
212.1660, 2579.888
212.6482, 2583.556
213.1303, 2489.111
213.6124, 2453.777
214.0945, 2406.551
214.5766, 2348.070
215.0587, 2244.293
215.5409, 2199.230
216.0230, 2130.780
216.5051, 2061.457
216.9872, 2024.933
217.4693, 1928.217
217.9514, 1891.340
218.4336, 1815.944
218.9157, 1755.187
219.3978, 1674.885
219.8799, 1579.095
220.3620, 1508.353
220.8441, 1482.515
221.3263, 1464.391
221.8084, 1431.645
222.2905, 1384.877
222.7726, 1329.854
223.2547, 1263.722
223.7368, 1189.865
224.2190, 1126.346
224.7011, 1077.202
225.1832, 1034.214
225.6653, 990.3853
226.1474, 946.8545
226.6295, 907.5278
227.1117, 874.8750
227.5938, 848.1362
228.0759, 824.7661
228.5580, 804.4312
229.0401, 788.3374
229.5222, 777.1289
230.0044, 770.2217
230.4865, 767.2651
230.9686, 763.3828
231.4507, 764.1777
231.9328, 784.0376
232.4149, 828.3818
232.8971, 876.1519
233.3792, 911.5444
233.8613, 942.2173
234.3434, 979.3130
234.8255, 1027.039
235.3076, 1084.176
235.7898, 1154.537
236.2719, 1243.006
236.7540, 1324.347
237.2361, 1372.315
237.7182, 1405.159
238.2003, 1453.054
238.6825, 1529.085
239.1646, 1615.090
239.6467, 1690.840
240.1288, 1756.073
240.6109, 1825.183
241.0930, 1914.003
241.5752, 2006.660
242.0573, 2075.914
242.5394, 2113.887
243.0215, 2140.672
243.5036, 2166.594
243.9857, 2193.190
244.4679, 2230.440
244.9500, 2288.045
245.4321, 2352.184
245.9142, 2399.708
246.3963, 2429.067
246.8784, 2447.062
247.3606, 2449.299
247.8427, 2440.953
248.3248, 2440.373
248.8069, 2457.264
249.2890, 2482.549
249.7711, 2498.891
250.2533, 2500.585
250.7354, 2506.358
251.2175, 2527.092
251.6996, 2556.458
252.1817, 2580.903
252.6638, 2597.132
253.1460, 2610.002
253.6281, 2627.361
254.1102, 2650.757
254.5923, 2666.943
255.0744, 2672.895
255.5565, 2670.753
256.0387, 2662.204
256.5208, 2647.656
257.0029, 2628.924
257.4850, 2608.574
257.9671, 2587.025
258.4492, 2557.162
258.9314, 2516.160
259.4135, 2468.949
259.8956, 2419.061
260.3777, 2366.618
260.8598, 2309.823
261.3419, 2245.003
261.8241, 2172.337
262.3062, 2106.718
262.7883, 2064.319
263.2704, 2014.976
263.7525, 1938.230
264.2346, 1840.097
264.7168, 1739.141
265.1989, 1646.484
265.6810, 1561.500
266.1631, 1486.748
266.6452, 1431.929
267.1273, 1376.638
267.6095, 1312.655
268.0916, 1242.286
268.5737, 1169.603
269.0558, 1098.241
269.5379, 1031.421
270.0201, 976.5977
270.5022, 949.3477
270.9843, 914.0771
271.4664, 861.2266
271.9485, 802.4336
272.4306, 749.1709
272.9128, 705.8125
273.3949, 669.6060
273.8770, 637.0293
274.3591, 612.9634
274.8412, 583.9575
275.3233, 542.6675
275.8055, 502.0591
276.2876, 471.7314
276.7697, 452.6182
277.2518, 439.3643
277.7339, 425.8545
278.2160, 412.4194
278.6982, 397.7817
279.1803, 387.2021
279.6624, 370.9604
280.1445, 341.4185
280.6266, 301.6260
281.1087, 261.0332
281.5909, 226.2988
282.0730, 197.4185
282.5551, 175.3804
283.0372, 166.2622
283.5193, 156.8442
284.0014, 142.1250
284.4836, 124.2979
284.9657, 107.6172
285.4478, 95.33643
285.9299, 84.98633
286.4120, 68.56445
286.8941, 40.73145
287.3763, 18.97119
287.8584, 9.803711
288.3405, 9.048340
288.8226, 15.00391
289.3047, 29.34131
289.7868, 42.67529
290.2690, 37.17285
290.7511, 9.176758
291.2332, 4.591797
291.7153, 25.75586
292.1974, 62.19922
292.6795, 67.22266
293.1617, 34.74707
293.6438, 3.798828
294.1259, 27.58105
294.6080, 37.77881
295.0901, 39.62061
295.5722, 29.34424
296.0544, 18.19336
296.5365, 19.74658
297.0186, 32.88867
297.5007, 42.83838
297.9828, 41.98682
298.4649, 34.91504
298.9471, 27.07520
299.4292, 18.11230
299.9113, 14.81348
300.3934, 27.14697
300.8755, 52.31860
301.3576, 69.16504
301.8398, 74.07178
302.3219, 70.84399
302.8040, 57.13013
303.2861, 35.33105
303.7682, 20.75146
304.2503, 26.09985
304.7325, 45.15869
305.2146, 45.68774
305.6967, 10.86572
306.1788, 20.76465
306.6609, 27.67676
307.1430, 8.798096
307.6252, 54.29907
308.1073, 87.73486
308.5894, 109.7593
309.0715, 86.33716
309.5536, 121.4946
310.0357, 133.1133
310.5179, 143.7275
311.0000, 187.0066
311.4821, 169.9658
311.9642, 205.7761
312.4463, 229.9907
312.9284, 251.0208
313.4106, 267.6445
313.8927, 285.2122
314.3748, 312.9688
314.8569, 333.2026
315.3390, 333.4214
315.8211, 317.6423
316.3033, 299.5264
316.7854, 289.8481
317.2675, 287.5259
317.7496, 279.4148
318.2317, 268.1147
318.7138, 246.5344
319.1960, 206.7793
319.6781, 158.2795
320.1602, 112.1431
320.6423, 72.69482
321.1244, 22.14460
321.6065, 28.24126
322.0887, 26.21979
322.5708, 16.63388
323.0529, -29.38259
323.5350, -23.61893
324.0171, -35.70938
324.4992, -46.54913
324.9814, -27.58464
325.4635, -57.66143
325.9456, -35.00010
326.4277, -30.49725
326.9098, -14.66945
327.3919, -16.81887
327.8741, -10.70665
328.3562, 17.52332
328.8383, 36.71818
329.3204, 40.53387
329.8025, 51.91284
330.2846, 75.13013
330.7668, 100.1028
331.2489, 123.6125
331.7310, 141.6658
332.2131, 156.1807
332.6952, 174.7749
333.1773, 196.1899
333.6595, 223.3501
334.1415, 257.6494
334.6237, 299.1021
335.1058, 350.0710
335.5879, 415.0781
336.0700, 484.3870
336.5521, 529.0696
337.0342, 523.8828
337.5164, 541.8247
337.9985, 603.2783
338.4806, 690.4119
338.9627, 790.1746
339.4448, 897.5349
339.9269, 1001.158
340.4091, 1084.442
340.8912, 1135.725
341.3733, 1209.725
341.8554, 1312.355
342.3375, 1428.189
342.8196, 1553.399
343.3018, 1685.041
343.7839, 1821.019
344.2660, 1960.923
344.7481, 2103.163
345.2302, 2233.937
345.7123, 2328.367
346.1945, 2444.106
346.6766, 2610.632
347.1587, 2796.365
347.6408, 2967.569
348.1229, 3112.605
348.6050, 3236.581
349.0872, 3346.348
349.5693, 3443.117
350.0514, 3529.909
350.5335, 3619.661
351.0156, 3691.718
351.4977, 3731.510
351.9799, 3737.780
352.4620, 3715.300
352.9441, 3660.013
353.4262, 3579.250
353.9083, 3496.370
354.3904, 3413.688
354.8726, 3323.850
355.3547, 3217.150
355.8368, 3100.150
356.3189, 2987.469
356.8010, 2878.968
357.2831, 2777.815
357.7653, 2683.665
358.2474, 2596.510
358.7295, 2523.217
359.2116, 2470.854
359.6937, 2434.147
360.1758, 2395.438
360.6580, 2347.911
361.1401, 2313.109
361.6222, 2305.551
362.1043, 2307.639
362.5864, 2295.219
363.0685, 2265.093
363.5507, 2236.202
364.0328, 2228.615
364.5149, 2245.368
364.9970, 2262.992
365.4791, 2284.990
365.9612, 2308.772
366.4434, 2335.251
366.9255, 2361.819
367.4076, 2384.468
367.8897, 2399.311
368.3718, 2408.172
368.8539, 2420.534
369.3361, 2445.367
369.8182, 2459.214
370.3003, 2447.869
370.7824, 2430.592
371.2645, 2427.219
371.7466, 2443.141
372.2288, 2464.376
372.7109, 2475.346
373.1930, 2475.868
373.6751, 2468.909
374.1572, 2446.081
374.6393, 2425.636
375.1215, 2421.708
375.6036, 2430.834
376.0857, 2438.640
376.5678, 2437.860
377.0499, 2431.300
377.5320, 2423.946
378.0142, 2415.722
378.4963, 2402.675
378.9784, 2383.876
379.4605, 2357.768
379.9426, 2322.004
380.4247, 2267.608
380.9069, 2217.683
381.3890, 2187.485
381.8711, 2167.769
382.3532, 2140.329
382.8353, 2100.067
383.3174, 2054.372
383.7996, 2013.557
384.2817, 1981.650
384.7638, 1933.957
385.2459, 1851.079
385.7280, 1768.516
386.2101, 1717.123
386.6923, 1689.063
387.1744, 1651.262
387.6565, 1577.607
388.1386, 1474.909
388.6207, 1392.432
389.1028, 1354.688
389.5850, 1304.635
390.0671, 1216.823
390.5492, 1121.534
391.0313, 1053.460
391.5134, 1022.504
391.9955, 1001.257
392.4777, 951.1636
392.9598, 868.5220
393.4419, 800.1067
393.9240, 762.8203
394.4061, 727.2007
394.8882, 671.4148
395.3704, 601.1228
395.8525, 537.3938
396.3346, 491.1758
396.8167, 456.9834
397.2988, 429.9417
397.7809, 410.5903
398.2631, 386.7229
398.7452, 348.8015
399.2273, 304.0784
399.7094, 269.6807
400.1915, 248.8059
400.6736, 231.5566
401.1558, 213.2229
401.6379, 196.2607
402.1200, 187.5994
402.6021, 188.6204
403.0842, 187.3267
403.5663, 167.9910
404.0485, 124.3804
404.5306, 94.84595
405.0127, 88.93286
405.4948, 85.33252
405.9769, 78.91577
406.4590, 66.98828
406.9412, 43.54297
407.4233, 4.082764
407.9054, 42.43848
408.3875, 68.93213
408.8696, 67.89160
409.3517, 61.89893
409.8339, 46.98730
410.3160, 33.60547
410.7981, 30.13574
411.2802, 37.01123
411.7623, 47.55298
412.2444, 58.11694
412.7266, 68.04126
413.2087, 74.31616
413.6908, 76.34790
414.1729, 75.68481
414.6550, 72.97168
415.1371, 68.23267
415.6193, 60.52417
416.1014, 44.92773
416.5835, 32.48340
417.0656, 35.60278
417.5477, 49.11548
418.0298, 57.58789
418.5120, 56.41040
418.9941, 46.41284
419.4762, 27.22559
419.9583, 6.256348
420.4404, 32.94775
420.9225, 52.85059
421.4047, 65.32251
421.8868, 62.47339
422.3689, 50.30884
422.8510, 49.27026
423.3331, 75.68042
423.8152, 121.6562
424.2974, 143.8425
424.7795, 120.8196
425.2616, 105.5320
425.7437, 109.2561
426.2258, 120.8923
426.7079, 131.5625
427.1901, 139.0393
427.6722, 144.9155
428.1543, 150.3743
428.6364, 155.4429
429.1185, 161.6250
429.6006, 171.4482
430.0828, 177.9021
430.5649, 171.6375
431.0470, 159.1089
431.5291, 154.4004
432.0112, 167.0178
432.4933, 181.8691
432.9755, 185.2466
433.4576, 179.5835
433.9397, 174.0540
434.4218, 171.4238
434.9039, 171.6140
435.3860, 175.2188
435.8682, 184.3740
436.3503, 190.1282
436.8324, 185.8064
437.3145, 182.9409
437.7966, 192.4236
438.2787, 211.6379
438.7609, 229.4565
439.2430, 238.5586
439.7251, 240.2483
440.2072, 240.5627
440.6893, 236.3101
441.1714, 236.1641
441.6536, 238.9202
442.1357, 247.2419
442.6178, 266.7666
443.0999, 297.0750
443.5820, 326.2249
444.0641, 339.5557
444.5463, 340.6531
445.0284, 353.8005
445.5105, 385.6726
445.9926, 415.9465
446.4747, 424.2485
446.9568, 422.8037
447.4390, 435.2847
447.9211, 470.1838
448.4032, 513.0557
448.8853, 559.6958
449.3674, 606.8740
449.8495, 647.0752
450.3317, 677.3916
450.8138, 702.6445
451.2959, 727.5061
451.7780, 749.5713
452.2601, 782.5068
452.7422, 834.3013
453.2244, 888.1792
453.7065, 937.4619
454.1886, 982.1187
454.6707, 1021.777
455.1528, 1055.184
455.6349, 1089.439
456.1171, 1143.881
456.5992, 1228.203
457.0813, 1304.901
457.5634, 1360.727
458.0455, 1414.027
458.5276, 1475.501
459.0098, 1544.845
459.4919, 1614.755
459.9740, 1683.826
460.4561, 1749.789
460.9382, 1804.510
461.4203, 1847.180
461.9025, 1895.492
462.3846, 1963.623
462.8667, 2039.901
463.3488, 2096.440
463.8309, 2127.870
464.3130, 2154.804
464.7952, 2185.303
465.2773, 2212.861
465.7594, 2223.333
466.2415, 2218.406
466.7236, 2217.655
467.2057, 2238.952
467.6879, 2281.075
468.1700, 2308.534
468.6521, 2303.993
469.1342, 2303.267
469.6163, 2322.920
470.0984, 2343.232
470.5806, 2339.273
471.0627, 2305.761
471.5448, 2267.588
472.0269, 2253.892
472.5090, 2262.278
472.9911, 2264.404
473.4733, 2258.000
473.9554, 2246.833
474.4375, 2233.680
474.9196, 2216.392
475.4017, 2189.562
475.8839, 2141.752
476.3660, 2099.033
476.8481, 2082.611
477.3302, 2083.682
477.8123, 2082.883
478.2944, 2074.120
478.7766, 2060.644
479.2587, 2046.572
479.7408, 2032.224
480.2229, 2015.307
480.7050, 1987.772
481.1871, 1966.544
481.6693, 1961.493
482.1514, 1966.784
482.6335, 1973.694
483.1156, 1978.555
483.5977, 1980.387
484.0798, 1975.688
484.5620, 1962.776
485.0441, 1955.445
485.5262, 1956.812
486.0083, 1962.812
486.4904, 1972.659
486.9725, 1984.891
487.4547, 1994.430
487.9368, 1997.283
488.4189, 1998.504
488.9010, 2000.704
489.3831, 2004.981
489.8652, 2016.372
490.3474, 2036.948
490.8295, 2064.875
491.3116, 2097.680
491.7937, 2135.621
492.2758, 2178.798
492.7579, 2234.499
493.2401, 2288.509
493.7222, 2329.534
494.2043, 2362.592
494.6864, 2400.458
495.1685, 2450.125
495.6506, 2508.880
496.1328, 2571.952
496.6149, 2641.826
497.0970, 2708.332
497.5791, 2767.077
498.0612, 2824.329
498.5433, 2883.294
499.0254, 2944.132
499.5075, 3005.790
499.9897, 3072.511
500.4718, 3136.832
500.9539, 3189.769
501.4360, 3231.796
501.9181, 3269.166
502.4002, 3307.363
502.8824, 3335.604
503.3645, 3333.266
503.8466, 3290.311
504.3287, 3239.282
504.8108, 3179.149
505.2929, 3112.812
505.7751, 3046.154
506.2572, 2975.012
506.7393, 2886.040
507.2214, 2771.027
507.7035, 2638.977
508.1856, 2511.699
508.6678, 2388.780
509.1499, 2273.398
509.6320, 2177.863
510.1141, 2080.720
510.5962, 1961.180
511.0783, 1824.096
511.5605, 1697.280
512.0426, 1599.829
512.5247, 1511.598
513.0068, 1409.021
513.4890, 1294.493
513.9711, 1178.796
514.4532, 1063.491
514.9353, 956.1965
515.4174, 874.1519
515.8995, 829.9478
516.3817, 783.8369
516.8638, 731.2009
517.3459, 676.9185
517.8280, 625.0940
518.3101, 577.5918
518.7922, 535.6150
519.2744, 499.2522
519.7565, 464.9292
520.2386, 420.9500
520.7207, 362.3445
521.2028, 325.7234
521.6849, 328.2861
522.1671, 342.5300
522.6492, 348.8066
523.1313, 347.9661
523.6134, 345.5696
524.0955, 343.4797
524.5776, 341.8721
525.0598, 337.2458
525.5419, 331.7437
526.0240, 333.3296
526.5061, 344.6985
526.9882, 362.3904
527.4703, 382.4844
527.9525, 407.1062
528.4346, 427.2007
528.9167, 430.6946
529.3988, 442.9907
529.8809, 481.7339
530.3630, 533.6599
530.8452, 576.4106
531.3273, 600.4788
531.8094, 619.0559
532.2915, 651.9583
532.7736, 698.2429
533.2557, 733.1462
533.7379, 747.0630
534.2200, 763.3225
534.7021, 800.1953
535.1842, 854.1040
535.6663, 913.7502
536.1484, 993.5291
536.6306, 1060.974
537.1127, 1087.154
537.5948, 1096.103
538.0769, 1126.318
538.5590, 1185.838
539.0411, 1252.570
539.5233, 1304.148
540.0054, 1340.243
540.4875, 1374.875
540.9696, 1414.866
541.4517, 1442.863
541.9338, 1444.694
542.4160, 1438.822
542.8981, 1447.249
543.3802, 1474.357
543.8623, 1498.079
544.3444, 1500.146
544.8265, 1486.697
545.3087, 1469.494
545.7908, 1448.931
546.2729, 1433.027
546.7550, 1429.757
547.2371, 1432.310
547.7192, 1418.810
548.2014, 1384.453
548.6835, 1343.999
549.1656, 1296.205
549.6477, 1245.288
550.1298, 1191.843
550.6119, 1138.067
551.0941, 1089.611
551.5762, 1051.607
552.0583, 1019.297
552.5404, 979.9980
553.0225, 932.7627
553.5046, 884.1987
553.9868, 837.0164
554.4689, 788.2759
554.9510, 732.5325
555.4331, 671.5835
555.9152, 617.1768
556.3973, 580.2297
556.8795, 545.2332
557.3616, 495.6470
557.8437, 437.9209
558.3258, 389.6033
558.8079, 356.8069
559.2900, 334.2068
559.7722, 315.3840
560.2543, 303.0688
560.7364, 280.8225
561.2185, 232.9912
561.7006, 191.8647
562.1827, 170.0315
562.6649, 159.4370
563.1470, 150.8018
563.6291, 141.7556
564.1112, 127.7007
564.5933, 99.90283
565.0754, 63.36230
565.5576, 35.43311
566.0397, 18.63647
566.5218, 4.198242
567.0039, 13.82788
567.4860, 34.14404
567.9681, 51.27710
568.4503, 69.34863
568.9324, 79.34058
569.4145, 74.32617
569.8966, 64.64941
570.3787, 58.83423
570.8608, 56.94653
571.3430, 53.73535
571.8251, 44.31665
572.3072, 33.35669
572.7893, 36.87915
573.2714, 59.35107
573.7535, 66.06909
574.2357, 34.96704
574.7178, 0.1149900
575.1999, 1.178223
575.6820, 27.05762
576.1641, 50.17310
576.6462, 59.76953
577.1284, 61.99585
577.6105, 58.79663
578.0926, 51.84399
578.5747, 43.68823
579.0568, 35.04883
579.5389, 25.10669
580.0211, 11.22021
580.5032, 7.896484
580.9852, 14.56543
581.4673, 2.997559
581.9495, 18.37744
582.4316, 24.32446
582.9137, 22.49072
583.3958, 15.21924
583.8779, 2.140869
584.3600, 12.45264
584.8422, 27.63892
585.3243, 42.00537
585.8064, 50.93140
586.2885, 54.71289
586.7706, 54.74878
587.2527, 51.77197
587.7349, 46.55835
588.2170, 41.56348
588.6991, 35.05615
589.1812, 32.76245
589.6633, 37.61133
590.1454, 43.24023
590.6276, 46.19604
591.1097, 47.10718
591.5918, 47.29175
592.0739, 46.35205
592.5560, 49.00903
593.0381, 66.82764
593.5203, 94.79932
594.0024, 104.9243
594.4845, 89.26001
594.9666, 71.22119
595.4487, 70.06714
595.9308, 83.97021
596.4130, 94.31250
596.8951, 101.8186
597.3772, 105.0100
597.8593, 97.12598
598.3414, 89.08179
598.8235, 93.51074
599.3057, 109.3164
599.7878, 123.9468
600.2699, 128.3701
600.7520, 124.6567
601.2341, 92.53467
601.7162, 120.5002
602.1984, 136.3677
602.6805, 140.8967
603.1626, 100.1492
603.6447, 118.1333
604.1268, 112.6221
604.6089, 106.1394
605.0911, 132.4565
605.5732, 98.59595
606.0553, 124.4861
606.5374, 126.4182
607.0195, 139.1467
607.5016, 128.1396
607.9838, 124.3552
608.4659, 144.1206
608.9480, 150.6653
609.4301, 136.5676
609.9122, 149.5566
610.3943, 114.2468
610.8765, 121.3486
611.3586, 146.7070
611.8407, 133.8042
612.3228, 147.2502
612.8049, 135.7229
613.2870, 142.8835
613.7692, 148.7908
614.2513, 154.5276
614.7334, 159.4395
615.2155, 161.1448
615.6976, 158.6831
616.1797, 155.5300
616.6619, 157.6921
617.1440, 166.2170
617.6261, 172.4187
618.1082, 176.5344
618.5903, 177.9451
619.0724, 173.4497
619.5546, 166.5603
620.0367, 162.9304
620.5188, 164.4346
621.0009, 163.7028
621.4830, 151.1899
621.9651, 139.3040
622.4473, 147.7061
622.9294, 170.9740
623.4115, 183.5991
623.8936, 171.8228
624.3757, 147.2158
624.8578, 131.2195
625.3400, 124.5112
625.8221, 123.6674
626.3042, 135.6252
626.7863, 144.3119
627.2684, 143.0854
627.7505, 134.9270
628.2327, 122.4653
628.7148, 103.1689
629.1969, 90.92249
629.6790, 100.4502
630.1611, 118.6843
630.6432, 126.4158
631.1254, 122.0938
631.6075, 115.2467
632.0896, 112.7340
632.5717, 113.8496
633.0538, 115.5719
633.5359, 118.7621
634.0181, 114.9697
634.5002, 95.20032
634.9823, 78.94177
635.4644, 78.97510
635.9465, 89.01343
636.4286, 95.89819
636.9108, 96.19629
637.3929, 93.28406
637.8750, 88.38171
638.3571, 52.30481
638.8392, 81.49756
639.3214, 97.37903
639.8035, 100.3497
640.2856, 56.99365
640.7677, 72.05090
641.2498, 64.11804
641.7319, 56.16333
642.2141, 81.62231
642.6962, 46.93311
643.1783, 72.01050
643.6604, 73.39343
644.1425, 85.76843
644.6246, 78.56824
645.1068, 85.80493
645.5889, 90.38831
646.0710, 82.17566
646.5531, 69.56262
647.0352, 64.15894
647.5173, 67.48474
647.9995, 79.06042
648.4816, 100.2894
648.9637, 125.2104
649.4458, 133.0819
649.9279, 116.0104
650.4100, 105.0422
650.8922, 108.7897
651.3743, 113.7628
651.8564, 112.2401
652.3385, 105.8679
652.8206, 98.76868
653.3027, 90.61218
653.7849, 85.83960
654.2670, 87.40515
654.7491, 94.22913
655.2312, 108.0416
655.7133, 126.4740
656.1954, 138.1770
656.6776, 134.9194
657.1597, 122.3981
657.6418, 115.8119
658.1239, 116.6010
658.6060, 120.8479
659.0881, 133.4695
659.5703, 141.5538
660.0524, 134.9585
660.5345, 119.7330
661.0166, 108.6692
661.4987, 105.8978
661.9808, 103.5790
662.4630, 95.90869
662.9451, 87.84119
663.4272, 85.84058
663.9093, 89.62012
664.3914, 94.44336
664.8735, 97.48401
665.3557, 99.61462
665.8378, 103.5186
666.3199, 110.0527
666.8020, 111.8936
667.2841, 105.9799
667.7662, 99.30078
668.2484, 96.91150
668.7305, 96.87512
669.2126, 94.76831
669.6947, 88.89319
670.1768, 83.93689
670.6589, 80.95630
671.1411, 79.87268
671.6232, 80.42480
672.1053, 82.75488
672.5874, 88.86072
673.0695, 100.2992
673.5516, 110.0720
674.0338, 104.9917
674.5159, 85.50854
674.9980, 67.01074
675.4801, 48.06165
675.9622, 38.56738
676.4443, 47.79944
676.9265, 68.97119
677.4086, 86.10266
677.8907, 102.2096
678.3728, 107.4740
678.8549, 91.44373
679.3370, 72.86987
679.8192, 58.99829
680.3013, 52.58862
680.7834, 60.85315
681.2655, 86.46899
681.7476, 109.2562
682.2297, 101.3658
682.7119, 71.69141
683.1940, 52.57227
683.6761, 46.04395
684.1582, 46.20947
684.6403, 52.46155
685.1224, 59.71033
685.6046, 58.25085
686.0867, 43.66150
686.5688, 34.25696
687.0509, 36.35730
687.5330, 36.32349
688.0151, 23.19995
688.4973, 7.944092
688.9794, 7.708252
689.4615, 25.44580
689.9436, 41.07031
690.4257, 37.06848
690.9078, 23.92151
691.3900, 16.02380
691.8721, 13.52490
692.3542, 16.07678
692.8363, 23.89355
693.3184, 32.99890
693.8005, 38.82251
694.2827, 41.48877
694.7648, 35.57800
695.2469, 11.05969
695.7290, 5.940796
696.2111, 6.700928
696.6932, 0.6710210
697.1754, 11.75061
697.6575, 24.88550
698.1396, 32.02026
698.6217, 25.99963
699.1038, 17.03662
699.5859, 14.18909
700.0681, 15.23218
700.5502, 12.95264
701.0323, 7.300903
701.5144, 4.008423
701.9965, 10.20251
702.4786, 20.90015
702.9608, 15.91711
703.4429, 8.739014
703.9250, 27.15955
704.4071, 34.14014
704.8892, 33.69214
705.3713, 26.54529
705.8535, 14.31482
706.3356, 4.256104
706.8177, 4.311157
707.2998, 9.104858
707.7819, 8.034424
708.2640, 4.583862
708.7462, 1.186523
709.2283, 6.936401
709.7104, 6.246216
710.1925, 5.133301
710.6746, 17.80408
711.1567, 18.60742
711.6389, 9.758179
712.1210, 0.3696290
712.6031, 10.84534
713.0852, 14.62512
713.5673, 6.663818
714.0494, 8.522705
714.5316, 20.94116
715.0137, 33.38477
715.4958, 35.99744
715.9779, 13.33032
716.4600, 1.466553
716.9421, 10.17529
717.4243, 34.52722
717.9064, 54.31860
718.3885, 65.87280
718.8706, 69.06238
719.3527, 55.24048
719.8348, 39.44336
720.3170, 39.46729
720.7991, 52.17822
721.2812, 68.20386
721.7633, 84.06250
722.2454, 96.14111
722.7275, 99.04785
723.2097, 93.73901
723.6918, 91.39380
724.1739, 91.12158
724.6560, 97.14551
725.1381, 112.9253
725.6202, 132.7920
726.1024, 153.1382
726.5845, 173.5298
727.0666, 186.4922
727.5487, 186.3333
728.0308, 185.0046
728.5129, 187.6318
728.9951, 190.2271
729.4772, 185.9578
729.9593, 177.1526
730.4414, 173.7051
730.9235, 181.1216
731.4056, 197.5208
731.8878, 226.7568
732.3699, 263.1682
732.8520, 281.5249
733.3341, 277.8567
733.8162, 272.5850
734.2983, 279.0332
734.7805, 294.2590
735.2626, 310.0286
735.7447, 328.8738
736.2268, 341.6116
736.7089, 344.0427
737.1910, 344.2534
737.6732, 343.0535
738.1553, 342.7637
738.6374, 347.3203
739.1195, 358.0920
739.6016, 369.2329
740.0837, 380.7534
740.5659, 388.7346
741.0480, 391.0044
741.5301, 387.1682
742.0122, 374.5542
742.4943, 353.3181
742.9764, 331.1309
743.4586, 316.0693
743.9407, 305.7908
744.4228, 290.3733
744.9049, 269.4153
745.3870, 256.6267
745.8691, 258.3372
746.3513, 260.8711
746.8334, 251.0413
747.3155, 230.2971
747.7976, 211.8787
748.2797, 194.8137
748.7618, 179.6624
749.2440, 167.4460
749.7261, 156.6841
750.2082, 147.1909
750.6903, 138.4810
751.1724, 129.3501
751.6545, 119.3359
752.1367, 108.3713
752.6188, 94.10742
753.1009, 65.16286
753.5830, 77.32836
754.0651, 82.05455
754.5472, 79.75243
755.0294, 48.77309
755.5115, 55.27846
755.9936, 47.03967
756.4757, 38.38658
756.9578, 50.73417
757.4399, 24.94804
757.9221, 37.36163
758.4042, 34.80495
758.8863, 39.38914
759.3684, 29.13749
759.8505, 23.72782
760.3326, 33.55590
760.8148, 35.25423
761.2969, 24.06573
761.7790, 30.28159
762.2611, 5.953697
762.7432, 8.800846
763.2253, 23.48574
763.7075, 14.04453
764.1896, 21.52734
764.6717, 22.83851
765.1538, -4.600384
765.6359, 18.50338
766.1180, 20.03329
766.6002, -0.5937459
767.0823, 21.38015
767.5644, 4.231810
768.0465, 1.316918
768.5286, 9.162714
769.0107, 6.195932
769.4929, 20.78783
769.9750, 18.85365
770.4571, 15.62383
770.9392, 19.11320
771.4213, 4.323007
771.9034, 24.01122
772.3856, 20.48238
772.8677, 28.79074
773.3498, 39.93611
773.8319, 31.07844
774.3140, 43.80601
774.7961, 61.13867
775.2783, 84.38623
775.7604, 101.7295
776.2425, 112.7725
776.7246, 112.5273
777.2067, 112.6511
777.6888, 125.4172
778.1710, 146.7605
778.6531, 169.4402
779.1352, 192.0608
779.6173, 214.0291
780.0994, 234.5146
780.5815, 255.8486
781.0637, 283.6313
781.5458, 318.0735
782.0279, 352.3362
782.5100, 386.8779
782.9921, 417.5132
783.4742, 440.0879
783.9564, 459.3640
784.4385, 482.5374
784.9206, 508.5979
785.4027, 543.3916
785.8848, 596.1011
786.3669, 645.7551
786.8491, 683.1008
787.3312, 716.6199
787.8133, 756.9316
788.2954, 802.9907
788.7775, 843.0049
789.2596, 860.9385
789.7418, 885.4216
790.2239, 946.7744
790.7060, 1024.883
791.1881, 1088.460
791.6702, 1136.719
792.1523, 1188.581
792.6345, 1255.026
793.1166, 1330.333
793.5987, 1407.613
794.0808, 1486.041
794.5629, 1558.460
795.0450, 1624.020
795.5272, 1688.222
796.0093, 1751.865
796.4914, 1819.430
796.9735, 1899.219
797.4556, 1993.576
797.9377, 2079.621
798.4199, 2148.882
798.9020, 2222.184
799.3841, 2311.484
799.8662, 2399.470
800.3483, 2467.737
800.8304, 2520.391
801.3126, 2581.525
801.7947, 2667.758
802.2768, 2746.146
802.7589, 2795.223
803.2410, 2835.242
803.7231, 2893.289
804.2053, 2959.215
804.6874, 2998.508
805.1695, 2995.078
805.6516, 2987.050
806.1337, 3026.061
806.6158, 3087.611
807.0980, 3108.445
807.5801, 3092.849
808.0622, 3088.309
808.5443, 3111.734
809.0264, 3137.350
809.5085, 3135.876
809.9907, 3110.368
810.4728, 3087.059
810.9549, 3069.099
811.4370, 3040.621
811.9191, 2990.253
812.4012, 2942.275
812.8834, 2918.090
813.3655, 2910.493
813.8476, 2894.044
814.3297, 2864.158
814.8118, 2837.343
815.2939, 2814.243
815.7761, 2794.541
816.2582, 2775.740
816.7403, 2761.680
817.2224, 2763.260
817.7045, 2781.510
818.1866, 2786.558
818.6688, 2749.785
819.1509, 2704.208
819.6330, 2670.770
820.1151, 2651.890
820.5972, 2660.232
821.0793, 2691.100
821.5615, 2709.660
822.0436, 2688.874
822.5257, 2652.057
823.0078, 2646.571
823.4899, 2665.266
823.9720, 2662.989
824.4542, 2634.943
824.9363, 2598.719
825.4184, 2561.567
825.9005, 2528.748
826.3826, 2511.019
826.8647, 2511.287
827.3469, 2498.972
827.8290, 2466.064
828.3111, 2435.775
828.7932, 2410.272
829.2753, 2394.695
829.7574, 2395.453
830.2396, 2410.925
830.7217, 2431.066
831.2038, 2459.425
831.6859, 2486.493
832.1680, 2506.209
832.6501, 2528.273
833.1323, 2560.438
833.6144, 2599.920
834.0965, 2639.136
834.5786, 2674.936
835.0607, 2720.026
835.5428, 2791.824
836.0250, 2869.169
836.5071, 2919.463
836.9892, 2960.066
837.4713, 3033.931
837.9534, 3147.885
838.4355, 3267.168
838.9177, 3359.095
839.3998, 3447.066
839.8819, 3589.430
840.3640, 3776.141
840.8461, 3934.631
841.3282, 4053.430
841.8104, 4190.511
842.2925, 4382.997
842.7746, 4601.579
843.2567, 4783.916
843.7388, 4919.862
844.2209, 5103.836
844.7031, 5350.886
845.1852, 5612.373
845.6673, 5878.235
846.1494, 6145.546
846.6315, 6410.924
847.1136, 6674.393
847.5958, 6953.881
848.0779, 7254.010
848.5600, 7562.732
849.0421, 7890.521
849.5242, 8216.418
850.0063, 8542.164
850.4885, 8853.595
850.9706, 9128.175
851.4527, 9361.156
851.9348, 9553.857
852.4169, 9701.495
852.8990, 9814.407
853.3812, 9913.656
853.8633, 9979.039
854.3454, 9977.013
854.8275, 9902.967
855.3096, 9777.791
855.7917, 9616.353
856.2739, 9413.299
856.7560, 9151.323
857.2381, 8843.510
857.7202, 8522.993
858.2023, 8194.740
858.6844, 7851.527
859.1666, 7486.077
859.6487, 7119.312
860.1308, 6782.177
860.6129, 6473.005
861.0950, 6174.720
861.5771, 5884.604
862.0593, 5610.386
862.5414, 5353.080
863.0235, 5119.316
863.5056, 4917.800
863.9877, 4745.261
864.4698, 4585.056
864.9520, 4440.378
865.4341, 4296.120
865.9162, 4146.552
866.3983, 4005.381
866.8804, 3879.247
867.3625, 3764.459
867.8447, 3658.000
868.3268, 3560.865
868.8089, 3476.683
869.2910, 3426.934
869.7731, 3362.542
870.2552, 3253.286
870.7374, 3133.992
871.2195, 3033.867
871.7016, 2952.998
872.1837, 2878.063
872.6658, 2806.336
873.1479, 2733.238
873.6301, 2658.070
874.1122, 2577.748
874.5943, 2486.170
875.0764, 2386.931
875.5585, 2284.429
876.0406, 2180.959
876.5228, 2087.448
877.0049, 2018.248
877.4870, 1955.774
877.9691, 1874.111
878.4512, 1778.145
878.9333, 1674.213
879.4155, 1566.005
879.8976, 1474.637
880.3797, 1413.842
880.8618, 1366.011
881.3439, 1301.892
881.8260, 1224.024
882.3082, 1156.989
882.7903, 1101.755
883.2724, 1050.888
883.7545, 1003.383
884.2366, 954.1047
884.7188, 897.6833
885.2009, 836.2747
885.6830, 779.9211
886.1651, 725.0449
886.6472, 689.4307
887.1293, 684.0247
887.6115, 678.9707
888.0936, 660.0244
888.5757, 632.0291
889.0578, 601.5120
889.5399, 567.3936
890.0220, 538.6003
890.5042, 519.2590
890.9863, 498.8445
891.4684, 473.1790
891.9505, 448.0200
892.4326, 424.9277
892.9147, 405.6216
893.3969, 396.8079
893.8790, 407.6675
894.3611, 406.1045
894.8432, 375.8887
895.3253, 337.6172
895.8074, 294.7185
896.2896, 256.8860
896.7717, 239.9199
897.2538, 242.8110
897.7359, 243.6577
898.2180, 233.4209
898.7001, 214.6583
899.1823, 178.2772
899.6644, 142.1694
900.1465, 134.5781
900.6286, 147.0260
901.1107, 149.7462
901.5928, 131.7246
902.0750, 107.4182
902.5571, 86.93274
903.0392, 71.06287
903.5213, 61.48596
904.0034, 57.28174
904.4855, 58.28442
904.9677, 63.07910
905.4498, 63.29590
905.9319, 53.07043
906.4140, 37.83118
906.8961, 25.78223
907.3782, 16.69922
907.8604, 9.508789
908.3425, 4.172241
908.8246, 0.8156740
909.3067, 0.2236330
909.7888, 2.679565
910.2709, 11.05737
910.7530, 23.39417
911.2351, 32.17383
911.7172, 38.14417
912.1993, 31.62170
912.6815, 5.304321
913.1636, 9.090576
913.6457, 10.26282
914.1278, 41.13318
914.6099, 46.20496
915.0920, 22.59436
915.5742, 15.92883
916.0563, 36.86426
916.5384, 51.92542
917.0205, 51.05701
917.5026, 47.62122
917.9847, 51.33606
918.4669, 59.65405
918.9490, 65.06970
919.4311, 67.08167
919.9132, 67.73462
920.3953, 64.41016
920.8774, 63.06519
921.3596, 69.66028
921.8417, 75.99939
922.3238, 72.43921
922.8059, 60.73804
923.2880, 52.47815
923.7701, 55.40552
924.2523, 51.73792
924.7344, 27.55151
925.2165, 5.278442
925.6986, 2.093872
926.1807, 8.240601
926.6628, 8.812012
927.1450, 1.552002
927.6271, 6.963135
928.1092, 18.30640
928.5913, 24.75513
929.0734, 18.09924
929.5555, 7.546387
930.0377, 1.804810
930.5198, 0.5833740
931.0019, 0.5096440
931.4840, 0.4544680
931.9661, 1.770996
932.4482, 6.738403
932.9304, 12.24390
933.4125, 13.28845
933.8946, 13.62292
934.3767, 22.36121
934.8588, 37.46143
935.3409, 44.64160
935.8231, 35.67517
936.3052, 26.35120
936.7873, 37.32300
937.2694, 57.40979
937.7515, 68.08826
938.2336, 70.67114
938.7158, 71.21802
939.1979, 71.20264
939.6800, 68.74280
940.1621, 61.66370
940.6442, 54.15234
941.1263, 53.89880
941.6085, 59.11377
942.0906, 65.09265
942.5727, 70.94312
943.0548, 72.64160
943.5369, 68.83081
944.0190, 65.09558
944.5012, 67.17053
944.9833, 73.53906
945.4654, 80.99158
945.9475, 89.10596
946.4296, 91.71655
946.9117, 88.09473
947.3939, 86.60291
947.8760, 91.53296
948.3581, 98.01477
948.8402, 98.80554
949.3223, 95.43066
949.8044, 102.5212
950.2866, 121.5820
950.7687, 131.6241
951.2508, 127.1294
951.7329, 124.6409
952.2150, 136.0448
952.6971, 151.7694
953.1793, 152.4998
953.6614, 136.9528
954.1435, 126.0197
954.6256, 119.4647
955.1077, 118.7212
955.5898, 125.5046
956.0720, 134.9312
956.5541, 143.9349
957.0362, 152.2726
957.5183, 159.1754
958.0004, 164.5359
958.4825, 168.2070
958.9647, 169.4840
959.4468, 170.5848
959.9289, 170.4502
960.4110, 172.8970
960.8931, 182.5906
961.3752, 197.8519
961.8574, 211.2218
962.3395, 228.9827
962.8216, 230.4198
963.3037, 196.0619
963.7858, 174.2214
964.2679, 192.3711
964.7501, 222.3690
965.2322, 234.5579
965.7143, 230.4535
966.1964, 227.5020
966.6785, 225.1924
967.1606, 224.4834
967.6428, 226.5165
968.1249, 228.6316
968.6070, 230.8478
969.0891, 231.2177
969.5712, 225.9607
970.0533, 215.9558
970.5355, 212.1394
971.0176, 214.1643
971.4997, 220.5355
971.9818, 240.1853
972.4639, 253.5553
972.9460, 245.1018
973.4282, 226.6938
973.9103, 216.3760
974.3924, 216.4232
974.8745, 217.8669
975.3566, 218.7666
975.8387, 220.0510
976.3209, 225.2632
976.8030, 227.5875
977.2851, 220.6465
977.7672, 208.4941
978.2493, 198.8566
978.7314, 192.7974
979.2136, 186.1454
979.6957, 175.3671
980.1778, 167.9113
980.6599, 170.7028
981.1420, 174.2957
981.6241, 169.4563
982.1063, 159.6780
982.5884, 154.7874
983.0705, 157.0176
983.5526, 155.5853
984.0347, 145.7916
984.5168, 133.0450
984.9990, 114.5034
985.4811, 99.22571
985.9632, 95.75085
986.4453, 101.9009
986.9274, 112.6500
987.4095, 128.5343
987.8917, 136.7996
988.3738, 129.4877
988.8559, 118.0383
989.3380, 106.3806
989.8201, 95.02563
990.3022, 83.56909
990.7844, 72.82336
991.2665, 63.50232
991.7486, 54.22986
992.2307, 54.88232
992.7128, 83.23120
993.1949, 106.6227
993.6771, 98.21191
994.1592, 79.78235
994.6413, 78.13611
995.1234, 90.38464
995.6055, 95.73413
996.0876, 85.67969
996.5698, 78.15332
997.0519, 83.23730
997.5340, 91.01660
998.0161, 98.39331
998.4982, 102.8672
998.9803, 99.41357
999.4625, 90.48608
999.9446, 85.25342
1000.427, 87.20544
1000.909, 90.70618
1001.391, 94.12769
1001.873, 97.02576
1002.355, 102.0928
1002.837, 104.7339
1003.319, 97.57349
1003.802, 82.51672
1004.284, 67.37756
1004.766, 51.38147
1005.248, 47.27161
1005.730, 77.38916
1006.212, 103.6624
1006.694, 93.45862
1007.176, 69.10010
1007.658, 57.87610
1008.141, 60.84888
1008.623, 66.45874
1009.105, 72.61462
1009.587, 74.91138
1010.069, 66.69934
1010.551, 59.44482
1011.033, 61.48083
1011.515, 67.84680
1011.997, 74.21484
1012.480, 79.03699
1012.962, 79.87415
1013.444, 75.63147
1013.926, 68.84338
1014.408, 53.23120
1014.890, 43.57971
1015.372, 55.29871
1015.854, 73.65149
1016.337, 81.65259
1016.819, 79.33984
1017.301, 75.10779
1017.783, 70.91687
1018.265, 66.55347
1018.747, 65.55566
1019.229, 60.28699
1019.711, 38.21680
1020.193, 16.17041
1020.676, 15.66138
1021.158, 32.62927
1021.640, 46.65576
1022.122, 54.82178
1022.604, 53.93945
1023.086, 33.13660
1023.568, 14.75940
1024.050, 12.34924
1024.533, 15.83765
1025.015, 12.26086
1025.497, 5.053467
1025.979, 10.28052
1026.461, 37.10449
1026.943, 55.35217
1027.425, 50.65271
1027.907, 45.13452
1028.390, 50.60608
1028.872, 57.39612
1029.354, 56.30627
1029.836, 48.80212
1030.318, 42.91479
1030.800, 42.94861
1031.282, 36.66528
1031.764, 6.900269
1032.246, 9.719604
1032.729, 13.17273
1033.211, 41.62598
1033.693, 47.08801
1034.175, 35.91187
1034.657, 27.64343
1035.139, 24.20618
1035.621, 21.59167
1036.103, 13.57544
1036.585, 14.44043
1037.068, 40.91003
1037.550, 64.56873
1038.032, 59.47742
1038.514, 38.01904
1038.996, 29.26294
1039.478, 35.87012
1039.960, 43.89148
1040.442, 60.99170
1040.925, 67.59412
1041.407, 52.94385
1041.889, 36.38013
1042.371, 29.50305
1042.853, 28.66638
1043.335, 26.98401
1043.817, 24.02271
1044.299, 25.15405
1044.781, 33.05725
1045.264, 39.05396
1045.746, 41.23706
1046.228, 42.50293
1046.710, 44.78357
1047.192, 46.47424
1047.674, 44.50500
1048.156, 39.00049
1048.638, 38.54285
1049.120, 45.45483
1049.603, 49.10364
1050.085, 47.66919
1050.567, 45.44177
1051.049, 44.78064
1051.531, 42.51318
1052.013, 33.42395
1052.495, 19.48157
1052.977, 15.00708
1053.460, 21.40735
1053.942, 26.47412
1054.424, 29.97046
1054.906, 24.98633
1055.388, 6.721191
1055.870, 9.335571
1056.352, 5.209961
1056.834, 12.26685
1057.317, 20.05615
1057.799, 18.39111
1058.281, 13.29504
1058.763, 5.221680
1059.245, 4.195801
1059.727, 12.79236
1060.209, 20.58948
1060.691, 18.62109
1061.173, 11.69812
1061.656, 8.375854
1062.138, 7.054932
1062.620, 6.966919
1063.102, 8.473877
1063.584, 15.92334
1064.066, 29.10767
1064.548, 37.05005
1065.030, 31.80713
1065.512, 23.28467
1065.995, 27.38232
1066.477, 37.58203
1066.959, 39.98682
1067.441, 36.25366
1067.923, 30.94873
1068.405, 25.33777
1068.887, 19.48645
1069.369, 13.32690
1069.852, 10.38635
1070.334, 19.31812
1070.816, 28.76843
1071.298, 20.72766
1071.780, 5.529297
1072.262, 0.3121340
1072.744, 3.943848
1073.226, 5.126709
1073.708, 0.3460690
1074.191, 0.4000240
1074.673, 19.16455
1075.155, 34.36841
1075.637, 14.60779
1076.119, 9.116821
1076.601, 1.987183
1077.083, 31.76501
1077.565, 44.29980
1078.047, 33.89441
1078.530, 24.37988
1079.012, 27.26208
1079.494, 29.35107
1079.976, 22.32263
1080.458, 16.26990
1080.940, 17.81335
1081.422, 24.03723
1081.904, 34.21765
1082.386, 46.19629
1082.869, 48.82092
1083.351, 33.32483
1083.833, 23.43445
1084.315, 26.63123
1084.797, 30.49170
1085.279, 35.81482
1085.761, 35.28674
1086.243, 12.51611
1086.726, 19.82263
1087.208, 20.99463
1087.690, 20.92871
1088.172, 45.64636
1088.654, 48.54834
1089.136, 42.90283
1089.618, 23.55005
1090.100, 11.84839
1090.583, 27.34802
1091.065, 51.59717
1091.547, 49.98450
1092.029, 23.48071
1092.511, 11.93213
1092.993, 17.73462
1093.475, 21.65833
1093.957, 20.72729
1094.439, 23.76099
1094.922, 36.43359
1095.404, 43.79321
1095.886, 26.08276
1096.368, 5.806641
1096.850, 16.37244
1097.332, 7.798218
1097.814, 2.581665
1098.296, 13.19202
1098.778, 19.93433
1099.261, 21.74548
1099.743, 20.59448
1100.225, 17.83862
1100.707, 14.01526
1101.189, 7.263672
1101.671, 1.423828
1102.153, 8.712524
1102.635, 22.24146
1103.118, 20.72400
1103.600, 6.358398
1104.082, 1.376587
1104.564, 17.62866
1105.046, 35.58545
1105.528, 40.17407
1106.010, 38.12048
1106.492, 31.63501
1106.974, 25.19714
1107.457, 22.77307
1107.939, 25.24329
1108.421, 37.54944
1108.903, 59.50513
1109.385, 67.27612
1109.867, 37.26025
1110.349, 11.17700
1110.831, 8.045044
1111.313, 11.75488
1111.796, 14.82678
1112.278, 16.78235
1112.760, 18.34558
1113.242, 19.09473
1113.724, 15.66187
1114.206, 2.511230
1114.688, 1.378540
1115.170, 47.16577
1115.653, 70.93616
1116.135, 31.14392
1116.617, 10.97534
1117.099, 4.497803
1117.581, 26.85364
1118.063, 26.33582
1118.545, 9.364136
1119.027, 19.21460
1119.510, 2.179199
1119.992, 21.60840
1120.474, 35.11377
1120.956, 38.35815
1121.438, 28.00220
1121.920, 13.77466
1122.402, 7.188354
1122.884, 6.966797
1123.366, 9.895508
1123.849, 15.50244
1124.331, 22.71619
1124.813, 30.25842
1125.295, 31.52612
1125.777, 25.43420
1126.259, 19.22693
1126.741, 17.71802
1127.223, 19.57703
1127.705, 26.49902
1128.188, 33.22217
1128.670, 28.34045
1129.152, 19.26001
1129.634, 22.95789
1130.116, 35.71924
1130.598, 38.20642
1131.080, 23.57910
1131.562, 7.729004
1132.045, 3.593384
1132.527, 9.335938
1133.009, 5.627686
1133.491, 0.5312500
1133.973, 3.861206
1134.455, 5.443237
1134.937, 6.524170
1135.419, 7.319824
1135.901, 8.460693
1136.384, 7.528931
1136.866, 11.55505
1137.348, 29.99634
1137.830, 40.62207
1138.312, 32.36682
1138.794, 20.18115
1139.276, 15.34326
1139.758, 15.36328
1140.240, 14.44312
1140.723, 12.48071
1141.205, 11.60425
1141.687, 12.29578
1142.169, 9.641235
1142.651, 2.135376
1143.133, 0.9038090
1143.615, 5.262817
1144.097, 14.59131
1144.580, 20.46582
1145.062, 22.91187
1145.544, 19.24426
1146.026, 11.16455
1146.508, 5.693970
1146.990, 3.758423
1147.472, 7.703247
1147.954, 17.35181
1148.437, 30.13538
1148.919, 45.75037
1149.401, 56.43750
1149.883, 46.00916
1150.365, 31.92212
1150.847, 29.07568
1151.329, 33.32849
1151.811, 43.11902
1152.293, 53.95679
1152.776, 58.66846
1153.258, 55.69617
1153.740, 45.26782
1154.222, 14.92297
1154.704, 4.604492
1155.186, 5.152466
1155.668, 15.73853
1156.150, 9.351929
1156.632, 0.2077640
1157.115, 2.827026
1157.597, 14.57288
1158.079, 27.35547
1158.561, 42.27930
1159.043, 53.59814
1159.525, 64.52466
1160.007, 54.64929
1160.489, 13.62500
1160.972, 13.26978
1161.454, 0.2816160
1161.936, 25.30627
1162.418, 28.39258
1162.900, 18.47424
1163.382, 27.24390
1163.864, 47.98865
1164.346, 50.11450
1164.828, 36.78333
1165.311, 33.22461
1165.793, 42.78406
1166.275, 41.48340
1166.757, 13.04663
1167.239, 9.262085
1167.721, 18.14355
1168.203, 52.43311
1168.685, 47.78882
1169.167, 29.01392
1169.650, 26.43372
1170.132, 34.84131
1170.614, 35.39368
1171.096, 25.20557
1171.578, 18.26514
1172.060, 20.66235
1172.542, 22.67456
1173.024, 23.30164
1173.507, 22.40051
1173.989, 18.19263
1174.471, 13.91919
1174.953, 12.66846
1175.435, 14.63269
1175.917, 21.34106
1176.399, 33.02234
1176.881, 37.59131
1177.364, 36.13196
1177.846, 27.66943
1178.328, 11.47400
1178.810, 4.180786
1179.292, 13.14600
1179.774, 26.01721
1180.256, 31.27234
1180.738, 28.96802
1181.220, 15.61853
1181.703, 1.462646
1182.185, 9.081909
1182.667, 31.14001
1183.149, 52.16821
1183.631, 67.15857
1184.113, 68.74451
1184.595, 53.76282
1185.077, 38.98401
1185.559, 32.53723
1186.042, 31.00439
1186.524, 35.45361
1187.006, 41.13098
1187.488, 47.47949
1187.970, 51.03723
1188.452, 44.56506
1188.934, 30.33008
1189.416, 25.03137
1189.899, 34.27795
1190.381, 32.65540
1190.863, 11.88135
1191.345, 6.630737
1191.827, 27.77686
1192.309, 51.16443
1192.791, 64.32153
1193.273, 69.30664
1193.755, 67.96375
1194.238, 61.77014
1194.720, 54.08801
1195.202, 45.77881
1195.684, 41.11499
1196.166, 39.13403
1196.648, 33.63318
1197.130, 25.04956
1197.612, 23.99658
1198.094, 36.29492
1198.577, 49.60449
1199.059, 55.39807
1199.541, 57.02930
1200.023, 55.33789
1200.505, 52.28381
1200.987, 48.72668
1201.469, 45.86719
1201.951, 47.79419
1202.434, 53.43994
1202.916, 49.40759
1203.398, 23.58057
1203.880, 12.79626
1204.362, 26.26941
1204.844, 35.79138
1205.326, 36.16870
1205.808, 27.16296
1206.291, 3.920776
1206.773, 13.66370
1207.255, 6.430054
1207.737, 50.22449
1208.219, 63.81470
1208.701, 52.72229
1209.183, 41.72144
1209.665, 33.37805
1210.147, 29.82202
1210.630, 31.55237
1211.112, 40.20068
1211.594, 57.85046
1212.076, 68.66357
1212.558, 53.06714
1213.040, 35.74573
1213.522, 36.71753
1214.004, 44.51929
1214.486, 52.04333
1214.969, 56.26282
1215.451, 55.40442
1215.933, 49.83594
1216.415, 47.12756
1216.897, 49.11511
1217.379, 50.60657
1217.861, 51.23608
1218.343, 51.37231
1218.826, 51.96118
1219.308, 55.20740
1219.790, 63.45264
1220.272, 71.86755
1220.754, 75.55347
1221.236, 73.06873
1221.718, 53.67957
1222.200, 26.19373
1222.682, 25.27527
1223.165, 43.48669
1223.647, 54.11072
1224.129, 53.11145
1224.611, 49.15649
1225.093, 45.57300
1225.575, 39.06372
1226.057, 18.99146
1226.539, 8.098389
1227.021, 31.19360
1227.504, 53.79504
1227.986, 48.52173
1228.468, 32.42859
1228.950, 23.59851
1229.432, 22.90491
1229.914, 32.02869
1230.396, 54.09106
1230.878, 60.60449
1231.361, 47.42334
1231.843, 39.03662
1232.325, 38.93298
1232.807, 39.23108
1233.289, 36.89734
1233.771, 33.22546
1234.253, 29.15454
1234.735, 25.09473
1235.218, 21.99951
1235.700, 19.07288
1236.182, 16.03809
1236.664, 11.36414
1237.146, 4.958252
1237.628, 23.06140
1238.110, 12.22668
1238.592, 34.31104
1239.074, 59.14307
1239.557, 23.87183
1240.039, 6.759399
1240.521, 45.78125
1241.003, 76.05090
1241.485, 71.71948
1241.967, 62.58276
1242.449, 69.52942
1242.931, 78.95386
1243.413, 68.26831
1243.896, 43.34326
1244.378, 33.78699
1244.860, 38.31750
1245.342, 45.41406
1245.824, 53.27795
1246.306, 55.09863
1246.788, 50.73181
1247.270, 49.19775
1247.753, 54.33350
1248.235, 59.09314
1248.717, 51.78577
1249.199, 47.58020
1249.681, 65.65125
1250.163, 82.99805
1250.645, 78.40833
1251.127, 64.58032
1251.609, 55.03955
1252.092, 51.48474
1252.574, 58.32092
1253.056, 75.76172
1253.538, 64.76770
1254.020, 38.95654
1254.502, 25.52979
1254.984, 32.31287
1255.466, 39.16345
1255.948, 39.38330
1256.431, 41.05811
1256.913, 51.42676
1257.395, 57.59753
1257.877, 32.26929
1258.359, 0.4926760
1258.841, 3.1982001E-02
1259.323, 15.13086
1259.805, 18.83496
1260.288, 14.56763
1260.770, 14.68018
1261.252, 21.12756
1261.734, 28.61267
1262.216, 38.27954
1262.698, 40.31616
1263.180, 26.62183
1263.662, 13.93457
1264.145, 10.08374
1264.627, 10.33948
1265.109, 6.819214
1265.591, 6.822998
1266.073, 19.78137
1266.555, 36.43616
1267.037, 29.05408
1267.519, 6.495239
1268.001, 0.1220700
1268.484, 0.0000000E+00
##END=



