##NAMES=Catapleiite
##RRUFFID=R060208
##IDEAL CHEMISTRY=Na_2_ZrSi_3_O_9_&#183;2H_2_O
##LOCALITY=Mont Saint-Hilaire, Rouville County, Quebec, Canada
##OWNER=RRUFF
##SOURCE=Royal Ontario Museum
##DESCRIPTION=Colorless transparent thin tabular pseudohexagonal crystal
##STATUS=The identification of this mineral is confirmed by single-crystal X-ray diffraction and chemical analysis.
##URL=rruff.info/R060208
##MEASURED CHEMISTRY=Na_2.00_Zr_1.00_Si_3.00_O_9_Â·2H_2_O
145.1109, 0.0000000E+00
145.5931, 4.6390002E-03
146.0752, 0.1776580
146.5573, 0.5528560
147.0394, 1.733887
147.5215, 3.532898
148.0036, 5.880554
148.4858, 8.755020
148.9679, 12.06975
149.4500, 15.90970
149.9321, 20.08804
150.4142, 24.28069
150.8963, 27.87752
151.3785, 32.12093
151.8606, 37.45337
152.3427, 44.64645
152.8248, 51.20584
153.3069, 56.62801
153.7890, 61.42133
154.2712, 65.79053
154.7533, 69.41153
155.2354, 72.69615
155.7175, 75.38007
156.1996, 77.17905
156.6817, 78.93456
157.1639, 80.95010
157.6460, 82.98532
158.1281, 84.51361
158.6102, 85.18491
159.0923, 85.45009
159.5744, 85.50589
160.0566, 85.33601
160.5387, 85.05051
161.0208, 85.00719
161.5029, 84.95280
161.9850, 84.12085
162.4671, 81.72888
162.9493, 78.90372
163.4314, 76.37199
163.9135, 74.54651
164.3956, 72.82300
164.8777, 70.87416
165.3598, 68.70404
165.8420, 66.57246
166.3241, 64.73752
166.8062, 63.03362
167.2883, 61.18211
167.7704, 58.54095
168.2525, 56.25289
168.7346, 55.00623
169.2168, 54.48402
169.6989, 54.03162
170.1810, 52.81709
170.6631, 51.04408
171.1452, 49.15220
171.6273, 47.37663
172.1095, 45.59637
172.5916, 43.66876
173.0737, 41.60890
173.5558, 39.54460
174.0379, 37.43907
174.5201, 35.35565
175.0022, 33.31415
175.4843, 31.19806
175.9664, 29.08863
176.4485, 27.20585
176.9306, 25.55095
177.4128, 23.96849
177.8949, 22.33408
178.3770, 20.67485
178.8591, 19.01496
179.3412, 17.25430
179.8233, 15.52618
180.3055, 14.10737
180.7876, 13.00301
181.2697, 11.93733
181.7518, 10.55554
182.2339, 8.971504
182.7160, 7.477135
183.1982, 6.149582
183.6803, 5.007027
184.1624, 4.190178
184.6445, 3.751686
185.1266, 3.403061
185.6087, 2.838760
186.0909, 2.100105
186.5730, 1.397842
187.0551, 0.7778700
187.5372, 0.2468640
188.0193, 0.2102050
188.5014, 0.5926510
188.9836, 0.9169010
189.4657, 1.225616
189.9478, 1.519188
190.4299, 1.802826
190.9120, 2.122513
191.3941, 2.448387
191.8763, 2.518196
192.3584, 2.248772
192.8405, 1.913834
193.3226, 1.964851
193.8047, 2.404472
194.2868, 2.782097
194.7690, 2.853981
195.2511, 2.635834
195.7332, 2.403374
196.2153, 2.155098
196.6974, 1.903198
197.1795, 1.706688
197.6617, 1.574387
198.1438, 1.428490
198.6259, 1.244774
199.1080, 1.015968
199.5901, 0.7674030
200.0722, 0.4972310
200.5544, 0.2313390
201.0365, 6.4827003E-02
201.5186, 3.0387999E-02
202.0007, 0.1438900
202.4828, 0.7190630
202.9649, 2.045441
203.4471, 2.893723
203.9292, 3.117966
204.4113, 3.025993
204.8934, 3.209045
205.3755, 3.699432
205.8576, 4.316513
206.3398, 5.039543
206.8219, 5.914116
207.3040, 6.578255
207.7861, 6.963837
208.2682, 7.192375
208.7503, 7.498123
209.2325, 7.875328
209.7146, 8.353935
210.1967, 9.015930
210.6788, 9.955154
211.1609, 10.62144
211.6430, 10.94830
212.1252, 11.04082
212.6073, 11.11746
213.0894, 11.15838
213.5715, 11.24624
214.0536, 11.44592
214.5357, 11.81686
215.0179, 12.06584
215.5000, 12.15204
215.9821, 12.13953
216.4642, 12.18194
216.9463, 12.32693
217.4284, 12.42899
217.9105, 12.41331
218.3927, 12.24792
218.8748, 12.07583
219.3569, 11.87130
219.8390, 11.67503
220.3211, 11.56641
220.8032, 11.55850
221.2854, 11.61155
221.7675, 11.75369
222.2496, 12.11695
222.7317, 12.12287
223.2138, 11.54388
223.6959, 10.71994
224.1781, 10.42048
224.6602, 10.94015
225.1423, 11.47147
225.6244, 11.68941
226.1065, 11.51781
226.5886, 11.23554
227.0708, 10.71283
227.5529, 10.13989
228.0350, 9.947136
228.5171, 10.38698
228.9992, 10.78085
229.4813, 10.84895
229.9635, 10.46130
230.4456, 10.16267
230.9277, 9.992638
231.4098, 9.897987
231.8919, 9.763016
232.3740, 9.524895
232.8562, 9.353958
233.3383, 9.315292
233.8204, 9.435646
234.3025, 9.619041
234.7846, 9.957306
235.2667, 10.31019
235.7489, 10.38050
236.2310, 9.911674
236.7131, 9.582253
237.1952, 9.681114
237.6773, 10.40664
238.1594, 10.80273
238.6416, 10.70781
239.1237, 10.38536
239.6058, 10.26442
240.0879, 10.45688
240.5700, 10.65881
241.0521, 10.75047
241.5343, 10.66930
242.0164, 10.78187
242.4985, 11.25502
242.9806, 11.81525
243.4627, 12.04509
243.9448, 11.79246
244.4270, 11.44555
244.9091, 11.08201
245.3912, 10.67921
245.8733, 10.36743
246.3554, 10.28069
246.8375, 10.18620
247.3197, 9.735504
247.8018, 8.672829
248.2839, 7.720165
248.7660, 7.101570
249.2481, 6.876011
249.7302, 6.507599
250.2124, 5.878052
250.6945, 5.260605
251.1766, 4.978371
251.6587, 5.262718
252.1408, 5.358437
252.6229, 5.044525
253.1051, 4.297729
253.5872, 3.796753
254.0693, 3.585899
254.5514, 3.566017
255.0335, 3.643349
255.5156, 3.829674
255.9978, 4.077782
256.4799, 4.443085
256.9620, 4.926605
257.4441, 5.140533
257.9262, 4.987679
258.4083, 4.693764
258.8904, 4.430740
259.3726, 4.149208
259.8547, 4.003815
260.3368, 4.075974
260.8189, 4.342697
261.3010, 4.467415
261.7831, 4.321571
262.2653, 4.210541
262.7474, 4.448128
263.2295, 5.257263
263.7116, 5.764671
264.1937, 5.747261
264.6758, 5.324913
265.1580, 5.192017
265.6401, 5.463394
266.1222, 5.801773
266.6043, 5.994217
267.0864, 6.037766
267.5685, 5.928215
268.0507, 5.556015
268.5328, 5.057472
269.0149, 4.982674
269.4970, 5.477959
269.9791, 6.043655
270.4612, 6.387161
270.9434, 6.457260
271.4255, 6.546883
271.9076, 6.706650
272.3897, 6.877083
272.8718, 6.841888
273.3539, 6.496582
273.8361, 6.279625
274.3182, 6.454414
274.8003, 7.065468
275.2824, 7.727272
275.7645, 8.474548
276.2466, 9.201042
276.7288, 9.650536
277.2109, 9.760735
277.6930, 9.892708
278.1751, 10.17409
278.6572, 10.60347
279.1393, 11.26582
279.6215, 12.22607
280.1036, 13.29871
280.5857, 14.15766
281.0678, 14.76673
281.5499, 15.47152
282.0320, 16.48510
282.5142, 17.77582
282.9963, 18.74152
283.4784, 19.30910
283.9605, 19.77125
284.4426, 20.44137
284.9247, 21.31836
285.4069, 22.43898
285.8890, 23.94390
286.3711, 25.71263
286.8532, 27.18389
287.3353, 28.36724
287.8174, 29.45917
288.2996, 30.56567
288.7817, 31.69623
289.2638, 32.99402
289.7459, 34.50805
290.2280, 36.22146
290.7101, 38.23912
291.1923, 40.58920
291.6744, 42.84268
292.1565, 44.60386
292.6386, 45.94631
293.1207, 47.24049
293.6028, 48.56039
294.0850, 49.88158
294.5671, 51.28603
295.0492, 52.75872
295.5313, 54.05442
296.0134, 54.99977
296.4955, 55.61756
296.9777, 55.93726
297.4598, 55.90845
297.9419, 55.68577
298.4240, 55.51170
298.9061, 55.36494
299.3882, 55.11828
299.8704, 54.81377
300.3525, 54.31689
300.8346, 53.30190
301.3167, 51.65871
301.7988, 49.89491
302.2809, 48.52636
302.7631, 47.48157
303.2452, 46.50186
303.7273, 45.48166
304.2094, 44.45080
304.6915, 43.45542
305.1736, 42.48607
305.6558, 41.57024
306.1379, 40.74143
306.6200, 39.98289
307.1021, 39.26515
307.5842, 38.48431
308.0663, 37.78398
308.5485, 37.32630
309.0306, 37.10832
309.5127, 36.95071
309.9948, 36.74508
310.4769, 36.51636
310.9590, 36.30072
311.4412, 36.17345
311.9233, 36.00104
312.4054, 35.64985
312.8875, 35.15051
313.3696, 34.67416
313.8517, 34.46340
314.3339, 34.25012
314.8160, 33.77750
315.2981, 32.82556
315.7802, 31.85819
316.2623, 31.16711
316.7444, 30.65351
317.2266, 30.03628
317.7087, 29.02661
318.1908, 28.00377
318.6729, 27.21540
319.1550, 26.78165
319.6371, 26.35689
320.1193, 25.87692
320.6014, 25.32641
321.0835, 24.67239
321.5656, 23.62205
322.0477, 22.70491
322.5298, 22.19496
323.0120, 22.20320
323.4941, 22.13529
323.9762, 21.79968
324.4583, 21.35152
324.9404, 20.95898
325.4225, 20.69456
325.9047, 20.43820
326.3868, 20.22903
326.8689, 20.07579
327.3510, 19.71276
327.8331, 18.98222
328.3152, 18.12036
328.7974, 17.29102
329.2795, 16.43395
329.7616, 15.68366
330.2437, 15.11093
330.7258, 14.67987
331.2079, 14.17616
331.6901, 13.54317
332.1722, 12.89211
332.6543, 12.28647
333.1364, 11.86086
333.6185, 11.22749
334.1006, 10.27708
334.5828, 9.147697
335.0649, 8.181244
335.5470, 7.383041
336.0291, 6.725021
336.5112, 6.250961
336.9933, 6.028450
337.4755, 5.600716
337.9576, 4.855827
338.4397, 4.042473
338.9218, 3.533615
339.4039, 3.442703
339.8860, 3.259125
340.3681, 2.807083
340.8503, 2.109489
341.3324, 1.510117
341.8145, 0.9898680
342.2966, 0.6061480
342.7787, 0.5211790
343.2608, 0.7645110
343.7430, 0.6625600
344.2251, 5.1879998E-02
344.7072, 1.100800
345.1893, 1.604469
345.6714, 1.531715
346.1535, 1.360970
346.6357, 1.426262
347.1178, 1.692398
347.5999, 1.965469
348.0820, 2.249992
348.5641, 2.476837
349.0462, 2.512848
349.5284, 2.376709
350.0105, 2.209419
350.4926, 2.049278
350.9747, 1.916328
351.4568, 1.887360
351.9389, 1.978455
352.4211, 2.050842
352.9032, 1.926010
353.3853, 1.669357
353.8674, 1.440865
354.3495, 1.381142
354.8316, 1.332138
355.3138, 1.044838
355.7959, 0.5452800
356.2780, 0.1144410
356.7601, 0.1650700
357.2422, 0.3240970
357.7243, 4.9911000E-02
358.2065, 1.166420
358.6886, 2.287964
359.1707, 2.291168
359.6528, 1.555145
360.1349, 1.223541
360.6170, 2.304977
361.0992, 3.704102
361.5813, 4.615013
362.0634, 4.768776
362.5455, 4.896210
363.0276, 5.343475
363.5097, 5.934441
363.9919, 6.407249
364.4740, 6.478966
364.9561, 6.602890
365.4382, 7.022453
365.9203, 7.785599
366.4024, 8.385033
366.8846, 8.590118
367.3667, 8.667000
367.8488, 8.831154
368.3309, 9.112556
368.8130, 9.477608
369.2951, 10.05283
369.7773, 10.77465
370.2594, 11.19405
370.7415, 11.07150
371.2236, 10.87380
371.7057, 10.80242
372.1878, 10.86569
372.6700, 11.05547
373.1521, 11.47684
373.6342, 11.97782
374.1163, 12.24606
374.5984, 12.16971
375.0805, 12.07504
375.5627, 12.08890
376.0448, 12.23141
376.5269, 12.21657
377.0090, 12.00724
377.4911, 11.70404
377.9732, 11.35921
378.4554, 10.93858
378.9375, 10.73116
379.4196, 10.88402
379.9017, 11.25878
380.3838, 11.31489
380.8659, 11.01699
381.3481, 10.67706
381.8302, 10.53291
382.3123, 10.55981
382.7944, 10.58546
383.2765, 10.60562
383.7586, 10.58599
384.2408, 10.42299
384.7229, 10.14713
385.2050, 9.935959
385.6871, 9.930901
386.1692, 10.04126
386.6513, 10.10888
387.1335, 10.12936
387.6156, 10.09872
388.0977, 9.935471
388.5798, 9.726151
389.0619, 9.637192
389.5440, 9.828583
390.0262, 10.05805
390.5083, 10.05379
390.9904, 9.870743
391.4725, 9.768753
391.9546, 10.02991
392.4367, 10.36467
392.9189, 10.51579
393.4010, 10.38361
393.8831, 10.18865
394.3652, 9.943153
394.8473, 9.721016
395.3294, 9.644753
395.8116, 9.784966
396.2937, 10.05602
396.7758, 10.45560
397.2579, 10.99550
397.7400, 11.53147
398.2221, 11.96532
398.7043, 12.41540
399.1864, 12.97640
399.6685, 13.79787
400.1506, 14.56305
400.6327, 15.19176
401.1148, 15.72636
401.5970, 16.35938
402.0791, 17.02415
402.5612, 17.79680
403.0433, 18.79208
403.5254, 20.21868
404.0075, 21.40272
404.4897, 22.18248
404.9718, 22.82332
405.4539, 23.72283
405.9360, 24.88586
406.4181, 26.32020
406.9002, 28.10612
407.3824, 30.20908
407.8645, 32.30266
408.3466, 34.31767
408.8287, 36.58201
409.3108, 39.51662
409.7929, 43.06857
410.2751, 46.47160
410.7572, 49.57661
411.2393, 52.62692
411.7214, 55.84917
412.2035, 59.27701
412.6856, 63.23367
413.1678, 68.07923
413.6499, 73.58864
414.1320, 79.29341
414.6141, 85.19940
415.0962, 91.25159
415.5783, 97.56302
416.0605, 104.0341
416.5426, 110.5979
417.0247, 117.2008
417.5068, 123.9388
417.9889, 130.7453
418.4710, 137.6835
418.9532, 145.2441
419.4353, 153.7865
419.9174, 162.9406
420.3995, 172.2474
420.8816, 181.5835
421.3637, 191.4462
421.8459, 202.0527
422.3280, 213.2585
422.8101, 225.0095
423.2922, 237.3891
423.7743, 250.0952
424.2564, 263.0987
424.7386, 276.3764
425.2207, 289.3897
425.7028, 301.8373
426.1849, 314.0841
426.6670, 326.4144
427.1491, 339.6565
427.6313, 351.7283
428.1134, 362.8468
428.5955, 372.6164
429.0776, 379.9691
429.5597, 385.0018
430.0418, 387.5783
430.5240, 387.6114
431.0061, 385.0730
431.4882, 380.5287
431.9703, 373.9512
432.4524, 365.4585
432.9345, 355.0595
433.4167, 342.7964
433.8988, 328.8959
434.3809, 313.2354
434.8630, 296.4236
435.3451, 279.7877
435.8272, 263.3389
436.3094, 247.6257
436.7915, 233.2147
437.2736, 219.7554
437.7557, 206.5144
438.2378, 193.2709
438.7199, 180.7206
439.2020, 169.6907
439.6841, 159.8728
440.1663, 150.6365
440.6484, 141.6143
441.1305, 133.0804
441.6126, 125.4728
442.0947, 118.6905
442.5768, 112.3008
443.0590, 105.9726
443.5411, 99.97953
444.0232, 94.57861
444.5053, 90.02200
444.9874, 85.60217
445.4695, 80.90311
445.9517, 76.26660
446.4338, 72.19604
446.9159, 69.32202
447.3980, 66.52795
447.8801, 63.44767
448.3622, 60.01924
448.8444, 57.02029
449.3265, 54.74773
449.8086, 52.63802
450.2907, 50.29369
450.7728, 47.42242
451.2549, 44.95742
451.7371, 43.10671
452.2192, 41.61297
452.7013, 39.88389
453.1834, 37.83311
453.6655, 35.92110
454.1476, 34.35316
454.6298, 33.11433
455.1119, 32.02435
455.5940, 31.12486
456.0761, 30.19587
456.5582, 28.94965
457.0403, 27.45892
457.5225, 26.16230
458.0046, 25.23386
458.4867, 24.42265
458.9688, 23.36113
459.4509, 22.09669
459.9330, 20.87154
460.4152, 19.78397
460.8973, 18.80878
461.3794, 17.91386
461.8615, 17.08424
462.3436, 16.38872
462.8257, 16.00435
463.3079, 15.71899
463.7900, 15.29089
464.2721, 14.53854
464.7542, 13.76156
465.2363, 13.01260
465.7184, 12.32326
466.2006, 11.78293
466.6827, 11.78175
467.1648, 11.61271
467.6469, 10.85033
468.1290, 9.171432
468.6111, 8.113503
469.0933, 8.175217
469.5754, 8.544426
470.0575, 8.480431
470.5396, 7.666924
471.0217, 7.079811
471.5038, 6.957191
471.9860, 7.104492
472.4681, 6.803047
472.9502, 5.920700
473.4323, 5.029160
473.9144, 4.381264
474.3965, 3.970360
474.8787, 3.797539
475.3608, 3.920227
475.8429, 4.010017
476.3250, 3.557167
476.8071, 2.694733
477.2892, 2.122864
477.7714, 2.130196
478.2535, 2.358986
478.7356, 2.309334
479.2177, 2.027916
479.6998, 1.719772
480.1819, 1.540947
480.6641, 1.372749
481.1462, 1.018784
481.6283, 0.4417800
482.1104, 4.4562999E-02
482.5925, 0.2765580
483.0746, 0.7180330
483.5568, 0.9367450
484.0389, 0.6147380
484.5210, 0.2652590
485.0031, 3.2738000E-02
485.4852, 0.1172870
485.9673, 0.2998280
486.4495, 0.5951000
486.9316, 0.8649980
487.4137, 1.072456
487.8958, 1.221100
488.3779, 1.286926
488.8600, 1.209320
489.3422, 1.115189
489.8243, 1.114372
490.3064, 1.217537
490.7885, 1.395447
491.2706, 1.688843
491.7527, 2.019562
492.2349, 2.200752
492.7170, 2.226776
493.1991, 2.154449
493.6812, 1.918861
494.1633, 1.594864
494.6454, 1.532768
495.1276, 1.744286
495.6097, 1.989731
496.0918, 2.033897
496.5739, 1.950371
497.0560, 1.911278
497.5381, 2.003822
498.0203, 2.041725
498.5024, 1.736290
498.9845, 1.249084
499.4666, 0.9295430
499.9487, 1.149834
500.4308, 1.415794
500.9130, 1.417831
501.3951, 1.144241
501.8772, 0.8890230
502.3593, 0.8251270
502.8414, 0.7572100
503.3235, 0.5522610
503.8057, 7.3798999E-02
504.2878, 0.3653790
504.7699, 0.7492600
505.2520, 1.091309
505.7341, 1.407959
506.2162, 1.671623
506.6984, 1.956055
507.1805, 2.251472
507.6626, 2.570526
508.1447, 3.068840
508.6268, 3.785736
509.1089, 4.531746
509.5911, 5.125893
510.0732, 5.593887
510.5553, 6.272560
511.0374, 7.233635
511.5195, 8.229416
512.0016, 8.903442
512.4838, 9.343063
512.9659, 9.817970
513.4480, 10.41915
513.9301, 11.12296
514.4122, 11.85693
514.8943, 12.65543
515.3765, 13.66290
515.8586, 15.33388
516.3407, 17.00375
516.8228, 18.05962
517.3049, 18.31598
517.7870, 18.65735
518.2692, 19.39014
518.7513, 20.34679
519.2334, 21.36464
519.7155, 22.67716
520.1976, 23.73675
520.6797, 24.31879
521.1619, 24.61508
521.6440, 25.20226
522.1261, 26.33710
522.6082, 27.29382
523.0903, 27.77901
523.5724, 27.78480
524.0546, 27.76417
524.5367, 27.66502
525.0188, 27.70539
525.5009, 28.23946
525.9830, 29.20272
526.4651, 29.74409
526.9473, 29.65428
527.4294, 29.36839
527.9115, 29.61261
528.3936, 30.21336
528.8757, 30.60104
529.3578, 30.25817
529.8400, 29.73402
530.3221, 29.53854
530.8042, 29.66079
531.2863, 30.01691
531.7684, 30.83369
532.2505, 31.68606
532.7327, 32.26510
533.2148, 32.51871
533.6969, 32.51411
534.1790, 31.94073
534.6611, 31.24853
535.1432, 30.95244
535.6254, 31.33237
536.1075, 31.82232
536.5896, 32.44699
537.0717, 33.14120
537.5538, 33.65285
538.0359, 33.98631
538.5181, 34.13491
539.0002, 33.99925
539.4823, 33.58039
539.9644, 33.49725
540.4465, 33.83370
540.9286, 34.28559
541.4108, 34.56449
541.8929, 34.69038
542.3750, 34.76076
542.8571, 34.75043
543.3392, 34.82078
543.8214, 35.23250
544.3035, 35.86703
544.7856, 36.46850
545.2677, 36.85538
545.7498, 37.22906
546.2319, 37.72379
546.7141, 38.34059
547.1962, 39.02744
547.6783, 39.76795
548.1604, 40.54790
548.6425, 41.32568
549.1246, 41.96319
549.6068, 42.97113
550.0889, 44.68560
550.5710, 46.63286
551.0531, 48.34961
551.5352, 49.56467
552.0173, 51.18463
552.4995, 53.34969
552.9816, 55.89432
553.4637, 58.39414
553.9458, 60.81959
554.4279, 63.51173
554.9100, 66.66003
555.3922, 70.17511
555.8743, 73.70673
556.3564, 77.24509
556.8385, 81.05981
557.3206, 85.30617
557.8027, 89.91632
558.2849, 94.90932
558.7670, 100.3102
559.2491, 106.1015
559.7312, 112.1515
560.2133, 118.5409
560.6954, 125.3918
561.1776, 132.3925
561.6597, 140.1577
562.1418, 149.6204
562.6239, 160.1758
563.1060, 169.4467
563.5881, 175.3819
564.0703, 181.8123
564.5524, 190.0730
565.0345, 200.2298
565.5166, 210.4124
565.9987, 220.5935
566.4808, 230.8779
566.9630, 241.5113
567.4451, 252.4642
567.9272, 263.4966
568.4093, 274.6738
568.8914, 285.9575
569.3735, 297.8925
569.8557, 310.1341
570.3378, 321.5894
570.8199, 331.7862
571.3020, 340.9549
571.7841, 349.4308
572.2662, 357.0495
572.7484, 363.1779
573.2305, 368.1071
573.7126, 371.0135
574.1947, 371.3729
574.6768, 369.1160
575.1589, 364.5758
575.6411, 357.4810
576.1232, 348.4290
576.6053, 337.8616
577.0874, 325.5674
577.5695, 312.1587
578.0516, 297.4893
578.5338, 281.9501
579.0159, 265.6578
579.4980, 248.5556
579.9801, 231.7345
580.4622, 215.4668
580.9443, 199.6239
581.4265, 184.1604
581.9086, 169.0784
582.3907, 154.9306
582.8728, 141.8790
583.3549, 129.9495
583.8370, 118.8300
584.3192, 108.5127
584.8013, 98.96951
585.2834, 90.03390
585.7655, 81.82327
586.2476, 74.45579
586.7297, 68.01312
587.2118, 62.19421
587.6939, 57.10610
588.1760, 52.42754
588.6581, 47.74969
589.1403, 42.44646
589.6224, 37.81413
590.1045, 34.18939
590.5866, 31.35545
591.0687, 28.59465
591.5508, 25.90244
592.0330, 23.35444
592.5151, 20.96801
592.9972, 18.74856
593.4793, 16.71230
593.9614, 14.83784
594.4435, 13.31239
594.9257, 12.63385
595.4078, 12.43882
595.8899, 11.46392
596.3720, 9.483528
596.8541, 7.410156
597.3362, 5.982887
597.8184, 5.053856
598.3005, 4.410049
598.7826, 4.184021
599.2647, 3.984634
599.7468, 3.604912
600.2289, 3.123100
600.7111, 2.710251
601.1932, 2.235977
601.6753, 2.022514
602.1574, 2.240685
602.6395, 2.854355
603.1216, 3.386070
603.6038, 3.816109
604.0859, 4.201836
604.5680, 4.541367
605.0501, 4.823837
605.5322, 5.230850
606.0143, 5.753906
606.4965, 6.460541
606.9786, 7.477829
607.4607, 8.729973
607.9428, 9.991257
608.4249, 11.19519
608.9070, 12.52053
609.3892, 14.10577
609.8713, 15.94253
610.3534, 18.05720
610.8355, 20.44872
611.3176, 23.03928
611.7997, 25.83619
612.2819, 28.85369
612.7640, 32.16119
613.2461, 35.54866
613.7282, 39.34299
614.2103, 43.74238
614.6924, 48.71107
615.1746, 54.01619
615.6567, 59.62949
616.1388, 65.50021
616.6209, 71.75941
617.1030, 78.40350
617.5851, 84.77248
618.0673, 90.69479
618.5494, 96.89294
619.0315, 104.0797
619.5136, 112.1001
619.9957, 120.4606
620.4778, 129.1124
620.9600, 138.1815
621.4421, 147.6982
621.9242, 157.7562
622.4063, 168.3991
622.8884, 179.6645
623.3705, 191.5259
623.8527, 204.3568
624.3348, 217.9946
624.8169, 231.5367
625.2990, 244.3035
625.7811, 257.6314
626.2632, 272.1020
626.7454, 287.9087
627.2275, 303.1738
627.7096, 318.3589
628.1917, 331.8416
628.6738, 342.5127
629.1559, 350.3620
629.6381, 355.5031
630.1202, 358.0198
630.6023, 357.5549
631.0844, 354.1448
631.5665, 347.4506
632.0486, 336.4830
632.5308, 320.0245
633.0129, 301.0946
633.4950, 280.4926
633.9771, 259.1338
634.4592, 238.3932
634.9413, 218.5126
635.4235, 199.5333
635.9056, 181.1186
636.3877, 163.3952
636.8698, 147.1651
637.3519, 132.5549
637.8340, 119.4521
638.3162, 108.1189
638.7983, 98.44514
639.2804, 89.45018
639.7625, 81.05777
640.2446, 73.51062
640.7267, 67.38192
641.2089, 62.30418
641.6910, 57.25010
642.1731, 52.11809
642.6552, 47.19418
643.1373, 42.74750
643.6194, 38.73317
644.1016, 35.12125
644.5837, 32.01506
645.0658, 29.17010
645.5479, 26.52821
646.0300, 24.11473
646.5121, 22.05131
646.9943, 20.61372
647.4764, 19.19163
647.9585, 17.65765
648.4406, 16.08291
648.9227, 14.66213
649.4048, 13.41415
649.8870, 12.25720
650.3691, 11.11538
650.8512, 10.02626
651.3333, 9.129101
651.8154, 8.425232
652.2975, 7.756886
652.7797, 6.914787
653.2618, 6.070843
653.7439, 5.497150
654.2260, 5.226799
654.7081, 4.961929
655.1902, 4.571297
655.6724, 4.089832
656.1545, 3.519421
656.6366, 2.743267
657.1187, 2.123272
657.6008, 1.749836
658.0829, 1.539597
658.5651, 1.439510
659.0472, 1.546909
659.5293, 1.492443
660.0114, 1.176014
660.4935, 0.7368280
660.9756, 0.4677510
661.4578, 0.3633770
661.9399, 0.2432900
662.4220, 2.6585000E-02
662.9041, 0.2247010
663.3862, 0.4465940
663.8683, 0.6289020
664.3505, 0.7400670
664.8326, 0.6435090
665.3147, 0.5620310
665.7968, 0.6936530
666.2789, 1.033752
666.7610, 1.281906
667.2432, 1.401993
667.7253, 1.376530
668.2074, 1.141003
668.6895, 0.5895690
669.1716, 0.3969730
669.6537, 0.7198450
670.1359, 1.098934
670.6180, 1.069317
671.1001, 0.6507230
671.5822, 0.4967610
672.0643, 0.7033390
672.5464, 1.007225
673.0286, 1.093235
673.5107, 1.040024
673.9928, 1.015450
674.4749, 1.083141
674.9570, 1.156384
675.4391, 1.201893
675.9213, 1.206310
676.4034, 1.146355
676.8855, 0.8214190
677.3676, 0.6502610
677.8497, 0.8473280
678.3318, 1.260418
678.8140, 1.479660
679.2961, 1.489647
679.7782, 1.328445
680.2603, 0.9271350
680.7424, 0.3774530
681.2245, 0.1213800
681.7067, 0.1609040
682.1888, 0.2046590
682.6709, 1.2215000E-02
683.1530, 0.2746430
683.6351, 0.4277950
684.1172, 0.4408530
684.5994, 0.3668520
685.0815, 9.3314998E-02
685.5636, 0.1526490
686.0457, 0.1728740
686.5278, 0.1272580
687.0099, 0.3814510
687.4921, 0.5293810
687.9742, 0.6073380
688.4563, 0.6316180
688.9384, 0.5843430
689.4205, 0.5205350
689.9026, 0.4043960
690.3848, 0.3401680
690.8669, 0.5292020
691.3490, 0.9326520
691.8311, 1.222790
692.3132, 1.315407
692.7953, 1.294678
693.2775, 1.183067
693.7596, 1.038200
694.2417, 0.9749720
694.7238, 1.004162
695.2059, 1.161381
695.6880, 1.598137
696.1702, 2.181507
696.6523, 2.549290
697.1344, 2.475769
697.6165, 2.397968
698.0986, 2.424507
698.5807, 2.525826
699.0629, 2.511082
699.5450, 2.341148
700.0271, 2.231228
700.5092, 2.304188
700.9913, 2.514950
701.4734, 2.736248
701.9556, 2.964550
702.4377, 3.150177
702.9198, 3.196785
703.4019, 3.219223
703.8840, 3.381104
704.3661, 3.704330
704.8483, 3.908417
705.3304, 3.681709
705.8125, 3.445648
706.2946, 3.499474
706.7767, 3.948933
707.2589, 4.419231
707.7410, 4.974651
708.2231, 5.454479
708.7052, 5.663143
709.1873, 5.592262
709.6694, 5.613144
710.1516, 5.763996
710.6337, 6.013241
711.1158, 6.388107
711.5979, 6.826923
712.0800, 7.173016
712.5621, 7.331627
713.0443, 7.511333
713.5264, 7.910461
714.0085, 8.397064
714.4906, 8.779041
714.9727, 8.757454
715.4548, 8.940331
715.9370, 9.507313
716.4191, 10.30466
716.9012, 11.00186
717.3833, 11.56400
717.8654, 12.17523
718.3475, 12.95309
718.8297, 13.76534
719.3118, 14.16959
719.7939, 14.23583
720.2760, 14.45515
720.7581, 15.23479
721.2402, 16.19395
721.7224, 16.92442
722.2045, 17.46370
722.6866, 17.99183
723.1687, 18.61314
723.6508, 19.20098
724.1329, 19.62249
724.6151, 19.87289
725.0972, 20.34699
725.5793, 21.19242
726.0614, 22.04842
726.5435, 22.71428
727.0256, 23.17466
727.5078, 23.69960
727.9899, 24.28318
728.4720, 24.98447
728.9541, 25.92398
729.4362, 26.98504
729.9183, 27.95976
730.4005, 28.81736
730.8826, 29.63731
731.3647, 30.52288
731.8468, 31.35352
732.3289, 31.99894
732.8110, 32.34443
733.2932, 32.78588
733.7753, 33.51456
734.2574, 34.18910
734.7395, 34.50610
735.2216, 34.38890
735.7037, 34.33058
736.1859, 34.37704
736.6680, 34.41024
737.1501, 34.29848
737.6322, 34.05923
738.1143, 33.74566
738.5964, 33.39073
739.0786, 32.92585
739.5607, 32.23867
740.0428, 31.39722
740.5249, 30.53276
741.0070, 29.65885
741.4891, 28.78003
741.9713, 27.86420
742.4534, 26.95165
742.9355, 26.09800
743.4176, 25.30243
743.8997, 24.59046
744.3818, 24.03228
744.8640, 23.51781
745.3461, 22.81540
745.8282, 21.94123
746.3103, 21.04153
746.7924, 20.15812
747.2745, 19.29939
747.7567, 18.46583
748.2388, 17.64828
748.7209, 16.87405
749.2030, 16.19575
749.6851, 15.51200
750.1672, 14.76395
750.6494, 13.99499
751.1315, 13.30156
751.6136, 12.65495
752.0957, 12.09258
752.5778, 11.67207
753.0599, 11.35637
753.5421, 10.94545
754.0242, 10.45863
754.5063, 9.989349
754.9884, 9.581539
755.4705, 9.227211
755.9526, 8.924397
756.4348, 8.656132
756.9169, 8.419052
757.3990, 8.201912
757.8811, 8.030907
758.3632, 7.995010
758.8453, 8.099533
759.3275, 7.929379
759.8096, 7.295200
760.2917, 6.695873
760.7738, 6.377209
761.2559, 6.318474
761.7380, 6.225842
762.2202, 6.106445
762.7023, 5.958553
763.1844, 5.729404
763.6665, 5.457283
764.1486, 5.173050
764.6307, 4.890873
765.1129, 4.736485
765.5950, 5.013191
766.0771, 5.254662
766.5592, 5.095711
767.0413, 4.385567
767.5234, 3.931725
768.0056, 3.835629
768.4877, 3.837311
768.9698, 3.748951
769.4519, 3.573662
769.9340, 3.530876
770.4161, 3.072628
770.8983, 3.475819
771.3804, 3.667191
771.8625, 3.658077
772.3446, 2.850227
772.8267, 3.072102
773.3088, 2.881660
773.7910, 2.674030
774.2731, 3.038708
774.7552, 2.343239
775.2373, 2.697315
775.7194, 2.631409
776.2015, 2.756664
776.6837, 2.465668
777.1658, 2.302303
777.6479, 2.553860
778.1300, 2.574570
778.6121, 2.378723
779.0942, 2.492767
779.5764, 2.440857
780.0585, 2.301811
780.5406, 2.177399
781.0227, 2.069595
781.5048, 2.052238
781.9869, 2.313190
782.4691, 2.591301
782.9512, 2.629658
783.4332, 2.247089
783.9153, 1.993885
784.3975, 1.916256
784.8796, 1.899338
785.3617, 1.800770
785.8438, 1.633793
786.3259, 1.581154
786.8080, 1.686466
787.2902, 1.792133
787.7723, 1.683247
788.2544, 1.487354
788.7365, 1.409420
789.2186, 1.576664
789.7007, 1.649933
790.1829, 1.351158
790.6650, 0.9864120
791.1471, 0.8911360
791.6292, 1.259624
792.1113, 1.444561
792.5934, 1.388077
793.0756, 1.214294
793.5577, 1.040192
794.0398, 0.8754430
794.5219, 0.7944110
795.0040, 0.8316540
795.4861, 0.8552890
795.9683, 0.6799320
796.4504, 0.4378170
796.9325, 0.3057590
797.4146, 0.3877110
797.8967, 0.4692760
798.3788, 0.5087890
798.8610, 0.5252460
799.3431, 0.5233380
799.8252, 0.4938200
800.3073, 0.4667820
800.7894, 0.4472770
801.2715, 0.4351010
801.7537, 0.4361420
802.2358, 0.4447330
802.7179, 0.4477580
803.2000, 0.4490590
803.6821, 0.4172060
804.1642, 0.2727930
804.6464, 0.1050720
805.1285, 2.3754001E-02
805.6106, 0.1293300
806.0927, 0.1993260
806.5748, 0.2507250
807.0569, 0.2304380
807.5391, 2.5284000E-02
808.0212, 0.4160310
808.5033, 0.6062360
808.9854, 0.4572370
809.4675, 0.1837580
809.9496, 7.8469999E-03
810.4318, 0.1149670
810.9139, 0.1169430
811.3960, 1.1776000E-02
811.8781, 0.1655010
812.3602, 0.3454970
812.8423, 0.4950140
813.3245, 0.5445140
813.8066, 0.3811340
814.2887, 0.2848090
814.7708, 0.2638320
815.2529, 0.2987060
815.7350, 0.4117660
816.2172, 0.5975490
816.6993, 0.6623990
817.1814, 0.5768360
817.6635, 0.4049990
818.1456, 0.1005360
818.6277, 0.2021940
819.1099, 0.2838480
819.5920, 9.2510004E-03
820.0741, 0.2091180
820.5562, 0.1820760
821.0383, 6.9733001E-02
821.5204, 1.1086000E-02
822.0026, 2.0114999E-02
822.4847, 5.7819001E-02
822.9668, 0.1501920
823.4489, 0.1998830
823.9310, 5.9925001E-02
824.4131, 0.2101860
824.8953, 0.4067270
825.3774, 0.4994200
825.8595, 0.5366170
826.3416, 0.5480770
826.8237, 0.5250590
827.3058, 0.4362750
827.7880, 0.2152630
828.2701, 0.1382710
828.7522, 0.3778800
829.2343, 0.6084710
829.7164, 0.5501400
830.1985, 0.1664240
830.6807, 4.2171001E-02
831.1628, 6.4765997E-02
831.6449, 6.5098003E-02
832.1270, 0.4702190
832.6091, 0.9486390
833.0912, 1.175072
833.5734, 1.101681
834.0555, 0.9243200
834.5376, 0.5274200
835.0197, 0.2146840
835.5018, 0.2646260
835.9839, 0.7594530
836.4661, 0.9938550
836.9482, 0.9031370
837.4303, 0.7154960
837.9124, 0.5429040
838.3945, 0.3970220
838.8766, 0.3710290
839.3588, 0.4606590
839.8409, 0.5184360
840.3230, 0.3273890
840.8051, 0.1333200
841.2872, 0.1974140
841.7693, 0.5323370
842.2515, 0.7742270
842.7336, 0.8720630
843.2157, 0.8410300
843.6978, 0.6257780
844.1799, 0.2539980
844.6620, 9.2678003E-02
845.1442, 0.1494370
845.6263, 0.2943380
846.1084, 0.4813920
846.5905, 0.6928220
847.0726, 0.9169120
847.5547, 1.144245
848.0369, 1.336536
848.5190, 1.567879
849.0011, 1.669689
849.4832, 1.518394
849.9653, 1.156887
850.4474, 0.8125310
850.9296, 0.4370500
851.4117, 0.2212980
851.8938, 0.2725140
852.3759, 0.4928700
852.8580, 0.6604800
853.3401, 0.7742200
853.8223, 0.8146510
854.3044, 0.8032300
854.7865, 0.6881140
855.2686, 0.3218920
855.7507, 0.1634480
856.2328, 0.4503360
856.7150, 0.4134250
857.1971, 0.2553480
857.6792, 3.5633001E-02
858.1613, 0.3974300
858.6434, 0.7228660
859.1255, 1.006893
859.6077, 1.190670
860.0898, 1.233807
860.5719, 1.212711
861.0540, 1.212128
861.5361, 1.205894
862.0182, 1.144951
862.5004, 0.9168820
862.9825, 0.7718510
863.4646, 0.8801310
863.9467, 1.049686
864.4288, 1.063263
864.9109, 0.8724670
865.3931, 0.7619970
865.8752, 0.7634890
866.3573, 0.7740400
866.8394, 0.6722760
867.3215, 0.5029410
867.8036, 0.3337670
868.2858, 0.1698840
868.7679, 1.1974000E-02
869.2500, 0.2626340
869.7321, 0.4631310
870.2142, 0.3629380
870.6964, 0.2216570
871.1785, 0.4624860
871.6606, 0.2682340
872.1427, 1.3420000E-02
872.6248, 0.2116580
873.1069, 0.2767640
873.5891, 0.1875380
874.0712, 1.178051
874.5533, 1.934635
875.0354, 1.765736
875.5175, 1.256794
875.9996, 0.7551080
876.4818, 0.2787170
876.9639, 0.1677400
877.4460, 0.6391750
877.9281, 1.141636
878.4102, 1.496941
878.8923, 1.711929
879.3745, 1.675949
879.8566, 1.410625
880.3387, 1.364357
880.8208, 2.080486
881.3029, 2.925449
881.7850, 3.184319
882.2672, 3.009777
882.7493, 2.937523
883.2314, 3.271790
883.7135, 3.561069
884.1956, 3.699654
884.6777, 3.726322
885.1599, 3.648556
885.6420, 3.437679
886.1241, 3.652477
886.6062, 4.619484
887.0883, 5.759335
887.5704, 6.295368
888.0526, 6.412544
888.5347, 6.439003
889.0168, 6.383595
889.4989, 6.403809
889.9810, 6.507019
890.4631, 6.730263
890.9453, 7.133801
891.4274, 7.756622
891.9095, 8.418465
892.3916, 9.134506
892.8737, 9.790550
893.3558, 10.19324
893.8380, 10.45300
894.3201, 10.82826
894.8022, 11.38760
895.2843, 11.85897
895.7664, 11.88925
896.2485, 11.94435
896.7307, 12.38462
897.2128, 13.24709
897.6949, 14.32990
898.1770, 15.75284
898.6591, 17.00589
899.1412, 17.56020
899.6234, 17.70653
900.1055, 18.30207
900.5876, 19.32677
901.0697, 20.58030
901.5518, 22.05463
902.0339, 23.58784
902.5161, 25.13099
902.9982, 26.64595
903.4803, 27.94923
903.9624, 28.87433
904.4445, 29.94987
904.9266, 31.32390
905.4088, 32.95289
905.8909, 34.72228
906.3730, 36.64796
906.8551, 38.79612
907.3372, 41.30971
907.8193, 43.92941
908.3015, 46.31855
908.7836, 48.74569
909.2657, 51.69163
909.7478, 55.46515
910.2299, 59.24954
910.7120, 62.92733
911.1942, 66.68849
911.6763, 70.73432
912.1584, 75.09359
912.6405, 80.03910
913.1226, 85.59062
913.6047, 91.54366
914.0869, 97.40609
914.5690, 103.7893
915.0511, 111.3204
915.5332, 120.3074
916.0153, 129.6053
916.4974, 138.9806
916.9796, 148.9787
917.4617, 160.0262
917.9438, 172.0814
918.4259, 184.7784
918.9080, 198.1252
919.3901, 212.2551
919.8723, 227.0641
920.3544, 242.8530
920.8365, 259.9985
921.3186, 278.4791
921.8007, 298.1576
922.2828, 319.0363
922.7650, 341.0723
923.2471, 363.9761
923.7292, 388.0172
924.2113, 413.9413
924.6934, 441.4101
925.1755, 469.7040
925.6577, 498.1171
926.1398, 527.5211
926.6219, 558.7822
927.1040, 591.4947
927.5861, 624.8024
928.0682, 659.2613
928.5504, 693.3685
929.0325, 727.6102
929.5146, 760.1571
929.9967, 789.0642
930.4788, 814.2805
930.9609, 837.7689
931.4431, 859.9211
931.9252, 878.0439
932.4073, 891.8850
932.8894, 900.0121
933.3715, 901.1182
933.8536, 894.8820
934.3358, 883.3555
934.8179, 867.6112
935.3000, 845.6182
935.7821, 815.6689
936.2642, 779.0001
936.7463, 739.9953
937.2285, 698.5591
937.7106, 656.5292
938.1927, 613.7742
938.6748, 571.1047
939.1569, 527.9569
939.6390, 485.3564
940.1212, 445.8645
940.6033, 409.4584
941.0854, 375.7827
941.5675, 344.8620
942.0496, 316.5935
942.5317, 291.5415
943.0139, 269.4236
943.4960, 249.6188
943.9781, 231.7701
944.4602, 215.7806
944.9423, 201.7426
945.4244, 189.4036
945.9066, 178.4726
946.3887, 169.1145
946.8708, 160.9048
947.3529, 154.1470
947.8350, 147.7329
948.3171, 141.0145
948.7993, 134.1085
949.2814, 127.3404
949.7635, 120.7056
950.2456, 113.9583
950.7277, 106.8583
951.2098, 99.79445
951.6920, 92.88546
952.1741, 86.21848
952.6562, 80.01131
953.1383, 74.37794
953.6204, 68.86938
954.1025, 63.31011
954.5847, 57.97666
955.0668, 53.26621
955.5489, 49.07539
956.0310, 45.10832
956.5131, 41.29550
956.9952, 37.80598
957.4774, 34.81201
957.9595, 32.15132
958.4416, 29.63161
958.9237, 27.23461
959.4058, 25.01350
959.8879, 22.98624
960.3701, 21.14302
960.8522, 19.57075
961.3343, 18.13702
961.8164, 16.53722
962.2985, 14.81653
962.7806, 13.37910
963.2628, 12.69774
963.7449, 12.02978
964.2270, 11.01073
964.7091, 9.777885
965.1912, 8.758614
965.6733, 7.967793
966.1555, 7.246315
966.6376, 6.553104
967.1197, 5.893356
967.6018, 5.297062
968.0839, 4.738029
968.5660, 4.178566
969.0482, 3.554031
969.5303, 3.044720
970.0124, 2.782932
970.4945, 2.537292
970.9766, 2.082569
971.4587, 1.411007
971.9409, 1.013546
972.4230, 0.9032400
972.9051, 0.8520160
973.3872, 0.7204090
973.8693, 0.5391540
974.3514, 0.3067050
974.8336, 4.1412000E-02
975.3157, 0.1540720
975.7978, 0.2506220
976.2799, 0.2819820
976.7620, 0.2154730
977.2441, 0.1260220
977.7263, 0.2166100
978.2084, 0.4550320
978.6905, 0.6685180
979.1726, 0.8158530
979.6547, 0.8990290
980.1368, 0.8461070
980.6190, 0.7676540
981.1010, 0.8068730
981.5831, 1.077297
982.0652, 1.154572
982.5474, 0.9824640
983.0295, 0.7721290
983.5116, 0.7111970
983.9937, 0.7392350
984.4758, 0.6826100
984.9579, 0.5459020
985.4401, 0.3953250
985.9222, 0.3723980
986.4043, 0.2241060
986.8864, 0.2409290
987.3685, 0.9097180
987.8506, 1.508308
988.3328, 2.038277
988.8149, 2.445141
989.2970, 2.616795
989.7791, 2.905163
990.2612, 4.035828
990.7433, 5.547829
991.2255, 6.610878
991.7076, 6.773193
992.1897, 7.211761
992.6718, 8.395409
993.1539, 9.710274
993.6360, 10.77541
994.1182, 11.60092
994.6003, 12.57958
995.0824, 13.71687
995.5645, 14.88633
996.0466, 16.00085
996.5287, 17.14828
997.0109, 18.41616
997.4930, 19.76363
997.9751, 21.07653
998.4572, 22.34295
998.9393, 23.59901
999.4214, 24.86359
999.9036, 26.10995
1000.386, 27.27006
1000.868, 28.34898
1001.350, 29.33958
1001.832, 30.21048
1002.314, 31.14317
1002.796, 32.38828
1003.278, 33.60863
1003.760, 34.48432
1004.243, 34.99544
1004.725, 35.61737
1005.207, 36.34989
1005.689, 37.22340
1006.171, 38.40103
1006.653, 39.62713
1007.135, 40.86258
1007.617, 41.82832
1008.100, 41.81121
1008.582, 39.48718
1009.064, 37.51050
1009.546, 36.45784
1010.028, 35.92941
1010.510, 35.55626
1010.992, 35.31433
1011.474, 34.64627
1011.956, 33.46529
1012.439, 32.14125
1012.921, 30.86499
1013.403, 29.68132
1013.885, 28.62077
1014.367, 27.69386
1014.849, 26.95282
1015.331, 26.52250
1015.813, 25.97107
1016.296, 25.11129
1016.778, 24.05983
1017.260, 23.11367
1017.742, 22.21138
1018.224, 21.10827
1018.706, 19.35815
1019.188, 18.01368
1019.670, 18.14161
1020.152, 18.48404
1020.635, 17.60844
1021.117, 15.13321
1021.599, 14.01617
1022.081, 14.41873
1022.563, 14.85393
1023.045, 14.10856
1023.527, 12.75211
1024.009, 11.14926
1024.492, 9.448536
1024.974, 8.352459
1025.456, 8.642132
1025.938, 8.621155
1026.420, 7.855995
1026.902, 6.726013
1027.384, 5.910255
1027.866, 5.371170
1028.349, 4.982189
1028.831, 4.754818
1029.313, 4.504742
1029.795, 3.942619
1030.277, 3.436230
1030.759, 3.376995
1031.241, 3.824738
1031.723, 3.881714
1032.205, 3.488361
1032.688, 3.074497
1033.170, 2.883732
1033.652, 2.807041
1034.134, 2.664349
1034.616, 2.509434
1035.098, 2.462803
1035.580, 2.759438
1036.062, 2.858315
1036.544, 2.602962
1037.027, 2.246525
1037.509, 2.127155
1037.991, 2.208607
1038.473, 2.179337
1038.955, 2.004845
1039.437, 1.823696
1039.919, 1.780102
1040.401, 1.766800
1040.884, 1.712063
1041.366, 1.605793
1041.848, 1.464386
1042.330, 1.302258
1042.812, 1.057495
1043.294, 0.6617090
1043.776, 0.2684330
1044.258, 0.1393050
1044.740, 0.1781650
1045.223, 0.1806180
1045.705, 7.8941002E-02
1046.187, 5.4279999E-03
1046.669, 3.8113002E-02
1047.151, 3.5900000E-02
1047.633, 0.1209070
1048.115, 0.4035300
1048.597, 0.5887830
1049.079, 0.6789510
1049.562, 0.6734810
1050.044, 0.4945030
1050.526, 0.3009830
1051.008, 0.1863590
1051.490, 0.1298480
1051.972, 7.8083001E-02
1052.454, 1.9238001E-02
1052.936, 3.8913999E-02
1053.419, 0.1777800
1053.901, 0.2531930
1054.383, 4.4773001E-02
1054.865, 0.4702870
1055.347, 0.6894840
1055.829, 0.6697580
1056.311, 0.5727730
1056.793, 0.3181270
1057.276, 0.1627880
1057.758, 0.2138330
1058.240, 0.3939060
1058.722, 0.4718930
1059.204, 0.4789730
1059.686, 0.5721590
1060.168, 0.8398630
1060.650, 1.094555
1061.132, 1.224964
1061.615, 1.282368
1062.097, 1.293911
1062.579, 1.237167
1063.061, 1.393566
1063.543, 1.792198
1064.025, 2.143520
1064.507, 2.135929
1064.989, 2.066154
1065.471, 2.329121
1065.954, 2.828236
1066.436, 3.322510
1066.918, 3.900253
1067.400, 4.210629
1067.882, 4.114964
1068.364, 3.959961
1068.846, 4.194019
1069.328, 4.710133
1069.811, 5.099960
1070.293, 5.348251
1070.775, 5.705048
1071.257, 6.475372
1071.739, 7.194485
1072.221, 7.570217
1072.703, 7.761234
1073.185, 8.329277
1073.667, 9.262253
1074.150, 10.19249
1074.632, 11.03365
1075.114, 11.78667
1075.596, 12.19578
1076.078, 12.66149
1076.560, 13.70564
1077.042, 15.57178
1077.524, 16.92049
1078.006, 17.56953
1078.489, 18.34138
1078.971, 19.75601
1079.453, 21.48723
1079.935, 22.83122
1080.417, 23.95938
1080.899, 25.28954
1081.381, 27.21105
1081.863, 29.00394
1082.345, 30.49030
1082.828, 31.93436
1083.310, 33.58968
1083.792, 35.42355
1084.274, 37.18328
1084.756, 38.87069
1085.238, 40.64171
1085.720, 42.85208
1086.202, 44.91212
1086.685, 46.39908
1087.167, 47.50659
1087.649, 48.76390
1088.131, 50.24353
1088.613, 51.16448
1089.095, 51.37015
1089.577, 51.14062
1090.059, 50.61749
1090.542, 49.90853
1091.024, 49.24334
1091.506, 48.65482
1091.988, 47.29761
1092.470, 44.87149
1092.952, 42.40725
1093.434, 40.27289
1093.916, 38.31370
1094.398, 36.28775
1094.880, 34.17718
1095.363, 31.98955
1095.845, 29.61356
1096.327, 27.37874
1096.809, 25.30873
1097.291, 23.46567
1097.773, 21.97624
1098.255, 20.76857
1098.737, 19.27359
1099.220, 17.56302
1099.702, 16.04640
1100.184, 15.16463
1100.666, 14.29108
1101.148, 12.93635
1101.630, 11.46802
1102.112, 10.45256
1102.594, 9.950142
1103.077, 9.460838
1103.559, 8.955868
1104.041, 8.389801
1104.523, 7.636814
1105.005, 6.878479
1105.487, 6.303219
1105.969, 5.863670
1106.451, 5.319180
1106.933, 4.594753
1107.416, 3.953884
1107.898, 3.431484
1108.380, 3.064186
1108.862, 3.021030
1109.344, 3.095440
1109.826, 2.904617
1110.308, 2.378067
1110.790, 1.974628
1111.272, 1.894547
1111.755, 1.810871
1112.237, 1.642086
1112.719, 1.420723
1113.201, 1.197422
1113.683, 0.9802700
1114.165, 0.7853390
1114.647, 0.6162950
1115.129, 0.4524540
1115.612, 0.2221070
1116.094, 7.5595997E-02
1116.576, 0.1560020
1117.058, 0.4365230
1117.540, 0.4349250
1118.022, 0.1810840
1118.504, 2.2064000E-02
1118.986, 0.2760090
1119.469, 0.5039250
1119.951, 0.3387150
1120.433, 4.3139998E-03
1120.915, 0.2144580
1121.397, 0.2666780
1121.879, 0.2499960
1122.361, 0.1611940
1122.843, 4.9068000E-02
1123.325, 9.7205997E-02
1123.807, 0.2101290
1124.290, 0.1734620
1124.772, 3.8467001E-02
1125.254, 1.7941000E-02
1125.736, 2.4040001E-02
1126.218, 0.1309430
1126.700, 0.2277260
1127.182, 0.2806740
1127.664, 0.5779420
1128.147, 0.6754380
1128.629, 2.5146000E-02
1129.111, 0.3046760
1129.593, 0.2214890
1130.075, 0.1213260
1130.557, 0.5960540
1131.039, 1.1471000E-02
1131.521, 0.4772300
1132.004, 0.5234410
1132.486, 0.7614900
1132.968, 0.5840000
1133.450, 0.8769230
1133.932, 0.9952320
1134.414, 1.044136
1134.896, 1.117325
1135.378, 1.276844
1135.860, 1.492035
1136.343, 1.637173
1136.825, 1.727848
1137.307, 1.774162
1137.789, 1.767315
1138.271, 1.764404
1138.753, 1.899410
1139.235, 1.962246
1139.717, 1.697849
1140.199, 1.094139
1140.682, 1.005890
1141.164, 1.428986
1141.646, 1.922474
1142.128, 2.337250
1142.610, 2.590664
1143.092, 2.509293
1143.574, 2.287590
1144.056, 2.217743
1144.539, 2.364906
1145.021, 2.456490
1145.503, 2.482559
1145.985, 2.516350
1146.467, 2.689659
1146.949, 2.839561
1147.431, 2.749786
1147.913, 2.490437
1148.396, 2.257648
1148.878, 2.051193
1149.360, 1.918140
1149.842, 1.845787
1150.324, 1.901711
1150.806, 2.294319
1151.288, 2.778950
1151.770, 3.004173
1152.252, 2.965607
1152.734, 2.812157
1153.217, 2.453899
1153.699, 2.217987
1154.181, 2.212990
1154.663, 2.263504
1155.145, 2.120438
1155.627, 1.821350
1156.109, 1.360821
1156.591, 0.7365800
1157.074, 0.3719410
1157.556, 0.5756260
1158.038, 0.8892330
1158.520, 1.282116
1159.002, 1.606075
1159.484, 1.407341
1159.966, 0.8666730
1160.448, 0.5527340
1160.931, 0.6224590
1161.413, 0.7419970
1161.895, 0.8591500
1162.377, 0.8825950
1162.859, 0.7170870
1163.341, 0.4245910
1163.823, 0.3066900
1164.305, 0.3468740
1164.787, 0.4346770
1165.270, 0.5647960
1165.752, 0.6484070
1166.234, 0.6218490
1166.716, 0.5452920
1167.198, 0.4566150
1167.680, 0.3573680
1168.162, 0.2697600
1168.644, 0.1899530
1169.126, 9.9388003E-02
1169.609, 0.1038630
1170.091, 0.1744380
1170.573, 0.1939240
1171.055, 0.6608850
1171.537, 0.8391420
1172.019, 0.6982730
1172.501, 0.6813660
1172.983, 0.7876170
1173.466, 0.8600500
1173.948, 0.7884670
1174.430, 0.6582910
1174.912, 0.4576030
1175.394, 0.2660290
1175.876, 0.2147980
1176.358, 0.3350070
1176.840, 0.4016990
1177.323, 0.4027630
1177.805, 0.3957900
1178.287, 0.4152340
1178.769, 0.4417040
1179.251, 0.5082130
1179.733, 0.5744630
1180.215, 0.5160410
1180.697, 0.2786100
1181.179, 0.1882740
1181.661, 0.2888790
1182.144, 0.4522930
1182.626, 0.6176530
1183.108, 0.7610470
1183.590, 0.8775900
1184.072, 0.9502530
1184.554, 0.8813670
1185.036, 0.6182710
1185.518, 0.5466380
1186.001, 0.7659030
1186.483, 0.9760860
1186.965, 0.8127020
1187.447, 0.5042950
1187.929, 0.2586480
1188.411, 0.1041030
1188.893, 8.5674003E-02
1189.375, 0.2718810
1189.858, 0.3467790
1190.340, 0.2188000
1190.822, 5.5210002E-02
1191.304, 1.0857000E-02
1191.786, 5.6150001E-03
1192.268, 0.1397090
1192.750, 0.4318160
1193.232, 0.4363210
1193.714, 7.5759999E-03
1194.197, 0.2629320
1194.679, 0.1628230
1195.161, 7.5801998E-02
1195.643, 0.1378140
1196.125, 0.1295970
1196.607, 0.2340130
1197.089, 0.5119360
1197.571, 0.5557670
1198.053, 0.2721520
1198.536, 1.6819000E-02
1199.018, 0.2314720
1199.500, 0.3307270
1199.982, 0.1490970
1200.464, 0.1487920
1200.946, 0.3019710
1201.428, 0.2153020
1201.910, 0.1636200
1202.393, 0.1571160
1202.875, 0.1945270
1203.357, 0.3012430
1203.839, 0.4154240
1204.321, 0.4116820
1204.803, 0.3475340
1205.285, 0.3227840
1205.767, 0.3748550
1206.250, 0.4194220
1206.732, 0.4445340
1207.214, 0.4941500
1207.696, 0.6242160
1208.178, 0.7592160
1208.660, 0.7013280
1209.142, 0.5662190
1209.624, 0.5926230
1210.106, 1.094416
1210.589, 1.148594
1211.071, 0.6038570
1211.553, 4.9118001E-02
1212.035, 0.1351590
1212.517, 9.2767999E-02
1212.999, 1.6928000E-02
1213.481, 7.9239003E-02
1213.963, 0.1675700
1214.445, 0.2849920
1214.928, 0.2992170
1215.410, 0.1753140
1215.892, 6.2772997E-02
1216.374, 8.6514004E-02
1216.856, 0.1831440
1217.338, 0.3025510
1217.820, 0.4072150
1218.302, 0.4024580
1218.785, 0.1969430
1219.267, 3.8000001E-04
1219.749, 0.2027820
1220.231, 0.3168280
1220.713, 0.1943440
1221.195, 2.1305000E-02
1221.677, 7.4936002E-02
1222.159, 4.0495001E-02
1222.641, 0.1193200
1223.124, 0.4584030
1223.606, 0.6662240
1224.088, 0.7106420
1224.570, 0.6359880
1225.052, 0.3307060
1225.534, 3.0339999E-02
1226.016, 0.1489750
1226.498, 0.5429440
1226.980, 0.6674820
1227.463, 0.3143440
1227.945, 0.1557160
1228.427, 0.2893580
1228.909, 0.4386600
1229.391, 0.3050820
1229.873, 8.1547000E-02
1230.355, 4.5023002E-02
1230.837, 6.2098000E-02
1231.320, 4.6930000E-02
1231.802, 0.3326550
1232.284, 0.5493220
1232.766, 0.6746600
1233.248, 0.7111360
1233.730, 0.6201520
1234.212, 0.4785350
1234.694, 0.3122670
1235.177, 0.1682280
1235.659, 0.2045650
1236.141, 0.4719240
1236.623, 0.6968770
1237.105, 0.8636300
1237.587, 0.8784180
1238.069, 0.4953290
1238.551, 6.4429998E-02
1239.033, 0.1006130
1239.516, 5.4501999E-02
1239.998, 3.8144998E-02
1240.480, 0.1829200
1240.962, 0.3434560
1241.444, 0.5189150
1241.926, 0.6636980
1242.408, 0.6798420
1242.890, 0.7056030
1243.372, 0.9291320
1243.855, 1.236485
1244.337, 1.248911
1244.819, 0.9533710
1245.301, 0.8051090
1245.783, 0.8840290
1246.265, 0.9482400
1246.747, 0.8433420
1247.229, 0.6520520
1247.712, 0.2559870
1248.194, 0.1779800
1248.676, 0.1973230
1249.158, 0.1633890
1249.640, 0.4106980
1250.122, 0.5061230
1250.604, 0.5493930
1251.086, 0.5967580
1251.568, 0.6303620
1252.051, 0.6031670
1252.533, 0.5881650
1253.015, 0.6443250
1253.497, 0.7456130
1253.979, 0.8003900
1254.461, 0.7928120
1254.943, 0.7395800
1255.425, 0.5805130
1255.907, 0.4604990
1256.390, 0.4330480
1256.872, 0.4760340
1257.354, 0.5862030
1257.836, 0.7288070
1258.318, 0.7636320
1258.800, 0.6805880
1259.282, 0.6152100
1259.764, 0.5710540
1260.247, 0.6262420
1260.729, 0.8589380
1261.211, 1.122576
1261.693, 1.121632
1262.175, 0.9428940
1262.657, 0.8106780
1263.139, 0.8155520
1263.621, 0.7773950
1264.104, 0.5964760
1264.586, 0.5107150
1265.068, 0.6028480
1265.550, 0.7481900
1266.032, 0.7463490
1266.514, 0.6690650
1266.996, 0.6305640
1267.478, 0.6335470
1267.960, 0.6607270
1268.443, 0.7230930
1268.925, 0.8151990
1269.407, 0.9560110
1269.889, 1.055368
1270.371, 0.9622380
1270.853, 0.8111920
1271.335, 0.7738320
1271.817, 0.8299180
1272.299, 0.7642590
1272.782, 0.5502720
1273.264, 0.4479730
1273.746, 0.5328900
1274.228, 0.6290650
1274.710, 0.4631500
1275.192, 0.3193240
1275.674, 0.5796950
1276.156, 1.087757
1276.639, 1.063560
1277.121, 0.6295010
1277.603, 0.2220060
1278.085, 7.7561997E-02
1278.567, 0.1686840
1279.049, 0.3398720
1279.531, 0.7564910
1280.013, 0.5208440
1280.495, 5.3082000E-02
1280.978, 7.9320997E-02
1281.460, 0.3422550
1281.942, 0.5231420
1282.424, 0.3407750
1282.906, 0.1982230
1283.388, 0.3300020
1283.870, 0.5250170
1284.352, 0.7536180
1284.834, 0.9226910
1285.317, 0.7627810
1285.799, 0.4102610
1286.281, 0.2887440
1286.763, 0.4525470
1287.245, 0.5829240
1287.727, 0.5652520
1288.209, 0.5046830
1288.691, 0.4071010
1289.173, 0.3006320
1289.656, 0.1873780
1290.138, 0.1172410
1290.620, 0.2749400
1291.102, 0.6165750
1291.584, 0.5898130
1292.066, 0.2523610
1292.548, 8.9260004E-03
1293.030, 8.6169997E-03
1293.513, 0.1165470
1293.995, 3.2187000E-02
1294.477, 7.3490001E-02
1294.959, 6.2153000E-02
1295.441, 2.5715001E-02
1295.923, 1.9347999E-02
1296.405, 0.1775950
1296.887, 0.4954930
1297.370, 2.285362
1297.852, 3.752842
1298.334, 2.905655
1298.816, 1.871820
1299.298, 2.965919
1299.780, 4.613743
1300.262, 3.887552
1300.744, 0.8811590
1301.226, 0.5524540
1301.708, 3.011108
1302.191, 5.237404
1302.673, 6.295609
1303.155, 5.706879
1303.637, 3.571892
1304.119, 0.0000000E+00
##END=



