##NAMES=Cavansite
##RRUFFID=R050400
##IDEAL CHEMISTRY=CaV^4+^OSi_4_O_10_&#183;4H_2_O
##LOCALITY=Poona, India
##OWNER=RRUFF
##SOURCE=Eugene Schlepp
##DESCRIPTION=Spray of blue crystals
##STATUS=The identification of this mineral has been confirmed by X-ray diffraction and chemical analysis
##URL=rruff.info/R050400
##MEASURED CHEMISTRY=(Ca_0.99_Mg_0.01_)_Σ=1_(V^4+^_1.00_O)Si_4.00_O_10_·4H_2_O
120.7984, 0.0000000E+00
121.2805, 0.5023800
121.7626, 5.483185
122.2448, 11.73602
122.7269, 18.23837
123.2090, 24.43481
123.6911, 29.79144
124.1732, 34.01016
124.6553, 37.59750
125.1375, 40.46280
125.6196, 42.73495
126.1017, 45.18344
126.5838, 48.48523
127.0659, 52.20050
127.5480, 55.76337
128.0302, 59.03101
128.5123, 62.36209
128.9944, 65.96365
129.4765, 69.73846
129.9586, 74.18985
130.4407, 79.44510
130.9229, 85.63174
131.4050, 93.57224
131.8871, 104.0658
132.3692, 115.6364
132.8513, 125.1012
133.3334, 131.7885
133.8156, 135.8428
134.2977, 136.8079
134.7798, 135.4615
135.2619, 132.6823
135.7440, 126.9765
136.2261, 119.3956
136.7083, 112.0560
137.1904, 104.5020
137.6725, 97.22397
138.1546, 88.93228
138.6367, 79.27228
139.1188, 70.43802
139.6010, 63.06769
140.0831, 57.18234
140.5652, 51.01056
141.0473, 44.26553
141.5294, 37.52020
142.0115, 31.62628
142.4937, 26.71960
142.9758, 22.14996
143.4579, 17.60315
143.9400, 12.94452
144.4221, 9.011810
144.9042, 6.032501
145.3864, 3.601715
145.8685, 1.045746
146.3506, 2.203796
146.8327, 4.864899
147.3148, 6.468384
147.7969, 6.470215
148.2791, 6.649231
148.7612, 7.314789
149.2433, 8.128021
149.7254, 8.299713
150.2075, 7.190430
150.6896, 5.998810
151.1718, 5.245575
151.6539, 6.492554
152.1360, 5.911285
152.6181, 2.471100
153.1002, 2.981995
153.5823, 7.906799
154.0645, 11.62906
154.5466, 15.19910
155.0287, 19.08362
155.5108, 23.23868
155.9929, 27.88742
156.4750, 33.14951
156.9572, 38.94232
157.4393, 44.83780
157.9214, 51.10657
158.4035, 57.28848
158.8856, 63.11554
159.3677, 68.38831
159.8499, 73.47144
160.3320, 78.64862
160.8141, 83.80627
161.2962, 88.23050
161.7783, 92.84134
162.2604, 96.03708
162.7426, 96.49490
163.2247, 91.59650
163.7068, 85.84879
164.1889, 81.37906
164.6710, 78.12881
165.1531, 74.33505
165.6353, 68.51773
166.1174, 61.92114
166.5995, 55.87857
167.0816, 51.10684
167.5637, 46.83881
168.0458, 42.17154
168.5280, 37.14203
169.0101, 33.33948
169.4922, 32.37149
169.9743, 33.17520
170.4564, 34.28534
170.9385, 34.56567
171.4207, 35.20990
171.9028, 37.20938
172.3849, 40.60181
172.8670, 45.16452
173.3491, 51.37549
173.8312, 58.64151
174.3134, 65.85678
174.7955, 71.84277
175.2776, 77.73505
175.7597, 84.78677
176.2418, 93.14151
176.7239, 102.4529
177.2061, 112.7982
177.6882, 124.0901
178.1703, 135.8719
178.6524, 148.3047
179.1345, 161.1402
179.6166, 173.0769
180.0988, 183.9969
180.5809, 194.8301
181.0630, 206.6978
181.5451, 219.5104
182.0272, 232.4139
182.5093, 244.3707
182.9915, 256.2618
183.4736, 270.2144
183.9557, 286.7581
184.4378, 304.3750
184.9199, 321.1753
185.4020, 337.1044
185.8842, 354.0478
186.3663, 372.8952
186.8484, 393.5303
187.3305, 415.0443
187.8126, 437.8282
188.2947, 460.8819
188.7769, 482.6195
189.2590, 503.1032
189.7411, 523.4512
190.2232, 545.1569
190.7053, 567.7131
191.1874, 588.7930
191.6696, 608.9757
192.1517, 626.6048
192.6338, 638.8625
193.1159, 645.7264
193.5980, 648.2610
194.0801, 648.2871
194.5623, 645.5024
195.0444, 634.0598
195.5265, 612.4327
196.0086, 583.4130
196.4907, 552.5082
196.9728, 519.8008
197.4550, 484.5217
197.9371, 444.9566
198.4192, 401.0081
198.9013, 358.8066
199.3834, 318.5497
199.8655, 280.8096
200.3477, 246.2438
200.8298, 214.9017
201.3119, 186.9625
201.7940, 162.5190
202.2761, 141.6937
202.7582, 122.9804
203.2404, 106.3495
203.7225, 91.64511
204.2046, 78.34143
204.6867, 66.35507
205.1688, 56.10272
205.6509, 48.21741
206.1331, 42.86450
206.6152, 38.43936
207.0973, 34.62924
207.5794, 31.80630
208.0615, 31.23145
208.5436, 33.30295
209.0258, 36.36707
209.5079, 39.34616
209.9900, 42.20984
210.4721, 45.62097
210.9542, 49.54459
211.4363, 53.84109
211.9185, 58.39456
212.4006, 63.04251
212.8827, 68.27045
213.3648, 74.17245
213.8469, 80.65359
214.3290, 88.08383
214.8112, 97.05487
215.2933, 107.0712
215.7754, 116.1975
216.2575, 124.0198
216.7396, 131.7572
217.2217, 140.0382
217.7038, 148.8705
218.1860, 158.0844
218.6681, 167.3763
219.1502, 177.0257
219.6323, 188.2230
220.1144, 201.7855
220.5965, 215.3433
221.0787, 227.2843
221.5608, 236.7715
222.0429, 246.8853
222.5250, 257.9076
223.0071, 269.6702
223.4892, 281.0281
223.9714, 291.6026
224.4535, 302.5325
224.9356, 314.8435
225.4177, 329.6647
225.8998, 343.0028
226.3819, 354.6154
226.8641, 364.6701
227.3462, 373.4008
227.8283, 380.9487
228.3104, 386.9492
228.7925, 391.2339
229.2746, 394.1661
229.7568, 394.5553
230.2389, 392.0550
230.7210, 387.0327
231.2031, 380.7658
231.6852, 373.4393
232.1673, 364.6146
232.6495, 354.0410
233.1316, 341.2304
233.6137, 327.7316
234.0958, 313.5326
234.5779, 298.8350
235.0600, 284.3502
235.5422, 269.5817
236.0243, 255.5060
236.5064, 242.5628
236.9885, 231.1032
237.4706, 220.0334
237.9527, 209.6265
238.4349, 199.6710
238.9170, 189.6508
239.3991, 178.9159
239.8812, 169.0823
240.3633, 160.8419
240.8454, 154.4963
241.3276, 149.0338
241.8097, 144.6735
242.2918, 141.1933
242.7739, 138.2717
243.2560, 136.4194
243.7381, 134.3355
244.2203, 131.4390
244.7024, 127.2953
245.1845, 123.5014
245.6666, 119.7030
246.1487, 116.4345
246.6308, 114.7583
247.1130, 115.4345
247.5951, 116.4623
248.0772, 117.1534
248.5593, 117.3842
249.0414, 117.7612
249.5235, 118.4888
250.0057, 119.2298
250.4878, 119.4359
250.9699, 119.0338
251.4520, 118.2163
251.9341, 117.0673
252.4162, 115.6066
252.8984, 113.6566
253.3805, 111.0773
253.8626, 108.0883
254.3447, 105.2314
254.8268, 102.9916
255.3089, 99.79660
255.7911, 95.11298
256.2732, 88.76877
256.7553, 82.18301
257.2374, 75.17471
257.7195, 68.07520
258.2017, 61.26315
258.6838, 54.67346
259.1659, 48.39270
259.6480, 42.47864
260.1301, 37.01337
260.6122, 31.13989
261.0944, 24.42456
261.5765, 17.80832
262.0586, 12.29242
262.5407, 8.140320
263.0228, 4.409119
263.5049, 0.9954220
263.9871, 2.138214
264.4692, 5.114380
264.9513, 8.118164
265.4334, 10.72507
265.9155, 12.56158
266.3976, 13.45401
266.8798, 14.02234
267.3619, 14.35382
267.8440, 14.44803
268.3261, 14.23749
268.8082, 13.73499
269.2903, 12.90674
269.7725, 11.80362
270.2546, 10.54019
270.7367, 8.468445
271.2188, 5.272308
271.7009, 1.256226
272.1830, 2.378326
272.6652, 5.555847
273.1473, 8.496613
273.6294, 11.06866
274.1115, 13.01022
274.5936, 16.32315
275.0757, 21.49475
275.5579, 27.97601
276.0400, 34.14590
276.5221, 39.97964
277.0042, 45.58926
277.4863, 50.76724
277.9684, 55.41193
278.4506, 61.17239
278.9327, 68.54251
279.4148, 76.59845
279.8969, 83.22363
280.3790, 88.22043
280.8611, 93.19250
281.3433, 98.92767
281.8254, 105.4486
282.3075, 112.2316
282.7896, 119.2657
283.2717, 126.6347
283.7538, 134.8340
284.2360, 143.9246
284.7181, 152.3365
285.2002, 159.1460
285.6823, 164.5243
286.1644, 170.0678
286.6465, 175.8047
287.1287, 181.4292
287.6108, 186.5350
288.0929, 191.1297
288.5750, 195.4213
289.0571, 199.8193
289.5392, 203.9936
290.0214, 206.3564
290.5035, 206.7836
290.9856, 206.4293
291.4677, 206.6434
291.9498, 207.2293
292.4319, 207.0017
292.9141, 205.5798
293.3962, 203.1298
293.8783, 199.8386
294.3604, 195.7167
294.8425, 191.2787
295.3246, 187.1066
295.8068, 182.9603
296.2889, 178.0421
296.7710, 171.7447
297.2531, 164.9951
297.7352, 159.3140
298.2173, 154.6770
298.6995, 150.6470
299.1816, 147.2307
299.6637, 144.1978
300.1458, 141.1898
300.6279, 138.1317
301.1100, 135.0044
301.5922, 131.5763
302.0743, 127.9977
302.5564, 124.9058
303.0385, 122.4891
303.5206, 120.8212
304.0027, 120.2452
304.4849, 121.0993
304.9670, 121.8683
305.4491, 121.0184
305.9312, 118.9613
306.4133, 116.6837
306.8954, 114.4565
307.3776, 112.3725
307.8597, 110.5426
308.3418, 108.9631
308.8239, 107.7265
309.3060, 107.0825
309.7881, 106.8002
310.2703, 106.5804
310.7524, 105.9613
311.2345, 105.6713
311.7166, 106.2407
312.1987, 107.6783
312.6808, 109.5398
313.1630, 112.3040
313.6451, 115.0445
314.1272, 116.7375
314.6093, 115.7446
315.0914, 114.9478
315.5735, 115.9013
316.0557, 118.3311
316.5378, 120.9118
317.0199, 123.7277
317.5020, 126.1516
317.9841, 127.7341
318.4662, 127.9719
318.9484, 127.7732
319.4305, 127.2458
319.9126, 126.5142
320.3947, 125.8598
320.8768, 125.4914
321.3589, 125.0281
321.8411, 124.1063
322.3232, 122.6156
322.8053, 120.9789
323.2874, 119.0419
323.7695, 117.1318
324.2516, 115.7501
324.7338, 115.3455
325.2159, 115.1870
325.6980, 114.9673
326.1801, 114.5233
326.6622, 114.7373
327.1443, 115.8868
327.6265, 117.6694
328.1086, 119.7867
328.5907, 122.2062
329.0728, 125.1131
329.5549, 128.5299
330.0370, 132.3725
330.5192, 136.6593
331.0013, 141.6737
331.4834, 146.9339
331.9655, 152.2171
332.4476, 158.0093
332.9297, 162.9758
333.4119, 166.7153
333.8940, 169.4834
334.3761, 172.4889
334.8582, 176.1885
335.3403, 179.3387
335.8224, 181.2483
336.3046, 181.6331
336.7867, 181.7032
337.2688, 181.8469
337.7509, 181.3984
338.2330, 178.7260
338.7151, 173.2625
339.1973, 167.4301
339.6794, 162.1837
340.1615, 157.6324
340.6436, 152.3814
341.1257, 146.3559
341.6078, 139.9475
342.0899, 133.5075
342.5721, 127.1359
343.0542, 121.0650
343.5363, 115.4784
344.0184, 110.3201
344.5005, 105.0895
344.9826, 99.77979
345.4648, 94.79936
345.9469, 90.65259
346.4290, 87.22461
346.9111, 84.13776
347.3932, 81.30579
347.8753, 78.72504
348.3575, 76.64462
348.8396, 75.01921
349.3217, 73.22539
349.8038, 70.58376
350.2859, 67.48849
350.7680, 64.92169
351.2502, 63.03862
351.7323, 61.52698
352.2144, 60.15695
352.6965, 58.87895
353.1786, 57.60025
353.6607, 55.98680
354.1429, 54.48161
354.6250, 53.86070
355.1071, 54.18883
355.5892, 54.40257
356.0713, 53.62265
356.5534, 52.21753
357.0356, 50.72629
357.5177, 49.22205
357.9998, 47.79787
358.4819, 46.60107
358.9640, 45.59541
359.4461, 44.62430
359.9283, 44.06721
360.4104, 43.25964
360.8925, 41.61696
361.3746, 38.76999
361.8567, 35.47969
362.3388, 31.47369
362.8210, 27.25363
363.3031, 23.85251
363.7852, 22.76595
364.2673, 21.63562
364.7494, 19.13962
365.2315, 14.60442
365.7137, 10.66992
366.1958, 8.375473
366.6779, 6.810989
367.1600, 4.881119
367.6421, 1.425568
368.1242, 1.329086
368.6064, 2.680405
369.0885, 2.549011
369.5706, 2.663574
370.0527, 3.356949
370.5348, 4.040512
371.0169, 4.312149
371.4991, 3.714401
371.9812, 3.483673
372.4633, 3.914749
372.9454, 4.764236
373.4275, 5.114746
373.9096, 4.671341
374.3918, 4.256866
374.8739, 4.343536
375.3560, 5.170593
375.8381, 5.384674
376.3202, 4.765350
376.8023, 3.812851
377.2845, 3.389374
377.7666, 3.647156
378.2487, 3.586685
378.7308, 2.717484
379.2129, 1.204926
379.6950, 0.2338560
380.1772, 0.1469420
380.6593, 0.2675480
381.1414, 0.3979340
381.6235, 0.5347750
382.1056, 0.5913850
382.5877, 0.4718630
383.0699, 0.3751220
383.5520, 0.7091370
384.0341, 1.448425
384.5162, 2.327988
384.9983, 3.233002
385.4804, 4.153748
385.9626, 5.089706
386.4447, 6.051102
386.9268, 6.968521
387.4089, 7.940811
387.8910, 8.821777
388.3731, 9.269516
388.8553, 8.781128
389.3374, 8.010757
389.8195, 7.428329
390.3016, 7.070724
390.7837, 7.171799
391.2658, 8.456543
391.7480, 10.04169
392.2301, 10.98882
392.7122, 10.72766
393.1943, 10.22314
393.6764, 9.646057
394.1585, 9.144760
394.6407, 9.150787
395.1228, 10.16866
395.6049, 11.44135
396.0870, 12.62567
396.5691, 13.66891
397.0512, 14.65013
397.5334, 15.52179
398.0155, 16.36200
398.4976, 17.26010
398.9797, 18.22867
399.4618, 19.25421
399.9439, 20.36078
400.4261, 21.54576
400.9082, 22.66660
401.3903, 23.56013
401.8724, 24.53917
402.3545, 25.81651
402.8366, 27.48784
403.3188, 29.20988
403.8009, 30.89384
404.2830, 32.64688
404.7651, 34.80362
405.2472, 37.48146
405.7293, 40.17671
406.2115, 42.68945
406.6936, 44.99672
407.1757, 47.30147
407.6578, 49.62903
408.1399, 51.90334
408.6220, 53.83754
409.1042, 55.45364
409.5863, 57.84096
410.0684, 61.67632
410.5505, 66.15636
411.0326, 69.38794
411.5147, 71.41846
411.9969, 73.34296
412.4790, 75.93623
412.9611, 79.03711
413.4432, 82.27711
413.9253, 85.69060
414.4074, 89.03821
414.8896, 92.12982
415.3717, 94.97339
415.8538, 97.56335
416.3359, 99.70714
416.8180, 101.6990
417.3001, 103.7150
417.7823, 105.7873
418.2644, 107.9712
418.7465, 110.3064
419.2286, 112.8091
419.7107, 115.4899
420.1928, 118.6602
420.6750, 121.6281
421.1571, 124.2803
421.6392, 126.5556
422.1213, 128.2282
422.6034, 128.8203
423.0855, 129.1568
423.5677, 129.4404
424.0498, 129.5202
424.5319, 130.1806
425.0140, 132.2289
425.4961, 134.4972
425.9782, 135.7801
426.4604, 135.9889
426.9425, 135.5307
427.4246, 133.8918
427.9067, 131.3731
428.3888, 130.6957
428.8709, 133.1820
429.3531, 135.3041
429.8352, 134.8755
430.3173, 131.3516
430.7994, 127.6446
431.2815, 123.6896
431.7636, 119.9321
432.2458, 117.2575
432.7279, 115.6997
433.2100, 113.9832
433.6921, 111.5990
434.1742, 108.8188
434.6563, 106.6109
435.1385, 104.9352
435.6206, 103.2288
436.1027, 100.9220
436.5848, 98.29471
437.0669, 96.09732
437.5490, 94.58595
438.0312, 93.07584
438.5133, 90.83765
438.9954, 87.97133
439.4775, 84.74930
439.9596, 80.90512
440.4417, 77.02475
440.9239, 73.89346
441.4060, 71.56967
441.8881, 68.76988
442.3702, 64.37155
442.8523, 59.35735
443.3344, 54.66040
443.8166, 50.75317
444.2987, 46.89578
444.7808, 42.50569
445.2629, 37.94521
445.7450, 34.23750
446.2271, 32.56438
446.7093, 31.01219
447.1914, 28.70433
447.6735, 25.08240
448.1556, 22.49651
448.6377, 21.57623
449.1198, 21.27567
449.6020, 20.50111
450.0841, 18.91881
450.5662, 17.67949
451.0483, 17.01099
451.5304, 16.76169
452.0125, 16.46255
452.4947, 16.17186
452.9768, 15.86942
453.4589, 15.37845
453.9410, 14.62389
454.4231, 14.46866
454.9052, 15.02023
455.3874, 15.84427
455.8695, 16.46667
456.3516, 16.88796
456.8337, 17.08043
457.3158, 16.85059
457.7979, 16.57977
458.2801, 16.99496
458.7622, 17.98980
459.2443, 18.98288
459.7264, 19.70833
460.2085, 20.24326
460.6906, 20.59723
461.1728, 20.72109
461.6549, 20.92249
462.1370, 21.46651
462.6191, 22.21789
463.1012, 22.96940
463.5833, 23.44221
464.0655, 24.08606
464.5476, 25.30611
465.0297, 26.99642
465.5118, 28.31164
465.9939, 28.79295
466.4760, 28.97867
466.9582, 29.10512
467.4403, 28.81250
467.9224, 29.16372
468.4045, 30.68610
468.8866, 32.63464
469.3687, 33.93152
469.8509, 34.12590
470.3330, 34.47874
470.8151, 35.47378
471.2972, 36.97812
471.7793, 37.45891
472.2614, 36.63145
472.7436, 35.57107
473.2257, 35.18322
473.7078, 35.48670
474.1899, 34.98186
474.6720, 33.35867
475.1541, 31.43797
475.6363, 30.56837
476.1184, 30.58232
476.6005, 30.39241
477.0826, 29.25700
477.5647, 27.83972
478.0468, 27.47376
478.5290, 28.02924
479.0111, 28.32578
479.4932, 27.44959
479.9753, 25.88326
480.4574, 24.07481
480.9395, 21.94945
481.4217, 20.10017
481.9038, 19.14000
482.3859, 18.65973
482.8680, 18.07425
483.3501, 17.10074
483.8322, 16.07619
484.3144, 15.07797
484.7965, 14.12195
485.2786, 13.25457
485.7607, 12.57471
486.2428, 11.92290
486.7249, 11.20319
487.2071, 10.31124
487.6892, 9.602806
488.1713, 9.188507
488.6534, 8.884071
489.1355, 8.353317
489.6176, 7.412910
490.0998, 6.825356
490.5819, 6.944092
491.0640, 7.545349
491.5461, 7.391968
492.0282, 6.395790
492.5103, 5.310188
492.9925, 4.568924
493.4746, 4.160744
493.9567, 4.212631
494.4388, 4.825951
494.9209, 5.383644
495.4030, 5.018768
495.8852, 4.038818
496.3673, 3.212830
496.8494, 2.952141
497.3315, 2.851227
497.8136, 2.508652
498.2957, 1.978455
498.7779, 1.506233
499.2600, 1.339920
499.7421, 1.187004
500.2242, 0.7753140
500.7063, 3.6377002E-02
501.1884, 0.6261520
501.6706, 0.6025770
502.1527, 0.3512800
502.6348, 0.2598500
503.1169, 0.4651490
503.5990, 0.7250370
504.0811, 1.026543
504.5633, 1.359993
505.0454, 1.721245
505.5275, 2.196342
506.0096, 2.534630
506.4917, 2.568970
506.9738, 2.255699
507.4560, 2.259315
507.9381, 2.708679
508.4202, 3.129890
508.9023, 2.832901
509.3844, 1.883430
509.8665, 1.515022
510.3487, 2.147949
510.8308, 3.107605
511.3129, 3.235252
511.7950, 2.664337
512.2772, 2.018288
512.7593, 1.586906
513.2414, 1.281296
513.7235, 0.9682460
514.2056, 0.6506580
514.6877, 0.4480590
515.1699, 0.7102890
515.6520, 0.9813840
516.1341, 0.8015370
516.6162, 0.1746290
517.0983, 1.125404
517.5804, 1.634781
518.0626, 1.978798
518.5447, 2.610565
519.0268, 3.885475
519.5089, 5.155602
519.9910, 6.250946
520.4731, 7.188728
520.9553, 8.197144
521.4374, 9.346718
521.9195, 10.44685
522.4016, 11.38586
522.8837, 12.13303
523.3658, 12.82710
523.8480, 13.44136
524.3301, 14.07004
524.8122, 14.88361
525.2943, 15.86352
525.7764, 16.71324
526.2585, 17.24922
526.7407, 17.73133
527.2228, 18.59791
527.7049, 19.84315
528.1870, 21.39026
528.6691, 23.32017
529.1512, 25.47955
529.6334, 27.84743
530.1155, 30.45803
530.5976, 32.67534
531.0797, 33.61497
531.5618, 34.23984
532.0439, 35.50954
532.5261, 38.18109
533.0082, 40.78522
533.4903, 43.06618
533.9724, 45.03484
534.4545, 46.77138
534.9366, 48.29062
535.4188, 49.55394
535.9009, 50.56279
536.3830, 51.31685
536.8651, 51.69273
537.3472, 51.59114
537.8293, 51.31569
538.3115, 51.02728
538.7936, 50.72253
539.2757, 50.54514
539.7578, 50.56995
540.2399, 50.53901
540.7220, 49.87217
541.2042, 48.74072
541.6863, 48.10997
542.1684, 48.47250
542.6505, 49.24121
543.1326, 49.44785
543.6147, 49.28146
544.0969, 49.48148
544.5790, 50.89357
545.0611, 52.56906
545.5432, 53.63297
546.0253, 53.97513
546.5074, 54.46599
546.9896, 55.31094
547.4717, 56.54298
547.9538, 58.21051
548.4359, 61.13922
548.9180, 63.37492
549.4001, 63.96977
549.8823, 64.04282
550.3644, 65.60315
550.8465, 69.69023
551.3286, 73.29940
551.8107, 75.38821
552.2928, 76.30265
552.7750, 78.56489
553.2571, 82.35336
553.7392, 86.62505
554.2213, 90.76295
554.7034, 94.78977
555.1855, 99.02304
555.6677, 103.4711
556.1498, 108.1717
556.6319, 112.9110
557.1140, 117.9168
557.5961, 123.6673
558.0782, 130.5155
558.5604, 137.7691
559.0425, 144.7630
559.5246, 151.7406
560.0067, 159.1433
560.4888, 167.1256
560.9709, 175.4824
561.4531, 183.8775
561.9352, 192.3387
562.4173, 201.6271
562.8994, 212.9019
563.3815, 224.1566
563.8636, 234.4603
564.3458, 243.2718
564.8279, 252.4772
565.3100, 262.1380
565.7921, 272.1842
566.2742, 282.7168
566.7563, 294.0051
567.2385, 304.3453
567.7206, 313.1911
568.2027, 320.8952
568.6848, 327.8858
569.1669, 334.3343
569.6490, 340.2686
570.1312, 346.2372
570.6133, 351.4549
571.0954, 354.8097
571.5775, 356.3570
572.0596, 356.3560
572.5417, 354.6295
573.0239, 351.6051
573.5060, 347.7117
573.9881, 343.0711
574.4702, 337.5794
574.9523, 330.7205
575.4344, 323.0084
575.9166, 315.2268
576.3987, 308.1154
576.8808, 299.8550
577.3629, 289.6841
577.8450, 278.2337
578.3271, 267.3692
578.8093, 257.1085
579.2914, 247.4767
579.7735, 238.8755
580.2556, 231.1714
580.7377, 222.1190
581.2198, 211.6199
581.7020, 201.2400
582.1841, 192.5083
582.6662, 184.8921
583.1483, 176.7850
583.6304, 167.9462
584.1125, 159.4926
584.5947, 152.9127
585.0768, 147.2544
585.5589, 141.1025
586.0410, 132.8737
586.5231, 125.3093
587.0052, 120.0638
587.4873, 116.4181
587.9694, 112.5296
588.4515, 107.9269
588.9337, 103.1091
589.4158, 97.95801
589.8979, 92.46488
590.3800, 88.14109
590.8621, 85.51617
591.3442, 83.10357
591.8264, 79.89723
592.3085, 75.80108
592.7906, 72.14156
593.2727, 68.95679
593.7548, 66.17101
594.2369, 63.86290
594.7191, 61.87110
595.2012, 59.59836
595.6833, 56.75055
596.1654, 53.81979
596.6475, 51.24649
597.1296, 49.02162
597.6118, 47.06184
598.0939, 45.68779
598.5760, 44.26041
599.0581, 42.24879
599.5402, 39.77393
600.0223, 37.65474
600.5045, 36.12072
600.9866, 34.96688
601.4687, 34.25774
601.9508, 34.30630
602.4329, 33.33751
602.9150, 30.87022
603.3972, 28.06059
603.8793, 25.90369
604.3614, 24.41992
604.8435, 23.30611
605.3256, 22.66869
605.8077, 22.07587
606.2899, 20.60986
606.7720, 18.49954
607.2541, 16.91575
607.7362, 16.54924
608.2183, 16.64461
608.7004, 16.52846
609.1826, 16.16908
609.6647, 15.46378
610.1468, 13.90720
610.6289, 12.34422
611.1110, 11.35159
611.5931, 10.96368
612.0753, 10.59922
612.5574, 10.40447
613.0395, 9.984459
613.5216, 9.063286
614.0037, 7.252991
614.4858, 5.908028
614.9680, 5.061836
615.4501, 4.633232
615.9322, 4.702690
616.4143, 5.315987
616.8964, 5.553040
617.3785, 5.232040
617.8607, 4.472878
618.3428, 3.159035
618.8249, 1.490425
619.3070, 0.3048630
619.7891, 0.2542420
620.2712, 0.6889800
620.7534, 1.197845
621.2355, 1.701637
621.7176, 1.807182
622.1997, 0.7729950
622.6818, 0.2608340
623.1639, 0.5013660
623.6461, 0.2965550
624.1282, 0.5951770
624.6103, 0.2880250
625.0924, 1.255775
625.5745, 1.529305
626.0566, 0.6051640
626.5388, 0.5946660
627.0209, 1.966919
627.5030, 3.540039
627.9851, 3.426003
628.4672, 1.726517
628.9493, 0.5420610
629.4315, 0.5183180
629.9136, 0.9620670
630.3957, 0.7080840
630.8778, 1.1101000E-02
631.3599, 0.3639070
631.8420, 0.4341510
632.3242, 1.305878
632.8063, 1.352791
633.2884, 0.6916430
633.7705, 4.4562999E-02
634.2526, 0.4374770
634.7347, 0.7612840
635.2169, 0.8332210
635.6990, 0.5536420
636.1811, 0.6752320
636.6632, 1.419373
637.1453, 2.285713
637.6274, 2.912697
638.1096, 3.268944
638.5917, 3.605858
639.0738, 3.920471
639.5559, 4.261604
640.0380, 4.653854
640.5201, 5.119087
641.0023, 5.759117
641.4844, 6.648994
641.9665, 7.634193
642.4486, 8.667381
642.9307, 9.684219
643.4128, 10.53145
643.8950, 10.70766
644.3771, 11.13503
644.8592, 12.31484
645.3413, 14.14911
645.8234, 16.12363
646.3055, 18.73846
646.7877, 20.82273
647.2698, 21.72942
647.7519, 21.39724
648.2340, 21.96266
648.7161, 23.59339
649.1982, 25.64764
649.6804, 27.67761
650.1625, 29.70251
650.6446, 31.83958
651.1267, 34.05353
651.6088, 36.63823
652.0909, 40.15889
652.5731, 44.16510
653.0552, 47.89026
653.5373, 51.04156
654.0194, 54.08530
654.5015, 57.02284
654.9836, 60.17589
655.4658, 64.02914
655.9479, 69.40018
656.4300, 74.66985
656.9121, 79.30604
657.3942, 83.66965
657.8763, 88.76461
658.3585, 94.92506
658.8406, 101.1172
659.3227, 107.0235
659.8048, 112.7125
660.2869, 118.0538
660.7690, 123.0115
661.2512, 128.5180
661.7333, 135.5429
662.2154, 143.3829
662.6975, 150.4368
663.1796, 156.6880
663.6617, 163.1024
664.1439, 170.6108
664.6260, 178.4754
665.1081, 185.9063
665.5902, 192.3941
666.0723, 199.4622
666.5544, 208.8627
667.0366, 218.1476
667.5187, 224.9983
668.0008, 227.8427
668.4829, 231.7150
668.9650, 237.5552
669.4471, 243.7394
669.9293, 247.8215
670.4114, 249.8010
670.8935, 250.5744
671.3756, 250.5658
671.8577, 249.1620
672.3398, 245.0762
672.8220, 238.6274
673.3041, 231.0238
673.7862, 222.4248
674.2683, 213.2822
674.7504, 204.0189
675.2325, 194.4995
675.7147, 184.3888
676.1968, 173.3881
676.6789, 161.7998
677.1610, 149.5639
677.6431, 136.4965
678.1252, 124.9673
678.6074, 115.5325
679.0895, 106.8144
679.5716, 97.93966
680.0537, 88.82020
680.5358, 80.84801
681.0179, 74.11340
681.5001, 68.17064
681.9822, 62.80971
682.4643, 57.91109
682.9464, 53.39885
683.4285, 49.29573
683.9106, 45.42429
684.3928, 41.31534
684.8749, 37.35384
685.3570, 33.96700
685.8391, 31.94302
686.3212, 29.83039
686.8033, 27.00863
687.2855, 24.00111
687.7676, 21.70766
688.2497, 20.37489
688.7318, 19.15418
689.2139, 17.84969
689.6960, 16.49671
690.1782, 15.28558
690.6603, 14.23555
691.1424, 13.21657
691.6245, 12.14610
692.1066, 11.01923
692.5887, 9.763412
693.0709, 8.445122
693.5530, 7.330872
694.0351, 6.537094
694.5172, 6.045250
694.9993, 6.058716
695.4814, 6.578140
695.9636, 6.582436
696.4457, 5.255653
696.9278, 4.074570
697.4099, 3.807098
697.8920, 4.645874
698.3741, 5.128784
698.8563, 5.204430
699.3384, 5.059486
699.8205, 4.718185
700.3026, 4.265686
700.7847, 4.108871
701.2668, 4.314766
701.7490, 4.703094
702.2311, 5.442192
702.7132, 6.134598
703.1953, 6.141022
703.6774, 4.865891
704.1595, 3.813316
704.6417, 3.829529
705.1238, 4.300995
705.6059, 4.360870
706.0880, 3.483879
706.5701, 3.010063
707.0522, 3.234802
707.5344, 3.795067
708.0165, 3.922089
708.4986, 3.589279
708.9807, 3.312225
709.4628, 3.277672
709.9449, 3.342796
710.4271, 3.240990
710.9092, 3.004105
711.3913, 2.741432
711.8734, 2.532837
712.3555, 2.308960
712.8376, 1.911217
713.3198, 1.410583
713.8019, 1.175102
714.2840, 1.758636
714.7661, 2.161667
715.2482, 1.825974
715.7303, 0.7954940
716.2125, 0.5956950
716.6946, 1.550369
717.1767, 2.446243
717.6588, 2.529182
718.1409, 1.898376
718.6230, 1.192116
719.1052, 0.3920440
719.5873, 0.1067050
720.0694, 0.4020920
720.5515, 1.194824
721.0336, 1.253098
721.5157, 0.3771060
721.9979, 0.5120540
722.4800, 1.157196
722.9621, 1.539322
723.4442, 1.627571
723.9263, 1.309135
724.4084, 0.9228520
724.8906, 0.3915020
725.3727, 0.1197660
725.8548, 0.4553300
726.3369, 0.6137160
726.8190, 0.6116940
727.3011, 0.4305880
727.7833, 0.1714320
728.2654, 7.1777001E-02
728.7475, 0.2843400
729.2296, 0.4307330
729.7117, 0.4973530
730.1938, 0.5020290
730.6760, 0.3835680
731.1581, 0.2271190
731.6402, 0.1642610
732.1223, 0.5657580
732.6044, 0.6208420
733.0865, 2.9816000E-02
733.5687, 0.9957350
734.0508, 1.446823
734.5329, 1.295982
735.0150, 0.9782710
735.4971, 0.5620570
735.9792, 9.7984001E-02
736.4614, 0.3882290
736.9435, 0.8527600
737.4256, 1.068886
737.9077, 0.7317120
738.3898, 0.2440800
738.8719, 8.5910000E-03
739.3541, 9.3323000E-02
739.8362, 0.2455750
740.3183, 0.7628860
740.8004, 1.149368
741.2825, 1.111542
741.7646, 0.7164080
742.2468, 0.5207820
742.7289, 0.5735630
743.2110, 0.7076950
743.6931, 0.8945310
744.1752, 1.104004
744.6573, 1.141014
745.1395, 1.009972
745.6216, 0.8421710
746.1037, 0.6311570
746.5858, 0.4923100
747.0679, 0.6456990
747.5500, 1.084518
748.0322, 1.440865
748.5143, 1.375816
748.9964, 1.312057
749.4785, 1.548515
749.9606, 2.193047
750.4427, 2.691925
750.9249, 3.135124
751.4070, 3.294495
751.8891, 2.711342
752.3712, 1.408966
752.8533, 1.463394
753.3354, 3.074593
753.8176, 4.641594
754.2997, 4.464401
754.7818, 3.336258
755.2639, 2.395943
755.7460, 1.810539
756.2281, 1.525383
756.7103, 1.561127
757.1924, 1.863617
757.6745, 2.427063
758.1566, 3.583878
758.6387, 4.317902
759.1208, 4.477417
759.6030, 4.404457
760.0851, 4.450752
760.5672, 4.621605
761.0493, 4.704697
761.5314, 4.659660
762.0135, 4.591606
762.4957, 4.729950
762.9778, 4.915100
763.4599, 4.769768
763.9420, 3.964294
764.4241, 3.410255
764.9063, 3.892296
765.3884, 4.794998
765.8705, 5.362663
766.3526, 5.234867
766.8347, 5.120876
767.3168, 5.000153
767.7990, 4.950615
768.2811, 5.145016
768.7632, 5.601051
769.2453, 5.909710
769.7274, 5.931480
770.2095, 5.914524
770.6917, 6.337475
771.1738, 6.979500
771.6559, 7.337017
772.1380, 6.958115
772.6201, 6.634148
773.1022, 6.938381
773.5844, 7.546387
774.0665, 7.884476
774.5486, 7.568462
775.0307, 7.455158
775.5128, 7.724693
775.9949, 8.205517
776.4771, 8.472168
776.9592, 8.510620
777.4413, 8.709820
777.9234, 9.344467
778.4055, 10.07139
778.8876, 10.30674
779.3698, 10.20465
779.8519, 10.15400
780.3340, 10.42561
780.8161, 10.74833
781.2982, 11.14990
781.7803, 11.54739
782.2625, 11.60751
782.7446, 10.77489
783.2267, 10.54986
783.7088, 11.42297
784.1909, 12.95800
784.6730, 13.99334
785.1552, 14.52989
785.6373, 14.67816
786.1194, 14.21288
786.6015, 13.67845
787.0836, 14.07049
787.5657, 15.07903
788.0479, 15.83555
788.5300, 15.75388
789.0121, 15.51807
789.4942, 15.47336
789.9763, 15.48710
790.4584, 15.12980
790.9406, 14.13203
791.4227, 13.40864
791.9048, 13.21021
792.3869, 13.41219
792.8690, 13.76301
793.3511, 14.23877
793.8333, 14.48870
794.3154, 14.17181
794.7975, 13.68034
795.2796, 13.53626
795.7617, 13.67596
796.2438, 13.79277
796.7260, 13.97215
797.2081, 13.84710
797.6902, 13.00603
798.1723, 11.71951
798.6544, 10.96387
799.1365, 10.81896
799.6187, 10.97366
800.1008, 11.40855
800.5829, 12.04641
801.0650, 12.81702
801.5471, 13.63462
802.0292, 13.94568
802.5114, 12.68361
802.9935, 11.39338
803.4756, 11.79414
803.9577, 13.41279
804.4398, 14.63815
804.9219, 14.39600
805.4041, 14.39198
805.8862, 15.30225
806.3683, 16.83337
806.8504, 17.68381
807.3325, 17.67364
807.8146, 17.92105
808.2968, 18.89960
808.7789, 20.36253
809.2610, 21.92796
809.7431, 23.49918
810.2252, 24.70370
810.7073, 25.16251
811.1895, 25.49173
811.6716, 25.76955
812.1537, 26.15760
812.6358, 27.28834
813.1179, 30.17171
813.6000, 32.53694
814.0822, 33.73219
814.5643, 34.12550
815.0464, 34.95982
815.5285, 36.22475
816.0106, 37.62499
816.4927, 39.07011
816.9749, 40.53848
817.4570, 42.01996
817.9391, 43.47632
818.4212, 44.83743
818.9033, 46.08829
819.3854, 47.27328
819.8676, 48.63374
820.3497, 49.94122
820.8318, 50.44050
821.3139, 49.80563
821.7960, 49.05630
822.2781, 48.44616
822.7603, 47.89114
823.2424, 47.29922
823.7245, 46.57500
824.2066, 45.14699
824.6887, 42.33749
825.1708, 39.25449
825.6530, 36.82697
826.1351, 34.87755
826.6172, 33.07597
827.0993, 31.67534
827.5814, 29.92992
828.0635, 27.31543
828.5457, 24.44937
829.0278, 22.61837
829.5099, 21.94141
829.9920, 21.45182
830.4741, 20.98782
830.9562, 20.49004
831.4384, 19.76041
831.9205, 18.90704
832.4026, 18.20781
832.8847, 17.82932
833.3668, 17.53613
833.8489, 17.21833
834.3311, 16.87833
834.8132, 16.54235
835.2953, 16.16104
835.7774, 15.90113
836.2595, 15.79993
836.7416, 15.80114
837.2238, 15.86868
837.7059, 15.98406
838.1880, 15.92687
838.6701, 15.57944
839.1522, 15.27018
839.6343, 15.50285
840.1165, 15.91299
840.5986, 15.97330
841.0807, 15.23634
841.5628, 14.64656
842.0449, 14.46907
842.5270, 14.47178
843.0092, 14.49066
843.4913, 14.58267
843.9734, 14.34764
844.4555, 13.71794
844.9376, 12.88000
845.4197, 11.87441
845.9019, 10.86333
846.3840, 10.21965
846.8661, 10.08408
847.3482, 9.974442
847.8303, 9.753418
848.3124, 9.353836
848.7946, 8.668350
849.2767, 7.512032
849.7588, 6.562759
850.2409, 5.811195
850.7230, 5.283569
851.2051, 5.116356
851.6873, 5.235237
852.1694, 5.070526
852.6515, 4.569756
853.1336, 4.192108
853.6157, 4.625183
854.0978, 5.164337
854.5800, 5.005035
855.0621, 3.943199
855.5442, 3.192329
856.0263, 3.416771
856.5084, 3.567886
856.9905, 3.067909
857.4727, 1.919350
857.9548, 1.043190
858.4369, 0.4372790
858.9190, 0.1206740
859.4011, 0.3220140
859.8832, 0.7147520
860.3654, 0.7306820
860.8475, 0.4005360
861.3296, 0.1195140
861.8117, 8.2030997E-02
862.2938, 0.1239320
862.7759, 0.2184520
863.2581, 0.3421780
863.7402, 0.3130490
864.2223, 7.9590000E-02
864.7044, 0.1321110
865.1865, 0.1983800
865.6686, 0.1996230
866.1508, 0.4297710
866.6329, 0.8091740
867.1150, 0.9860610
867.5971, 0.5288850
868.0792, 5.4802001E-02
868.5613, 1.7320000E-03
869.0435, 0.2235640
869.5256, 0.2942730
870.0077, 7.4355997E-02
870.4898, 0.1313780
870.9719, 0.3396000
871.4540, 0.4351500
871.9362, 2.1629000E-02
872.4183, 0.8154140
872.9004, 1.384491
873.3825, 1.397697
873.8646, 1.225517
874.3467, 1.240791
874.8289, 1.302750
875.3110, 1.198601
875.7931, 0.5540010
876.2752, 0.1779860
876.7573, 0.2090680
877.2394, 0.4551700
877.7216, 0.7426380
878.2037, 1.081429
878.6858, 1.237129
879.1679, 1.153366
879.6500, 1.030472
880.1321, 1.113693
880.6143, 1.285484
881.0964, 1.385155
881.5785, 1.387695
882.0606, 1.293152
882.5427, 1.027191
883.0248, 0.7170490
883.5070, 0.4255140
883.9891, 0.1183780
884.4712, 5.1406998E-02
884.9533, 0.2574160
885.4354, 0.5449910
885.9175, 0.8791730
886.3997, 1.152206
886.8818, 1.088013
887.3639, 0.7002030
887.8460, 0.2763980
888.3281, 0.1830830
888.8102, 0.4880450
889.2924, 0.4719850
889.7745, 0.1569210
890.2566, 0.1690670
890.7387, 0.5855560
891.2208, 0.7515180
891.7029, 0.4249800
892.1851, 0.1825490
892.6672, 0.5874250
893.1493, 0.7977290
893.6314, 0.8395540
894.1135, 0.5835490
894.5956, 0.3111720
895.0778, 0.2137600
895.5599, 0.2192990
896.0420, 0.1135560
896.5241, 0.3473820
897.0062, 0.4003450
897.4883, 0.2177050
897.9705, 1.097771
898.4526, 1.456894
898.9347, 1.395142
899.4168, 1.367004
899.8989, 1.484909
900.3810, 1.672554
900.8632, 1.806473
901.3453, 2.007301
901.8274, 2.437233
902.3095, 3.386292
902.7916, 4.070717
903.2737, 4.469078
903.7559, 4.632149
904.2380, 4.480263
904.7201, 4.071907
905.2022, 4.013191
905.6843, 4.343071
906.1664, 4.783920
906.6486, 5.087151
907.1307, 5.406433
907.6128, 5.922028
908.0949, 6.660736
908.5770, 7.338264
909.0591, 7.855301
909.5413, 8.388008
910.0234, 8.970192
910.5055, 9.626625
910.9876, 10.56630
911.4697, 11.77563
911.9518, 12.98277
912.4340, 14.05944
912.9161, 15.04659
913.3982, 15.80695
913.8803, 16.48486
914.3624, 17.47308
914.8445, 19.41961
915.3267, 20.95374
915.8088, 21.55028
916.2909, 21.80173
916.7730, 22.94144
917.2551, 24.98839
917.7372, 27.29257
918.2194, 29.74067
918.7015, 32.25037
919.1836, 34.44820
919.6657, 36.78699
920.1478, 39.98542
920.6299, 44.95143
921.1121, 49.14932
921.5942, 51.73745
922.0763, 54.06078
922.5584, 57.25597
923.0405, 61.37086
923.5226, 65.11926
924.0048, 68.40416
924.4869, 71.84847
924.9690, 75.99887
925.4511, 80.68326
925.9332, 85.73264
926.4153, 91.10020
926.8975, 96.36272
927.3796, 101.2047
927.8617, 106.1662
928.3438, 111.3146
928.8259, 116.7474
929.3080, 123.5231
929.7902, 131.6131
930.2723, 138.6618
930.7544, 142.9709
931.2365, 146.5054
931.7186, 151.7144
932.2007, 157.7444
932.6829, 162.8448
933.1650, 166.9373
933.6471, 169.5209
934.1292, 170.4668
934.6113, 170.0083
935.0934, 168.3877
935.5756, 165.5936
936.0577, 161.8424
936.5398, 157.1381
937.0219, 152.0733
937.5040, 146.9833
937.9861, 142.0403
938.4683, 137.4756
938.9504, 133.3076
939.4325, 129.7053
939.9146, 126.6795
940.3967, 124.3281
940.8788, 122.7427
941.3610, 121.9018
941.8431, 121.3407
942.3252, 121.0666
942.8073, 121.6570
943.2894, 123.8817
943.7715, 126.7797
944.2537, 129.4395
944.7358, 132.0399
945.2179, 135.2869
945.7000, 139.4209
946.1821, 144.1372
946.6642, 149.6533
947.1464, 155.5617
947.6285, 160.5412
948.1106, 164.8800
948.5927, 170.8192
949.0748, 179.2655
949.5569, 188.3549
950.0391, 196.6984
950.5212, 204.6378
951.0033, 212.4577
951.4854, 220.2183
951.9675, 228.0358
952.4496, 236.2935
952.9318, 243.9239
953.4139, 250.3682
953.8960, 255.5232
954.3781, 258.8566
954.8602, 260.3275
955.3423, 259.8958
955.8245, 256.3224
956.3066, 251.8615
956.7887, 247.9650
957.2708, 244.6192
957.7529, 241.0168
958.2350, 236.2812
958.7172, 233.2330
959.1993, 232.7039
959.6814, 234.1887
960.1635, 236.7691
960.6456, 240.4189
961.1277, 244.9163
961.6099, 249.6665
962.0920, 256.3200
962.5741, 265.8803
963.0562, 277.8875
963.5383, 291.5064
964.0204, 306.0177
964.5026, 324.3125
964.9847, 346.5114
965.4668, 371.4627
965.9489, 398.2573
966.4310, 426.7910
966.9131, 457.8264
967.3953, 491.1637
967.8774, 527.6163
968.3595, 568.5956
968.8416, 611.5905
969.3237, 655.0820
969.8058, 699.0734
970.2880, 744.5051
970.7701, 792.0522
971.2522, 838.9648
971.7343, 884.1733
972.2164, 929.3955
972.6985, 977.8885
973.1807, 1029.007
973.6628, 1080.706
974.1449, 1130.793
974.6270, 1185.569
975.1091, 1246.949
975.5912, 1313.432
976.0734, 1384.676
976.5555, 1460.445
977.0376, 1538.783
977.5197, 1618.754
978.0018, 1698.365
978.4839, 1782.730
978.9661, 1861.996
979.4482, 1930.386
979.9303, 1986.679
980.4124, 2019.489
980.8945, 2032.095
981.3766, 2015.228
981.8588, 1964.404
982.3409, 1883.517
982.8230, 1777.812
983.3051, 1650.208
983.7872, 1515.047
984.2693, 1372.850
984.7515, 1233.517
985.2336, 1099.605
985.7157, 974.5612
986.1978, 863.7352
986.6799, 767.5590
987.1620, 683.2534
987.6442, 611.7125
988.1263, 549.3192
988.6084, 494.6528
989.0905, 446.6045
989.5726, 404.4314
990.0547, 367.7191
990.5369, 334.9975
991.0190, 306.4697
991.5011, 280.8521
991.9832, 257.7307
992.4653, 237.0292
992.9474, 218.3226
993.4296, 201.8533
993.9117, 186.4837
994.3938, 171.7666
994.8759, 158.3072
995.3580, 147.5310
995.8401, 138.4373
996.3223, 128.9680
996.8044, 117.8853
997.2865, 108.0521
997.7686, 100.0935
998.2507, 93.04041
998.7328, 86.28255
999.2150, 79.86264
999.6971, 73.41344
1000.179, 67.04521
1000.661, 61.00081
1001.143, 55.10717
1001.626, 49.94893
1002.108, 46.41365
1002.590, 44.11940
1003.072, 40.82031
1003.554, 35.66660
1004.036, 31.43571
1004.518, 28.84518
1005.000, 27.22083
1005.482, 25.85121
1005.965, 24.52814
1006.447, 22.61785
1006.929, 19.76152
1007.411, 17.18320
1007.893, 15.68078
1008.375, 14.50529
1008.857, 13.03326
1009.339, 11.19794
1009.822, 9.843140
1010.304, 9.000366
1010.786, 8.330162
1011.268, 7.917786
1011.750, 7.376511
1012.232, 5.830994
1012.714, 3.722504
1013.196, 2.306190
1013.678, 2.799919
1014.161, 2.868027
1014.643, 2.013489
1015.125, 0.8017960
1015.607, 6.7978002E-02
1016.089, 0.2620930
1016.571, 0.6791460
1017.053, 1.259979
1017.535, 1.824348
1018.018, 2.357780
1018.500, 2.723091
1018.982, 2.763077
1019.464, 2.463554
1019.946, 2.152985
1020.428, 1.758446
1020.910, 1.633461
1021.392, 2.030365
1021.874, 2.680580
1022.357, 3.139084
1022.839, 3.425095
1023.321, 3.578117
1023.803, 3.699974
1024.285, 3.552490
1024.767, 2.689247
1025.249, 1.861862
1025.731, 2.055939
1026.214, 3.294556
1026.696, 3.156509
1027.178, 1.489937
1027.660, 0.1426540
1028.142, 0.4757390
1028.624, 0.2864760
1029.106, 0.1312870
1029.588, 5.8403000E-02
1030.070, 6.5002002E-02
1030.553, 6.1501000E-02
1031.035, 0.4397130
1031.517, 2.008095
1031.999, 3.868172
1032.481, 4.512688
1032.963, 4.353699
1033.445, 4.451408
1033.927, 5.110718
1034.410, 5.868668
1034.892, 6.531075
1035.374, 7.206764
1035.856, 7.949402
1036.338, 8.760521
1036.820, 9.696594
1037.302, 10.74715
1037.784, 11.78638
1038.266, 12.78056
1038.749, 13.67792
1039.231, 14.38434
1039.713, 14.94907
1040.195, 15.47047
1040.677, 15.91701
1041.159, 16.36351
1041.641, 16.68819
1042.123, 17.27985
1042.605, 19.31335
1043.088, 21.93141
1043.570, 22.27797
1044.052, 20.05912
1044.534, 17.85029
1045.016, 17.11261
1045.498, 16.67228
1045.980, 16.02763
1046.462, 15.17226
1046.945, 13.97559
1047.427, 12.40464
1047.909, 11.22496
1048.391, 10.88219
1048.873, 10.60273
1049.355, 9.442207
1049.837, 7.877663
1050.319, 6.526855
1050.802, 5.493011
1051.284, 4.777786
1051.766, 4.457893
1052.248, 4.292343
1052.730, 4.060478
1053.212, 3.861893
1053.694, 4.180206
1054.176, 4.873619
1054.658, 5.287155
1055.141, 4.647545
1055.623, 4.197037
1056.105, 4.432587
1056.587, 5.088097
1057.069, 5.821007
1057.551, 6.630516
1058.033, 7.595520
1058.515, 8.759621
1058.997, 9.801132
1059.480, 10.24908
1059.962, 10.58121
1060.444, 11.16436
1060.926, 12.05027
1061.408, 13.42565
1061.890, 15.49223
1062.372, 17.46321
1062.854, 18.93905
1063.337, 20.35114
1063.819, 22.63600
1064.301, 25.44757
1064.783, 28.00877
1065.265, 30.03571
1065.747, 31.95037
1066.229, 33.65061
1066.711, 35.52602
1067.193, 37.83521
1067.676, 40.55707
1068.158, 43.81856
1068.640, 47.58359
1069.122, 51.11572
1069.604, 53.95138
1070.086, 56.46202
1070.568, 58.92475
1071.050, 61.29276
1071.532, 63.45917
1072.015, 65.47803
1072.497, 67.22412
1072.979, 68.75404
1073.461, 69.81827
1073.943, 69.84901
1074.425, 69.24904
1074.907, 68.78603
1075.389, 68.52945
1075.872, 67.80633
1076.354, 66.28783
1076.836, 64.50845
1077.318, 62.52656
1077.800, 60.50586
1078.282, 58.65020
1078.764, 57.00397
1079.246, 55.88989
1079.729, 55.68236
1080.211, 54.91132
1080.693, 51.82197
1081.175, 48.65149
1081.657, 47.33875
1082.139, 47.89775
1082.621, 47.18383
1083.103, 45.16001
1083.585, 43.34120
1084.068, 42.88635
1084.550, 42.63132
1085.032, 41.37015
1085.514, 39.57207
1085.996, 38.03719
1086.478, 37.02214
1086.960, 35.88600
1087.442, 34.62307
1087.924, 33.21961
1088.406, 31.54698
1088.889, 29.80437
1089.371, 28.03812
1089.853, 26.33031
1090.335, 25.28848
1090.817, 26.14104
1091.299, 26.44967
1091.781, 25.49279
1092.263, 23.73883
1092.746, 21.91829
1093.228, 20.13405
1093.710, 18.87106
1094.192, 18.23815
1094.674, 17.84563
1095.156, 17.65293
1095.638, 17.45988
1096.120, 17.05600
1096.603, 16.46209
1097.085, 15.96827
1097.567, 15.56993
1098.049, 15.33916
1098.531, 15.40317
1099.013, 15.45636
1099.495, 15.03961
1099.977, 14.48300
1100.459, 14.20630
1100.942, 14.32298
1101.424, 14.66404
1101.906, 15.38212
1102.388, 15.82738
1102.870, 15.32921
1103.352, 14.41139
1103.834, 13.95077
1104.316, 13.92830
1104.798, 14.28036
1105.281, 15.58313
1105.763, 16.38925
1106.245, 16.44612
1106.727, 16.09436
1107.209, 15.55532
1107.691, 14.90904
1108.173, 14.57866
1108.655, 14.55186
1109.138, 14.34619
1109.620, 13.31205
1110.102, 12.44568
1110.584, 12.32321
1111.066, 12.62876
1111.548, 12.77542
1112.030, 12.76024
1112.512, 12.39130
1112.995, 11.59444
1113.477, 10.68052
1113.959, 9.816257
1114.441, 9.032455
1114.923, 8.411633
1115.405, 7.943085
1115.887, 7.297619
1116.369, 6.430565
1116.851, 5.586182
1117.333, 4.815201
1117.816, 4.178753
1118.298, 3.749603
1118.780, 3.514336
1119.262, 3.488552
1119.744, 3.811554
1120.226, 3.915913
1120.708, 3.742405
1121.190, 3.453697
1121.673, 3.109455
1122.155, 2.735916
1122.637, 2.380600
1123.119, 2.035938
1123.601, 1.679398
1124.083, 1.189434
1124.565, 0.8598250
1125.047, 0.8020520
1125.530, 0.8155560
1126.012, 0.6771470
1126.494, 0.4334260
1126.976, 0.3453830
1127.458, 0.4157370
1127.940, 0.5832480
1128.422, 0.9359320
1128.904, 1.244911
1129.386, 1.589905
1129.869, 1.724751
1130.351, 0.9726220
1130.833, 0.6370430
1131.315, 1.182240
1131.797, 0.3853570
1132.279, 0.4683380
1132.761, 0.2919880
1133.243, 0.1504360
1133.725, 0.3440020
1134.208, 0.3054050
1134.690, 0.2457730
1135.172, 0.1587680
1135.654, 7.6537997E-02
1136.136, 5.6799999E-03
1136.618, 3.5137001E-02
1137.100, 0.1052320
1137.582, 0.2899820
1138.065, 0.3735540
1138.547, 0.3152050
1139.029, 0.3125190
1139.511, 0.3926010
1139.993, 0.4404300
1140.475, 0.4219060
1140.957, 0.3335530
1141.439, 3.5820000E-02
1141.922, 0.3522030
1142.404, 0.6177410
1142.886, 0.6746860
1143.368, 0.6812060
1143.850, 0.6530990
1144.332, 0.5791240
1144.814, 0.4400220
1145.296, 0.2607610
1145.778, 7.1883999E-02
1146.260, 0.1056250
1146.743, 0.2220340
1147.225, 6.2332001E-02
1147.707, 0.1545640
1148.189, 0.8103490
1148.671, 1.396332
1149.153, 1.223026
1149.635, 0.4763830
1150.117, 7.3780000E-02
1150.600, 1.0002000E-02
1151.082, 9.9978998E-02
1151.564, 0.6079940
1152.046, 0.8478970
1152.528, 0.3635750
1153.010, 0.3483350
1153.492, 0.6276020
1153.974, 0.5061990
1154.457, 0.3179470
1154.939, 9.3102001E-02
1155.421, 0.1380460
1155.903, 0.3717610
1156.385, 0.5885430
1156.867, 0.8106840
1157.349, 0.9967230
1157.831, 1.025681
1158.313, 0.8936770
1158.796, 0.7485850
1159.278, 0.6115800
1159.760, 0.4818880
1160.242, 0.3641850
1160.724, 0.2512360
1161.206, 0.1024890
1161.688, 6.0387000E-02
1162.170, 3.5301000E-02
1162.652, 0.2045710
1163.135, 0.3044170
1163.617, 9.1797002E-02
1164.099, 4.1939002E-02
1164.581, 0.4896240
1165.063, 1.202641
1165.545, 1.556095
1166.027, 1.458000
1166.509, 1.419212
1166.992, 1.453239
1167.474, 1.453556
1167.956, 1.321522
1168.438, 1.234116
1168.920, 1.522305
1169.402, 1.958889
1169.884, 2.233841
1170.366, 2.290714
1170.849, 2.116840
1171.331, 1.652943
1171.813, 1.151867
1172.295, 0.6253810
1172.777, 0.2684520
1173.259, 0.5511130
1173.741, 1.208488
1174.223, 1.718800
1174.705, 1.987507
1175.188, 1.944344
1175.670, 1.488853
1176.152, 1.006138
1176.634, 0.7614630
1177.116, 0.6989020
1177.598, 0.7157140
1178.080, 0.8081970
1178.562, 0.9674990
1179.044, 1.236378
1179.527, 1.525261
1180.009, 1.886681
1180.491, 2.148121
1180.973, 2.116001
1181.455, 1.873245
1181.937, 1.545845
1182.419, 1.176689
1182.901, 0.9238740
1183.384, 0.8274460
1183.866, 0.9163740
1184.348, 1.266750
1184.830, 1.672466
1185.312, 1.896469
1185.794, 1.968700
1186.276, 1.913548
1186.758, 1.744423
1187.240, 1.628754
1187.723, 1.637833
1188.205, 1.728725
1188.687, 1.899765
1189.169, 2.035553
1189.651, 1.964840
1190.133, 1.753872
1190.615, 1.631050
1191.097, 1.616806
1191.579, 1.711803
1192.062, 2.114220
1192.544, 2.419334
1193.026, 2.527248
1193.508, 2.441006
1193.990, 1.998222
1194.472, 1.310951
1194.954, 1.043423
1195.436, 1.360752
1195.919, 1.587696
1196.401, 1.405842
1196.883, 1.061241
1197.365, 0.5108070
1197.847, 2.6207000E-02
1198.329, 0.2761990
1198.811, 1.181122
1199.293, 1.744175
1199.776, 1.658306
1200.258, 1.491535
1200.740, 1.436443
1201.222, 1.450199
1201.704, 1.569935
1202.186, 1.716057
1202.668, 1.475521
1203.150, 0.9622380
1203.632, 0.6099780
1204.115, 0.5054130
1204.597, 0.7032430
1205.079, 1.855938
1205.561, 2.674610
1206.043, 2.156830
1206.525, 0.6757390
1207.007, 0.2091030
1207.489, 0.6211280
1207.971, 1.117100
1208.454, 1.433205
1208.936, 1.648884
1209.418, 1.806076
1209.900, 1.850307
1210.382, 1.679260
1210.864, 1.312366
1211.346, 1.118008
1211.828, 1.087292
1212.311, 1.057510
1212.793, 0.9517290
1213.275, 0.8395580
1213.757, 0.7050170
1214.239, 0.5963520
1214.721, 0.5428540
1215.203, 0.5450670
1215.685, 0.6245690
1216.167, 0.7761420
1216.650, 0.9552650
1217.132, 1.235149
1217.614, 1.410759
1218.096, 1.384037
1218.578, 1.269451
1219.060, 1.210201
1219.542, 1.208519
1220.024, 1.247334
1220.506, 1.353458
1220.989, 1.431381
1221.471, 1.350426
1221.953, 1.376389
1222.435, 1.703960
1222.917, 2.035236
1223.399, 2.006382
1223.881, 1.694603
1224.363, 1.559338
1224.846, 1.616440
1225.328, 1.629101
1225.810, 1.428215
1226.292, 1.215931
1226.774, 1.022831
1227.256, 0.8938480
1227.738, 0.8786890
1228.220, 0.9629140
1228.703, 1.129654
1229.185, 1.356697
1229.667, 1.548737
1230.149, 1.904007
1230.631, 1.844646
1231.113, 0.9757420
1231.595, 7.1327001E-02
1232.077, 0.3020710
1232.559, 1.262768
1233.042, 1.855759
1233.524, 2.027493
1234.006, 2.018398
1234.488, 1.670734
1234.970, 1.512268
1235.452, 1.752426
1235.934, 2.028954
1236.416, 1.706093
1236.898, 1.034389
1237.381, 0.6922260
1237.863, 0.6682170
1238.345, 0.7780230
1238.827, 1.193493
1239.309, 1.364113
1239.791, 1.112583
1240.273, 0.7803000
1240.755, 0.8146740
1241.238, 1.006901
1241.720, 1.110725
1242.202, 1.093109
1242.684, 0.9130780
1243.166, 0.2785450
1243.648, 0.1240390
1244.130, 0.7671470
1244.612, 1.568245
1245.094, 1.665806
1245.577, 1.398384
1246.059, 1.181042
1246.541, 1.071007
1247.023, 1.300529
1247.505, 2.104488
1247.987, 2.551491
1248.469, 2.387493
1248.951, 2.007717
1249.433, 2.013130
1249.916, 2.020123
1250.398, 1.316917
1250.880, 3.4614999E-02
1251.362, 0.3656620
1251.844, 0.6604080
1252.326, 1.411880
1252.808, 1.491280
1253.290, 1.336216
1253.773, 1.313232
1254.255, 1.404388
1254.737, 1.603081
1255.219, 1.846325
1255.701, 1.626202
1256.183, 0.8662760
1256.665, 0.2628400
1257.147, 2.6870999E-02
1257.630, 1.4545000E-02
1258.112, 0.7114830
1258.594, 1.488041
1259.076, 1.797913
1259.558, 1.698639
1260.040, 1.627728
1260.522, 1.564194
1261.004, 1.409828
1261.486, 1.123428
1261.969, 0.8831600
1262.451, 0.7784610
1262.933, 0.8202210
1263.415, 0.9284590
1263.897, 1.312435
1264.379, 1.447292
1264.861, 1.346626
1265.343, 1.102837
1265.825, 0.7125400
1266.308, 0.3089520
1266.790, 3.4283001E-02
1267.272, 4.7115002E-02
1267.754, 1.9478001E-02
1268.236, 0.2416690
1268.718, 0.8000530
1269.200, 1.535660
1269.682, 1.912445
1270.165, 1.781403
1270.647, 1.469406
1271.129, 0.7362140
1271.611, 0.1550410
1272.093, 0.2622720
1272.575, 0.6302760
1273.057, 0.4609870
1273.539, 3.1430000E-03
1274.021, 4.4055998E-02
1274.504, 0.5704500
1274.986, 0.0000000E+00
##END=



