##NAMES=Cernyite
##RRUFFID=R070179
##IDEAL CHEMISTRY=Cu_2_CdSnS_4_
##LOCALITY=Hugo mine, Keystone, Keystone District, Pennington County, South Dakota, USA
##OWNER=RRUFF
##SOURCE=Michael Scott
##DESCRIPTION=Gray metallic massive
##STATUS=The identification of this mineral has been confirmed by single-crystal X-ray diffraction.
##URL=rruff.info/R070179
112.6316, 0.0000000E+00
113.1138, 3.702118
113.5959, 10.86939
114.0780, 25.38839
114.5601, 42.75651
115.0422, 52.02676
115.5243, 53.75620
116.0065, 59.78915
116.4886, 72.93215
116.9707, 87.42535
117.4528, 101.3215
117.9349, 109.3166
118.4170, 110.8234
118.8991, 119.9860
119.3813, 136.6630
119.8634, 142.7939
120.3455, 129.3252
120.8276, 107.6081
121.3097, 85.41179
121.7918, 62.84761
122.2740, 42.93988
122.7561, 30.03848
123.2382, 24.38507
123.7203, 19.68774
124.2024, 12.17020
124.6845, 2.655121
125.1667, 5.262970
125.6488, 11.49994
126.1309, 14.45337
126.6130, 12.95386
127.0951, 6.940735
127.5772, 1.543518
128.0594, 10.12549
128.5415, 18.88763
129.0236, 31.51349
129.5057, 52.13104
129.9878, 74.63831
130.4699, 93.78479
130.9521, 108.7390
131.4342, 123.5370
131.9163, 144.6202
132.3984, 174.5558
132.8805, 196.1070
133.3626, 203.1427
133.8448, 201.7265
134.3269, 193.4332
134.8090, 178.6586
135.2911, 160.4503
135.7732, 142.3477
136.2553, 123.5210
136.7375, 107.3826
137.2196, 97.21204
137.7017, 88.03564
138.1838, 73.79907
138.6659, 52.97583
139.1480, 33.51367
139.6302, 30.50769
140.1123, 53.49451
140.5944, 76.11804
141.0765, 93.01147
141.5586, 109.9818
142.0407, 131.4818
142.5229, 159.0685
143.0050, 191.1390
143.4871, 224.4586
143.9692, 261.6538
144.4513, 295.6907
144.9334, 320.4681
145.4156, 344.6753
145.8977, 377.4578
146.3798, 422.5010
146.8619, 475.0291
147.3440, 522.2678
147.8261, 563.3816
148.3083, 599.4402
148.7904, 627.2406
149.2725, 651.0081
149.7546, 677.6599
150.2367, 710.3188
150.7188, 743.6431
151.2010, 761.7690
151.6831, 750.9111
152.1652, 740.2109
152.6473, 736.5591
153.1294, 733.1135
153.6115, 719.5171
154.0937, 690.5237
154.5758, 651.2698
155.0579, 617.4463
155.5400, 592.2410
156.0221, 568.2095
156.5042, 543.4695
156.9864, 519.3499
157.4685, 497.7754
157.9506, 479.5444
158.4327, 464.5693
158.9148, 453.0715
159.3969, 442.9126
159.8791, 438.1104
160.3612, 442.7966
160.8433, 453.3186
161.3254, 462.4324
161.8075, 466.5181
162.2896, 467.9846
162.7718, 473.8708
163.2539, 484.3938
163.7360, 497.3716
164.2181, 516.2493
164.7002, 537.3635
165.1823, 549.7715
165.6645, 545.6313
166.1466, 534.7812
166.6287, 541.2739
167.1108, 571.3582
167.5929, 602.7454
168.0750, 629.5044
168.5572, 650.8850
169.0393, 664.8447
169.5214, 672.5315
170.0035, 673.8650
170.4856, 671.4504
170.9677, 669.6340
171.4499, 666.8354
171.9320, 661.6758
172.4141, 654.6594
172.8962, 646.8777
173.3783, 636.4548
173.8604, 628.9866
174.3426, 634.7412
174.8247, 658.4717
175.3068, 677.9502
175.7889, 676.8723
176.2710, 659.4065
176.7531, 644.6089
177.2353, 638.1748
177.7174, 637.2017
178.1995, 636.5581
178.6816, 635.7124
179.1637, 637.8716
179.6458, 647.0039
180.1279, 661.3521
180.6101, 673.3789
181.0922, 683.1685
181.5743, 687.4858
182.0564, 682.8721
182.5385, 668.7134
183.0206, 653.8867
183.5028, 643.3472
183.9849, 636.8015
184.4670, 632.8403
184.9491, 634.1482
185.4312, 635.2056
185.9133, 626.6067
186.3955, 608.0107
186.8776, 597.1160
187.3597, 612.9060
187.8418, 650.3879
188.3239, 676.6514
188.8060, 683.8804
189.2882, 679.0994
189.7703, 665.9377
190.2524, 645.3557
190.7345, 627.9897
191.2166, 624.4387
191.6987, 632.1858
192.1809, 633.0205
192.6630, 620.9165
193.1451, 605.6333
193.6272, 592.7068
194.1093, 582.5032
194.5914, 576.4299
195.0736, 578.2402
195.5557, 586.3171
196.0378, 589.6226
196.5199, 585.0554
197.0020, 578.3770
197.4841, 572.0898
197.9663, 566.6790
198.4484, 563.5750
198.9305, 566.9053
199.4126, 574.3867
199.8947, 573.9697
200.3768, 560.6050
200.8590, 545.5583
201.3411, 535.9768
201.8232, 529.9751
202.3053, 522.9717
202.7874, 513.5969
203.2695, 501.2502
203.7517, 482.0566
204.2338, 449.5161
204.7159, 421.0039
205.1980, 406.5254
205.6801, 401.2769
206.1622, 396.5029
206.6444, 388.0376
207.1265, 376.6138
207.6086, 364.4053
208.0907, 351.3818
208.5728, 337.5220
209.0549, 321.4897
209.5371, 305.0073
210.0192, 290.8711
210.5013, 281.2959
210.9834, 273.9624
211.4655, 262.2266
211.9476, 241.9854
212.4298, 226.9253
212.9119, 231.2749
213.3940, 240.1279
213.8761, 233.5723
214.3582, 199.5615
214.8403, 156.0513
215.3225, 139.5103
215.8046, 161.6187
216.2867, 175.9653
216.7688, 162.1328
217.2509, 136.2993
217.7330, 110.3638
218.2152, 86.94092
218.6973, 69.27344
219.1794, 65.85986
219.6615, 82.31494
220.1436, 89.95264
220.6257, 68.77686
221.1079, 42.52783
221.5900, 28.45947
222.0721, 30.64893
222.5542, 39.47803
223.0363, 45.60547
223.5184, 49.52344
224.0006, 47.67480
224.4827, 38.17529
224.9648, 22.94580
225.4469, 2.026367
225.9290, 35.97607
226.4111, 64.31738
226.8933, 69.37842
227.3754, 50.42773
227.8575, 35.57373
228.3396, 29.69873
228.8217, 27.81641
229.3038, 26.23779
229.7859, 25.25781
230.2681, 27.52783
230.7502, 36.60596
231.2323, 51.81543
231.7144, 65.55420
232.1965, 77.53369
232.6786, 87.58398
233.1608, 96.57861
233.6429, 104.0146
234.1250, 108.3535
234.6071, 107.6113
235.0892, 102.7144
235.5714, 98.33936
236.0535, 96.47754
236.5356, 91.28369
237.0177, 78.48877
237.4998, 60.67285
237.9819, 41.90723
238.4641, 21.20605
238.9462, 2.414063
239.4283, 4.103027
239.9104, 6.706543
240.3925, 16.37744
240.8746, 13.87598
241.3568, 5.668945
241.8389, 0.2753910
242.3210, 1.8555000E-02
242.8031, 1.664551
243.2852, 1.675781
243.7673, 10.03906
244.2495, 23.49658
244.7316, 49.70459
245.2137, 77.52832
245.6958, 94.78125
246.1779, 97.00781
246.6600, 95.55420
247.1422, 102.9902
247.6243, 119.3867
248.1064, 131.7002
248.5885, 133.1128
249.0706, 131.2612
249.5527, 134.1899
250.0349, 142.6255
250.5170, 152.2236
250.9991, 160.3550
251.4812, 167.2349
251.9633, 174.4453
252.4454, 184.7529
252.9276, 191.8936
253.4097, 185.9033
253.8918, 168.2847
254.3739, 158.4702
254.8560, 170.7236
255.3381, 197.1929
255.8203, 220.7568
256.3024, 240.5532
256.7845, 254.2129
257.2666, 255.7324
257.7487, 248.4849
258.2308, 242.6494
258.7130, 243.1045
259.1951, 245.7490
259.6772, 245.9912
260.1593, 243.7988
260.6414, 237.3975
261.1235, 221.1631
261.6057, 199.9580
262.0878, 187.4448
262.5699, 185.2324
263.0520, 192.3115
263.5341, 213.0596
264.0162, 245.6362
264.4984, 273.1846
264.9805, 283.4795
265.4626, 285.0020
265.9447, 300.7646
266.4268, 340.4307
266.9089, 377.2681
267.3911, 391.8125
267.8732, 392.6069
268.3553, 403.3193
268.8374, 433.6562
269.3195, 475.3550
269.8016, 514.3032
270.2838, 549.9766
270.7659, 584.9238
271.2480, 614.7080
271.7301, 645.8135
272.2122, 690.6113
272.6943, 753.0913
273.1765, 818.3911
273.6586, 867.2217
274.1407, 895.2593
274.6228, 930.5928
275.1049, 976.2441
275.5870, 1029.021
276.0692, 1087.135
276.5513, 1150.176
277.0334, 1217.543
277.5155, 1289.554
277.9976, 1366.552
278.4797, 1443.230
278.9619, 1527.376
279.4440, 1603.772
279.9261, 1668.979
280.4082, 1721.287
280.8903, 1753.749
281.3724, 1760.212
281.8546, 1747.330
282.3367, 1748.761
282.8188, 1780.094
283.3009, 1805.657
283.7830, 1823.446
284.2651, 1830.183
284.7473, 1817.861
285.2294, 1784.325
285.7115, 1743.953
286.1936, 1725.801
286.6757, 1747.577
287.1578, 1764.298
287.6400, 1779.274
288.1221, 1787.250
288.6042, 1778.631
289.0863, 1754.654
289.5684, 1731.128
290.0505, 1728.515
290.5327, 1754.592
291.0148, 1765.951
291.4969, 1753.459
291.9790, 1736.412
292.4611, 1720.471
292.9432, 1706.893
293.4254, 1695.817
293.9075, 1687.807
294.3896, 1682.431
294.8717, 1674.281
295.3538, 1654.610
295.8359, 1644.217
296.3181, 1645.746
296.8002, 1659.336
297.2823, 1688.246
297.7644, 1735.652
298.2465, 1789.112
298.7286, 1819.051
299.2108, 1810.522
299.6929, 1819.035
300.1750, 1852.231
300.6571, 1907.669
301.1392, 1989.872
301.6213, 2099.193
302.1035, 2218.790
302.5855, 2322.970
303.0677, 2410.179
303.5498, 2534.511
304.0319, 2704.082
304.5140, 2913.648
304.9961, 3156.796
305.4782, 3432.467
305.9604, 3737.735
306.4425, 4074.627
306.9246, 4438.185
307.4067, 4811.529
307.8888, 5181.566
308.3709, 5589.721
308.8531, 6059.108
309.3352, 6582.502
309.8173, 7159.537
310.2994, 7804.370
310.7815, 8488.690
311.2636, 9178.040
311.7458, 9872.460
312.2279, 10609.99
312.7100, 11409.60
313.1921, 12264.63
313.6742, 13152.37
314.1563, 14067.86
314.6385, 15025.17
315.1206, 16021.70
315.6027, 17068.55
316.0848, 18195.74
316.5669, 19412.98
317.0490, 20706.02
317.5312, 22053.74
318.0133, 23464.66
318.4954, 24926.45
318.9775, 26436.63
319.4596, 27991.73
319.9417, 29603.99
320.4239, 31258.44
320.9060, 32936.47
321.3881, 34624.40
321.8702, 36311.51
322.3523, 37873.71
322.8344, 39344.45
323.3166, 40669.93
323.7987, 41850.98
324.2808, 42869.71
324.7629, 43719.70
325.2450, 44402.05
325.7271, 44872.72
326.2093, 45026.24
326.6914, 44865.81
327.1735, 44321.91
327.6556, 43341.79
328.1377, 42030.51
328.6198, 40445.91
329.1020, 38609.18
329.5841, 36536.27
330.0662, 34209.52
330.5483, 31579.49
331.0304, 28935.30
331.5125, 26156.29
331.9947, 23453.18
332.4768, 20831.10
332.9589, 18343.34
333.4410, 16046.55
333.9231, 13989.75
334.4052, 12160.52
334.8874, 10528.88
335.3695, 9100.761
335.8516, 7892.379
336.3337, 6919.419
336.8158, 6124.037
337.2979, 5475.272
337.7801, 4966.512
338.2622, 4554.141
338.7443, 4192.761
339.2264, 3880.771
339.7085, 3629.196
340.1906, 3464.162
340.6728, 3340.270
341.1549, 3227.027
341.6370, 3122.323
342.1191, 3019.589
342.6012, 2903.043
343.0833, 2785.952
343.5655, 2704.153
344.0476, 2665.657
344.5297, 2635.619
345.0118, 2585.942
345.4939, 2527.804
345.9760, 2490.840
346.4582, 2491.596
346.9403, 2501.187
347.4224, 2500.759
347.9045, 2492.288
348.3866, 2481.978
348.8687, 2470.608
349.3509, 2462.863
349.8330, 2471.369
350.3151, 2504.708
350.7972, 2525.107
351.2793, 2512.073
351.7614, 2491.148
352.2436, 2487.007
352.7257, 2503.708
353.2078, 2533.118
353.6899, 2567.792
354.1720, 2607.405
354.6541, 2655.667
355.1363, 2717.838
355.6184, 2781.376
356.1005, 2834.785
356.5826, 2887.000
357.0647, 2954.911
357.5468, 3047.866
358.0290, 3158.832
358.5111, 3268.729
358.9932, 3387.359
359.4753, 3487.347
359.9574, 3574.240
360.4395, 3639.600
360.9217, 3678.235
361.4038, 3688.666
361.8859, 3670.336
362.3680, 3622.468
362.8501, 3545.216
363.3322, 3439.632
363.8144, 3303.165
364.2965, 3138.044
364.7786, 2936.390
365.2607, 2712.024
365.7428, 2489.374
366.2249, 2284.659
366.7071, 2083.338
367.1892, 1854.393
367.6713, 1590.935
368.1534, 1356.833
368.6355, 1185.378
369.1176, 1046.919
369.5998, 897.2749
370.0819, 730.2769
370.5640, 584.9727
371.0461, 488.0249
371.5282, 425.9341
372.0103, 372.6670
372.4925, 324.3818
372.9746, 282.0747
373.4567, 247.8921
373.9388, 221.8701
374.4209, 195.3530
374.9030, 164.5527
375.3852, 136.2974
375.8673, 114.3296
376.3494, 98.28027
376.8315, 88.11816
377.3136, 84.80811
377.7957, 84.13135
378.2779, 74.61719
378.7600, 40.04346
379.2421, 18.75781
379.7242, 24.10254
380.2063, 34.76709
380.6884, 31.52881
381.1706, 12.91357
381.6527, 7.986328
382.1348, 18.03320
382.6169, 16.68701
383.0990, 14.64307
383.5811, 12.43896
384.0633, 8.773438
384.5454, 2.878906
385.0275, 14.60400
385.5096, 13.57031
385.9917, 7.014648
386.4738, 36.72510
386.9560, 59.96777
387.4381, 77.13379
387.9202, 84.12500
388.4023, 70.71240
388.8844, 54.14453
389.3665, 46.14697
389.8487, 46.97998
390.3308, 51.94141
390.8129, 63.04004
391.2950, 75.51172
391.7771, 77.70898
392.2592, 67.52344
392.7414, 55.94678
393.2235, 48.07764
393.7056, 44.68359
394.1877, 47.06738
394.6698, 61.00928
395.1519, 73.24512
395.6341, 75.82812
396.1162, 72.09814
396.5983, 69.55176
397.0804, 70.47656
397.5625, 69.43701
398.0446, 58.41992
398.5268, 32.73096
399.0089, 15.94727
399.4910, 18.03076
399.9731, 18.72754
400.4552, 0.6796880
400.9373, 29.21240
401.4194, 48.98389
401.9016, 43.00195
402.3837, 19.82959
402.8658, 15.51416
403.3479, 47.88818
403.8300, 71.38745
404.3121, 71.80176
404.7943, 66.61328
405.2764, 73.28857
405.7585, 94.08716
406.2406, 114.3967
406.7227, 114.0583
407.2048, 94.60425
407.6870, 94.74194
408.1691, 127.3503
408.6512, 160.6692
409.1333, 171.3154
409.6154, 170.0730
410.0975, 178.7546
410.5797, 209.1975
411.0618, 244.9441
411.5439, 268.0430
412.0260, 280.4690
412.5081, 295.4604
412.9902, 318.3201
413.4724, 343.2710
413.9545, 360.5908
414.4366, 369.9255
414.9187, 382.6233
415.4008, 401.4102
415.8829, 423.2295
416.3651, 448.0293
416.8472, 474.3303
417.3293, 495.1064
417.8114, 504.3442
418.2935, 505.5427
418.7756, 518.3372
419.2578, 561.0203
419.7399, 592.2258
420.2220, 601.1851
420.7041, 600.9609
421.1862, 604.3711
421.6683, 613.8833
422.1505, 622.8381
422.6326, 622.9541
423.1147, 613.6157
423.5968, 606.6780
424.0789, 603.7793
424.5610, 601.5244
425.0432, 599.6641
425.5253, 597.1895
426.0074, 591.9490
426.4895, 581.9390
426.9716, 572.4663
427.4537, 571.4519
427.9359, 578.4294
428.4180, 583.3882
428.9001, 582.8411
429.3822, 580.8589
429.8643, 583.3723
430.3464, 589.9126
430.8286, 591.7266
431.3107, 582.5176
431.7928, 570.2727
432.2749, 562.9304
432.7570, 560.0137
433.2391, 556.8049
433.7213, 550.7483
434.2034, 542.3972
434.6855, 533.6431
435.1676, 523.5320
435.6497, 514.4851
436.1318, 505.5356
436.6140, 498.4241
437.0961, 497.7590
437.5782, 501.9438
438.0603, 501.6091
438.5424, 487.0972
439.0245, 459.4919
439.5067, 436.4741
439.9888, 413.1677
440.4709, 402.9272
440.9530, 424.9031
441.4351, 452.4138
441.9172, 452.8770
442.3994, 416.8442
442.8815, 372.9590
443.3636, 347.9153
443.8457, 339.6030
444.3278, 338.7080
444.8099, 348.9382
445.2921, 357.6279
445.7742, 354.9714
446.2563, 344.0515
446.7384, 329.2566
447.2205, 305.8047
447.7026, 282.5249
448.1848, 265.5752
448.6669, 253.1709
449.1490, 242.3110
449.6311, 232.5684
450.1132, 223.6702
450.5953, 214.0962
451.0775, 203.7014
451.5596, 191.8159
452.0417, 174.3450
452.5238, 157.9021
453.0059, 151.9460
453.4880, 150.7493
453.9702, 137.9956
454.4523, 102.6567
454.9344, 56.82300
455.4165, 35.36572
455.8986, 50.65088
456.3807, 59.02222
456.8629, 42.26709
457.3450, 22.66138
457.8271, 15.51416
458.3092, 21.01099
458.7913, 27.13477
459.2734, 24.27026
459.7556, 16.17334
460.2377, 8.527100
460.7198, 1.584961
461.2019, 3.972412
461.6840, 23.97705
462.1661, 50.85205
462.6483, 63.17407
463.1304, 58.49048
463.6125, 49.29126
464.0946, 36.02002
464.5767, 21.44385
465.0588, 5.356201
465.5410, 10.29004
466.0231, 16.03784
466.5052, 3.053467
466.9873, 25.99780
467.4694, 46.20288
467.9515, 54.74561
468.4337, 58.01025
468.9158, 47.55151
469.3979, 35.78809
469.8800, 38.89941
470.3621, 58.69849
470.8442, 77.97998
471.3264, 74.14233
471.8085, 49.68994
472.2906, 39.21387
472.7727, 47.45239
473.2548, 60.61914
473.7369, 78.43628
474.2191, 94.58521
474.7012, 97.73657
475.1833, 80.37744
475.6654, 65.45703
476.1475, 70.34888
476.6296, 87.41895
477.1118, 101.7197
477.5939, 110.5015
478.0760, 116.5000
478.5581, 120.4512
479.0402, 122.0876
479.5223, 132.9438
480.0045, 168.6943
480.4866, 193.7886
480.9687, 189.9133
481.4508, 173.1787
481.9329, 163.4504
482.4150, 166.7239
482.8972, 177.6211
483.3793, 191.7683
483.8614, 210.1328
484.3435, 220.0417
484.8256, 216.4033
485.3077, 210.8315
485.7899, 205.3643
486.2720, 201.9651
486.7541, 203.6162
487.2362, 211.3264
487.7183, 223.7410
488.2004, 245.8015
488.6826, 272.5242
489.1647, 281.8643
489.6468, 265.9231
490.1289, 248.6846
490.6110, 254.4968
491.0931, 283.3411
491.5753, 301.2622
492.0574, 302.4736
492.5395, 299.4045
493.0216, 292.1260
493.5037, 285.3713
493.9858, 288.3774
494.4680, 303.2456
494.9501, 319.5420
495.4322, 321.7312
495.9143, 306.4382
496.3964, 302.4387
496.8785, 328.4397
497.3607, 343.8225
497.8428, 323.8301
498.3249, 289.3047
498.8070, 272.4475
499.2891, 286.3889
499.7712, 305.8745
500.2533, 301.7212
500.7354, 279.3206
501.2176, 267.2278
501.6997, 272.7451
502.1818, 279.3518
502.6639, 270.9709
503.1460, 250.1855
503.6281, 238.8882
504.1103, 246.4915
504.5924, 253.7095
505.0745, 251.0710
505.5566, 243.5906
506.0387, 239.7310
506.5208, 241.3364
507.0030, 242.6445
507.4851, 236.8374
507.9672, 223.4836
508.4493, 208.5188
508.9314, 181.7878
509.4135, 166.5703
509.8957, 180.0374
510.3778, 202.8958
510.8599, 211.6619
511.3420, 199.8259
511.8241, 180.7297
512.3063, 162.2007
512.7884, 145.6233
513.2705, 141.1941
513.7526, 154.0039
514.2347, 164.2144
514.7169, 154.9114
515.1990, 131.4480
515.6811, 118.4050
516.1632, 126.1741
516.6453, 129.8604
517.1274, 120.0564
517.6096, 102.4871
518.0917, 79.71631
518.5738, 54.80078
519.0559, 38.57739
519.5380, 42.74072
520.0201, 63.93115
520.5023, 68.39844
520.9844, 44.08911
521.4665, 22.39209
521.9486, 8.600098
522.4307, 0.1606450
522.9128, 3.545410
523.3950, 3.512207
523.8771, 4.239502
524.3592, 7.714844
524.8413, 12.80908
525.3234, 21.57593
525.8055, 34.68921
526.2877, 39.56079
526.7698, 26.54956
527.2519, 4.846436
527.7340, 2.478027
528.2161, 11.28223
528.6982, 17.80762
529.1804, 6.931396
529.6625, 6.462891
530.1446, 11.79102
530.6267, 9.969482
531.1088, 6.145264
531.5909, 3.282959
532.0731, 1.194336
532.5552, 0.7651370
533.0373, 3.064453
533.5194, 5.022949
534.0015, 5.713135
534.4836, 5.943604
534.9658, 8.789063
535.4479, 12.32349
535.9300, 9.196777
536.4121, 9.691406
536.8942, 30.41089
537.3763, 36.31152
537.8585, 31.02197
538.3406, 27.78613
538.8227, 30.27856
539.3048, 37.03613
539.7869, 47.13159
540.2690, 61.75757
540.7512, 73.50635
541.2333, 84.75098
541.7154, 90.92212
542.1975, 85.71997
542.6796, 76.10400
543.1617, 71.84009
543.6439, 75.96411
544.1260, 83.30908
544.6081, 87.54102
545.0902, 88.84229
545.5723, 92.41016
546.0544, 99.64429
546.5366, 106.3191
547.0187, 109.7415
547.5008, 111.2615
547.9829, 112.9873
548.4650, 115.3164
548.9471, 117.2507
549.4292, 118.8857
549.9113, 119.5803
550.3934, 117.3994
550.8755, 112.7891
551.3577, 109.4011
551.8398, 109.5715
552.3219, 113.2612
552.8040, 120.8374
553.2861, 138.2341
553.7682, 149.1362
554.2504, 151.2034
554.7325, 148.2751
555.2146, 140.8010
555.6967, 130.2808
556.1788, 120.4368
556.6609, 113.4446
557.1431, 108.1260
557.6252, 102.9172
558.1073, 97.79102
558.5894, 92.26050
559.0715, 85.42139
559.5536, 80.07471
560.0358, 80.63037
560.5179, 88.02026
561.0000, 90.33252
561.4821, 83.21680
561.9642, 75.61768
562.4464, 71.33472
562.9285, 68.94336
563.4106, 66.83203
563.8927, 64.27515
564.3748, 59.88208
564.8569, 50.11816
565.3391, 35.36060
565.8212, 30.53955
566.3033, 43.13989
566.7854, 50.15430
567.2675, 34.72217
567.7496, 11.62158
568.2318, 2.762939
568.7139, 6.078857
569.1960, 5.769531
569.6781, 3.927490
570.1602, 1.048584
570.6423, 3.615967
571.1245, 9.226807
571.6066, 11.57544
572.0887, 7.998047
572.5708, 1.155762
573.0529, 2.742432
573.5350, 3.803955
574.0172, 1.618164
574.4993, 13.00635
574.9814, 21.65576
575.4635, 9.423584
575.9456, 14.23511
576.4277, 30.22974
576.9099, 30.56787
577.3920, 21.86011
577.8741, 7.342041
578.3562, 10.48535
578.8383, 21.82129
579.3204, 24.52319
579.8026, 22.70679
580.2847, 18.56494
580.7668, 12.51294
581.2489, 7.255371
581.7310, 6.274902
582.2131, 7.404053
582.6953, 22.40015
583.1774, 54.92896
583.6595, 63.09302
584.1416, 48.09106
584.6237, 30.37939
585.1058, 23.19116
585.5880, 23.72925
586.0701, 28.70435
586.5522, 39.93604
587.0343, 42.69287
587.5164, 26.77393
587.9985, 8.671631
588.4807, 6.830566
588.9628, 19.00391
589.4449, 30.68628
589.9270, 43.54346
590.4091, 51.03735
590.8912, 45.44995
591.3734, 33.57593
591.8555, 25.09644
592.3376, 22.92017
592.8197, 27.16895
593.3018, 39.45166
593.7839, 59.24316
594.2661, 73.45386
594.7482, 76.72046
595.2303, 83.93457
595.7124, 108.6777
596.1945, 133.3906
596.6766, 137.7437
597.1588, 121.4272
597.6409, 114.3975
598.1230, 135.9346
598.6051, 168.3638
599.0872, 196.4756
599.5693, 219.8550
600.0515, 238.9888
600.5336, 253.9041
601.0157, 267.1023
601.4978, 282.5786
601.9799, 301.2668
602.4620, 316.4033
602.9442, 319.8752
603.4263, 329.4358
603.9084, 352.3445
604.3905, 382.4624
604.8726, 412.7576
605.3547, 441.8257
605.8369, 471.3215
606.3190, 505.1311
606.8011, 539.3401
607.2832, 566.5139
607.7653, 586.6758
608.2474, 604.9263
608.7296, 623.3613
609.2117, 642.0808
609.6938, 660.6179
610.1759, 676.0400
610.6580, 700.0259
611.1401, 744.1294
611.6223, 783.5217
612.1044, 803.8425
612.5865, 813.8828
613.0686, 828.8240
613.5507, 853.6350
614.0328, 877.3687
614.5150, 887.5476
614.9971, 887.6494
615.4792, 889.1357
615.9613, 892.8044
616.4434, 896.2312
616.9255, 897.1265
617.4077, 898.0259
617.8898, 906.2742
618.3719, 932.0493
618.8540, 940.8484
619.3361, 919.6111
619.8182, 892.4771
620.3004, 871.6362
620.7825, 855.6313
621.2646, 841.0735
621.7467, 826.7007
622.2288, 807.3650
622.7109, 770.8738
623.1931, 721.3362
623.6752, 688.1873
624.1573, 675.8345
624.6394, 668.3818
625.1215, 657.1086
625.6036, 644.3921
626.0858, 637.2991
626.5679, 639.6650
627.0500, 636.8149
627.5321, 620.9951
628.0142, 604.5066
628.4963, 598.4763
628.9785, 598.1499
629.4606, 589.9429
629.9427, 567.5071
630.4248, 544.5432
630.9069, 540.4856
631.3890, 554.5173
631.8712, 577.4199
632.3533, 612.6990
632.8354, 644.2900
633.3175, 661.9934
633.7996, 670.2068
634.2817, 678.7737
634.7639, 685.9602
635.2460, 700.6108
635.7281, 728.2256
636.2102, 760.3215
636.6923, 791.4199
637.1744, 821.9431
637.6566, 855.5232
638.1387, 894.0151
638.6208, 931.2310
639.1029, 954.3728
639.5850, 964.2180
640.0671, 986.9126
640.5493, 1028.886
641.0314, 1069.066
641.5135, 1096.048
641.9956, 1113.392
642.4777, 1128.304
642.9598, 1138.395
643.4420, 1153.407
643.9241, 1183.394
644.4062, 1211.833
644.8883, 1222.049
645.3704, 1221.625
645.8525, 1229.123
646.3347, 1252.339
646.8168, 1282.078
647.2989, 1309.521
647.7810, 1334.069
648.2631, 1341.783
648.7452, 1327.289
649.2274, 1312.432
649.7095, 1308.447
650.1916, 1310.485
650.6737, 1308.538
651.1558, 1301.002
651.6379, 1296.517
652.1201, 1307.838
652.6022, 1311.727
653.0843, 1279.765
653.5664, 1232.560
654.0485, 1215.083
654.5306, 1241.869
655.0128, 1274.598
655.4949, 1261.400
655.9770, 1209.327
656.4591, 1177.631
656.9412, 1172.073
657.4233, 1161.146
657.9055, 1129.442
658.3876, 1087.149
658.8697, 1051.490
659.3518, 1023.850
659.8339, 991.4700
660.3160, 945.5430
660.7982, 902.5520
661.2803, 874.3157
661.7624, 852.6057
662.2445, 824.3655
662.7266, 786.5784
663.2087, 747.1008
663.6909, 711.9885
664.1730, 681.3928
664.6551, 656.8049
665.1372, 638.8582
665.6193, 618.3230
666.1014, 590.9231
666.5836, 561.6997
667.0657, 537.4324
667.5478, 519.1848
668.0299, 496.9365
668.5120, 462.6838
668.9941, 434.2568
669.4763, 420.4607
669.9584, 413.2561
670.4405, 405.2302
670.9226, 394.3943
671.4047, 380.4260
671.8868, 362.4675
672.3690, 341.5525
672.8511, 318.1182
673.3332, 292.6421
673.8153, 268.4236
674.2974, 245.3644
674.7795, 228.3633
675.2617, 224.9923
675.7438, 233.9623
676.2259, 230.3673
676.7080, 203.3079
677.1901, 178.1281
677.6722, 158.2477
678.1544, 140.5226
678.6365, 121.9836
679.1186, 103.3905
679.6007, 88.07690
680.0828, 78.56128
680.5649, 71.26001
681.0471, 62.05530
681.5292, 51.97485
682.0113, 44.88611
682.4934, 41.28308
682.9755, 35.53613
683.4576, 22.64075
683.9398, 6.207397
684.4219, 0.6921390
684.9040, 9.479492
685.3861, 15.31885
685.8682, 11.96558
686.3503, 5.034546
686.8325, 4.507324
687.3146, 13.71985
687.7967, 18.16162
688.2788, 16.56763
688.7609, 11.35205
689.2430, 1.881104
689.7252, 13.58838
690.2073, 6.806519
690.6894, 13.14478
691.1715, 22.69812
691.6536, 11.43677
692.1357, 7.691528
692.6179, 13.86719
693.1000, 6.291382
693.5821, 4.401367
694.0642, 9.850098
694.5463, 14.49280
695.0284, 13.64148
695.5106, 10.90076
695.9927, 9.855225
696.4748, 10.94629
696.9569, 18.99585
697.4390, 39.80225
697.9211, 60.55542
698.4033, 74.21997
698.8854, 84.19006
699.3675, 95.35742
699.8496, 108.0698
700.3317, 119.9562
700.8138, 127.8458
701.2960, 134.4365
701.7781, 149.8187
702.2602, 174.7351
702.7423, 197.5845
703.2244, 214.5533
703.7065, 230.3922
704.1887, 249.0950
704.6708, 270.6237
705.1529, 293.8765
705.6350, 317.8855
706.1171, 345.2881
706.5992, 377.9572
707.0814, 412.3884
707.5635, 446.4905
708.0456, 480.1372
708.5277, 512.5039
709.0098, 541.5342
709.4919, 574.3309
709.9741, 626.5955
710.4562, 689.0586
710.9383, 730.2332
711.4204, 747.0610
711.9025, 761.3927
712.3846, 785.0750
712.8668, 818.5232
713.3489, 863.6296
713.8310, 927.6538
714.3131, 982.2544
714.7952, 1020.617
715.2773, 1057.380
715.7595, 1099.503
716.2416, 1142.207
716.7237, 1179.219
717.2058, 1209.598
717.6879, 1234.742
718.1700, 1250.597
718.6522, 1265.464
719.1343, 1293.229
719.6164, 1324.945
720.0985, 1337.730
720.5806, 1326.005
721.0627, 1307.255
721.5449, 1299.240
722.0270, 1299.826
722.5091, 1299.773
722.9912, 1301.122
723.4733, 1290.057
723.9554, 1259.938
724.4376, 1221.664
724.9197, 1187.178
725.4018, 1154.475
725.8839, 1107.483
726.3660, 1028.772
726.8481, 959.5327
727.3303, 915.3308
727.8124, 877.6392
728.2945, 832.9446
728.7766, 781.3588
729.2587, 727.8668
729.7408, 674.6997
730.2230, 621.5305
730.7051, 564.6425
731.1872, 508.0446
731.6693, 464.6616
732.1514, 434.5555
732.6335, 404.6907
733.1157, 368.5161
733.5978, 328.3973
734.0799, 287.3118
734.5620, 242.9044
735.0441, 210.6576
735.5262, 200.1895
736.0084, 187.9481
736.4905, 164.4225
736.9726, 137.0171
737.4547, 110.9106
737.9368, 86.93286
738.4189, 70.22192
738.9011, 69.89001
739.3832, 69.20386
739.8653, 54.01855
740.3474, 33.57324
740.8295, 23.10291
741.3116, 23.35547
741.7938, 21.73328
742.2759, 7.593872
742.7580, 10.29736
743.2401, 10.20459
743.7222, 6.780884
744.2043, 15.03687
744.6865, 9.564087
745.1686, 0.4219970
745.6507, 6.945068
746.1328, 11.95349
746.6149, 12.88452
747.0970, 5.148071
747.5791, 3.080322
748.0612, 15.29651
748.5433, 23.62805
749.0255, 13.46924
749.5076, 2.491211
749.9897, 3.211914
750.4718, 15.39758
750.9539, 31.84375
751.4360, 32.94617
751.9182, 26.59314
752.4003, 16.97876
752.8824, 7.181641
753.3645, 6.908691
753.8466, 17.16968
754.3287, 22.51953
754.8109, 6.265808
755.2930, 23.06812
755.7751, 30.40271
756.2572, 11.81024
756.7393, 1.234741
757.2214, 7.387207
757.7036, 16.13818
758.1857, 17.00897
758.6678, 12.12237
759.1499, 9.759644
759.6320, 11.36243
760.1141, 12.52240
760.5963, 11.01904
761.0784, 10.90118
761.5605, 17.14056
762.0426, 25.30981
762.5247, 26.77863
763.0068, 19.29016
763.4890, 13.14728
763.9711, 18.58240
764.4532, 27.56750
764.9353, 27.84052
765.4174, 22.23657
765.8995, 21.01007
766.3817, 26.92822
766.8638, 34.23297
767.3459, 37.01819
767.8280, 36.58893
768.3101, 40.60577
768.7922, 51.25403
769.2744, 54.59076
769.7565, 43.93762
770.2386, 33.18616
770.7207, 32.54950
771.2028, 39.91553
771.6849, 47.63458
772.1671, 58.97955
772.6492, 63.92029
773.1313, 56.87885
773.6134, 47.78882
774.0955, 37.44330
774.5776, 30.63892
775.0598, 37.40991
775.5419, 59.66193
776.0240, 78.65967
776.5061, 78.57629
776.9882, 69.75525
777.4703, 63.08777
777.9525, 59.32532
778.4346, 61.38556
778.9167, 69.48047
779.3988, 76.99493
779.8809, 77.74518
780.3630, 73.43823
780.8452, 69.41241
781.3273, 65.15436
781.8094, 64.95410
782.2915, 70.63922
782.7736, 78.10077
783.2557, 86.00885
783.7379, 93.20306
784.2200, 96.40149
784.7021, 95.02161
785.1842, 91.24866
785.6663, 80.16772
786.1484, 72.30011
786.6306, 73.84149
787.1127, 80.49615
787.5948, 87.03265
788.0769, 92.39099
788.5590, 97.24554
789.0411, 103.7754
789.5233, 108.3981
790.0054, 105.4005
790.4875, 98.77734
790.9696, 96.73206
791.4517, 100.0013
791.9338, 102.7247
792.4160, 100.5415
792.8981, 96.37299
793.3802, 97.55310
793.8623, 103.8420
794.3444, 104.3990
794.8265, 96.83783
795.3087, 91.08966
795.7908, 92.36475
796.2729, 98.27679
796.7550, 105.4831
797.2371, 115.6640
797.7192, 119.1265
798.2014, 107.6816
798.6835, 99.73535
799.1656, 104.3542
799.6477, 110.3946
800.1298, 104.4938
800.6119, 88.29376
801.0941, 79.27136
801.5762, 87.91632
802.0583, 99.10986
802.5404, 108.3341
803.0225, 112.7053
803.5046, 106.1447
803.9868, 92.30139
804.4689, 81.74731
804.9510, 79.65320
805.4331, 82.00568
805.9152, 84.55017
806.3973, 87.32660
806.8795, 92.33551
807.3616, 99.37927
807.8437, 100.1392
808.3258, 90.34644
808.8079, 78.31738
809.2900, 73.94238
809.7722, 76.97833
810.2543, 82.46716
810.7364, 94.62952
811.2185, 95.67560
811.7006, 72.32227
812.1827, 50.58832
812.6649, 54.17969
813.1470, 73.01770
813.6291, 79.51355
814.1112, 66.50012
814.5933, 56.42200
815.0754, 54.28278
815.5576, 55.69568
816.0397, 60.28235
816.5218, 65.40796
817.0039, 68.54541
817.4860, 69.29370
817.9681, 67.85449
818.4503, 62.68365
818.9324, 57.03845
819.4145, 53.77557
819.8966, 52.58813
820.3787, 53.33899
820.8608, 55.36462
821.3430, 57.09991
821.8251, 58.13635
822.3072, 57.96655
822.7893, 54.46765
823.2714, 48.00409
823.7535, 43.03815
824.2357, 39.87567
824.7178, 39.80219
825.1999, 43.92352
825.6820, 49.13129
826.1641, 52.07843
826.6462, 52.82397
827.1284, 49.40680
827.6105, 37.90472
828.0926, 29.06763
828.5747, 23.31171
829.0568, 22.58606
829.5389, 32.18591
830.0211, 47.03149
830.5032, 54.00616
830.9853, 48.95813
831.4674, 43.30304
831.9495, 39.49756
832.4316, 36.08173
832.9138, 32.06030
833.3959, 28.47675
833.8780, 26.02545
834.3601, 25.01422
834.8422, 26.85883
835.3243, 34.83618
835.8065, 42.09326
836.2886, 41.42242
836.7707, 36.16864
837.2528, 29.66046
837.7349, 23.63068
838.2170, 23.72906
838.6992, 33.82629
839.1813, 46.02002
839.6634, 46.21503
840.1455, 36.21747
840.6276, 29.44904
841.1097, 26.41510
841.5919, 25.24121
842.0740, 25.34796
842.5561, 26.63684
843.0382, 29.32404
843.5203, 33.17395
844.0024, 35.22296
844.4846, 34.20636
844.9667, 34.64294
845.4488, 39.16943
845.9309, 42.69977
846.4130, 41.78265
846.8951, 37.92493
847.3773, 33.20642
847.8594, 26.24396
848.3415, 23.71729
848.8236, 29.87744
849.3057, 36.89252
849.7878, 43.46033
850.2700, 47.56268
850.7521, 46.05615
851.2342, 39.80042
851.7163, 34.42053
852.1984, 32.34796
852.6805, 31.83606
853.1627, 32.76471
853.6448, 33.83783
854.1269, 32.93658
854.6090, 30.64618
855.0911, 29.78650
855.5732, 31.34521
856.0554, 31.52228
856.5375, 22.79187
857.0196, 10.86023
857.5017, 13.69690
857.9838, 27.86768
858.4659, 31.77386
858.9481, 20.39716
859.4302, 7.619080
859.9123, 4.095154
860.3944, 7.129333
860.8765, 9.763733
861.3586, 11.99792
861.8408, 13.00909
862.3229, 12.03870
862.8050, 12.48682
863.2871, 16.66071
863.7692, 21.83948
864.2513, 24.45367
864.7335, 24.46124
865.2156, 23.01556
865.6977, 16.30835
866.1798, 13.64343
866.6619, 19.08838
867.1440, 25.99567
867.6262, 30.91907
868.1083, 34.10400
868.5904, 36.67413
869.0725, 39.32233
869.5546, 38.94403
870.0367, 32.37622
870.5189, 25.24292
871.0010, 20.07178
871.4831, 16.46924
871.9652, 14.47968
872.4473, 13.47101
872.9294, 11.18805
873.4116, 4.392761
873.8937, 0.2999880
874.3758, 9.949219
874.8579, 22.54950
875.3400, 20.78662
875.8221, 8.319275
876.3043, 0.1401980
876.7864, 1.007996
877.2685, 7.152161
877.7506, 16.70355
878.2327, 25.97662
878.7148, 24.62061
879.1970, 14.95526
879.6791, 7.233032
880.1612, 3.565674
880.6433, 2.578186
881.1254, 3.543518
881.6075, 5.659790
882.0897, 7.519409
882.5718, 9.148682
883.0539, 9.298706
883.5360, 7.569336
884.0181, 6.598877
884.5002, 7.397766
884.9824, 8.976746
885.4645, 9.945801
885.9466, 10.63947
886.4287, 14.74719
886.9108, 27.37158
887.3929, 31.54077
887.8751, 18.96161
888.3572, 7.229980
888.8393, 7.719727
889.3214, 13.65277
889.8035, 13.39764
890.2856, 5.927429
890.7678, 0.2636720
891.2499, 3.090759
891.7320, 6.498291
892.2141, 16.22699
892.6962, 22.88806
893.1783, 15.06805
893.6605, 1.915405
894.1426, 12.04004
894.6247, 9.650391
895.1068, 6.469360
895.5889, 8.095032
896.0710, 9.973389
896.5532, 8.769348
897.0353, 5.764526
897.5174, 2.391785
897.9995, 0.7397460
898.4816, 2.534668
898.9637, 2.240051
899.4459, 0.6122440
899.9280, 2.195435
900.4101, 5.563477
900.8922, 9.982605
901.3743, 14.08759
901.8564, 12.63147
902.3386, 4.309875
902.8207, 2.496887
903.3028, 1.962219
903.7849, 12.16931
904.2670, 17.72302
904.7491, 18.99078
905.2313, 16.36041
905.7134, 10.30603
906.1955, 4.044128
906.6776, 0.6911010
907.1597, 2.952515
907.6418, 0.3329470
908.1240, 8.276062
908.6061, 10.30450
909.0882, 6.055481
909.5703, 2.829773
910.0524, 2.276306
910.5345, 5.699829
911.0167, 15.71967
911.4988, 28.44598
911.9809, 29.19952
912.4630, 13.21698
912.9451, 9.040283
913.4272, 23.67236
913.9094, 33.03076
914.3915, 25.33276
914.8736, 11.75299
915.3557, 4.513367
915.8378, 3.459290
916.3199, 5.126953
916.8021, 13.19556
917.2842, 17.08374
917.7663, 12.71899
918.2484, 8.094299
918.7305, 7.155212
919.2126, 8.318787
919.6948, 9.613953
920.1769, 11.08215
920.6590, 11.52478
921.1411, 11.28925
921.6232, 9.434387
922.1053, 2.501587
922.5875, 3.179138
923.0696, 1.706116
923.5517, 4.291626
924.0338, 8.272888
924.5159, 8.579651
924.9980, 9.805420
925.4802, 14.11676
925.9623, 18.97601
926.4444, 24.68573
926.9265, 29.00891
927.4086, 29.88763
927.8907, 27.04810
928.3729, 19.75446
928.8550, 5.638000
929.3371, 5.103333
929.8192, 3.931274
930.3013, 1.544189
930.7834, 4.455994
931.2656, 6.216125
931.7477, 11.74957
932.2298, 20.65497
932.7119, 24.59784
933.1940, 16.24023
933.6761, 6.647278
934.1583, 8.337708
934.6404, 15.68964
935.1225, 21.67487
935.6046, 25.16852
936.0867, 24.28931
936.5688, 19.01337
937.0510, 14.02454
937.5331, 13.38934
938.0152, 15.52155
938.4973, 19.53021
938.9794, 23.78192
939.4615, 23.14337
939.9437, 17.75769
940.4258, 10.82758
940.9079, 3.821777
941.3900, 0.1728520
941.8721, 5.528870
942.3542, 16.41736
942.8364, 21.44635
943.3185, 21.63293
943.8006, 23.81836
944.2827, 29.03894
944.7648, 33.44861
945.2469, 34.80762
945.7290, 33.56726
946.2111, 29.59753
946.6932, 23.47131
947.1754, 20.53253
947.6575, 20.90771
948.1396, 20.19904
948.6217, 17.21832
949.1038, 15.46704
949.5859, 18.05042
950.0681, 21.54102
950.5502, 17.41876
951.0323, 5.278015
951.5144, 7.119385
951.9965, 26.99390
952.4786, 36.05518
952.9608, 23.02521
953.4429, 7.366516
953.9250, 5.733215
954.4071, 14.00671
954.8892, 18.49738
955.3713, 17.67828
955.8535, 19.44073
956.3356, 26.02777
956.8177, 29.30560
957.2998, 25.04633
957.7819, 18.15723
958.2640, 13.17706
958.7462, 10.38525
959.2283, 12.02283
959.7104, 23.25531
960.1925, 26.07068
960.6746, 13.56494
961.1567, 3.861938
961.6389, 5.685974
962.1210, 11.51208
962.6031, 12.63721
963.0852, 9.596069
963.5673, 9.079834
964.0494, 13.88837
964.5316, 16.44757
965.0137, 14.19495
965.4958, 12.48444
965.9779, 14.60474
966.4600, 18.12378
966.9421, 18.57056
967.4243, 14.95514
967.9064, 14.98297
968.3885, 24.22076
968.8706, 29.15161
969.3527, 25.58307
969.8348, 20.58179
970.3170, 15.74811
970.7991, 12.64758
971.2812, 14.61072
971.7633, 22.22577
972.2454, 27.17859
972.7275, 23.70203
973.2097, 22.63837
973.6918, 28.71497
974.1739, 35.74176
974.6560, 42.07123
975.1381, 45.67242
975.6202, 42.48651
976.1024, 31.86127
976.5845, 22.77625
977.0666, 16.05487
977.5487, 12.47919
978.0308, 14.05475
978.5129, 17.13928
978.9951, 21.13745
979.4772, 24.00812
979.9593, 20.68390
980.4414, 9.878845
980.9235, 5.142883
981.4056, 18.10846
981.8878, 27.18347
982.3699, 18.03058
982.8520, 7.715820
983.3341, 12.12128
983.8162, 25.21680
984.2983, 33.02368
984.7805, 32.70679
985.2626, 32.02802
985.7447, 34.58490
986.2268, 36.08972
986.7089, 33.66864
987.1910, 30.13190
987.6732, 28.09543
988.1553, 27.24854
988.6374, 26.17603
989.1195, 24.54181
989.6016, 23.37906
990.0837, 22.85464
990.5659, 23.18277
991.0480, 26.24765
991.5301, 28.72244
992.0122, 26.64377
992.4943, 21.61340
992.9764, 17.44305
993.4586, 14.96094
993.9407, 14.47647
994.4228, 18.02997
994.9049, 21.30386
995.3870, 22.26630
995.8691, 21.56891
996.3513, 18.54968
996.8334, 14.77332
997.3155, 13.98227
997.7976, 17.39096
998.2797, 19.83661
998.7618, 20.16739
999.2440, 17.52463
999.7261, 7.599060
1000.208, 2.500153
1000.690, 5.572510
1001.172, 2.833344
1001.655, 1.849487
1002.137, 7.614777
1002.619, 12.59259
1003.101, 16.77841
1003.583, 18.92145
1004.065, 17.94833
1004.547, 14.93744
1005.029, 9.197113
1005.511, 2.766113
1005.994, 0.2276310
1006.476, 1.269165
1006.958, 5.178253
1007.440, 13.98782
1007.922, 20.76520
1008.404, 20.92081
1008.886, 18.01538
1009.368, 14.59052
1009.851, 11.19748
1010.333, 7.589539
1010.815, 3.742493
1011.297, 2.395691
1011.779, 7.358002
1012.261, 12.20538
1012.743, 15.37473
1013.225, 15.52179
1013.707, 7.802979
1014.190, 2.644073
1014.672, 4.264191
1015.154, 5.492828
1015.636, 12.64536
1016.118, 9.376373
1016.600, 5.808197
1017.082, 6.431519
1017.564, 8.977997
1018.047, 11.83273
1018.529, 14.15039
1019.011, 14.00360
1019.493, 11.10110
1019.975, 10.22488
1020.457, 17.34921
1020.939, 20.87302
1021.421, 11.69424
1021.903, 2.012939
1022.386, 3.381592
1022.868, 9.374756
1023.350, 6.623108
1023.832, 6.159363
1024.314, 11.79968
1024.796, 1.283081
1025.278, 12.22647
1025.760, 14.36542
1026.243, 13.39069
1026.725, 11.75476
1027.207, 10.01321
1027.689, 9.332520
1028.171, 9.538910
1028.653, 6.807709
1029.135, 5.036346
1029.617, 11.78403
1030.099, 8.887146
1030.582, 2.385803
1031.064, 7.530762
1031.546, 17.29953
1032.028, 22.78247
1032.510, 23.95709
1032.992, 23.01559
1033.474, 17.19791
1033.956, 14.17838
1034.438, 18.64774
1034.921, 21.39130
1035.403, 15.47098
1035.885, 8.154449
1036.367, 8.958740
1036.849, 16.16074
1037.331, 17.74359
1037.813, 6.156952
1038.295, 2.816956
1038.778, 17.65869
1039.260, 27.45435
1039.742, 19.48022
1040.224, 9.251404
1040.706, 12.53085
1041.188, 24.75330
1041.670, 28.40744
1042.152, 19.08621
1042.635, 14.52448
1043.117, 17.79440
1043.599, 20.18054
1044.081, 19.00189
1044.563, 16.87082
1045.045, 15.88007
1045.527, 15.48138
1046.009, 14.18179
1046.491, 11.78354
1046.974, 9.607391
1047.456, 6.498657
1047.938, 7.309967
1048.420, 15.52081
1048.902, 21.52972
1049.384, 18.08572
1049.866, 10.34457
1050.348, 7.738831
1050.830, 10.22375
1051.313, 14.29807
1051.795, 21.06705
1052.277, 22.63074
1052.759, 16.82822
1053.241, 10.04474
1053.723, 4.970795
1054.205, 3.224213
1054.687, 8.315216
1055.169, 18.21304
1055.652, 19.38849
1056.134, 11.70435
1056.616, 8.580292
1057.098, 11.64981
1057.580, 12.83926
1058.062, 8.508484
1058.544, 3.416412
1059.026, 3.056854
1059.509, 5.578278
1059.991, 5.159760
1060.473, 2.574371
1060.955, 2.957031
1061.437, 6.242859
1061.919, 8.779907
1062.401, 9.528320
1062.883, 9.897797
1063.365, 9.799591
1063.848, 9.610260
1064.330, 9.566315
1064.812, 9.629089
1065.294, 9.773346
1065.776, 10.05048
1066.258, 11.20578
1066.740, 12.88855
1067.222, 11.75439
1067.704, 5.522339
1068.187, 0.5979610
1068.669, 6.115570
1069.151, 15.76254
1069.633, 21.42139
1070.115, 23.75684
1070.597, 24.37515
1071.079, 23.35733
1071.561, 18.37958
1072.044, 8.424622
1072.526, 2.923157
1073.008, 16.91843
1073.490, 29.87787
1073.972, 19.63684
1074.454, 2.547211
1074.936, 3.121857
1075.418, 0.3741460
1075.901, 4.233734
1076.383, 7.058990
1076.865, 10.81403
1077.347, 18.00296
1077.829, 23.79166
1078.311, 23.87677
1078.793, 23.39380
1079.275, 27.70728
1079.757, 32.83020
1080.240, 32.70969
1080.722, 27.42679
1081.204, 21.75613
1081.686, 14.41299
1082.168, 10.49277
1082.650, 15.36737
1083.132, 20.24908
1083.614, 20.78287
1084.096, 20.47742
1084.579, 23.43738
1085.061, 28.21469
1085.543, 29.66803
1086.025, 27.04184
1086.507, 23.75729
1086.989, 17.74939
1087.471, 13.78851
1087.953, 14.14505
1088.436, 16.63742
1088.918, 21.23108
1089.400, 24.61038
1089.882, 20.24557
1090.364, 8.413330
1090.846, 4.519012
1091.328, 10.25906
1091.810, 16.13007
1092.292, 21.55188
1092.775, 24.31894
1093.257, 23.09241
1093.739, 20.52502
1094.221, 19.44119
1094.703, 19.44962
1095.185, 19.28506
1095.667, 18.96054
1096.149, 19.60587
1096.631, 21.03073
1097.114, 18.07257
1097.596, 9.592804
1098.078, 2.391449
1098.560, 1.307220
1099.042, 3.482880
1099.524, 5.833374
1100.006, 7.598480
1100.488, 5.826996
1100.971, 2.136230
1101.453, 1.208832
1101.935, 3.209229
1102.417, 5.674530
1102.899, 7.553802
1103.381, 8.030334
1103.863, 4.877472
1104.345, 1.684296
1104.828, 1.400391
1105.310, 3.792480
1105.792, 11.85010
1106.274, 21.21387
1106.756, 21.19296
1107.238, 11.40518
1107.720, 6.601776
1108.202, 16.78342
1108.684, 25.57605
1109.167, 24.77823
1109.649, 21.01517
1110.131, 16.38306
1110.613, 12.60632
1111.095, 11.54480
1111.577, 12.81540
1112.059, 15.01376
1112.541, 18.99408
1113.023, 20.34796
1113.506, 16.22873
1113.988, 12.83505
1114.470, 11.37485
1114.952, 11.03574
1115.434, 10.90231
1115.916, 12.04474
1116.398, 17.32907
1116.880, 26.46869
1117.363, 28.25970
1117.845, 20.12952
1118.327, 15.02069
1118.809, 15.19961
1119.291, 12.30173
1119.773, 1.604553
1120.255, 5.633057
1120.737, 2.499817
1121.219, 19.01526
1121.702, 26.81839
1122.184, 26.47791
1122.666, 20.22006
1123.148, 9.215485
1123.630, 2.226959
1124.112, 1.033966
1124.594, 4.170685
1125.076, 10.99319
1125.558, 16.73779
1126.041, 13.70633
1126.523, 8.228394
1127.005, 11.94760
1127.487, 19.41162
1127.969, 20.92889
1128.451, 17.27686
1128.933, 11.89609
1129.415, 6.316437
1129.898, 5.702393
1130.380, 15.99142
1130.862, 25.35300
1131.344, 26.07529
1131.826, 22.92316
1132.308, 18.69177
1132.790, 12.95020
1133.272, 1.580048
1133.755, 11.14297
1134.237, 9.343140
1134.719, 14.81635
1135.201, 29.16650
1135.683, 22.09113
1136.165, 14.29309
1136.647, 9.043182
1137.129, 5.735748
1137.611, 3.978729
1138.094, 4.174377
1138.576, 8.114227
1139.058, 14.88788
1139.540, 14.28619
1140.022, 3.166687
1140.504, 0.2722780
1140.986, 8.222290
1141.468, 15.05112
1141.950, 17.21136
1142.433, 16.57492
1142.915, 14.11896
1143.397, 11.60330
1143.879, 13.65894
1144.361, 18.29129
1144.843, 14.67044
1145.325, 5.572968
1145.807, 3.993195
1146.290, 10.19272
1146.772, 15.99164
1147.254, 18.12625
1147.736, 17.54523
1148.218, 13.94653
1148.700, 10.06860
1149.182, 8.746643
1149.664, 8.873199
1150.146, 9.766235
1150.629, 10.83081
1151.111, 11.24548
1151.593, 11.06564
1152.075, 10.76550
1152.557, 10.16467
1153.039, 11.10690
1153.521, 16.75754
1154.003, 20.59555
1154.485, 19.66882
1154.968, 16.72919
1155.450, 11.04556
1155.932, 6.390442
1156.414, 9.019928
1156.896, 18.51529
1157.378, 23.23434
1157.860, 22.17725
1158.342, 18.60263
1158.825, 10.61374
1159.307, 7.644684
1159.789, 13.34112
1160.271, 20.94327
1160.753, 25.79501
1161.235, 27.55737
1161.717, 24.32205
1162.199, 17.63974
1162.682, 16.16605
1163.164, 18.68781
1163.646, 17.88943
1164.128, 14.10959
1164.610, 15.59933
1165.092, 24.48975
1165.574, 31.28543
1166.056, 28.41000
1166.538, 21.94925
1167.021, 15.69363
1167.503, 11.49506
1167.985, 12.86832
1168.467, 16.63928
1168.949, 18.16104
1169.431, 17.68442
1169.913, 18.72659
1170.395, 22.62048
1170.877, 23.79721
1171.360, 16.49557
1171.842, 12.46106
1172.324, 18.03265
1172.806, 23.60562
1173.288, 23.64978
1173.770, 21.79645
1174.252, 22.43967
1174.734, 24.41092
1175.217, 22.14761
1175.699, 14.01740
1176.181, 12.14984
1176.663, 17.88739
1177.145, 18.77551
1177.627, 11.75253
1178.109, 6.779053
1178.591, 10.52136
1179.073, 15.49643
1179.556, 11.99057
1180.038, 5.750946
1180.520, 12.04614
1181.002, 23.90720
1181.484, 25.52115
1181.966, 19.33386
1182.448, 14.64111
1182.930, 13.15018
1183.412, 10.99100
1183.895, 6.149933
1184.377, 2.585754
1184.859, 4.144348
1185.341, 5.559631
1185.823, 1.098236
1186.305, 2.950043
1186.787, 1.863495
1187.269, 2.290894
1187.752, 7.789063
1188.234, 14.38498
1188.716, 20.08670
1189.198, 26.81421
1189.680, 26.70132
1190.162, 15.17212
1190.644, 8.728119
1191.126, 12.90494
1191.609, 17.89209
1192.091, 17.61264
1192.573, 14.40704
1193.055, 10.69296
1193.537, 7.422211
1194.019, 9.888641
1194.501, 16.19739
1194.983, 17.68033
1195.465, 14.84027
1195.948, 12.36349
1196.430, 11.64264
1196.912, 13.31778
1197.394, 18.37076
1197.876, 21.97263
1198.358, 18.72705
1198.840, 13.95718
1199.322, 9.214539
1199.804, 7.544525
1200.287, 16.81104
1200.769, 28.80240
1201.251, 26.31027
1201.733, 9.564941
1202.215, 2.371552
1202.697, 14.32901
1203.179, 21.82239
1203.661, 24.18619
1204.144, 22.61716
1204.626, 15.08713
1205.108, 9.926453
1205.590, 13.40991
1206.072, 18.92502
1206.554, 16.26108
1207.036, 8.101074
1207.518, 4.519928
1208.000, 4.976898
1208.483, 7.427979
1208.965, 11.29950
1209.447, 15.78317
1209.929, 20.38693
1210.411, 24.32230
1210.893, 27.24493
1211.375, 27.78818
1211.857, 25.00919
1212.339, 18.83975
1212.822, 6.727600
1213.304, 2.841217
1213.786, 2.151886
1214.268, 13.22092
1214.750, 17.27597
1215.232, 13.93033
1215.714, 9.192474
1216.196, 1.313507
1216.679, 0.7804570
1217.161, 6.359375
1217.643, 10.85321
1218.125, 9.763947
1218.607, 8.393524
1219.089, 9.351746
1219.571, 11.60352
1220.053, 14.06342
1220.536, 16.36960
1221.018, 17.35513
1221.500, 16.72885
1221.982, 11.47180
1222.464, 4.113129
1222.946, 3.247406
1223.428, 8.785858
1223.910, 13.75552
1224.392, 15.50381
1224.875, 14.48572
1225.357, 8.781250
1225.839, 2.470886
1226.321, 0.8384090
1226.803, 0.5155640
1227.285, 8.465485
1227.767, 18.70090
1228.249, 18.67383
1228.731, 11.54172
1229.214, 6.002441
1229.696, 1.830780
1230.178, 3.898743
1230.660, 14.76370
1231.142, 18.96814
1231.624, 14.28125
1232.106, 7.254425
1232.588, 1.668488
1233.071, 0.3182680
1233.553, 1.736053
1234.035, 4.602112
1234.517, 3.184296
1234.999, 1.127563
1235.481, 7.026489
1235.963, 15.51938
1236.445, 14.30463
1236.927, 6.551727
1237.410, 0.0000000E+00
##END=



