##NAMES=Cerussite
##RRUFFID=R050011
##IDEAL CHEMISTRY=PbCO_3_
##LOCALITY=Daoping Lead and Zinc mine, Gongcheng, Guangxi, China
##OWNER=RRUFF
##SOURCE=Eugene Schlepp
##DESCRIPTION=Colorless hexagonal bipyramidal crystals
##STATUS=The identification of this mineral has been confirmed by X-ray diffraction and chemical analysis
##URL=rruff.info/R050011
##MEASURED CHEMISTRY=Pb_1.00_CO_3_ ; CO_2_ not measured but estimated by difference and stoichiometry
123.1454, 0.0000000E+00
123.6275, 0.1706540
124.1096, 3.076538
124.5917, 10.31592
125.0739, 29.02539
125.5560, 42.54150
126.0381, 54.01868
126.5202, 73.29822
127.0023, 102.0845
127.4844, 137.9946
127.9666, 180.6555
128.4487, 229.5980
128.9308, 276.9452
129.4129, 310.4563
129.8950, 333.7687
130.3772, 363.8601
130.8593, 410.9314
131.3414, 468.5190
131.8235, 513.7598
132.3056, 544.7737
132.7877, 568.5361
133.2699, 594.8571
133.7520, 624.2661
134.2341, 645.5626
134.7162, 652.5872
135.1983, 645.4115
135.6804, 635.9207
136.1626, 624.1224
136.6447, 609.8826
137.1268, 592.3320
137.6089, 570.7833
138.0910, 548.3828
138.5731, 526.5398
139.0553, 504.7471
139.5374, 485.4263
140.0195, 470.4158
140.5016, 457.7023
140.9837, 438.8562
141.4658, 409.7054
141.9480, 380.7716
142.4301, 359.4796
142.9122, 348.4194
143.3943, 339.4067
143.8764, 330.6782
144.3585, 322.3396
144.8407, 320.2598
145.3228, 330.3990
145.8049, 342.2280
146.2870, 345.4604
146.7691, 332.0493
147.2512, 320.3879
147.7334, 312.5613
148.2155, 307.5676
148.6976, 311.0211
149.1797, 332.2993
149.6618, 359.3684
150.1439, 376.1412
150.6261, 375.9279
151.1082, 371.1698
151.5903, 364.2841
152.0724, 354.0862
152.5545, 344.4152
153.0366, 339.1193
153.5188, 334.4800
154.0009, 323.2020
154.4830, 296.1436
154.9651, 268.1951
155.4472, 245.5472
155.9293, 229.5861
156.4115, 218.1968
156.8936, 216.9331
157.3757, 221.4443
157.8578, 216.7588
158.3399, 189.8413
158.8221, 157.3712
159.3042, 129.9501
159.7863, 106.7932
160.2684, 92.31128
160.7505, 92.63684
161.2326, 105.7952
161.7148, 116.3740
162.1969, 116.0504
162.6790, 110.7393
163.1611, 106.1472
163.6432, 102.3599
164.1253, 101.1748
164.6075, 104.2012
165.0896, 111.5205
165.5717, 120.0730
166.0538, 128.6826
166.5359, 137.3770
167.0180, 146.2300
167.5002, 154.4766
167.9823, 163.4741
168.4644, 175.8062
168.9465, 192.5474
169.4286, 206.2446
169.9107, 207.3667
170.3929, 201.1892
170.8750, 198.9141
171.3571, 212.1616
171.8392, 229.6484
172.3213, 237.4998
172.8034, 231.0952
173.2856, 224.3005
173.7677, 233.5691
174.2498, 254.4475
174.7319, 271.4539
175.2140, 270.1123
175.6961, 260.2036
176.1783, 257.7920
176.6604, 269.1304
177.1425, 282.7258
177.6246, 282.8445
178.1067, 271.2434
178.5888, 259.2419
179.0710, 255.4885
179.5531, 257.4753
180.0352, 260.1885
180.5173, 263.5120
180.9994, 261.0764
181.4815, 253.4702
181.9637, 241.0686
182.4458, 230.4060
182.9279, 227.5073
183.4100, 231.0732
183.8921, 236.6328
184.3742, 245.1785
184.8564, 253.8755
185.3385, 253.1953
185.8206, 242.2783
186.3027, 232.4050
186.7848, 235.6201
187.2669, 250.7537
187.7491, 269.1052
188.2312, 290.4534
188.7133, 312.6963
189.1954, 327.6497
189.6775, 334.3682
190.1596, 337.4753
190.6418, 341.2639
191.1239, 345.7708
191.6060, 352.8821
192.0881, 361.7290
192.5702, 372.9731
193.0524, 393.9133
193.5345, 426.2671
194.0166, 463.6521
194.4987, 495.9207
194.9808, 522.7830
195.4629, 549.0249
195.9451, 577.4553
196.4272, 608.3262
196.9093, 633.3821
197.3914, 649.3555
197.8735, 664.2458
198.3556, 697.0498
198.8378, 751.0195
199.3199, 801.4883
199.8020, 830.4126
200.2841, 835.3240
200.7662, 852.6086
201.2483, 886.8760
201.7305, 932.3132
202.2126, 974.2078
202.6947, 1010.996
203.1768, 1050.076
203.6589, 1097.700
204.1410, 1155.110
204.6232, 1209.268
205.1053, 1259.019
205.5874, 1304.769
206.0695, 1347.541
206.5516, 1386.896
207.0337, 1424.424
207.5159, 1459.719
207.9980, 1490.147
208.4801, 1528.740
208.9622, 1580.980
209.4443, 1642.528
209.9264, 1692.395
210.4086, 1728.026
210.8907, 1755.907
211.3728, 1779.767
211.8549, 1798.926
212.3370, 1820.015
212.8191, 1844.875
213.3013, 1871.714
213.7834, 1893.944
214.2655, 1913.689
214.7476, 1928.247
215.2297, 1933.534
215.7118, 1925.149
216.1940, 1917.016
216.6761, 1912.051
217.1582, 1910.266
217.6403, 1906.066
218.1224, 1895.740
218.6045, 1887.935
219.0867, 1893.187
219.5688, 1919.672
220.0509, 1938.430
220.5330, 1942.571
221.0151, 1932.257
221.4972, 1920.074
221.9794, 1904.156
222.4615, 1887.513
222.9436, 1874.673
223.4257, 1870.194
223.9078, 1859.881
224.3899, 1839.524
224.8721, 1807.904
225.3542, 1779.636
225.8363, 1756.108
226.3184, 1733.834
226.8005, 1708.787
227.2827, 1682.238
227.7648, 1652.449
228.2469, 1619.906
228.7290, 1585.158
229.2111, 1536.183
229.6932, 1466.244
230.1754, 1389.238
230.6575, 1322.092
231.1396, 1268.886
231.6217, 1220.240
232.1038, 1175.253
232.5859, 1135.445
233.0681, 1088.222
233.5502, 1030.240
234.0323, 967.0291
234.5144, 904.7920
234.9965, 838.8477
235.4786, 783.0675
235.9608, 743.4025
236.4429, 723.4089
236.9250, 701.7595
237.4071, 679.3879
237.8892, 655.8574
238.3713, 629.5830
238.8535, 596.8149
239.3356, 565.2454
239.8177, 537.9229
240.2998, 516.0977
240.7819, 495.2249
241.2640, 474.5908
241.7462, 454.3127
242.2283, 435.3870
242.7104, 420.4724
243.1925, 403.0508
243.6746, 379.4595
244.1567, 345.2944
244.6389, 318.7185
245.1210, 302.1929
245.6031, 292.0382
246.0852, 282.0367
246.5673, 271.9978
247.0494, 261.8865
247.5316, 252.6995
248.0137, 246.9032
248.4958, 234.7308
248.9779, 210.9154
249.4600, 181.8801
249.9421, 161.8472
250.4243, 154.9546
250.9064, 149.5615
251.3885, 140.8539
251.8706, 126.3538
252.3527, 117.9530
252.8348, 118.6665
253.3170, 123.0804
253.7991, 120.8033
254.2812, 108.7108
254.7633, 96.22119
255.2454, 87.10632
255.7275, 83.06079
256.2097, 77.08191
256.6918, 68.23572
257.1739, 57.97278
257.6560, 48.89429
258.1381, 40.76672
258.6202, 33.24133
259.1024, 25.49780
259.5845, 16.50317
260.0666, 13.62927
260.5487, 20.41943
261.0308, 30.68616
261.5129, 32.02283
261.9951, 20.11707
262.4772, 8.447144
262.9593, 2.521851
263.4414, 3.276611
263.9235, 6.079468
264.4056, 12.54126
264.8878, 19.56665
265.3699, 22.08887
265.8520, 19.93152
266.3341, 13.37671
266.8162, 1.3428000E-02
267.2983, 22.33398
267.7805, 34.40759
268.2626, 32.46594
268.7447, 24.72937
269.2268, 27.17517
269.7089, 43.79578
270.1910, 55.10181
270.6732, 50.22205
271.1553, 26.45178
271.6374, 16.70764
272.1195, 25.22852
272.6016, 41.23303
273.0837, 46.44080
273.5659, 38.73267
274.0480, 30.47034
274.5301, 27.06873
275.0122, 28.99939
275.4943, 30.17017
275.9764, 30.99939
276.4586, 30.00745
276.9407, 23.48401
277.4228, 10.52795
277.9049, 0.1152340
278.3870, 3.302612
278.8691, 0.5123290
279.3513, 1.232422
279.8334, 10.32324
280.3155, 20.28381
280.7976, 21.54797
281.2798, 13.79688
281.7619, 5.328247
282.2440, 1.451172
282.7261, 6.456909
283.2082, 8.401855
283.6903, 6.562744
284.1725, 4.628906
284.6546, 9.742920
285.1367, 21.38391
285.6188, 27.10339
286.1009, 19.45605
286.5830, 1.983521
287.0652, 10.66541
287.5473, 18.36121
288.0294, 21.32764
288.5115, 16.79956
288.9936, 5.913086
289.4757, 1.693970
289.9579, 3.029297
290.4400, 1.224243
290.9221, 12.21240
291.4042, 30.73779
291.8863, 46.01086
292.3684, 42.29749
292.8506, 24.43591
293.3327, 13.43408
293.8148, 20.92761
294.2969, 36.33057
294.7790, 36.25793
295.2611, 20.66174
295.7433, 5.335571
296.2254, 6.559937
296.7075, 19.14014
297.1896, 28.19482
297.6717, 27.00330
298.1538, 22.55823
298.6360, 27.13611
299.1181, 39.83777
299.6002, 50.04114
300.0823, 46.16602
300.5644, 34.48267
301.0465, 26.99524
301.5287, 28.51831
302.0108, 33.38391
302.4929, 34.68787
302.9750, 33.24902
303.4571, 33.71960
303.9392, 44.92944
304.4214, 58.24536
304.9035, 60.14783
305.3856, 39.16394
305.8677, 19.35022
306.3498, 27.68958
306.8319, 56.84961
307.3141, 81.16943
307.7962, 82.93823
308.2783, 73.42920
308.7604, 62.28064
309.2425, 49.26538
309.7246, 40.55066
310.2068, 41.96838
310.6889, 51.03088
311.1710, 61.13379
311.6531, 75.22388
312.1352, 85.42957
312.6173, 83.89026
313.0995, 65.14197
313.5816, 47.54822
314.0637, 37.35632
314.5458, 34.28357
315.0279, 37.60779
315.5100, 57.41028
315.9922, 75.69543
316.4743, 81.52759
316.9564, 70.79248
317.4385, 59.52539
317.9206, 49.42847
318.4027, 42.83545
318.8849, 42.96863
319.3670, 57.36401
319.8491, 72.81006
320.3312, 85.40930
320.8133, 95.20618
321.2954, 100.2031
321.7776, 95.60291
322.2597, 87.69214
322.7418, 83.18237
323.2239, 89.48364
323.7060, 93.04163
324.1881, 88.61072
324.6703, 75.00464
325.1524, 65.69641
325.6345, 67.35413
326.1166, 71.67639
326.5987, 71.67358
327.0808, 57.56555
327.5630, 48.95325
328.0451, 50.34290
328.5272, 62.04968
329.0093, 74.45593
329.4914, 92.36914
329.9735, 104.1532
330.4557, 100.8221
330.9378, 68.20935
331.4199, 47.42444
331.9020, 44.88733
332.3841, 56.87964
332.8662, 66.79419
333.3484, 76.09534
333.8305, 81.04871
334.3126, 78.56775
334.7947, 65.51624
335.2768, 56.29797
335.7589, 51.83777
336.2411, 50.87219
336.7232, 51.32715
337.2053, 54.05713
337.6874, 57.17334
338.1695, 59.93726
338.6516, 62.52002
339.1338, 61.92151
339.6159, 56.59473
340.0980, 49.72180
340.5801, 46.93433
341.0622, 48.66406
341.5443, 52.41406
342.0265, 58.89172
342.5086, 66.93945
342.9907, 68.68896
343.4728, 63.59290
343.9549, 56.64880
344.4370, 53.01208
344.9192, 52.18701
345.4013, 53.10400
345.8834, 56.39758
346.3655, 60.57495
346.8476, 61.40820
347.3297, 58.82861
347.8119, 55.61719
348.2940, 55.91650
348.7761, 58.24219
349.2582, 56.51208
349.7403, 44.24548
350.2225, 31.08081
350.7046, 33.65173
351.1867, 49.82092
351.6688, 64.98694
352.1509, 66.23376
352.6331, 59.74438
353.1152, 55.46997
353.5973, 57.60950
354.0794, 58.74341
354.5615, 47.49780
355.0436, 28.51526
355.5258, 16.34546
356.0079, 26.05078
356.4900, 42.45215
356.9721, 51.82971
357.4542, 50.10278
357.9363, 46.99634
358.4185, 47.45654
358.9006, 50.14026
359.3827, 52.95215
359.8648, 55.37109
360.3469, 57.43872
360.8290, 59.78137
361.3112, 62.91040
361.7933, 63.58459
362.2754, 58.54358
362.7575, 51.05554
363.2396, 44.47668
363.7217, 39.36084
364.2039, 35.93225
364.6860, 33.00000
365.1681, 29.97180
365.6502, 32.95032
366.1323, 53.28943
366.6144, 73.38989
367.0966, 80.92615
367.5787, 59.42212
368.0608, 45.40356
368.5429, 46.64270
369.0250, 58.97388
369.5071, 60.84741
369.9893, 44.96277
370.4714, 26.88477
370.9535, 13.52295
371.4356, 4.939331
371.9177, 0.8035890
372.3998, 2.431763
372.8820, 8.070801
373.3641, 14.45862
373.8462, 21.09814
374.3283, 28.70239
374.8104, 39.06030
375.2925, 53.10388
375.7747, 57.75586
376.2568, 50.90283
376.7389, 39.30969
377.2210, 32.36279
377.7031, 30.33606
378.1852, 27.41089
378.6674, 19.71362
379.1495, 9.709717
379.6316, 10.46960
380.1137, 23.19580
380.5958, 35.36609
381.0779, 32.37866
381.5601, 17.54846
382.0422, 7.740967
382.5243, 7.568726
383.0064, 12.62891
383.4885, 17.08667
383.9706, 20.91357
384.4528, 23.10632
384.9349, 20.73474
385.4170, 16.71045
385.8991, 16.94080
386.3812, 24.04211
386.8633, 30.40894
387.3455, 25.52124
387.8276, 14.17529
388.3097, 7.519287
388.7918, 15.92542
389.2739, 27.94519
389.7560, 34.68665
390.2382, 35.34729
390.7203, 35.11670
391.2024, 38.76184
391.6845, 42.26428
392.1666, 41.10376
392.6487, 24.83765
393.1309, 11.84766
393.6130, 12.46863
394.0951, 25.42737
394.5772, 34.64648
395.0593, 33.01160
395.5414, 28.31641
396.0236, 25.41492
396.5057, 26.94336
396.9878, 27.90466
397.4699, 26.41919
397.9520, 23.78540
398.4341, 24.24170
398.9163, 31.11768
399.3984, 37.79041
399.8805, 42.04810
400.3626, 43.69934
400.8447, 43.38953
401.3268, 40.80286
401.8090, 36.42432
402.2911, 30.21863
402.7732, 20.32654
403.2553, 13.80103
403.7374, 13.78345
404.2195, 20.05591
404.7017, 23.66101
405.1838, 23.29114
405.6659, 21.78369
406.1480, 21.63623
406.6301, 22.91016
407.1122, 21.84644
407.5944, 16.68286
408.0765, 9.669678
408.5586, 6.739136
409.0407, 7.959717
409.5228, 10.36194
410.0049, 10.68701
410.4871, 10.58435
410.9692, 16.39990
411.4513, 30.46118
411.9334, 43.85608
412.4155, 44.02173
412.8976, 34.77808
413.3798, 27.51514
413.8619, 29.77393
414.3440, 35.75757
414.8261, 39.77515
415.3082, 41.61096
415.7903, 42.18982
416.2725, 40.34106
416.7546, 38.32751
417.2367, 38.77344
417.7188, 44.96960
418.2009, 51.02148
418.6830, 56.54749
419.1652, 60.33813
419.6473, 57.67786
420.1294, 36.04260
420.6115, 15.60962
421.0937, 8.784546
421.5758, 26.98242
422.0579, 37.87292
422.5400, 31.20740
423.0221, 16.02991
423.5042, 7.093750
423.9864, 7.525269
424.4685, 11.44836
424.9506, 19.52246
425.4327, 32.36218
425.9148, 39.49744
426.3969, 38.58655
426.8791, 34.71533
427.3612, 32.86987
427.8433, 35.28601
428.3254, 31.51929
428.8075, 16.12012
429.2896, 4.465576
429.7718, 7.317505
430.2539, 11.57605
430.7360, 30.17456
431.2181, 33.17249
431.7002, 21.87012
432.1823, 15.83838
432.6645, 16.69324
433.1466, 20.61780
433.6287, 23.81299
434.1108, 25.99304
434.5929, 25.50684
435.0750, 18.92651
435.5572, 10.41956
436.0393, 7.675049
436.5214, 10.45361
437.0035, 14.72253
437.4856, 19.50781
437.9677, 23.51807
438.4499, 23.65015
438.9320, 15.89001
439.4141, 9.678711
439.8962, 13.98987
440.3783, 25.44922
440.8604, 35.27563
441.3426, 41.42175
441.8247, 43.22705
442.3068, 38.74915
442.7889, 26.01257
443.2710, 15.44836
443.7531, 8.041138
444.2353, 5.029907
444.7174, 7.633179
445.1995, 26.48328
445.6816, 39.34119
446.1637, 39.67456
446.6458, 29.00305
447.1280, 22.36499
447.6101, 22.62622
448.0922, 23.67041
448.5743, 21.12964
449.0564, 10.37708
449.5385, 9.564453
450.0207, 23.81274
450.5028, 43.90100
450.9849, 51.62476
451.4670, 45.07898
451.9491, 36.04944
452.4312, 26.63599
452.9134, 17.90906
453.3955, 21.32080
453.8776, 38.81946
454.3597, 54.53271
454.8418, 47.75159
455.3239, 24.39441
455.8061, 10.13672
456.2882, 14.05713
456.7703, 24.31104
457.2524, 23.35742
457.7345, 13.62805
458.2166, 4.983887
458.6988, 5.237793
459.1809, 8.715698
459.6630, 9.527710
460.1451, 7.078491
460.6272, 2.746826
461.1093, 7.478027
461.5915, 17.29492
462.0736, 18.69336
462.5557, 2.437134
463.0378, 21.12781
463.5199, 25.25647
464.0020, 16.89014
464.4842, 12.58875
464.9663, 17.60559
465.4484, 26.21008
465.9305, 36.24915
466.4126, 55.74475
466.8947, 62.16858
467.3769, 46.68933
467.8590, 22.02832
468.3411, 9.361816
468.8232, 14.81531
469.3053, 20.41699
469.7874, 21.67786
470.2696, 18.80066
470.7517, 14.78369
471.2338, 8.879028
471.7159, 4.994019
472.1980, 7.401367
472.6801, 15.41736
473.1623, 19.03882
473.6444, 16.11511
474.1265, 10.34753
474.6086, 6.606812
475.0907, 5.271118
475.5728, 7.541260
476.0550, 18.58350
476.5371, 32.57471
477.0192, 38.95752
477.5013, 37.34412
477.9834, 34.81250
478.4655, 38.71997
478.9477, 44.38721
479.4298, 45.43286
479.9119, 35.59802
480.3940, 26.80847
480.8761, 25.88989
481.3582, 30.23987
481.8404, 33.75928
482.3225, 35.42175
482.8046, 36.03943
483.2867, 35.96875
483.7688, 35.23608
484.2509, 33.83691
484.7331, 33.90649
485.2152, 32.17993
485.6973, 24.47046
486.1794, 0.9108890
486.6615, 11.23962
487.1436, 3.250977
487.6258, 36.14600
488.1079, 58.76147
488.5900, 70.94678
489.0721, 73.16675
489.5542, 61.04224
490.0363, 34.32935
490.5185, 18.07617
491.0006, 13.92822
491.4827, 17.30933
491.9648, 26.07788
492.4470, 38.68750
492.9291, 46.43921
493.4112, 45.55078
493.8933, 38.71997
494.3754, 25.34399
494.8575, 7.423340
495.3397, 2.300293
495.8218, 14.12524
496.3039, 36.67261
496.7860, 42.33008
497.2681, 23.41553
497.7502, 5.753906
498.2324, 4.719238
498.7145, 12.68311
499.1966, 19.28760
499.6787, 15.49536
500.1608, 15.90796
500.6429, 31.27563
501.1251, 59.79370
501.6072, 72.16138
502.0893, 52.42139
502.5714, 28.64844
503.0535, 13.43726
503.5356, 8.520020
504.0178, 8.564209
504.4999, 15.85986
504.9820, 26.03223
505.4641, 32.84399
505.9462, 36.04858
506.4283, 37.15308
506.9105, 36.83838
507.3926, 34.64404
507.8747, 25.59351
508.3568, 8.980225
508.8389, 1.486084
509.3210, 13.07642
509.8032, 41.53613
510.2853, 50.23315
510.7674, 31.20093
511.2495, 8.539063
511.7316, 10.50684
512.2137, 26.94141
512.6959, 37.10815
513.1780, 23.33374
513.6601, 8.000977
514.1422, 8.738281
514.6243, 22.13184
515.1064, 32.12085
515.5886, 33.32300
516.0707, 29.71216
516.5528, 22.61914
517.0349, 7.089111
517.5170, 1.278320
517.9991, 2.078613
518.4813, 12.24365
518.9634, 23.72852
519.4455, 40.11987
519.9276, 51.22363
520.4097, 54.70801
520.8918, 50.94971
521.3740, 46.92285
521.8561, 42.89819
522.3382, 37.70337
522.8203, 28.06055
523.3024, 14.72461
523.7845, 11.80444
524.2667, 22.44116
524.7488, 34.47925
525.2309, 28.72437
525.7130, 11.04199
526.1951, 2.611328
526.6772, 19.54858
527.1594, 40.85254
527.6415, 39.24292
528.1236, 18.88330
528.6057, 3.9551001E-02
529.0878, 7.924805
529.5699, 8.502686
530.0521, 1.609619
530.5342, 15.83301
531.0163, 26.88525
531.4984, 18.17749
531.9805, 3.855225
532.4626, 1.065674
532.9448, 19.23535
533.4269, 32.32617
533.9090, 31.45044
534.3911, 20.39648
534.8732, 14.17212
535.3553, 15.47192
535.8375, 16.45190
536.3196, 13.28711
536.8017, 5.686523
537.2838, 1.033936
537.7659, 7.602295
538.2480, 11.03809
538.7302, 6.231689
539.2123, 5.577637
539.6944, 15.55054
540.1765, 22.00659
540.6586, 25.38184
541.1407, 26.46826
541.6229, 25.15234
542.1050, 21.12915
542.5871, 10.77856
543.0692, 9.7411998E-02
543.5513, 6.405029
544.0334, 7.878906
544.5156, 6.776611
544.9977, 3.220703
545.4798, 2.404785
545.9619, 10.25293
546.4440, 25.99658
546.9261, 35.88550
547.4083, 33.68066
547.8904, 24.76294
548.3725, 17.84351
548.8546, 10.91626
549.3367, 9.654297
549.8188, 18.86914
550.3010, 36.78882
550.7831, 41.19312
551.2652, 29.14014
551.7473, 13.34985
552.2294, 0.6474610
552.7115, 8.687988
553.1937, 9.503174
553.6758, 0.3208010
554.1579, 12.49609
554.6400, 16.18726
555.1221, 13.93701
555.6042, 12.99219
556.0864, 17.34863
556.5685, 22.79443
557.0506, 24.72021
557.5327, 24.07080
558.0148, 24.30615
558.4969, 28.57739
558.9791, 33.16553
559.4612, 35.26099
559.9433, 33.76587
560.4254, 33.96826
560.9075, 39.70337
561.3896, 45.88892
561.8718, 48.34399
562.3539, 47.20776
562.8360, 41.53101
563.3181, 28.01294
563.8002, 11.49194
564.2823, 4.077393
564.7645, 7.287109
565.2466, 13.15479
565.7287, 19.87549
566.2108, 26.75439
566.6929, 29.80127
567.1750, 29.11157
567.6572, 26.64673
568.1393, 20.06494
568.6214, 13.61792
569.1035, 19.70508
569.5856, 44.87964
570.0677, 63.93555
570.5499, 46.60034
571.0320, 11.42139
571.5141, 12.34131
571.9962, 7.334473
572.4783, 4.514893
572.9604, 19.98511
573.4426, 36.71143
573.9247, 43.86206
574.4068, 28.03857
574.8889, 12.79565
575.3710, 7.220703
575.8531, 13.37402
576.3353, 20.75049
576.8174, 31.50122
577.2995, 40.04370
577.7816, 38.28809
578.2637, 24.49854
578.7458, 20.52344
579.2280, 32.42529
579.7101, 50.15454
580.1922, 55.53906
580.6743, 50.25195
581.1564, 43.75366
581.6385, 38.51758
582.1207, 35.55908
582.6028, 40.02197
583.0849, 50.23877
583.5670, 53.64600
584.0491, 33.16772
584.5313, 9.252686
585.0134, 1.422363
585.4955, 8.322266
585.9776, 16.73950
586.4597, 14.92773
586.9418, 9.848389
587.4240, 10.47021
587.9061, 23.07275
588.3882, 33.32812
588.8703, 40.59106
589.3524, 44.99585
589.8345, 47.17773
590.3167, 47.41870
590.7988, 43.77393
591.2809, 32.02075
591.7630, 14.93042
592.2451, 9.208496
592.7272, 15.28003
593.2094, 22.35010
593.6915, 20.55493
594.1736, 13.55273
594.6557, 7.679932
595.1378, 3.453857
595.6199, 1.818115
596.1021, 6.723633
596.5842, 14.75708
597.0663, 20.56860
597.5485, 15.56128
598.0306, 13.98511
598.5127, 24.17847
598.9948, 42.59717
599.4769, 53.95508
599.9590, 58.05762
600.4412, 54.23560
600.9233, 37.85767
601.4054, 6.770020
601.8875, 4.513672
602.3696, 11.28784
602.8517, 29.92285
603.3339, 25.59888
603.8160, 0.6989750
604.2981, 6.537109
604.7802, 11.69482
605.2623, 35.87036
605.7444, 40.28955
606.2266, 30.27710
606.7087, 19.60059
607.1908, 8.939453
607.6729, 4.042236
608.1550, 14.95142
608.6371, 36.32275
609.1193, 51.22607
609.6014, 47.54980
610.0835, 40.08057
610.5656, 35.81274
611.0477, 36.66870
611.5298, 34.39087
612.0120, 22.80664
612.4941, 12.82739
612.9762, 13.16382
613.4583, 28.28638
613.9404, 37.46167
614.4225, 39.22559
614.9047, 35.86963
615.3868, 28.75024
615.8689, 18.29907
616.3510, 10.80469
616.8331, 8.186523
617.3152, 9.327637
617.7974, 13.58032
618.2795, 20.38062
618.7616, 27.79370
619.2437, 39.21704
619.7258, 47.48706
620.2079, 44.22974
620.6901, 29.23364
621.1722, 18.85327
621.6543, 19.68311
622.1364, 26.33325
622.6185, 36.10474
623.1006, 52.33667
623.5828, 64.00513
624.0649, 71.60254
624.5470, 74.17944
625.0291, 69.49146
625.5112, 56.13330
625.9933, 42.03027
626.4755, 26.46338
626.9576, 13.98706
627.4397, 18.42969
627.9218, 37.39941
628.4039, 52.62915
628.8860, 52.68164
629.3682, 44.15845
629.8503, 36.18408
630.3324, 29.52686
630.8145, 26.77759
631.2966, 33.59717
631.7787, 42.33545
632.2609, 48.26392
632.7430, 51.24805
633.2251, 49.47266
633.7072, 35.84473
634.1893, 21.44238
634.6714, 15.41846
635.1536, 20.56104
635.6357, 28.58960
636.1178, 40.74194
636.5999, 53.48242
637.0820, 60.99268
637.5641, 63.22998
638.0463, 59.03906
638.5284, 44.76196
639.0105, 26.69360
639.4926, 18.38086
639.9747, 18.29102
640.4568, 17.71875
640.9390, 8.020752
641.4211, 2.427979
641.9032, 5.721924
642.3853, 1.317139
642.8674, 5.661377
643.3495, 22.36841
643.8317, 35.33154
644.3138, 33.80322
644.7959, 0.9899900
645.2780, 15.30200
645.7601, 2.112549
646.2422, 30.61426
646.7244, 45.20386
647.2065, 42.48462
647.6886, 37.21436
648.1707, 30.82495
648.6528, 25.04517
649.1349, 24.84888
649.6171, 29.28955
650.0992, 31.70728
650.5813, 26.23120
651.0634, 19.42676
651.5455, 19.12305
652.0276, 23.98682
652.5098, 29.79688
652.9919, 37.83594
653.4740, 43.53638
653.9561, 41.03296
654.4382, 27.17188
654.9203, 19.39966
655.4025, 19.30225
655.8846, 26.28394
656.3667, 41.83521
656.8488, 71.86597
657.3309, 93.13037
657.8130, 105.1250
658.2952, 107.9902
658.7773, 94.42773
659.2594, 66.86450
659.7415, 56.61377
660.2236, 77.07104
660.7057, 111.0713
661.1879, 133.1023
661.6700, 148.4526
662.1521, 171.3286
662.6342, 222.5864
663.1163, 272.5784
663.5984, 298.6394
664.0806, 303.8315
664.5627, 316.4280
665.0448, 346.7700
665.5269, 382.9121
666.0090, 421.4995
666.4911, 463.4280
666.9733, 497.9663
667.4554, 522.7766
667.9375, 544.8320
668.4196, 572.9854
668.9017, 606.7024
669.3839, 624.8811
669.8660, 623.9021
670.3481, 615.4434
670.8302, 606.3843
671.3123, 600.5820
671.7944, 607.8423
672.2766, 639.9238
672.7587, 671.4810
673.2408, 699.5872
673.7229, 713.8447
674.2050, 694.6592
674.6871, 606.0278
675.1693, 516.0796
675.6514, 445.3984
676.1335, 388.9233
676.6156, 317.9602
677.0977, 219.3174
677.5798, 136.5405
678.0620, 91.63770
678.5441, 81.32886
679.0262, 80.43042
679.5083, 89.44507
679.9904, 99.71240
680.4725, 105.0723
680.9547, 106.7361
681.4368, 107.3538
681.9189, 107.4641
682.4010, 104.0151
682.8831, 88.90039
683.3652, 72.13281
683.8474, 64.60889
684.3295, 79.69458
684.8116, 86.67334
685.2937, 72.52271
685.7758, 51.73071
686.2579, 44.35815
686.7401, 57.44727
687.2222, 64.21436
687.7043, 59.03687
688.1864, 47.08789
688.6685, 40.41284
689.1506, 39.67065
689.6328, 36.80371
690.1149, 22.57031
690.5970, 7.642090
691.0791, 11.46094
691.5612, 30.59155
692.0433, 47.29932
692.5255, 53.23291
693.0076, 53.10229
693.4897, 46.50220
693.9718, 32.28833
694.4539, 27.70093
694.9360, 47.45825
695.4182, 65.84985
695.9003, 68.09790
696.3824, 49.61719
696.8645, 36.59766
697.3466, 29.55225
697.8287, 26.66016
698.3109, 27.52271
698.7930, 30.93530
699.2751, 29.57861
699.7572, 20.93677
700.2393, 11.89844
700.7214, 9.578857
701.2036, 11.35864
701.6857, 13.04736
702.1678, 15.40869
702.6499, 14.76758
703.1320, 4.672119
703.6141, 8.664551
704.0963, 13.25366
704.5784, 2.577881
705.0605, 7.746826
705.5426, 15.60156
706.0247, 20.49902
706.5068, 19.15991
706.9890, 10.93726
707.4711, 1.910645
707.9532, 7.037354
708.4353, 13.97119
708.9174, 10.56128
709.3995, 1.962646
709.8817, 11.35767
710.3638, 2.742432
710.8459, 8.612793
711.3280, 7.182861
711.8101, 10.49707
712.2922, 23.99658
712.7744, 23.56470
713.2565, 20.01416
713.7386, 20.84961
714.2207, 28.34302
714.7028, 34.56396
715.1849, 39.79517
715.6671, 43.38574
716.1492, 44.92163
716.6313, 44.35815
717.1134, 40.67285
717.5955, 32.66919
718.0776, 24.85864
718.5598, 23.28076
719.0419, 25.91382
719.5240, 28.67773
720.0061, 26.33594
720.4882, 28.48511
720.9703, 47.33765
721.4525, 73.71216
721.9346, 86.66187
722.4167, 67.82080
722.8988, 56.31714
723.3809, 63.47778
723.8630, 82.96655
724.3452, 87.56714
724.8273, 75.10620
725.3094, 63.33276
725.7915, 61.93262
726.2736, 66.72217
726.7557, 66.94580
727.2379, 63.06104
727.7200, 58.69458
728.2021, 56.05176
728.6842, 54.02832
729.1663, 52.20679
729.6484, 50.58740
730.1306, 47.30469
730.6127, 35.26904
731.0948, 27.07764
731.5769, 30.80933
732.0590, 51.05981
732.5411, 63.89697
733.0233, 67.77588
733.5054, 67.71191
733.9875, 68.13940
734.4696, 68.79468
734.9517, 67.29395
735.4338, 63.07471
735.9160, 58.50635
736.3981, 57.00610
736.8802, 56.39087
737.3623, 53.24414
737.8444, 45.28687
738.3266, 37.33521
738.8087, 29.12451
739.2908, 22.66943
739.7729, 21.30103
740.2551, 29.03052
740.7372, 34.45483
741.2193, 35.78687
741.7014, 34.54468
742.1835, 34.29297
742.6656, 35.05518
743.1478, 33.83276
743.6299, 30.12256
744.1120, 23.34570
744.5941, 6.163818
745.0762, 15.76733
745.5583, 25.38159
746.0405, 3.039795
746.5226, 23.68628
747.0047, 41.59277
747.4868, 51.00269
747.9689, 55.44336
748.4510, 54.72070
748.9332, 49.75854
749.4153, 38.59058
749.8974, 22.30884
750.3795, 13.95483
750.8616, 14.21533
751.3438, 17.08154
751.8259, 22.40259
752.3080, 26.80420
752.7901, 18.15869
753.2722, 2.785400
753.7543, 17.84668
754.2365, 10.48169
754.7186, 4.704102
755.2007, 17.61353
755.6828, 27.76978
756.1649, 31.73804
756.6470, 24.09717
757.1292, 14.44971
757.6113, 7.064697
758.0934, 0.1867680
758.5755, 5.876953
759.0576, 27.67114
759.5397, 50.43823
760.0219, 56.32617
760.5040, 50.21631
760.9861, 49.11353
761.4682, 54.78198
761.9503, 57.70605
762.4324, 46.98584
762.9146, 30.74292
763.3967, 18.61499
763.8788, 11.97754
764.3609, 11.29761
764.8430, 24.96216
765.3251, 39.92871
765.8073, 38.37500
766.2894, 13.15234
766.7715, 1.944580
767.2536, 14.52368
767.7357, 35.07861
768.2178, 37.23120
768.7000, 24.23071
769.1821, 11.94312
769.6642, 3.870850
770.1463, 1.005371
770.6284, 8.620605
771.1105, 21.80151
771.5927, 31.04712
772.0748, 29.48364
772.5569, 28.25366
773.0390, 30.51758
773.5211, 34.81226
774.0032, 37.60254
774.4854, 38.90820
774.9675, 38.77002
775.4496, 37.71875
775.9317, 34.77417
776.4138, 22.00024
776.8959, 2.828857
777.3781, 4.689697
777.8602, 24.50977
778.3423, 56.83643
778.8244, 59.11304
779.3065, 38.57593
779.7886, 27.07031
780.2708, 48.81055
780.7529, 65.54639
781.2350, 61.50562
781.7171, 39.76904
782.1992, 29.36279
782.6813, 31.72583
783.1635, 40.14062
783.6456, 55.66602
784.1277, 73.93359
784.6098, 78.68115
785.0919, 71.14893
785.5740, 63.99414
786.0562, 68.63965
786.5383, 74.76562
787.0204, 72.95630
787.5025, 62.68018
787.9846, 52.92969
788.4667, 43.27539
788.9489, 37.29614
789.4310, 37.86304
789.9131, 45.55249
790.3952, 47.68848
790.8773, 42.97021
791.3594, 38.63354
791.8416, 42.84717
792.3237, 51.24927
792.8058, 51.19067
793.2879, 42.18262
793.7700, 32.12256
794.2521, 25.32690
794.7343, 20.57666
795.2164, 15.93433
795.6985, 9.575684
796.1806, 11.36108
796.6627, 29.31616
797.1448, 47.57886
797.6270, 56.07617
798.1091, 54.00244
798.5912, 47.45337
799.0733, 35.59595
799.5554, 23.74219
800.0375, 16.91748
800.5197, 13.86108
801.0018, 12.42554
801.4839, 12.41455
801.9660, 13.35669
802.4481, 14.02417
802.9302, 15.13940
803.4124, 18.94189
803.8945, 31.29614
804.3766, 40.47900
804.8587, 46.27148
805.3408, 48.94702
805.8229, 47.01465
806.3051, 40.52930
806.7872, 37.14673
807.2693, 38.07910
807.7514, 38.61548
808.2335, 31.87695
808.7156, 22.25854
809.1978, 15.96436
809.6799, 13.81299
810.1620, 16.64014
810.6441, 32.58496
811.1262, 49.08325
811.6083, 52.30005
812.0905, 34.33911
812.5726, 26.21191
813.0547, 30.22510
813.5368, 39.22437
814.0189, 46.89355
814.5010, 52.41284
814.9832, 51.87402
815.4653, 44.25879
815.9474, 37.37036
816.4295, 44.87769
816.9116, 55.20605
817.3937, 50.68042
817.8759, 9.133545
818.3580, 13.69971
818.8401, 10.03198
819.3222, 48.05054
819.8043, 71.12158
820.2864, 76.54541
820.7686, 78.47729
821.2507, 76.90601
821.7328, 75.74097
822.2149, 81.70288
822.6970, 92.03320
823.1791, 98.17993
823.6613, 96.17065
824.1434, 98.31543
824.6255, 118.5691
825.1076, 144.7769
825.5897, 163.1895
826.0718, 163.6880
826.5540, 167.3457
827.0361, 175.0356
827.5182, 186.3474
828.0003, 202.7678
828.4824, 224.0454
828.9645, 239.0125
829.4467, 244.0769
829.9288, 250.5122
830.4109, 273.5923
830.8930, 305.6829
831.3751, 334.7864
831.8572, 353.0706
832.3394, 377.4104
832.8215, 421.5808
833.3036, 471.1096
833.7857, 509.1199
834.2678, 528.4680
834.7499, 556.5850
835.2321, 597.0898
835.7142, 641.4009
836.1963, 686.2415
836.6784, 726.5361
837.1605, 740.3816
837.6426, 721.0916
838.1248, 686.2544
838.6069, 646.5601
839.0890, 600.3823
839.5711, 546.0588
840.0532, 475.4072
840.5353, 406.8289
841.0175, 339.1753
841.4996, 277.9546
841.9817, 230.0667
842.4638, 195.6001
842.9459, 166.5645
843.4280, 142.3987
843.9102, 122.9114
844.3923, 110.8096
844.8744, 102.1362
845.3565, 89.48535
845.8386, 68.79614
846.3207, 53.58301
846.8029, 50.99878
847.2850, 55.39331
847.7671, 62.84570
848.2492, 78.41504
848.7313, 80.90845
849.2134, 66.15479
849.6956, 49.14136
850.1777, 48.09131
850.6598, 57.41992
851.1419, 55.34229
851.6240, 38.01636
852.1061, 22.35645
852.5883, 21.97144
853.0704, 28.68652
853.5525, 35.65210
854.0346, 42.56836
854.5167, 47.10645
854.9988, 49.99048
855.4810, 49.61499
855.9631, 43.51245
856.4452, 31.49854
856.9273, 26.23853
857.4094, 28.30322
857.8915, 33.34375
858.3737, 41.37354
858.8558, 48.14453
859.3379, 47.85010
859.8200, 39.55176
860.3021, 28.00464
860.7842, 3.657227
861.2664, 12.86035
861.7485, 6.185303
862.2306, 27.88477
862.7127, 40.19434
863.1948, 26.35034
863.6769, 10.56738
864.1591, 11.33374
864.6412, 22.63379
865.1233, 28.90308
865.6054, 30.40576
866.0875, 36.49341
866.5696, 64.15332
867.0518, 88.78003
867.5339, 91.25488
868.0160, 69.09448
868.4981, 57.20361
868.9802, 62.40479
869.4623, 63.49951
869.9445, 47.55640
870.4266, 19.54175
870.9087, 0.9196780
871.3908, 8.564697
871.8729, 9.760742
872.3550, 6.668213
872.8372, 23.03564
873.3193, 21.60352
873.8014, 5.388184
874.2835, 6.677002
874.7656, 11.70166
875.2477, 9.647949
875.7299, 3.522461
876.2120, 22.26294
876.6941, 27.88232
877.1762, 19.66553
877.6583, 11.97095
878.1404, 12.48657
878.6226, 15.31445
879.1047, 9.723633
879.5869, 0.1120610
880.0690, 2.331055
880.5511, 15.89722
881.0332, 31.25488
881.5153, 38.23120
881.9974, 37.51392
882.4796, 26.78735
882.9617, 2.228760
883.4438, 9.344482
883.9259, 1.809570
884.4080, 21.88062
884.8901, 31.90234
885.3723, 33.46021
885.8544, 29.72192
886.3365, 17.52466
886.8186, 7.227783
887.3007, 5.702637
887.7828, 7.902344
888.2650, 6.186768
888.7471, 3.116455
889.2292, 6.646240
889.7113, 2.723877
890.1934, 5.921387
890.6755, 20.83789
891.1577, 37.68213
891.6398, 40.59058
892.1219, 23.54272
892.6040, 8.250244
893.0861, 14.56519
893.5682, 27.06885
894.0504, 30.76270
894.5325, 18.62158
895.0146, 10.55298
895.4967, 8.448486
895.9788, 6.927002
896.4609, 1.590332
896.9431, 14.57056
897.4252, 13.57178
897.9073, 2.549561
898.3894, 19.57861
898.8715, 30.78394
899.3536, 35.63062
899.8358, 31.57349
900.3179, 17.52808
900.8000, 7.217041
901.2821, 2.655029
901.7642, 1.012451
902.2463, 1.107422
902.7285, 3.004883
903.2106, 9.662354
903.6927, 20.69800
904.1748, 27.12305
904.6569, 17.18726
905.1390, 4.701416
905.6212, 3.400879
906.1033, 11.91284
906.5854, 23.02856
907.0675, 43.57690
907.5496, 55.13257
908.0317, 49.16064
908.5139, 32.96362
908.9960, 29.83130
909.4781, 39.87280
909.9602, 50.97461
910.4423, 60.79492
910.9244, 64.10327
911.4066, 45.40308
911.8887, 16.71948
912.3708, 0.0000000E+00
912.8529, 14.41602
913.3350, 26.84229
913.8171, 31.95190
914.2993, 31.80078
914.7814, 26.92261
915.2635, 16.61865
915.7456, 11.51221
916.2277, 13.14673
916.7098, 20.10913
917.1920, 37.11084
917.6741, 55.85522
918.1562, 62.78394
918.6383, 51.72559
919.1204, 40.35156
919.6025, 36.43433
920.0847, 33.95410
920.5668, 26.85962
921.0489, 13.31958
921.5310, 9.076904
922.0131, 14.81323
922.4952, 24.11914
922.9774, 32.40527
923.4595, 40.65527
923.9416, 53.83203
924.4237, 71.03809
924.9058, 77.67944
925.3879, 55.32178
925.8701, 33.98901
926.3522, 24.71460
926.8343, 27.09424
927.3164, 41.33350
927.7985, 69.61426
928.2806, 90.21289
928.7628, 89.56006
929.2449, 77.93066
929.7270, 71.67969
930.2091, 69.70581
930.6912, 65.91699
931.1733, 55.53101
931.6555, 45.86768
932.1376, 35.61987
932.6197, 28.54761
933.1018, 34.33423
933.5839, 56.62964
934.0660, 67.74219
934.5482, 60.24097
935.0303, 47.99658
935.5124, 52.30322
935.9945, 63.54175
936.4766, 62.84155
936.9587, 38.31201
937.4409, 22.46582
937.9230, 34.54321
938.4051, 53.26050
938.8872, 60.76562
939.3693, 53.99707
939.8514, 55.15234
940.3336, 65.01831
940.8157, 77.06396
941.2978, 88.16357
941.7799, 97.49170
942.2620, 101.4792
942.7441, 99.85889
943.2263, 93.92676
943.7084, 76.60840
944.1905, 63.55884
944.6726, 62.56104
945.1547, 71.35278
945.6368, 75.06250
946.1190, 73.04639
946.6011, 69.92480
947.0832, 66.68311
947.5653, 65.76685
948.0474, 73.36597
948.5295, 85.40771
949.0117, 91.34717
949.4938, 81.64795
949.9759, 73.45825
950.4580, 70.48169
950.9401, 70.24927
951.4222, 69.85034
951.9044, 69.34692
952.3865, 64.53979
952.8686, 53.75732
953.3507, 43.29468
953.8328, 38.12207
954.3149, 37.82666
954.7971, 43.83154
955.2792, 61.69727
955.7613, 70.44751
956.2434, 58.65259
956.7255, 45.53101
957.2076, 43.04492
957.6898, 50.82275
958.1719, 58.49683
958.6540, 66.02246
959.1361, 73.44775
959.6182, 85.63721
960.1003, 94.55103
960.5825, 92.17261
961.0646, 79.50342
961.5467, 63.17188
962.0288, 35.77393
962.5109, 18.33911
962.9930, 17.59399
963.4752, 28.50928
963.9573, 42.52832
964.4394, 58.19214
964.9215, 67.63989
965.4036, 69.15942
965.8857, 62.21411
966.3679, 32.27344
966.8500, 0.4306640
967.3321, 8.233887
967.8142, 37.31567
968.2963, 61.71118
968.7784, 58.92261
969.2606, 46.10522
969.7427, 40.40405
970.2248, 38.91113
970.7069, 29.41235
971.1890, 10.94165
971.6711, 0.9021000
972.1533, 8.197754
972.6354, 24.11279
973.1175, 40.15234
973.5996, 55.53638
974.0817, 63.15186
974.5638, 63.13379
975.0460, 53.85254
975.5281, 28.23657
976.0102, 1.249268
976.4923, 5.670654
976.9744, 8.561523
977.4565, 22.60791
977.9387, 27.64673
978.4208, 31.81006
978.9029, 38.74756
979.3850, 45.94727
979.8671, 50.79346
980.3492, 53.81274
980.8314, 49.26685
981.3135, 34.71436
981.7956, 20.70703
982.2777, 20.23145
982.7598, 26.93750
983.2419, 31.99487
983.7241, 33.91626
984.2062, 35.67798
984.6883, 38.54663
985.1704, 41.05688
985.6525, 42.86304
986.1346, 43.85254
986.6168, 42.18481
987.0989, 37.95776
987.5810, 34.18335
988.0631, 31.66138
988.5452, 31.16162
989.0273, 36.76440
989.5095, 44.86572
989.9916, 45.97388
990.4737, 32.16357
990.9558, 19.97778
991.4379, 8.861084
991.9200, 3.780518
992.4022, 19.54932
992.8843, 49.46045
993.3664, 63.78271
993.8485, 55.31470
994.3306, 41.13501
994.8127, 27.12671
995.2949, 16.55762
995.7770, 14.53052
996.2591, 23.21631
996.7412, 23.00757
997.2233, 11.16553
997.7054, 0.3742680
998.1876, 0.2104490
998.6697, 5.074951
999.1518, 7.537109
999.6339, 7.398438
1000.116, 5.673340
1000.598, 0.5861820
1001.080, 3.417236
1001.562, 4.300049
1002.044, 3.406738
1002.527, 3.911133
1003.009, 6.258301
1003.491, 1.932617
1003.973, 12.65332
1004.455, 25.12280
1004.937, 16.74463
1005.419, 0.3544920
1005.901, 7.941162
1006.384, 4.086914
1006.866, 3.280518
1007.348, 17.03516
1007.830, 27.71802
1008.312, 28.96216
1008.794, 22.39893
1009.276, 15.11743
1009.758, 7.953369
1010.240, 7.464111
1010.723, 29.95435
1011.205, 48.02051
1011.687, 38.01221
1012.169, 10.67896
1012.651, 3.585938
1013.133, 0.8134770
1013.615, 3.427246
1014.097, 0.8308110
1014.580, 3.449219
1015.062, 5.209229
1015.544, 4.918213
1016.026, 3.119141
1016.508, 0.3425290
1016.990, 3.689697
1017.472, 5.675293
1017.954, 7.901123
1018.436, 11.97925
1018.919, 17.62720
1019.401, 19.28491
1019.883, 16.94458
1020.365, 12.97070
1020.847, 5.418945
1021.329, 0.3669430
1021.811, 1.812256
1022.293, 2.877930
1022.776, 18.70093
1023.258, 60.98682
1023.740, 90.22827
1024.222, 100.5754
1024.704, 100.2441
1025.186, 96.68433
1025.668, 91.71582
1026.150, 86.25757
1026.632, 80.05664
1027.115, 79.21216
1027.597, 90.98315
1028.079, 106.3940
1028.561, 118.4524
1029.043, 127.8103
1029.525, 146.6057
1030.007, 175.6218
1030.489, 203.1216
1030.972, 227.3403
1031.454, 242.9958
1031.936, 238.1562
1032.418, 220.9653
1032.900, 206.0574
1033.382, 203.2917
1033.864, 197.8660
1034.346, 183.6399
1034.828, 172.3555
1035.311, 177.9465
1035.793, 199.3398
1036.275, 221.0312
1036.757, 242.5732
1037.239, 263.5530
1037.721, 279.5657
1038.203, 298.2625
1038.685, 324.1875
1039.167, 357.5251
1039.650, 395.0020
1040.132, 431.4077
1040.614, 491.8301
1041.096, 577.7820
1041.578, 701.4009
1042.060, 843.2153
1042.542, 1043.151
1043.024, 1371.648
1043.507, 1791.457
1043.989, 2463.903
1044.471, 3473.439
1044.953, 4676.512
1045.435, 6042.534
1045.917, 7545.708
1046.399, 8897.682
1046.881, 10095.11
1047.364, 11295.27
1047.846, 12535.44
1048.328, 13878.50
1048.810, 15428.21
1049.292, 17129.50
1049.774, 18727.11
1050.256, 20171.27
1050.738, 21623.19
1051.220, 23011.93
1051.703, 24694.94
1052.185, 27588.66
1052.667, 30946.46
1053.149, 33839.30
1053.631, 36509.16
1054.113, 36597.58
1054.595, 31870.89
1055.077, 26192.45
1055.559, 21169.65
1056.042, 16843.44
1056.524, 13308.85
1057.006, 10522.83
1057.488, 8132.854
1057.970, 5905.052
1058.452, 4057.488
1058.934, 2764.407
1059.416, 1926.790
1059.899, 1352.206
1060.381, 1080.875
1060.863, 873.5115
1061.345, 716.7041
1061.827, 597.7854
1062.309, 512.2051
1062.791, 449.1650
1063.273, 396.2173
1063.755, 351.0471
1064.238, 310.0852
1064.720, 274.3901
1065.202, 238.4807
1065.684, 198.0537
1066.166, 158.7812
1066.648, 141.6082
1067.130, 141.8743
1067.612, 135.7639
1068.094, 111.4729
1068.577, 89.38794
1069.059, 85.45435
1069.541, 86.94849
1070.023, 81.52563
1070.505, 66.21533
1070.987, 62.55835
1071.469, 71.22241
1071.951, 74.08252
1072.434, 49.69556
1072.916, 19.17334
1073.398, 8.988770
1073.880, 14.37500
1074.362, 17.04761
1074.844, 8.558105
1075.326, 4.943115
1075.808, 10.22217
1076.291, 17.38623
1076.773, 14.21753
1077.255, 5.141113
1077.737, 4.165283
1078.219, 13.70630
1078.701, 21.76587
1079.183, 15.66162
1079.665, 13.65332
1080.147, 30.83350
1080.630, 60.36499
1081.112, 56.44678
1081.594, 20.45850
1082.076, 4.853271
1082.558, 0.9895020
1083.040, 14.92310
1083.522, 39.41235
1084.004, 61.35889
1084.486, 63.92456
1084.969, 37.01074
1085.451, 14.97900
1085.933, 2.593506
1086.415, 13.07056
1086.897, 11.61182
1087.379, 3.056152
1087.861, 8.745361
1088.343, 20.96777
1088.826, 22.79517
1089.308, 9.750732
1089.790, 24.83228
1090.272, 6.901123
1090.754, 24.36865
1091.236, 41.93335
1091.718, 46.22339
1092.200, 33.90259
1092.682, 2.754883
1093.165, 19.00586
1093.647, 6.065430
1094.129, 15.33521
1094.611, 31.60254
1095.093, 42.04053
1095.575, 39.47437
1096.057, 23.11816
1096.539, 13.69312
1097.022, 20.84937
1097.504, 34.26587
1097.986, 46.14697
1098.468, 56.52686
1098.950, 66.15112
1099.432, 80.25391
1099.914, 76.74487
1100.396, 49.49170
1100.879, 24.67188
1101.361, 24.70654
1101.843, 38.63843
1102.325, 45.72437
1102.807, 47.67749
1103.289, 51.53101
1103.771, 69.86182
1104.253, 75.61816
1104.735, 59.13696
1105.218, 35.60449
1105.700, 28.10913
1106.182, 32.69897
1106.664, 29.20386
1107.146, 15.22681
1107.628, 4.215820
1108.110, 2.156982
1108.592, 7.941162
1109.074, 28.70044
1109.557, 56.37988
1110.039, 52.18335
1110.521, 15.53931
1111.003, 8.531006
1111.485, 4.112549
1111.967, 8.906982
1112.449, 12.89307
1112.931, 14.51685
1113.414, 23.11743
1113.896, 43.18408
1114.378, 47.91089
1114.860, 33.23096
1115.342, 20.99854
1115.824, 25.00391
1116.306, 37.63403
1116.788, 53.23926
1117.271, 67.15039
1117.753, 69.08862
1118.235, 43.59277
1118.717, 23.13257
1119.199, 8.900635
1119.681, 1.472168
1120.163, 4.061035
1120.645, 13.51929
1121.127, 20.05298
1121.609, 23.77881
1122.092, 29.82349
1122.574, 48.85278
1123.056, 60.20020
1123.538, 54.87036
1124.020, 40.31372
1124.502, 31.47046
1124.984, 27.41113
1125.466, 18.25854
1125.949, 1.149170
1126.431, 10.27124
1126.913, 2.519531
1127.395, 16.86792
1127.877, 10.42700
1128.359, 12.22485
1128.841, 6.639404
1129.323, 29.27002
1129.806, 56.42285
1130.288, 58.39185
1130.770, 50.73999
1131.252, 42.08911
1131.734, 36.68384
1132.216, 41.86182
1132.698, 63.51172
1133.180, 76.41821
1133.662, 79.80981
1134.145, 77.23120
1134.627, 64.44556
1135.109, 51.39453
1135.591, 58.94507
1136.073, 78.82446
1136.555, 89.84497
1137.037, 76.84814
1137.519, 68.46753
1138.001, 67.67578
1138.484, 69.08057
1138.966, 67.97949
1139.448, 64.52881
1139.930, 56.77515
1140.412, 46.00171
1140.894, 40.12817
1141.376, 44.04517
1141.858, 51.76587
1142.341, 63.73364
1142.823, 76.19287
1143.305, 80.88062
1143.787, 79.56396
1144.269, 83.71753
1144.751, 97.54858
1145.233, 100.0034
1145.715, 54.88940
1146.198, 19.33228
1146.680, 29.67383
1147.162, 73.59961
1147.644, 95.66626
1148.126, 99.09668
1148.608, 96.77368
1149.090, 90.45947
1149.572, 85.81128
1150.054, 90.24023
1150.536, 96.12866
1151.019, 94.64502
1151.501, 86.96436
1151.983, 79.58301
1152.465, 71.86523
1152.947, 71.83472
1153.429, 96.63550
1153.911, 116.6216
1154.393, 88.67163
1154.876, 40.74341
1155.358, 24.67578
1155.840, 58.48120
1156.322, 75.85010
1156.804, 73.21460
1157.286, 67.27808
1157.768, 71.03931
1158.250, 79.55811
1158.733, 87.84692
1159.215, 95.52051
1159.697, 102.2463
1160.179, 108.7356
1160.661, 112.9956
1161.143, 115.1719
1161.625, 113.9736
1162.107, 107.4556
1162.589, 96.77051
1163.072, 79.94849
1163.554, 58.06396
1164.036, 49.14136
1164.518, 72.00220
1165.000, 82.89038
1165.482, 67.19043
1165.964, 41.26636
1166.446, 31.44189
1166.928, 35.32056
1167.411, 51.77075
1167.893, 84.22339
1168.375, 104.8809
1168.857, 93.00513
1169.339, 79.44287
1169.821, 78.77637
1170.303, 84.07031
1170.785, 69.49463
1171.268, 43.08521
1171.750, 32.43164
1172.232, 53.51416
1172.714, 71.99512
1173.196, 65.63770
1173.678, 61.50732
1174.160, 81.79150
1174.642, 119.5317
1175.125, 120.6719
1175.607, 91.13965
1176.089, 67.41895
1176.571, 71.79688
1177.053, 79.91992
1177.535, 84.96826
1178.017, 85.76904
1178.499, 79.93213
1178.981, 67.60156
1179.464, 55.68066
1179.946, 44.14990
1180.428, 39.19092
1180.910, 48.54150
1181.392, 61.60596
1181.874, 80.34766
1182.356, 95.22607
1182.838, 88.27295
1183.320, 58.37793
1183.803, 45.97266
1184.285, 54.11816
1184.767, 65.69092
1185.249, 66.56055
1185.731, 66.44287
1186.213, 74.97949
1186.695, 87.78271
1187.177, 87.32812
1187.660, 71.80811
1188.142, 60.53223
1188.624, 56.87305
1189.106, 56.98926
1189.588, 61.07861
1190.070, 64.44287
1190.552, 60.67432
1191.034, 51.97217
1191.516, 55.85107
1191.999, 71.58496
1192.481, 79.81738
1192.963, 75.20312
1193.445, 68.62012
1193.927, 70.60449
1194.409, 76.29443
1194.891, 81.72510
1195.373, 86.58301
1195.855, 87.99170
1196.338, 85.93848
1196.820, 82.00732
1197.302, 77.89795
1197.784, 69.10400
1198.266, 36.34668
1198.748, 3.851074
1199.230, 8.716309
1199.712, 63.17920
1200.195, 92.05811
1200.677, 93.09717
1201.159, 84.39453
1201.641, 70.87256
1202.123, 57.86768
1202.605, 48.83838
1203.087, 46.11865
1203.569, 55.71191
1204.052, 90.49463
1204.534, 92.29932
1205.016, 54.84473
1205.498, 22.91699
1205.980, 37.75781
1206.462, 66.13428
1206.944, 69.23584
1207.426, 56.13916
1207.908, 47.56885
1208.391, 45.46631
1208.873, 48.67773
1209.355, 57.72900
1209.837, 68.67529
1210.319, 82.92285
1210.801, 93.65674
1211.283, 90.72217
1211.765, 76.89746
1212.247, 61.05908
1212.730, 37.37939
1213.212, 36.77930
1213.694, 67.72803
1214.176, 96.63428
1214.658, 83.59424
1215.140, 56.30127
1215.622, 45.68506
1216.104, 50.90576
1216.587, 55.65869
1217.069, 57.74756
1217.551, 63.45752
1218.033, 74.93994
1218.515, 85.45654
1218.997, 89.14258
1219.479, 86.43506
1219.961, 74.86865
1220.443, 55.49268
1220.926, 42.75537
1221.408, 38.58447
1221.890, 35.92090
1222.372, 33.39941
1222.854, 30.96826
1223.336, 30.81592
1223.818, 30.05029
1224.300, 22.87695
1224.782, 7.645020
1225.265, 5.297363
1225.747, 17.11523
1226.229, 17.32031
1226.711, 0.3886720
1227.193, 22.33984
1227.675, 37.01074
1228.157, 43.49951
1228.639, 36.90332
1229.122, 14.93848
1229.604, 7.443848
1230.086, 16.47510
1230.568, 27.13037
1231.050, 36.23486
1231.532, 39.17676
1232.014, 19.00488
1232.496, 4.280273
1232.979, 0.8212890
1233.461, 36.19287
1233.943, 48.49268
1234.425, 33.73682
1234.907, 17.03174
1235.389, 9.306152
1235.871, 6.089844
1236.353, 0.5224610
1236.835, 2.115234
1237.318, 8.937500
1237.800, 38.40137
1238.282, 42.28223
1238.764, 19.16406
1239.246, 1.191895
1239.728, 0.5302730
1240.210, 8.160645
1240.692, 8.108398
1241.175, 5.838379
1241.657, 10.17432
1242.139, 25.41504
1242.621, 26.11816
1243.103, 12.15869
1243.585, 0.5229490
1244.067, 7.348633
1244.549, 4.097656
1245.031, 24.29346
1245.514, 57.66211
1245.996, 66.35205
1246.478, 47.54346
1246.960, 44.11230
1247.442, 55.62988
1247.924, 57.50684
1248.406, 13.60840
1248.888, 21.86523
1249.370, 9.660156
1249.853, 23.91797
1250.335, 45.25146
1250.817, 54.42236
1251.299, 60.12988
1251.781, 62.82812
1252.263, 64.14600
1252.745, 69.48193
1253.227, 68.04590
1253.710, 43.59521
1254.192, 18.84521
1254.674, 30.79980
1255.156, 71.71875
1255.638, 80.31152
1256.120, 56.04785
1256.602, 38.17334
1257.084, 64.10352
1257.567, 78.70947
1258.049, 58.01660
1258.531, 26.39746
1259.013, 20.31934
1259.495, 32.04150
1259.977, 29.51318
1260.459, 12.42529
1260.941, 6.566406
1261.423, 40.11426
1261.906, 63.30469
1262.388, 61.05664
1262.870, 45.97656
1263.352, 44.24365
1263.834, 50.18750
1264.316, 60.69629
1264.798, 74.23145
1265.280, 78.40527
1265.762, 56.11621
1266.245, 44.44287
1266.727, 58.12988
1267.209, 75.99219
1267.691, 64.39697
1268.173, 42.10791
1268.655, 49.08740
1269.137, 85.01465
1269.619, 98.39307
1270.102, 78.26904
1270.584, 59.84668
1271.066, 50.96143
1271.548, 45.88281
1272.030, 38.53320
1272.512, 36.67725
1272.994, 42.60010
1273.476, 55.19629
1273.958, 58.68164
1274.441, 44.72168
1274.923, 35.50195
1275.405, 25.29639
1275.887, 20.51562
1276.369, 34.55615
1276.851, 51.47559
1277.333, 57.66602
1277.815, 53.80176
1278.297, 49.79541
1278.780, 46.17627
1279.262, 40.78711
1279.744, 35.28662
1280.226, 25.68164
1280.708, 7.607422
1281.190, 6.988770
1281.672, 9.581543
1282.154, 0.1474610
1282.637, 26.77344
1283.119, 67.91602
1283.601, 92.78857
1284.083, 93.01172
1284.565, 85.59961
1285.047, 75.17969
1285.529, 62.08789
1286.011, 42.48047
1286.494, 24.79883
1286.976, 41.81738
1287.458, 79.12354
1287.940, 87.39551
1288.422, 53.91699
1288.904, 27.57520
1289.386, 32.55469
1289.868, 39.83252
1290.350, 32.42334
1290.833, 19.51709
1291.315, 32.27051
1291.797, 50.81641
1292.279, 53.71484
1292.761, 34.73047
1293.243, 16.87549
1293.725, 1.908691
1294.207, 0.3896480
1294.689, 23.57373
1295.172, 49.94238
1295.654, 40.03760
1296.136, 14.71289
1296.618, 0.4370120
1297.100, 7.379395
1297.582, 15.41455
1298.064, 17.99365
1298.546, 14.97607
1299.029, 0.0000000E+00
##END=



