##NAMES=Cerussite
##RRUFFID=R050298
##IDEAL CHEMISTRY=PbCO_3_
##LOCALITY=Bunker Hill mine, Shoshone County, Idaho, USA
##OWNER=RRUFF
##SOURCE=Eugene Schlepp
##DESCRIPTION=Group of colorless tabular crystals
##STATUS=The identification of this mineral has been confirmed by X-ray diffraction and chemical analysis
##URL=rruff.info/R050298
##MEASURED CHEMISTRY=Pb_1.00_CO_3_
114.0488, 0.0000000E+00
114.5309, 7.944946
115.0130, 0.4558110
115.4951, 3.427612
115.9772, 1.206360
116.4594, 5.004395
116.9415, 18.43323
117.4236, 47.19928
117.9057, 80.46906
118.3878, 106.6268
118.8699, 115.5350
119.3521, 120.4860
119.8342, 129.2968
120.3163, 142.5934
120.7984, 156.2845
121.2805, 167.0120
121.7626, 176.3586
122.2448, 187.1066
122.7269, 204.0206
123.2090, 221.1672
123.6911, 232.5289
124.1732, 236.9445
124.6553, 237.5449
125.1375, 232.4359
125.6196, 224.5686
126.1017, 223.3447
126.5838, 237.8354
127.0659, 262.1852
127.5480, 286.6554
128.0302, 310.8359
128.5123, 332.9742
128.9944, 347.2782
129.4765, 354.8719
129.9586, 366.4604
130.4407, 393.3412
130.9229, 431.7380
131.4050, 467.0908
131.8871, 496.8890
132.3692, 520.8147
132.8513, 535.7114
133.3334, 538.4695
133.8156, 530.4525
134.2977, 519.3330
134.7798, 510.7850
135.2619, 500.5048
135.7440, 485.0647
136.2261, 467.3300
136.7083, 463.1249
137.1904, 476.5522
137.6725, 490.4709
138.1546, 483.5874
138.6367, 450.7869
139.1188, 426.2576
139.6010, 419.7955
140.0831, 431.3452
140.5652, 443.3942
141.0473, 457.1337
141.5294, 469.9760
142.0115, 477.0918
142.4937, 474.2567
142.9758, 475.7052
143.4579, 487.1102
143.9400, 511.6222
144.4221, 529.3713
144.9042, 534.4662
145.3864, 536.1632
145.8685, 550.4264
146.3506, 583.2256
146.8327, 620.3561
147.3148, 659.0247
147.7969, 704.3475
148.2791, 739.1810
148.7612, 759.6075
149.2433, 770.0532
149.7254, 780.8759
150.2075, 795.6815
150.6896, 807.7500
151.1718, 814.7449
151.6539, 817.9618
152.1360, 814.5701
152.6181, 803.1715
153.1002, 785.0277
153.5823, 763.8926
154.0645, 738.2880
154.5466, 710.8071
155.0287, 682.8638
155.5108, 659.9641
155.9929, 629.5674
156.4750, 583.9161
156.9572, 527.3695
157.4393, 478.8038
157.9214, 445.4020
158.4035, 418.6776
158.8856, 393.2146
159.3677, 363.4037
159.8499, 339.0286
160.3320, 327.1832
160.8141, 325.4596
161.2962, 319.2710
161.7783, 293.7086
162.2604, 266.1605
162.7426, 250.9508
163.2247, 263.8070
163.7068, 279.7655
164.1889, 285.1136
164.6710, 280.8506
165.1531, 282.8507
165.6353, 305.4418
166.1174, 336.1091
166.5995, 361.3936
167.0816, 367.3129
167.5637, 373.0967
168.0458, 393.5913
168.5280, 428.7612
169.0101, 463.3582
169.4922, 485.1237
169.9743, 500.4921
170.4564, 518.3229
170.9385, 544.0106
171.4207, 572.6263
171.9028, 599.4916
172.3849, 628.1085
172.8670, 649.8917
173.3491, 654.3267
173.8312, 647.4600
174.3134, 640.7965
174.7955, 640.8035
175.2776, 643.3251
175.7597, 645.8687
176.2418, 649.1431
176.7239, 645.3956
177.2061, 623.7755
177.6882, 588.6722
178.1703, 552.5779
178.6524, 516.2677
179.1345, 483.6652
179.6166, 465.5537
180.0988, 464.9027
180.5809, 464.8901
181.0630, 444.7563
181.5451, 407.9781
182.0272, 369.4478
182.5093, 335.7217
182.9915, 305.5046
183.4736, 275.5479
183.9557, 244.5607
184.4378, 216.5457
184.9199, 198.7625
185.4020, 190.1354
185.8842, 180.3909
186.3663, 161.6206
186.8484, 136.7398
187.3305, 117.0724
187.8126, 103.4404
188.2947, 94.61243
188.7769, 90.32568
189.2590, 90.33984
189.7411, 89.59851
190.2232, 82.97485
190.7053, 72.02881
191.1874, 67.29370
191.6696, 70.85059
192.1517, 78.39807
192.6338, 81.03503
193.1159, 78.51233
193.5980, 77.79657
194.0801, 84.49744
194.5623, 97.95825
195.0444, 109.0544
195.5265, 116.5823
196.0086, 121.8384
196.4907, 127.3413
196.9728, 133.1002
197.4550, 138.9536
197.9371, 143.6646
198.4192, 147.1378
198.9013, 155.2606
199.3834, 169.4166
199.8655, 187.5211
200.3477, 205.1808
200.8298, 222.4410
201.3119, 238.9008
201.7940, 253.7769
202.2761, 266.7249
202.7582, 281.9565
203.2404, 300.7280
203.7225, 321.4132
204.2046, 339.1451
204.6867, 352.8836
205.1688, 367.1150
205.6509, 384.4854
206.1331, 405.1393
206.6152, 426.6168
207.0973, 449.2291
207.5794, 473.0618
208.0615, 497.9034
208.5436, 524.5737
209.0258, 550.0447
209.5079, 572.1182
209.9900, 590.1072
210.4721, 604.3610
210.9542, 614.3215
211.4363, 621.9194
211.9185, 632.4647
212.4006, 647.3976
212.8827, 661.0676
213.3648, 670.0466
213.8469, 673.7700
214.3290, 676.6289
214.8112, 679.7537
215.2933, 681.5760
215.7754, 676.8060
216.2575, 664.0330
216.7396, 646.8561
217.2217, 626.4205
217.7038, 600.1568
218.1860, 580.2020
218.6681, 570.5086
219.1502, 567.8322
219.6323, 559.0207
220.1144, 541.1804
220.5965, 521.0737
221.0787, 502.9520
221.5608, 487.7288
222.0429, 472.5176
222.5250, 456.5321
223.0071, 440.6085
223.4892, 429.1800
223.9714, 425.3865
224.4535, 421.0005
224.9356, 410.1266
225.4177, 387.1505
225.8998, 371.4448
226.3819, 367.1763
226.8641, 370.4839
227.3462, 368.2743
227.8283, 359.1064
228.3104, 347.0322
228.7925, 333.8224
229.2746, 318.1682
229.7568, 303.2598
230.2389, 288.7178
230.7210, 274.9972
231.2031, 263.9549
231.6852, 255.5922
232.1673, 250.2595
232.6495, 248.8853
233.1316, 255.6451
233.6137, 255.9030
234.0958, 246.9863
234.5779, 232.1091
235.0600, 220.0726
235.5422, 210.6232
236.0243, 204.2109
236.5064, 201.2625
236.9885, 203.1887
237.4706, 205.3909
237.9527, 207.4974
238.4349, 210.0991
238.9170, 215.0917
239.3991, 225.4899
239.8812, 233.5020
240.3633, 235.4155
240.8454, 228.1800
241.3276, 222.7361
241.8097, 220.7784
242.2918, 220.1129
242.7739, 215.0955
243.2560, 200.1688
243.7381, 189.4237
244.2203, 190.0266
244.7024, 209.4732
245.1845, 218.8141
245.6666, 214.2484
246.1487, 201.3797
246.6308, 190.7610
247.1130, 183.9804
247.5951, 176.8559
248.0772, 167.7039
248.5593, 155.4290
249.0414, 144.8633
249.5235, 136.7928
250.0057, 130.0100
250.4878, 122.1871
250.9699, 112.6152
251.4520, 103.1394
251.9341, 94.50760
252.4162, 86.80414
252.8984, 79.21115
253.3805, 71.38150
253.8626, 63.83286
254.3447, 57.66147
254.8268, 53.03937
255.3089, 49.19534
255.7911, 46.90030
256.2732, 46.85507
256.7553, 41.74127
257.2374, 28.47079
257.7195, 13.12659
258.2017, 3.148895
258.6838, 0.3104860
259.1659, 1.168518
259.6480, 0.9177250
260.1301, 6.282806
260.6122, 6.238556
261.0944, 1.688965
261.5765, 11.92838
262.0586, 18.88828
262.5407, 22.27332
263.0228, 22.98950
263.5049, 19.75845
263.9871, 12.90836
264.4692, 11.27057
264.9513, 16.74261
265.4334, 24.38025
265.9155, 30.60486
266.3976, 36.09027
266.8798, 36.91391
267.3619, 30.27112
267.8440, 17.63486
268.3261, 11.85959
268.8082, 15.18698
269.2903, 20.64993
269.7725, 22.24857
270.2546, 18.72104
270.7367, 17.09035
271.2188, 19.23849
271.7009, 23.81592
272.1830, 25.14476
272.6652, 22.67149
273.1473, 18.34578
273.6294, 12.66850
274.1115, 5.016129
274.5936, 5.2551001E-02
275.0757, 2.034622
275.5579, 1.230347
276.0400, 2.553436
276.5221, 10.42422
277.0042, 16.79539
277.4863, 17.54465
277.9684, 12.17654
278.4506, 7.977737
278.9327, 5.504501
279.4148, 4.296402
279.8969, 3.563019
280.3790, 3.369781
280.8611, 3.241669
281.3433, 3.383301
281.8254, 3.786499
282.3075, 2.206619
282.7896, 1.805954
283.2717, 6.944077
283.7538, 11.65062
284.2360, 15.97409
284.7181, 18.75502
285.2002, 18.37161
285.6823, 15.37076
286.1644, 15.16353
286.6465, 18.27873
287.1287, 22.36629
287.6108, 24.83751
288.0929, 25.70407
288.5750, 24.97318
289.0571, 20.83417
289.5392, 15.01726
290.0214, 15.33101
290.5035, 22.27917
290.9856, 31.13075
291.4677, 37.56683
291.9498, 41.75705
292.4319, 44.58958
292.9141, 45.90048
293.3962, 46.27823
293.8783, 47.41302
294.3604, 49.32790
294.8425, 50.50674
295.3246, 48.27925
295.8068, 43.98001
296.2889, 42.44829
296.7710, 45.97369
297.2531, 51.39536
297.7352, 53.45367
298.2173, 52.41449
298.6995, 50.48166
299.1816, 48.40764
299.6637, 46.68761
300.1458, 46.61080
300.6279, 48.78836
301.1100, 51.82677
301.5922, 54.06764
302.0743, 55.67292
302.5564, 57.31537
303.0385, 60.03790
303.5206, 62.82990
304.0027, 63.86953
304.4849, 62.51013
304.9670, 61.12228
305.4491, 62.60456
305.9312, 65.89859
306.4133, 68.44940
306.8954, 67.78149
307.3776, 66.39311
307.8597, 67.30045
308.3418, 70.91153
308.8239, 74.18052
309.3060, 74.53567
309.7881, 73.10969
310.2703, 71.74222
310.7524, 70.61635
311.2345, 70.20407
311.7166, 71.38464
312.1987, 74.08081
312.6808, 76.29259
313.1630, 76.63348
313.6451, 75.98992
314.1272, 75.28700
314.6093, 74.02094
315.0914, 73.57328
315.5735, 74.55167
316.0557, 76.92091
316.5378, 80.50825
317.0199, 88.34324
317.5020, 95.59818
317.9841, 98.39398
318.4662, 92.10136
318.9484, 86.77487
319.4305, 86.00783
319.9126, 88.47012
320.3947, 90.77899
320.8768, 93.00051
321.3589, 94.42738
321.8411, 94.58072
322.3232, 92.40248
322.8053, 90.08949
323.2874, 88.04667
323.7695, 86.01273
324.2516, 83.58937
324.7338, 80.56802
325.2159, 78.33228
325.6980, 77.56770
326.1801, 77.94592
326.6622, 78.43733
327.1443, 79.89494
327.6265, 81.10740
328.1086, 80.92902
328.5907, 78.45647
329.0728, 75.04565
329.5549, 69.93327
330.0370, 63.28899
330.5192, 59.43863
331.0013, 60.03958
331.4834, 62.31369
331.9655, 64.56799
332.4476, 67.22932
332.9297, 68.36531
333.4119, 66.55246
333.8940, 62.61531
334.3761, 61.24516
334.8582, 64.95067
335.3403, 67.87065
335.8224, 66.76456
336.3046, 59.46746
336.7867, 54.13453
337.2688, 51.04323
337.7509, 49.71457
338.2330, 49.40480
338.7151, 50.46088
339.1973, 51.44203
339.6794, 52.11937
340.1615, 52.68106
340.6436, 51.25895
341.1257, 47.10046
341.6078, 42.61171
342.0899, 41.14146
342.5721, 42.81371
343.0542, 45.14191
343.5363, 48.10184
344.0184, 51.11784
344.5005, 50.61216
344.9826, 46.17757
345.4648, 41.31524
345.9469, 39.47273
346.4290, 40.22636
346.9111, 40.69630
347.3932, 40.29630
347.8753, 39.42927
348.3575, 38.63517
348.8396, 37.90281
349.3217, 37.09665
349.8038, 35.39452
350.2859, 33.57263
350.7680, 33.79875
351.2502, 36.59803
351.7323, 40.33910
352.2144, 43.71521
352.6965, 46.61523
353.1786, 48.57581
353.6607, 49.47974
354.1429, 49.25336
354.6250, 47.00817
355.1071, 42.63802
355.5892, 39.38445
356.0713, 41.56024
356.5534, 46.05629
357.0356, 48.28083
357.5177, 44.81839
357.9998, 40.00292
358.4819, 36.53263
358.9640, 34.34415
359.4461, 33.12745
359.9283, 33.21014
360.4104, 33.92496
360.8925, 34.70221
361.3746, 35.22454
361.8567, 36.07705
362.3388, 37.67676
362.8210, 39.75276
363.3031, 41.76485
363.7852, 44.57932
364.2673, 46.47123
364.7494, 46.28170
365.2315, 43.20749
365.7137, 40.56068
366.1958, 39.63552
366.6779, 39.29268
367.1600, 38.16816
367.6421, 35.29554
368.1242, 32.44750
368.6064, 29.77794
369.0885, 27.26982
369.5706, 25.62752
370.0527, 25.03770
370.5348, 25.17083
371.0169, 25.94112
371.4991, 28.63696
371.9812, 29.68445
372.4633, 28.12002
372.9454, 24.76437
373.4275, 22.58093
373.9096, 22.15508
374.3918, 21.88681
374.8739, 20.85232
375.3560, 18.52987
375.8381, 17.75468
376.3202, 18.98134
376.8023, 21.08627
377.2845, 22.45293
377.7666, 23.02905
378.2487, 23.17838
378.7308, 22.95153
379.2129, 22.37347
379.6950, 21.37651
380.1772, 19.76375
380.6593, 18.64922
381.1414, 19.64857
381.6235, 22.45569
382.1056, 24.37949
382.5877, 25.03881
383.0699, 24.26708
383.5520, 20.73519
384.0341, 14.75043
384.5162, 9.727539
384.9983, 7.661797
385.4804, 8.123981
385.9626, 10.94428
386.4447, 16.63502
386.9268, 21.75080
387.4089, 22.09558
387.8910, 19.18281
388.3731, 16.36887
388.8553, 14.74976
389.3374, 13.98633
389.8195, 13.92317
390.3016, 14.51179
390.7837, 15.17274
391.2658, 15.97572
391.7480, 16.45807
392.2301, 16.06127
392.7122, 13.66064
393.1943, 11.74914
393.6764, 11.93696
394.1585, 13.56937
394.6407, 14.86373
395.1228, 15.90074
395.6049, 15.96116
396.0870, 14.44197
396.5691, 10.78323
397.0512, 7.207542
397.5334, 2.998657
398.0155, 0.5516890
398.4976, 1.794910
398.9797, 1.691647
399.4618, 5.031403
399.9439, 7.522972
400.4261, 9.177879
400.9082, 9.936600
401.3903, 8.974632
401.8724, 7.904984
402.3545, 7.761398
402.8366, 8.964813
403.3188, 10.32520
403.8009, 12.35255
404.2830, 14.24758
404.7651, 13.27911
405.2472, 8.119507
405.7293, 3.924973
406.2115, 3.386681
406.6936, 6.652931
407.1757, 8.109451
407.6578, 7.366135
408.1399, 5.858887
408.6220, 5.318542
409.1042, 5.729553
409.5863, 5.776413
410.0684, 4.738258
410.5505, 3.500015
411.0326, 4.530762
411.5147, 7.837471
411.9969, 10.50637
412.4790, 9.487686
412.9611, 6.341995
413.4432, 5.072937
413.9253, 6.541626
414.4074, 8.701675
414.8896, 9.665878
415.3717, 9.611420
415.8538, 8.911011
416.3359, 7.271538
416.8180, 5.391479
417.3001, 3.466759
417.7823, 1.585396
418.2644, 1.062775
418.7465, 4.093613
419.2286, 8.206543
419.7107, 10.92951
420.1928, 10.82001
420.6750, 10.36055
421.1571, 10.81074
421.6392, 11.64634
422.1213, 11.49767
422.6034, 8.869263
423.0855, 6.160027
423.5677, 4.315353
424.0498, 3.560608
424.5319, 3.180687
425.0140, 3.404518
425.4961, 3.839355
425.9782, 4.095802
426.4604, 4.175865
426.9425, 4.017807
427.4246, 3.016815
427.9067, 1.559708
428.3888, 2.836914
428.8709, 8.845238
429.3531, 14.07551
429.8352, 14.89678
430.3173, 10.09279
430.7994, 7.063980
431.2815, 6.440865
431.7636, 6.963890
432.2458, 6.458855
432.7279, 4.826729
433.2100, 3.762695
433.6921, 4.011528
434.1742, 5.285522
434.6563, 6.691177
435.1385, 8.260521
435.6206, 9.485779
436.1027, 10.09420
436.5848, 10.02881
437.0669, 8.933243
437.5490, 6.377495
438.0312, 3.676682
438.5133, 1.982841
438.9954, 1.304688
439.4775, 1.650833
439.9596, 4.779419
440.4417, 7.800674
440.9239, 7.530312
441.4060, 3.781586
441.8881, 0.1697920
442.3702, 1.693977
442.8523, 2.150398
443.3344, 1.473419
443.8166, 2.566299
444.2987, 5.054169
444.7808, 2.641541
445.2629, 2.743141
445.7450, 5.432915
446.2271, 1.127853
446.7093, 3.373657
447.1914, 5.245377
447.6735, 3.234581
448.1556, 2.465065
448.6377, 4.071877
449.1198, 6.163849
449.6020, 6.778664
450.0841, 5.282104
450.5662, 3.697876
451.0483, 2.232567
451.5304, 0.9291840
452.0125, 0.3320770
452.4947, 1.796211
452.9768, 2.522984
453.4589, 1.646049
453.9410, 0.8955990
454.4231, 2.690979
454.9052, 3.615372
455.3874, 4.071617
455.8695, 4.460144
456.3516, 4.804527
456.8337, 5.359924
457.3158, 6.451538
457.7979, 7.565964
458.2801, 7.938744
458.7622, 7.474228
459.2443, 6.044464
459.7264, 2.020317
460.2085, 2.169907
460.6906, 2.612072
461.1728, 2.046379
461.6549, 6.651222
462.1370, 7.019096
462.6191, 5.041069
463.1012, 3.468834
463.5833, 3.431526
464.0655, 3.910610
464.5476, 4.872284
465.0297, 6.172710
465.5118, 6.800175
465.9939, 6.582623
466.4760, 5.530979
466.9582, 3.540932
467.4403, 2.216637
467.9224, 4.448017
468.4045, 0.2306710
468.8866, 7.405972
469.3687, 10.68047
469.8509, 7.091476
470.3330, 4.055767
470.8151, 3.323082
471.2972, 4.686890
471.7793, 6.214912
472.2614, 8.221912
472.7436, 9.597542
473.2257, 9.508545
473.7078, 7.784382
474.1899, 5.210331
474.6720, 1.406521
475.1541, 1.809624
475.6363, 1.001419
476.1184, 3.241989
476.6005, 7.350380
477.0826, 9.741241
477.5647, 10.41870
478.0468, 10.01267
478.5290, 8.666962
479.0111, 7.686344
479.4932, 9.127773
479.9753, 10.96236
480.4574, 10.33537
480.9395, 5.978596
481.4217, 2.358917
481.9038, 2.456970
482.3859, 4.799713
482.8680, 7.560593
483.3501, 12.19185
483.8322, 15.32673
484.3144, 14.97949
484.7965, 11.39505
485.2786, 8.476749
485.7607, 6.165421
486.2428, 5.206142
486.7249, 6.136822
487.2071, 10.31247
487.6892, 13.53915
488.1713, 16.16290
488.6534, 17.57730
489.1355, 16.56474
489.6176, 12.07677
490.0998, 8.149742
490.5819, 5.381176
491.0640, 3.912426
491.5461, 5.259747
492.0282, 9.882801
492.5103, 13.98503
492.9925, 13.66347
493.4746, 10.12760
493.9567, 10.40381
494.4388, 15.62084
494.9209, 21.29305
495.4030, 21.85097
495.8852, 18.84625
496.3673, 16.23575
496.8494, 16.32533
497.3315, 16.66344
497.8136, 14.43880
498.2957, 10.21538
498.7779, 6.521271
499.2600, 3.788162
499.7421, 2.635967
500.2242, 4.260292
500.7063, 10.11668
501.1884, 14.37608
501.6706, 13.08009
502.1527, 9.461151
502.6348, 7.272247
503.1169, 8.213131
503.5990, 9.002296
504.0811, 9.568855
504.5633, 9.800442
505.0454, 9.762497
505.5275, 9.798996
506.0096, 8.951344
506.4917, 6.338005
506.9738, 1.620872
507.4560, 0.8108980
507.9381, 0.5197980
508.4202, 0.8704490
508.9023, 1.801929
509.3844, 2.305092
509.8665, 2.955685
510.3487, 3.950436
510.8308, 4.935127
511.3129, 5.109863
511.7950, 4.680588
512.2772, 4.566734
512.7593, 6.102886
513.2414, 7.780144
513.7235, 7.579826
514.2056, 5.531651
514.6877, 3.181423
515.1699, 0.3637620
515.6520, 1.705170
516.1341, 1.652981
516.6162, 2.174812
517.0983, 5.476200
517.5804, 6.426987
518.0626, 6.016369
518.5447, 5.944244
519.0268, 7.930962
519.5089, 8.752327
519.9910, 6.949146
520.4731, 2.786659
520.9553, 0.5620690
521.4374, 0.9390300
521.9195, 2.297462
522.4016, 4.280315
522.8837, 7.514679
523.3658, 7.476639
523.8480, 2.991184
524.3301, 2.350758
524.8122, 2.970284
525.2943, 0.7480470
525.7764, 2.864094
526.2585, 0.8158450
526.7407, 2.344318
527.2228, 0.5486870
527.7049, 8.357246
528.1870, 14.34332
528.6691, 13.22667
529.1512, 8.735741
529.6334, 4.609005
530.1155, 1.046539
530.5976, 1.032192
531.0797, 0.2796780
531.5618, 1.812218
532.0439, 3.865425
532.5261, 6.809071
533.0082, 7.854370
533.4903, 3.607063
533.9724, 2.721180
534.4545, 4.307995
534.9366, 4.800007
535.4188, 12.61786
535.9009, 16.66324
536.3830, 16.97142
536.8651, 14.48253
537.3472, 7.781094
537.8293, 1.087891
538.3115, 2.940578
538.7936, 4.236431
539.2757, 3.526981
539.7578, 0.4183650
540.2399, 3.481163
540.7220, 6.505486
541.2042, 8.559940
541.6863, 9.212788
542.1684, 7.658978
542.6505, 5.445412
543.1326, 5.024357
543.6147, 5.954491
544.0969, 6.539520
544.5790, 5.042263
545.0611, 3.275986
545.5432, 2.951328
546.0253, 4.359608
546.5074, 5.614681
546.9896, 5.521061
547.4717, 5.077892
547.9538, 5.080330
548.4359, 6.521282
548.9180, 7.217903
549.4001, 6.237854
549.8823, 4.652969
550.3644, 4.325047
550.8465, 5.913830
551.3286, 7.809006
551.8107, 9.762924
552.2928, 11.55544
552.7750, 11.99735
553.2571, 11.03255
553.7392, 9.366135
554.2213, 6.688087
554.7034, 3.456974
555.1855, 2.717129
555.6677, 4.904491
556.1498, 7.395321
556.6319, 7.697964
557.1140, 6.218288
557.5961, 3.344906
558.0782, 2.603977
558.5604, 6.874725
559.0425, 3.258568
559.5246, 4.973568
560.0067, 10.52542
560.4888, 7.419186
560.9709, 3.639164
561.4531, 2.951256
561.9352, 5.491169
562.4173, 7.800919
562.8994, 9.706688
563.3815, 11.02446
563.8636, 11.64835
564.3458, 11.43717
564.8279, 10.74738
565.3100, 8.972347
565.7921, 7.418194
566.2742, 7.934849
566.7563, 10.68787
567.2385, 13.71746
567.7206, 17.25363
568.2027, 19.99841
568.6848, 17.89656
569.1669, 11.59715
569.6490, 6.156342
570.1312, 4.683002
570.6133, 5.462631
571.0954, 6.372860
571.5775, 7.350449
572.0596, 8.108662
572.5417, 8.052303
573.0239, 7.918587
573.5060, 8.476223
573.9881, 10.51981
574.4702, 11.96014
574.9523, 11.79755
575.4344, 10.64771
575.9166, 9.275360
576.3987, 6.258404
576.8808, 5.092152
577.3629, 7.468239
577.8450, 11.81815
578.3271, 12.31860
578.8093, 7.086483
579.2914, 3.627178
579.7735, 6.116600
580.2556, 13.46342
580.7377, 17.31462
581.2198, 17.44564
581.7020, 16.21068
582.1841, 15.18071
582.6662, 14.25542
583.1483, 12.89186
583.6304, 10.68360
584.1125, 8.615532
584.5947, 7.596474
585.0768, 7.452957
585.5589, 7.326031
586.0410, 6.552849
586.5231, 6.125648
587.0052, 6.599678
587.4873, 7.751877
587.9694, 8.940163
588.4515, 10.35685
588.9337, 11.47352
589.4158, 12.17786
589.8979, 12.40224
590.3800, 12.12885
590.8621, 11.30138
591.3442, 10.05612
591.8264, 7.879978
592.3085, 4.764095
592.7906, 3.656342
593.2727, 4.526749
593.7548, 6.193275
594.2369, 7.630943
594.7191, 8.762524
595.2012, 9.110558
595.6833, 8.073021
596.1654, 6.888203
596.6475, 8.181801
597.1296, 10.83990
597.6118, 12.17962
598.0939, 9.094299
598.5760, 5.705994
599.0581, 4.487782
599.5402, 5.288261
600.0223, 5.881721
600.5045, 5.679882
600.9866, 5.243378
601.4687, 4.908688
601.9508, 4.852867
602.4329, 3.976189
602.9150, 1.531254
603.3972, 0.6953810
603.8793, 1.083260
604.3614, 0.4602700
604.8435, 3.102818
605.3256, 7.259178
605.8077, 11.23200
606.2899, 12.17622
606.7720, 10.46353
607.2541, 7.686615
607.7362, 3.433193
608.2183, 0.5547830
608.7004, 2.202747
609.1826, 1.803810
609.6647, 0.2953680
610.1468, 2.852749
610.6289, 6.168098
611.1110, 8.812790
611.5931, 10.76474
612.0753, 12.19354
612.5574, 13.40602
613.0395, 13.87012
613.5216, 13.26064
614.0037, 11.06588
614.4858, 8.890736
614.9680, 6.185471
615.4501, 4.225784
615.9322, 5.010807
616.4143, 8.810287
616.8964, 10.85271
617.3785, 9.576820
617.8607, 7.149364
618.3428, 8.583439
618.8249, 12.90023
619.3070, 16.04957
619.7891, 14.66866
620.2712, 12.29128
620.7534, 12.68455
621.2355, 15.33688
621.7176, 17.86639
622.1997, 19.94898
622.6818, 20.90584
623.1639, 19.74215
623.6461, 15.84947
624.1282, 13.71959
624.6103, 15.41596
625.0924, 17.59362
625.5745, 17.96115
626.0566, 15.25942
626.5388, 14.68486
627.0209, 17.29346
627.5030, 20.44023
627.9851, 19.60168
628.4672, 15.07852
628.9493, 12.92067
629.4315, 15.11829
629.9136, 19.30312
630.3957, 22.68667
630.8778, 25.11772
631.3599, 26.07834
631.8420, 24.39176
632.3242, 21.89050
632.8063, 19.29331
633.2884, 16.87667
633.7705, 15.84216
634.2526, 18.88589
634.7347, 21.45723
635.2169, 20.62808
635.6990, 15.27365
636.1811, 13.13208
636.6632, 16.16754
637.1453, 19.93259
637.6274, 21.29278
638.1096, 19.97670
638.5917, 17.87079
639.0738, 14.71793
639.5559, 11.76084
640.0380, 11.02787
640.5201, 11.96541
641.0023, 12.16057
641.4844, 10.92358
641.9665, 8.871033
642.4486, 5.810219
642.9307, 2.437874
643.4128, 0.3114660
643.8950, 1.006676
644.3771, 2.317394
644.8592, 3.492744
645.3413, 4.422390
645.8234, 4.796917
646.3055, 4.025940
646.7877, 3.193115
647.2698, 2.562675
647.7519, 2.367702
648.2340, 2.286518
648.7161, 1.813396
649.1982, 1.573067
649.6804, 2.595020
650.1625, 4.758030
650.6446, 5.103317
651.1267, 3.272293
651.6088, 1.308537
652.0909, 1.606522
652.5731, 3.197498
653.0552, 4.362507
653.5373, 4.554234
654.0194, 4.557560
654.5015, 4.726589
654.9836, 5.061684
655.4658, 5.562065
655.9479, 5.889343
656.4300, 6.772396
656.9121, 8.633152
657.3942, 11.15548
657.8763, 13.44637
658.3585, 15.28608
658.8406, 17.44659
659.3227, 20.21653
659.8048, 23.51307
660.2869, 27.00442
660.7690, 30.71387
661.2512, 33.76016
661.7333, 34.04885
662.2154, 33.94829
662.6975, 38.75598
663.1796, 48.46778
663.6617, 57.66227
664.1439, 61.75048
664.6260, 64.13633
665.1081, 67.89830
665.5902, 73.89436
666.0723, 79.81910
666.5544, 83.28307
667.0366, 87.64288
667.5187, 95.98997
668.0008, 110.3991
668.4829, 124.4272
668.9650, 137.6827
669.4471, 150.3031
669.9293, 162.2644
670.4114, 173.5514
670.8935, 185.5341
671.3756, 197.7836
671.8577, 212.1958
672.3398, 234.9621
672.8220, 263.4688
673.3041, 288.3975
673.7862, 313.1445
674.2683, 325.9350
674.7504, 315.7644
675.2325, 284.9663
675.7147, 246.3767
676.1968, 189.3288
676.6789, 138.2836
677.1610, 105.5813
677.6431, 91.26856
678.1252, 81.27600
678.6074, 76.56436
679.0895, 74.54169
679.5716, 73.76701
680.0537, 74.23666
680.5358, 76.84878
681.0179, 81.85990
681.5001, 87.08530
681.9822, 92.46243
682.4643, 96.07440
682.9464, 93.26632
683.4285, 82.24371
683.9106, 68.78769
684.3928, 54.62188
684.8749, 41.21664
685.3570, 30.11088
685.8391, 20.19578
686.3212, 14.31520
686.8033, 14.96480
687.2855, 19.23515
687.7676, 22.65243
688.2497, 24.59824
688.7318, 27.37133
689.2139, 31.50841
689.6960, 36.73653
690.1782, 41.73987
690.6603, 46.63144
691.1424, 53.60121
691.6245, 64.74544
692.1066, 78.00690
692.5887, 89.49637
693.0709, 99.91482
693.5530, 112.4596
694.0351, 136.9018
694.5172, 157.2910
694.9993, 163.7606
695.4814, 155.4924
695.9636, 139.6486
696.4457, 110.5673
696.9278, 80.55297
697.4099, 54.11201
697.8920, 30.66054
698.3741, 15.65113
698.8563, 10.58744
699.3384, 9.356960
699.8205, 7.117073
700.3026, 4.139626
700.7847, 1.553791
701.2668, 0.5361480
701.7490, 2.130299
702.2311, 3.830700
702.7132, 4.825508
703.1953, 3.509640
703.6774, 2.698082
704.1595, 6.624474
704.6417, 3.069782
705.1238, 3.497036
705.6059, 6.781456
706.0880, 4.889084
706.5701, 2.225525
707.0522, 1.662994
707.5344, 5.501884
708.0165, 5.821579
708.4986, 2.288933
708.9807, 0.6529960
709.4628, 3.646935
709.9449, 8.243664
710.4271, 7.873447
710.9092, 3.898804
711.3913, 1.363174
711.8734, 4.922039
712.3555, 9.145222
712.8376, 9.502850
713.3198, 6.867264
713.8019, 5.828449
714.2840, 10.03878
714.7661, 13.66588
715.2482, 14.51853
715.7303, 12.67345
716.2125, 9.895958
716.6946, 5.303101
717.1767, 2.435368
717.6588, 4.389687
718.1409, 10.40876
718.6230, 14.51584
719.1052, 16.69773
719.5873, 17.84097
720.0694, 17.86424
720.5515, 17.68151
721.0336, 18.98266
721.5157, 22.24905
721.9979, 24.16407
722.4800, 21.11835
722.9621, 17.40674
723.4442, 16.65726
723.9263, 21.21366
724.4084, 24.46323
724.8906, 26.65032
725.3727, 27.27324
725.8548, 24.71108
726.3369, 18.49181
726.8190, 16.66784
727.3011, 21.02702
727.7833, 26.87943
728.2654, 27.93407
728.7475, 25.72198
729.2296, 23.95431
729.7117, 24.13696
730.1938, 24.05871
730.6760, 20.93323
731.1581, 16.92488
731.6402, 15.31485
732.1223, 20.02641
732.6044, 23.28589
733.0865, 23.71568
733.5687, 22.15072
734.0508, 20.15853
734.5329, 17.58246
735.0150, 15.16215
735.4971, 12.93944
735.9792, 11.13115
736.4614, 10.55613
736.9435, 10.97433
737.4256, 11.14964
737.9077, 10.10041
738.3898, 8.814133
738.8719, 7.877781
739.3541, 7.410664
739.8362, 7.856487
740.3183, 11.17250
740.8004, 13.64127
741.2825, 13.30176
741.7646, 10.54798
742.2468, 8.398155
742.7289, 6.667568
743.2110, 6.285202
743.6931, 8.201412
744.1752, 11.51391
744.6573, 11.51517
745.1395, 8.360893
745.6216, 5.481461
746.1037, 5.991055
746.5858, 7.763374
747.0679, 8.194012
747.5500, 7.186806
748.0322, 5.996281
748.5143, 4.413521
748.9964, 3.464123
749.4785, 4.196510
749.9606, 7.368732
750.4427, 8.102905
750.9249, 4.606052
751.4070, 1.715683
751.8891, 4.097755
752.3712, 11.61817
752.8533, 14.02647
753.3354, 10.69268
753.8176, 5.883678
754.2997, 2.918884
754.7818, 1.360832
755.2639, 0.6909830
755.7460, 0.9551850
756.2281, 1.332474
756.7103, 0.9621430
757.1924, 0.7699930
757.6745, 1.682861
758.1566, 5.143936
758.6387, 6.973236
759.1208, 6.480129
759.6030, 5.055546
760.0851, 4.204472
760.5672, 3.996540
761.0493, 3.494072
761.5314, 2.619080
762.0135, 1.807220
762.4957, 1.489067
762.9778, 1.647713
763.4599, 3.155170
763.9420, 7.802547
764.4241, 10.99295
764.9063, 8.547981
765.3884, 3.683804
765.8705, 0.5233840
766.3526, 0.1502230
766.8347, 0.9958570
767.3168, 4.031971
767.7990, 7.329685
768.2811, 7.368679
768.7632, 3.918140
769.2453, 2.253227
769.7274, 3.955959
770.2095, 6.546207
770.6917, 6.084751
771.1738, 3.854061
771.6559, 2.795044
772.1380, 5.513119
772.6201, 7.455090
773.1022, 5.082199
773.5844, 0.5303340
774.0665, 2.393894
774.5486, 2.238792
775.0307, 1.861233
775.5128, 1.693108
775.9949, 1.437557
776.4771, 0.3408280
776.9592, 1.635269
777.4413, 3.705978
777.9234, 5.924129
778.4055, 7.696232
778.8876, 7.696583
779.3698, 6.496899
779.8519, 5.564182
780.3340, 4.929790
780.8161, 5.377071
781.2982, 8.785973
781.7803, 13.56594
782.2625, 15.25092
782.7446, 11.77319
783.2267, 8.163292
783.7088, 4.980999
784.1909, 2.544064
784.6730, 2.202431
785.1552, 3.929855
785.6373, 5.114292
786.1194, 4.160221
786.6015, 2.743160
787.0836, 3.922314
787.5657, 6.720432
788.0479, 8.423649
788.5300, 6.049385
789.0121, 4.036579
789.4942, 5.234844
789.9763, 8.551662
790.4584, 9.434597
790.9406, 6.183929
791.4227, 3.611538
791.9048, 2.884537
792.3869, 3.837917
792.8690, 6.884266
793.3511, 11.81506
793.8333, 15.00413
794.3154, 13.69576
794.7975, 10.65660
795.2796, 9.281246
795.7617, 9.012455
796.2438, 8.140816
796.7260, 4.697365
797.2081, 1.831509
797.6902, 1.194656
798.1723, 2.216568
798.6544, 2.784054
799.1365, 3.050228
799.6187, 2.293304
800.1008, 0.4053120
800.5829, 3.863247
801.0650, 4.088963
801.5471, 1.516682
802.0292, 1.071056
802.5114, 1.910721
802.9935, 2.305321
803.4756, 3.855610
803.9577, 6.025394
804.4398, 6.978901
804.9219, 5.193401
805.4041, 3.142036
805.8862, 1.032707
806.3683, 0.7790300
806.8504, 0.5368690
807.3325, 2.184052
807.8146, 4.966957
808.2968, 7.216244
808.7789, 8.703655
809.2610, 8.568146
809.7431, 7.113934
810.2252, 5.580704
810.7073, 4.204067
811.1895, 3.343544
811.6716, 3.337135
812.1537, 4.051464
812.6358, 4.986561
813.1179, 6.404427
813.6000, 7.636169
814.0822, 8.759136
814.5643, 9.521748
815.0464, 8.309795
815.5285, 5.059250
816.0106, 3.603340
816.4927, 6.790398
816.9749, 11.32506
817.4570, 11.95924
817.9391, 9.754093
818.4212, 7.727814
818.9033, 6.540234
819.3854, 6.594681
819.8676, 8.797649
820.3497, 12.45797
820.8318, 14.98025
821.3139, 15.07598
821.7960, 17.08032
822.2781, 22.45953
822.7603, 30.02831
823.2424, 38.10303
823.7245, 46.33964
824.2066, 52.28722
824.6887, 54.82720
825.1708, 54.90528
825.6530, 52.05645
826.1351, 47.54978
826.6172, 44.44153
827.0993, 41.71807
827.5814, 42.76251
828.0635, 50.88310
828.5457, 61.83965
829.0278, 65.33447
829.5099, 59.54665
829.9920, 58.82294
830.4741, 67.72449
830.9562, 81.20422
831.4384, 89.90553
831.9205, 96.64955
832.4026, 109.2157
832.8847, 133.2521
833.3668, 159.8772
833.8489, 183.5850
834.3311, 207.2437
834.8132, 235.8998
835.2953, 271.0052
835.7774, 309.3551
836.2595, 354.2571
836.7416, 397.1502
837.2238, 426.9288
837.7059, 443.3189
838.1880, 440.6267
838.6701, 416.2545
839.1522, 377.1407
839.6343, 320.5938
840.1165, 257.0609
840.5986, 202.1152
841.0807, 160.5009
841.5628, 126.8612
842.0449, 102.4151
842.5270, 84.26242
843.0092, 70.69875
843.4913, 62.61461
843.9734, 54.80822
844.4555, 46.51426
844.9376, 38.61774
845.4197, 32.66432
845.9019, 28.42039
846.3840, 25.52911
846.8661, 23.99966
847.3482, 22.77078
847.8303, 21.96373
848.3124, 20.90960
848.7946, 18.77449
849.2767, 14.36640
849.7588, 12.10207
850.2409, 12.81856
850.7230, 14.11750
851.2051, 13.43465
851.6873, 11.26517
852.1694, 11.46868
852.6515, 14.41450
853.1336, 16.45375
853.6157, 13.03051
854.0978, 8.241844
854.5800, 6.364017
855.0621, 8.301094
855.5442, 9.545994
856.0263, 8.585148
856.5084, 7.336727
856.9905, 6.507233
857.4727, 6.094376
857.9548, 7.398556
858.4369, 10.51934
858.9190, 12.27118
859.4011, 8.804813
859.8832, 3.336761
860.3654, 0.8063810
860.8475, 1.260010
861.3296, 3.460438
861.8117, 9.760956
862.2938, 14.88424
862.7759, 15.48427
863.2581, 12.24562
863.7402, 9.988129
864.2223, 8.944740
864.7044, 8.047710
865.1865, 6.645767
865.6686, 5.202099
866.1508, 5.221218
866.6329, 6.410168
867.1150, 7.503452
867.5971, 8.535084
868.0792, 8.593372
868.5613, 5.465858
869.0435, 0.8069690
869.5256, 0.2073940
870.0077, 7.607906
870.4898, 12.30748
870.9719, 11.51703
871.4540, 7.799789
871.9362, 6.851471
872.4183, 8.343605
872.9004, 9.836124
873.3825, 10.99296
873.8646, 10.99028
874.3467, 7.568813
874.8289, 2.891865
875.3110, 0.2815970
875.7931, 2.371204
876.2752, 4.433231
876.7573, 5.600021
877.2394, 6.749897
877.7216, 9.747986
878.2037, 14.90164
878.6858, 15.27040
879.1679, 9.257320
879.6500, 2.338974
880.1321, 0.5952340
880.6143, 1.725433
881.0964, 2.138435
881.5785, 0.9202920
882.0606, 0.4088360
882.5427, 3.233112
883.0248, 5.586876
883.5070, 4.325699
883.9891, 1.710964
884.4712, 4.282539
884.9533, 2.901997
885.4354, 0.4481160
885.9175, 1.245934
886.3997, 2.263714
886.8818, 2.622704
887.3639, 2.371380
887.8460, 1.964081
888.3281, 1.460220
888.8102, 1.040833
889.2924, 0.7091710
889.7745, 0.4969600
890.2566, 0.8614770
890.7387, 1.920910
891.2208, 3.306965
891.7029, 5.340851
892.1851, 7.351677
892.6672, 6.943718
893.1493, 4.710705
893.6314, 3.223667
894.1135, 4.717773
894.5956, 6.383018
895.0778, 6.372669
895.5599, 5.339764
896.0420, 5.010567
896.5241, 5.827518
897.0062, 6.664097
897.4883, 7.520203
897.9705, 8.049240
898.4526, 7.513359
898.9347, 6.228474
899.4168, 4.478748
899.8989, 2.299541
900.3810, 0.2277150
900.8632, 2.406006
901.3453, 4.252277
901.8274, 3.576576
902.3095, 3.396687
902.7916, 6.479088
903.2737, 3.585171
903.7559, 0.2932620
904.2380, 0.1404270
904.7201, 3.685333
905.2022, 5.106937
905.6843, 3.597225
906.1664, 1.759346
906.6486, 1.656094
907.1307, 2.395878
907.6128, 3.027225
908.0949, 3.415043
908.5770, 4.685722
909.0591, 8.018604
909.5413, 10.81277
910.0234, 12.07305
910.5055, 11.89653
910.9876, 10.36259
911.4697, 7.572422
911.9518, 5.435825
912.4340, 5.651337
912.9161, 6.532192
913.3982, 6.249001
913.8803, 5.240734
914.3624, 4.739868
914.8445, 5.196556
915.3267, 6.157482
915.8088, 8.075825
916.2909, 10.04555
916.7730, 10.06014
917.2551, 8.155563
917.7372, 6.005730
918.2194, 3.771400
918.7015, 2.090267
919.1836, 1.813675
919.6657, 2.457836
920.1478, 3.382603
920.6299, 4.620697
921.1121, 6.116264
921.5942, 8.425209
922.0763, 10.17908
922.5584, 9.970268
923.0405, 7.699593
923.5226, 7.128277
924.0048, 8.481400
924.4869, 10.01817
924.9690, 10.92357
925.4511, 11.07464
925.9332, 9.586224
926.4153, 6.597061
926.8975, 5.523766
927.3796, 10.18064
927.8617, 13.57571
928.3438, 12.68176
928.8259, 8.655045
929.3080, 7.193390
929.7902, 8.239605
930.2723, 9.062210
930.7544, 8.142204
931.2365, 6.764397
931.7186, 6.780743
932.2007, 7.417580
932.6829, 7.088711
933.1650, 2.571556
933.6471, 0.9348560
934.1292, 4.567448
934.6113, 9.976307
935.0934, 12.08845
935.5756, 10.95366
936.0577, 9.977215
936.5398, 9.718819
937.0219, 9.127716
937.5040, 5.333569
937.9861, 1.600746
938.4683, 3.030571
938.9504, 12.25673
939.4325, 16.46998
939.9146, 9.315140
940.3967, 2.309910
940.8788, 1.897240
941.3610, 7.473721
941.8431, 11.43260
942.3252, 13.76624
942.8073, 14.12574
943.2894, 9.724846
943.7715, 5.179642
944.2537, 5.837921
944.7358, 10.19072
945.2179, 12.40006
945.7000, 9.459484
946.1821, 6.594936
946.6642, 4.529804
947.1464, 3.108643
947.6285, 1.746277
948.1106, 0.6021040
948.5927, 1.202145
949.0748, 4.525352
949.5569, 7.689083
950.0391, 7.904900
950.5212, 6.652630
951.0033, 5.593330
951.4854, 5.096104
951.9675, 4.533123
952.4496, 3.575424
952.9318, 3.109890
953.4139, 4.311577
953.8960, 6.738850
954.3781, 7.940086
954.8602, 7.858074
955.3423, 6.640450
955.8245, 1.943264
956.3066, 1.731670
956.7887, 4.9766999E-02
957.2708, 6.484203
957.7529, 10.06841
958.2350, 10.05202
958.7172, 7.922520
959.1993, 3.177418
959.6814, 1.931564
960.1635, 1.397820
960.6456, 2.696812
961.1277, 4.342541
961.6099, 4.3522000E-02
962.0920, 4.156219
962.5741, 4.214012
963.0562, 2.222675
963.5383, 0.4075780
964.0204, 0.8709070
964.5026, 2.912270
964.9847, 6.041519
965.4668, 8.804665
965.9489, 9.661037
966.4310, 9.228226
966.9131, 8.952042
967.3953, 8.854153
967.8774, 7.973377
968.3595, 4.501270
968.8416, 1.476887
969.3237, 0.6486780
969.8058, 1.526421
970.2880, 1.931213
970.7701, 1.789474
971.2522, 1.798298
971.7343, 2.112190
972.2164, 2.837719
972.6985, 4.541267
973.1807, 6.703182
973.6628, 8.303661
974.1449, 8.878128
974.6270, 9.165009
975.1091, 9.341042
975.5912, 9.270142
976.0734, 9.037533
976.5555, 8.664722
977.0376, 6.259544
977.5197, 1.641186
978.0018, 2.292336
978.4839, 2.954227
978.9661, 1.938522
979.4482, 0.2271580
979.9303, 1.970985
980.4124, 2.720715
980.8945, 0.2532160
981.3766, 1.322201
981.8588, 2.135086
982.3409, 7.834774
982.8230, 9.478214
983.3051, 7.486217
983.7872, 3.683292
984.2693, 3.024525
984.7515, 7.939472
985.2336, 7.110718
985.7157, 2.838634
986.1978, 2.248730
986.6799, 10.08757
987.1620, 13.12882
987.6442, 10.08620
988.1263, 5.831264
988.6084, 4.169102
989.0905, 4.802856
989.5726, 8.371662
990.0547, 14.41529
990.5369, 18.04896
991.0190, 13.52022
991.5011, 9.187675
991.9832, 10.68445
992.4653, 15.65315
992.9474, 15.09206
993.4296, 8.138550
993.9117, 4.046841
994.3938, 6.324677
994.8759, 10.92931
995.3580, 13.21961
995.8401, 13.80347
996.3223, 13.98848
996.8044, 14.66864
997.2865, 13.35605
997.7686, 7.937832
998.2507, 2.620338
998.7328, 0.8229220
999.2150, 2.439411
999.6971, 4.031620
1000.179, 5.522041
1000.661, 6.494526
1001.143, 6.316429
1001.626, 5.790039
1002.108, 5.253521
1002.590, 4.865471
1003.072, 5.314926
1003.554, 7.140884
1004.036, 8.493137
1004.518, 8.925556
1005.000, 8.824608
1005.482, 8.546165
1005.965, 8.240314
1006.447, 8.777760
1006.929, 10.89024
1007.411, 11.58679
1007.893, 5.712582
1008.375, 1.011333
1008.857, 4.378166
1009.339, 16.90766
1009.822, 21.45813
1010.304, 17.39640
1010.786, 12.30357
1011.268, 11.01410
1011.750, 11.41095
1012.232, 10.87711
1012.714, 9.782036
1013.196, 9.218170
1013.678, 9.635674
1014.161, 10.36602
1014.643, 11.91645
1015.125, 13.61280
1015.607, 14.22068
1016.089, 13.97406
1016.571, 14.94592
1017.053, 17.69524
1017.535, 18.45240
1018.018, 10.83841
1018.500, 3.373627
1018.982, 3.863487
1019.464, 12.90520
1019.946, 17.81010
1020.428, 18.01568
1020.910, 17.35361
1021.392, 16.79576
1021.874, 16.93188
1022.357, 19.80251
1022.839, 24.23682
1023.321, 27.44584
1023.803, 27.24348
1024.285, 27.36374
1024.767, 28.67643
1025.249, 30.72377
1025.731, 33.57496
1026.214, 37.27193
1026.696, 37.49136
1027.178, 33.84772
1027.660, 33.60486
1028.142, 45.65963
1028.624, 61.04056
1029.106, 70.89732
1029.588, 75.97791
1030.070, 87.00043
1030.553, 111.7243
1031.035, 125.2793
1031.517, 119.7272
1031.999, 103.3100
1032.481, 86.97592
1032.963, 72.03297
1033.445, 61.79935
1033.927, 57.44455
1034.410, 56.20880
1034.892, 58.13184
1035.374, 61.90625
1035.856, 66.35559
1036.338, 71.56831
1036.820, 77.60343
1037.302, 84.31849
1037.784, 95.24079
1038.266, 109.8332
1038.749, 131.8074
1039.231, 158.7084
1039.713, 196.4307
1040.195, 258.5407
1040.677, 342.7267
1041.159, 463.3309
1041.641, 634.5041
1042.123, 819.1733
1042.605, 983.0288
1043.088, 1124.186
1043.570, 1220.500
1044.052, 1269.756
1044.534, 1330.421
1045.016, 1437.934
1045.498, 1561.306
1045.980, 1681.666
1046.462, 1802.916
1046.945, 1937.863
1047.427, 2086.525
1047.909, 2278.972
1048.391, 2515.443
1048.873, 2815.921
1049.355, 3136.612
1049.837, 3566.063
1050.319, 4215.384
1050.802, 5084.976
1051.284, 6275.847
1051.766, 7772.953
1052.248, 9580.635
1052.730, 11879.07
1053.212, 14445.29
1053.694, 17151.38
1054.176, 19646.76
1054.658, 20339.43
1055.141, 17343.28
1055.623, 13655.50
1056.105, 9721.849
1056.587, 6081.331
1057.069, 3606.280
1057.551, 2319.504
1058.033, 1474.063
1058.515, 1003.851
1058.997, 729.7657
1059.480, 560.5394
1059.962, 451.4674
1060.444, 367.5886
1060.926, 307.0124
1061.408, 259.8237
1061.890, 228.3931
1062.372, 201.9261
1062.854, 177.3069
1063.337, 155.3823
1063.819, 139.3930
1064.301, 127.0140
1064.783, 114.1544
1065.265, 98.53034
1065.747, 85.65965
1066.229, 78.63680
1066.711, 73.46370
1067.193, 67.64503
1067.676, 61.34285
1068.158, 56.26310
1068.640, 52.16556
1069.122, 48.35795
1069.604, 44.69693
1070.086, 41.25036
1070.568, 37.31786
1071.050, 33.75494
1071.532, 32.73812
1072.015, 35.79963
1072.497, 35.72665
1072.979, 31.33207
1073.461, 25.83298
1073.943, 21.82267
1074.425, 19.31588
1074.907, 19.22290
1075.389, 21.35738
1075.872, 21.54909
1076.354, 16.20490
1076.836, 12.77951
1077.318, 14.40675
1077.800, 18.04227
1078.282, 15.32413
1078.764, 8.452789
1079.246, 6.300674
1079.729, 12.77181
1080.211, 18.56717
1080.693, 17.82558
1081.175, 14.36910
1081.657, 11.39264
1082.139, 8.903236
1082.621, 7.641899
1083.103, 7.634308
1083.585, 7.492996
1084.068, 5.821358
1084.550, 4.081429
1085.032, 4.083614
1085.514, 5.036312
1085.996, 5.491859
1086.478, 4.888744
1086.960, 4.643261
1087.442, 4.822411
1087.924, 5.431953
1088.406, 6.361176
1088.889, 7.344501
1089.371, 8.042431
1089.853, 8.288910
1090.335, 7.255791
1090.817, 2.060993
1091.299, 1.054691
1091.781, 5.3149998E-02
1092.263, 3.132553
1092.746, 4.626019
1093.228, 5.033981
1093.710, 8.309078
1094.192, 15.47764
1094.674, 19.89091
1095.156, 14.37348
1095.638, 7.072594
1096.120, 3.255646
1096.603, 2.628437
1097.085, 2.938889
1097.567, 4.226051
1098.049, 5.344261
1098.531, 5.600014
1099.013, 6.108856
1099.495, 9.842636
1099.977, 13.68054
1100.459, 12.93210
1100.942, 3.806343
1101.424, 0.3898810
1101.906, 4.004318
1102.388, 9.007309
1102.870, 12.77888
1103.352, 14.91737
1103.834, 13.74305
1104.316, 10.30263
1104.798, 7.563549
1105.281, 6.737709
1105.763, 6.470531
1106.245, 6.717045
1106.727, 7.312477
1107.209, 7.819733
1107.691, 8.238281
1108.173, 9.593689
1108.655, 11.77833
1109.138, 12.24834
1109.620, 7.120121
1110.102, 2.631733
1110.584, 2.048363
1111.066, 3.907543
1111.548, 5.389648
1112.030, 6.505051
1112.512, 7.245113
1112.995, 7.620674
1113.477, 7.625992
1113.959, 7.684002
1114.441, 7.033112
1114.923, 3.873707
1115.405, 1.556099
1115.887, 1.828812
1116.369, 4.292000
1116.851, 8.395832
1117.333, 6.777126
1117.816, 3.324780
1118.298, 2.979458
1118.780, 4.254250
1119.262, 5.208252
1119.744, 5.961403
1120.226, 4.072830
1120.708, 2.425793
1121.190, 6.743885
1121.673, 3.442833
1122.155, 4.024368
1122.637, 8.365280
1123.119, 9.930492
1123.601, 9.626709
1124.083, 6.331261
1124.565, 2.981297
1125.047, 0.7177470
1125.530, 3.308456
1126.012, 2.825550
1126.494, 6.7547001E-02
1126.976, 1.672565
1127.458, 1.995701
1127.940, 2.120312
1128.422, 1.395706
1128.904, 2.099174
1129.386, 7.350765
1129.869, 13.40333
1130.351, 13.80445
1130.833, 8.685490
1131.315, 4.208164
1131.797, 1.043369
1132.279, 0.7816580
1132.761, 0.8012390
1133.243, 7.2990000E-02
1133.725, 1.555489
1134.208, 3.446846
1134.690, 5.255749
1135.172, 7.247475
1135.654, 6.841656
1136.136, 2.939697
1136.618, 1.661945
1137.100, 5.472317
1137.582, 7.357635
1138.065, 5.041080
1138.547, 2.592823
1139.029, 6.543522
1139.511, 6.009033
1139.993, 4.132740
1140.475, 1.524780
1140.957, 0.7292590
1141.439, 0.5048560
1141.922, 1.165298
1142.404, 2.448231
1142.886, 2.430130
1143.368, 3.576195
1143.850, 7.304920
1144.332, 9.382286
1144.814, 5.224354
1145.296, 1.461254
1145.778, 0.8112070
1146.260, 8.821308
1146.743, 13.25449
1147.225, 5.940250
1147.707, 0.9472080
1148.189, 0.5054820
1148.671, 2.667377
1149.153, 7.566814
1149.635, 13.80311
1150.117, 12.49897
1150.600, 4.749119
1151.082, 0.4889340
1151.564, 4.877289
1152.046, 9.466846
1152.528, 7.822704
1153.010, 4.337593
1153.492, 5.673389
1153.974, 11.18863
1154.457, 13.36353
1154.939, 11.55704
1155.421, 9.219566
1155.903, 7.756245
1156.385, 7.339016
1156.867, 9.298988
1157.349, 12.06039
1157.831, 11.47226
1158.313, 7.450932
1158.796, 5.559303
1159.278, 6.895390
1159.760, 8.938629
1160.242, 10.50982
1160.724, 11.09404
1161.206, 9.623528
1161.688, 6.537689
1162.170, 5.219227
1162.652, 5.922268
1163.135, 5.451283
1163.617, 2.438267
1164.099, 0.4639820
1164.581, 0.6515240
1165.063, 0.8343960
1165.545, 3.309669
1166.027, 6.826733
1166.509, 9.042980
1166.992, 9.801682
1167.474, 10.23676
1167.956, 10.79952
1168.438, 11.20690
1168.920, 11.28989
1169.402, 10.95610
1169.884, 9.883438
1170.366, 7.410885
1170.849, 6.549244
1171.331, 7.763607
1171.813, 8.736916
1172.295, 7.613209
1172.777, 6.057461
1173.259, 7.305779
1173.741, 10.00985
1174.223, 11.46582
1174.705, 9.437653
1175.188, 8.724480
1175.670, 9.933144
1176.152, 11.02956
1176.634, 9.599213
1177.116, 7.440132
1177.598, 9.169811
1178.080, 13.22692
1178.562, 14.80384
1179.044, 10.26147
1179.527, 6.289742
1180.009, 3.059578
1180.491, 0.8331410
1180.973, 0.1801220
1181.455, 0.7949980
1181.937, 2.240211
1182.419, 4.446777
1182.901, 6.715847
1183.384, 9.167496
1183.866, 10.21917
1184.348, 9.491348
1184.830, 8.066097
1185.312, 7.500187
1185.794, 7.488010
1186.276, 6.673988
1186.758, 5.097775
1187.240, 5.399677
1187.723, 12.49563
1188.205, 16.42797
1188.687, 13.95741
1189.169, 8.485703
1189.651, 4.360413
1190.133, 1.916473
1190.615, 3.572094
1191.097, 9.691399
1191.579, 14.19661
1192.062, 14.12318
1192.544, 11.94298
1193.026, 7.509727
1193.508, 2.608284
1193.990, 1.616280
1194.472, 3.421535
1194.954, 4.228973
1195.436, 3.308178
1195.919, 3.208355
1196.401, 6.668564
1196.883, 9.262104
1197.365, 8.931843
1197.847, 6.830673
1198.329, 6.308472
1198.811, 6.899834
1199.293, 7.070232
1199.776, 6.305882
1200.258, 5.932999
1200.740, 7.537792
1201.222, 8.573372
1201.704, 7.449795
1202.186, 4.896626
1202.668, 3.258728
1203.150, 2.595882
1203.632, 4.490265
1204.115, 10.82621
1204.597, 15.04947
1205.079, 12.26916
1205.561, 8.208298
1206.043, 6.207741
1206.525, 5.777077
1207.007, 3.687271
1207.489, 0.6863330
1207.971, 0.1705020
1208.454, 4.322479
1208.936, 8.180313
1209.418, 10.00604
1209.900, 10.70470
1210.382, 10.48357
1210.864, 9.592072
1211.346, 10.59425
1211.828, 12.84329
1212.311, 13.02093
1212.793, 7.318214
1213.275, 2.823921
1213.757, 2.541611
1214.239, 4.080223
1214.721, 6.094109
1215.203, 8.518837
1215.685, 11.75359
1216.167, 15.25034
1216.650, 16.16202
1217.132, 9.251762
1217.614, 4.640587
1218.096, 7.155396
1218.578, 11.39559
1219.060, 12.83548
1219.542, 11.81434
1220.024, 10.18050
1220.506, 8.220901
1220.989, 7.215286
1221.471, 8.555847
1221.953, 9.867989
1222.435, 10.60714
1222.917, 11.16433
1223.399, 12.23233
1223.881, 13.37009
1224.363, 11.44835
1224.846, 7.088737
1225.328, 4.688820
1225.810, 8.834282
1226.292, 12.26882
1226.774, 13.17163
1227.256, 12.11906
1227.738, 8.178528
1228.220, 2.959732
1228.703, 3.257729
1229.185, 8.564796
1229.667, 12.85876
1230.149, 12.25942
1230.631, 11.87354
1231.113, 13.18256
1231.595, 14.70773
1232.077, 14.46973
1232.559, 12.94120
1233.042, 11.35614
1233.524, 9.795952
1234.006, 8.075027
1234.488, 4.720428
1234.970, 3.427750
1235.452, 5.623245
1235.934, 8.817307
1236.416, 9.296539
1236.898, 8.345055
1237.381, 9.531525
1237.863, 12.68958
1238.345, 13.35252
1238.827, 7.901634
1239.309, 2.880386
1239.791, 1.196632
1240.273, 3.374535
1240.755, 1.312584
1241.238, 3.086014
1241.720, 7.189690
1242.202, 10.49257
1242.684, 10.20606
1243.166, 3.126732
1243.648, 1.814651
1244.130, 2.888931
1244.612, 1.538528
1245.094, 1.760849
1245.577, 5.564056
1246.059, 7.503181
1246.541, 7.500160
1247.023, 6.658913
1247.505, 4.811020
1247.987, 3.256630
1248.469, 2.024185
1248.951, 1.408127
1249.433, 2.300438
1249.916, 3.711449
1250.398, 4.739342
1250.880, 5.185577
1251.362, 4.561226
1251.844, 2.189926
1252.326, 1.734077
1252.808, 4.392723
1253.290, 7.436920
1253.773, 7.722916
1254.255, 6.954575
1254.737, 6.649338
1255.219, 6.982491
1255.701, 8.568268
1256.183, 11.83047
1256.665, 12.25228
1257.147, 8.665283
1257.630, 4.684891
1258.112, 3.615234
1258.594, 3.688416
1259.076, 3.462624
1259.558, 2.933311
1260.040, 2.517128
1260.522, 2.248177
1261.004, 4.337944
1261.486, 9.594711
1261.969, 14.53238
1262.451, 16.50333
1262.933, 17.11161
1263.415, 18.17952
1263.897, 18.72127
1264.379, 13.17623
1264.861, 2.822868
1265.343, 2.055206
1265.825, 1.497719
1266.308, 5.924591
1266.790, 7.163818
1267.272, 7.663177
1267.754, 8.853699
1268.236, 10.03751
1268.718, 9.101768
1269.200, 6.770172
1269.682, 5.690834
1270.165, 6.390175
1270.647, 7.837440
1271.129, 11.05836
1271.611, 12.69452
1272.093, 10.66245
1272.575, 7.350098
1273.057, 9.890564
1273.539, 16.23479
1274.021, 17.45061
1274.504, 11.07798
1274.986, 5.621841
1275.468, 3.826614
1275.950, 3.763199
1276.432, 5.347626
1276.914, 7.382912
1277.396, 8.801064
1277.878, 9.434746
1278.360, 7.923065
1278.843, 3.826920
1279.325, 3.256218
1279.807, 7.271935
1280.289, 11.24570
1280.771, 14.33744
1281.253, 15.94048
1281.735, 15.19373
1282.217, 12.61459
1282.700, 7.335815
1283.182, 9.8457001E-02
1283.664, 2.672287
1284.146, 0.2939000
1284.628, 3.786415
1285.110, 9.187454
1285.592, 12.54279
1286.074, 12.87929
1286.557, 11.42329
1287.039, 9.067726
1287.521, 6.209656
1288.003, 4.611786
1288.485, 4.342651
1288.967, 5.124451
1289.449, 7.330627
1289.931, 8.941406
1290.413, 7.737152
1290.896, 6.425446
1291.378, 6.011887
1291.860, 6.691360
1292.342, 10.64966
1292.824, 16.59047
1293.306, 17.17082
1293.788, 10.68175
1294.270, 5.292709
1294.752, 5.090942
1295.235, 7.264145
1295.717, 8.727905
1296.199, 9.542984
1296.681, 9.927170
1297.163, 10.03079
1297.645, 10.29826
1298.127, 10.48387
1298.609, 9.077835
1299.092, 4.562576
1299.574, 3.327240
1300.056, 7.671234
1300.538, 13.37466
1301.020, 16.02722
1301.502, 15.80235
1301.984, 10.96333
1302.466, 2.415375
1302.948, 0.1394500
1303.431, 4.251938
1303.913, 7.238739
1304.395, 4.966736
1304.877, 0.0000000E+00
##END=



