##NAMES=Cerussite
##RRUFFID=R050011
##IDEAL CHEMISTRY=PbCO_3_
##LOCALITY=Daoping Lead and Zinc mine, Gongcheng, Guangxi, China
##OWNER=RRUFF
##SOURCE=Eugene Schlepp
##DESCRIPTION=Colorless hexagonal bipyramidal crystals
##STATUS=The identification of this mineral has been confirmed by X-ray diffraction and chemical analysis
##URL=rruff.info/R050011
##MEASURED CHEMISTRY=Pb_1.00_CO_3_ ; CO_2_ not measured but estimated by difference and stoichiometry
54.266, 0.000
55.666, 16.074
57.065, 30.305
58.464, 29.299
59.863, 0.097
61.262, 21.905
62.661, 2.199
64.059, 8.540
65.458, 81.443
66.856, 114.376
68.253, 144.914
69.651, 152.713
71.048, 188.491
72.445, 266.017
73.842, 306.101
75.239, 377.584
76.635, 412.328
78.031, 424.210
79.427, 492.122
80.823, 528.968
82.218, 621.669
83.614, 719.153
85.009, 803.359
86.404, 958.232
87.798, 1064.726
89.193, 1195.802
90.587, 1348.426
91.981, 1540.565
93.375, 1729.188
94.768, 2005.267
96.161, 2286.777
97.554, 2640.683
98.947, 3015.950
100.340, 3363.551
101.732, 3715.462
103.124, 3887.665
104.516, 3919.143
105.908, 3686.881
107.300, 3388.869
108.691, 2970.099
110.082, 2606.559
111.473, 2511.240
112.864, 2313.132
114.254, 2304.230
115.644, 2339.523
117.034, 2474.004
118.424, 2577.667
119.813, 2742.511
121.203, 2963.542
122.592, 3378.755
123.981, 3708.162
125.369, 4180.735
126.758, 4767.483
128.146, 5199.398
129.534, 5858.459
130.922, 6333.646
132.309, 6737.964
133.696, 6824.406
135.083, 6648.999
136.470, 6239.738
137.857, 5981.572
139.243, 5356.388
140.630, 4957.213
142.016, 4591.039
143.401, 4279.899
144.787, 3995.810
146.172, 3791.760
147.557, 3679.747
148.942, 3526.798
150.327, 3418.924
151.711, 3237.099
153.096, 3088.324
154.480, 2916.609
155.863, 2769.961
157.247, 2526.391
158.630, 2245.908
160.013, 2155.529
161.396, 1985.226
162.779, 1886.997
164.161, 1731.825
165.544, 1668.707
166.926, 1638.657
168.308, 1619.675
169.689, 1616.761
171.070, 1630.904
172.452, 1615.112
173.833, 1651.371
175.213, 1659.681
176.594, 1601.042
177.974, 1644.455
179.354, 1550.932
180.734, 1517.476
182.114, 1407.053
183.493, 1382.687
184.872, 1309.754
186.251, 1185.953
187.630, 1158.739
189.008, 1127.042
190.387, 989.742
191.765, 969.352
193.143, 930.205
194.520, 918.317
195.898, 856.692
197.275, 813.311
198.652, 783.818
200.029, 780.914
201.405, 783.581
202.782, 765.748
204.158, 756.106
205.534, 734.344
206.909, 727.615
208.285, 746.920
209.660, 719.011
211.035, 687.569
212.410, 696.970
213.784, 666.900
215.159, 637.159
216.533, 643.112
217.907, 626.045
219.281, 637.768
220.654, 603.740
222.027, 579.801
223.400, 543.683
224.773, 549.923
226.146, 546.557
227.518, 545.613
228.891, 552.587
230.263, 516.582
231.634, 510.295
233.006, 518.674
234.377, 488.907
235.748, 479.032
237.119, 462.946
238.490, 480.116
239.860, 488.259
241.231, 470.241
242.601, 482.158
243.970, 482.495
245.340, 444.346
246.709, 445.954
248.079, 449.640
249.448, 381.412
250.816, 411.254
252.185, 382.169
253.553, 374.004
254.921, 307.144
256.289, 316.858
257.657, 258.043
259.024, 236.824
260.391, 233.086
261.758, 204.310
263.125, 216.583
264.492, 188.105
265.858, 202.563
267.224, 207.995
268.590, 175.927
269.956, 151.506
271.321, 168.289
272.687, 143.946
274.052, 131.639
275.416, 102.368
276.781, 101.074
278.146, 94.983
279.510, 102.811
280.874, 98.673
282.237, 91.272
283.601, 92.913
284.964, 86.867
286.327, 81.878
287.690, 97.799
289.053, 82.831
290.416, 76.891
291.778, 66.972
293.140, 48.075
294.502, 86.200
295.863, 83.346
297.225, 77.584
298.586, 60.776
299.947, 68.301
301.308, 79.643
302.668, 60.994
304.029, 46.269
305.389, 0.147
306.749, 33.157
308.108, 9.479
309.468, 7.751
310.827, 42.109
312.186, 11.515
313.545, 13.265
314.903, 22.856
316.262, 35.674
317.620, 6.113
318.978, 1.566
320.336, 11.035
321.693, 22.469
323.051, 5.026
324.408, 32.465
325.765, 0.318
327.121, 28.151
328.478, 3.609
329.834, 32.056
331.190, 6.505
332.546, 8.921
333.902, 0.664
335.257, 16.741
336.612, 23.136
337.967, 5.476
339.322, 15.594
340.677, 34.964
342.031, 8.671
343.385, 18.335
344.739, 37.013
346.093, 13.371
347.446, 15.292
348.799, 2.283
350.153, 7.043
351.505, 10.636
352.858, 6.386
354.210, 14.072
355.563, 15.725
356.915, 16.360
358.267, 12.276
359.618, 9.976
360.969, 2.678
362.321, 21.621
363.672, 17.484
365.022, 5.816
366.373, 48.600
367.723, 17.307
369.073, 36.691
370.423, 22.019
371.773, 11.180
373.122, 9.469
374.471, 11.476
375.821, 24.130
377.169, 10.573
378.518, 9.724
379.866, 27.469
381.215, 26.758
382.563, 11.334
383.910, 21.100
385.258, 37.173
386.605, 22.166
387.952, 7.266
389.299, 22.499
390.646, 14.705
391.992, 14.502
393.339, 25.639
394.685, 14.619
396.031, 7.790
397.376, 1.636
398.722, 29.404
400.067, 4.245
401.412, 16.096
402.757, 8.812
404.101, 25.351
405.446, 11.477
406.790, 1.399
408.134, 25.252
409.478, 25.110
410.821, 53.569
412.165, 32.437
413.508, 32.630
414.851, 6.494
416.193, 12.378
417.536, 0.748
418.878, 17.123
420.220, 37.004
421.562, 31.042
422.904, 20.482
424.245, 26.508
425.586, 7.810
426.927, 23.086
428.268, 22.061
429.609, 8.797
430.949, 30.593
432.289, 16.904
433.629, 39.750
434.969, 51.593
436.309, 42.703
437.648, 0.505
438.987, 59.512
440.326, 2.706
441.665, 32.825
443.003, 6.292
444.342, 6.607
445.680, 60.362
447.018, 30.115
448.355, 3.865
449.693, 34.810
451.030, 34.547
452.367, 46.504
453.704, 50.390
455.041, 66.961
456.377, 50.684
457.713, 32.506
459.049, 38.227
460.385, 23.470
461.721, 4.180
463.056, 33.265
464.391, 39.955
465.726, 26.721
467.061, 54.386
468.395, 72.102
469.730, 10.768
471.064, 73.007
472.398, 88.660
473.731, 5.272
475.065, 80.182
476.398, 38.430
477.731, 56.038
479.064, 132.639
480.397, 86.322
481.729, 47.912
483.062, 68.104
484.394, 62.680
485.725, 34.559
487.057, 86.124
488.389, 78.294
489.720, 60.799
491.051, 125.609
492.382, 66.344
493.712, 79.842
495.043, 123.355
496.373, 100.837
497.703, 70.839
499.032, 35.337
500.362, 69.521
501.691, 60.051
503.020, 51.524
504.349, 79.990
505.678, 15.493
507.007, 98.717
508.335, 35.236
509.663, 86.657
510.991, 75.930
512.319, 50.335
513.646, 67.731
514.973, 54.119
516.300, 95.499
517.627, 49.869
518.954, 93.231
520.280, 103.583
521.607, 61.927
522.933, 36.554
524.259, 96.877
525.584, 27.009
526.910, 75.309
528.235, 42.599
529.560, 61.432
530.885, 52.703
532.209, 81.544
533.534, 42.427
534.858, 29.209
536.182, 80.442
537.506, 89.658
538.829, 33.431
540.152, 53.625
541.476, 36.610
542.799, 54.781
544.121, 112.112
545.444, 41.503
546.766, 46.835
548.088, 69.906
549.410, 8.802
550.732, 83.288
552.053, 54.538
553.375, 43.582
554.696, 58.627
556.017, 38.095
557.337, 45.899
558.658, 77.926
559.978, 64.299
561.298, 45.309
562.618, 28.682
563.938, 59.109
565.257, 58.182
566.576, 76.818
567.895, 96.769
569.214, 12.286
570.533, 64.625
571.851, 9.527
573.170, 76.406
574.488, 68.418
575.805, 87.177
577.123, 98.409
578.440, 104.220
579.758, 43.480
581.075, 25.337
582.391, 46.620
583.708, 15.322
585.024, 48.119
586.341, 52.878
587.657, 48.706
588.972, 58.588
590.288, 23.955
591.603, 49.592
592.918, 50.294
594.233, 32.028
595.548, 65.707
596.863, 35.529
598.177, 70.482
599.491, 15.239
600.805, 17.219
602.119, 21.411
603.432, 61.434
604.746, 57.056
606.059, 75.651
607.372, 35.300
608.685, 94.052
609.997, 34.591
611.309, 83.134
612.621, 78.858
613.933, 81.366
615.245, 44.358
616.557, 112.773
617.868, 22.349
619.179, 92.493
620.490, 26.828
621.801, 91.160
623.111, 5.574
624.421, 83.683
625.731, 48.079
627.041, 84.465
628.351, 17.906
629.660, 54.344
630.970, 18.694
632.279, 61.173
633.588, 84.499
634.896, 76.931
636.205, 78.239
637.513, 42.616
638.821, 72.930
640.129, 73.194
641.437, 61.462
642.744, 99.721
644.051, 50.754
645.358, 34.073
646.665, 87.442
647.972, 72.679
649.278, 34.046
650.584, 42.297
651.890, 53.492
653.196, 28.820
654.502, 73.994
655.807, 54.162
657.113, 73.012
658.418, 72.459
659.722, 75.427
661.027, 66.543
662.331, 39.669
663.636, 44.803
664.940, 42.505
666.244, 63.692
667.547, 61.784
668.851, 72.867
670.154, 94.875
671.457, 89.940
672.760, 121.964
674.062, 162.010
675.365, 228.950
676.667, 252.978
677.969, 192.997
679.271, 283.007
680.572, 328.608
681.874, 508.603
683.175, 610.877
684.476, 519.855
685.777, 363.534
687.077, 248.500
688.378, 125.369
689.678, 60.321
690.978, 117.983
692.278, 107.288
693.577, 91.222
694.877, 70.148
696.176, 176.570
697.475, 108.404
698.774, 146.909
700.072, 28.750
701.371, 71.640
702.669, 20.299
703.967, 41.977
705.265, 16.873
706.562, 55.292
707.860, 65.128
709.157, 11.896
710.454, 19.469
711.751, 51.865
713.047, 23.130
714.344, 76.440
715.640, 4.021
716.936, 60.780
718.232, 31.300
719.527, 48.507
720.823, 57.258
722.118, 57.099
723.413, 53.839
724.708, 67.653
726.002, 61.822
727.297, 55.541
728.591, 89.932
729.885, 78.488
731.179, 82.341
732.472, 72.100
733.766, 77.731
735.059, 50.713
736.352, 40.210
737.645, 14.274
738.937, 73.826
740.230, 21.639
741.522, 82.244
742.814, 44.886
744.106, 49.510
745.397, 16.188
746.689, 26.343
747.980, 70.956
749.271, 36.584
750.562, 69.920
751.853, 23.649
753.143, 3.060
754.433, 8.698
755.723, 0.337
757.013, 2.504
758.303, 15.589
759.592, 35.217
760.881, 31.831
762.170, 77.508
763.459, 7.930
764.748, 58.532
766.036, 39.904
767.325, 6.584
768.613, 48.169
769.901, 21.240
771.188, 53.227
772.476, 17.786
773.763, 47.814
775.050, 113.364
776.337, 56.526
777.624, 57.073
778.910, 42.533
780.196, 49.074
781.482, 47.581
782.768, 49.215
784.054, 21.173
785.339, 57.694
786.625, 62.695
787.910, 66.223
789.195, 0.254
790.479, 54.264
791.764, 19.779
793.048, 32.198
794.332, 116.704
795.616, 46.226
796.900, 111.725
798.183, 27.220
799.467, 19.698
800.750, 6.986
802.033, 34.469
803.316, 4.949
804.598, 26.223
805.880, 50.599
807.163, 5.068
808.445, 59.250
809.726, 92.788
811.008, 60.246
812.289, 7.894
813.570, 75.471
814.851, 80.921
816.132, 80.367
817.413, 88.687
818.693, 107.054
819.973, 75.423
821.253, 135.865
822.533, 170.305
823.813, 152.743
825.092, 247.271
826.371, 212.703
827.650, 253.132
828.929, 231.696
830.208, 250.122
831.486, 297.600
832.764, 503.022
834.042, 691.443
835.320, 1219.865
836.598, 2078.285
837.875, 3200.708
839.152, 3985.128
840.429, 3261.548
841.706, 2011.968
842.983, 1199.386
844.259, 702.803
845.536, 429.219
846.812, 329.636
848.088, 154.051
849.363, 195.464
850.639, 88.978
851.914, 110.391
853.189, 101.805
854.464, 52.052
855.739, 22.465
857.013, 35.610
858.288, 109.652
859.562, 83.770
860.836, 67.204
862.110, 41.638
863.383, 22.726
864.656, 15.705
865.930, 15.667
867.203, 46.054
868.475, 22.515
869.748, 30.417
871.020, 30.839
872.292, 11.150
873.564, 19.564
874.836, 1.004
876.108, 87.436
877.379, 28.117
878.650, 16.331
879.922, 97.790
881.192, 57.248
882.463, 59.719
883.733, 25.202
885.004, 10.684
886.274, 25.826
887.544, 9.551
888.813, 27.132
890.083, 42.572
891.352, 51.151
892.621, 64.334
893.890, 61.688
895.159, 70.177
896.427, 80.655
897.695, 80.836
898.964, 69.455
900.232, 91.856
901.499, 22.341
902.767, 30.788
904.034, 7.276
905.301, 56.665
906.568, 50.861
907.835, 43.128
909.102, 56.289
910.368, 23.519
911.634, 24.893
912.900, 90.378
914.166, 10.849
915.432, 22.368
916.697, 63.686
917.962, 34.201
919.227, 6.702
920.492, 99.012
921.757, 25.524
923.021, 29.541
924.285, 52.051
925.550, 48.455
926.813, 110.963
928.077, 36.469
929.341, 111.975
930.604, 38.479
931.867, 65.985
933.130, 24.488
934.393, 47.989
935.655, 1.486
936.918, 93.905
938.180, 20.401
939.442, 63.896
940.703, 47.390
941.965, 49.660
943.226, 54.148
944.488, 71.554
945.749, 40.010
947.009, 25.491
948.270, 44.969
949.530, 112.449
950.791, 73.881
952.051, 84.279
953.311, 95.622
954.570, 85.411
955.830, 105.837
957.089, 89.168
958.348, 99.658
959.607, 93.001
960.866, 14.484
962.124, 56.969
963.383, 3.549
964.641, 3.817
965.899, 95.299
967.156, 94.776
968.414, 71.396
969.671, 57.106
970.928, 57.580
972.185, 122.051
973.442, 57.752
974.699, 88.214
975.955, 13.672
977.211, 105.124
978.468, 71.581
979.723, 4.181
980.979, 195.812
982.234, 24.408
983.490, 83.114
984.745, 104.825
986.000, 61.606
987.254, 73.323
988.509, 93.124
989.763, 47.694
991.017, 65.500
992.271, 73.086
993.525, 112.671
994.779, 78.300
996.032, 100.800
997.285, 116.339
998.538, 58.958
999.791, 206.484
1001.044, 18.112
1002.296, 116.742
1003.548, 63.366
1004.800, 110.475
1006.052, 143.015
1007.304, 114.382
1008.555, 110.137
1009.807, 115.827
1011.058, 185.529
1012.309, 85.407
1013.559, 132.030
1014.810, 162.714
1016.060, 101.065
1017.310, 99.314
1018.560, 188.886
1019.810, 142.732
1021.060, 126.246
1022.309, 133.765
1023.558, 204.710
1024.807, 199.115
1026.056, 216.754
1027.305, 136.077
1028.553, 248.221
1029.801, 290.995
1031.049, 385.494
1032.297, 448.863
1033.545, 426.329
1034.793, 350.781
1036.040, 393.434
1037.287, 245.058
1038.534, 289.184
1039.781, 305.120
1041.027, 362.103
1042.274, 414.957
1043.520, 498.840
1044.766, 555.366
1046.012, 682.962
1047.257, 790.277
1048.503, 1163.608
1049.748, 1510.878
1050.993, 2719.207
1052.238, 6150.627
1053.483, 17742.828
1054.727, 42986.945
1055.971, 53981.285
1057.216, 33760.457
1058.459, 15875.289
1059.703, 7250.575
1060.947, 3659.945
1062.190, 1911.933
1063.433, 1120.254
1064.676, 734.349
1065.919, 634.485
1067.162, 465.626
1068.404, 385.827
1069.646, 384.262
1070.888, 328.495
1072.130, 243.697
1073.372, 284.918
1074.613, 230.011
1075.855, 249.147
1077.096, 293.200
1078.337, 117.222
1079.578, 238.224
1080.818, 265.145
1082.059, 197.123
1083.299, 256.976
1084.539, 172.848
1085.779, 197.664
1087.018, 152.912
1088.258, 142.128
1089.497, 190.931
1090.736, 131.819
1091.975, 144.652
1093.213, 139.543
1094.452, 194.405
1095.690, 108.332
1096.928, 166.189
1098.166, 143.146
1099.404, 124.958
1100.642, 161.790
1101.879, 127.073
1103.116, 118.621
1104.353, 88.788
1105.590, 37.307
1106.827, 144.026
1108.063, 101.644
1109.299, 157.218
1110.536, 125.966
1111.771, 126.759
1113.007, 130.278
1114.243, 109.819
1115.478, 131.248
1116.713, 70.320
1117.948, 47.890
1119.183, 118.445
1120.418, 110.023
1121.652, 47.581
1122.886, 124.878
1124.120, 175.281
1125.354, 107.539
1126.588, 136.864
1127.821, 70.096
1129.055, 61.329
1130.288, 68.526
1131.521, 41.865
1132.753, 39.793
1133.986, 30.829
1135.218, 38.010
1136.450, 27.175
1137.682, 68.259
1138.914, 25.358
1140.146, 61.404
1141.377, 60.535
1142.609, 48.543
1143.840, 79.209
1145.071, 68.277
1146.301, 50.984
1147.532, 71.919
1148.762, 45.840
1149.992, 43.685
1151.222, 43.563
1152.452, 8.422
1153.682, 60.356
1154.911, 89.173
1156.140, 34.915
1157.369, 33.838
1158.598, 31.571
1159.827, 16.284
1161.055, 38.975
1162.284, 27.509
1163.512, 5.705
1164.740, 19.917
1165.967, 44.523
1167.195, 32.106
1168.422, 54.672
1169.650, 51.219
1170.877, 8.253
1172.103, 0.758
1173.330, 20.651
1174.557, 13.861
1175.783, 28.468
1177.009, 13.888
1178.235, 40.221
1179.461, 15.465
1180.686, 33.188
1181.912, 43.044
1183.137, 21.742
1184.362, 25.431
1185.587, 42.589
1186.811, 6.729
1188.036, 11.156
1189.260, 42.927
1190.484, 47.989
1191.708, 21.033
1192.932, 15.058
1194.155, 48.060
1195.378, 41.043
1196.602, 53.009
1197.825, 35.955
1199.047, 5.118
1200.270, 59.781
1201.492, 58.661
1202.715, 20.476
1203.937, 58.351
1205.159, 60.840
1206.380, 28.911
1207.602, 16.643
1208.823, 16.645
1210.044, 19.034
1211.265, 40.694
1212.486, 38.337
1213.707, 38.961
1214.927, 25.569
1216.147, 5.159
1217.367, 17.727
1218.587, 18.277
1219.807, 15.810
1221.027, 30.324
1222.246, 21.822
1223.465, 32.408
1224.684, 36.054
1225.903, 37.214
1227.121, 52.646
1228.340, 35.064
1229.558, 57.429
1230.776, 52.855
1231.994, 35.234
1233.212, 3.599
1234.429, 19.348
1235.646, 7.280
1236.864, 29.598
1238.081, 38.903
1239.297, 21.194
1240.514, 24.472
1241.730, 12.354
1242.947, 15.970
1244.163, 11.811
1245.378, 20.380
1246.594, 14.530
1247.810, 18.338
1249.025, 108.765
1250.240, 81.161
1251.455, 79.834
1252.670, 16.589
1253.885, 36.580
1255.099, 42.553
1256.313, 14.490
1257.527, 1.436
1258.741, 29.657
1259.955, 7.222
1261.168, 55.083
1262.382, 21.071
1263.595, 11.614
1264.808, 10.187
1266.021, 3.974
1267.233, 3.733
1268.446, 70.241
1269.658, 26.969
1270.870, 34.681
1272.082, 29.629
1273.294, 63.037
1274.505, 15.539
1275.716, 65.989
1276.928, 6.545
1278.139, 7.790
1279.349, 12.101
1280.560, 33.321
1281.770, 31.587
1282.981, 60.749
1284.191, 36.123
1285.401, 57.243
1286.610, 17.562
1287.820, 61.864
1289.029, 11.896
1290.239, 63.453
1291.448, 31.255
1292.656, 70.937
1293.865, 35.205
1295.073, 24.352
1296.282, 96.479
1297.490, 106.594
1298.698, 8.205
1299.906, 38.368
1301.113, 22.359
1302.320, 78.555
1303.528, 61.530
1304.735, 67.478
1305.942, 111.230
1307.148, 33.220
1308.355, 130.105
1309.561, 99.798
1310.767, 15.578
1311.973, 197.566
1313.179, 152.454
1314.384, 38.466
1315.590, 37.456
1316.795, 150.942
1318.000, 63.987
1319.205, 173.684
1320.410, 81.804
1321.614, 96.003
1322.819, 87.601
1324.023, 57.497
1325.227, 152.507
1326.431, 103.405
1327.634, 162.301
1328.838, 94.920
1330.041, 51.679
1331.244, 67.565
1332.447, 49.992
1333.650, 89.220
1334.852, 85.104
1336.055, 124.008
1337.257, 156.727
1338.459, 156.364
1339.661, 163.191
1340.862, 171.150
1342.064, 151.082
1343.265, 159.194
1344.466, 128.688
1345.667, 161.658
1346.868, 167.628
1348.068, 183.443
1349.269, 172.423
1350.469, 257.734
1351.669, 235.589
1352.869, 294.343
1354.069, 382.481
1355.268, 442.290
1356.468, 493.256
1357.667, 570.225
1358.866, 633.212
1360.065, 730.182
1361.263, 751.750
1362.462, 931.654
1363.660, 974.584
1364.858, 1061.520
1366.056, 1195.592
1367.254, 1300.633
1368.451, 1441.771
1369.649, 1584.957
1370.846, 1642.182
1372.043, 1823.531
1373.240, 2023.829
1374.436, 2284.268
1375.633, 2555.698
1376.829, 2828.154
1378.025, 2925.341
1379.221, 3064.854
1380.417, 3014.192
1381.613, 2841.742
1382.808, 2621.362
1384.003, 2271.979
1385.199, 1965.651
1386.393, 1803.176
1387.588, 1494.822
1388.783, 1172.158
1389.977, 1073.364
1391.171, 764.020
1392.365, 730.464
1393.559, 614.615
1394.753, 558.242
1395.946, 546.089
1397.140, 334.474
1398.333, 300.073
1399.526, 295.692
1400.719, 300.178
1401.911, 220.805
1403.104, 244.763
1404.296, 209.293
1405.488, 180.987
1406.680, 183.705
1407.872, 243.331
1409.063, 192.252
1410.255, 214.710
1411.446, 214.341
1412.637, 190.026
1413.828, 368.585
1415.018, 275.853
1416.209, 322.541
1417.399, 348.228
1418.589, 282.920
1419.779, 375.612
1420.969, 422.307
1422.159, 473.005
1423.348, 469.193
1424.537, 344.514
1425.726, 413.313
1426.915, 396.155
1428.104, 352.031
1429.293, 364.924
1430.481, 333.839
1431.669, 349.767
1432.857, 296.702
1434.045, 393.641
1435.233, 328.585
1436.420, 384.547
1437.608, 438.527
1438.795, 385.556
1439.982, 355.625
1441.169, 312.728
1442.355, 312.837
1443.542, 333.952
1444.728, 352.079
1445.914, 399.213
1447.100, 312.352
1448.286, 419.491
1449.472, 316.627
1450.657, 628.756
1451.842, 616.856
1453.027, 588.949
1454.212, 518.028
1455.397, 553.087
1456.581, 706.164
1457.766, 628.281
1458.950, 735.528
1460.134, 869.849
1461.318, 878.240
1462.501, 926.687
1463.685, 961.189
1464.868, 1071.758
1466.051, 1091.377
1467.234, 1164.037
1468.417, 1341.783
1469.600, 1308.604
1470.782, 1363.497
1471.965, 1534.462
1473.147, 1617.487
1474.329, 1512.576
1475.510, 1700.730
1476.692, 1728.951
1477.873, 1665.239
1479.055, 1692.599
1480.236, 1717.034
1481.416, 1649.549
1482.597, 1763.148
1483.778, 1601.833
1484.958, 1631.608
1486.138, 1537.480
1487.318, 1424.459
1488.498, 1310.553
1489.678, 1317.776
1490.857, 1089.144
1492.037, 1039.670
1493.216, 897.361
1494.395, 984.223
1495.574, 817.263
1496.752, 544.494
1497.931, 642.928
1499.109, 410.575
1500.287, 483.452
1501.465, 382.578
1502.643, 348.975
1503.820, 269.669
1504.998, 204.688
1506.175, 169.068
1507.352, 98.847
1508.529, 110.069
1509.706, 49.670
1510.882, 33.034
1512.059, 17.899
1513.235, 1.542
1514.411, 89.812
1515.587, 54.085
1516.762, 17.568
1517.938, 119.046
1519.113, 26.180
1520.288, 51.630
1521.463, 58.048
1522.638, 28.859
1523.813, 48.547
1524.987, 0.000
##END=



