##NAMES=Cesbronite
##RRUFFID=R070198
##IDEAL CHEMISTRY=Cu_5_(Te^4+^O_3_)_2_(OH)_6_&#183;2H_2_O
##LOCALITY=Bambollita Mine (Oriental Mine), Moctezuma, Municipio de Moctezuma, Sonora, Mexico
##OWNER=RRUFF
##SOURCE=Michael Scott
##DESCRIPTION=Dark green prismatic crystals associated with quartz
##STATUS=The identification of this mineral has been confirmed only by single crystal X-ray diffraction.
##URL=rruff.info/R070198
143.9141, 0.0000000E+00
144.3962, 5.183105
144.8783, 35.68359
145.3604, 68.17725
145.8425, 49.83691
146.3247, 12.36182
146.8068, 22.57178
147.2889, 42.96240
147.7710, 68.91699
148.2531, 74.58496
148.7352, 25.23584
149.2174, 4.838867
149.6995, 1.498535
150.1816, 48.64160
150.6637, 83.65234
151.1458, 95.16846
151.6279, 98.18164
152.1101, 107.9512
152.5922, 141.2881
153.0743, 166.5645
153.5564, 171.1045
154.0385, 143.4346
154.5206, 130.3862
155.0028, 159.9878
155.4849, 207.4155
155.9670, 227.0713
156.4491, 184.9658
156.9312, 139.2930
157.4133, 117.2124
157.8955, 138.0513
158.3776, 156.2402
158.8597, 158.5625
159.3418, 148.4761
159.8239, 137.5757
160.3060, 132.5249
160.7882, 126.8022
161.2703, 115.7134
161.7524, 85.18506
162.2345, 61.36426
162.7166, 59.85840
163.1987, 78.49121
163.6808, 94.64746
164.1630, 102.8408
164.6451, 104.0337
165.1272, 94.49658
165.6093, 52.39160
166.0914, 14.18115
166.5735, 6.136719
167.0557, 36.26514
167.5378, 64.39697
168.0199, 75.41602
168.5020, 77.24951
168.9841, 79.67871
169.4662, 94.67920
169.9484, 113.1182
170.4305, 123.7632
170.9126, 122.9668
171.3947, 121.7319
171.8768, 126.0596
172.3589, 130.8589
172.8411, 131.3291
173.3232, 130.3433
173.8053, 131.0361
174.2874, 134.8833
174.7695, 144.5249
175.2516, 154.2271
175.7338, 153.6733
176.2159, 143.7075
176.6980, 129.7935
177.1801, 110.5947
177.6622, 90.39111
178.1443, 78.72168
178.6264, 82.52734
179.1086, 92.10840
179.5907, 91.94287
180.0728, 82.19922
180.5549, 69.96045
181.0370, 59.17090
181.5191, 50.43945
182.0013, 46.00684
182.4834, 50.90332
182.9655, 59.61719
183.4476, 58.73584
183.9297, 47.29053
184.4118, 32.75391
184.8940, 20.20410
185.3761, 10.42773
185.8582, 8.350586
186.3403, 21.62354
186.8224, 45.56396
187.3046, 63.30518
187.7867, 75.72412
188.2688, 79.05322
188.7509, 60.63135
189.2330, 21.37207
189.7151, 10.93994
190.1973, 16.10938
190.6794, 1.973145
191.1615, 10.99951
191.6436, 6.967773
192.1257, 4.173828
192.6078, 10.01270
193.0900, 9.984863
193.5721, 10.95605
194.0542, 18.85986
194.5363, 33.44287
195.0184, 45.44971
195.5005, 53.90771
195.9826, 58.87598
196.4648, 59.12598
196.9469, 53.81982
197.4290, 48.55469
197.9111, 48.59375
198.3932, 54.54102
198.8753, 58.79688
199.3575, 60.71191
199.8396, 59.80811
200.3217, 51.04102
200.8038, 31.41699
201.2859, 13.26514
201.7680, 11.02539
202.2502, 27.82520
202.7323, 42.51953
203.2144, 51.30029
203.6965, 53.93848
204.1786, 47.12598
204.6607, 28.13428
205.1429, 4.532715
205.6250, 13.69043
206.1071, 25.32666
206.5892, 34.84570
207.0713, 41.69092
207.5534, 46.86279
208.0356, 57.62305
208.5177, 77.66113
208.9998, 97.58203
209.4819, 99.78174
209.9640, 75.65527
210.4461, 58.08789
210.9282, 62.61914
211.4104, 95.86377
211.8925, 118.2896
212.3746, 125.4731
212.8567, 124.9829
213.3388, 134.1182
213.8209, 158.2451
214.3031, 180.2935
214.7852, 190.0210
215.2673, 179.3477
215.7494, 182.9277
216.2315, 207.7061
216.7136, 245.3413
217.1958, 270.7979
217.6779, 279.2485
218.1600, 284.7134
218.6421, 297.0093
219.1242, 324.8154
219.6063, 335.0767
220.0885, 316.7715
220.5706, 279.1577
221.0527, 263.6025
221.5348, 276.6509
222.0169, 301.9668
222.4990, 331.2856
222.9812, 368.3091
223.4633, 400.0254
223.9454, 424.4512
224.4275, 442.2329
224.9096, 452.2739
225.3917, 442.9849
225.8739, 439.6011
226.3560, 463.8931
226.8381, 533.0693
227.3202, 594.9551
227.8023, 643.1587
228.2844, 677.4541
228.7665, 703.1309
229.2487, 710.3623
229.7308, 718.6250
230.2129, 746.0869
230.6950, 800.9014
231.1771, 859.0171
231.6592, 917.1094
232.1414, 974.7788
232.6235, 1035.071
233.1056, 1095.187
233.5877, 1159.675
234.0698, 1232.143
234.5519, 1313.654
235.0341, 1400.889
235.5162, 1494.773
235.9983, 1595.346
236.4804, 1698.696
236.9625, 1807.770
237.4446, 1917.205
237.9268, 2019.433
238.4089, 2101.282
238.8910, 2200.239
239.3731, 2327.436
239.8552, 2486.671
240.3373, 2655.729
240.8195, 2846.129
241.3016, 3038.297
241.7837, 3204.493
242.2658, 3323.076
242.7479, 3451.401
243.2300, 3607.848
243.7122, 3799.799
244.1943, 3991.441
244.6764, 4181.964
245.1585, 4371.695
245.6406, 4563.208
246.1227, 4748.444
246.6048, 4949.109
247.0870, 5178.155
247.5691, 5451.195
248.0512, 5697.057
248.5333, 5912.197
249.0154, 6103.191
249.4975, 6280.847
249.9797, 6433.419
250.4618, 6593.974
250.9439, 6778.252
251.4260, 7000.302
251.9081, 7206.668
252.3902, 7398.767
252.8724, 7576.370
253.3545, 7739.847
253.8366, 7901.607
254.3187, 8027.355
254.8008, 8099.402
255.2829, 8102.022
255.7651, 8095.205
256.2472, 8090.057
256.7293, 8070.501
257.2114, 7995.803
257.6935, 7853.572
258.1756, 7680.252
258.6577, 7492.941
259.1399, 7289.672
259.6220, 7070.935
260.1041, 6829.080
260.5862, 6571.755
261.0683, 6323.091
261.5504, 6084.841
262.0326, 5853.730
262.5147, 5626.740
262.9968, 5406.759
263.4789, 5186.334
263.9610, 4966.215
264.4431, 4745.844
264.9253, 4527.602
265.4074, 4307.088
265.8895, 4099.451
266.3716, 3910.967
266.8537, 3744.480
267.3358, 3591.718
267.8180, 3454.163
268.3001, 3328.322
268.7822, 3199.016
269.2643, 3062.496
269.7464, 2933.818
270.2285, 2821.664
270.7107, 2730.850
271.1928, 2633.112
271.6749, 2522.035
272.1570, 2405.626
272.6391, 2311.308
273.1212, 2243.654
273.6034, 2183.158
274.0855, 2119.780
274.5676, 2053.429
275.0497, 1983.611
275.5318, 1907.391
276.0139, 1829.931
276.4961, 1766.597
276.9782, 1718.270
277.4603, 1680.192
277.9424, 1653.840
278.4245, 1639.996
278.9066, 1619.895
279.3888, 1591.880
279.8709, 1556.806
280.3530, 1510.890
280.8351, 1450.258
281.3172, 1403.554
281.7993, 1400.134
282.2815, 1438.740
282.7636, 1454.742
283.2457, 1437.881
283.7278, 1400.683
284.2099, 1368.080
284.6920, 1340.134
285.1741, 1315.912
285.6563, 1295.690
286.1384, 1279.115
286.6205, 1263.620
287.1026, 1247.763
287.5847, 1234.677
288.0668, 1232.431
288.5490, 1241.007
289.0311, 1250.270
289.5132, 1252.575
289.9953, 1249.614
290.4774, 1251.126
290.9595, 1259.960
291.4417, 1269.749
291.9238, 1265.531
292.4059, 1248.874
292.8880, 1238.652
293.3701, 1250.699
293.8522, 1278.895
294.3344, 1304.706
294.8165, 1326.843
295.2986, 1344.880
295.7807, 1360.314
296.2628, 1372.345
296.7449, 1374.669
297.2271, 1349.780
297.7092, 1313.723
298.1913, 1304.199
298.6734, 1331.914
299.1555, 1367.654
299.6376, 1370.813
300.1198, 1349.235
300.6019, 1333.191
301.0840, 1346.840
301.5661, 1375.361
302.0482, 1394.941
302.5303, 1402.024
303.0125, 1405.360
303.4946, 1415.250
303.9767, 1430.288
304.4588, 1444.294
304.9409, 1447.504
305.4230, 1448.606
305.9052, 1462.153
306.3873, 1493.410
306.8694, 1517.957
307.3515, 1509.896
307.8336, 1480.451
308.3157, 1451.775
308.7979, 1429.921
309.2800, 1417.132
309.7621, 1422.252
310.2442, 1450.184
310.7263, 1463.816
311.2084, 1422.078
311.6906, 1353.350
312.1727, 1302.781
312.6548, 1303.469
313.1369, 1318.778
313.6190, 1328.681
314.1011, 1333.008
314.5833, 1330.889
315.0654, 1315.676
315.5475, 1293.561
316.0296, 1272.670
316.5117, 1260.263
316.9938, 1246.861
317.4760, 1230.711
317.9580, 1212.015
318.4402, 1184.924
318.9223, 1133.140
319.4044, 1075.873
319.8865, 1033.230
320.3686, 1028.070
320.8507, 1022.851
321.3329, 1004.024
321.8150, 970.6997
322.2971, 945.0396
322.7792, 943.5146
323.2613, 946.3521
323.7434, 935.9131
324.2256, 888.7822
324.7077, 850.3364
325.1898, 834.1123
325.6719, 839.7847
326.1540, 834.8354
326.6361, 814.8462
327.1183, 785.3813
327.6004, 749.8379
328.0825, 695.1714
328.5646, 650.9961
329.0467, 622.7417
329.5288, 608.0107
330.0110, 594.8945
330.4931, 592.3984
330.9752, 583.3457
331.4573, 555.8418
331.9394, 491.9067
332.4215, 441.8574
332.9037, 408.2959
333.3858, 390.8423
333.8679, 391.3330
334.3500, 427.2227
334.8321, 453.2231
335.3142, 441.1177
335.7964, 373.1304
336.2785, 322.1870
336.7606, 294.2349
337.2427, 282.0991
337.7248, 268.7656
338.2069, 253.7974
338.6891, 239.8662
339.1712, 231.7271
339.6533, 231.7983
340.1354, 211.5801
340.6175, 161.7759
341.0996, 105.7090
341.5818, 89.95068
342.0639, 118.2373
342.5460, 146.4014
343.0281, 156.5508
343.5102, 149.7373
343.9923, 133.7959
344.4745, 106.9067
344.9566, 78.88672
345.4387, 63.24414
345.9208, 58.49561
346.4029, 56.75098
346.8850, 50.53369
347.3672, 47.09277
347.8493, 77.44189
348.3314, 143.8057
348.8135, 198.0713
349.2956, 176.8745
349.7777, 102.8096
350.2599, 40.95068
350.7419, 17.30713
351.2241, 15.91797
351.7062, 16.94092
352.1883, 18.87939
352.6704, 17.19824
353.1525, 5.855469
353.6346, 8.560547
354.1168, 15.58691
354.5989, 5.154297
355.0810, 5.579590
355.5631, 3.083984
356.0452, 27.03906
356.5273, 46.42871
357.0095, 49.34277
357.4916, 41.93066
357.9737, 28.93262
358.4558, 6.344727
358.9379, 11.36133
359.4200, 18.88281
359.9022, 16.28613
360.3843, 3.215820
360.8664, 40.27734
361.3485, 80.61182
361.8306, 94.64941
362.3127, 68.70508
362.7949, 44.20361
363.2770, 34.44141
363.7591, 33.49170
364.2412, 31.40723
364.7233, 19.65039
365.2054, 11.94141
365.6876, 15.81592
366.1697, 36.66211
366.6518, 49.72803
367.1339, 47.30957
367.6160, 37.81982
368.0981, 30.86084
368.5803, 32.06348
369.0624, 29.50342
369.5445, 16.03271
370.0266, 10.17334
370.5087, 16.30078
370.9908, 13.88623
371.4730, 49.67969
371.9551, 64.88232
372.4372, 48.95947
372.9193, 33.70264
373.4014, 21.20410
373.8835, 12.53955
374.3657, 17.45996
374.8478, 43.74365
375.3299, 67.02686
375.8120, 68.08008
376.2941, 42.87256
376.7762, 19.87939
377.2584, 0.3374020
377.7405, 14.68799
378.2226, 8.384766
378.7047, 22.09570
379.1868, 43.15771
379.6689, 25.90527
380.1511, 23.52783
380.6332, 48.44678
381.1153, 41.58936
381.5974, 21.44873
382.0795, 13.76318
382.5616, 16.92627
383.0438, 21.31445
383.5259, 23.40771
384.0080, 23.47168
384.4901, 22.69873
384.9722, 21.23193
385.4543, 16.84131
385.9364, 0.1596680
386.4185, 20.88477
386.9007, 29.43604
387.3828, 10.74463
387.8649, 16.81592
388.3470, 36.19580
388.8291, 47.80859
389.3112, 55.79590
389.7934, 62.61279
390.2755, 67.05811
390.7576, 67.71338
391.2397, 63.01660
391.7218, 56.12549
392.2039, 47.39551
392.6861, 37.54639
393.1682, 28.80566
393.6503, 18.36816
394.1324, 11.88916
394.6145, 13.86670
395.0966, 30.10205
395.5788, 42.95215
396.0609, 47.43457
396.5430, 46.29395
397.0251, 44.14355
397.5072, 43.46240
397.9893, 40.09180
398.4715, 30.57959
398.9536, 11.79053
399.4357, 2.102539
399.9178, 7.979492
400.3999, 18.84277
400.8820, 24.80078
401.3642, 26.55029
401.8463, 21.51709
402.3284, 4.609375
402.8105, 22.06689
403.2926, 31.12354
403.7747, 13.91162
404.2569, 5.020020
404.7390, 3.378906
405.2211, 25.82715
405.7032, 35.54004
406.1853, 15.08838
406.6674, 21.37305
407.1496, 40.47900
407.6317, 41.38770
408.1138, 33.12988
408.5959, 11.85010
409.0780, 17.92334
409.5602, 23.14746
410.0423, 1.495605
410.5244, 36.48828
411.0065, 59.94971
411.4886, 72.81689
411.9707, 79.65381
412.4529, 80.59668
412.9350, 77.94971
413.4171, 74.73828
413.8992, 70.41357
414.3813, 66.22510
414.8634, 57.81787
415.3456, 52.64941
415.8277, 62.18213
416.3098, 100.7788
416.7919, 142.2881
417.2740, 169.8135
417.7561, 184.7739
418.2382, 195.3960
418.7203, 196.4136
419.2025, 197.3208
419.6846, 207.2734
420.1667, 234.7236
420.6488, 261.7290
421.1309, 276.7671
421.6130, 287.5200
422.0952, 309.1870
422.5773, 360.7305
423.0594, 408.8101
423.5415, 441.8970
424.0236, 454.9976
424.5057, 468.6504
424.9879, 473.9312
425.4700, 486.8848
425.9521, 523.4634
426.4342, 597.3804
426.9163, 670.5200
427.3984, 740.0845
427.8806, 805.8770
428.3627, 859.0073
428.8448, 893.5254
429.3269, 924.8096
429.8090, 963.9053
430.2911, 1013.247
430.7733, 1067.677
431.2554, 1127.776
431.7375, 1190.439
432.2196, 1248.769
432.7017, 1301.080
433.1838, 1357.567
433.6660, 1428.022
434.1481, 1509.653
434.6302, 1582.770
435.1123, 1645.667
435.5944, 1710.448
436.0765, 1792.202
436.5587, 1884.658
437.0408, 1976.340
437.5229, 2066.626
438.0050, 2155.383
438.4871, 2238.989
438.9692, 2317.775
439.4514, 2393.553
439.9335, 2463.050
440.4156, 2532.281
440.8977, 2605.937
441.3798, 2680.943
441.8619, 2767.731
442.3441, 2883.418
442.8262, 3013.018
443.3083, 3129.114
443.7904, 3204.935
444.2725, 3278.599
444.7546, 3368.174
445.2368, 3479.116
445.7189, 3587.012
446.2010, 3690.338
446.6831, 3785.984
447.1652, 3870.107
447.6473, 3924.247
448.1295, 3993.811
448.6116, 4087.901
449.0937, 4202.692
449.5758, 4315.318
450.0579, 4432.095
450.5400, 4534.039
451.0221, 4602.792
451.5042, 4627.902
451.9864, 4680.857
452.4685, 4772.630
452.9506, 4880.535
453.4327, 4965.791
453.9148, 5027.626
454.3969, 5090.450
454.8791, 5169.332
455.3612, 5255.660
455.8433, 5323.718
456.3254, 5372.932
456.8075, 5399.086
457.2896, 5380.146
457.7718, 5336.542
458.2539, 5314.001
458.7360, 5334.636
459.2181, 5362.199
459.7002, 5361.448
460.1823, 5336.793
460.6645, 5302.473
461.1466, 5264.054
461.6287, 5224.486
462.1108, 5186.404
462.5929, 5150.015
463.0750, 5104.414
463.5572, 5047.586
464.0393, 4982.287
464.5214, 4910.387
465.0035, 4817.344
465.4856, 4730.898
465.9677, 4664.099
466.4499, 4615.378
466.9320, 4552.350
467.4141, 4472.027
467.8962, 4383.228
468.3783, 4287.781
468.8604, 4177.325
469.3426, 4076.198
469.8247, 3987.260
470.3068, 3904.179
470.7889, 3811.057
471.2710, 3702.672
471.7531, 3604.947
472.2353, 3534.386
472.7174, 3486.271
473.1995, 3412.373
473.6816, 3309.426
474.1637, 3202.880
474.6458, 3121.307
475.1280, 3059.539
475.6101, 2993.466
476.0922, 2915.856
476.5743, 2834.095
477.0564, 2756.772
477.5385, 2684.230
478.0207, 2620.769
478.5028, 2572.778
478.9849, 2532.327
479.4670, 2494.884
479.9491, 2461.466
480.4312, 2417.088
480.9134, 2336.692
481.3955, 2224.678
481.8776, 2230.641
482.3597, 2221.903
482.8418, 2198.825
483.3239, 2117.651
483.8060, 2112.093
484.2881, 2077.474
484.7703, 2042.540
485.2524, 2049.835
485.7345, 1979.839
486.2166, 1985.660
486.6987, 1959.775
487.1808, 1947.128
487.6630, 1919.869
488.1451, 1898.666
488.6272, 1848.191
489.1093, 1797.720
489.5914, 1749.445
490.0735, 1705.399
490.5557, 1686.930
491.0378, 1697.082
491.5199, 1716.548
492.0020, 1735.272
492.4841, 1751.854
492.9662, 1754.705
493.4484, 1738.017
493.9305, 1720.737
494.4126, 1730.102
494.8947, 1760.594
495.3768, 1793.903
495.8589, 1829.123
496.3411, 1856.422
496.8232, 1861.852
497.3053, 1845.997
497.7874, 1829.640
498.2695, 1815.599
498.7516, 1812.187
499.2338, 1828.484
499.7159, 1893.841
500.1980, 1940.355
500.6801, 1934.915
501.1622, 1897.011
501.6443, 1872.562
502.1265, 1879.790
502.6086, 1890.092
503.0907, 1893.297
503.5728, 1886.253
504.0549, 1886.104
504.5370, 1901.493
505.0192, 1912.604
505.5013, 1898.997
505.9834, 1853.832
506.4655, 1823.428
506.9476, 1818.820
507.4297, 1824.260
507.9119, 1800.165
508.3940, 1746.648
508.8761, 1695.792
509.3582, 1663.284
509.8403, 1643.068
510.3224, 1621.964
510.8046, 1599.974
511.2867, 1576.589
511.7688, 1553.880
512.2509, 1530.836
512.7330, 1502.248
513.2151, 1457.749
513.6973, 1414.290
514.1794, 1388.208
514.6615, 1374.598
515.1436, 1358.401
515.6257, 1330.458
516.1078, 1300.951
516.5900, 1277.720
517.0721, 1264.943
517.5542, 1243.400
518.0363, 1196.417
518.5184, 1145.904
519.0005, 1114.582
519.4827, 1124.861
519.9648, 1119.238
520.4469, 1082.652
520.9290, 1025.843
521.4111, 993.1641
521.8932, 993.1592
522.3754, 993.7632
522.8575, 978.3638
523.3396, 946.9653
523.8217, 914.9565
524.3038, 882.5327
524.7859, 848.4092
525.2681, 806.8574
525.7502, 760.6943
526.2323, 722.2314
526.7144, 694.1748
527.1965, 675.9756
527.6786, 674.0879
528.1608, 683.5972
528.6429, 686.0835
529.1250, 661.9175
529.6071, 631.9448
530.0892, 614.2285
530.5714, 612.2134
531.0535, 610.1709
531.5356, 603.8926
532.0176, 593.3301
532.4998, 578.4331
532.9819, 553.5020
533.4640, 530.8955
533.9461, 514.6147
534.4282, 502.1523
534.9103, 484.9771
535.3925, 461.5161
535.8746, 435.5752
536.3567, 406.6514
536.8388, 373.7681
537.3209, 352.5942
537.8030, 347.5278
538.2852, 342.8877
538.7673, 318.5371
539.2494, 276.1548
539.7315, 242.5151
540.2136, 226.0293
540.6957, 215.5767
541.1779, 190.0625
541.6600, 153.5269
542.1421, 122.7979
542.6242, 107.0967
543.1063, 102.2314
543.5884, 109.5967
544.0706, 129.2725
544.5527, 139.5068
545.0348, 124.3340
545.5169, 96.04883
545.9990, 65.12402
546.4811, 25.87598
546.9633, 4.756836
547.4454, 20.10840
547.9275, 24.36816
548.4096, 27.25879
548.8917, 26.70605
549.3738, 27.87500
549.8560, 31.12988
550.3381, 36.45117
550.8202, 49.63770
551.3023, 73.64160
551.7844, 98.84180
552.2665, 119.5361
552.7487, 135.7197
553.2308, 142.5049
553.7129, 137.4434
554.1950, 128.0693
554.6771, 124.2422
555.1592, 125.3965
555.6414, 129.7051
556.1235, 140.7920
556.6056, 151.6699
557.0877, 150.1143
557.5698, 138.7549
558.0519, 134.2822
558.5341, 151.0605
559.0162, 175.5576
559.4983, 198.9473
559.9804, 222.2412
560.4625, 237.2070
560.9446, 239.2178
561.4268, 232.7178
561.9089, 222.3672
562.3910, 195.0381
562.8731, 182.5957
563.3552, 198.5000
563.8373, 233.2881
564.3195, 241.3867
564.8016, 211.6367
565.2837, 186.0508
565.7658, 193.4629
566.2479, 232.1934
566.7300, 242.4355
567.2122, 220.9395
567.6943, 188.3906
568.1764, 158.4902
568.6585, 134.0342
569.1406, 128.4189
569.6227, 154.1074
570.1049, 180.8291
570.5870, 177.4023
571.0691, 150.3525
571.5512, 114.1611
572.0333, 64.05762
572.5154, 16.91895
572.9976, 18.10156
573.4797, 41.04492
573.9618, 52.78223
574.4439, 33.18945
574.9260, 17.47949
575.4081, 28.71289
575.8903, 87.66602
576.3724, 135.0732
576.8545, 164.9365
577.3366, 188.1240
577.8187, 219.2344
578.3008, 258.4102
578.7830, 306.2334
579.2651, 368.0439
579.7472, 435.7568
580.2293, 478.0605
580.7114, 495.7305
581.1935, 520.3643
581.6757, 574.4756
582.1578, 648.5186
582.6399, 724.6416
583.1220, 799.7891
583.6041, 884.6807
584.0862, 995.6494
584.5684, 1116.283
585.0505, 1226.731
585.5326, 1310.896
586.0147, 1398.642
586.4968, 1507.522
586.9789, 1626.328
587.4611, 1732.080
587.9432, 1793.072
588.4253, 1873.292
588.9074, 1995.862
589.3895, 2159.987
589.8716, 2300.933
590.3538, 2408.842
590.8359, 2515.234
591.3180, 2647.658
591.8001, 2806.208
592.2822, 2947.056
592.7643, 3063.908
593.2465, 3175.611
593.7286, 3308.614
594.2107, 3458.447
594.6928, 3601.249
595.1749, 3722.187
595.6570, 3846.378
596.1392, 4008.011
596.6213, 4196.054
597.1034, 4370.649
597.5854, 4502.568
598.0676, 4628.373
598.5497, 4772.557
599.0318, 4942.104
599.5139, 5086.080
599.9960, 5180.585
600.4781, 5260.865
600.9603, 5348.790
601.4424, 5455.219
601.9245, 5547.192
602.4066, 5612.213
602.8887, 5671.242
603.3708, 5771.859
603.8530, 5917.621
604.3351, 6035.445
604.8172, 6097.175
605.2993, 6121.719
605.7814, 6144.104
606.2635, 6164.383
606.7457, 6184.525
607.2278, 6213.982
607.7099, 6238.784
608.1920, 6230.383
608.6741, 6183.425
609.1563, 6157.818
609.6384, 6227.473
610.1205, 6311.721
610.6026, 6338.195
611.0847, 6244.364
611.5668, 6163.289
612.0490, 6120.249
612.5311, 6095.904
613.0132, 6059.479
613.4953, 6002.617
613.9774, 5949.908
614.4595, 5907.939
614.9417, 5875.500
615.4238, 5848.279
615.9059, 5827.362
616.3880, 5795.537
616.8701, 5727.863
617.3522, 5641.250
617.8344, 5594.731
618.3165, 5592.812
618.7986, 5589.389
619.2807, 5535.629
619.7628, 5460.174
620.2449, 5399.188
620.7271, 5355.539
621.2092, 5334.811
621.6913, 5367.910
622.1734, 5420.943
622.6555, 5436.495
623.1376, 5363.924
623.6198, 5294.845
624.1019, 5239.026
624.5840, 5199.517
625.0661, 5193.520
625.5482, 5239.791
626.0303, 5276.169
626.5125, 5263.099
626.9946, 5202.914
627.4767, 5166.717
627.9588, 5155.928
628.4409, 5158.848
628.9230, 5167.098
629.4052, 5180.259
629.8873, 5196.857
630.3694, 5214.569
630.8515, 5239.383
631.3336, 5289.354
631.8157, 5347.396
632.2979, 5386.165
632.7800, 5364.541
633.2621, 5355.178
633.7442, 5394.367
634.2263, 5470.727
634.7084, 5525.273
635.1906, 5552.373
635.6727, 5561.811
636.1548, 5545.652
636.6369, 5501.688
637.1190, 5517.838
637.6011, 5608.680
638.0833, 5704.995
638.5654, 5737.445
639.0475, 5720.619
639.5296, 5733.065
640.0117, 5786.235
640.4938, 5857.067
640.9760, 5932.084
641.4581, 6005.707
641.9402, 6070.861
642.4223, 6121.217
642.9044, 6166.966
643.3865, 6209.600
643.8687, 6251.750
644.3508, 6301.521
644.8329, 6349.182
645.3150, 6417.254
645.7971, 6518.848
646.2792, 6653.214
646.7614, 6771.145
647.2435, 6872.248
647.7256, 6960.232
648.2077, 7027.803
648.6898, 7076.420
649.1719, 7164.726
649.6541, 7302.502
650.1362, 7434.941
650.6183, 7479.311
651.1004, 7477.456
651.5825, 7531.111
652.0646, 7686.912
652.5468, 7846.031
653.0289, 7919.494
653.5110, 7947.234
653.9931, 7995.695
654.4752, 8093.525
654.9573, 8208.032
655.4395, 8339.359
655.9216, 8482.450
656.4037, 8609.716
656.8858, 8705.239
657.3679, 8811.590
657.8500, 8953.954
658.3322, 9129.854
658.8143, 9255.972
659.2964, 9323.051
659.7785, 9395.812
660.2606, 9548.229
660.7427, 9748.896
661.2249, 9894.907
661.7070, 9972.566
662.1891, 10035.21
662.6712, 10121.58
663.1533, 10225.08
663.6354, 10337.48
664.1175, 10464.50
664.5996, 10589.13
665.0817, 10713.19
665.5638, 10830.10
666.0460, 10923.53
666.5281, 10967.77
667.0102, 11027.25
667.4923, 11121.05
667.9744, 11240.80
668.4565, 11340.08
668.9387, 11415.70
669.4208, 11492.52
669.9029, 11589.26
670.3850, 11698.55
670.8671, 11791.97
671.3492, 11869.87
671.8314, 11943.28
672.3135, 12037.69
672.7956, 12124.49
673.2777, 12162.15
673.7598, 12131.05
674.2419, 12107.33
674.7241, 12132.16
675.2062, 12176.00
675.6883, 12208.73
676.1704, 12203.03
676.6525, 12221.57
677.1346, 12286.16
677.6168, 12364.50
678.0989, 12392.68
678.5810, 12363.08
679.0631, 12328.84
679.5452, 12306.18
680.0273, 12285.61
680.5095, 12246.53
680.9916, 12189.38
681.4737, 12120.93
681.9558, 12040.00
682.4379, 11953.90
682.9200, 11866.93
683.4022, 11778.61
683.8843, 11688.94
684.3664, 11600.37
684.8485, 11506.62
685.3306, 11403.81
685.8127, 11294.45
686.2949, 11166.96
686.7770, 11003.67
687.2591, 10839.61
687.7412, 10716.75
688.2233, 10643.13
688.7054, 10521.78
689.1876, 10334.37
689.6697, 10123.90
690.1518, 9952.748
690.6339, 9813.991
691.1160, 9685.167
691.5981, 9574.121
692.0803, 9447.747
692.5624, 9264.938
693.0445, 9045.006
693.5266, 8831.996
694.0087, 8642.291
694.4908, 8456.547
694.9730, 8263.346
695.4551, 8066.696
695.9372, 7888.595
696.4193, 7751.124
696.9014, 7594.831
697.3835, 7382.480
697.8657, 7116.194
698.3478, 6910.566
698.8299, 6770.789
699.3120, 6646.594
699.7941, 6507.194
700.2762, 6352.214
700.7584, 6175.291
701.2405, 5972.928
701.7226, 5778.681
702.2047, 5634.980
702.6868, 5506.493
703.1689, 5357.588
703.6511, 5159.697
704.1332, 4972.582
704.6153, 4815.296
705.0974, 4670.574
705.5795, 4516.285
706.0616, 4341.755
706.5438, 4182.896
707.0259, 4050.750
707.5080, 3932.602
707.9901, 3801.107
708.4722, 3656.214
708.9543, 3512.859
709.4365, 3373.250
709.9186, 3238.644
710.4007, 3112.520
710.8828, 2995.666
711.3649, 2886.883
711.8470, 2786.526
712.3292, 2692.427
712.8113, 2612.129
713.2934, 2548.910
713.7755, 2449.040
714.2576, 2267.894
714.7397, 2094.444
715.2219, 1969.739
715.7040, 1901.537
716.1861, 1834.599
716.6682, 1769.038
717.1503, 1700.298
717.6324, 1611.646
718.1146, 1515.338
718.5967, 1458.255
719.0788, 1454.642
719.5609, 1441.500
720.0430, 1347.110
720.5251, 1218.503
721.0073, 1113.553
721.4894, 1069.521
721.9715, 1022.318
722.4536, 948.1768
722.9357, 864.8232
723.4178, 799.1787
723.9000, 757.3867
724.3821, 721.7617
724.8642, 694.8789
725.3463, 669.6348
725.8284, 623.1152
726.3105, 556.0410
726.7927, 494.0078
727.2748, 451.4287
727.7569, 418.7656
728.2390, 385.4482
728.7211, 349.6914
729.2032, 308.2656
729.6853, 245.6182
730.1674, 191.3184
730.6495, 168.7070
731.1317, 178.9580
731.6138, 173.0059
732.0959, 132.5244
732.5780, 92.66992
733.0601, 72.80859
733.5422, 75.21289
734.0244, 64.75586
734.5065, 39.55566
734.9886, 8.586914
735.4707, 29.38184
735.9528, 66.67090
736.4349, 79.13574
736.9171, 61.92871
737.3992, 40.02539
737.8813, 21.07031
738.3634, 14.44531
738.8455, 32.08691
739.3276, 98.20117
739.8098, 146.2881
740.2919, 155.4609
740.7740, 145.8760
741.2561, 136.6035
741.7382, 125.9580
742.2203, 121.6299
742.7025, 124.3311
743.1846, 132.3096
743.6667, 145.9316
744.1488, 164.2236
744.6309, 179.9023
745.1130, 191.9902
745.5952, 195.5117
746.0773, 175.9062
746.5594, 144.5908
747.0415, 126.7939
747.5236, 149.7539
748.0057, 168.7939
748.4879, 158.2871
748.9700, 128.3037
749.4521, 127.9438
749.9342, 175.8540
750.4163, 212.2656
750.8984, 213.1138
751.3806, 184.7412
751.8627, 156.7710
752.3448, 129.2764
752.8269, 109.2285
753.3090, 104.4233
753.7911, 108.4556
754.2733, 111.6875
754.7554, 114.0122
755.2375, 119.2383
755.7196, 138.2061
756.2017, 153.8081
756.6838, 155.7588
757.1660, 140.3931
757.6481, 121.6758
758.1302, 94.43945
758.6123, 70.84619
759.0944, 61.08936
759.5765, 65.45361
760.0587, 71.36230
760.5408, 79.08643
761.0229, 81.84570
761.5050, 69.93799
761.9871, 50.20459
762.4692, 35.45264
762.9514, 29.82861
763.4335, 21.55713
763.9156, 2.870117
764.3977, 30.10840
764.8798, 46.20068
765.3619, 36.08789
765.8441, 33.49316
766.3262, 40.44971
766.8083, 53.38379
767.2904, 69.78760
767.7725, 90.15186
768.2546, 101.8467
768.7368, 99.53613
769.2189, 95.64746
769.7010, 114.2871
770.1831, 144.8125
770.6652, 162.1030
771.1473, 143.0381
771.6295, 125.5933
772.1116, 136.8652
772.5937, 163.5420
773.0758, 177.5522
773.5579, 159.4858
774.0400, 151.0835
774.5222, 163.4692
775.0043, 188.2041
775.4864, 197.8701
775.9685, 190.6929
776.4506, 189.2524
776.9327, 203.3374
777.4149, 227.4468
777.8970, 259.0474
778.3791, 293.3770
778.8612, 313.7104
779.3433, 295.4185
779.8254, 275.2837
780.3076, 272.7534
780.7897, 287.0449
781.2718, 308.9023
781.7539, 348.3721
782.2360, 378.8779
782.7181, 387.3633
783.2003, 377.5088
783.6824, 387.0044
784.1645, 417.5010
784.6466, 438.1763
785.1287, 411.2686
785.6108, 369.3237
786.0930, 377.6147
786.5751, 432.4917
787.0572, 477.6025
787.5393, 473.2183
788.0214, 455.3130
788.5035, 440.8931
788.9857, 429.9199
789.4678, 440.9834
789.9499, 490.1392
790.4320, 537.8223
790.9141, 560.5464
791.3962, 558.1431
791.8784, 554.0659
792.3605, 548.2358
792.8426, 543.9717
793.3247, 546.4897
793.8068, 550.6094
794.2889, 544.5020
794.7711, 525.8027
795.2531, 520.8574
795.7352, 552.5850
796.2173, 595.7363
796.6995, 633.1909
797.1816, 664.6855
797.6637, 681.3716
798.1458, 678.3286
798.6279, 672.0068
799.1100, 681.2729
799.5922, 703.4648
800.0743, 702.0332
800.5564, 670.3540
801.0385, 640.8877
801.5206, 654.3345
802.0027, 684.9990
802.4849, 696.3301
802.9670, 672.8848
803.4491, 658.1025
803.9312, 682.6548
804.4133, 714.8872
804.8954, 722.7012
805.3776, 689.5571
805.8597, 669.2207
806.3418, 665.9995
806.8239, 675.9858
807.3060, 700.6675
807.7881, 731.8823
808.2703, 740.7476
808.7524, 720.9316
809.2345, 693.3389
809.7166, 662.1655
810.1987, 639.0952
810.6808, 639.7861
811.1630, 690.0806
811.6451, 725.2690
812.1272, 730.8828
812.6093, 720.1748
813.0914, 703.2866
813.5735, 675.6143
814.0557, 662.8989
814.5378, 673.5986
815.0199, 689.3877
815.5020, 676.6255
815.9841, 648.0693
816.4662, 637.6592
816.9484, 663.0659
817.4305, 684.8608
817.9126, 669.9009
818.3947, 638.3047
818.8768, 616.7593
819.3589, 617.1177
819.8411, 621.5005
820.3232, 631.8330
820.8053, 642.2510
821.2874, 642.2695
821.7695, 632.7935
822.2516, 631.9170
822.7338, 645.1675
823.2159, 658.6074
823.6980, 655.1963
824.1801, 641.3320
824.6622, 628.2520
825.1443, 620.8340
825.6265, 613.0356
826.1086, 598.4150
826.5907, 582.1104
827.0728, 573.7134
827.5549, 578.9565
828.0370, 582.7163
828.5192, 582.8022
829.0013, 578.1411
829.4834, 566.2490
829.9655, 550.5508
830.4476, 544.2129
830.9297, 554.6201
831.4119, 563.3042
831.8940, 545.2993
832.3761, 519.3965
832.8582, 513.4087
833.3403, 572.8159
833.8224, 599.8149
834.3046, 563.9019
834.7867, 504.9775
835.2688, 484.7778
835.7509, 508.8931
836.2330, 526.7061
836.7151, 527.4990
837.1973, 519.3882
837.6794, 513.3994
838.1615, 509.3359
838.6436, 506.6392
839.1257, 508.6709
839.6078, 506.3770
840.0900, 487.2163
840.5721, 462.9414
841.0542, 451.9399
841.5363, 466.5713
842.0184, 471.6074
842.5005, 459.5171
842.9827, 441.3740
843.4648, 439.4893
843.9469, 451.5820
844.4290, 453.6099
844.9111, 436.6816
845.3932, 414.4077
845.8754, 397.4697
846.3575, 384.9624
846.8396, 375.4922
847.3217, 366.4194
847.8038, 366.2822
848.2859, 385.2339
848.7681, 406.0952
849.2502, 406.7529
849.7323, 383.8364
850.2144, 366.3877
850.6965, 358.9888
851.1786, 355.5225
851.6608, 344.0386
852.1429, 330.9731
852.6250, 331.4004
853.1071, 356.3042
853.5892, 377.6982
854.0714, 379.6421
854.5535, 371.2466
855.0356, 363.0234
855.5177, 359.8442
855.9998, 345.0903
856.4819, 312.4214
856.9641, 279.6387
857.4462, 271.0728
857.9283, 281.6050
858.4104, 288.1323
858.8925, 287.1348
859.3746, 284.3818
859.8568, 282.8438
860.3389, 282.8486
860.8210, 285.0679
861.3030, 292.5811
861.7852, 295.9858
862.2673, 292.2808
862.7494, 286.8047
863.2315, 285.2266
863.7136, 287.4390
864.1957, 277.9863
864.6779, 254.1436
865.1600, 235.8384
865.6421, 249.7520
866.1242, 278.4766
866.6063, 297.3960
867.0884, 302.1367
867.5706, 301.1748
868.0527, 300.2861
868.5348, 292.4277
869.0169, 270.0493
869.4990, 226.8564
869.9811, 205.9761
870.4633, 210.7549
870.9454, 224.7139
871.4275, 239.0356
871.9096, 251.4941
872.3917, 254.9683
872.8738, 249.2412
873.3560, 242.2227
873.8381, 239.5259
874.3202, 236.6753
874.8023, 230.9272
875.2844, 221.6548
875.7665, 210.3604
876.2487, 194.4727
876.7308, 181.5630
877.2129, 176.9146
877.6950, 178.8774
878.1771, 179.2041
878.6592, 177.8320
879.1414, 174.2432
879.6235, 161.0576
880.1056, 150.9717
880.5877, 161.5742
881.0698, 189.3447
881.5519, 201.3330
882.0341, 178.1133
882.5162, 153.5669
882.9983, 133.2256
883.4804, 119.4634
883.9625, 131.1606
884.4446, 168.1016
884.9268, 192.1040
885.4089, 174.9165
885.8910, 143.8828
886.3731, 131.0479
886.8552, 131.7393
887.3373, 132.9199
887.8195, 134.3057
888.3016, 129.9873
888.7837, 112.7651
889.2658, 90.78271
889.7479, 84.19580
890.2300, 94.42676
890.7122, 110.0454
891.1943, 131.2134
891.6764, 151.0488
892.1585, 160.9575
892.6406, 160.7378
893.1227, 149.2383
893.6049, 113.5928
894.0870, 85.10938
894.5691, 80.15186
895.0512, 87.24072
895.5333, 89.07275
896.0154, 80.97461
896.4976, 84.84424
896.9797, 106.5527
897.4618, 131.1582
897.9439, 138.5752
898.4260, 132.6201
898.9081, 120.2998
899.3903, 100.4609
899.8724, 86.06494
900.3545, 86.49463
900.8366, 94.82422
901.3187, 105.4429
901.8008, 121.2769
902.2830, 129.8188
902.7651, 130.2241
903.2472, 125.1880
903.7293, 116.6484
904.2114, 104.6782
904.6935, 88.42480
905.1757, 67.50879
905.6578, 48.05176
906.1399, 34.12402
906.6220, 23.72070
907.1041, 15.01367
907.5862, 7.612305
908.0684, 3.931641
908.5505, 1.975586
909.0326, 8.191406
909.5147, 33.13965
909.9968, 68.89990
910.4789, 67.42188
910.9611, 32.89844
911.4432, 3.707031
911.9253, 7.884277
912.4074, 22.38379
912.8895, 34.01270
913.3716, 41.46973
913.8538, 40.33008
914.3359, 19.08105
914.8180, 7.111816
915.3001, 14.87891
915.7822, 33.80713
916.2643, 40.33252
916.7465, 35.51904
917.2286, 28.63672
917.7107, 21.02637
918.1928, 15.83936
918.6749, 21.72900
919.1570, 30.60352
919.6392, 29.00537
920.1213, 10.50537
920.6034, 25.39453
921.0855, 0.1391600
921.5676, 38.54883
922.0497, 51.46436
922.5319, 40.95654
923.0140, 41.95947
923.4961, 62.04297
923.9782, 79.65674
924.4603, 71.61816
924.9424, 51.57275
925.4246, 32.30615
925.9067, 14.65527
926.3888, 9.538086
926.8708, 27.64014
927.3530, 46.61230
927.8351, 49.86230
928.3172, 37.20264
928.7993, 34.07178
929.2814, 41.23291
929.7635, 44.34229
930.2457, 22.04004
930.7278, 2.854492
931.2099, 3.061035
931.6920, 20.02490
932.1741, 38.01709
932.6563, 41.31055
933.1384, 43.31104
933.6205, 45.78516
934.1026, 49.66992
934.5847, 63.50586
935.0668, 86.02197
935.5490, 90.25879
936.0311, 45.34082
936.5132, 0.6279300
936.9953, 21.39355
937.4774, 78.13086
937.9595, 110.8218
938.4417, 75.29785
938.9238, 52.24365
939.4059, 54.14990
939.8880, 68.57715
940.3701, 80.09473
940.8522, 88.69971
941.3344, 90.90381
941.8165, 86.10938
942.2986, 74.86865
942.7807, 43.91846
943.2628, 13.52881
943.7449, 10.01221
944.2271, 50.31689
944.7092, 78.90527
945.1913, 88.64062
945.6734, 89.48291
946.1555, 86.61377
946.6376, 80.20947
947.1198, 71.56787
947.6019, 60.88281
948.0840, 55.54248
948.5661, 67.29688
949.0482, 81.61182
949.5303, 85.11230
950.0125, 78.13232
950.4946, 72.48682
950.9767, 72.06543
951.4588, 68.66992
951.9409, 58.16016
952.4230, 44.36572
952.9052, 37.29199
953.3873, 36.92188
953.8694, 44.31934
954.3515, 69.35059
954.8336, 88.17822
955.3157, 76.54004
955.7979, 48.67627
956.2800, 27.23340
956.7621, 10.35449
957.2442, 11.87646
957.7263, 41.68604
958.2084, 73.05566
958.6906, 65.11816
959.1727, 30.01025
959.6548, 21.59521
960.1369, 49.68408
960.6190, 70.54834
961.1011, 37.14697
961.5833, 4.415527
962.0654, 14.62695
962.5475, 13.97266
963.0296, 35.20166
963.5117, 47.92285
963.9938, 55.87061
964.4760, 61.42773
964.9581, 63.55273
965.4402, 56.06104
965.9223, 41.32324
966.4044, 29.99707
966.8865, 32.50977
967.3687, 35.10400
967.8508, 28.51123
968.3329, 17.18311
968.8150, 13.65576
969.2971, 19.65137
969.7792, 26.81445
970.2614, 34.82666
970.7435, 40.20605
971.2256, 34.06689
971.7077, 22.40625
972.1898, 17.64746
972.6719, 25.50977
973.1541, 33.51611
973.6362, 38.24707
974.1183, 40.38770
974.6004, 40.57568
975.0825, 38.79297
975.5646, 34.33398
976.0468, 26.74072
976.5289, 20.73291
977.0110, 22.34668
977.4931, 26.19287
977.9752, 22.50293
978.4573, 12.59277
978.9395, 10.08838
979.4216, 33.12939
979.9037, 46.40332
980.3858, 37.57910
980.8679, 13.71436
981.3500, 9.285156
981.8322, 31.12793
982.3143, 34.06982
982.7964, 1.860840
983.2785, 30.38574
983.7606, 22.92041
984.2427, 5.043945
984.7249, 26.85938
985.2070, 41.35986
985.6891, 39.34814
986.1712, 12.53516
986.6533, 16.98926
987.1354, 26.21875
987.6176, 19.15137
988.0997, 17.02734
988.5818, 20.97363
989.0639, 18.59521
989.5460, 11.99707
990.0281, 40.53662
990.5103, 43.37988
990.9924, 20.52686
991.4745, 1.783691
991.9566, 12.41602
992.4387, 24.74561
992.9208, 37.95947
993.4029, 47.81055
993.8850, 40.89258
994.3671, 23.36475
994.8492, 11.79004
995.3314, 16.33398
995.8135, 22.23877
996.2956, 28.42871
996.7777, 31.00439
997.2598, 23.78467
997.7419, 4.560547
998.2241, 8.032227
998.7062, 12.34424
999.1883, 12.26416
999.6704, 11.24316
1000.153, 7.986328
1000.635, 1.4648000E-02
1001.117, 13.49707
1001.599, 26.97559
1002.081, 44.07471
1002.563, 54.07422
1003.045, 50.23633
1003.527, 37.17285
1004.009, 35.98047
1004.492, 44.62744
1004.974, 46.63965
1005.456, 27.39941
1005.938, 9.928223
1006.420, 13.05273
1006.902, 28.43262
1007.384, 43.21826
1007.866, 58.60791
1008.349, 66.23828
1008.831, 62.48730
1009.313, 59.36816
1009.795, 76.45996
1010.277, 102.9595
1010.759, 109.5356
1011.241, 93.67188
1011.723, 78.16895
1012.205, 81.18213
1012.688, 80.92041
1013.170, 61.74219
1013.652, 28.39355
1014.134, 7.849121
1014.616, 0.2763670
1015.098, 7.255859
1015.580, 39.24170
1016.062, 71.02344
1016.544, 63.86084
1017.027, 35.38135
1017.509, 15.94971
1017.991, 19.31104
1018.473, 25.61328
1018.955, 32.65527
1019.437, 42.90332
1019.919, 63.51660
1020.401, 91.55029
1020.884, 101.4575
1021.366, 91.81396
1021.848, 81.23096
1022.330, 84.84668
1022.812, 91.44971
1023.294, 89.80078
1023.776, 81.30176
1024.258, 72.78760
1024.740, 63.14795
1025.223, 59.28271
1025.705, 66.73877
1026.187, 77.16699
1026.669, 66.98877
1027.151, 45.23486
1027.633, 32.87012
1028.115, 41.23291
1028.597, 48.56152
1029.079, 49.38281
1029.562, 48.43408
1030.044, 47.87256
1030.526, 47.68506
1031.008, 54.97803
1031.490, 69.93262
1031.972, 81.65918
1032.454, 80.54980
1032.936, 75.38232
1033.419, 70.33789
1033.901, 68.07422
1034.383, 75.90234
1034.865, 102.3901
1035.347, 118.9536
1035.829, 118.3369
1036.311, 105.6836
1036.793, 85.37549
1037.276, 60.49170
1037.758, 36.61816
1038.240, 10.66846
1038.722, 2.158203
1039.204, 42.35547
1039.686, 82.14209
1040.168, 84.06250
1040.650, 47.60400
1041.132, 40.19092
1041.615, 63.38330
1042.097, 82.75293
1042.579, 70.77197
1043.061, 52.17773
1043.543, 54.80713
1044.025, 72.18408
1044.507, 80.61230
1044.989, 67.96289
1045.471, 63.13037
1045.954, 73.99268
1046.436, 85.42871
1046.918, 68.02148
1047.400, 34.61670
1047.882, 24.35498
1048.364, 46.25684
1048.846, 66.67969
1049.328, 65.91943
1049.811, 58.58203
1050.293, 52.55713
1050.775, 47.92725
1051.257, 45.11865
1051.739, 44.21338
1052.221, 40.84375
1052.703, 29.18262
1053.185, 19.67041
1053.667, 25.99072
1054.150, 40.23926
1054.632, 53.65137
1055.114, 62.95801
1055.596, 75.42480
1056.078, 96.60254
1056.560, 108.5928
1057.042, 85.01465
1057.524, 39.86133
1058.006, 7.185547
1058.489, 10.19873
1058.971, 5.104980
1059.453, 56.48047
1059.935, 108.2319
1060.417, 118.8262
1060.899, 100.2607
1061.381, 82.79346
1061.863, 66.68750
1062.346, 56.41504
1062.828, 54.74902
1063.310, 53.78516
1063.792, 37.64600
1064.274, 22.32910
1064.756, 29.28955
1065.238, 74.81543
1065.720, 95.08838
1066.203, 83.15967
1066.685, 66.50586
1067.167, 59.92480
1067.649, 61.42676
1068.131, 73.08545
1068.613, 89.76270
1069.095, 94.19189
1069.577, 64.27588
1070.059, 40.40576
1070.542, 36.24854
1071.024, 39.26025
1071.506, 34.30225
1071.988, 22.19141
1072.470, 17.61523
1072.952, 22.61035
1073.434, 29.54004
1073.916, 29.93262
1074.398, 32.00391
1074.881, 47.71484
1075.363, 75.01172
1075.845, 78.26465
1076.327, 49.89014
1076.809, 29.87549
1077.291, 32.07178
1077.773, 45.79199
1078.255, 66.87695
1078.738, 84.38574
1079.220, 75.42285
1079.702, 10.86377
1080.184, 18.36621
1080.666, 13.24365
1081.148, 56.06934
1081.630, 83.56104
1082.112, 94.28467
1082.594, 69.16455
1083.077, 14.84570
1083.559, 26.52295
1084.041, 20.56592
1084.523, 7.947754
1085.005, 11.27344
1085.487, 18.00537
1085.969, 3.114746
1086.451, 37.78955
1086.933, 52.18115
1087.416, 31.02588
1087.898, 8.147949
1088.380, 25.07031
1088.862, 48.80078
1089.344, 34.62598
1089.826, 18.30713
1090.308, 17.77148
1090.790, 71.68115
1091.272, 127.4360
1091.755, 101.0610
1092.237, 39.61816
1092.719, 26.06787
1093.201, 43.10498
1093.683, 55.16064
1094.165, 53.58447
1094.647, 44.10010
1095.129, 17.42041
1095.612, 3.800781
1096.094, 3.044922
1096.576, 16.46143
1097.058, 34.02100
1097.540, 48.13672
1098.022, 49.98291
1098.504, 10.53662
1098.986, 16.18945
1099.469, 15.03027
1099.951, 70.04590
1100.433, 90.46729
1100.915, 70.27051
1101.397, 59.48682
1101.879, 62.79883
1102.361, 71.13086
1102.843, 79.72217
1103.325, 86.76660
1103.807, 89.24902
1104.290, 87.62061
1104.772, 90.17676
1105.254, 103.5532
1105.736, 104.3340
1106.218, 83.02002
1106.700, 54.06689
1107.182, 37.65430
1107.664, 31.25879
1108.147, 31.74658
1108.629, 41.28467
1109.111, 44.64258
1109.593, 35.21924
1110.075, 21.58398
1110.557, 0.9843750
1111.039, 19.18750
1111.521, 5.348145
1112.004, 63.43115
1112.486, 100.9414
1112.968, 80.32520
1113.450, 52.91455
1113.932, 36.16260
1114.414, 28.95215
1114.896, 33.64307
1115.378, 52.51025
1115.860, 50.11572
1116.343, 24.05566
1116.825, 8.244629
1117.307, 46.02148
1117.789, 86.76416
1118.271, 82.51367
1118.753, 46.36963
1119.235, 30.43408
1119.717, 41.89258
1120.199, 54.40088
1120.682, 65.45508
1121.164, 71.15723
1121.646, 60.90088
1122.128, 45.94629
1122.610, 42.20068
1123.092, 51.87158
1123.574, 60.75684
1124.056, 64.85010
1124.539, 73.02588
1125.021, 92.36084
1125.503, 111.9995
1125.985, 107.8018
1126.467, 85.72461
1126.949, 55.62598
1127.431, 7.687500
1127.913, 9.747559
1128.396, 54.58008
1128.878, 113.1938
1129.360, 108.9336
1129.842, 54.16846
1130.324, 25.88232
1130.806, 22.12207
1131.288, 31.47852
1131.770, 65.43506
1132.252, 90.52051
1132.734, 84.54688
1133.217, 65.32910
1133.699, 51.13623
1134.181, 41.50439
1134.663, 46.83740
1135.145, 67.92676
1135.627, 92.72314
1136.109, 122.1587
1136.591, 143.5317
1137.074, 142.9727
1137.556, 125.2856
1138.038, 108.0493
1138.520, 93.08008
1139.002, 84.16016
1139.484, 83.21680
1139.966, 83.56982
1140.448, 74.75244
1140.931, 65.21094
1141.413, 64.70801
1141.895, 76.37451
1142.377, 85.72510
1142.859, 90.05859
1143.341, 94.43066
1143.823, 104.3467
1144.305, 110.4243
1144.787, 84.16064
1145.270, 46.34082
1145.752, 38.59863
1146.234, 80.67285
1146.716, 111.1309
1147.198, 116.3198
1147.680, 115.4204
1148.162, 118.7588
1148.644, 126.7939
1149.126, 143.7651
1149.609, 162.8628
1150.091, 161.5967
1150.573, 107.3237
1151.055, 71.35254
1151.537, 81.89502
1152.019, 106.1538
1152.501, 121.8843
1152.983, 129.1196
1153.466, 126.9253
1153.948, 116.1836
1154.430, 100.0571
1154.912, 67.37598
1155.394, 43.36279
1155.876, 43.75098
1156.358, 56.89062
1156.840, 70.56592
1157.322, 86.80957
1157.805, 89.38086
1158.287, 76.99414
1158.769, 66.60547
1159.251, 72.47754
1159.733, 83.10107
1160.215, 92.54248
1160.697, 100.0312
1161.179, 104.5557
1161.661, 106.1294
1162.144, 105.6040
1162.626, 103.6807
1163.108, 96.44287
1163.590, 67.91895
1164.072, 40.94434
1164.554, 48.05322
1165.036, 88.18945
1165.518, 96.96924
1166.000, 67.41406
1166.483, 48.29150
1166.965, 57.90088
1167.447, 76.93311
1167.929, 86.20850
1168.411, 88.45996
1168.893, 85.92236
1169.375, 79.79541
1169.857, 79.21533
1170.340, 86.68652
1170.822, 89.42920
1171.304, 76.27197
1171.786, 60.46777
1172.268, 65.12988
1172.750, 81.32910
1173.232, 93.00195
1173.714, 87.65039
1174.197, 98.09424
1174.679, 134.7427
1175.161, 160.1558
1175.643, 134.7534
1176.125, 84.88574
1176.607, 61.28564
1177.089, 58.45557
1177.571, 60.35059
1178.053, 65.31006
1178.536, 69.67725
1179.018, 73.51318
1179.500, 75.94141
1179.982, 75.80811
1180.464, 73.70264
1180.946, 72.62207
1181.428, 71.56836
1181.910, 64.02832
1182.392, 31.32861
1182.875, 16.07715
1183.357, 32.69287
1183.839, 58.75293
1184.321, 62.83838
1184.803, 51.05615
1185.285, 36.64941
1185.767, 21.13232
1186.249, 19.80518
1186.732, 56.81982
1187.214, 85.44873
1187.696, 91.18115
1188.178, 81.47607
1188.660, 65.16406
1189.142, 46.38623
1189.624, 41.53418
1190.106, 55.03174
1190.589, 66.77832
1191.071, 63.23926
1191.553, 61.23779
1192.035, 70.75146
1192.517, 85.04199
1192.999, 80.31982
1193.481, 63.00781
1193.963, 54.06299
1194.445, 56.75732
1194.927, 55.50781
1195.410, 32.63281
1195.892, 19.26611
1196.374, 37.83447
1196.856, 80.05518
1197.338, 104.0195
1197.820, 109.6606
1198.302, 105.3657
1198.784, 89.05273
1199.267, 74.36621
1199.749, 69.80273
1200.231, 66.16553
1200.713, 56.43457
1201.195, 41.62402
1201.677, 30.98779
1202.159, 24.52832
1202.641, 24.06104
1203.124, 34.08594
1203.606, 45.43945
1204.088, 55.41846
1204.570, 63.63867
1205.052, 70.98779
1205.534, 77.33057
1206.016, 72.66211
1206.498, 58.20410
1206.980, 45.07324
1207.463, 38.05859
1207.945, 32.26270
1208.427, 23.74902
1208.909, 16.13525
1209.391, 12.28662
1209.873, 12.43506
1210.355, 26.44482
1210.837, 53.27344
1211.319, 71.09180
1211.802, 60.91016
1212.284, 43.43311
1212.766, 19.93018
1213.248, 0.2758790
1213.730, 1.726563
1214.212, 22.87500
1214.694, 41.51953
1215.176, 55.70654
1215.659, 60.23486
1216.141, 44.58398
1216.623, 26.13086
1217.105, 8.541504
1217.587, 3.131836
1218.069, 5.638184
1218.551, 32.64893
1219.033, 53.71387
1219.516, 64.99609
1219.998, 62.56396
1220.480, 16.37549
1220.962, 13.78516
1221.444, 19.09180
1221.926, 82.16797
1222.408, 83.09326
1222.890, 31.20605
1223.372, 13.28564
1223.854, 50.04053
1224.337, 77.45166
1224.819, 34.95215
1225.301, 6.509766
1225.783, 5.464355
1226.265, 24.40186
1226.747, 39.41357
1227.229, 41.57568
1227.711, 40.94336
1228.193, 38.93945
1228.676, 39.92334
1229.158, 55.38818
1229.640, 64.26709
1230.122, 51.43994
1230.604, 24.99561
1231.086, 13.23682
1231.568, 15.45898
1232.050, 33.03271
1232.533, 77.99658
1233.015, 102.7568
1233.497, 58.37939
1233.979, 16.52051
1234.461, 19.81738
1234.943, 54.16016
1235.425, 58.69434
1235.907, 41.79736
1236.390, 37.37695
1236.872, 64.37402
1237.354, 85.48584
1237.836, 81.53467
1238.318, 73.55615
1238.800, 75.02539
1239.282, 80.74023
1239.764, 64.00537
1240.246, 33.10498
1240.729, 15.48096
1241.211, 25.74023
1241.693, 43.16895
1242.175, 75.25928
1242.657, 93.97070
1243.139, 71.53467
1243.621, 24.55371
1244.103, 9.247559
1244.585, 18.78223
1245.068, 33.42920
1245.550, 54.82861
1246.032, 64.37793
1246.514, 56.88672
1246.996, 44.59131
1247.478, 34.90186
1247.960, 27.47266
1248.442, 20.73438
1248.925, 15.44922
1249.407, 13.96240
1249.889, 31.79736
1250.371, 25.19873
1250.853, 21.94482
1251.335, 58.34912
1251.817, 26.75049
1252.299, 34.80957
1252.781, 57.59863
1253.264, 49.58545
1253.746, 33.62109
1254.228, 0.7270510
1254.710, 9.395508
1255.192, 10.72607
1255.674, 31.35107
1256.156, 20.31934
1256.638, 0.4086910
1257.120, 2.625488
1257.603, 20.41455
1258.085, 28.20508
1258.567, 15.75000
1259.049, 11.92676
1259.531, 19.35693
1260.013, 28.42871
1260.495, 28.16895
1260.977, 28.02930
1261.460, 43.56006
1261.942, 66.25098
1262.424, 72.79932
1262.906, 60.08691
1263.388, 39.60352
1263.870, 10.60889
1264.352, 5.880859
1264.834, 17.37646
1265.317, 50.06445
1265.799, 75.58691
1266.281, 89.09131
1266.763, 78.44434
1267.245, 40.63525
1267.727, 30.71875
1268.209, 52.04150
1268.691, 70.09375
1269.173, 43.67822
1269.656, 20.17383
1270.138, 39.86865
1270.620, 74.14258
1271.102, 80.01270
1271.584, 59.59131
1272.066, 50.56445
1272.548, 55.92041
1273.030, 70.16406
1273.512, 109.8589
1273.995, 132.2983
1274.477, 116.7715
1274.959, 81.99512
1275.441, 46.45654
1275.923, 14.59473
1276.405, 9.985840
1276.887, 32.48486
1277.369, 59.04150
1277.852, 90.84277
1278.334, 108.6860
1278.816, 105.9023
1279.298, 93.22510
1279.780, 82.02979
1280.262, 72.87354
1280.744, 68.42383
1281.226, 67.97168
1281.708, 64.50781
1282.191, 42.08301
1282.673, 45.33203
1283.155, 84.15186
1283.637, 123.6606
1284.119, 155.3633
1284.601, 168.7432
1285.083, 154.8467
1285.565, 123.5762
1286.047, 102.8374
1286.530, 99.35156
1287.012, 96.64111
1287.494, 92.20654
1287.976, 84.67432
1288.458, 73.23486
1288.940, 56.46533
1289.422, 17.87109
1289.904, 29.75586
1290.386, 16.10889
1290.869, 65.83447
1291.351, 111.9756
1291.833, 107.2959
1292.315, 89.50977
1292.797, 78.41650
1293.279, 74.24561
1293.761, 78.85059
1294.243, 88.86719
1294.726, 101.7334
1295.208, 116.4194
1295.690, 116.6685
1296.172, 101.5933
1296.654, 91.34912
1297.136, 108.7295
1297.618, 112.1665
1298.100, 78.27295
1298.583, 34.88623
1299.065, 29.25537
1299.547, 51.05566
1300.029, 69.17383
1300.511, 80.29443
1300.993, 83.10791
1301.475, 67.32861
1301.957, 57.24902
1302.439, 57.02393
1302.922, 41.45508
1303.404, 37.88086
1303.886, 33.47607
1304.368, 42.91797
1304.850, 63.88818
1305.332, 73.68994
1305.814, 67.02930
1306.296, 58.93066
1306.778, 50.41650
1307.261, 44.58740
1307.743, 51.42529
1308.225, 60.44580
1308.707, 63.88867
1309.189, 62.01025
1309.671, 56.26611
1310.153, 45.76660
1310.635, 30.08203
1311.118, 8.732910
1311.600, 8.3984002E-02
1312.082, 35.52539
1312.564, 67.75537
1313.046, 61.37109
1313.528, 33.39209
1314.010, 12.26709
1314.492, 0.2080080
1314.974, 0.0000000E+00
##END=



