##NAMES=Chabazite-Ca
##RRUFFID=R050075
##IDEAL CHEMISTRY=Ca_2_Al_4_Si_8_O_24_&#183;13H_2_O
##LOCALITY=Victoria, Australia
##OWNER=RRUFF
##SOURCE=Rock Currier
##DESCRIPTION=White pseudohexagonal crystals
##STATUS=The identification of this mineral has been confirmed by X-ray diffraction and chemical analysis
##URL=rruff.info/R050075
##MEASURED CHEMISTRY=(Ca_0.79_Na_0.22_K_0.14_)_Σ=1.15_(Si_4.08_Al_1.92_)O_12_·6H_2_O
93.375, 0.000
94.768, 32.125
96.161, 11.945
97.554, 80.225
98.947, 118.243
100.340, 212.691
101.732, 357.694
103.124, 578.854
104.516, 783.957
105.908, 885.814
107.300, 1235.051
108.691, 1030.019
110.082, 1127.367
111.473, 1060.911
112.864, 1293.899
114.254, 1672.420
115.644, 1758.213
117.034, 1924.613
118.424, 1849.990
119.813, 1963.926
121.203, 2039.783
122.592, 2039.569
123.981, 2096.468
125.369, 2109.855
126.758, 2073.081
128.146, 2264.316
129.534, 2235.735
130.922, 2525.365
132.309, 2307.932
133.696, 2301.387
135.083, 2306.398
136.470, 2588.625
137.857, 2524.143
139.243, 2556.782
140.630, 2555.857
142.016, 2474.943
143.401, 2415.270
144.787, 2349.921
146.172, 2372.993
147.557, 2336.607
148.942, 2257.947
150.327, 2199.790
151.711, 2096.771
153.096, 2002.945
154.480, 1944.445
155.863, 1835.649
157.247, 1770.479
158.630, 1784.263
160.013, 1694.151
161.396, 1765.708
162.779, 1812.141
164.161, 1746.827
165.544, 1755.973
166.926, 1823.574
168.308, 1703.888
169.689, 1804.926
171.070, 1719.749
172.452, 1898.654
173.833, 1835.774
175.213, 1801.578
176.594, 1956.315
177.974, 1766.116
179.354, 1764.396
180.734, 1764.332
182.114, 1657.854
183.493, 1626.312
184.872, 1678.865
186.251, 1536.234
187.630, 1505.407
189.008, 1396.192
190.387, 1374.824
191.765, 1463.201
193.143, 1314.881
194.520, 1352.562
195.898, 1185.483
197.275, 1288.906
198.652, 1038.400
200.029, 1202.956
201.405, 1107.562
202.782, 1084.207
204.158, 1027.884
205.534, 1142.585
206.909, 1048.301
208.285, 949.026
209.660, 887.750
211.035, 629.465
212.410, 371.156
213.784, 351.810
215.159, 316.416
216.533, 273.959
217.907, 293.430
219.281, 237.378
220.654, 146.122
222.027, 165.341
223.400, 103.474
224.773, 70.521
226.146, 83.482
227.518, 20.360
228.891, 91.159
230.263, 46.875
231.634, 87.513
233.006, 57.073
234.377, 79.444
235.748, 74.049
237.119, 183.759
238.490, 208.583
239.860, 34.528
241.231, 165.610
242.601, 31.155
243.970, 63.244
245.340, 42.795
246.709, 154.523
248.079, 170.554
249.448, 9.937
250.816, 164.584
252.185, 127.435
253.553, 99.584
254.921, 187.985
256.289, 89.673
257.657, 140.643
259.024, 85.267
260.391, 102.102
261.758, 48.872
263.125, 5.016
264.492, 2.143
265.858, 26.074
267.224, 30.209
268.590, 85.354
269.956, 105.030
271.321, 78.570
272.687, 112.599
274.052, 69.571
275.416, 79.458
276.781, 232.250
278.146, 278.938
279.510, 180.516
280.874, 390.966
282.237, 306.287
283.601, 476.473
284.964, 380.523
286.327, 301.434
287.690, 669.203
289.053, 618.836
290.416, 666.330
291.778, 781.682
293.140, 537.894
294.502, 789.947
295.863, 663.849
297.225, 751.570
298.586, 829.104
299.947, 800.442
301.308, 998.584
302.668, 1010.615
304.029, 932.326
305.389, 1077.938
306.749, 1072.379
308.108, 962.653
309.468, 1155.801
310.827, 1059.797
312.186, 1299.667
313.545, 1236.407
314.903, 1500.012
316.262, 1556.486
317.620, 1375.814
318.978, 1638.982
320.336, 1738.986
321.693, 1779.813
323.051, 1804.454
324.408, 2053.895
325.765, 2024.127
327.121, 2154.169
328.478, 2155.950
329.834, 2103.350
331.190, 2359.389
332.546, 2325.145
333.902, 2207.644
335.257, 2218.773
336.612, 2109.635
337.967, 2087.205
339.322, 2051.471
340.677, 1864.473
342.031, 1933.253
343.385, 1679.892
344.739, 1810.417
346.093, 1527.856
347.446, 1436.209
348.799, 1382.470
350.153, 1411.676
351.505, 1429.820
352.858, 1190.918
354.210, 1200.961
355.563, 1178.974
356.915, 1102.954
358.267, 1043.898
359.618, 1093.833
360.969, 958.737
362.321, 1017.610
363.672, 921.451
365.022, 1041.260
366.373, 1015.038
367.723, 875.783
369.073, 1033.496
370.423, 987.177
371.773, 857.823
373.122, 867.437
374.471, 925.580
375.821, 1036.611
377.169, 1008.533
378.518, 1042.176
379.866, 1065.987
381.215, 850.842
382.563, 1068.756
383.910, 940.650
385.258, 905.771
386.605, 1064.974
387.952, 1095.498
389.299, 895.302
390.646, 1113.192
391.992, 1221.313
393.339, 1100.213
394.685, 1163.092
396.031, 1118.695
397.376, 1136.695
398.722, 1098.412
400.067, 1119.142
401.412, 1069.350
402.757, 1132.483
404.101, 1236.123
405.446, 1166.125
406.790, 1229.812
408.134, 1268.040
409.478, 1233.901
410.821, 1332.224
412.165, 1344.664
413.508, 1296.443
414.851, 1459.690
416.193, 1579.834
417.536, 1539.818
418.878, 1629.998
420.220, 1835.999
421.562, 1922.931
422.904, 1886.867
424.245, 2060.781
425.586, 2309.824
426.927, 2803.369
428.268, 2756.695
429.609, 2768.496
430.949, 3299.079
432.289, 3491.950
433.629, 3672.281
434.969, 3941.131
436.309, 4257.638
437.648, 4579.660
438.987, 4935.773
440.326, 5453.426
441.665, 5743.171
443.003, 6179.863
444.342, 6691.033
445.680, 7030.104
447.018, 7592.512
448.355, 7948.844
449.693, 8264.288
451.030, 8529.927
452.367, 8831.277
453.704, 9087.806
455.041, 9234.791
456.377, 9588.846
457.713, 9574.320
459.049, 9794.083
460.385, 9749.567
461.721, 9843.259
463.056, 10113.912
464.391, 10070.001
465.726, 10166.273
467.061, 10633.871
468.395, 10633.026
469.730, 10752.711
471.064, 11235.794
472.398, 11181.332
473.731, 11904.046
475.065, 11778.024
476.398, 12121.171
477.731, 12404.082
479.064, 12389.041
480.397, 12292.029
481.729, 11823.707
483.062, 11584.495
484.394, 11002.247
485.725, 10286.979
487.057, 9901.850
488.389, 9056.604
489.720, 8341.249
491.051, 7708.031
492.382, 7025.762
493.712, 6302.052
495.043, 5857.619
496.373, 5214.168
497.703, 4713.699
499.032, 4424.215
500.362, 3895.139
501.691, 3645.623
503.020, 3358.229
504.349, 2826.751
505.678, 2723.199
507.007, 2459.756
508.335, 2086.200
509.663, 2051.955
510.991, 1816.463
512.319, 1703.103
513.646, 1584.518
514.973, 1483.957
516.300, 1354.551
517.627, 1362.959
518.954, 1210.857
520.280, 1036.675
521.607, 862.061
522.933, 938.641
524.259, 911.342
525.584, 721.019
526.910, 619.392
528.235, 766.965
529.560, 709.445
530.885, 615.857
532.209, 513.485
533.534, 490.362
534.858, 468.788
536.182, 599.362
537.506, 413.124
538.829, 435.566
540.152, 482.436
541.476, 379.902
542.799, 403.372
544.121, 219.922
545.444, 343.423
546.766, 265.932
548.088, 292.827
549.410, 307.382
550.732, 129.956
552.053, 300.540
553.375, 196.553
554.696, 65.162
556.017, 122.085
557.337, 33.446
558.658, 93.584
559.978, 20.356
561.298, 57.163
562.618, 124.052
563.938, 27.008
565.257, 17.983
566.576, 126.999
567.895, 13.063
569.214, 206.189
570.533, 183.421
571.851, 149.638
573.170, 121.031
574.488, 97.007
575.805, 16.752
577.123, 25.204
578.440, 35.695
579.758, 45.536
581.075, 221.032
582.391, 38.353
583.708, 116.277
585.024, 24.930
586.341, 15.243
587.657, 56.444
588.972, 177.161
590.288, 118.897
591.603, 135.655
592.918, 90.578
594.233, 19.160
595.548, 14.078
596.863, 16.685
598.177, 32.446
599.491, 4.208
600.805, 95.970
602.119, 18.270
603.432, 63.479
604.746, 111.225
606.059, 28.969
607.372, 125.710
608.685, 15.447
609.997, 118.174
611.309, 37.102
612.621, 11.601
613.933, 94.704
615.245, 35.943
616.557, 42.586
617.868, 100.219
619.179, 39.844
620.490, 39.461
621.801, 115.932
623.111, 111.618
624.421, 24.161
625.731, 180.695
627.041, 126.776
628.351, 171.690
629.660, 89.850
630.970, 32.435
632.279, 164.959
633.588, 72.349
634.896, 124.732
636.205, 100.110
637.513, 160.482
638.821, 125.849
640.129, 132.210
641.437, 272.566
642.744, 223.918
644.051, 76.263
645.358, 97.603
646.665, 197.935
647.972, 186.263
649.278, 190.932
650.584, 179.250
651.890, 212.203
653.196, 191.851
654.502, 214.479
655.807, 161.797
657.113, 15.089
658.418, 142.372
659.722, 84.449
661.027, 101.437
662.331, 159.703
663.636, 87.307
664.940, 180.232
666.244, 17.275
667.547, 100.688
668.851, 67.921
670.154, 161.515
671.457, 9.110
672.760, 77.719
674.062, 145.727
675.365, 93.591
676.667, 20.881
677.969, 132.001
679.271, 76.501
680.572, 46.745
681.874, 53.944
683.175, 142.688
684.476, 81.301
685.777, 104.221
687.077, 125.183
688.378, 79.379
689.678, 23.990
690.978, 320.969
692.278, 111.356
693.577, 88.462
694.877, 379.470
696.176, 59.905
697.475, 214.210
698.774, 215.107
700.072, 138.781
701.371, 186.748
702.669, 237.613
703.967, 69.467
705.265, 217.715
706.562, 491.114
707.860, 270.878
709.157, 65.013
710.454, 423.995
711.751, 91.359
713.047, 271.333
714.344, 132.021
715.640, 416.939
716.936, 17.384
718.232, 187.686
719.527, 317.739
720.823, 359.719
722.118, 348.780
723.413, 238.443
724.708, 224.899
726.002, 162.617
727.297, 314.375
728.591, 146.299
729.885, 246.909
731.179, 377.606
732.472, 257.088
733.766, 229.255
735.059, 119.313
736.352, 230.864
737.645, 289.316
738.937, 176.093
740.230, 310.426
741.522, 133.684
742.814, 295.735
744.106, 451.978
745.397, 408.967
746.689, 356.509
747.980, 225.806
749.271, 412.180
750.562, 322.893
751.853, 540.240
753.143, 273.366
754.433, 288.612
755.723, 486.262
757.013, 396.436
758.303, 637.544
759.592, 232.507
760.881, 423.534
762.170, 356.266
763.459, 606.315
764.748, 457.886
766.036, 354.303
767.325, 675.528
768.613, 405.355
769.901, 556.758
771.188, 504.448
772.476, 307.103
773.763, 566.895
775.050, 266.416
776.337, 497.917
777.624, 502.925
778.910, 491.689
780.196, 457.069
781.482, 653.850
782.768, 483.278
784.054, 515.010
785.339, 597.318
786.625, 476.309
787.910, 446.527
789.195, 572.984
790.479, 589.617
791.764, 544.533
793.048, 664.746
794.332, 422.322
795.616, 452.881
796.900, 373.418
798.183, 485.936
799.467, 182.262
800.750, 300.660
802.033, 296.119
803.316, 79.561
804.598, 348.977
805.880, 3.625
807.163, 279.734
808.445, 84.076
809.726, 156.396
811.008, 196.695
812.289, 202.553
813.570, 218.393
814.851, 37.924
816.132, 161.082
817.413, 79.283
818.693, 32.656
819.973, 102.469
821.253, 0.746
822.533, 14.248
823.813, 69.076
825.092, 10.098
826.371, 16.941
827.650, 3.176
828.929, 37.738
830.208, 70.131
831.486, 9.576
832.764, 1.420
834.042, 6.033
835.320, 11.627
836.598, 4.062
837.875, 19.352
839.152, 7.877
840.429, 42.346
841.706, 46.414
842.983, 37.502
844.259, 123.504
845.536, 60.883
846.812, 63.898
848.088, 149.086
849.363, 72.629
850.639, 49.191
851.914, 213.391
853.189, 6.576
854.464, 51.336
855.739, 176.770
857.013, 273.859
858.288, 73.443
859.562, 11.568
860.836, 113.555
862.110, 60.527
863.383, 92.545
864.656, 187.000
865.930, 47.617
867.203, 25.521
868.475, 28.273
869.748, 66.141
871.020, 38.965
872.292, 16.850
873.564, 19.357
874.836, 3.764
876.108, 58.852
877.379, 37.840
878.650, 105.514
879.922, 91.135
881.192, 46.785
882.463, 95.305
883.733, 46.922
885.004, 14.521
886.274, 94.107
887.544, 131.680
888.813, 190.016
890.083, 211.832
891.352, 175.119
892.621, 206.656
893.890, 46.188
895.159, 40.457
896.427, 67.973
897.695, 42.539
898.964, 53.805
900.232, 130.229
901.499, 78.578
902.767, 66.064
904.034, 140.248
905.301, 25.553
906.568, 7.850
907.835, 222.127
909.102, 78.398
910.368, 184.654
911.634, 85.910
912.900, 276.154
914.166, 96.391
915.432, 231.615
916.697, 145.830
917.962, 6.035
919.227, 248.225
920.492, 30.412
921.757, 188.588
923.021, 76.771
924.285, 87.023
925.550, 124.670
926.813, 116.262
928.077, 162.408
929.341, 169.547
930.604, 218.699
931.867, 225.844
933.130, 99.979
934.393, 44.105
935.655, 357.248
936.918, 79.381
938.180, 340.527
939.442, 8.324
940.703, 184.814
941.965, 250.949
943.226, 266.072
944.488, 131.191
945.749, 177.297
947.009, 213.395
948.270, 299.490
949.530, 277.578
950.791, 201.658
952.051, 279.730
953.311, 346.795
954.570, 180.852
955.830, 324.553
957.089, 309.594
958.348, 287.646
959.607, 99.674
960.866, 288.367
962.124, 131.359
963.383, 322.422
964.641, 228.520
965.899, 477.650
967.156, 544.295
968.414, 282.453
969.671, 234.262
970.928, 399.734
972.185, 278.633
973.442, 445.037
974.699, 409.164
975.955, 371.914
977.211, 531.902
978.468, 474.416
979.723, 648.748
980.979, 416.391
982.234, 387.217
983.490, 669.385
984.745, 299.180
986.000, 611.221
987.254, 724.301
988.509, 478.822
989.763, 544.463
991.017, 623.791
992.271, 678.066
993.525, 707.568
994.779, 743.152
996.032, 749.926
997.285, 756.730
998.538, 794.725
999.791, 771.543
1001.044, 793.975
1002.296, 678.436
1003.548, 806.641
1004.800, 751.078
1006.052, 718.215
1007.304, 766.441
1008.555, 788.270
1009.807, 810.488
1011.058, 894.174
1012.309, 921.320
1013.559, 933.289
1014.810, 889.400
1016.060, 736.703
1017.310, 815.637
1018.560, 928.477
1019.810, 654.332
1021.060, 817.348
1022.309, 1037.715
1023.558, 739.598
1024.807, 1019.148
1026.056, 897.566
1027.305, 925.875
1028.553, 811.904
1029.801, 806.857
1031.049, 936.246
1032.297, 848.373
1033.545, 920.701
1034.793, 1090.826
1036.040, 821.824
1037.287, 921.195
1038.534, 1001.703
1039.781, 941.469
1041.027, 1187.992
1042.274, 1023.516
1043.520, 994.520
1044.766, 1146.764
1046.012, 1010.689
1047.257, 970.869
1048.503, 967.148
1049.748, 1117.740
1050.993, 995.232
1052.238, 1292.365
1053.483, 1198.186
1054.727, 1049.289
1055.971, 985.383
1057.216, 1269.398
1058.459, 1150.867
1059.703, 1054.381
1060.947, 941.383
1062.190, 1258.648
1063.433, 1173.512
1064.676, 1333.891
1065.919, 1120.330
1067.162, 1274.859
1068.404, 1619.848
1069.646, 1213.270
1070.888, 1366.377
1072.130, 1359.781
1073.372, 1355.049
1074.613, 1449.695
1075.855, 1524.291
1077.096, 1504.709
1078.337, 1377.521
1079.578, 1526.041
1080.818, 1499.705
1082.059, 1592.258
1083.299, 1330.641
1084.539, 1613.963
1085.779, 1463.578
1087.018, 1502.934
1088.258, 1538.973
1089.497, 1532.672
1090.736, 1511.721
1091.975, 1512.619
1093.213, 1476.020
1094.452, 1472.338
1095.690, 1478.023
1096.928, 1450.221
1098.166, 1477.346
1099.404, 1441.104
1100.642, 1437.721
1101.879, 1625.195
1103.116, 1618.707
1104.353, 1441.131
1105.590, 1602.814
1106.827, 1221.582
1108.063, 1439.240
1109.299, 1274.916
1110.536, 1594.568
1111.771, 1575.408
1113.007, 1229.994
1114.243, 1376.281
1115.478, 1367.000
1116.713, 1315.535
1117.948, 1135.643
1119.183, 1322.092
1120.418, 1420.371
1121.652, 1433.094
1122.886, 1110.566
1124.120, 1221.846
1125.354, 1165.609
1126.588, 1096.006
1127.821, 1269.959
1129.055, 1157.496
1130.288, 1301.746
1131.521, 1315.967
1132.753, 1265.594
1133.986, 997.174
1135.218, 1084.322
1136.450, 1112.025
1137.682, 859.150
1138.914, 1219.072
1140.146, 1022.740
1141.377, 856.545
1142.609, 925.383
1143.840, 944.744
1145.071, 928.596
1146.301, 1065.619
1147.532, 877.816
1148.762, 1016.441
1149.992, 704.270
1151.222, 633.391
1152.452, 776.688
1153.682, 809.129
1154.911, 550.250
1156.140, 836.041
1157.369, 710.406
1158.598, 545.277
1159.827, 671.531
1161.055, 666.166
1162.284, 579.203
1163.512, 637.479
1164.740, 472.918
1165.967, 590.701
1167.195, 398.412
1168.422, 636.645
1169.650, 485.898
1170.877, 376.281
1172.103, 511.670
1173.330, 378.996
1174.557, 499.096
1175.783, 456.943
1177.009, 499.385
1178.235, 89.072
1179.461, 451.010
1180.686, 343.391
1181.912, 283.410
1183.137, 460.092
1184.362, 584.471
1185.587, 288.264
1186.811, 217.705
1188.036, 379.594
1189.260, 318.127
1190.484, 172.881
1191.708, 277.574
1192.932, 350.471
1194.155, 81.506
1195.378, 191.379
1196.602, 205.402
1197.825, 403.482
1199.047, 102.490
1200.270, 237.572
1201.492, 151.572
1202.715, 354.752
1203.937, 306.398
1205.159, 326.693
1206.380, 258.766
1207.602, 179.404
1208.823, 87.785
1210.044, 211.082
1211.265, 353.502
1212.486, 316.699
1213.707, 291.865
1214.927, 325.049
1216.147, 316.076
1217.367, 312.105
1218.587, 365.434
1219.807, 392.482
1221.027, 240.439
1222.246, 272.791
1223.465, 223.693
1224.684, 310.561
1225.903, 288.834
1227.121, 253.199
1228.340, 279.971
1229.558, 316.711
1230.776, 274.703
1231.994, 262.906
1233.212, 80.035
1234.429, 159.650
1235.646, 108.365
1236.864, 22.740
1238.081, 387.283
1239.297, 156.533
1240.514, 324.744
1241.730, 377.916
1242.947, 56.016
1244.163, 128.076
1245.378, 213.064
1246.594, 245.984
1247.810, 277.197
1249.025, 266.988
1250.240, 286.504
1251.455, 222.361
1252.670, 200.316
1253.885, 227.033
1255.099, 220.793
1256.313, 57.279
1257.527, 157.289
1258.741, 121.057
1259.955, 116.074
1261.168, 90.859
1262.382, 65.318
1263.595, 201.184
1264.808, 217.184
1266.021, 80.824
1267.233, 367.332
1268.446, 123.998
1269.658, 208.299
1270.870, 63.469
1272.082, 140.605
1273.294, 23.588
1274.505, 185.492
1275.716, 19.336
1276.928, 86.736
1278.139, 40.162
1279.349, 184.477
1280.560, 22.049
1281.770, 148.555
1282.981, 89.986
1284.191, 31.359
1285.401, 146.662
1286.610, 124.904
1287.820, 35.086
1289.029, 214.201
1290.239, 119.793
1291.448, 293.242
1292.656, 78.170
1293.865, 142.033
1295.073, 116.826
1296.282, 80.551
1297.490, 34.793
1298.698, 52.773
1299.906, 76.271
1301.113, 107.699
1302.320, 169.059
1303.528, 76.648
1304.735, 187.543
1305.942, 137.338
1307.148, 71.658
1308.355, 160.586
1309.561, 8.445
1310.767, 262.225
1311.973, 87.936
1313.179, 141.576
1314.384, 229.844
1315.590, 330.604
1316.795, 34.996
1318.000, 116.324
1319.205, 133.406
1320.410, 191.758
1321.614, 91.865
1322.819, 176.088
1324.023, 142.129
1325.227, 267.002
1326.431, 381.822
1327.634, 14.592
1328.838, 110.705
1330.041, 135.904
1331.244, 205.459
1332.447, 25.295
1333.650, 52.145
1334.852, 119.527
1336.055, 121.385
1337.257, 283.625
1338.459, 243.156
1339.661, 274.828
1340.862, 230.955
1342.064, 209.723
1343.265, 215.824
1344.466, 187.164
1345.667, 199.873
1346.868, 145.277
1348.068, 207.283
1349.269, 153.275
1350.469, 45.260
1351.669, 234.039
1352.869, 284.496
1354.069, 292.854
1355.268, 252.508
1356.468, 96.340
1357.667, 299.209
1358.866, 430.115
1360.065, 296.936
1361.263, 334.371
1362.462, 240.430
1363.660, 302.850
1364.858, 461.889
1366.056, 218.094
1367.254, 323.004
1368.451, 548.539
1369.649, 459.906
1370.846, 419.199
1372.043, 454.770
1373.240, 360.199
1374.436, 253.393
1375.633, 389.637
1376.829, 694.152
1378.025, 343.682
1379.221, 260.420
1380.417, 457.033
1381.613, 219.891
1382.808, 281.363
1384.003, 296.607
1385.199, 300.398
1386.393, 277.984
1387.588, 267.809
1388.783, 289.637
1389.977, 269.695
1391.171, 268.162
1392.365, 259.035
1393.559, 243.486
1394.753, 225.059
1395.946, 190.801
1397.140, 233.807
1398.333, 211.430
1399.526, 319.426
1400.719, 393.000
1401.911, 445.031
1403.104, 345.133
1404.296, 248.434
1405.488, 156.021
1406.680, 270.219
1407.872, 119.588
1409.063, 194.611
1410.255, 464.473
1411.446, 73.369
1412.637, 759.666
1413.828, 503.639
1415.018, 408.117
1416.209, 352.111
1417.399, 194.783
1418.589, 141.957
1419.779, 176.209
1420.969, 195.371
1422.159, 322.340
1423.348, 113.742
1424.537, 221.121
1425.726, 184.520
1426.915, 324.354
1428.104, 169.826
1429.293, 190.580
1430.481, 284.014
1431.669, 95.518
1432.857, 328.623
1434.045, 273.352
1435.233, 164.812
1436.420, 341.986
1437.608, 423.188
1438.795, 162.711
1439.982, 325.980
1441.169, 469.293
1442.355, 192.943
1443.542, 260.484
1444.728, 365.951
1445.914, 273.291
1447.100, 323.865
1448.286, 283.691
1449.472, 263.885
1450.657, 26.607
1451.842, 760.652
1453.027, 369.785
1454.212, 243.262
1455.397, 622.311
1456.581, 152.580
1457.766, 75.404
1458.950, 489.385
1460.134, 276.312
1461.318, 479.223
1462.501, 287.189
1463.685, 214.186
1464.868, 406.156
1466.051, 132.141
1467.234, 450.143
1468.417, 127.211
1469.600, 102.402
1470.782, 137.732
1471.965, 511.201
1473.147, 50.865
1474.329, 344.854
1475.510, 331.162
1476.692, 257.859
1477.873, 292.924
1479.055, 146.234
1480.236, 123.807
1481.416, 343.691
1482.597, 35.951
1483.778, 199.662
1484.958, 186.906
1486.138, 30.771
1487.318, 63.342
1488.498, 64.205
1489.678, 66.900
1490.857, 181.215
1492.037, 50.865
1493.216, 162.160
1494.395, 241.543
1495.574, 2.340
1496.752, 258.246
1497.931, 0.000
##END=



