##NAMES=Chabazite-Ca
##RRUFFID=R070353
##IDEAL CHEMISTRY=Ca_2_Al_4_Si_8_O_24_&#183;13H_2_O
##LOCALITY=Maze, Niigata perfecture, Japan
##OWNER=RRUFF
##SOURCE=Michael Scott
##DESCRIPTION=Colorless vitreous pseudocubic crystals in cavity
##STATUS=The identification of this mineral is confirmed by single-crystal X-ray diffraction and chemical analysis.
##URL=rruff.info/R070353
##MEASURED CHEMISTRY=(Ca_0.90_Na_0.08_K_0.02_)_Σ=1_(Si_4.10_Al_1.90_)O_12_·5.89H_2_O ; H_2_O estimated by difference
147.5358, 0.0000000E+00
148.0179, 5.701172
148.5001, 36.90869
148.9822, 75.28931
149.4643, 112.3579
149.9464, 145.2488
150.4285, 178.9460
150.9106, 220.6848
151.3928, 266.9653
151.8749, 300.0718
152.3570, 311.8452
152.8391, 313.0696
153.3212, 313.9109
153.8033, 314.9597
154.2855, 310.6738
154.7676, 294.1453
155.2497, 267.4097
155.7318, 240.0933
156.2139, 210.8582
156.6960, 182.8640
157.1782, 159.7371
157.6603, 141.7871
158.1424, 127.2864
158.6245, 110.4258
159.1066, 95.72021
159.5887, 96.84546
160.0709, 128.6230
160.5530, 173.8899
161.0351, 207.6316
161.5172, 227.0645
161.9993, 242.5845
162.4814, 257.7471
162.9636, 274.1533
163.4457, 296.0200
163.9278, 326.4204
164.4099, 362.6411
164.8920, 400.0017
165.3741, 438.6326
165.8563, 477.8176
166.3384, 519.2114
166.8205, 560.7214
167.3026, 598.2314
167.7847, 626.5996
168.2668, 651.2937
168.7490, 687.2271
169.2311, 742.5562
169.7132, 790.0835
170.1953, 810.2568
170.6774, 814.5137
171.1595, 820.9160
171.6417, 841.8901
172.1238, 868.2788
172.6059, 875.1899
173.0880, 852.3032
173.5701, 829.7332
174.0522, 824.2886
174.5344, 826.8689
175.0165, 823.6045
175.4986, 803.5876
175.9807, 775.8115
176.4628, 766.9436
176.9449, 788.8833
177.4271, 808.2019
177.9092, 813.3003
178.3913, 808.2192
178.8734, 797.0840
179.3555, 779.3708
179.8376, 758.9961
180.3197, 748.3655
180.8019, 754.7385
181.2840, 758.1633
181.7661, 749.8574
182.2482, 736.1511
182.7303, 725.5715
183.2124, 723.2668
183.6946, 725.0425
184.1767, 717.2310
184.6588, 689.4602
185.1409, 670.8599
185.6230, 677.1489
186.1051, 692.7764
186.5873, 699.5728
187.0694, 688.5298
187.5515, 665.0286
188.0336, 644.6755
188.5157, 624.5752
188.9978, 610.9648
189.4800, 612.3823
189.9621, 611.4055
190.4442, 612.3606
190.9263, 615.5918
191.4084, 615.6135
191.8905, 613.4128
192.3727, 611.0229
192.8548, 606.6697
193.3369, 596.8767
193.8190, 585.2517
194.3011, 583.1799
194.7832, 588.7517
195.2654, 590.9490
195.7475, 580.9727
196.2296, 549.6187
196.7117, 534.6069
197.1938, 550.7390
197.6759, 565.0857
198.1581, 567.2224
198.6402, 552.1106
199.1223, 527.5364
199.6044, 514.1824
200.0865, 526.6746
200.5686, 526.5388
201.0508, 497.4807
201.5329, 462.6472
202.0150, 445.4365
202.4971, 451.3005
202.9792, 464.5151
203.4613, 458.3330
203.9435, 421.0054
204.4256, 390.4783
204.9077, 367.0786
205.3898, 349.9490
205.8719, 344.2058
206.3540, 348.7693
206.8362, 355.1152
207.3183, 351.5750
207.8004, 335.4233
208.2825, 315.7432
208.7646, 289.3474
209.2467, 262.3376
209.7289, 237.1587
210.2110, 214.7539
210.6931, 195.4404
211.1752, 179.1650
211.6573, 165.1133
212.1395, 158.0413
212.6216, 173.0208
213.1037, 181.8843
213.5858, 162.0286
214.0679, 119.2297
214.5500, 80.79736
215.0322, 77.03320
215.5143, 115.7588
215.9964, 138.2175
216.4785, 135.1499
216.9606, 124.7690
217.4427, 108.5544
217.9249, 90.06445
218.4070, 75.35327
218.8891, 69.91577
219.3712, 73.98389
219.8533, 78.30542
220.3354, 82.54834
220.8176, 87.40332
221.2997, 98.01270
221.7818, 109.3376
222.2639, 110.9016
222.7460, 93.81299
223.2281, 60.28613
223.7103, 36.27759
224.1924, 29.19629
224.6745, 24.41919
225.1566, 18.94995
225.6387, 13.79053
226.1208, 11.63599
226.6030, 14.67212
227.0851, 20.49072
227.5672, 18.44995
228.0493, 1.473633
228.5314, 15.87378
229.0135, 12.99707
229.4957, 5.619141
229.9778, 11.39038
230.4599, 38.85840
230.9420, 75.61133
231.4241, 89.29346
231.9062, 59.93604
232.3884, 41.28442
232.8705, 48.15332
233.3526, 62.71484
233.8347, 69.51099
234.3168, 63.43896
234.7989, 50.44458
235.2811, 40.31104
235.7632, 33.56714
236.2453, 28.59717
236.7274, 27.35620
237.2095, 26.16943
237.6916, 22.26465
238.1738, 15.26538
238.6559, 7.207275
239.1380, 1.009033
239.6201, 11.89697
240.1022, 13.23315
240.5843, 10.51562
241.0665, 31.54321
241.5486, 35.38672
242.0307, 22.42529
242.5128, 2.702881
242.9949, 16.63232
243.4770, 36.22852
243.9592, 47.79785
244.4413, 51.11523
244.9234, 45.44482
245.4055, 18.50171
245.8876, 19.15039
246.3697, 41.06006
246.8519, 21.15625
247.3340, 33.84473
247.8161, 61.74243
248.2982, 42.87500
248.7803, 21.60107
249.2624, 9.809814
249.7446, 6.703613
250.2267, 11.42847
250.7088, 25.71973
251.1909, 45.14355
251.6730, 57.14429
252.1551, 60.69604
252.6373, 58.26807
253.1194, 44.23389
253.6015, 28.01538
254.0836, 20.65405
254.5657, 27.06738
255.0478, 39.98633
255.5300, 48.30396
256.0121, 51.17700
256.4942, 52.52295
256.9763, 51.41846
257.4584, 50.37671
257.9406, 51.10840
258.4227, 53.97925
258.9048, 58.54956
259.3869, 65.50293
259.8690, 75.05981
260.3511, 81.96484
260.8333, 84.25952
261.3154, 84.24048
261.7975, 82.58057
262.2796, 79.60278
262.7617, 77.95703
263.2438, 80.79053
263.7260, 87.09863
264.2081, 91.00903
264.6902, 91.47778
265.1723, 90.00415
265.6544, 84.56738
266.1365, 77.40479
266.6187, 76.63599
267.1008, 91.35547
267.5829, 114.1016
268.0650, 129.1023
268.5471, 134.9458
269.0292, 136.4343
269.5114, 134.4561
269.9935, 130.5129
270.4756, 126.6392
270.9577, 118.7834
271.4398, 114.9507
271.9219, 128.8743
272.4041, 161.2495
272.8862, 188.2573
273.3683, 198.2830
273.8504, 194.5791
274.3325, 184.1184
274.8146, 161.3215
275.2968, 142.4438
275.7789, 139.1619
276.2610, 149.1965
276.7431, 163.9263
277.2252, 181.8740
277.7073, 201.2251
278.1895, 221.2117
278.6716, 244.5750
279.1537, 257.6072
279.6358, 244.7258
280.1179, 220.6196
280.6000, 212.7229
281.0822, 228.5972
281.5643, 251.2063
282.0464, 259.8167
282.5285, 253.0317
283.0106, 249.8696
283.4927, 253.5879
283.9749, 261.1226
284.4570, 271.9294
284.9391, 285.2634
285.4212, 295.6172
285.9033, 297.3618
286.3854, 289.9573
286.8676, 286.1362
287.3497, 285.4041
287.8318, 288.0532
288.3139, 295.2986
288.7960, 304.6428
289.2781, 312.5854
289.7603, 319.0461
290.2424, 324.1611
290.7245, 329.5110
291.2066, 335.8391
291.6887, 340.8555
292.1708, 344.2285
292.6530, 347.5679
293.1351, 352.9663
293.6172, 360.9236
294.0993, 368.6846
294.5814, 371.3018
295.0635, 366.9990
295.5457, 360.3716
296.0278, 345.9619
296.5099, 333.7422
296.9920, 331.4749
297.4741, 339.5229
297.9562, 352.1597
298.4384, 362.9761
298.9205, 372.0244
299.4026, 380.3313
299.8847, 389.5742
300.3668, 398.9526
300.8489, 409.4192
301.3310, 418.9402
301.8131, 423.4482
302.2953, 419.3577
302.7774, 409.1633
303.2595, 406.0085
303.7416, 414.7539
304.2237, 420.6316
304.7058, 421.7473
305.1880, 423.1711
305.6701, 426.1084
306.1522, 431.1931
306.6343, 437.9895
307.1164, 447.2939
307.5985, 460.9929
308.0807, 472.0100
308.5628, 473.2903
309.0449, 475.9543
309.5270, 488.3469
310.0091, 510.3818
310.4912, 532.4915
310.9734, 545.7173
311.4555, 550.6768
311.9376, 555.5237
312.4197, 558.6123
312.9018, 566.4204
313.3839, 587.7402
313.8661, 616.5889
314.3482, 637.0134
314.8303, 635.2461
315.3124, 623.5259
315.7945, 623.9998
316.2766, 638.3284
316.7588, 655.4482
317.2409, 671.1758
317.7230, 685.3081
318.2051, 696.9844
318.6872, 704.1125
319.1693, 712.0281
319.6515, 724.9478
320.1336, 742.0737
320.6157, 761.2349
321.0978, 783.8306
321.5799, 804.6782
322.0620, 814.4434
322.5442, 812.1926
323.0263, 808.5574
323.5084, 802.3542
323.9905, 798.1301
324.4726, 803.6799
324.9547, 820.4004
325.4369, 840.2727
325.9190, 856.1138
326.4011, 867.9539
326.8832, 870.0530
327.3653, 854.1575
327.8474, 837.8621
328.3296, 831.1794
328.8117, 831.6895
329.2938, 831.5532
329.7759, 825.9607
330.2580, 816.9771
330.7401, 814.4326
331.2223, 829.2322
331.7044, 837.2498
332.1865, 831.4746
332.6686, 820.4836
333.1507, 813.3569
333.6328, 812.5781
334.1150, 812.8665
334.5971, 805.7585
335.0792, 787.8577
335.5613, 771.4824
336.0434, 758.7478
336.5255, 746.7146
337.0077, 733.5488
337.4898, 719.5186
337.9719, 706.0723
338.4540, 694.9143
338.9361, 685.0686
339.4182, 671.7898
339.9004, 654.3350
340.3825, 637.9277
340.8646, 624.1973
341.3467, 614.0537
341.8288, 608.8789
342.3109, 611.0435
342.7931, 612.1162
343.2752, 594.4797
343.7573, 553.5425
344.2394, 525.0007
344.7215, 527.1797
345.2036, 537.7856
345.6858, 541.6426
346.1679, 537.8662
346.6500, 527.3638
347.1321, 503.4253
347.6142, 471.6719
348.0963, 451.5022
348.5785, 448.3831
349.0606, 447.4875
349.5427, 434.5344
350.0248, 413.6792
350.5069, 398.2588
350.9890, 396.5950
351.4712, 397.1650
351.9533, 389.3289
352.4354, 374.5610
352.9175, 361.2761
353.3996, 354.3596
353.8817, 350.2998
354.3639, 338.9036
354.8460, 315.8130
355.3281, 296.2639
355.8102, 287.9434
356.2923, 283.0251
356.7744, 271.0447
357.2566, 250.1216
357.7387, 228.2373
358.2208, 214.6519
358.7029, 211.3506
359.1850, 205.3569
359.6671, 191.5317
360.1493, 180.4924
360.6314, 178.5391
361.1135, 183.0591
361.5956, 189.0601
362.0777, 194.2144
362.5598, 196.6270
363.0420, 188.2112
363.5241, 155.2441
364.0062, 133.8462
364.4883, 138.3662
364.9704, 148.5593
365.4525, 144.8887
365.9347, 124.3557
366.4168, 102.5166
366.8989, 100.8608
367.3810, 121.3884
367.8631, 127.5662
368.3452, 108.1733
368.8274, 85.45557
369.3095, 69.51855
369.7916, 59.19434
370.2737, 50.93701
370.7558, 40.79150
371.2379, 33.61279
371.7201, 41.52710
372.2022, 66.68262
372.6843, 85.79395
373.1664, 85.35205
373.6485, 75.17944
374.1306, 71.19971
374.6128, 75.84155
375.0949, 79.56543
375.5770, 75.57104
376.0591, 67.48169
376.5412, 63.84204
377.0233, 67.08350
377.5055, 69.17188
377.9876, 60.24219
378.4697, 38.79102
378.9518, 24.84082
379.4339, 20.89014
379.9160, 22.49951
380.3982, 32.90332
380.8803, 47.25977
381.3624, 51.67871
381.8445, 37.48755
382.3266, 12.40454
382.8087, 0.1787110
383.2909, 18.79663
383.7730, 25.48511
384.2551, 5.868896
384.7372, 17.71289
385.2193, 25.60156
385.7014, 15.72217
386.1836, 0.9038090
386.6657, 5.131348
387.1478, 1.709473
387.6299, 2.447754
388.1120, 15.46875
388.5941, 23.02222
389.0763, 14.02393
389.5584, 2.763184
390.0405, 13.10400
390.5226, 10.16528
391.0047, 0.7846680
391.4868, 5.294922
391.9690, 8.076660
392.4511, 7.461182
392.9332, 3.975098
393.4153, 3.887939
393.8974, 21.12988
394.3795, 47.49561
394.8617, 65.17725
395.3438, 63.13525
395.8259, 47.70190
396.3080, 23.08765
396.7901, 11.55127
397.2722, 32.50635
397.7544, 16.78882
398.2365, 27.31128
398.7186, 52.69116
399.2007, 46.23950
399.6828, 36.08447
400.1649, 32.97534
400.6471, 33.29932
401.1292, 30.02563
401.6113, 20.79150
402.0934, 10.64087
402.5755, 6.841797
403.0576, 10.59814
403.5398, 17.83862
404.0219, 37.62109
404.5040, 52.14990
404.9861, 47.66406
405.4682, 30.10449
405.9503, 15.68384
406.4325, 15.36719
406.9146, 24.14600
407.3967, 24.21826
407.8788, 12.66040
408.3609, 1.908447
408.8430, 20.22534
409.3252, 39.12402
409.8073, 57.78296
410.2894, 75.57056
410.7715, 88.40845
411.2536, 86.89185
411.7357, 75.58789
412.2179, 80.54761
412.7000, 109.7451
413.1821, 140.0027
413.6642, 155.2019
414.1463, 160.0051
414.6284, 161.5544
415.1106, 156.1465
415.5927, 154.0120
416.0748, 164.7695
416.5569, 185.1602
417.0390, 204.9512
417.5211, 220.4229
418.0033, 234.6956
418.4854, 251.6357
418.9675, 270.0671
419.4496, 296.4170
419.9317, 339.5186
420.4138, 383.4065
420.8960, 415.1768
421.3781, 437.7625
421.8602, 464.5432
422.3423, 505.6121
422.8244, 554.8354
423.3065, 584.7119
423.7887, 576.4600
424.2708, 577.9890
424.7529, 595.9292
425.2350, 623.4922
425.7171, 657.7837
426.1992, 697.1008
426.6814, 736.4529
427.1635, 768.3274
427.6456, 794.2849
428.1277, 831.2410
428.6098, 884.4585
429.0919, 938.5435
429.5741, 988.3542
430.0562, 1033.526
430.5383, 1070.848
431.0204, 1093.981
431.5025, 1121.284
431.9846, 1172.103
432.4668, 1240.438
432.9489, 1305.389
433.4310, 1361.902
433.9131, 1412.601
434.3952, 1458.610
434.8773, 1498.808
435.3595, 1545.004
435.8416, 1600.491
436.3237, 1659.584
436.8058, 1721.143
437.2879, 1783.545
437.7701, 1843.161
438.2522, 1897.661
438.7343, 1951.056
439.2164, 2013.553
439.6985, 2091.860
440.1806, 2167.299
440.6628, 2243.802
441.1449, 2314.934
441.6270, 2370.976
442.1091, 2415.669
442.5912, 2463.149
443.0733, 2526.954
443.5555, 2603.453
444.0376, 2674.662
444.5197, 2737.827
445.0018, 2801.133
445.4839, 2870.370
445.9660, 2941.009
446.4482, 3007.507
446.9303, 3068.168
447.4124, 3130.449
447.8945, 3200.908
448.3766, 3276.627
448.8587, 3351.723
449.3409, 3425.870
449.8230, 3492.888
450.3051, 3547.331
450.7872, 3590.011
451.2693, 3631.753
451.7514, 3669.491
452.2336, 3708.097
452.7157, 3751.751
453.1978, 3798.144
453.6799, 3843.908
454.1620, 3888.055
454.6441, 3929.611
455.1263, 3966.166
455.6084, 3997.635
456.0905, 4022.854
456.5726, 4036.500
457.0547, 4050.926
457.5368, 4070.345
458.0190, 4092.221
458.5011, 4112.181
458.9832, 4128.262
459.4653, 4144.434
459.9474, 4169.003
460.4295, 4201.809
460.9117, 4223.021
461.3938, 4219.644
461.8759, 4215.279
462.3580, 4238.542
462.8401, 4283.930
463.3222, 4317.062
463.8044, 4315.242
464.2865, 4306.581
464.7686, 4316.091
465.2507, 4341.276
465.7328, 4369.149
466.2149, 4393.672
466.6971, 4417.450
467.1792, 4446.816
467.6613, 4490.900
468.1434, 4520.434
468.6255, 4512.812
469.1076, 4510.482
469.5898, 4542.888
470.0719, 4604.288
470.5540, 4673.876
471.0361, 4740.958
471.5182, 4801.628
472.0003, 4841.329
472.4825, 4846.149
472.9646, 4867.391
473.4467, 4940.004
473.9288, 5015.147
474.4109, 5060.888
474.8930, 5076.660
475.3752, 5082.459
475.8573, 5077.420
476.3394, 5074.519
476.8215, 5102.719
477.3036, 5162.870
477.7857, 5218.275
478.2679, 5251.582
478.7500, 5267.715
479.2321, 5276.331
479.7142, 5271.275
480.1963, 5274.817
480.6784, 5313.087
481.1606, 5347.068
481.6427, 5334.450
482.1248, 5278.139
482.6069, 5215.731
483.0890, 5176.343
483.5711, 5152.725
484.0533, 5102.666
484.5354, 5004.157
485.0175, 4915.820
485.4996, 4857.431
485.9817, 4801.749
486.4638, 4727.678
486.9460, 4633.081
487.4281, 4531.733
487.9102, 4431.273
488.3923, 4332.135
488.8744, 4237.991
489.3565, 4149.292
489.8387, 4061.835
490.3208, 3976.914
490.8029, 3890.573
491.2850, 3795.350
491.7671, 3688.513
492.2492, 3580.778
492.7314, 3476.262
493.2135, 3374.317
493.6956, 3271.688
494.1777, 3169.404
494.6598, 3074.949
495.1419, 2995.854
495.6241, 2928.182
496.1062, 2845.108
496.5883, 2732.539
497.0704, 2623.442
497.5525, 2516.661
498.0346, 2418.046
498.5168, 2337.750
498.9989, 2273.680
499.4810, 2208.016
499.9631, 2121.508
500.4452, 2021.041
500.9273, 1937.797
501.4095, 1876.374
501.8916, 1814.090
502.3737, 1738.645
502.8558, 1656.971
503.3379, 1579.019
503.8200, 1503.458
504.3022, 1439.763
504.7843, 1402.819
505.2664, 1373.870
505.7485, 1329.361
506.2306, 1268.742
506.7127, 1208.642
507.1949, 1160.398
507.6770, 1120.256
508.1591, 1072.258
508.6412, 1006.348
509.1233, 947.7214
509.6054, 895.9979
510.0876, 851.6929
510.5697, 818.5483
511.0518, 794.6423
511.5339, 772.2400
512.0161, 746.6779
512.4982, 718.0641
512.9803, 685.9969
513.4624, 650.3809
513.9445, 613.0627
514.4266, 572.1112
514.9088, 531.9124
515.3909, 497.4482
515.8730, 468.7296
516.3551, 444.0670
516.8372, 425.7617
517.3193, 409.1646
517.8015, 390.6985
518.2836, 369.9479
518.7657, 344.4204
519.2478, 311.8326
519.7299, 278.5317
520.2120, 260.7478
520.6942, 271.9795
521.1763, 272.8546
521.6584, 259.4957
522.1405, 240.7327
522.6226, 217.3445
523.1047, 192.4742
523.5869, 172.8617
524.0690, 162.7773
524.5511, 157.6898
525.0332, 150.5659
525.5153, 141.4185
525.9974, 132.6163
526.4796, 125.3311
526.9617, 117.5625
527.4438, 104.9401
527.9259, 88.36389
528.4080, 78.28357
528.8901, 81.28284
529.3723, 86.11218
529.8544, 88.76953
530.3365, 87.93750
530.8186, 79.90308
531.3007, 63.60303
531.7828, 45.66760
532.2650, 35.75330
532.7471, 35.56714
533.2292, 32.31580
533.7113, 16.56482
534.1934, 8.830933
534.6755, 25.62329
535.1577, 50.07581
535.6398, 57.35522
536.1219, 39.03442
536.6040, 15.93774
537.0861, 7.560547
537.5682, 9.974487
538.0504, 10.95081
538.5325, 9.112061
539.0146, 5.755737
539.4967, 1.200928
539.9788, 4.033813
540.4609, 7.222900
540.9431, 5.987671
541.4252, 6.419678
541.9073, 15.63000
542.3894, 23.19165
542.8715, 13.38843
543.3536, 10.93091
543.8358, 28.06494
544.3179, 18.94324
544.8000, 9.654297
545.2821, 27.90466
545.7642, 33.47339
546.2463, 34.51453
546.7285, 29.81006
547.2106, 23.44922
547.6926, 18.06543
548.1747, 14.01013
548.6569, 11.65674
549.1390, 9.744263
549.6211, 10.33386
550.1032, 17.63525
550.5853, 30.01294
551.0674, 40.66785
551.5496, 47.10608
552.0317, 49.56116
552.5138, 48.30371
552.9959, 42.76526
553.4780, 34.97314
553.9601, 19.68335
554.4423, 7.204712
554.9244, 2.448120
555.4065, 3.061523
555.8886, 5.948242
556.3707, 9.816406
556.8528, 12.02124
557.3350, 7.553955
557.8171, 1.707153
558.2992, 5.569946
558.7813, 2.485840
559.2634, 0.4591060
559.7455, 2.328003
560.2277, 8.781860
560.7098, 13.34558
561.1919, 16.39490
561.6740, 16.42554
562.1561, 8.648804
562.6382, 1.154541
563.1204, 5.141968
563.6025, 19.43945
564.0846, 32.28613
564.5667, 35.26404
565.0488, 30.21777
565.5309, 23.22095
566.0131, 10.02527
566.4952, 2.441040
566.9773, 6.758057
567.4594, 15.50842
567.9415, 25.57556
568.4236, 36.66431
568.9058, 47.72021
569.3879, 62.38623
569.8700, 72.30725
570.3521, 63.57117
570.8342, 43.15515
571.3163, 35.96155
571.7985, 50.59082
572.2806, 70.35449
572.7627, 74.82068
573.2448, 62.01221
573.7269, 52.63989
574.2090, 44.80505
574.6912, 42.27112
575.1733, 49.00073
575.6554, 60.04053
576.1375, 72.25757
576.6196, 83.69092
577.1017, 89.59363
577.5839, 81.78638
578.0660, 65.40198
578.5481, 57.39099
579.0302, 58.33618
579.5123, 64.89490
579.9944, 78.32227
580.4766, 94.11914
580.9587, 103.3434
581.4408, 105.4069
581.9229, 105.9396
582.4050, 107.1920
582.8871, 104.5557
583.3693, 91.47034
583.8514, 73.30615
584.3335, 61.55591
584.8156, 61.57812
585.2977, 67.78723
585.7798, 71.62915
586.2620, 72.81067
586.7441, 75.29614
587.2262, 80.69629
587.7083, 85.05493
588.1904, 86.35828
588.6725, 85.09424
589.1547, 81.22668
589.6368, 72.91345
590.1189, 66.74988
590.6010, 65.63354
591.0831, 68.55273
591.5652, 77.29370
592.0474, 89.99487
592.5295, 97.29944
593.0116, 92.29309
593.4937, 79.50891
593.9758, 73.38574
594.4579, 78.36646
594.9401, 79.53296
595.4222, 73.50854
595.9043, 65.31360
596.3864, 54.92395
596.8685, 44.40405
597.3506, 38.57080
597.8328, 40.23499
598.3149, 44.97156
598.7970, 50.77856
599.2791, 56.46167
599.7612, 58.16150
600.2433, 55.17236
600.7255, 51.22705
601.2076, 47.81714
601.6897, 45.10852
602.1718, 48.68115
602.6539, 70.65955
603.1360, 80.49121
603.6182, 67.89636
604.1003, 50.40857
604.5824, 38.23523
605.0645, 33.47498
605.5466, 37.68103
606.0287, 57.29553
606.5109, 78.54602
606.9930, 75.84326
607.4751, 52.78931
607.9572, 41.21704
608.4393, 51.69348
608.9214, 63.28625
609.4036, 52.84644
609.8857, 20.50781
610.3678, 2.698975
610.8499, 12.45569
611.3320, 19.54968
611.8141, 13.44592
612.2963, 4.147339
612.7784, 2.951172
613.2605, 9.665039
613.7426, 14.08655
614.2247, 6.120605
614.7068, 7.463135
615.1890, 6.826294
615.6711, 9.280762
616.1532, 17.08716
616.6353, 6.064331
617.1174, 9.925781
617.5995, 15.37500
618.0817, 9.893799
618.5638, 2.611572
619.0459, 11.14331
619.5280, 20.67407
620.0101, 18.44165
620.4922, 10.83606
620.9744, 7.251709
621.4565, 9.309692
621.9386, 10.61707
622.4207, 3.921631
622.9028, 7.137939
623.3849, 6.281006
623.8671, 9.192993
624.3492, 18.19421
624.8313, 12.45142
625.3134, 1.217285
625.7955, 6.201782
626.2776, 10.16248
626.7598, 10.00134
627.2419, 1.807373
627.7240, 6.404053
628.2061, 10.35925
628.6882, 11.83105
629.1703, 13.60095
629.6525, 16.41016
630.1346, 18.73987
630.6167, 18.84546
631.0988, 17.31104
631.5809, 18.31494
632.0630, 23.59644
632.5452, 23.89819
633.0273, 11.17322
633.5094, 2.545044
633.9915, 1.100098
634.4736, 14.47266
634.9557, 23.05981
635.4379, 13.86255
635.9200, 3.606079
636.4021, 1.120239
636.8842, 3.915771
637.3663, 9.739502
637.8484, 16.99878
638.3306, 20.17004
638.8127, 11.22363
639.2948, 6.170776
639.7769, 6.847778
640.2590, 15.56519
640.7411, 31.71875
641.2233, 28.77527
641.7054, 20.38879
642.1875, 20.48633
642.6696, 28.49329
643.1517, 37.42993
643.6339, 50.94336
644.1160, 59.56653
644.5981, 55.65125
645.0802, 44.45654
645.5623, 32.49963
646.0444, 21.95642
646.5266, 13.96631
647.0087, 9.180664
647.4908, 8.078491
647.9729, 14.92419
648.4550, 32.92920
648.9371, 46.00049
649.4193, 49.68274
649.9014, 47.32361
650.3835, 38.84802
650.8656, 25.80212
651.3477, 19.55823
651.8298, 27.63586
652.3120, 36.48926
652.7941, 38.50500
653.2762, 38.06262
653.7583, 42.81372
654.2404, 52.69568
654.7225, 58.95837
655.2047, 53.19470
655.6868, 40.56555
656.1689, 40.32703
656.6510, 56.00647
657.1331, 60.76892
657.6152, 40.96460
658.0974, 20.24402
658.5795, 24.43237
659.0616, 47.28638
659.5437, 61.01465
660.0258, 59.07495
660.5079, 53.06982
660.9901, 42.78711
661.4722, 32.69861
661.9543, 28.93079
662.4364, 30.58093
662.9185, 30.82617
663.4006, 24.72791
663.8828, 16.16309
664.3649, 12.75500
664.8470, 14.47144
665.3291, 20.69092
665.8112, 33.99902
666.2933, 45.84009
666.7755, 50.49646
667.2576, 48.07617
667.7397, 40.03625
668.2218, 17.27539
668.7039, 3.988647
669.1860, 11.99243
669.6682, 24.21521
670.1503, 27.37024
670.6324, 22.99475
671.1145, 18.84814
671.5966, 18.40503
672.0787, 19.35413
672.5609, 17.70239
673.0430, 14.85144
673.5251, 16.11914
674.0072, 21.60022
674.4893, 28.37476
674.9714, 35.90381
675.4536, 42.21826
675.9357, 40.84485
676.4178, 27.01782
676.8999, 16.28760
677.3820, 9.915649
677.8641, 4.745850
678.3463, 2.692749
678.8284, 9.398926
679.3105, 8.805176
679.7926, 1.119141
680.2747, 10.92053
680.7568, 7.986450
681.2390, 0.5626220
681.7211, 4.293213
682.2032, 21.63965
682.6853, 32.12805
683.1674, 25.95068
683.6495, 12.83813
684.1317, 8.531250
684.6138, 15.18445
685.0959, 21.46423
685.5780, 31.12329
686.0601, 35.16907
686.5422, 25.48499
687.0244, 12.77734
687.5065, 9.181030
687.9886, 15.56616
688.4707, 21.88538
688.9528, 19.46008
689.4349, 16.34802
689.9171, 24.47888
690.3992, 39.56055
690.8813, 49.63110
691.3634, 51.10486
691.8455, 45.02258
692.3276, 30.20251
692.8098, 8.626221
693.2919, 0.2242430
693.7740, 9.392944
694.2561, 22.16760
694.7382, 42.38855
695.2203, 59.76782
695.7025, 65.15869
696.1846, 61.45471
696.6667, 59.97607
697.1488, 65.89026
697.6309, 70.52942
698.1130, 69.43921
698.5952, 64.50562
699.0773, 57.34680
699.5594, 48.92468
700.0415, 41.44702
700.5236, 36.34009
701.0057, 32.39795
701.4879, 25.65637
701.9700, 15.59399
702.4521, 14.67151
702.9342, 27.91956
703.4163, 40.21814
703.8984, 41.83301
704.3806, 36.67200
704.8627, 33.89673
705.3448, 33.02051
705.8269, 35.73187
706.3090, 46.42932
706.7911, 56.58484
707.2733, 62.30524
707.7554, 63.56769
708.2375, 59.63531
708.7196, 50.63202
709.2017, 41.73779
709.6838, 36.73071
710.1660, 35.81769
710.6481, 42.66083
711.1302, 56.46796
711.6123, 62.04669
712.0944, 52.51514
712.5765, 39.25696
713.0587, 37.13879
713.5408, 46.98236
714.0229, 50.24042
714.5050, 35.59052
714.9871, 29.98535
715.4692, 46.03625
715.9514, 65.92914
716.4335, 77.55237
716.9156, 79.82324
717.3977, 74.04675
717.8798, 54.52423
718.3619, 36.06641
718.8441, 30.39032
719.3262, 33.78894
719.8083, 43.24786
720.2904, 56.37762
720.7725, 64.31305
721.2546, 60.43811
721.7368, 50.16846
722.2189, 47.95355
722.7010, 56.05414
723.1831, 55.08533
723.6652, 36.39990
724.1473, 22.96326
724.6295, 33.05981
725.1116, 55.00165
725.5937, 63.48273
726.0758, 52.85022
726.5579, 48.23163
727.0400, 63.22168
727.5222, 76.25903
728.0043, 71.19971
728.4864, 56.70172
728.9685, 46.43274
729.4506, 44.44818
729.9327, 48.16797
730.4149, 59.46503
730.8970, 73.12909
731.3791, 74.57837
731.8612, 65.47260
732.3433, 62.98669
732.8254, 73.11261
733.3076, 84.26758
733.7897, 83.60583
734.2718, 72.48566
734.7539, 69.42535
735.2360, 85.18079
735.7181, 90.83289
736.2003, 71.81714
736.6824, 52.50330
737.1645, 48.29108
737.6466, 56.18768
738.1287, 66.08295
738.6108, 75.99872
739.0930, 85.91724
739.5751, 101.0502
740.0572, 112.7401
740.5393, 105.0376
741.0214, 83.97748
741.5035, 71.34204
741.9857, 77.46570
742.4678, 92.95984
742.9499, 108.3245
743.4320, 122.7121
743.9141, 121.8875
744.3962, 102.1094
744.8784, 86.82196
745.3605, 85.64331
745.8426, 92.30365
746.3247, 99.34015
746.8068, 107.0037
747.2889, 112.4322
747.7711, 112.7758
748.2532, 114.7443
748.7353, 122.4073
749.2174, 131.3513
749.6995, 137.5849
750.1816, 140.1306
750.6638, 138.7225
751.1459, 132.1934
751.6280, 126.1040
752.1101, 126.4312
752.5922, 130.3552
753.0743, 132.4113
753.5565, 132.2648
754.0386, 132.9336
754.5207, 136.7427
755.0028, 141.3799
755.4849, 145.6887
755.9670, 149.7224
756.4492, 154.4827
756.9313, 161.7653
757.4134, 164.8654
757.8955, 156.2576
758.3776, 145.3041
758.8597, 148.9053
759.3419, 169.5593
759.8240, 182.3789
760.3061, 180.7744
760.7882, 176.5054
761.2703, 172.7731
761.7524, 168.0594
762.2346, 160.7786
762.7167, 152.0181
763.1988, 145.4305
763.6809, 142.6153
764.1630, 143.7394
764.6451, 152.2470
765.1273, 164.2624
765.6094, 168.9904
766.0915, 165.8894
766.5736, 163.1379
767.0557, 165.9146
767.5378, 171.3704
768.0200, 173.1529
768.5021, 170.5588
768.9842, 169.0744
769.4663, 170.5468
769.9484, 169.2034
770.4305, 160.6375
770.9127, 149.1574
771.3948, 140.6939
771.8769, 135.3550
772.3590, 131.5669
772.8411, 128.3497
773.3232, 127.7073
773.8054, 131.6244
774.2875, 137.7376
774.7696, 143.6838
775.2517, 149.2354
775.7338, 156.1760
776.2159, 167.9913
776.6981, 176.5642
777.1802, 169.6568
777.6623, 153.3221
778.1444, 140.6124
778.6265, 133.1541
779.1086, 128.7231
779.5908, 126.4501
780.0729, 125.1127
780.5550, 121.9745
781.0371, 116.6257
781.5192, 115.5527
782.0013, 121.6342
782.4835, 123.6096
782.9656, 116.7542
783.4477, 104.8714
783.9298, 90.03223
784.4119, 71.75195
784.8940, 62.37311
785.3762, 70.23560
785.8583, 77.14703
786.3404, 77.53058
786.8225, 75.60852
787.3046, 74.05066
787.7867, 73.54059
788.2689, 75.25305
788.7510, 80.84955
789.2331, 85.08533
789.7152, 79.99634
790.1973, 72.43750
790.6794, 76.75000
791.1616, 89.94293
791.6437, 94.92200
792.1258, 84.29242
792.6079, 67.84027
793.0900, 57.77863
793.5721, 53.72662
794.0543, 53.27777
794.5364, 57.44916
795.0185, 58.73920
795.5006, 54.72327
795.9827, 47.48993
796.4648, 37.66089
796.9470, 25.88525
797.4291, 19.53601
797.9112, 24.40100
798.3933, 26.96960
798.8754, 24.18988
799.3575, 20.28192
799.8397, 17.28638
800.3218, 15.18542
800.8039, 13.81415
801.2860, 13.37695
801.7681, 11.94751
802.2502, 6.601013
802.7324, 1.644531
803.2145, 0.5909420
803.6966, 2.776611
804.1787, 9.117981
804.6608, 18.41974
805.1429, 22.34625
805.6251, 11.88916
806.1072, 5.866943
806.5893, 17.43811
807.0714, 22.71478
807.5535, 18.87775
808.0356, 4.856934
808.5178, 8.204590
808.9999, 12.68066
809.4820, 11.68207
809.9641, 13.64752
810.4462, 21.66156
810.9283, 20.51495
811.4105, 0.4322510
811.8926, 13.38202
812.3747, 0.2784420
812.8568, 21.47290
813.3389, 30.89563
813.8210, 27.84613
814.3032, 29.06708
814.7853, 49.32849
815.2674, 58.47107
815.7495, 35.85907
816.2316, 5.852783
816.7137, 10.30768
817.1959, 13.37152
817.6780, 14.39557
818.1601, 18.58093
818.6422, 19.03967
819.1243, 5.651001
819.6064, 12.74774
820.0886, 24.13074
820.5707, 27.91064
821.0528, 23.38629
821.5349, 10.79071
822.0170, 1.135864
822.4991, 2.182312
822.9813, 5.064087
823.4634, 9.297241
823.9455, 10.31219
824.4276, 13.25946
824.9097, 19.99341
825.3918, 25.49005
825.8740, 25.35455
826.3561, 21.52551
826.8382, 20.55267
827.3203, 23.83527
827.8024, 26.77063
828.2845, 30.30005
828.7667, 32.25519
829.2488, 31.47632
829.7309, 28.98132
830.2130, 26.06610
830.6951, 22.76056
831.1772, 18.11865
831.6594, 9.014404
832.1415, 2.356812
832.6236, 1.270142
833.1057, 3.911377
833.5878, 11.42596
834.0699, 20.89380
834.5521, 23.88940
835.0342, 15.57886
835.5163, 6.243103
835.9984, 4.294983
836.4805, 8.166809
836.9626, 20.16748
837.4448, 35.95892
837.9269, 38.65656
838.4090, 23.32513
838.8911, 5.837280
839.3732, 3.518616
839.8553, 11.82745
840.3375, 13.22302
840.8196, 7.205322
841.3017, 4.010376
841.7838, 5.819275
842.2659, 10.94659
842.7480, 19.36115
843.2302, 28.74487
843.7123, 32.84192
844.1944, 28.70819
844.6765, 29.54034
845.1586, 41.21552
845.6407, 49.11176
846.1229, 44.54047
846.6050, 36.56183
847.0871, 32.93213
847.5692, 33.84656
848.0513, 38.78387
848.5334, 56.42255
849.0156, 66.19257
849.4977, 52.46454
849.9798, 37.48193
850.4619, 42.44336
850.9440, 59.14563
851.4261, 66.62567
851.9083, 58.07306
852.3904, 47.66205
852.8725, 44.44519
853.3546, 44.20892
853.8367, 44.68713
854.3188, 43.61365
854.8010, 33.57861
855.2831, 15.93176
855.7652, 6.334534
856.2473, 18.12006
856.7294, 38.74677
857.2115, 45.88074
857.6937, 42.51385
858.1758, 42.10406
858.6579, 45.63904
859.1400, 45.29651
859.6221, 36.64362
860.1042, 28.99542
860.5864, 37.29596
861.0685, 60.82031
861.5506, 77.26929
862.0327, 86.05853
862.5148, 89.20203
862.9969, 86.62494
863.4791, 79.17169
863.9612, 65.26770
864.4433, 47.23114
864.9254, 35.32220
865.4075, 30.28162
865.8896, 30.69446
866.3718, 44.72595
866.8539, 53.38208
867.3360, 43.37903
867.8181, 29.06403
868.3002, 27.97412
868.7823, 40.23273
869.2645, 49.41016
869.7466, 48.99548
870.2287, 46.92242
870.7108, 41.52454
871.1929, 37.87457
871.6750, 43.39453
872.1572, 54.11188
872.6393, 60.24725
873.1214, 58.39612
873.6035, 52.93628
874.0856, 44.86761
874.5677, 35.84497
875.0499, 27.83759
875.5320, 21.82208
876.0141, 19.57025
876.4962, 21.27423
876.9783, 25.95990
877.4604, 32.60400
877.9426, 38.48419
878.4247, 38.02710
878.9068, 32.89734
879.3889, 30.39978
879.8710, 30.86804
880.3531, 30.99408
880.8353, 29.28094
881.3174, 28.41394
881.7995, 32.45001
882.2816, 40.68127
882.7637, 48.96381
883.2458, 57.83936
883.7280, 60.39740
884.2101, 53.66351
884.6922, 45.95447
885.1743, 42.25629
885.6564, 42.32477
886.1385, 44.38281
886.6207, 49.02252
887.1028, 49.95514
887.5849, 40.20349
888.0670, 37.27081
888.5491, 53.77679
889.0313, 73.53497
889.5134, 81.48059
889.9955, 78.28015
890.4776, 72.43140
890.9597, 64.41528
891.4418, 55.06799
891.9240, 39.66449
892.4061, 27.98511
892.8882, 27.42932
893.3703, 32.34515
893.8524, 35.64996
894.3345, 36.45282
894.8167, 36.16821
895.2988, 36.38208
895.7809, 34.55676
896.2630, 25.65448
896.7451, 15.76160
897.2272, 10.05725
897.7094, 10.26501
898.1915, 19.35858
898.6736, 38.38879
899.1557, 54.03174
899.6378, 52.27173
900.1199, 44.56299
900.6021, 44.78687
901.0842, 49.76135
901.5663, 52.60498
902.0484, 52.09216
902.5305, 49.99817
903.0126, 46.96246
903.4948, 43.66553
903.9769, 42.12463
904.4590, 41.22650
904.9411, 35.95258
905.4232, 27.14154
905.9053, 20.14862
906.3875, 16.63641
906.8696, 16.56012
907.3517, 20.49420
907.8338, 26.88037
908.3159, 31.46802
908.7980, 34.28778
909.2802, 33.65350
909.7623, 28.95929
910.2444, 23.51172
910.7265, 18.17645
911.2086, 15.44531
911.6907, 19.97705
912.1729, 31.60046
912.6550, 36.70740
913.1371, 33.22870
913.6192, 29.90417
914.1013, 29.69061
914.5834, 28.76166
915.0656, 23.11682
915.5477, 15.63989
916.0298, 13.13885
916.5119, 16.82831
916.9940, 21.15833
917.4761, 28.70648
917.9583, 33.12274
918.4404, 28.56085
918.9225, 24.39661
919.4046, 32.22644
919.8867, 46.88898
920.3688, 48.32214
920.8510, 26.67383
921.3331, 10.45367
921.8152, 2.838501
922.2973, 2.442627
922.7794, 15.48938
923.2615, 30.99493
923.7437, 36.08081
924.2258, 30.70306
924.7079, 23.47919
925.1900, 14.80609
925.6721, 8.061584
926.1542, 2.313110
926.6364, 1.511536
927.1185, 14.63330
927.6006, 32.42163
928.0827, 38.31256
928.5648, 29.36493
929.0469, 18.52124
929.5291, 11.26599
930.0112, 6.860291
930.4933, 5.250305
930.9754, 5.773621
931.4575, 8.681335
931.9396, 12.86548
932.4218, 15.68665
932.9039, 16.21472
933.3860, 16.03162
933.8681, 17.54614
934.3502, 18.44629
934.8323, 13.59235
935.3145, 6.480530
935.7966, 5.850342
936.2787, 11.12585
936.7608, 13.21808
937.2429, 7.180847
937.7250, 0.9822390
938.2072, 3.817261
938.6893, 3.466125
939.1714, 5.102661
939.6535, 7.988892
940.1356, 9.329712
940.6177, 8.430054
941.0999, 4.299927
941.5820, 4.558289
942.0641, 12.58789
942.5462, 7.293945
943.0283, 8.103210
943.5104, 17.81781
943.9926, 21.16315
944.4747, 16.22424
944.9568, 2.122314
945.4389, 7.753967
945.9210, 0.1859130
946.4031, 17.18811
946.8853, 17.32330
947.3674, 0.7388310
947.8495, 9.082703
948.3316, 10.18713
948.8137, 9.641785
949.2958, 9.815002
949.7780, 10.85571
950.2601, 13.16638
950.7422, 16.48883
951.2243, 19.22424
951.7064, 22.00677
952.1885, 18.56854
952.6707, 5.877075
953.1528, 3.559509
953.6349, 2.974792
954.1170, 1.457825
954.5991, 1.443359
955.0812, 2.700134
955.5634, 5.127808
956.0455, 5.990845
956.5276, 2.826599
957.0097, 7.121826
957.4918, 15.28259
957.9739, 16.88995
958.4561, 13.81750
958.9382, 8.222168
959.4203, 0.3869630
959.9024, 4.473083
960.3845, 0.3845830
960.8666, 0.3461300
961.3488, 14.53857
961.8309, 23.70441
962.3130, 10.02069
962.7951, 15.46527
963.2772, 32.19122
963.7593, 40.13696
964.2415, 39.21649
964.7236, 17.62799
965.2057, 4.740051
965.6878, 14.21612
966.1699, 25.30219
966.6520, 21.30182
967.1342, 9.892700
967.6163, 10.31970
968.0984, 28.22986
968.5805, 36.73785
969.0626, 30.15558
969.5447, 20.28387
970.0269, 3.463684
970.5090, 9.571411
970.9911, 6.785339
971.4732, 5.674255
971.9553, 10.63556
972.4374, 3.528015
972.9196, 0.4703980
973.4017, 0.8610840
973.8838, 5.371704
974.3659, 17.74103
974.8480, 28.75940
975.3301, 27.26019
975.8123, 17.60974
976.2944, 14.96130
976.7765, 24.41736
977.2586, 31.89313
977.7407, 30.70654
978.2228, 30.89630
978.7050, 42.48181
979.1871, 52.66956
979.6692, 44.31305
980.1513, 23.79852
980.6334, 16.67493
981.1155, 33.91998
981.5977, 45.34186
982.0798, 38.63635
982.5619, 27.94904
983.0440, 14.78601
983.5261, 5.226135
984.0082, 8.927979
984.4904, 22.50598
984.9725, 31.40472
985.4546, 30.87659
985.9367, 25.81677
986.4188, 9.604736
986.9009, 1.136108
987.3831, 8.723022
987.8652, 25.52496
988.3473, 33.21613
988.8294, 32.06500
989.3115, 32.15448
989.7936, 38.87720
990.2758, 39.90778
990.7579, 20.74756
991.2400, 4.514832
991.7221, 8.669250
992.2042, 22.63708
992.6863, 35.69434
993.1685, 45.09930
993.6506, 48.73132
994.1327, 44.18066
994.6148, 39.18298
995.0969, 35.92694
995.5790, 34.18512
996.0612, 36.89453
996.5433, 39.77881
997.0254, 34.53851
997.5075, 23.33478
997.9896, 19.56525
998.4717, 30.93945
998.9539, 41.25732
999.4360, 41.65338
999.9181, 39.92084
1000.400, 40.36273
1000.882, 41.87939
1001.364, 46.34290
1001.847, 51.83075
1002.329, 49.56445
1002.811, 33.88129
1003.293, 19.60309
1003.775, 8.565063
1004.257, 5.071167
1004.739, 21.00824
1005.221, 43.48419
1005.703, 54.98138
1006.186, 55.02612
1006.668, 52.91400
1007.150, 52.46246
1007.632, 47.42993
1008.114, 27.32935
1008.596, 10.17401
1009.078, 9.591858
1009.560, 17.41663
1010.043, 26.08124
1010.525, 33.12488
1011.007, 33.98523
1011.489, 24.69354
1011.971, 20.69067
1012.453, 38.53857
1012.935, 51.73883
1013.417, 39.27332
1013.899, 17.20135
1014.382, 0.7458500
1014.864, 10.63660
1015.346, 6.116516
1015.828, 19.50934
1016.310, 38.12244
1016.792, 33.47815
1017.274, 25.41266
1017.756, 22.23645
1018.239, 23.20642
1018.721, 29.25952
1019.203, 37.08936
1019.685, 39.55518
1020.167, 35.22290
1020.649, 30.49896
1021.131, 24.06891
1021.613, 21.21539
1022.095, 27.33813
1022.578, 35.60614
1023.060, 40.00891
1023.542, 41.23785
1024.024, 43.82953
1024.506, 50.25793
1024.988, 47.02191
1025.470, 18.44104
1025.952, 4.415100
1026.435, 7.608215
1026.917, 2.643982
1027.399, 4.058167
1027.881, 10.74854
1028.363, 14.82538
1028.845, 15.97009
1029.327, 17.94067
1029.809, 22.04980
1030.292, 25.76965
1030.774, 28.87170
1031.256, 30.94263
1031.738, 31.75989
1032.220, 31.31213
1032.702, 28.93787
1033.184, 24.31140
1033.666, 21.98218
1034.148, 26.08887
1034.630, 27.13477
1035.113, 16.25928
1035.595, 9.912354
1036.077, 23.52039
1036.559, 43.93542
1037.041, 50.70251
1037.523, 43.13708
1038.005, 37.41833
1038.487, 32.75781
1038.970, 31.55933
1039.452, 38.75806
1039.934, 43.05200
1040.416, 34.91833
1040.898, 25.32788
1041.380, 29.88782
1041.862, 46.62537
1042.344, 53.08069
1042.826, 41.65710
1043.309, 36.70227
1043.791, 41.51782
1044.273, 48.42908
1044.755, 56.60083
1045.237, 62.92639
1045.719, 63.44641
1046.201, 59.63416
1046.683, 58.36621
1047.166, 60.26038
1047.648, 62.51184
1048.130, 64.73499
1048.612, 68.65747
1049.094, 75.58203
1049.576, 82.33252
1050.058, 86.12402
1050.540, 87.86914
1051.022, 90.71716
1051.505, 95.42859
1051.987, 92.02234
1052.469, 78.26526
1052.951, 71.27515
1053.433, 76.05066
1053.915, 82.08716
1054.397, 81.44202
1054.879, 81.08594
1055.361, 96.80823
1055.844, 126.0907
1056.326, 136.6381
1056.808, 128.6154
1057.290, 127.6075
1057.772, 138.0782
1058.254, 145.9862
1058.736, 143.7695
1059.218, 137.9910
1059.701, 137.0139
1060.183, 139.6620
1060.665, 143.6958
1061.147, 148.0144
1061.629, 143.3193
1062.111, 130.6731
1062.593, 127.9315
1063.075, 141.6052
1063.557, 157.4554
1064.040, 162.0026
1064.522, 159.5424
1065.004, 155.5573
1065.486, 151.5444
1065.968, 152.6466
1066.450, 157.2190
1066.932, 156.8313
1067.414, 150.5612
1067.896, 149.4907
1068.379, 162.7814
1068.861, 178.1874
1069.343, 182.1534
1069.825, 179.4645
1070.307, 171.5300
1070.789, 164.3829
1071.271, 173.2582
1071.753, 195.2220
1072.236, 207.9615
1072.718, 200.2157
1073.200, 190.4353
1073.682, 189.8879
1074.164, 194.9709
1074.646, 210.1132
1075.128, 223.7277
1075.610, 220.2172
1076.093, 203.1077
1076.575, 182.6941
1077.057, 161.2261
1077.539, 150.9462
1078.021, 166.2054
1078.503, 181.9319
1078.985, 184.2272
1079.467, 185.1440
1079.949, 197.9473
1080.432, 214.0809
1080.914, 217.5892
1081.396, 207.3116
1081.878, 198.2285
1082.360, 190.5117
1082.842, 187.9492
1083.324, 192.9944
1083.806, 201.0576
1084.288, 216.4824
1084.771, 229.1572
1085.253, 222.6733
1085.735, 202.8296
1086.217, 199.3320
1086.699, 224.3229
1087.181, 232.8249
1087.663, 216.8355
1088.145, 200.2412
1088.628, 188.2259
1089.110, 178.3964
1089.592, 166.5997
1090.074, 158.8918
1090.556, 171.3840
1091.038, 205.4273
1091.520, 218.1422
1092.002, 205.2885
1092.484, 198.6132
1092.967, 204.2758
1093.449, 209.0963
1093.931, 206.4084
1094.413, 199.3298
1094.895, 190.6552
1095.377, 182.2484
1095.859, 181.8934
1096.341, 188.6802
1096.823, 197.3618
1097.306, 206.7220
1097.788, 210.6377
1098.270, 207.2921
1098.752, 199.9836
1099.234, 190.5425
1099.716, 181.9823
1100.198, 179.6967
1100.680, 181.2415
1101.163, 181.8849
1101.645, 182.0043
1102.127, 185.4769
1102.609, 190.5946
1103.091, 185.6382
1103.573, 164.3231
1104.055, 147.6516
1104.537, 158.4532
1105.020, 175.9591
1105.502, 181.7477
1105.984, 182.6521
1106.466, 190.4640
1106.948, 200.6951
1107.430, 199.1113
1107.912, 183.6971
1108.394, 172.8878
1108.876, 176.5663
1109.359, 182.7803
1109.841, 190.4453
1110.323, 195.5510
1110.805, 196.0717
1111.287, 192.2986
1111.769, 182.8945
1112.251, 169.7085
1112.733, 160.2596
1113.215, 152.6642
1113.698, 153.5335
1114.180, 171.1224
1114.662, 186.0703
1115.144, 198.0129
1115.626, 200.0493
1116.108, 183.7393
1116.590, 158.9448
1117.072, 145.0219
1117.555, 142.4869
1118.037, 146.9351
1118.519, 160.6522
1119.001, 166.0675
1119.483, 159.8981
1119.965, 154.0826
1120.447, 153.9266
1120.929, 156.3508
1121.411, 156.8123
1121.894, 156.6189
1122.376, 166.7241
1122.858, 183.1076
1123.340, 177.2805
1123.822, 154.4006
1124.304, 154.0831
1124.786, 181.6671
1125.268, 195.3043
1125.750, 169.1996
1126.233, 135.2924
1126.715, 132.3691
1127.197, 144.0604
1127.679, 150.3630
1128.161, 151.5958
1128.643, 149.8196
1129.125, 143.9719
1129.607, 125.8857
1130.090, 96.65546
1130.572, 85.69562
1131.054, 121.2995
1131.536, 154.4465
1132.018, 157.5256
1132.500, 151.7756
1132.982, 147.9860
1133.464, 144.7059
1133.947, 143.1667
1134.429, 141.1270
1134.911, 128.7059
1135.393, 96.12555
1135.875, 80.76758
1136.357, 102.6158
1136.839, 117.0664
1137.321, 112.4611
1137.803, 104.9811
1138.286, 104.0161
1138.768, 105.1554
1139.250, 102.1185
1139.732, 95.11047
1140.214, 83.83459
1140.696, 66.05103
1141.178, 63.94391
1141.660, 79.93317
1142.142, 97.50220
1142.625, 111.8824
1143.107, 115.9743
1143.589, 103.1168
1144.071, 82.95038
1144.553, 68.46759
1145.035, 60.03064
1145.517, 65.57166
1145.999, 78.54797
1146.482, 76.13495
1146.964, 59.42126
1147.446, 45.92316
1147.928, 42.40369
1148.410, 44.06909
1148.892, 47.46167
1149.374, 54.31036
1149.856, 73.46857
1150.339, 90.06702
1150.821, 83.07373
1151.303, 66.78455
1151.785, 66.48462
1152.267, 79.68793
1152.749, 80.47119
1153.231, 57.28235
1153.713, 42.91510
1154.195, 54.21265
1154.677, 62.12048
1155.160, 55.04645
1155.642, 44.98260
1156.124, 34.58545
1156.606, 29.76160
1157.088, 42.31403
1157.570, 69.88580
1158.052, 84.70190
1158.534, 86.01215
1159.017, 75.35431
1159.499, 49.42676
1159.981, 33.11432
1160.463, 34.98279
1160.945, 38.69275
1161.427, 32.29462
1161.909, 20.01202
1162.391, 5.628113
1162.874, 7.254089
1163.356, 2.262268
1163.838, 13.50623
1164.320, 14.66772
1164.802, 2.980652
1165.284, 0.5710450
1165.766, 9.593262
1166.248, 17.35742
1166.730, 10.24084
1167.213, 1.737427
1167.695, 5.357727
1168.177, 10.06738
1168.659, 4.951294
1169.141, 4.188171
1169.623, 12.22766
1170.105, 16.85974
1170.587, 13.53638
1171.069, 0.4144900
1171.552, 11.73547
1172.034, 28.61475
1172.516, 32.48383
1172.998, 8.075195
1173.480, 11.27875
1173.962, 8.375122
1174.444, 1.452087
1174.926, 2.376892
1175.409, 2.833740
1175.891, 4.463379
1176.373, 2.167847
1176.855, 0.7252200
1177.337, 9.1553003E-02
1177.819, 4.905945
1178.301, 15.66260
1178.783, 16.33661
1179.266, 0.9026490
1179.748, 21.35724
1180.230, 31.12164
1180.712, 31.49432
1181.194, 21.25708
1181.676, 5.189148
1182.158, 13.48059
1182.640, 29.05310
1183.122, 27.28033
1183.604, 11.32104
1184.087, 2.407471
1184.569, 9.532715
1185.051, 16.20001
1185.533, 15.09882
1186.015, 10.43555
1186.497, 2.411682
1186.979, 4.009644
1187.461, 4.834534
1187.944, 2.319092
1188.426, 0.9660030
1188.908, 4.623108
1189.390, 6.932373
1189.872, 10.21973
1190.354, 1.564209
1190.836, 24.59845
1191.318, 36.12714
1191.801, 23.72906
1192.283, 11.58264
1192.765, 13.36639
1193.247, 22.45264
1193.729, 31.57983
1194.211, 40.25665
1194.693, 47.46454
1195.175, 53.27802
1195.657, 58.74481
1196.140, 62.84601
1196.622, 62.42926
1197.104, 57.36200
1197.586, 48.59515
1198.068, 35.53918
1198.550, 29.59314
1199.032, 44.78271
1199.514, 60.18640
1199.996, 67.37317
1200.479, 66.50644
1200.961, 49.62921
1201.443, 29.92838
1201.925, 28.11075
1202.407, 42.57468
1202.889, 52.41278
1203.371, 56.03415
1203.853, 58.51028
1204.336, 58.99088
1204.818, 57.90588
1205.300, 54.21442
1205.782, 54.33362
1206.264, 62.07880
1206.746, 67.10379
1207.228, 61.69095
1207.710, 52.19058
1208.193, 51.41345
1208.675, 54.77554
1209.157, 63.30365
1209.639, 71.29083
1210.121, 72.67822
1210.603, 67.26309
1211.085, 59.73352
1211.567, 59.89215
1212.049, 61.54773
1212.531, 62.65399
1213.014, 57.20831
1213.496, 49.85919
1213.978, 47.19794
1214.460, 46.93945
1214.942, 51.37808
1215.424, 60.21906
1215.906, 67.92117
1216.388, 66.70251
1216.871, 57.57599
1217.353, 49.34680
1217.835, 33.40085
1218.317, 22.52448
1218.799, 19.55438
1219.281, 25.08951
1219.763, 40.69427
1220.245, 53.06628
1220.728, 49.01984
1221.210, 37.34067
1221.692, 33.85254
1222.174, 35.25378
1222.656, 34.87900
1223.138, 36.61002
1223.620, 37.80664
1224.102, 39.27286
1224.584, 46.24219
1225.067, 60.33627
1225.549, 70.19745
1226.031, 72.75958
1226.513, 68.72412
1226.995, 50.04169
1227.477, 33.03253
1227.959, 24.81812
1228.441, 21.41840
1228.923, 19.04459
1229.406, 20.47321
1229.888, 31.14536
1230.370, 49.63382
1230.852, 57.09537
1231.334, 53.28201
1231.816, 47.68848
1232.298, 39.53201
1232.780, 31.34344
1233.263, 24.70865
1233.745, 24.23557
1234.227, 32.82513
1234.709, 41.54868
1235.191, 38.36688
1235.673, 33.60754
1236.155, 42.57413
1236.637, 52.95020
1237.120, 45.55576
1237.602, 32.06137
1238.084, 34.88611
1238.566, 51.00858
1239.048, 57.47958
1239.530, 49.04718
1240.012, 37.52917
1240.494, 19.50739
1240.976, 6.748260
1241.458, 0.6854250
1241.941, 2.839294
1242.423, 10.40579
1242.905, 0.0000000E+00
##END=



