##NAMES=Chabazite-Ca
##RRUFFID=R050075
##IDEAL CHEMISTRY=Ca_2_Al_4_Si_8_O_24_&#183;13H_2_O
##LOCALITY=Victoria, Australia
##OWNER=RRUFF
##SOURCE=Rock Currier
##DESCRIPTION=White pseudohexagonal crystals
##STATUS=The identification of this mineral has been confirmed by X-ray diffraction and chemical analysis
##URL=rruff.info/R050075
##MEASURED CHEMISTRY=(Ca_0.79_Na_0.22_K_0.14_)_Σ=1.15_(Si_4.08_Al_1.92_)O_12_·6H_2_O
134.0366, 0.0000000E+00
134.5187, 0.8154910
135.0008, 5.453979
135.4829, 8.016968
135.9650, 4.507385
136.4471, 0.5313110
136.9293, 2.147766
137.4114, 2.931641
137.8935, 2.013184
138.3756, 0.5464480
138.8577, 5.046509
139.3398, 11.80573
139.8220, 20.77228
140.3041, 29.75586
140.7862, 37.52893
141.2683, 46.40436
141.7504, 53.81421
142.2325, 62.01495
142.7147, 78.38135
143.1968, 109.7341
143.6789, 156.5134
144.1610, 201.9100
144.6431, 243.0001
145.1252, 285.0945
145.6074, 331.7422
146.0895, 382.6322
146.5716, 434.5775
147.0537, 484.8503
147.5358, 533.5074
148.0179, 584.7695
148.5001, 643.6228
148.9822, 701.3121
149.4643, 752.4777
149.9464, 797.0142
150.4285, 835.9371
150.9106, 871.8281
151.3928, 902.8612
151.8749, 920.9886
152.3570, 919.7377
152.8391, 908.9287
153.3212, 896.1564
153.8033, 881.8984
154.2855, 866.6367
154.7676, 850.0551
155.2497, 832.5223
155.7318, 815.8749
156.2139, 803.1371
156.6960, 790.0602
157.1782, 769.1055
157.6603, 738.3025
158.1424, 710.7394
158.6245, 698.2468
159.1066, 697.0680
159.5887, 699.8182
160.0709, 707.1252
160.5530, 716.4512
161.0351, 724.6514
161.5172, 731.9269
161.9993, 736.8535
162.4814, 736.5913
162.9636, 733.2905
163.4457, 730.5939
163.9278, 728.1132
164.4099, 727.5023
164.8920, 734.1919
165.3741, 752.3516
165.8563, 765.8534
166.3384, 756.6874
166.8205, 736.7809
167.3026, 726.8641
167.7847, 740.4023
168.2668, 767.5609
168.7490, 788.2853
169.2311, 803.4092
169.7132, 809.6328
170.1953, 800.8362
170.6774, 783.5441
171.1595, 767.4811
171.6417, 756.7827
172.1238, 750.3004
172.6059, 745.6760
173.0880, 744.2058
173.5701, 741.9343
174.0522, 736.2831
174.5344, 728.9346
175.0165, 722.5248
175.4986, 718.9833
175.9807, 716.7740
176.4628, 711.0012
176.9449, 698.7000
177.4271, 688.3562
177.9092, 686.9526
178.3913, 688.3562
178.8734, 683.4656
179.3555, 665.7843
179.8376, 640.7468
180.3197, 624.5873
180.8019, 621.4961
181.2840, 620.4608
181.7661, 620.7661
182.2482, 619.9091
182.7303, 614.0724
183.2124, 600.4249
183.6946, 582.2043
184.1767, 569.3248
184.6588, 566.9365
185.1409, 560.9286
185.6230, 544.0480
186.1051, 523.5891
186.5873, 507.6052
187.0694, 501.0261
187.5515, 499.9994
188.0336, 495.1436
188.5157, 482.5308
188.9978, 473.4546
189.4800, 475.5208
189.9621, 479.6898
190.4442, 475.7950
190.9263, 461.5674
191.4084, 437.5555
191.8905, 418.3322
192.3727, 408.0444
192.8548, 401.0505
193.3369, 396.5228
193.8190, 392.8352
194.3011, 389.6857
194.7832, 387.4337
195.2654, 384.8232
195.7475, 378.4695
196.2296, 365.3223
196.7117, 353.9452
197.1938, 346.6973
197.6759, 341.4653
198.1581, 335.1420
198.6402, 326.2527
199.1223, 317.0363
199.6044, 312.5346
200.0865, 316.0908
200.5686, 317.3922
201.0508, 314.7789
201.5329, 309.7021
202.0150, 302.8531
202.4971, 294.5961
202.9792, 286.4631
203.4613, 281.8323
203.9435, 286.3084
204.4256, 281.1133
204.9077, 256.9880
205.3898, 230.3708
205.8719, 211.7301
206.3540, 203.5217
206.8362, 202.0186
207.3183, 202.4124
207.8004, 205.5545
208.2825, 208.8667
208.7646, 216.8508
209.2467, 221.8888
209.7289, 217.9948
210.2110, 204.9019
210.6931, 187.3725
211.1752, 169.3725
211.6573, 148.1979
212.1395, 137.1942
212.6216, 144.7730
213.1037, 154.6303
213.5858, 160.4027
214.0679, 161.2390
214.5500, 158.6157
215.0322, 153.3781
215.5143, 144.9281
215.9964, 138.2957
216.4785, 136.4862
216.9606, 133.6194
217.4427, 125.9272
217.9249, 114.9770
218.4070, 105.5163
218.8891, 102.3470
219.3712, 105.7989
219.8533, 103.5067
220.3354, 87.05322
220.8176, 72.81201
221.2997, 65.30457
221.7818, 63.55756
222.2639, 65.37903
222.7460, 70.08289
223.2281, 76.96198
223.7103, 78.02625
224.1924, 65.79834
224.6745, 55.58423
225.1566, 50.31372
225.6387, 49.05963
226.1208, 50.52985
226.6030, 54.25537
227.0851, 59.53986
227.5672, 63.71167
228.0493, 69.40503
228.5314, 69.84338
229.0135, 59.85321
229.4957, 45.87354
229.9778, 35.29883
230.4599, 31.51227
230.9420, 32.08960
231.4241, 31.02228
231.9062, 26.99817
232.3884, 23.54578
232.8705, 20.74274
233.3526, 18.81238
233.8347, 18.34412
234.3168, 19.46533
234.7989, 20.95837
235.2811, 20.92743
235.7632, 19.61005
236.2453, 15.98810
236.7274, 6.167175
237.2095, 3.115051
237.6916, 6.362183
238.1738, 2.982727
238.6559, 2.222168
239.1380, 2.712158
239.6201, 3.587646
240.1022, 6.871887
240.5843, 4.116760
241.0665, 0.4781490
241.5486, 1.453125
242.0307, 1.732849
242.5128, 2.200256
242.9949, 5.561646
243.4770, 12.41187
243.9592, 14.81378
244.4413, 5.015869
244.9234, 1.915039
245.4055, 4.664185
245.8876, 19.36926
246.3697, 27.41852
246.8519, 14.02881
247.3340, 16.97504
247.8161, 29.08417
248.2982, 4.876343
248.7803, 15.49084
249.2624, 14.95203
249.7446, 2.231689
250.2267, 8.098206
250.7088, 7.648865
251.1909, 0.4760130
251.6730, 0.9417720
252.1551, 7.826355
252.6373, 13.24579
253.1194, 6.856140
253.6015, 3.073914
254.0836, 6.809204
254.5657, 8.0994003E-02
255.0478, 10.82727
255.5300, 13.66010
256.0121, 5.787109
256.4942, 0.5922850
256.9763, 7.345154
257.4584, 15.08966
257.9406, 14.34198
258.4227, 2.851807
258.9048, 10.06671
259.3869, 13.64221
259.8690, 7.374207
260.3511, 3.477112
260.8333, 6.088745
261.3154, 10.19476
261.7975, 12.80969
262.2796, 13.69800
262.7617, 12.76025
263.2438, 8.599060
263.7260, 2.006470
264.2081, 1.939331
264.6902, 0.9126590
265.1723, 1.3855000E-02
265.6544, 4.522827
266.1365, 12.61694
266.6187, 17.69757
267.1008, 14.33282
267.5829, 6.283081
268.0650, 1.908386
268.5471, 2.484070
269.0292, 3.208923
269.5114, 0.2816160
269.9935, 5.798584
270.4756, 9.529297
270.9577, 9.097168
271.4398, 7.627563
271.9219, 8.941772
272.4041, 13.12750
272.8862, 16.95459
273.3683, 17.70776
273.8504, 17.71338
274.3325, 21.69812
274.8146, 32.59613
275.2968, 42.54395
275.7789, 46.13574
276.2610, 44.29993
276.7431, 39.67828
277.2252, 30.53845
277.7073, 22.77502
278.1895, 28.35681
278.6716, 50.60321
279.1537, 67.93127
279.6358, 68.19904
280.1179, 59.45105
280.6000, 56.31171
281.0822, 62.65643
281.5643, 70.50342
282.0464, 68.14343
282.5285, 54.04852
283.0106, 49.56915
283.4927, 66.65015
283.9749, 88.31860
284.4570, 97.96338
284.9391, 94.87677
285.4212, 91.00494
285.9033, 97.17731
286.3854, 112.9368
286.8676, 118.9610
287.3497, 104.2761
287.8318, 91.41455
288.3139, 93.78479
288.7960, 107.1120
289.2781, 118.7184
289.7603, 121.1631
290.2424, 117.2808
290.7245, 119.0167
291.2066, 136.2659
291.6887, 146.5831
292.1708, 139.7445
292.6530, 126.5768
293.1351, 121.9536
293.6172, 130.9354
294.0993, 145.2054
294.5814, 149.5917
295.0635, 134.7921
295.5457, 127.4254
296.0278, 132.3456
296.5099, 140.9273
296.9920, 148.8324
297.4741, 154.5493
297.9562, 156.6300
298.4384, 152.9556
298.9205, 141.8522
299.4026, 136.6049
299.8847, 144.0487
300.3668, 150.3225
300.8489, 148.7644
301.3311, 142.3033
301.8131, 138.0304
302.2953, 141.0405
302.7774, 149.4576
303.2595, 153.9740
303.7416, 150.7512
304.2237, 149.0126
304.7058, 151.0140
305.1880, 154.1555
305.6701, 158.1126
306.1522, 164.9609
306.6343, 170.4641
307.1164, 166.6906
307.5985, 148.8549
308.0807, 138.4252
308.5628, 149.7407
309.0449, 163.8013
309.5270, 167.7571
310.0091, 160.4206
310.4912, 151.7312
310.9734, 151.9375
311.4555, 160.2374
311.9376, 164.2840
312.4197, 157.5441
312.9018, 153.8201
313.3839, 166.4885
313.8661, 190.1495
314.3482, 208.6350
314.8303, 210.7526
315.3124, 204.5208
315.7945, 203.9144
316.2766, 210.0181
316.7588, 218.2184
317.2409, 226.9387
317.7230, 235.0984
318.2051, 241.1825
318.6872, 244.2766
319.1693, 247.2850
319.6515, 252.2271
320.1336, 258.3845
320.6157, 264.0842
321.0978, 269.5278
321.5799, 273.2874
322.0620, 272.6262
322.5442, 267.4188
323.0263, 262.3113
323.5084, 255.0688
323.9905, 249.6847
324.4726, 253.9766
324.9547, 269.7007
325.4369, 287.2112
325.9190, 296.9622
326.4011, 297.6174
326.8832, 296.0577
327.3653, 291.0946
327.8474, 286.7028
328.3296, 283.8729
328.8117, 283.6627
329.2938, 288.0128
329.7759, 298.9756
330.2580, 313.9456
330.7401, 317.9001
331.2223, 296.4217
331.7044, 281.7807
332.1865, 281.4403
332.6686, 287.5844
333.1507, 292.0430
333.6328, 292.2554
334.1150, 290.3629
334.5971, 289.9573
335.0792, 292.6864
335.5613, 295.0460
336.0434, 299.4023
336.5255, 302.1064
337.0077, 300.2400
337.4898, 294.5015
337.9719, 287.6106
338.4540, 281.5170
338.9361, 276.1699
339.4182, 271.3676
339.9004, 269.4417
340.3825, 264.4247
340.8646, 251.4694
341.3467, 235.8957
341.8288, 224.6759
342.3109, 220.7108
342.7931, 220.3538
343.2752, 218.4096
343.7573, 214.6464
344.2394, 210.9341
344.7215, 208.0921
345.2036, 205.1121
345.6858, 202.1113
346.1679, 198.9445
346.6500, 192.7512
347.1321, 180.4771
347.6142, 163.8423
348.0963, 145.9820
348.5785, 125.2381
349.0606, 109.3716
349.5427, 107.9536
350.0248, 116.7959
350.5069, 123.9760
350.9890, 127.7695
351.4712, 128.9042
351.9533, 127.0522
352.4354, 122.7100
352.9175, 118.5338
353.3996, 116.0273
353.8817, 114.1639
354.3639, 110.2512
354.8460, 104.7850
355.3281, 96.99213
355.8102, 83.21478
356.2923, 68.58630
356.7744, 59.37952
357.2566, 56.84985
357.7387, 58.68945
358.2208, 63.16632
358.7029, 71.78809
359.1850, 74.11310
359.6671, 65.74463
360.1493, 56.45868
360.6314, 49.15985
361.1135, 44.43396
361.5956, 43.63788
362.0777, 48.19830
362.5598, 55.09247
363.0420, 52.63287
363.5241, 31.69397
364.0062, 15.97632
364.4883, 9.175781
364.9704, 7.508850
365.4525, 9.056702
365.9347, 12.91809
366.4168, 16.98511
366.8989, 19.01581
367.3810, 18.97375
367.8631, 17.57507
368.3452, 12.88794
368.8274, 9.233887
369.3095, 9.318237
369.7916, 12.02100
370.2737, 14.78174
370.7558, 17.48346
371.2379, 18.68555
371.7201, 14.80505
372.2022, 5.215576
372.6843, 3.453674
373.1664, 8.941833
373.6485, 11.39032
374.1306, 10.43701
374.6128, 4.368896
375.0949, 1.024597
375.5770, 8.483032
376.0591, 20.88281
376.5412, 25.46338
377.0233, 18.99292
377.5055, 9.665527
377.9876, 5.922546
378.4697, 8.518799
378.9518, 9.008118
379.4339, 4.638977
379.9160, 0.5291140
380.3982, 0.2756350
380.8803, 1.736267
381.3624, 5.251160
381.8445, 9.832764
382.3266, 14.45770
382.8087, 16.04443
383.2909, 13.34436
383.7730, 8.842773
384.2551, 2.395325
384.7372, 12.15503
385.2193, 11.14539
385.7014, 0.5041500
386.1836, 12.52496
386.6657, 12.86993
387.1478, 0.5720830
387.6299, 4.585022
388.1120, 4.418823
388.5941, 12.71210
389.0763, 14.39551
389.5584, 12.46594
390.0405, 12.45190
390.5226, 17.60242
391.0047, 23.02289
391.4868, 18.51154
391.9690, 2.371582
392.4511, 6.896729
392.9332, 0.9747310
393.4153, 12.88007
393.8974, 16.50909
394.3795, 11.73364
394.8617, 4.642517
395.3438, 4.608398
395.8259, 13.31799
396.3080, 15.37256
396.7901, 9.814209
397.2722, 5.350525
397.7544, 8.802246
398.2365, 18.56781
398.7186, 25.22797
399.2007, 29.84424
399.6828, 30.24994
400.1649, 20.41925
400.6471, 7.008423
401.1292, 1.941895
401.6113, 9.173645
402.0934, 22.28143
402.5755, 32.40771
403.0576, 40.07672
403.5398, 42.31152
404.0219, 33.67310
404.5040, 25.45056
404.9861, 23.30627
405.4682, 26.48029
405.9503, 32.30615
406.4325, 39.60571
406.9146, 47.14307
407.3967, 49.70239
407.8788, 43.19891
408.3609, 40.16913
408.8430, 46.72485
409.3252, 54.97437
409.8073, 57.69696
410.2894, 54.15466
410.7715, 51.11023
411.2536, 55.76666
411.7357, 66.36499
412.2179, 73.62018
412.7000, 76.27722
413.1821, 77.09290
413.6642, 73.81940
414.1463, 70.32306
414.6284, 75.63080
415.1106, 97.19556
415.5927, 120.9675
416.0748, 139.3129
416.5569, 151.8386
417.0390, 154.9900
417.5211, 145.6789
418.0033, 133.4474
418.4854, 133.0245
418.9675, 148.6616
419.4496, 162.3294
419.9317, 172.0172
420.4138, 180.6750
420.8960, 190.7567
421.3781, 201.7266
421.8602, 210.6914
422.3423, 215.3374
422.8244, 217.7030
423.3065, 226.4256
423.7887, 247.8816
424.2708, 265.9811
424.7529, 272.9918
425.2350, 280.2154
425.7171, 299.2863
426.1992, 330.4943
426.6814, 361.7486
427.1635, 379.7985
427.6456, 386.2728
428.1277, 398.6512
428.6098, 419.7211
429.0919, 441.2161
429.5741, 459.1913
430.0562, 474.6926
430.5383, 488.4060
431.0204, 498.7857
431.5025, 511.8826
431.9846, 533.7025
432.4668, 562.9440
432.9489, 595.0203
433.4310, 629.4886
433.9131, 660.9339
434.3952, 681.7378
434.8773, 690.8481
435.3595, 707.7133
435.8416, 737.0701
436.3237, 770.0493
436.8058, 805.6570
437.2879, 841.0948
437.7701, 868.6752
438.2522, 883.5591
438.7343, 892.3734
439.2164, 912.2488
439.6985, 948.9827
440.1806, 986.7600
440.6628, 1028.267
441.1449, 1068.939
441.6270, 1105.349
442.1091, 1138.217
442.5912, 1169.808
443.0733, 1200.324
443.5555, 1231.712
444.0376, 1273.752
444.5197, 1333.582
445.0018, 1387.117
445.4839, 1422.012
445.9660, 1446.393
446.4482, 1464.192
446.9303, 1474.457
447.4124, 1492.370
447.8945, 1533.563
448.3766, 1587.297
448.8587, 1632.466
449.3409, 1667.037
449.8230, 1693.859
450.3051, 1711.395
450.7872, 1721.133
451.2693, 1738.230
451.7514, 1767.757
452.2336, 1799.005
452.7157, 1828.651
453.1978, 1857.526
453.6799, 1887.305
454.1620, 1918.362
454.6441, 1948.679
455.1263, 1975.418
455.6084, 1997.818
456.0905, 2020.773
456.5726, 2045.678
457.0547, 2069.492
457.5368, 2091.242
458.0190, 2111.275
458.5011, 2130.404
458.9832, 2149.135
459.4653, 2166.394
459.9474, 2180.111
460.4295, 2190.177
460.9117, 2200.388
461.3938, 2209.400
461.8759, 2221.706
462.3580, 2243.376
462.8401, 2272.547
463.3222, 2299.764
463.8044, 2321.339
464.2865, 2340.915
464.7686, 2362.840
465.2507, 2385.837
465.7328, 2403.409
466.2149, 2411.607
466.6971, 2416.984
467.1792, 2432.769
467.6613, 2468.890
468.1434, 2494.331
468.6255, 2495.171
469.1076, 2497.611
469.5898, 2522.453
470.0719, 2563.659
470.5540, 2599.971
471.0361, 2617.297
471.5182, 2622.983
472.0003, 2639.309
472.4825, 2669.798
472.9646, 2701.083
473.4467, 2736.455
473.9288, 2767.049
474.4109, 2784.215
474.8930, 2788.878
475.3752, 2793.066
475.8573, 2807.374
476.3394, 2824.111
476.8215, 2828.158
477.3036, 2819.071
477.7857, 2811.315
478.2679, 2814.926
478.7500, 2822.114
479.2321, 2812.226
479.7142, 2778.534
480.1963, 2747.943
480.6784, 2732.114
481.1606, 2717.176
481.6427, 2689.676
482.1248, 2649.461
482.6069, 2606.072
483.0890, 2566.999
483.5711, 2530.262
484.0533, 2482.541
484.5354, 2410.868
485.0175, 2348.479
485.4996, 2312.671
485.9817, 2278.082
486.4638, 2222.185
486.9460, 2144.004
487.4281, 2063.218
487.9102, 1991.828
488.3923, 1929.123
488.8744, 1877.365
489.3565, 1839.439
489.8387, 1796.954
490.3208, 1740.187
490.8029, 1673.044
491.2850, 1603.694
491.7671, 1528.486
492.2492, 1461.181
492.7314, 1412.202
493.2135, 1371.656
493.6956, 1328.172
494.1777, 1280.461
494.6598, 1233.339
495.1419, 1191.681
495.6241, 1153.206
496.1062, 1101.625
496.5883, 1018.198
497.0704, 949.1607
497.5525, 904.8275
498.0346, 871.6843
498.5168, 840.5423
498.9989, 809.0157
499.4810, 778.5176
499.9631, 752.8005
500.4452, 729.1657
500.9273, 695.6313
501.4095, 648.9307
501.8916, 606.9317
502.3737, 577.6392
502.8558, 557.3954
503.3379, 541.3777
503.8200, 531.5480
504.3022, 517.5940
504.7843, 491.7933
505.2664, 461.6697
505.7485, 435.8832
506.2306, 415.1924
506.7127, 398.0093
507.1949, 383.8867
507.6770, 371.2002
508.1591, 352.6003
508.6412, 315.9841
509.1233, 290.5081
509.6054, 288.7643
510.0876, 290.9385
510.5697, 280.1750
511.0518, 257.5162
511.5339, 237.2138
512.0161, 231.8197
512.4982, 234.4776
512.9803, 224.4448
513.4624, 199.1706
513.9445, 178.0786
514.4266, 168.9255
514.9088, 166.5870
515.3909, 166.0724
515.8730, 168.1848
516.3551, 163.9558
516.8372, 142.9311
517.3193, 119.7525
517.8015, 109.3240
518.2836, 109.7451
518.7657, 109.2797
519.2478, 101.5224
519.7299, 90.31311
520.2120, 85.26288
520.6942, 93.14606
521.1763, 94.95160
521.6584, 85.70544
522.1405, 74.83551
522.6226, 66.91583
523.1047, 61.76044
523.5869, 57.66473
524.0690, 54.10327
524.5511, 51.83319
525.0332, 53.12207
525.5153, 58.27405
525.9974, 57.84949
526.4796, 47.26465
526.9617, 34.18372
527.4438, 26.30017
527.9259, 23.18921
528.4080, 22.48029
528.8901, 27.50934
529.3723, 30.89716
529.8544, 26.96655
530.3365, 18.54272
530.8186, 10.40295
531.3007, 4.242676
531.7828, 0.7600100
532.2650, 1.411743
532.7471, 7.148499
533.2292, 11.19452
533.7113, 13.80896
534.1934, 14.30865
534.6755, 10.10706
535.1577, 4.535339
535.6398, 2.358398
536.1219, 5.168640
536.6040, 9.085327
537.0861, 11.66919
537.5682, 12.52472
538.0504, 8.767517
538.5325, 0.7467040
539.0146, 7.844177
539.4967, 4.958008
539.9788, 5.095337
540.4609, 8.122681
540.9431, 4.810364
541.4252, 11.73163
541.9073, 2.282593
542.3894, 11.27667
542.8715, 17.83777
543.3536, 16.14551
543.8358, 10.01331
544.3179, 1.423950
544.8000, 8.081787
545.2821, 11.03479
545.7642, 4.812378
546.2463, 0.7464600
546.7285, 3.221985
547.2106, 4.165833
547.6927, 4.679016
548.1748, 4.786560
548.6569, 4.052795
549.1390, 3.004211
549.6211, 0.5452880
550.1032, 6.370117
550.5853, 16.26581
551.0674, 22.65350
551.5496, 22.88812
552.0317, 19.04303
552.5138, 14.31989
552.9959, 8.495483
553.4780, 2.524109
553.9601, 7.318359
554.4423, 13.38995
554.9244, 9.195740
555.4065, 0.2650150
555.8886, 4.461487
556.3707, 1.660889
556.8528, 3.725220
557.3350, 6.481201
557.8171, 6.719666
558.2992, 5.008423
558.7813, 0.9061890
559.2634, 3.574890
559.7455, 7.368042
560.2277, 10.50067
560.7098, 13.25549
561.1919, 16.44202
561.6740, 17.87250
562.1561, 15.19006
562.6382, 11.40179
563.1204, 9.778992
563.6025, 10.49353
564.0846, 12.08545
564.5667, 13.89386
565.0488, 15.14185
565.5309, 11.79266
566.0131, 7.3242001E-02
566.4952, 6.671875
566.9773, 0.2834470
567.4594, 7.871582
567.9415, 11.69427
568.4236, 11.15436
568.9058, 7.968994
569.3879, 1.107239
569.8700, 6.529175
570.3521, 12.60071
570.8342, 17.06317
571.3163, 19.87616
571.7985, 21.06812
572.2806, 20.42859
572.7627, 17.17554
573.2448, 10.69977
573.7269, 7.287964
574.2090, 9.027405
574.6912, 11.11206
575.1733, 12.08472
575.6554, 12.92236
576.1375, 15.98761
576.6196, 21.31451
577.1017, 24.18613
577.5839, 17.11118
578.0660, 4.219788
578.5481, 0.4912410
579.0302, 7.081329
579.5123, 14.30719
579.9944, 19.20520
580.4766, 20.88904
580.9587, 15.11691
581.4408, 2.309113
581.9229, 9.133179
582.4050, 6.195557
582.8871, 25.40524
583.3693, 39.93790
583.8514, 48.19882
584.3335, 47.96982
584.8156, 38.10577
585.2977, 24.90714
585.7798, 17.92511
586.2620, 17.46069
586.7441, 20.50189
587.2262, 29.43597
587.7083, 37.73264
588.1904, 41.58139
588.6725, 42.39307
589.1547, 42.33759
589.6368, 42.08331
590.1189, 39.94397
590.6010, 31.67749
591.0831, 22.90930
591.5652, 22.20197
592.0474, 29.08533
592.5295, 35.88525
593.0116, 37.34851
593.4937, 35.62613
593.9758, 38.09503
594.4579, 49.01187
594.9401, 53.96933
595.4222, 44.56448
595.9043, 35.46918
596.3864, 35.91724
596.8685, 42.35638
597.3506, 45.26190
597.8328, 39.18179
598.3149, 32.08514
598.7970, 31.71472
599.2791, 35.72449
599.7612, 38.82941
600.2433, 39.68970
600.7255, 40.68692
601.2076, 44.53864
601.6897, 50.31717
602.1718, 50.33173
602.6539, 34.91702
603.1360, 26.61328
603.6182, 32.66193
604.1003, 42.42944
604.5824, 49.44229
605.0645, 52.76331
605.5466, 52.76236
606.0287, 48.05899
606.5109, 42.33405
606.9930, 41.97647
607.4751, 46.20993
607.9572, 48.63425
608.4393, 47.28073
608.9214, 43.85291
609.4036, 39.74683
609.8857, 35.21863
610.3678, 33.05225
610.8499, 35.68539
611.3320, 37.54556
611.8141, 36.00177
612.2963, 33.46375
612.7784, 31.97507
613.2605, 32.04507
613.7426, 33.97760
614.2247, 40.28421
614.7068, 47.92050
615.1890, 47.62579
615.6711, 38.96292
616.1532, 32.21310
616.6353, 30.31268
617.1174, 30.83755
617.5995, 31.79071
618.0817, 33.48822
618.5638, 34.79340
619.0459, 36.20819
619.5280, 35.96899
620.0101, 32.26602
620.4922, 27.33911
620.9744, 23.15424
621.4565, 20.29929
621.9386, 19.35394
622.4207, 21.31494
622.9028, 25.47873
623.3849, 29.81161
623.8671, 35.33542
624.3492, 37.95880
624.8313, 33.93500
625.3134, 27.93970
625.7955, 27.76013
626.2776, 33.23590
626.7598, 33.30435
627.2419, 19.61444
627.7240, 7.999573
628.2061, 6.667114
628.6882, 12.01236
629.1703, 19.69400
629.6525, 28.12213
630.1346, 36.28851
630.6167, 43.86105
631.0988, 50.05234
631.5809, 49.98520
632.0630, 41.44992
632.5452, 36.73349
633.0273, 44.06256
633.5094, 52.26923
633.9915, 46.99533
634.4736, 29.13022
634.9557, 15.39191
635.4379, 8.075531
635.9200, 6.233154
636.4021, 15.03476
636.8842, 28.00272
637.3663, 32.56400
637.8484, 26.59244
638.3306, 20.78189
638.8127, 27.05127
639.2948, 41.73978
639.7769, 45.81213
640.2590, 37.21567
640.7411, 31.20990
641.2233, 33.51572
641.7054, 38.00345
642.1875, 37.81665
642.6696, 33.42792
643.1517, 30.70685
643.6339, 31.87692
644.1160, 33.97025
644.5981, 36.40262
645.0802, 38.40137
645.5623, 38.56403
646.0444, 36.66467
646.5266, 33.56772
647.0087, 29.82742
647.4908, 25.74072
647.9729, 22.45987
648.4550, 19.64682
648.9371, 19.04630
649.4193, 23.05057
649.9014, 27.68851
650.3835, 28.68359
650.8656, 26.49512
651.3477, 24.61063
651.8298, 22.77167
652.3120, 22.36087
652.7941, 25.45898
653.2762, 29.62146
653.7583, 30.97974
654.2404, 29.41519
654.7225, 28.70639
655.2047, 32.76492
655.6868, 38.71866
656.1689, 35.66327
656.6510, 21.62622
657.1331, 11.07638
657.6152, 7.266785
658.0974, 7.360352
658.5795, 9.982391
659.0616, 14.68362
659.5437, 19.49551
660.0258, 25.37253
660.5079, 29.86826
660.9901, 32.54141
661.4722, 33.31250
661.9543, 30.35638
662.4364, 24.80383
662.9185, 21.49194
663.4006, 24.18875
663.8828, 29.53784
664.3649, 30.36957
664.8470, 26.61188
665.3291, 20.79196
665.8112, 11.74802
666.2933, 4.230591
666.7755, 1.559784
667.2576, 3.426819
667.7397, 7.899963
668.2218, 18.24356
668.7039, 25.89258
669.1860, 30.10535
669.6682, 30.25113
670.1503, 22.50308
670.6324, 10.35410
671.1145, 2.828217
671.5966, 4.648529
672.0787, 10.75742
672.5609, 14.85178
673.0430, 17.00317
673.5251, 18.04919
674.0072, 18.33463
674.4893, 15.20316
674.9714, 4.644714
675.4536, 8.509430
675.9357, 11.04004
676.4178, 3.903656
676.8999, 14.52823
677.3820, 17.97083
677.8641, 19.38150
678.3463, 22.56708
678.8284, 24.78479
679.3105, 21.78073
679.7926, 12.11337
680.2747, 2.579712
680.7568, 0.5231020
681.2390, 3.134003
681.7211, 3.534546
682.2032, 1.596130
682.6853, 0.4026490
683.1674, 1.120056
683.6495, 3.859192
684.1317, 9.421234
684.6138, 19.14667
685.0959, 24.46744
685.5780, 22.93112
686.0601, 20.18530
686.5422, 15.46255
687.0244, 10.44363
687.5065, 8.448059
687.9886, 9.784851
688.4707, 12.33789
688.9528, 16.59641
689.4349, 20.17160
689.9171, 20.10266
690.3992, 17.07932
690.8813, 12.25098
691.3634, 6.049561
691.8455, 1.559570
692.3276, 2.315887
692.8098, 7.555145
693.2919, 10.20847
693.7740, 7.881866
694.2561, 8.516876
694.7382, 19.34418
695.2203, 28.21143
695.7025, 23.00473
696.1846, 8.203979
696.6667, 1.200714
697.1488, 11.25073
697.6309, 22.50430
698.1130, 25.88477
698.5952, 26.05978
699.0773, 30.13907
699.5594, 37.44403
700.0415, 40.60495
700.5236, 34.55356
701.0057, 24.61102
701.4879, 23.34552
701.9700, 31.47717
702.4521, 31.89713
702.9342, 19.47278
703.4163, 8.685577
703.8984, 9.244751
704.3806, 16.84207
704.8627, 20.71561
705.3448, 18.63632
705.8269, 19.48807
706.3090, 27.30206
706.7911, 35.56610
707.2733, 42.15628
707.7554, 45.90866
708.2375, 44.22137
708.7196, 36.63864
709.2017, 28.80508
709.6838, 27.06897
710.1660, 28.89594
710.6481, 26.34735
711.1302, 19.83536
711.6123, 19.35989
712.0944, 29.82086
712.5765, 41.66220
713.0587, 41.97202
713.5408, 29.86038
714.0229, 25.30417
714.5050, 35.30603
714.9871, 43.43597
715.4692, 48.43442
715.9514, 49.63889
716.4335, 43.54626
716.9156, 32.47546
717.3977, 26.17603
717.8798, 30.40231
718.3619, 38.07867
718.8441, 46.67508
719.3262, 53.69046
719.8083, 52.76450
720.2904, 44.53461
720.7725, 37.96008
721.2546, 39.28452
721.7368, 45.27243
722.2189, 48.82361
722.7010, 50.16605
723.1831, 46.76929
723.6652, 35.27155
724.1473, 25.30734
724.6295, 24.26706
725.1116, 27.64603
725.5937, 25.44693
726.0758, 14.95157
726.5579, 8.397430
727.0400, 11.52963
727.5222, 15.59097
728.0043, 14.65390
728.4864, 11.35434
728.9685, 10.59366
729.4506, 13.55664
729.9327, 17.25027
730.4149, 19.68655
730.8970, 20.63568
731.3791, 18.97037
731.8612, 14.97366
732.3433, 10.93597
732.8254, 7.251923
733.3076, 5.488586
733.7897, 8.836975
734.2718, 16.86783
734.7539, 16.48471
735.2360, 3.298370
735.7181, 13.00146
736.2003, 0.1529850
736.6824, 14.81570
737.1645, 19.67255
737.6466, 16.41882
738.1287, 11.26907
738.6108, 2.922852
739.0930, 0.1769710
739.5751, 15.98154
740.0572, 34.68787
740.5393, 34.92664
741.0214, 20.60608
741.5035, 10.91818
741.9857, 14.96527
742.4678, 21.86847
742.9499, 12.26111
743.4320, 11.71283
743.9141, 18.27463
744.3962, 4.108337
744.8784, 11.80753
745.3605, 24.27631
745.8426, 31.94608
746.3247, 31.54034
746.8068, 21.68774
747.2889, 16.67389
747.7711, 21.11649
748.2532, 24.07556
748.7353, 21.68408
749.2174, 17.69647
749.6995, 14.60812
750.1816, 13.09607
750.6638, 14.35486
751.1459, 21.15112
751.6280, 26.71381
752.1101, 22.85147
752.5922, 14.00140
753.0743, 7.761200
753.5565, 5.256073
754.0386, 6.333466
754.5207, 11.24194
755.0028, 17.33319
755.4849, 18.20734
755.9670, 12.66440
756.4492, 14.29904
756.9313, 27.10391
757.4134, 37.62906
757.8955, 39.06598
758.3776, 35.90308
758.8597, 34.98877
759.3419, 36.62982
759.8240, 37.01019
760.3061, 36.36932
760.7882, 34.32437
761.2703, 27.28748
761.7524, 19.68115
762.2346, 17.99866
762.7167, 22.76553
763.1988, 29.53815
763.6809, 37.42737
764.1630, 43.30670
764.6451, 41.04102
765.1273, 34.44635
765.6094, 34.42966
766.0915, 41.65872
766.5736, 46.86130
767.0557, 44.05063
767.5378, 36.95340
768.0200, 34.72891
768.5021, 38.04669
768.9842, 37.12653
769.4663, 28.48547
769.9484, 24.04767
770.4305, 31.56509
770.9127, 44.19998
771.3948, 52.78497
771.8769, 57.31509
772.3590, 58.70151
772.8411, 52.74677
773.3232, 48.80707
773.8054, 54.01407
774.2875, 60.79477
774.7696, 59.75168
775.2517, 51.53986
775.7338, 44.52380
776.2159, 43.57864
776.6981, 44.68140
777.1802, 41.57935
777.6623, 37.43143
778.1444, 41.44461
778.6265, 53.43524
779.1086, 62.75507
779.5908, 63.07401
780.0729, 59.83447
780.5550, 64.74973
781.0371, 79.58508
781.5192, 82.91544
782.0013, 68.63544
782.4835, 59.55136
782.9656, 68.69305
783.4477, 82.97180
783.9298, 83.44766
784.4119, 69.64883
784.8940, 64.82602
785.3762, 79.24402
785.8583, 90.72937
786.3404, 89.12845
786.8225, 85.47247
787.3046, 91.89850
787.7867, 105.3414
788.2689, 112.6851
788.7510, 107.2573
789.2331, 97.84186
789.7152, 88.53244
790.1973, 81.84146
790.6794, 84.79773
791.1616, 94.78308
791.6437, 98.61575
792.1258, 90.61758
792.6079, 80.00970
793.0900, 80.61734
793.5721, 90.35953
794.0543, 90.40494
794.5364, 78.00702
795.0185, 70.89096
795.5006, 75.94821
795.9827, 83.90717
796.4648, 85.25882
796.9470, 80.90326
797.4291, 80.49130
797.9112, 91.60895
798.3933, 95.62988
798.8754, 86.23508
799.3575, 75.11383
799.8397, 67.11877
800.3218, 62.55835
800.8039, 62.42371
801.2860, 67.62589
801.7681, 69.57065
802.2502, 62.65616
802.7324, 52.94040
803.2145, 42.88196
803.6966, 35.55975
804.1787, 37.81699
804.6608, 49.98853
805.1429, 62.99753
805.6251, 70.44696
806.1072, 72.04553
806.5893, 64.73666
807.0714, 49.80209
807.5535, 37.43045
808.0356, 29.31049
808.5178, 24.52777
808.9999, 23.06442
809.4820, 23.19354
809.9641, 19.89102
810.4462, 10.29712
810.9283, 8.124847
811.4105, 17.94287
811.8926, 27.84024
812.3747, 36.65671
812.8568, 40.84045
813.3389, 32.84647
813.8210, 12.87305
814.3032, 1.344818
814.7853, 8.381531
815.2674, 15.16605
815.7495, 14.94662
816.2316, 11.96875
816.7137, 10.85696
817.1959, 10.67706
817.6780, 5.874634
818.1601, 7.774963
818.6422, 17.59033
819.1243, 7.408173
819.6064, 10.55026
820.0886, 16.45972
820.5707, 12.30551
821.0528, 9.989746
821.5349, 13.67422
822.0170, 17.90186
822.4991, 15.66836
822.9813, 9.480591
823.4634, 12.88574
823.9455, 26.84717
824.4276, 28.37219
824.9097, 9.427734
825.3918, 9.413971
825.8740, 12.22858
826.3561, 3.413757
826.8382, 2.222076
827.3203, 2.426788
827.8024, 4.787994
828.2845, 12.75500
828.7667, 18.66644
829.2488, 19.30960
829.7309, 16.68481
830.2130, 12.38135
830.6951, 6.602325
831.1772, 2.106049
831.6594, 0.1402890
832.1415, 1.259583
832.6236, 2.381561
833.1057, 2.240662
833.5878, 1.520508
834.0699, 7.756775
834.5521, 12.69382
835.0342, 14.57797
835.5163, 15.02652
835.9984, 15.34882
836.4805, 15.44290
836.9626, 14.51852
837.4448, 13.18851
837.9269, 14.16632
838.4090, 18.17184
838.8911, 21.48108
839.3732, 19.57834
839.8553, 14.40457
840.3375, 13.22829
840.8196, 16.11922
841.3017, 20.57832
841.7838, 27.07556
842.2659, 30.30426
842.7480, 25.70456
843.2302, 16.60698
843.7123, 11.66153
844.1944, 12.75755
844.6765, 11.57480
845.1586, 5.621414
845.6407, 1.127609
846.1229, 9.3231000E-02
846.6050, 1.308655
847.0871, 6.428101
847.5692, 14.64529
848.0513, 18.86447
848.5334, 15.06187
849.0156, 11.32553
849.4977, 8.837616
849.9798, 8.211929
850.4619, 11.20859
850.9440, 16.15701
851.4261, 18.83849
851.9083, 17.65631
852.3904, 18.14249
852.8725, 28.91452
853.3546, 39.12581
853.8367, 34.42529
854.3188, 21.11649
854.8010, 12.56656
855.2831, 11.20393
855.7652, 11.10416
856.2473, 7.723343
856.7294, 3.807648
857.2115, 4.919617
857.6937, 9.853058
858.1758, 12.86098
858.6579, 13.49521
859.1400, 15.82948
859.6221, 22.23337
860.1042, 27.76006
860.5864, 24.02008
861.0685, 11.51489
861.5506, 8.367416
862.0327, 18.25302
862.5148, 23.36775
862.9969, 17.42242
863.4791, 9.443253
863.9612, 6.674011
864.4433, 8.278946
864.9254, 10.82515
865.4075, 13.74518
865.8896, 16.85498
866.3718, 19.56586
866.8539, 23.64519
867.3360, 33.85588
867.8181, 43.14786
868.3002, 40.53653
868.7823, 26.70160
869.2645, 20.09460
869.7466, 35.96622
870.2287, 46.57468
870.7108, 33.28989
871.1929, 16.27216
871.6750, 15.38000
872.1572, 25.89372
872.6393, 33.93034
873.1214, 34.85498
873.6035, 32.01807
874.0856, 25.30414
874.5677, 18.20334
875.0499, 13.16286
875.5320, 11.19377
876.0141, 15.48688
876.4962, 25.65581
876.9783, 36.21559
877.4604, 41.26587
877.9426, 41.40202
878.4247, 38.50902
878.9068, 33.50880
879.3889, 27.93428
879.8710, 22.24544
880.3531, 20.25708
880.8353, 23.65186
881.3174, 28.60651
881.7995, 30.94209
882.2816, 30.72467
882.7637, 27.38828
883.2458, 19.37277
883.7280, 15.33649
884.2101, 18.71346
884.6922, 21.98940
885.1743, 19.57828
885.6564, 14.52975
886.1385, 13.21391
886.6207, 15.93704
887.1028, 20.99339
887.5849, 33.89207
888.0670, 40.48480
888.5491, 30.64688
889.0313, 18.13351
889.5134, 15.28008
889.9955, 20.31671
890.4776, 23.89966
890.9597, 25.49886
891.4418, 25.87897
891.9240, 20.89272
892.4061, 18.97002
892.8882, 30.12354
893.3703, 44.08771
893.8524, 45.01901
894.3345, 31.68117
894.8167, 20.82547
895.2988, 19.71413
895.7809, 22.01901
896.2630, 27.67015
896.7451, 32.52638
897.2272, 30.91631
897.7094, 24.89586
898.1915, 21.08607
898.6736, 21.23111
899.1557, 21.98158
899.6378, 20.06383
900.1199, 18.02330
900.6021, 19.18617
901.0842, 22.59354
901.5663, 25.84918
902.0484, 28.50182
902.5305, 31.26556
903.0126, 34.41847
903.4948, 37.75766
903.9769, 41.72049
904.4590, 45.65720
904.9411, 47.87437
905.4232, 47.82883
905.9053, 41.13654
906.3875, 26.75224
906.8696, 14.44360
907.3517, 14.22551
907.8338, 21.83385
908.3159, 22.80565
908.7980, 17.21960
909.2802, 16.60121
909.7623, 22.87471
910.2444, 28.28062
910.7265, 28.71701
911.2086, 27.13913
911.6907, 27.95586
912.1729, 31.20387
912.6550, 35.65547
913.1371, 43.46561
913.6192, 45.23827
914.1013, 36.08189
914.5834, 26.66844
915.0656, 24.47014
915.5477, 26.82176
916.0298, 27.64488
916.5119, 27.03238
916.9940, 24.42293
917.4761, 16.64928
917.9583, 11.19289
918.4404, 12.61952
918.9225, 14.75916
919.4046, 11.05313
919.8867, 4.232803
920.3688, 3.663406
920.8510, 16.27000
921.3331, 22.19298
921.8152, 10.04913
922.2973, 0.6271060
922.7794, 8.148041
923.2615, 20.53432
923.7437, 22.53587
924.2258, 14.27257
924.7079, 7.687729
925.1900, 6.503250
925.6721, 7.269363
926.1542, 11.10138
926.6364, 13.99081
927.1185, 10.26617
927.6006, 4.281525
928.0827, 4.816925
928.5648, 13.12410
929.0469, 19.49370
929.5291, 16.93790
930.0112, 12.52310
930.4933, 10.71768
930.9754, 10.50653
931.4575, 11.09837
931.9396, 12.05542
932.4218, 13.70918
932.9039, 16.07584
933.3860, 14.67548
933.8681, 0.1268460
934.3502, 15.77446
934.8323, 15.78348
935.3145, 6.180222
935.7966, 1.012146
936.2787, 3.934814
936.7608, 4.950470
937.2429, 5.172379
937.7250, 5.679825
938.2072, 7.586761
938.6893, 10.91794
939.1714, 17.46623
939.6535, 25.57268
940.1356, 28.24275
940.6177, 24.29169
941.0999, 18.64255
941.5820, 14.64844
942.0641, 11.77885
942.5462, 8.736221
943.0283, 5.824539
943.5104, 5.539230
943.9926, 7.677124
944.4747, 7.430466
944.9568, 3.237152
945.4389, 1.054871
945.9210, 2.264282
946.4031, 0.4651950
946.8853, 5.665802
947.3674, 16.12039
947.8495, 19.97183
948.3316, 15.78094
948.8137, 14.08554
949.2958, 19.80347
949.7780, 24.78259
950.2601, 18.77655
950.7422, 5.014099
951.2243, 1.653931
951.7064, 11.00827
952.1885, 14.71048
952.6707, 8.590118
953.1528, 6.927460
953.6349, 19.36914
954.1170, 32.94382
954.5991, 28.48727
955.0812, 7.208282
955.5634, 4.146179
956.0455, 2.654572
956.5276, 0.2527470
957.0097, 4.822876
957.4918, 7.232788
957.9739, 4.491943
958.4561, 0.6298520
958.9382, 3.993073
959.4203, 5.660248
959.9024, 4.719940
960.3845, 0.3269650
960.8666, 5.070831
961.3488, 10.20016
961.8309, 13.04553
962.3130, 11.23785
962.7951, 6.382813
963.2772, 0.9946590
963.7593, 5.754944
964.2415, 8.595398
964.7236, 5.692657
965.2057, 1.688751
965.6878, 5.743225
966.1699, 11.13623
966.6520, 9.326843
967.1342, 3.333466
967.6163, 0.3354490
968.0984, 1.755554
968.5805, 0.1187130
969.0626, 7.929901
969.5447, 14.60956
970.0269, 18.75180
970.5090, 20.12656
970.9911, 16.32864
971.4732, 9.958618
971.9553, 8.508026
972.4374, 15.00290
972.9196, 17.37054
973.4017, 10.32263
973.8838, 3.562622
974.3659, 1.005920
974.8480, 2.587128
975.3301, 2.381653
975.8123, 10.62720
976.2944, 11.31845
976.7765, 1.807281
977.2586, 7.317810
977.7407, 8.671021
978.2228, 22.04327
978.7050, 19.54068
979.1871, 11.68369
979.6692, 9.153595
980.1513, 10.86035
980.6334, 10.38492
981.1155, 3.800903
981.5977, 2.036377
982.0798, 15.40158
982.5619, 25.57709
983.0440, 19.10464
983.5261, 7.928436
984.0082, 6.618164
984.4904, 13.32346
984.9725, 15.11874
985.4546, 5.346924
985.9367, 0.1281430
986.4188, 9.359741
986.9009, 20.46890
987.3831, 27.54739
987.8652, 30.86270
988.3473, 30.24350
988.8294, 26.78799
989.3115, 23.81738
989.7936, 22.04291
990.2758, 21.69000
990.7579, 24.76541
991.2400, 27.15897
991.7221, 22.69836
992.2042, 17.08920
992.6863, 21.59900
993.1685, 34.61765
993.6506, 42.21906
994.1327, 37.74829
994.6148, 32.25293
995.0969, 28.58685
995.5790, 27.75931
996.0612, 34.52939
996.5433, 41.99500
997.0254, 41.02841
997.5075, 31.99362
997.9896, 20.85593
998.4717, 6.807953
998.9539, 0.4555360
999.4360, 11.46774
999.9181, 23.23056
1000.400, 17.58920
1000.882, 6.049469
1001.364, 5.549133
1001.847, 14.91699
1002.329, 19.52847
1002.811, 12.65738
1003.293, 5.350677
1003.775, 1.914581
1004.257, 1.331512
1004.739, 2.227142
1005.221, 5.898071
1005.703, 17.11047
1006.186, 33.24240
1006.668, 43.48892
1007.150, 42.78699
1007.632, 40.61752
1008.114, 41.67838
1008.596, 42.25955
1009.078, 38.60651
1009.560, 34.10287
1010.043, 32.26831
1010.525, 33.20840
1011.007, 35.54935
1011.489, 39.38226
1011.971, 42.72333
1012.453, 45.51022
1012.935, 46.68085
1013.417, 45.86951
1013.899, 42.67841
1014.382, 34.06561
1014.864, 22.26086
1015.346, 14.20206
1015.828, 11.91824
1016.310, 12.99036
1016.792, 20.02866
1017.274, 26.17752
1017.756, 25.91266
1018.239, 24.72812
1018.721, 30.11383
1019.203, 39.00781
1019.685, 40.26154
1020.167, 28.95526
1020.649, 22.10275
1021.131, 31.36142
1021.613, 38.27179
1022.095, 31.63797
1022.578, 21.91724
1023.060, 19.11508
1023.542, 21.08792
1024.024, 20.34647
1024.506, 15.08298
1024.988, 10.27298
1025.470, 5.345734
1025.952, 3.378052
1026.435, 6.733612
1026.917, 12.65762
1027.399, 23.47433
1027.881, 33.72318
1028.363, 29.92725
1028.845, 7.785889
1029.327, 5.689941
1029.809, 1.507233
1030.292, 8.060791
1030.774, 5.159851
1031.256, 2.925446
1031.738, 10.79980
1032.220, 23.06729
1032.702, 28.99628
1033.184, 27.54010
1033.666, 26.66251
1034.148, 28.22736
1034.630, 28.77789
1035.113, 29.68460
1035.595, 27.60837
1036.077, 14.53915
1036.559, 0.2702940
1037.041, 2.1637000E-02
1037.523, 16.16199
1038.005, 21.20157
1038.487, 1.814117
1038.970, 7.604797
1039.452, 4.024567
1039.934, 8.933990
1040.416, 43.54132
1040.898, 74.76123
1041.380, 65.60843
1041.862, 21.26624
1042.344, 0.4442750
1042.826, 20.05777
1043.309, 25.48218
1043.791, 4.950012
1044.273, 11.21143
1044.755, 11.00439
1045.237, 3.148621
1045.719, 4.708191
1046.201, 12.36041
1046.683, 19.38840
1047.166, 27.69479
1047.648, 27.85175
1048.130, 15.31082
1048.612, 8.149109
1049.094, 12.70209
1049.576, 22.47443
1050.058, 34.05740
1050.540, 44.06821
1051.022, 41.90878
1051.505, 25.82571
1051.987, 14.75726
1052.469, 8.862000
1052.951, 8.155670
1053.433, 13.49796
1053.915, 19.28693
1054.397, 21.61798
1054.879, 22.88052
1055.361, 29.06247
1055.844, 38.94232
1056.326, 35.36206
1056.808, 18.37891
1057.290, 10.64175
1057.772, 16.08807
1058.254, 22.19275
1058.736, 22.35931
1059.218, 20.44858
1059.701, 21.17480
1060.183, 24.21249
1060.665, 29.72739
1061.147, 36.78729
1061.629, 37.65546
1062.111, 33.13260
1062.593, 39.01196
1063.075, 60.75314
1063.557, 78.49307
1064.040, 70.70090
1064.522, 51.71136
1065.004, 47.96567
1065.486, 53.58606
1065.968, 55.14352
1066.450, 52.36191
1066.932, 47.14343
1067.414, 40.96143
1067.896, 39.33456
1068.379, 47.08078
1068.861, 56.91385
1069.343, 63.06979
1069.825, 64.34857
1070.307, 53.55133
1070.789, 38.83524
1071.271, 37.07535
1071.753, 48.62924
1072.236, 61.77463
1072.718, 71.64026
1073.200, 79.77777
1073.682, 89.14536
1074.164, 95.39752
1074.646, 93.91849
1075.128, 87.96872
1075.610, 78.93961
1076.093, 69.60187
1076.575, 66.35092
1077.057, 71.09924
1077.539, 73.88354
1078.021, 67.56393
1078.503, 62.06937
1078.985, 63.49747
1079.467, 65.89932
1079.949, 62.89716
1080.432, 58.48145
1080.914, 60.83517
1081.396, 70.35632
1081.878, 76.45584
1082.360, 74.86212
1082.842, 73.41333
1083.324, 71.47144
1083.806, 72.08035
1084.288, 79.46777
1084.771, 87.95941
1085.253, 90.82108
1085.735, 89.23978
1086.217, 89.45453
1086.699, 94.65637
1087.181, 92.35333
1087.663, 75.08841
1088.145, 66.33521
1088.628, 75.76035
1089.110, 88.75311
1089.592, 95.56522
1090.074, 97.56744
1090.556, 97.15469
1091.038, 94.14551
1091.520, 94.52261
1092.002, 99.21719
1092.484, 100.8393
1092.967, 97.65820
1093.449, 95.23083
1093.931, 96.58563
1094.413, 98.69370
1094.895, 97.46353
1095.377, 94.11282
1095.859, 93.40952
1096.341, 94.93164
1096.823, 94.98911
1097.306, 93.70514
1097.788, 93.99225
1098.270, 96.62708
1098.752, 99.39407
1099.234, 101.1191
1099.716, 99.53696
1100.198, 86.53516
1100.680, 70.08081
1101.163, 66.91772
1101.645, 74.09827
1102.127, 86.13065
1102.609, 99.11880
1103.091, 101.7313
1103.573, 87.71606
1104.055, 75.88196
1104.537, 87.27155
1105.020, 102.0382
1105.502, 99.93362
1105.984, 92.10226
1106.466, 93.95544
1106.948, 101.2992
1107.430, 100.9734
1107.912, 90.62448
1108.394, 81.85745
1108.876, 80.38229
1109.359, 79.82001
1109.841, 76.90469
1110.323, 75.21198
1110.805, 78.77939
1111.287, 83.54144
1111.769, 83.90793
1112.251, 80.62402
1112.733, 79.12875
1113.215, 80.41800
1113.698, 82.23911
1114.180, 85.58670
1114.662, 87.77902
1115.144, 88.40726
1115.626, 87.40994
1116.108, 84.33145
1116.590, 80.00858
1117.072, 75.87836
1117.555, 71.93277
1118.037, 68.71414
1118.519, 66.28412
1119.001, 62.38242
1119.483, 56.09863
1119.965, 55.99625
1120.447, 66.62476
1120.929, 77.18304
1121.411, 76.41605
1121.894, 69.55402
1122.376, 72.35947
1122.858, 81.41516
1123.340, 79.40225
1123.822, 68.16257
1124.304, 59.79980
1124.786, 57.33551
1125.268, 60.04068
1125.750, 67.94150
1126.233, 75.81335
1126.715, 77.65594
1127.197, 75.12292
1127.679, 67.57172
1128.161, 60.43814
1128.643, 65.25537
1129.125, 76.67514
1129.607, 78.07651
1130.090, 66.19647
1130.572, 57.17984
1131.054, 63.47394
1131.536, 66.94437
1132.018, 51.42514
1132.500, 37.30347
1132.982, 42.46085
1133.464, 54.37384
1133.947, 55.40155
1134.429, 47.74918
1134.911, 47.42911
1135.393, 59.03168
1135.875, 68.58600
1136.357, 77.36588
1136.839, 81.01483
1137.321, 74.17526
1137.803, 66.07755
1138.286, 63.09811
1138.768, 61.49213
1139.250, 54.64053
1139.732, 43.97897
1140.214, 42.82300
1140.696, 52.52817
1141.178, 65.21442
1141.660, 81.36542
1142.142, 78.82901
1142.625, 49.37070
1143.107, 24.33191
1143.589, 28.78738
1144.071, 47.63745
1144.553, 55.86813
1145.035, 56.66547
1145.517, 58.85172
1145.999, 62.11905
1146.482, 67.53296
1146.964, 72.97253
1147.446, 67.87692
1147.928, 49.35571
1148.410, 35.18762
1148.892, 42.72360
1149.374, 52.70544
1149.856, 46.39932
1150.339, 35.83591
1150.821, 30.23886
1151.303, 30.25046
1151.785, 39.32361
1152.267, 53.82397
1152.749, 58.59290
1153.231, 46.34708
1153.713, 38.75848
1154.195, 46.81699
1154.677, 51.73416
1155.160, 48.60645
1155.642, 39.57401
1156.124, 19.84238
1156.606, 0.2602540
1157.088, 1.645355
1157.570, 12.30692
1158.052, 20.37012
1158.534, 20.41904
1159.017, 25.28140
1159.499, 37.36047
1159.981, 43.18378
1160.463, 38.27173
1160.945, 30.03827
1161.427, 23.63617
1161.909, 17.95911
1162.391, 9.102325
1162.874, 4.1809999E-03
1163.356, 3.442017
1163.838, 14.50342
1164.320, 16.31720
1164.802, 9.377167
1165.284, 2.963409
1165.766, 0.6685180
1166.248, 5.208405
1166.730, 22.96985
1167.213, 36.26688
1167.695, 23.77380
1168.177, 7.336212
1168.659, 7.452576
1169.141, 14.64407
1169.623, 15.64282
1170.105, 11.97437
1170.587, 13.09235
1171.069, 21.79181
1171.552, 26.08051
1172.034, 20.71942
1172.516, 15.97391
1172.998, 12.75250
1173.480, 11.54919
1173.962, 14.98325
1174.444, 16.90680
1174.926, 9.139282
1175.409, 3.917908
1175.891, 5.311096
1176.373, 6.396637
1176.855, 7.448181
1177.337, 2.517761
1177.819, 4.658417
1178.301, 3.957275
1178.783, 8.596497
1179.266, 2.058014
1179.748, 5.491425
1180.230, 2.757172
1180.712, 4.428680
1181.194, 7.821716
1181.676, 8.291321
1182.158, 6.439117
1182.640, 3.173859
1183.122, 0.9891050
1183.604, 5.000366
1184.087, 5.065735
1184.569, 1.070801
1185.051, 4.345963
1185.533, 3.115829
1186.015, 9.208511
1186.497, 8.907928
1186.979, 5.408096
1187.461, 0.5054930
1187.944, 7.275497
1188.426, 13.96007
1188.908, 19.91963
1189.390, 20.84552
1189.872, 15.28233
1190.354, 8.900055
1190.836, 0.1374210
1191.318, 0.4459690
1191.801, 12.04547
1192.283, 22.76678
1192.765, 23.53181
1193.247, 17.33093
1193.729, 5.285767
1194.211, 6.909866
1194.693, 1.847610
1195.175, 13.00111
1195.657, 18.18666
1196.140, 14.87660
1196.622, 10.03055
1197.104, 5.432739
1197.586, 0.2339480
1198.068, 6.347549
1198.550, 9.222794
1199.032, 3.125320
1199.514, 4.896347
1199.996, 12.98813
1200.479, 19.19202
1200.961, 21.39368
1201.443, 21.16019
1201.925, 20.16568
1202.407, 18.81398
1202.889, 18.85182
1203.371, 20.12645
1203.853, 23.88528
1204.336, 32.33203
1204.818, 35.28174
1205.300, 28.80289
1205.782, 24.09567
1206.264, 27.88963
1206.746, 33.03891
1207.228, 32.01257
1207.710, 26.29901
1208.193, 25.00789
1208.675, 26.38660
1209.157, 28.67316
1209.639, 30.19250
1210.121, 32.31958
1210.603, 31.48799
1211.085, 31.78848
1211.567, 37.11259
1212.049, 40.23758
1212.531, 34.53362
1213.014, 28.89168
1213.496, 31.21217
1213.978, 34.36417
1214.460, 30.46648
1214.942, 20.94331
1215.424, 17.01721
1215.906, 15.96519
1216.388, 19.50407
1216.871, 27.43098
1217.353, 29.79851
1217.835, 24.88660
1218.317, 18.68799
1218.799, 11.56728
1219.281, 8.350052
1219.763, 11.33504
1220.245, 15.38475
1220.728, 15.78946
1221.210, 14.77298
1221.692, 16.91914
1222.174, 20.09396
1222.656, 19.62317
1223.138, 17.11647
1223.620, 14.81256
1224.102, 13.69408
1224.584, 16.71997
1225.067, 23.92540
1225.549, 26.15746
1226.031, 17.96927
1226.513, 10.64554
1226.995, 8.319672
1227.477, 6.380463
1227.959, 2.018417
1228.441, 0.9848180
1228.923, 0.8446810
1229.406, 5.535263
1229.888, 10.29482
1230.370, 14.88829
1230.852, 14.63551
1231.334, 9.089066
1231.816, 8.771988
1232.298, 16.59282
1232.780, 21.49112
1233.263, 20.64653
1233.745, 15.60112
1234.227, 6.693680
1234.709, 0.0000000E+00
##END=



