##NAMES=Chabazite-Na
##RRUFFID=R061095
##IDEAL CHEMISTRY=(Na_3_K)Al_4_Si_8_O_24_&#183;11H_2_O
##LOCALITY=Vaitape, Bora Bora, French Polynesia
##OWNER=RRUFF
##SOURCE=Michael Scott
##DESCRIPTION=Clusters and druse of clear, colorless rhombohedral crystals
##STATUS=The identification of this mineral has been confirmed only by single crystal X-ray diffraction.
##URL=rruff.info/R061095
119.1542, 0.0000000E+00
119.6363, 1.659180
120.1184, 14.49463
120.6006, 59.26025
121.0827, 179.2920
121.5648, 334.3604
122.0469, 519.0361
122.5290, 725.4385
123.0111, 954.3774
123.4933, 1209.834
123.9754, 1512.405
124.4575, 1828.302
124.9396, 2114.562
125.4217, 2365.544
125.9038, 2617.122
126.3860, 2865.289
126.8681, 3023.273
127.3502, 3086.286
127.8323, 3095.709
128.3144, 3065.613
128.7965, 3019.385
129.2787, 2956.633
129.7608, 2884.579
130.2429, 2807.901
130.7250, 2726.105
131.2071, 2647.318
131.6892, 2576.033
132.1714, 2509.819
132.6535, 2442.136
133.1356, 2367.040
133.6177, 2288.961
134.0998, 2221.373
134.5819, 2161.898
135.0640, 2116.073
135.5462, 2092.735
136.0283, 2092.557
136.5104, 2092.926
136.9925, 2085.404
137.4746, 2070.611
137.9567, 2069.938
138.4389, 2086.310
138.9210, 2111.078
139.4031, 2137.160
139.8852, 2172.774
140.3673, 2189.076
140.8494, 2171.025
141.3316, 2105.328
141.8137, 2062.410
142.2958, 2053.899
142.7779, 2063.339
143.2600, 2044.274
143.7421, 1976.336
144.2243, 1912.837
144.7064, 1884.699
145.1885, 1924.907
145.6706, 1938.798
146.1527, 1912.153
146.6348, 1850.114
147.1170, 1797.366
147.5991, 1752.489
148.0812, 1717.010
148.5633, 1692.547
149.0454, 1693.916
149.5275, 1688.186
150.0097, 1666.405
150.4918, 1623.748
150.9739, 1592.588
151.4560, 1587.827
151.9381, 1588.990
152.4202, 1573.238
152.9024, 1513.714
153.3845, 1459.671
153.8666, 1425.871
154.3487, 1424.249
154.8308, 1417.246
155.3129, 1390.795
155.7950, 1355.944
156.2772, 1335.093
156.7593, 1353.541
157.2414, 1372.219
157.7235, 1371.239
158.2056, 1328.339
158.6877, 1293.140
159.1699, 1283.226
159.6520, 1293.385
160.1341, 1302.230
160.6162, 1299.370
161.0983, 1294.440
161.5804, 1294.643
162.0626, 1318.454
162.5447, 1333.622
163.0268, 1320.750
163.5089, 1281.456
163.9910, 1246.423
164.4731, 1231.638
164.9553, 1228.444
165.4374, 1226.700
165.9195, 1225.595
166.4016, 1222.353
166.8837, 1213.452
167.3658, 1197.679
167.8480, 1183.321
168.3301, 1172.828
168.8122, 1166.568
169.2943, 1167.243
169.7764, 1186.911
170.2585, 1211.212
170.7407, 1222.073
171.2228, 1215.703
171.7049, 1203.943
172.1870, 1188.821
172.6691, 1171.210
173.1512, 1159.496
173.6334, 1169.409
174.1155, 1187.153
174.5976, 1189.656
175.0797, 1167.496
175.5618, 1138.376
176.0439, 1118.383
176.5260, 1106.912
177.0082, 1081.915
177.4903, 1057.821
177.9724, 1034.500
178.4545, 1008.877
178.9366, 975.3833
179.4187, 940.8564
179.9009, 917.5762
180.3830, 905.4902
180.8651, 897.9741
181.3472, 891.4077
181.8293, 884.3452
182.3114, 872.9961
182.7936, 852.7603
183.2757, 827.3066
183.7578, 799.9370
184.2399, 770.1782
184.7220, 746.1362
185.2041, 741.8525
185.6863, 754.6934
186.1684, 767.0469
186.6505, 770.2544
187.1326, 765.6069
187.6147, 761.6060
188.0968, 760.1338
188.5790, 754.2393
189.0611, 725.3989
189.5432, 674.0415
190.0253, 630.4731
190.5074, 622.5425
190.9895, 644.6543
191.4717, 639.1348
191.9538, 591.7510
192.4359, 525.3525
192.9180, 492.8696
193.4001, 496.7627
193.8822, 507.2305
194.3644, 503.2417
194.8465, 485.3203
195.3286, 467.0874
195.8107, 449.7480
196.2928, 434.0557
196.7749, 425.6304
197.2570, 426.7593
197.7392, 424.0864
198.2213, 402.9189
198.7034, 361.4629
199.1855, 321.3301
199.6676, 282.9873
200.1497, 248.6826
200.6319, 239.8774
201.1140, 264.6597
201.5961, 292.8770
202.0782, 286.2842
202.5603, 238.4141
203.0424, 194.9741
203.5246, 169.6890
204.0067, 162.1553
204.4888, 161.8315
204.9709, 171.8379
205.4530, 182.9849
205.9352, 181.0376
206.4173, 162.9829
206.8994, 144.9673
207.3815, 133.3364
207.8636, 128.2891
208.3457, 124.5986
208.8279, 123.0366
209.3100, 122.2959
209.7921, 119.8042
210.2742, 114.8540
210.7563, 109.0630
211.2384, 105.3149
211.7206, 106.8501
212.2027, 95.86768
212.6848, 65.51172
213.1669, 26.23633
213.6490, 6.878906
214.1311, 15.08447
214.6133, 25.43945
215.0954, 24.08594
215.5775, 7.223633
216.0596, 7.244629
216.5417, 18.89893
217.0238, 27.36572
217.5059, 31.11035
217.9881, 27.15234
218.4702, 23.43018
218.9523, 24.98193
219.4344, 33.07959
219.9165, 43.00000
220.3986, 56.51611
220.8808, 71.88867
221.3629, 79.05176
221.8450, 73.63135
222.3271, 65.90674
222.8092, 64.05371
223.2913, 72.19482
223.7735, 76.93994
224.2556, 76.16895
224.7377, 70.26611
225.2198, 62.73633
225.7019, 51.55566
226.1840, 41.44238
226.6662, 36.78174
227.1483, 39.99512
227.6304, 44.37500
228.1125, 50.10400
228.5946, 57.23096
229.0767, 60.04980
229.5589, 55.76855
230.0410, 49.76172
230.5231, 47.94678
231.0052, 53.48682
231.4873, 57.04492
231.9694, 56.04736
232.4516, 49.68457
232.9337, 45.17334
233.4158, 41.99805
233.8979, 40.85547
234.3800, 43.07080
234.8621, 51.50049
235.3443, 57.85938
235.8264, 59.14551
236.3085, 53.84668
236.7906, 52.19873
237.2727, 56.38086
237.7548, 62.68994
238.2369, 66.86694
238.7191, 72.50171
239.2012, 69.89819
239.6833, 52.73584
240.1654, 13.49463
240.6475, 9.256348
241.1296, 7.159180
241.6118, 6.720703
242.0939, 9.775879
242.5760, 6.258789
243.0581, 19.82959
243.5402, 21.79395
244.0223, 5.292236
244.5045, 0.4765630
244.9866, 15.05200
245.4687, 37.76270
245.9508, 44.89868
246.4329, 24.16113
246.9150, 7.270996
247.3972, 8.508789
247.8793, 39.29980
248.3614, 56.96436
248.8435, 54.43213
249.3256, 41.25854
249.8077, 40.57373
250.2899, 58.99414
250.7720, 79.18848
251.2541, 93.98169
251.7362, 101.8914
252.2183, 107.1631
252.7004, 107.8440
253.1826, 106.3472
253.6647, 108.8914
254.1468, 115.4138
254.6289, 125.9124
255.1110, 141.3098
255.5931, 165.0217
256.0753, 185.3237
256.5574, 203.3640
257.0395, 217.6033
257.5216, 221.2351
258.0037, 206.0835
258.4858, 194.6455
258.9680, 202.3513
259.4501, 243.0166
259.9322, 262.5913
260.4143, 251.8726
260.8964, 220.5635
261.3785, 198.4221
261.8607, 184.0159
262.3428, 181.2195
262.8249, 196.3838
263.3070, 239.3904
263.7891, 267.0847
264.2712, 271.6814
264.7534, 260.5933
265.2355, 259.0632
265.7176, 271.8906
266.1997, 284.0024
266.6818, 283.5825
267.1639, 264.0503
267.6461, 258.9595
268.1282, 277.2222
268.6103, 309.4705
269.0924, 322.7737
269.5745, 311.2266
270.0566, 294.8132
270.5387, 283.1152
271.0208, 274.4697
271.5030, 280.6348
271.9851, 308.0715
272.4672, 348.6880
272.9493, 375.0117
273.4314, 384.0566
273.9135, 388.0903
274.3957, 395.8232
274.8778, 408.4595
275.3599, 414.9385
275.8420, 410.8203
276.3241, 402.0454
276.8062, 409.9775
277.2884, 438.7766
277.7705, 466.6145
278.2526, 477.7930
278.7347, 471.2900
279.2168, 461.5332
279.6989, 447.6848
280.1811, 434.4390
280.6632, 435.6294
281.1453, 452.4429
281.6274, 472.9207
282.1095, 490.5161
282.5916, 505.3962
283.0738, 516.1951
283.5559, 522.0212
284.0380, 524.4419
284.5201, 527.2744
285.0022, 530.2109
285.4843, 531.8284
285.9665, 529.6543
286.4486, 524.1907
286.9307, 523.1128
287.4128, 530.2720
287.8949, 539.8096
288.3770, 534.7192
288.8592, 514.5488
289.3413, 498.5757
289.8234, 505.1099
290.3055, 529.9895
290.7876, 548.1462
291.2697, 555.4343
291.7519, 555.9062
292.2340, 555.7632
292.7161, 554.6206
293.1982, 552.7388
293.6803, 549.4180
294.1624, 545.9800
294.6446, 545.3760
295.1267, 548.1311
295.6088, 552.1826
296.0909, 553.0552
296.5730, 551.3892
297.0551, 554.3159
297.5373, 575.6143
298.0194, 606.0110
298.5015, 618.7822
298.9836, 603.8594
299.4657, 580.0442
299.9478, 571.6826
300.4300, 577.4624
300.9121, 587.6929
301.3942, 598.6714
301.8763, 608.1218
302.3584, 614.1340
302.8405, 617.2859
303.3227, 619.8589
303.8048, 623.5564
304.2869, 626.3716
304.7690, 626.6089
305.2511, 620.1003
305.7332, 614.7886
306.2154, 617.7188
306.6975, 629.9585
307.1796, 645.1162
307.6617, 660.8303
308.1438, 676.9355
308.6259, 692.0442
309.1081, 699.3210
309.5901, 707.7544
310.0723, 727.7397
310.5544, 763.0144
311.0365, 796.1880
311.5186, 813.9836
312.0007, 822.8191
312.4828, 834.1707
312.9650, 853.0232
313.4471, 876.4763
313.9292, 906.3113
314.4113, 945.5435
314.8934, 973.4417
315.3755, 967.0356
315.8577, 945.5420
316.3398, 936.9785
316.8219, 959.8486
317.3040, 991.6963
317.7861, 1024.866
318.2682, 1059.391
318.7504, 1086.186
319.2325, 1096.814
319.7146, 1099.768
320.1967, 1105.182
320.6788, 1109.801
321.1609, 1122.994
321.6431, 1156.269
322.1252, 1213.758
322.6073, 1248.776
323.0894, 1229.191
323.5715, 1194.679
324.0536, 1180.193
324.5358, 1214.576
325.0179, 1245.647
325.5000, 1263.787
325.9821, 1269.171
326.4642, 1271.058
326.9464, 1270.707
327.4285, 1265.022
327.9106, 1251.468
328.3927, 1227.512
328.8748, 1199.003
329.3569, 1158.889
329.8391, 1110.149
330.3212, 1090.345
330.8033, 1123.929
331.2854, 1163.429
331.7675, 1177.226
332.2496, 1151.484
332.7318, 1124.246
333.2139, 1098.376
333.6960, 1074.587
334.1781, 1051.019
334.6602, 1022.966
335.1423, 1002.208
335.6245, 1000.184
336.1066, 1032.137
336.5887, 1038.402
337.0708, 1008.152
337.5529, 953.8496
338.0350, 911.3076
338.5172, 881.5972
338.9993, 860.1611
339.4814, 846.5215
339.9635, 841.2466
340.4456, 830.3359
340.9277, 812.7354
341.4099, 790.8960
341.8920, 766.6880
342.3741, 739.6636
342.8562, 715.7402
343.3383, 701.3281
343.8204, 694.3481
344.3026, 682.8730
344.7847, 668.4224
345.2668, 651.1147
345.7489, 628.4219
346.2310, 600.7959
346.7131, 575.4897
347.1953, 559.6211
347.6774, 548.6543
348.1595, 526.0952
348.6416, 491.0210
349.1237, 455.6587
349.6058, 434.9565
350.0880, 425.5068
350.5700, 416.2183
351.0522, 402.8491
351.5343, 387.4395
352.0164, 373.0640
352.4985, 359.7319
352.9806, 346.2524
353.4627, 330.6157
353.9449, 314.3013
354.4270, 299.6865
354.9091, 287.0312
355.3912, 276.5830
355.8733, 269.9194
356.3554, 266.3008
356.8376, 261.6729
357.3197, 249.6807
357.8018, 236.9941
358.2839, 231.4141
358.7660, 243.0093
359.2481, 249.5977
359.7303, 231.4023
360.2124, 197.4800
360.6945, 173.7148
361.1766, 186.8096
361.6587, 203.4404
362.1408, 200.2905
362.6230, 162.2339
363.1051, 130.4541
363.5872, 118.3984
364.0693, 120.6255
364.5514, 126.5024
365.0335, 144.4854
365.5157, 156.5356
365.9978, 153.1572
366.4799, 126.3110
366.9620, 107.1665
367.4441, 104.4473
367.9262, 109.0229
368.4084, 109.0557
368.8905, 102.7129
369.3726, 93.02051
369.8547, 77.26074
370.3368, 53.24707
370.8189, 42.71777
371.3011, 56.82324
371.7832, 74.88379
372.2653, 77.31885
372.7474, 55.58154
373.2295, 36.40918
373.7116, 25.34131
374.1938, 21.18359
374.6759, 13.13818
375.1580, 0.8081050
375.6401, 13.80664
376.1222, 20.50684
376.6043, 19.95801
377.0865, 18.06543
377.5686, 16.17529
378.0507, 12.61865
378.5328, 0.6938480
379.0149, 26.03369
379.4970, 43.83301
379.9792, 34.20361
380.4613, 0.9560550
380.9434, 12.36230
381.4255, 1.263672
381.9076, 23.39160
382.3897, 26.19873
382.8719, 11.67139
383.3540, 5.257324
383.8361, 21.65723
384.3182, 34.83350
384.8003, 36.50049
385.2824, 25.60547
385.7646, 12.98291
386.2467, 6.471191
386.7288, 5.923828
387.2109, 10.87939
387.6930, 29.01416
388.1751, 47.51221
388.6573, 53.24805
389.1394, 46.89014
389.6215, 35.70068
390.1036, 15.28711
390.5857, 3.818848
391.0678, 9.513184
391.5499, 15.32227
392.0320, 37.29688
392.5142, 32.89404
392.9963, 9.930176
393.4784, 6.040039
393.9605, 0.7958980
394.4426, 13.72266
394.9247, 22.59766
395.4069, 22.60547
395.8890, 25.24609
396.3711, 40.51367
396.8532, 59.16113
397.3353, 64.39062
397.8174, 41.12549
398.2996, 16.14160
398.7817, 5.851074
399.2638, 28.96338
399.7459, 31.36328
400.2280, 11.23389
400.7101, 60.20703
401.1923, 73.74756
401.6744, 28.84277
402.1565, 11.71387
402.6386, 37.90723
403.1207, 50.11523
403.6028, 52.29834
404.0850, 39.95312
404.5671, 25.68848
405.0492, 18.52197
405.5313, 19.08936
406.0134, 23.47998
406.4955, 31.50684
406.9777, 42.77295
407.4598, 57.42041
407.9419, 76.04102
408.4240, 93.34277
408.9061, 104.5879
409.3882, 111.1387
409.8704, 121.7002
410.3525, 137.6421
410.8346, 154.6753
411.3167, 167.7686
411.7988, 177.3774
412.2809, 185.1650
412.7631, 185.1069
413.2452, 186.2876
413.7273, 209.2515
414.2094, 254.1230
414.6915, 294.8682
415.1736, 301.9834
415.6558, 292.7930
416.1379, 293.7295
416.6200, 319.5601
417.1021, 350.9712
417.5842, 375.8638
418.0663, 395.4043
418.5485, 414.0127
419.0306, 425.1743
419.5127, 441.8774
419.9948, 476.7412
420.4769, 544.7798
420.9590, 602.6704
421.4412, 629.2227
421.9233, 638.4751
422.4054, 657.1694
422.8875, 696.2231
423.3696, 739.9214
423.8517, 783.7339
424.3339, 826.7944
424.8160, 870.2739
425.2981, 913.4062
425.7802, 956.9692
426.2623, 1001.988
426.7444, 1046.411
427.2266, 1095.567
427.7087, 1153.009
428.1908, 1216.614
428.6729, 1274.702
429.1550, 1322.368
429.6371, 1375.050
430.1193, 1444.823
430.6014, 1534.338
431.0835, 1620.502
431.5656, 1701.969
432.0477, 1778.413
432.5298, 1844.290
433.0119, 1898.799
433.4940, 1960.996
433.9762, 2047.782
434.4583, 2151.243
434.9404, 2237.338
435.4225, 2303.446
435.9046, 2370.984
436.3867, 2461.238
436.8689, 2569.910
437.3510, 2686.127
437.8331, 2814.323
438.3152, 2940.588
438.7973, 3046.697
439.2794, 3137.119
439.7616, 3229.184
440.2437, 3325.812
440.7258, 3431.724
441.2079, 3553.331
441.6900, 3701.442
442.1721, 3843.508
442.6543, 3962.813
443.1364, 4067.111
443.6185, 4170.316
444.1006, 4269.014
444.5827, 4372.000
445.0648, 4485.201
445.5470, 4610.714
446.0291, 4731.718
446.5112, 4847.794
446.9933, 4959.463
447.4754, 5068.678
447.9576, 5176.614
448.4397, 5279.843
448.9218, 5376.621
449.4039, 5466.590
449.8860, 5546.380
450.3681, 5607.875
450.8503, 5676.885
451.3324, 5770.764
451.8145, 5894.811
452.2966, 6005.720
452.7787, 6102.051
453.2608, 6186.918
453.7430, 6266.457
454.2251, 6339.526
454.7072, 6404.493
455.1893, 6460.803
455.6714, 6511.075
456.1535, 6559.426
456.6357, 6605.288
457.1178, 6647.512
457.5999, 6684.619
458.0820, 6717.248
458.5641, 6742.046
459.0462, 6751.940
459.5284, 6771.572
460.0105, 6827.630
460.4926, 6910.799
460.9747, 6993.027
461.4568, 7063.525
461.9389, 7124.973
462.4211, 7175.851
462.9032, 7212.958
463.3853, 7255.937
463.8674, 7320.313
464.3495, 7391.950
464.8316, 7454.296
465.3138, 7490.513
465.7959, 7530.611
466.2780, 7582.678
466.7601, 7646.446
467.2422, 7710.944
467.7243, 7776.785
468.2065, 7843.827
468.6886, 7913.307
469.1707, 7988.139
469.6528, 8059.987
470.1349, 8128.354
470.6170, 8194.154
471.0992, 8259.824
471.5813, 8327.321
472.0634, 8388.760
472.5455, 8442.773
473.0276, 8489.059
473.5097, 8522.833
473.9918, 8542.793
474.4739, 8558.325
474.9561, 8582.534
475.4382, 8611.552
475.9203, 8627.340
476.4024, 8626.588
476.8845, 8610.114
477.3666, 8579.776
477.8488, 8534.938
478.3309, 8473.229
478.8130, 8386.296
479.2951, 8285.103
479.7772, 8181.185
480.2593, 8075.455
480.7415, 7963.371
481.2236, 7842.118
481.7057, 7713.010
482.1878, 7577.630
482.6699, 7450.188
483.1520, 7301.630
483.6342, 7107.721
484.1163, 6876.974
484.5984, 6668.792
485.0805, 6517.340
485.5626, 6370.832
486.0447, 6203.516
486.5269, 6003.494
487.0090, 5807.513
487.4911, 5619.801
487.9732, 5437.179
488.4553, 5250.708
488.9374, 5060.013
489.4196, 4867.893
489.9017, 4668.787
490.3838, 4469.448
490.8659, 4306.752
491.3480, 4187.768
491.8301, 4071.604
492.3123, 3919.432
492.7944, 3739.735
493.2765, 3570.082
493.7586, 3417.142
494.2407, 3276.025
494.7228, 3142.172
495.2050, 3014.576
495.6871, 2896.534
496.1692, 2790.600
496.6513, 2692.627
497.1334, 2601.257
497.6155, 2516.563
498.0977, 2423.731
498.5798, 2304.055
499.0619, 2178.771
499.5440, 2069.377
500.0261, 1985.351
500.5082, 1905.703
500.9904, 1828.722
501.4725, 1753.808
501.9546, 1678.876
502.4367, 1603.873
502.9188, 1528.334
503.4009, 1448.387
503.8831, 1360.548
504.3652, 1293.728
504.8473, 1260.387
505.3294, 1234.793
505.8115, 1192.054
506.2936, 1125.423
506.7758, 1066.723
507.2579, 1020.198
507.7400, 981.1104
508.2221, 944.3330
508.7042, 911.2910
509.1863, 874.9395
509.6685, 826.9199
510.1506, 771.4053
510.6327, 720.5996
511.1148, 674.3428
511.5969, 636.3809
512.0790, 620.0254
512.5612, 613.0479
513.0433, 593.0288
513.5254, 546.2158
514.0075, 495.4790
514.4896, 454.7979
514.9717, 423.3389
515.4539, 397.7671
515.9360, 378.4224
516.4181, 362.9619
516.9002, 351.1211
517.3823, 343.8164
517.8644, 335.0420
518.3466, 322.2993
518.8287, 308.1699
519.3108, 295.1636
519.7929, 283.9600
520.2750, 272.5806
520.7571, 260.6162
521.2393, 248.4927
521.7214, 238.1338
522.2035, 231.9517
522.6856, 220.9878
523.1677, 197.6362
523.6498, 162.6938
524.1320, 139.3560
524.6141, 129.2422
525.0962, 124.2109
525.5783, 115.6411
526.0604, 104.0742
526.5425, 91.18311
527.0247, 75.42920
527.5068, 62.31006
527.9889, 63.31348
528.4710, 73.37646
528.9531, 77.65625
529.4352, 60.01318
529.9174, 39.04102
530.3995, 30.16064
530.8816, 35.71582
531.3637, 41.84326
531.8458, 44.75830
532.3279, 45.04443
532.8101, 43.24902
533.2922, 35.11865
533.7743, 29.60645
534.2564, 28.27100
534.7385, 30.14062
535.2206, 32.95898
535.7027, 38.63672
536.1848, 42.04785
536.6669, 41.28320
537.1490, 36.28809
537.6312, 28.22168
538.1133, 15.33838
538.5954, 4.554688
539.0775, 6.593750
539.5596, 19.63184
540.0417, 20.62598
540.5239, 1.595703
541.0060, 22.41528
541.4881, 25.93921
541.9702, 13.71289
542.4523, 3.799072
542.9344, 8.684814
543.4166, 18.05396
543.8987, 19.72852
544.3808, 14.45288
544.8629, 14.14868
545.3450, 33.33081
545.8271, 55.75049
546.3093, 67.72876
546.7914, 60.42261
547.2735, 52.53516
547.7556, 47.51074
548.2377, 44.23364
548.7198, 40.82129
549.2020, 37.49194
549.6841, 33.78662
550.1662, 29.53345
550.6483, 24.80005
551.1304, 22.28784
551.6125, 26.36426
552.0947, 21.60327
552.5768, 12.26807
553.0589, 74.40283
553.5410, 103.7883
554.0231, 91.84766
554.5052, 61.10229
554.9874, 37.08276
555.4695, 19.16870
555.9516, 4.990967
556.4337, 9.499023
556.9158, 17.54150
557.3979, 3.579102
557.8801, 26.54614
558.3622, 46.00928
558.8443, 29.73169
559.3264, 5.152100
559.8085, 8.229980
560.2906, 6.303467
560.7728, 1.556641
561.2549, 9.675049
561.7370, 19.14282
562.2191, 18.05542
562.7012, 5.188477
563.1833, 22.36279
563.6655, 32.53931
564.1476, 35.22314
564.6297, 26.28833
565.1118, 0.7756350
565.5939, 19.97070
566.0760, 16.24072
566.5582, 7.515625
567.0403, 21.50684
567.5224, 25.23682
568.0045, 22.45972
568.4866, 14.80591
568.9688, 3.294922
569.4509, 10.29614
569.9330, 27.29492
570.4151, 41.41284
570.8972, 43.59351
571.3793, 38.27246
571.8615, 34.39355
572.3436, 35.01758
572.8257, 38.65405
573.3078, 46.27368
573.7899, 57.29395
574.2720, 65.42383
574.7542, 66.61304
575.2363, 66.54858
575.7184, 67.73022
576.2005, 68.78638
576.6826, 75.57227
577.1647, 93.93066
577.6469, 112.3826
578.1290, 115.0901
578.6111, 99.30371
579.0932, 83.21387
579.5753, 69.37085
580.0574, 58.92554
580.5396, 56.66626
581.0217, 62.00317
581.5038, 65.93335
581.9859, 55.61060
582.4680, 43.53052
582.9501, 58.25610
583.4323, 100.0698
583.9144, 130.9851
584.3965, 112.1152
584.8786, 76.38013
585.3607, 58.78955
585.8428, 78.19092
586.3250, 95.83130
586.8071, 93.82495
587.2892, 83.01782
587.7713, 81.79688
588.2534, 111.5146
588.7355, 128.5610
589.2177, 119.5410
589.6998, 88.97070
590.1819, 71.39258
590.6640, 69.75415
591.1461, 74.00049
