##NAMES=Chalcanthite
##RRUFFID=R050293
##IDEAL CHEMISTRY=CuSO_4_&#183;5H_2_O
##LOCALITY=79 mine, 4th level, Hayden, Gila County, Arizona, USA
##OWNER=RRUFF
##SOURCE=George Godas, John Callahan
##DESCRIPTION=Blue fibrous crust
##STATUS=The identification of this mineral has been confirmed by X-ray diffraction and chemical analysis
##URL=rruff.info/R050293
##MEASURED CHEMISTRY=Cu_1.00_S_1.00_O_4_Â·5H_2_O
128.9944, 0.0000000E+00
129.4765, 0.1619260
129.9586, 1.313354
130.4407, 4.779968
130.9229, 9.705933
131.4050, 15.25403
131.8871, 21.38855
132.3692, 27.60388
132.8513, 32.36603
133.3334, 34.91525
133.8156, 35.67792
134.2977, 36.98291
134.7798, 40.07260
135.2619, 41.91492
135.7440, 41.51816
136.2261, 39.38052
136.7083, 37.77295
137.1904, 36.77072
137.6725, 36.02872
138.1546, 35.24115
138.6367, 34.48102
139.1188, 33.24014
139.6010, 31.10480
140.0831, 28.09888
140.5652, 26.00766
141.0473, 24.91699
141.5294, 24.43488
142.0115, 24.17670
142.4937, 24.35126
142.9758, 24.22659
143.4579, 23.54639
143.9400, 22.43408
144.4221, 21.16269
144.9042, 19.68866
145.3864, 18.32562
145.8685, 17.99835
146.3506, 17.49078
146.8327, 17.32593
147.3148, 17.97855
147.7969, 18.27930
148.2791, 18.75827
148.7612, 20.05481
149.2433, 21.46591
149.7254, 21.66916
150.2075, 20.66913
150.6896, 19.87061
151.1718, 19.22757
151.6539, 20.81235
152.1360, 21.47964
152.6181, 20.86182
153.1002, 19.79041
153.5823, 19.08469
154.0645, 19.68942
154.5466, 20.14111
155.0287, 19.72125
155.5108, 17.41959
155.9929, 15.33423
156.4750, 14.22037
156.9572, 13.71811
157.4393, 12.38324
157.9214, 8.286987
158.4035, 4.227814
158.8856, 1.933624
159.3677, 3.669373
159.8499, 5.306396
160.3320, 5.760529
160.8141, 5.148041
161.2962, 4.098297
161.7783, 2.022400
162.2604, 9.7350003E-03
162.7426, 1.115967
163.2247, 0.1581730
163.7068, 1.365112
164.1889, 1.114624
164.6710, 0.4798890
165.1531, 1.715637
165.6353, 1.339996
166.1174, 0.3137510
166.5995, 0.3285520
167.0816, 7.4127004E-02
167.5637, 0.7670900
168.0458, 1.386444
168.5280, 1.919006
169.0101, 2.225006
169.4922, 1.803375
169.9743, 1.175751
170.4564, 1.074432
170.9385, 2.694397
171.4207, 4.435272
171.9028, 4.621796
172.3849, 3.125305
172.8670, 1.557800
173.3491, 1.335236
173.8312, 1.912445
174.3134, 2.248260
174.7955, 1.495758
175.2776, 0.4102480
175.7597, 2.8107001E-02
176.2418, 0.2898560
176.7239, 0.7137150
177.2061, 0.7911380
177.6882, 0.5177610
178.1703, 0.1140440
178.6524, 1.493011
179.1345, 3.145569
179.6166, 4.163391
180.0988, 4.422516
180.5809, 4.515778
181.0630, 5.251007
181.5451, 6.460144
182.0272, 7.429108
182.5093, 7.440002
182.9915, 6.962463
183.4736, 7.155457
183.9557, 8.156830
184.4378, 9.609192
184.9199, 11.34470
185.4020, 13.25125
185.8842, 14.77039
186.3663, 15.36658
186.8484, 15.38525
187.3305, 15.44897
187.8126, 15.51895
188.2947, 15.89578
188.7769, 17.24222
189.2590, 19.51718
189.7411, 21.87372
190.2232, 23.90768
190.7053, 25.63501
191.1874, 27.19315
191.6696, 28.59457
192.1517, 29.86411
192.6338, 30.89441
193.1159, 31.66418
193.5980, 32.76517
194.0801, 34.84842
194.5623, 37.80255
195.0444, 40.16119
195.5265, 41.74249
196.0086, 42.70984
196.4907, 42.98822
196.9728, 42.39719
197.4550, 42.59357
197.9371, 45.55194
198.4192, 51.35675
198.9013, 54.26788
199.3834, 53.04025
199.8655, 49.42868
200.3477, 47.72385
200.8298, 48.25473
201.3119, 49.24719
201.7940, 49.64594
202.2761, 49.39490
202.7582, 49.19159
203.2404, 49.03540
203.7225, 49.00992
204.2046, 49.46231
204.6867, 50.54556
205.1688, 51.59210
205.6509, 52.05185
206.1331, 51.76971
206.6152, 52.01770
207.0973, 53.16302
207.5794, 54.77646
208.0615, 55.38342
208.5436, 54.62753
209.0258, 53.80731
209.5079, 53.85907
209.9900, 55.06897
210.4721, 55.81555
210.9542, 55.96906
211.4363, 55.56824
211.9185, 54.55902
212.4006, 52.52066
212.8827, 50.76767
213.3648, 50.41278
213.8469, 52.11841
214.3290, 52.65820
214.8112, 51.29727
215.2933, 48.70386
215.7754, 47.35818
216.2575, 47.84866
216.7396, 48.41998
217.2217, 47.99191
217.7038, 46.12720
218.1860, 44.54825
218.6681, 43.36267
219.1502, 42.54471
219.6323, 42.09045
220.1144, 42.18863
220.5965, 42.21237
221.0787, 41.81732
221.5608, 40.46039
222.0429, 40.04431
222.5250, 40.97583
223.0071, 42.82874
223.4892, 44.13828
223.9714, 44.95856
224.4535, 45.26608
224.9356, 44.75153
225.4177, 42.43314
225.8998, 41.71292
226.3819, 43.36194
226.8641, 46.67126
227.3462, 49.10577
227.8283, 50.25330
228.3104, 51.14758
228.7925, 52.17502
229.2746, 53.35074
229.7568, 54.70166
230.2389, 56.16501
230.7210, 57.94562
231.2031, 60.68457
231.6852, 65.08749
232.1673, 69.28436
232.6495, 72.27405
233.1316, 73.22403
233.6137, 74.81201
234.0958, 76.87665
234.5779, 79.57712
235.0600, 83.58350
235.5422, 90.18344
236.0243, 96.36734
236.5064, 100.6244
236.9885, 101.7070
237.4706, 103.6079
237.9527, 106.5256
238.4349, 110.1939
238.9170, 113.8836
239.3991, 117.3349
239.8812, 121.1700
240.3633, 125.8275
240.8454, 132.0687
241.3276, 137.2466
241.8097, 141.0628
242.2918, 143.8510
242.7739, 146.1746
243.2560, 147.4500
243.7381, 149.3235
244.2203, 152.5284
244.7024, 157.8654
245.1845, 162.0196
245.6666, 164.8817
246.1487, 166.8102
246.6308, 168.3622
247.1130, 169.3996
247.5951, 169.9889
248.0772, 170.2777
248.5593, 170.4200
249.0414, 170.1547
249.5235, 169.3020
250.0057, 167.9316
250.4878, 166.1402
250.9699, 163.5387
251.4520, 161.3639
251.9341, 160.2246
252.4162, 160.5518
252.8984, 159.3604
253.3805, 155.9044
253.8626, 151.5417
254.3447, 148.3734
254.8268, 146.7820
255.3089, 145.5414
255.7911, 144.4487
256.2732, 143.5959
256.7553, 142.1116
257.2374, 139.7789
257.7195, 137.0477
258.2017, 134.3575
258.6838, 131.4297
259.1659, 129.1792
259.6480, 128.1011
260.1301, 128.2834
260.6122, 127.4874
261.0944, 125.3462
261.5765, 122.6729
262.0586, 120.2831
262.5407, 118.2198
263.0228, 116.3437
263.5049, 114.6585
263.9871, 113.1500
264.4692, 111.7965
264.9513, 110.6247
265.4334, 109.5512
265.9155, 108.4724
266.3976, 107.3846
266.8798, 106.3784
267.3619, 105.5341
267.8440, 104.8042
268.3261, 103.7735
268.8082, 102.2225
269.2903, 100.8317
269.7725, 100.3140
270.2546, 100.9435
270.7367, 101.1708
271.2188, 100.6421
271.7009, 99.57089
272.1830, 98.84250
272.6652, 98.50562
273.1473, 98.38751
273.6294, 98.43951
274.1115, 98.71191
274.5936, 98.84866
275.0757, 98.85324
275.5579, 98.67194
276.0400, 98.11597
276.5221, 97.13339
277.0042, 95.97275
277.4863, 94.87381
277.9684, 93.87866
278.4506, 92.26450
278.9327, 89.80319
279.4148, 86.92712
279.8969, 84.61929
280.3790, 82.97159
280.8611, 81.27139
281.3433, 79.14728
281.8254, 76.59351
282.3075, 73.99414
282.7896, 71.41553
283.2717, 68.65137
283.7538, 65.19870
284.2360, 61.02640
284.7181, 57.01733
285.2002, 53.59799
285.6823, 50.71512
286.1644, 47.90051
286.6465, 45.20422
287.1287, 42.57025
287.6108, 39.97629
288.0929, 37.43387
288.5750, 34.81516
289.0571, 31.91992
289.5392, 28.94049
290.0214, 26.70120
290.5035, 25.23074
290.9856, 23.95627
291.4677, 22.60025
291.9498, 21.15042
292.4319, 19.24966
292.9141, 16.46057
293.3962, 13.37021
293.8783, 11.31866
294.3604, 10.30490
294.8425, 9.435455
295.3246, 7.636292
295.8068, 5.288025
296.2889, 3.759399
296.7710, 3.655151
297.2531, 4.175537
297.7352, 4.055664
298.2173, 3.354919
298.6995, 2.564392
299.1816, 2.166199
299.6637, 1.923737
300.1458, 1.227325
300.6279, 0.2874450
301.1100, 1.752838
301.5922, 1.744537
302.0743, 0.6149900
302.5564, 0.2191770
303.0385, 0.7163700
303.5206, 2.260651
304.0027, 2.488312
304.4849, 0.8350520
304.9670, 0.8110660
305.4491, 0.2450260
305.9312, 1.767822
306.4133, 3.392029
306.8954, 3.235565
307.3776, 2.493561
307.8597, 2.513184
308.3418, 3.456116
308.8239, 4.206848
309.3060, 3.729736
309.7881, 2.540222
310.2703, 1.476013
310.7524, 0.8710940
311.2345, 0.4975590
311.7166, 0.3295290
312.1987, 0.3482060
312.6808, 0.1903990
313.1630, 0.4602050
313.6451, 1.353149
314.1272, 2.225250
314.6093, 2.898682
315.0914, 3.596252
315.5735, 4.611206
316.0557, 5.820801
316.5378, 6.604401
317.0199, 6.068542
317.5020, 5.408417
317.9841, 5.556580
318.4662, 7.384796
318.9484, 9.052826
319.4305, 9.829041
319.9126, 10.00424
320.3947, 10.35831
320.8768, 11.17972
321.3589, 12.12241
321.8411, 13.11768
322.3232, 14.38467
322.8053, 15.26236
323.2874, 15.35046
323.7695, 15.03366
324.2516, 14.90106
324.7338, 14.94284
325.2159, 15.27213
325.6980, 16.08173
326.1801, 17.59674
326.6622, 18.62546
327.1443, 19.14941
327.6265, 19.10788
328.1086, 18.43326
328.5907, 15.58969
329.0728, 13.91415
329.5549, 14.50519
330.0370, 17.37576
330.5192, 18.96793
331.0013, 18.71283
331.4834, 17.71140
331.9655, 16.65512
332.4476, 15.28638
332.9297, 14.32358
333.4119, 14.03473
333.8940, 14.22092
334.3761, 13.98746
334.8582, 13.12451
335.3403, 12.17249
335.8224, 11.40152
336.3046, 10.86063
336.7867, 10.35062
337.2688, 9.907288
337.7509, 9.456116
338.2330, 8.804443
338.7151, 7.876801
339.1973, 6.999939
339.6794, 6.356171
340.1615, 5.973267
340.6436, 5.294922
341.1257, 4.216309
341.6078, 3.098511
342.0899, 2.487244
342.5721, 2.439850
343.0542, 2.260559
343.5363, 1.593475
344.0184, 0.6510310
344.5005, 0.5358580
344.9826, 1.366455
345.4648, 2.167633
345.9469, 1.837067
346.4290, 0.5384830
346.9111, 0.4772340
347.3932, 1.100494
347.8753, 1.167236
348.3575, 0.2503360
348.8396, 2.965942
349.3217, 4.961731
349.8038, 4.082855
350.2859, 1.479309
350.7680, 2.8690000E-03
351.2502, 0.1039120
351.7323, 0.8896180
352.2144, 1.660522
352.6965, 2.339661
353.1786, 2.664307
353.6607, 1.815216
354.1429, 0.8530880
354.6250, 1.421082
355.1071, 3.643616
355.5892, 5.825043
356.0713, 6.800354
356.5534, 6.861725
357.0356, 6.436005
357.5177, 5.030457
357.9998, 3.732239
358.4819, 3.433594
358.9640, 3.957031
359.4461, 4.554901
359.9283, 4.707458
360.4104, 4.874146
360.8925, 5.436493
361.3746, 7.027740
361.8567, 8.086700
362.3388, 7.403412
362.8210, 5.779846
363.3031, 4.948029
363.7852, 6.278076
364.2673, 7.730011
364.7494, 8.530426
365.2315, 8.607269
365.7137, 8.073181
366.1958, 6.104919
366.6779, 3.773407
367.1600, 2.388184
367.6421, 3.195496
368.1242, 3.897522
368.6064, 3.918640
369.0885, 3.198181
369.5706, 2.619446
370.0527, 2.269226
370.5348, 1.986755
371.0169, 1.697479
371.4991, 1.451752
371.9812, 1.073517
372.4633, 0.3361210
372.9454, 0.5491640
373.4275, 0.7567140
373.9096, 7.2388001E-02
374.3918, 0.9507140
374.8739, 1.512634
375.3560, 1.862122
375.8381, 1.352264
376.3202, 0.4036870
376.8023, 2.514343
377.2845, 3.656128
377.7666, 3.760834
378.2487, 3.183228
378.7308, 1.687286
379.2129, 0.4827580
379.6950, 1.385864
380.1772, 0.8722530
380.6593, 9.9274002E-02
381.1414, 0.7067870
381.6235, 0.9796750
382.1056, 1.215729
382.5877, 1.461304
383.0699, 1.717224
383.5520, 2.067169
384.0341, 2.486023
384.5162, 2.713287
384.9983, 2.370087
385.4804, 1.743317
385.9626, 1.548737
386.4447, 1.942932
386.9268, 2.307648
387.4089, 1.935364
387.8910, 1.049072
388.3731, 0.1597900
388.8553, 0.6190490
389.3374, 1.224182
389.8195, 1.413330
390.3016, 1.220001
390.7837, 1.255554
391.2658, 2.170746
391.7480, 3.396179
392.2301, 4.292664
392.7122, 4.153687
393.1943, 4.394012
393.6764, 6.154968
394.1585, 8.897766
394.6407, 11.04736
395.1228, 11.82962
395.6049, 12.09790
396.0870, 12.04919
396.5691, 11.30869
397.0512, 11.58102
397.5334, 13.95572
398.0155, 17.28073
398.4976, 20.07718
398.9797, 21.50693
399.4618, 23.15576
399.9439, 25.38998
400.4261, 28.20184
400.9082, 30.93579
401.3903, 33.52536
401.8724, 36.05328
402.3545, 38.65536
402.8366, 41.52954
403.3188, 44.01382
403.8009, 45.77686
404.2830, 47.20712
404.7651, 49.45782
405.2472, 52.78574
405.7293, 56.23721
406.2115, 59.53290
406.6936, 62.60950
407.1757, 65.49539
407.6578, 68.08026
408.1399, 70.80319
408.6220, 74.43759
409.1042, 79.01004
409.5863, 83.01053
410.0684, 85.72766
410.5505, 87.80063
411.0326, 90.92548
411.5147, 95.10040
411.9969, 99.69705
412.4790, 104.5408
412.9611, 109.5351
413.4432, 114.3426
413.9253, 118.9174
414.4074, 123.5226
414.8896, 128.5586
415.3717, 133.8694
415.8538, 139.0562
416.3359, 143.9563
416.8180, 148.5885
417.3001, 152.8288
417.7823, 156.7365
418.2644, 160.4747
418.7465, 164.0952
419.2286, 167.7065
419.7107, 171.3603
420.1928, 175.0481
420.6750, 178.8644
421.1571, 183.0656
421.6392, 187.4578
422.1213, 191.4309
422.6034, 195.0204
423.0855, 197.9813
423.5677, 200.0012
424.0498, 200.5799
424.5319, 201.9092
425.0140, 204.7252
425.4961, 208.1291
425.9782, 211.2682
426.4604, 214.6010
426.9425, 216.9829
427.4246, 217.8379
427.9067, 217.4714
428.3888, 218.0002
428.8709, 219.8230
429.3531, 221.8328
429.8352, 223.5092
430.3173, 224.8410
430.7994, 225.5961
431.2815, 225.4834
431.7636, 225.2779
432.2458, 226.4202
432.7279, 229.0013
433.2100, 231.2253
433.6921, 232.2002
434.1742, 232.3537
434.6563, 233.2302
435.1385, 234.8736
435.6206, 236.8542
436.1027, 239.0493
436.5848, 241.3390
437.0669, 243.2895
437.5490, 244.7574
438.0312, 245.8918
438.5133, 246.5815
438.9954, 247.0463
439.4775, 247.9161
439.9596, 250.2507
440.4417, 252.6807
440.9239, 253.6383
441.4060, 253.0348
441.8881, 252.8332
442.3702, 254.5697
442.8523, 257.0917
443.3344, 259.2990
443.8166, 260.8969
444.2987, 262.0784
444.7808, 262.6781
445.2629, 262.8951
445.7450, 263.2659
446.2271, 264.2140
446.7093, 265.0045
447.1914, 265.3021
447.6735, 264.9057
448.1556, 264.6090
448.6377, 264.3485
449.1198, 264.2295
449.6020, 264.3875
450.0841, 264.9693
450.5662, 265.5019
451.0483, 265.8007
451.5304, 266.0065
452.0125, 266.8230
452.4947, 268.4504
452.9768, 270.0884
453.4589, 271.2511
453.9410, 271.9290
454.4231, 272.7655
454.9052, 273.8329
455.3874, 274.8852
455.8695, 275.6574
456.3516, 276.1535
456.8337, 276.3445
457.3158, 275.8607
457.7979, 275.3717
458.2801, 276.4798
458.7622, 278.9495
459.2443, 281.1109
459.7264, 281.4639
460.2085, 280.9975
460.6906, 280.9885
461.1728, 281.6757
461.6549, 282.6060
462.1370, 283.5145
462.6191, 284.4477
463.1012, 285.4575
463.5833, 286.6064
464.0655, 287.8005
464.5476, 289.5000
465.0297, 291.4944
465.5118, 292.0900
465.9939, 289.7085
466.4760, 286.6470
466.9582, 284.1193
467.4403, 282.2744
467.9224, 280.5730
468.4045, 280.1702
468.8866, 279.5215
469.3687, 276.1826
469.8509, 268.9670
470.3330, 261.1945
470.8151, 253.3141
471.2972, 245.3753
471.7793, 238.5297
472.2614, 233.3393
472.7436, 227.8392
473.2257, 219.8195
473.7078, 209.0556
474.1899, 200.9609
474.6720, 196.5145
475.1541, 193.4143
475.6363, 187.9204
476.1184, 180.3007
476.6005, 172.8906
477.0826, 166.9752
477.5647, 161.7963
478.0468, 155.8625
478.5290, 149.2428
479.0111, 142.6741
479.4932, 136.7689
479.9753, 131.2749
480.4574, 125.7167
480.9395, 119.7478
481.4217, 114.1288
481.9038, 109.8878
482.3859, 106.4420
482.8680, 102.9534
483.3501, 98.84869
483.8322, 94.90070
484.3144, 91.85446
484.7965, 89.61725
485.2786, 86.12115
485.7607, 79.22369
486.2428, 72.38077
486.7249, 67.38440
487.2071, 65.42377
487.6892, 62.87372
488.1713, 59.32681
488.6534, 55.50366
489.1355, 52.42636
489.6176, 50.29471
490.0998, 48.38925
490.5819, 46.62646
491.0640, 44.89059
491.5461, 42.67368
492.0282, 39.92673
492.5103, 37.07031
492.9925, 34.24487
493.4746, 31.50180
493.9567, 29.37030
494.4388, 27.89215
494.9209, 26.78622
495.4030, 25.96802
495.8852, 25.25882
496.3673, 24.16275
496.8494, 22.13663
497.3315, 19.98624
497.8136, 18.40030
498.2957, 17.32126
498.7779, 16.60181
499.2600, 16.66025
499.7421, 16.68924
500.2242, 16.04764
500.7063, 14.49728
501.1884, 12.98450
501.6706, 11.67294
502.1527, 10.60858
502.6348, 9.866302
503.1169, 9.909027
503.5990, 9.743317
504.0811, 9.155457
504.5633, 8.280792
505.0454, 7.611206
505.5275, 7.302399
506.0096, 6.948456
506.4917, 6.270691
506.9738, 5.181610
507.4560, 4.891632
507.9381, 5.672607
508.4202, 6.514465
508.9023, 6.256439
509.3844, 4.963593
509.8665, 3.751709
510.3487, 2.800995
510.8308, 2.073761
511.3129, 1.448212
511.7950, 0.9684140
512.2772, 0.8347780
512.7593, 1.610596
513.2414, 2.549194
513.7235, 2.672699
514.2056, 1.989014
514.6877, 1.160004
515.1699, 0.3263850
515.6520, 0.3154910
516.1341, 0.5387570
516.6162, 4.9743999E-02
517.0983, 0.3703610
517.5804, 0.3883970
518.0626, 0.1849980
518.5447, 5.8533002E-02
519.0268, 0.1798100
519.5089, 0.2433470
519.9910, 0.1611330
520.4731, 5.7677999E-02
520.9553, 0.2408750
521.4374, 0.3217770
521.9195, 0.4561460
522.4016, 0.7159120
522.8837, 1.085938
523.3658, 1.722961
523.8480, 2.811127
524.3301, 3.768158
524.8122, 3.545074
525.2943, 2.230774
525.7764, 1.341248
526.2585, 1.438354
526.7407, 2.007538
527.2228, 2.201752
527.7049, 2.043976
528.1870, 1.671814
528.6691, 0.7383420
529.1512, 0.1422120
529.6334, 2.9541001E-02
530.1155, 1.370392
530.5976, 2.341187
531.0797, 1.467957
531.5618, 4.9164001E-02
532.0439, 0.5792850
532.5261, 0.8165890
533.0082, 1.732758
533.4903, 1.052948
533.9724, 0.4866030
534.4545, 1.319733
534.9366, 0.6807250
535.4188, 4.5074001E-02
535.9009, 0.1809080
536.3830, 1.1230000E-02
536.8651, 0.2860110
537.3472, 1.360138
537.8293, 2.167358
538.3115, 1.724335
538.7936, 0.1170960
539.2757, 1.070221
539.7578, 0.8844600
540.2399, 0.1972050
540.7220, 0.1875000
541.2042, 0.3204350
541.6863, 0.5573120
542.1684, 1.164703
542.6505, 1.752472
543.1326, 1.714050
543.6147, 1.158386
544.0969, 0.4885250
544.5790, 0.1195370
545.0611, 0.6887210
545.5432, 1.297272
546.0253, 1.960815
546.5074, 2.383179
546.9896, 2.083313
547.4717, 1.686737
547.9538, 1.707153
548.4359, 2.696838
548.9180, 3.469086
549.4001, 3.552124
549.8823, 3.484253
550.3644, 4.307800
550.8465, 6.954285
551.3286, 8.723236
551.8107, 8.689301
552.2928, 7.140747
552.7750, 6.233032
553.2571, 6.059906
553.7392, 6.039307
554.2213, 5.542206
554.7034, 4.779327
555.1855, 5.210266
555.6677, 7.048523
556.1498, 8.985718
556.6319, 9.475525
557.1140, 9.046814
557.5961, 8.762634
558.0782, 8.913574
558.5604, 9.320282
559.0425, 9.964020
559.5246, 10.75070
560.0067, 11.46973
560.4888, 12.17410
560.9709, 12.65897
561.4531, 12.62415
561.9352, 12.07172
562.4173, 11.98218
562.8994, 12.77435
563.3815, 13.83905
563.8636, 14.95526
564.3458, 16.34613
564.8279, 17.08118
565.3100, 16.77725
565.7921, 16.31335
566.2742, 17.02081
566.7563, 19.07474
567.2385, 20.56461
567.7206, 20.89166
568.2027, 20.65823
568.6848, 21.21689
569.1669, 22.47284
569.6490, 23.67172
570.1312, 24.10300
570.6133, 24.38577
571.0954, 25.63242
571.5775, 27.80362
572.0596, 29.73181
572.5417, 30.50287
573.0239, 30.81827
573.5060, 31.19418
573.9881, 31.59988
574.4702, 32.44443
574.9523, 34.30670
575.4344, 36.49982
575.9166, 38.13150
576.3987, 38.60028
576.8808, 39.26053
577.3629, 40.27039
577.8450, 41.57599
578.3271, 43.04108
578.8093, 44.71677
579.2914, 46.35031
579.7735, 47.75247
580.2556, 48.95410
580.7377, 50.55344
581.2198, 52.57578
581.7020, 54.36081
582.1841, 55.09103
582.6662, 55.28406
583.1483, 56.20740
583.6304, 58.08383
584.1125, 59.99628
584.5947, 61.27393
585.0768, 62.06613
585.5589, 62.55884
586.0410, 61.89511
586.5231, 62.04752
587.0052, 64.57309
587.4873, 68.53253
587.9694, 71.43945
588.4515, 72.32291
588.9337, 72.80417
589.4158, 73.13864
589.8979, 73.26471
590.3800, 74.01697
590.8621, 75.76526
591.3442, 77.63547
591.8264, 78.83234
592.3085, 79.17795
592.7906, 80.57062
593.2727, 83.24341
593.7548, 86.26559
594.2369, 88.52234
594.7191, 90.19565
595.2012, 92.03558
595.6833, 94.36908
596.1654, 96.83783
596.6475, 99.00958
597.1296, 100.9476
597.6118, 102.9793
598.0939, 105.3817
598.5760, 107.7945
599.0581, 109.8838
599.5402, 111.6959
600.0223, 113.9788
600.5045, 117.5094
600.9866, 121.0800
601.4687, 124.2842
601.9508, 127.2056
602.4329, 129.3346
602.9150, 130.0743
603.3972, 130.8000
603.8793, 132.8786
604.3614, 136.4527
604.8435, 139.9063
605.3256, 143.1882
605.8077, 145.8801
606.2899, 147.0211
606.7720, 146.8439
607.2541, 146.4518
607.7362, 146.1761
608.2183, 145.9610
608.7004, 145.7220
609.1826, 145.4429
609.6647, 145.3463
610.1468, 146.0633
610.6289, 146.5648
611.1110, 146.4309
611.5931, 145.6562
612.0753, 143.7352
612.5574, 139.0559
613.0395, 134.2933
613.5216, 131.1109
614.0037, 130.5097
614.4858, 128.9383
614.9680, 125.9081
615.4501, 122.2050
615.9322, 118.8520
616.4143, 115.9308
616.8964, 113.1674
617.3785, 110.7074
617.8607, 108.0755
618.3428, 104.1754
618.8249, 99.28278
619.3070, 94.57025
619.7891, 90.54019
620.2712, 86.98630
620.7534, 83.94199
621.2355, 81.24405
621.7176, 78.31653
622.1997, 74.60291
622.6818, 70.83789
623.1639, 67.33411
623.6461, 64.09995
624.1282, 61.31683
624.6103, 59.31140
625.0924, 57.48434
625.5745, 55.44299
626.0566, 52.97903
626.5388, 50.73935
627.0209, 48.58325
627.5030, 46.93475
627.9851, 46.89575
628.4672, 48.33994
628.9493, 48.63547
629.4315, 46.84677
629.9136, 44.18802
630.3957, 42.51184
630.8778, 41.54355
631.3599, 40.48630
631.8420, 38.31833
632.3242, 36.43530
632.8063, 36.39853
633.2884, 37.79987
633.7705, 38.43600
634.2526, 36.70016
634.7347, 34.74063
635.2169, 33.60956
635.6990, 33.51697
636.1811, 33.32355
636.6632, 33.10562
637.1453, 32.68494
637.6274, 31.97302
638.1096, 30.98145
638.5917, 29.42505
639.0738, 27.09192
639.5559, 24.73181
640.0380, 23.29532
640.5201, 22.63803
641.0023, 22.23627
641.4844, 22.14392
641.9665, 21.85840
642.4486, 20.48230
642.9307, 18.50916
643.4128, 17.03241
643.8950, 17.14230
644.3771, 17.23334
644.8592, 16.33609
645.3413, 14.68292
645.8234, 13.52740
646.3055, 13.88910
646.7877, 13.93793
647.2698, 12.90195
647.7519, 10.71039
648.2340, 9.371307
648.7161, 9.126465
649.1982, 9.069061
649.6804, 8.532440
650.1625, 7.566833
650.6446, 6.584625
651.1267, 5.573822
651.6088, 4.823914
652.0909, 4.895416
652.5731, 5.392609
653.0552, 5.630157
653.5373, 5.438477
654.0194, 4.967041
654.5015, 4.046204
654.9836, 2.976563
655.4658, 2.191986
655.9479, 2.049072
656.4300, 1.930634
656.9121, 1.655090
657.3942, 1.320343
657.8763, 1.227509
658.3585, 1.526611
658.8406, 1.682556
659.3227, 1.390289
659.8048, 0.8130800
660.2869, 1.031494
660.7690, 2.077454
661.2512, 2.857635
661.7333, 2.313599
662.2154, 1.110260
662.6975, 0.4725040
663.1796, 0.4396360
663.6617, 0.7702330
664.1439, 1.995728
664.6260, 3.093292
665.1081, 2.906464
665.5902, 0.6711730
666.0723, 0.7942810
666.5544, 2.9387999E-02
667.0366, 1.376740
667.5187, 1.944153
668.0008, 1.257874
668.4829, 0.5730290
668.9650, 0.1589050
669.4471, 0.7031250
669.9293, 0.4005740
670.4114, 0.7685550
670.8935, 1.056427
671.3756, 0.4228520
671.8577, 2.368347
672.3398, 2.447113
672.8220, 1.120453
673.3041, 4.3212999E-02
673.7862, 0.1742550
674.2683, 7.4432001E-02
674.7504, 0.3505550
675.2325, 0.6353450
675.7147, 0.8625490
676.1968, 1.012085
676.6789, 1.108795
677.1610, 1.180176
677.6431, 1.236084
678.1252, 1.127869
678.6074, 0.7909550
679.0895, 0.4093630
679.5716, 0.1077580
680.0537, 0.1171570
680.5358, 0.4244690
681.0179, 0.8381350
681.5001, 1.180450
681.9822, 1.211792
682.4643, 1.051453
682.9464, 0.9581300
683.4285, 1.004913
683.9106, 1.001709
684.3928, 0.5431820
684.8749, 6.2927000E-02
685.3570, 7.6935001E-02
685.8391, 1.548615
686.3212, 2.497559
686.8033, 2.232483
687.2855, 1.394348
687.7676, 1.016846
688.2497, 1.382813
688.7318, 1.455078
689.2139, 0.8817750
689.6960, 5.6460002E-03
690.1782, 0.2222290
690.6603, 0.1768490
691.1424, 0.7733150
691.6245, 1.696960
692.1066, 2.495728
692.5887, 2.148682
693.0709, 0.9395750
693.5530, 9.9395998E-02
694.0351, 0.6174930
694.5172, 1.466187
694.9993, 2.018616
695.4814, 2.220764
695.9636, 2.495697
696.4457, 3.001465
696.9278, 3.490723
697.4099, 3.810303
697.8920, 3.898773
698.3741, 4.288666
698.8563, 5.106049
699.3384, 5.834229
699.8205, 5.842804
700.3026, 5.322083
700.7847, 5.247772
701.2668, 5.780853
701.7490, 6.312286
702.2311, 6.199432
702.7132, 5.746765
703.1953, 5.341156
703.6774, 4.972839
704.1595, 4.897247
704.6417, 5.528717
705.1238, 6.399719
705.6059, 6.839996
706.0880, 6.545959
706.5701, 6.275482
707.0522, 6.082123
707.5344, 5.958801
708.0165, 5.889587
708.4986, 5.872284
708.9807, 5.972229
709.4628, 6.355774
709.9449, 6.686462
710.4271, 5.930939
710.9092, 4.472046
711.3913, 3.701416
711.8734, 5.168365
712.3555, 6.889893
712.8376, 7.354034
713.3198, 6.788177
713.8019, 6.423035
714.2840, 6.662170
714.7661, 7.111481
715.2482, 7.764221
715.7303, 8.603149
716.2125, 8.905609
716.6946, 8.543640
717.1767, 8.025848
717.6588, 7.541718
718.1409, 7.125275
718.6230, 7.241852
719.1052, 7.908173
719.5873, 8.346069
720.0694, 7.406708
720.5515, 6.138428
721.0336, 6.123169
721.5157, 7.729614
721.9979, 8.997101
722.4800, 8.591705
722.9621, 7.682068
723.4442, 7.282318
723.9263, 7.872009
724.4084, 8.070923
724.8906, 7.602600
725.3727, 6.993622
725.8548, 6.759033
726.3369, 6.911835
726.8190, 7.306458
727.3011, 7.953979
727.7833, 8.640472
728.2654, 9.252350
728.7475, 9.695862
729.2296, 9.768036
729.7117, 9.196228
730.1938, 8.301392
730.6760, 6.893219
731.1581, 5.443268
731.6402, 4.633484
732.1223, 5.440216
732.6044, 5.913391
733.0865, 5.609222
733.5687, 4.815521
734.0508, 4.282013
734.5329, 4.027771
735.0150, 4.105896
735.4971, 4.716553
735.9792, 5.470856
736.4614, 5.325226
736.9435, 4.449982
737.4256, 3.716797
737.9077, 3.387878
738.3898, 3.548340
738.8719, 4.549194
739.3541, 6.074615
739.8362, 7.287354
740.3183, 7.881195
740.8004, 8.118195
741.2825, 7.980957
741.7646, 7.553680
742.2468, 7.189880
742.7289, 6.845947
743.2110, 6.573486
743.6931, 6.374115
744.1752, 6.219116
744.6573, 6.065308
745.1395, 5.925110
745.6216, 5.910187
746.1037, 6.283417
746.5858, 6.729187
747.0679, 6.722961
747.5500, 6.266205
748.0322, 6.073181
748.5143, 7.112915
748.9964, 8.037537
749.4785, 7.948334
749.9606, 6.567413
750.4427, 5.262634
750.9249, 3.829681
751.4070, 2.778900
751.8891, 2.610687
752.3712, 3.306244
752.8533, 3.923401
753.3354, 4.463959
753.8176, 4.702240
754.2997, 4.098694
754.7818, 3.177856
755.2639, 2.757874
755.7460, 3.008881
756.2281, 3.497284
756.7103, 4.538300
757.1924, 5.397705
757.6745, 5.342926
758.1566, 3.360535
758.6387, 2.346802
759.1208, 2.681519
759.6030, 3.513977
760.0851, 4.045258
760.5672, 4.274139
761.0493, 4.150940
761.5314, 3.583893
762.0135, 3.020874
762.4957, 3.164001
762.9778, 3.661987
763.4599, 3.777985
763.9420, 3.064301
764.4241, 2.598175
764.9063, 3.385956
765.3884, 4.590210
765.8705, 5.179108
766.3526, 4.536407
766.8347, 3.937134
767.3168, 3.357483
767.7990, 2.912476
768.2811, 2.835388
768.7632, 3.148132
769.2453, 3.411957
769.7274, 3.555328
770.2095, 3.564362
770.6917, 3.475769
771.1738, 3.231476
771.6559, 2.661438
772.1380, 1.306213
772.6201, 0.1786800
773.1022, 0.1341550
773.5844, 0.1373600
774.0665, 0.6192020
774.5486, 1.825623
775.0307, 2.368408
775.5128, 1.782074
775.9949, 0.6362610
776.4771, 0.2833560
776.9592, 0.7558590
777.4413, 1.033173
777.9234, 0.7526550
778.4055, 0.2348330
778.8876, 0.1851810
779.3698, 0.4484860
779.8519, 0.4043580
780.3340, 0.3517150
780.8161, 1.081940
781.2982, 1.396515
781.7803, 1.424255
782.2625, 1.540161
782.7446, 2.093842
783.2267, 2.159210
783.7088, 1.288269
784.1909, 5.1697001E-02
784.6730, 0.3681640
785.1552, 0.3244320
785.6373, 0.7819520
786.1194, 0.2460020
786.6015, 0.4889830
787.0836, 6.2987998E-02
787.5657, 1.145294
788.0479, 2.086212
788.5300, 2.315765
789.0121, 2.106934
789.4942, 1.194427
789.9763, 0.1276860
790.4584, 0.7048340
790.9406, 9.9030003E-02
791.4227, 0.4359440
791.9048, 0.5510860
792.3869, 0.3598630
792.8690, 0.2016300
793.3511, 7.4097000E-02
793.8333, 3.8757000E-02
794.3154, 0.1067200
794.7975, 0.1935730
795.2796, 0.5285640
795.7617, 0.9683230
796.2438, 1.045441
796.7260, 6.8024002E-02
797.2081, 0.7884220
797.6902, 1.073456
798.1723, 0.8664550
798.6544, 0.4044490
799.1365, 0.4823910
799.6187, 1.174805
800.1008, 1.519867
800.5829, 1.499207
801.0650, 0.8216550
801.5471, 0.3856510
802.0292, 1.324463
802.5114, 1.395264
802.9935, 1.126221
803.4756, 0.8221130
803.9577, 0.5546880
804.4398, 0.5628660
804.9219, 1.321808
805.4041, 1.906158
805.8862, 1.969849
806.3683, 1.649872
806.8504, 1.536835
807.3325, 1.683594
807.8146, 1.770050
808.2968, 1.618042
808.7789, 1.377655
809.2610, 1.367188
809.7431, 1.565826
810.2252, 1.885620
810.7073, 2.561462
811.1895, 3.087158
811.6716, 3.048981
812.1537, 2.582794
812.6358, 2.195221
813.1179, 2.023285
813.6000, 1.848328
814.0822, 1.564087
814.5643, 1.259338
815.0464, 1.325256
815.5285, 1.769501
816.0106, 2.142334
816.4927, 2.191620
816.9749, 2.137329
817.4570, 2.264923
817.9391, 2.561859
818.4212, 2.995972
818.9033, 3.868958
819.3854, 4.536194
819.8676, 4.527130
820.3497, 4.075104
820.8318, 3.989594
821.3139, 4.382355
821.7960, 4.915924
822.2781, 5.673553
822.7603, 6.357513
823.2424, 6.056061
823.7245, 4.929169
824.2066, 4.042450
824.6887, 4.014099
825.1708, 4.163269
825.6530, 3.691254
826.1351, 2.930023
826.6172, 2.626801
827.0993, 3.573273
827.5814, 4.291260
828.0635, 4.365417
828.5457, 4.104614
829.0278, 4.165466
829.5099, 4.597443
829.9920, 5.056366
830.4741, 5.491425
830.9562, 5.838348
831.4384, 6.041687
831.9205, 6.096344
832.4026, 6.003174
832.8847, 5.649078
833.3668, 5.290314
833.8489, 4.910492
834.3311, 4.641388
834.8132, 4.732788
835.2953, 5.248535
835.7774, 6.019714
836.2595, 7.231110
836.7416, 8.396423
837.2238, 8.666687
837.7059, 8.139374
838.1880, 7.484955
838.6701, 6.715485
839.1522, 6.164642
839.6343, 6.305115
840.1165, 6.839386
840.5986, 7.353180
841.0807, 7.774414
841.5628, 8.091064
842.0449, 8.196045
842.5270, 8.244507
843.0092, 8.573059
843.4913, 9.344757
843.9734, 9.096893
844.4555, 7.407776
844.9376, 5.706024
845.4197, 5.975525
845.9019, 7.353638
846.3840, 7.959320
846.8661, 7.275818
847.3482, 6.608612
847.8303, 6.624817
848.3124, 6.996521
848.7946, 7.584045
849.2767, 8.564301
849.7588, 9.050903
850.2409, 8.821442
850.7230, 8.514252
851.2051, 8.939453
851.6873, 9.851044
852.1694, 9.641602
852.6515, 8.167816
853.1336, 6.904297
853.6157, 7.083344
854.0978, 7.927917
854.5800, 8.982910
855.0621, 10.26208
855.5442, 10.85763
856.0263, 9.873871
856.5084, 8.807373
856.9905, 8.360840
857.4727, 8.543732
857.9548, 8.838806
858.4369, 9.306030
858.9190, 9.670746
859.4011, 9.602966
859.8832, 9.283020
860.3654, 9.019867
860.8475, 8.890839
861.3296, 9.082062
861.8117, 9.709839
862.2938, 10.54596
862.7759, 11.73877
863.2581, 13.18396
863.7402, 13.93576
864.2223, 13.78894
864.7044, 13.63632
865.1865, 13.89038
865.6686, 14.31305
866.1508, 14.19473
866.6329, 13.70935
867.1150, 13.50958
867.5971, 14.28455
868.0792, 15.10141
868.5613, 15.39429
869.0435, 15.31689
869.5256, 15.24887
870.0077, 15.12271
870.4898, 15.00629
870.9719, 14.92337
871.4540, 14.85535
871.9362, 14.82071
872.4183, 14.81836
872.9004, 14.55878
873.3825, 13.70740
873.8646, 12.98059
874.3467, 13.41751
874.8289, 14.37964
875.3110, 14.88992
875.7931, 14.26129
876.2752, 13.69803
876.7573, 13.14383
877.2394, 12.86285
877.7216, 13.37598
878.2037, 14.76682
878.6858, 15.18411
879.1679, 14.26666
879.6500, 13.08298
880.1321, 12.87833
880.6143, 13.11847
881.0964, 12.97192
881.5785, 12.22800
882.0606, 11.66458
882.5427, 11.37262
883.0248, 11.37479
883.5070, 11.79944
883.9891, 12.84439
884.4712, 13.00211
884.9533, 12.12766
885.4354, 11.10657
885.9175, 10.62415
886.3997, 10.49454
886.8818, 10.33997
887.3639, 10.15079
887.8460, 10.08405
888.3281, 10.49338
888.8102, 10.80325
889.2924, 10.52267
889.7745, 9.713196
890.2566, 9.450623
890.7387, 9.926422
891.2208, 10.39594
891.7029, 10.63882
892.1851, 10.61020
892.6672, 10.10675
893.1493, 9.201416
893.6314, 8.220245
894.1135, 7.115082
894.5956, 6.187500
895.0778, 5.687439
895.5599, 5.488892
896.0420, 5.281433
896.5241, 5.040680
897.0062, 4.772644
897.4883, 4.416382
897.9705, 4.124298
898.4526, 4.330872
898.9347, 4.894135
899.4168, 5.112915
899.8989, 4.717102
900.3810, 4.237183
900.8632, 4.036041
901.3453, 4.014893
901.8274, 4.076324
902.3095, 4.423279
902.7916, 4.392578
903.2737, 3.788422
903.7559, 3.084381
904.2380, 2.712738
904.7201, 2.639038
905.2022, 2.542542
905.6843, 2.399414
906.1664, 2.396606
906.6486, 3.145355
907.1307, 3.789276
907.6128, 3.278473
908.0949, 1.433411
908.5770, 0.3152160
909.0591, 0.8017270
909.5413, 1.204651
910.0234, 0.7043460
910.5055, 0.4736630
910.9876, 0.8549190
911.4697, 0.4772340
911.9518, 8.0658004E-02
912.4340, 0.2778930
912.9161, 0.4978030
913.3982, 7.5897001E-02
913.8803, 1.105560
914.3624, 1.645447
914.8445, 0.9790340
915.3267, 0.3534550
915.8088, 7.1686000E-02
916.2909, 0.3016660
916.7730, 0.2228390
917.2551, 0.1493840
917.7372, 0.1519170
918.2194, 0.4793400
918.7015, 1.152161
919.1836, 1.139038
919.6657, 0.7955020
920.1478, 0.6095280
920.6299, 0.7628480
921.1121, 0.9339600
921.5942, 1.197723
922.0763, 1.330505
922.5584, 1.139343
923.0405, 0.6161190
923.5226, 0.1436770
924.0048, 1.164490
924.4869, 1.927856
924.9690, 1.940552
925.4511, 1.514587
925.9332, 0.7568050
926.4153, 0.2713320
926.8975, 0.7055050
927.3796, 0.4604800
927.8617, 1.405029
928.3438, 1.478058
928.8259, 0.8377380
929.3080, 0.2048950
929.7902, 0.4192810
930.2723, 0.7214660
930.7544, 0.4194950
931.2365, 0.1098330
931.7186, 0.5263060
932.2007, 0.8284910
932.6829, 1.010651
933.1650, 1.121460
933.6471, 1.024628
934.1292, 0.5039670
934.6113, 3.1952001E-02
935.0934, 0.1166380
935.5756, 0.9429320
936.0577, 1.421387
936.5398, 1.374664
937.0219, 1.182343
937.5040, 1.366150
937.9861, 1.531036
938.4683, 1.020355
938.9504, 0.5486150
939.4325, 1.249176
939.9146, 0.1153260
940.3967, 1.085663
940.8788, 1.290192
941.3610, 0.6246950
941.8431, 0.9455870
942.3252, 2.217255
942.8073, 3.338104
943.2894, 3.587250
943.7715, 3.369415
944.2537, 2.678528
944.7358, 1.777954
945.2179, 1.577301
945.7000, 2.321533
946.1821, 3.866394
946.6642, 6.794891
947.1464, 9.997070
947.6285, 10.87997
948.1106, 9.728149
948.5927, 8.483490
949.0748, 7.411072
949.5569, 7.103241
950.0391, 8.746216
950.5212, 11.12274
951.0033, 12.80392
951.4854, 13.19864
951.9675, 13.67923
952.4496, 14.23288
952.9318, 14.92825
953.4139, 15.89441
953.8960, 17.06665
954.3781, 17.97763
954.8602, 18.64093
955.3423, 19.54095
955.8245, 20.92401
956.3066, 22.72308
956.7887, 25.04544
957.2708, 27.82565
957.7529, 30.49823
958.2350, 33.18027
958.7172, 35.40170
959.1993, 36.77621
959.6814, 38.00284
960.1635, 40.62231
960.6456, 44.35858
961.1277, 48.31158
961.6099, 52.19824
962.0920, 56.25143
962.5741, 60.06555
963.0562, 64.44083
963.5383, 70.26968
964.0204, 78.02133
964.5026, 85.61963
964.9847, 92.52615
965.4668, 100.8849
965.9489, 112.5578
966.4310, 127.0459
966.9131, 143.8839
967.3953, 162.9178
967.8774, 184.5778
968.3595, 207.1495
968.8416, 234.1895
969.3237, 268.9566
969.8058, 309.5669
970.2880, 348.0273
970.7701, 384.4774
971.2522, 420.2450
971.7343, 456.3700
972.2164, 491.6224
972.6985, 523.5472
973.1807, 554.1228
973.6628, 586.7348
974.1449, 622.9026
974.6270, 661.2659
975.1091, 699.3914
975.5912, 742.0978
976.0734, 793.3561
976.5555, 852.8158
977.0376, 920.9437
977.5197, 996.7443
978.0018, 1086.328
978.4839, 1196.226
978.9661, 1322.276
979.4482, 1464.786
979.9303, 1622.663
980.4124, 1780.002
980.8945, 1945.136
981.3766, 2098.415
981.8588, 2245.290
982.3409, 2369.704
982.8230, 2436.792
983.3051, 2443.425
983.7872, 2369.418
984.2693, 2190.688
984.7515, 1961.973
985.2336, 1684.366
985.7157, 1395.799
986.1978, 1146.690
986.6799, 939.7461
987.1620, 770.8051
987.6442, 643.4552
988.1263, 543.6410
988.6084, 464.6438
989.0905, 402.8192
989.5726, 352.5733
990.0547, 313.0156
990.5369, 281.6901
991.0190, 260.4521
991.5011, 244.0874
991.9832, 230.1772
992.4653, 219.0400
992.9474, 212.4989
993.4296, 210.8165
993.9117, 211.9002
994.3938, 215.5082
994.8759, 220.8037
995.3580, 226.9236
995.8401, 233.8505
996.3223, 241.8011
996.8044, 251.1155
997.2865, 260.6906
997.7686, 270.2296
998.2507, 280.3809
998.7328, 291.5875
999.2150, 303.7668
999.6971, 317.2103
1000.179, 331.7188
1000.661, 347.6762
1001.143, 364.3371
1001.626, 383.3412
1002.108, 406.1617
1002.590, 432.5766
1003.072, 462.4398
1003.554, 495.7800
1004.036, 530.7319
1004.518, 566.8391
1005.000, 603.8723
1005.482, 643.2642
1005.965, 682.6989
1006.447, 715.9539
1006.929, 742.7264
1007.411, 758.5623
1007.893, 764.3525
1008.375, 755.0992
1008.857, 727.7355
1009.339, 681.3003
1009.822, 626.1013
1010.304, 561.6248
1010.786, 496.1167
1011.268, 433.3113
1011.750, 375.2267
1012.232, 324.0870
1012.714, 279.6701
1013.196, 240.6150
1013.678, 207.0178
1014.161, 178.6632
1014.643, 156.7887
1015.125, 139.0898
1015.607, 122.5374
1016.089, 107.3476
1016.571, 94.51871
1017.053, 84.33121
1017.535, 75.91891
1018.018, 69.61322
1018.500, 64.06833
1018.982, 58.14975
1019.464, 51.76999
1019.946, 45.67197
1020.428, 39.66068
1020.910, 34.71710
1021.392, 31.61676
1021.874, 29.43713
1022.357, 26.30258
1022.839, 22.69940
1023.321, 19.81531
1023.803, 18.78021
1024.285, 17.49518
1024.767, 15.00305
1025.249, 12.41077
1025.731, 10.92337
1026.214, 10.54819
1026.696, 9.685669
1027.178, 8.249329
1027.660, 6.723389
1028.142, 5.179443
1028.624, 3.944977
1029.106, 3.636414
1029.588, 4.073456
1030.070, 3.633423
1030.553, 1.629120
1031.035, 0.2335820
1031.517, 0.1675420
1031.999, 0.6341250
1032.481, 1.2451000E-02
1032.963, 1.269073
1033.445, 1.756439
1033.927, 0.9009090
1034.410, 0.1738590
1034.892, 0.3854370
1035.374, 0.8445430
1035.856, 1.058258
1036.338, 1.019562
1036.820, 1.125519
1037.302, 1.371948
1037.784, 1.849945
1038.266, 3.152069
1038.749, 4.260101
1039.231, 3.699982
1039.713, 2.165253
1040.195, 1.363831
1040.677, 2.238037
1041.159, 2.711151
1041.641, 2.525299
1042.123, 2.067444
1042.605, 1.790466
1043.088, 1.626190
1043.570, 1.490448
1044.052, 1.372650
1044.534, 0.8518370
1045.016, 1.165436
1045.498, 2.743958
1045.980, 2.500763
1046.462, 0.9843140
1046.945, 0.8174740
1047.427, 2.050171
1047.909, 3.201904
1048.391, 3.729614
1048.873, 4.102234
1049.355, 5.010773
1049.837, 5.997253
1050.319, 6.363190
1050.802, 5.316223
1051.284, 5.357971
1051.766, 6.994995
1052.248, 8.628784
1052.730, 8.684937
1053.212, 7.894806
1053.694, 8.823029
1054.176, 11.11841
1054.658, 13.13242
1055.141, 14.16309
1055.623, 14.61929
1056.105, 14.30460
1056.587, 13.71008
1057.069, 13.58136
1057.551, 13.93362
1058.033, 14.09305
1058.515, 13.93207
1058.997, 13.98587
1059.480, 15.20804
1059.962, 16.53778
1060.444, 16.94083
1060.926, 16.30154
1061.408, 15.53793
1061.890, 14.60645
1062.372, 13.76642
1062.854, 13.07040
1063.337, 12.58347
1063.819, 12.51355
1064.301, 12.74701
1064.783, 13.08627
1065.265, 13.66364
1065.747, 13.87390
1066.229, 13.44141
1066.711, 12.65079
1067.193, 11.40320
1067.676, 9.779510
1068.158, 9.508789
1068.640, 10.49390
1069.122, 11.31067
1069.604, 10.97922
1070.086, 10.29755
1070.568, 9.634338
1071.050, 9.044678
1071.532, 8.651184
1072.015, 8.544983
1072.497, 8.224396
1072.979, 7.542328
1073.461, 7.063782
1073.943, 7.653229
1074.425, 8.680054
1074.907, 9.102661
1075.389, 8.882385
1075.872, 9.269409
1076.354, 11.56714
1076.836, 12.99353
1077.318, 12.37628
1077.800, 10.84937
1078.282, 11.21054
1078.764, 12.91830
1079.246, 13.91025
1079.729, 13.46103
1080.211, 12.94229
1080.693, 12.85077
1081.175, 13.21521
1081.657, 14.08807
1082.139, 15.46713
1082.621, 16.71002
1083.103, 17.82214
1083.585, 19.06644
1084.068, 20.77710
1084.550, 22.49121
1085.032, 23.65115
1085.514, 24.51920
1085.996, 25.51654
1086.478, 26.54187
1086.960, 28.13940
1087.442, 30.52557
1087.924, 32.86026
1088.406, 34.20139
1088.889, 35.00952
1089.371, 36.24722
1089.853, 37.85748
1090.335, 39.14532
1090.817, 39.46436
1091.299, 39.82950
1091.781, 40.37109
1092.263, 41.31400
1092.746, 43.45541
1093.228, 46.40976
1093.710, 48.28073
1094.192, 48.69247
1094.674, 48.60733
1095.156, 48.35815
1095.638, 48.05118
1096.120, 47.76920
1096.603, 47.47964
1097.085, 46.79861
1097.567, 45.73050
1098.049, 45.41647
1098.531, 46.64679
1099.013, 47.80005
1099.495, 46.84570
1099.977, 44.99756
1100.459, 43.78699
1100.942, 43.65314
1101.424, 43.55765
1101.906, 43.54218
1102.388, 43.45047
1102.870, 43.17542
1103.352, 42.72620
1103.834, 42.16806
1104.316, 41.50433
1104.798, 40.76050
1105.281, 39.65155
1105.763, 38.85486
1106.245, 38.32074
1106.727, 38.30029
1107.209, 39.39566
1107.691, 41.27850
1108.173, 42.44333
1108.655, 42.85629
1109.138, 43.24133
1109.620, 44.05682
1110.102, 44.88486
1110.584, 45.14328
1111.066, 45.45081
1111.548, 47.46417
1112.030, 51.15448
1112.512, 54.21591
1112.995, 56.20978
1113.477, 57.85709
1113.959, 59.80457
1114.441, 61.67200
1114.923, 62.93338
1115.405, 63.61954
1115.887, 65.09546
1116.369, 67.53964
1116.851, 69.79962
1117.333, 71.37399
1117.816, 72.78360
1118.298, 74.75305
1118.780, 76.99808
1119.262, 79.07977
1119.744, 80.76990
1120.226, 82.80453
1120.708, 85.41464
1121.190, 87.87958
1121.673, 90.08371
1122.155, 91.67889
1122.637, 91.25577
1123.119, 89.57556
1123.601, 88.74081
1124.083, 91.00851
1124.565, 92.14682
1125.047, 91.07477
1125.530, 89.31409
1126.012, 88.43387
1126.494, 88.11841
1126.976, 86.53638
1127.458, 83.78317
1127.940, 81.17206
1128.422, 79.52173
1128.904, 78.08716
1129.386, 76.50970
1129.869, 74.88226
1130.351, 73.51599
1130.833, 72.38684
1131.315, 70.72287
1131.797, 68.40613
1132.279, 65.82745
1132.761, 62.77911
1133.243, 60.01868
1133.725, 58.20215
1134.208, 57.22369
1134.690, 56.36469
1135.172, 55.58997
1135.654, 55.28793
1136.136, 55.70520
1136.618, 56.08121
1137.100, 55.39313
1137.582, 54.36011
1138.065, 53.88864
1138.547, 54.14938
1139.029, 53.68781
1139.511, 52.21320
1139.993, 50.95059
1140.475, 50.58389
1140.957, 50.47510
1141.439, 49.55411
1141.922, 48.18100
1142.404, 46.83249
1142.886, 45.33347
1143.368, 44.95700
1143.850, 46.68051
1144.332, 47.58246
1144.814, 45.27084
1145.296, 41.14725
1145.778, 38.75992
1146.260, 37.66550
1146.743, 36.61267
1147.225, 35.54135
1147.707, 33.90277
1148.189, 31.23218
1148.671, 28.53870
1149.153, 26.88721
1149.635, 26.01544
1150.117, 24.38492
1150.600, 22.10657
1151.082, 20.18994
1151.564, 19.54742
1152.046, 18.86771
1152.528, 17.48132
1153.010, 15.97073
1153.492, 15.30511
1153.974, 15.37546
1154.457, 14.75302
1154.939, 13.33511
1155.421, 11.87946
1155.903, 10.74835
1156.385, 9.868927
1156.867, 9.186401
1157.349, 8.702301
1157.831, 8.746094
1158.313, 9.341217
1158.796, 8.860657
1159.278, 6.916107
1159.760, 4.821533
1160.242, 3.127441
1160.724, 2.211456
1161.206, 2.817902
1161.688, 4.662506
1162.170, 5.765137
1162.652, 6.117523
1163.135, 6.037903
1163.617, 5.498505
1164.099, 4.737213
1164.581, 3.878387
1165.063, 3.193268
1165.545, 3.102570
1166.027, 3.726471
1166.509, 3.811218
1166.992, 3.255646
1167.474, 2.688599
1167.956, 2.309113
1168.438, 2.142517
1168.920, 2.364197
1169.402, 2.730988
1169.884, 2.879974
1170.366, 2.619843
1170.849, 2.631317
1171.331, 2.988617
1171.813, 3.322723
1172.295, 3.578857
1172.777, 3.572876
1173.259, 2.661469
1173.741, 1.299866
1174.223, 0.4463810
1174.705, 0.7302550
1175.188, 0.9048770
1175.670, 0.9195560
1176.152, 0.9093630
1176.634, 0.9605100
1177.116, 1.060547
1177.598, 1.175446
1178.080, 1.311584
1178.562, 1.493652
1179.044, 2.066681
1179.527, 2.112549
1180.009, 1.390717
1180.491, 0.4823300
1180.973, 8.3893001E-02
1181.455, 0.4100340
1181.937, 0.6788330
1182.419, 0.9059450
1182.901, 1.141663
1183.384, 1.689636
1183.866, 1.723175
1184.348, 0.8032230
1184.830, 0.1159060
1185.312, 0.5153200
1185.794, 2.011810
1186.276, 2.480865
1186.758, 1.873535
1187.240, 1.261719
1187.723, 1.253143
1188.205, 1.087311
1188.687, 0.5294490
1189.169, 0.1842350
1189.651, 0.6956180
1190.133, 1.037628
1190.615, 1.319916
1191.097, 1.556763
1191.579, 1.662781
1192.062, 1.624237
1192.544, 1.374115
1193.026, 0.7860410
1193.508, 9.6008003E-02
1193.990, 3.3936001E-02
1194.472, 0.3189390
1194.954, 0.2851560
1195.436, 2.179291
1195.919, 3.317230
1196.401, 2.117706
1196.883, 0.6528930
1197.365, 0.3760380
1197.847, 0.9543150
1198.329, 0.8026120
1198.811, 0.1346440
1199.293, 0.2293400
1199.776, 4.6294998E-02
1200.258, 0.2149050
1200.740, 0.5675660
1201.222, 0.6537170
1201.704, 0.1446530
1202.186, 0.7123720
1202.668, 0.9947810
1203.150, 0.7291870
1203.632, 0.1394350
1204.115, 2.084534
1204.597, 3.301849
1205.079, 2.110657
1205.561, 0.7731930
1206.043, 0.6821900
1206.525, 1.545135
1207.007, 1.948364
1207.489, 1.956116
1207.971, 1.863068
1208.454, 1.773132
1208.936, 1.622375
1209.418, 1.187561
1209.900, 0.8786620
1210.382, 1.016388
1210.864, 1.520599
1211.346, 2.002777
1211.828, 2.402283
1212.311, 2.393402
1212.793, 1.377808
1213.275, 0.6239930
1213.757, 0.4734190
1214.239, 0.8857730
1214.721, 2.201050
1215.203, 4.187042
1215.685, 4.987396
1216.167, 4.741577
1216.650, 4.219940
1217.132, 3.657196
1217.614, 3.061523
1218.096, 2.318268
1218.578, 1.671478
1219.060, 1.461273
1219.542, 1.608521
1220.024, 1.083527
1220.506, 5.1392000E-02
1220.989, 0.3559880
1221.471, 0.9886170
1221.953, 2.359711
1222.435, 3.459656
1222.917, 4.166779
1223.399, 4.166168
1223.881, 3.632080
1224.363, 3.502716
1224.846, 3.723969
1225.328, 3.773315
1225.810, 2.983948
1226.292, 2.581177
1226.774, 3.095459
1227.256, 3.761383
1227.738, 3.433105
1228.220, 2.514893
1228.703, 2.734589
1229.185, 3.953857
1229.667, 4.566986
1230.149, 2.863800
1230.631, 1.807861
1231.113, 2.106354
1231.595, 3.173553
1232.077, 4.700470
1232.559, 6.300293
1233.042, 6.641937
1233.524, 5.795563
1234.006, 5.080139
1234.488, 5.183167
1234.970, 5.299835
1235.452, 5.332825
1235.934, 5.220917
1236.416, 4.716919
1236.898, 4.063629
1237.381, 3.906525
1237.863, 4.236938
1238.345, 4.400940
1238.827, 4.055634
1239.309, 3.716675
1239.791, 3.490936
1240.273, 3.261353
1240.755, 2.741089
1241.238, 2.131561
1241.720, 1.941284
1242.202, 2.234741
1242.684, 2.506805
1243.166, 2.490234
1243.648, 2.476227
1244.130, 2.603668
1244.612, 2.856598
1245.094, 3.174072
1245.577, 3.484192
1246.059, 3.770355
1246.541, 4.050507
1247.023, 4.216034
1247.505, 4.246185
1247.987, 4.070404
1248.469, 3.498138
1248.951, 2.981506
1249.433, 2.959991
1249.916, 3.377716
1250.398, 4.443237
1250.880, 5.971100
1251.362, 6.080475
1251.844, 3.888947
1252.326, 2.571411
1252.808, 3.104584
1253.290, 4.175049
1253.773, 4.352081
1254.255, 4.069733
1254.737, 4.053284
1255.219, 4.138916
1255.701, 3.545166
1256.183, 2.176666
1256.665, 1.994843
1257.147, 3.659607
1257.630, 5.337616
1258.112, 5.367645
1258.594, 4.760437
1259.076, 4.019257
1259.558, 3.263458
1260.040, 3.496307
1260.522, 4.693298
1261.004, 5.059021
1261.486, 4.092651
1261.969, 3.002716
1262.451, 2.623322
1262.933, 2.503632
1263.415, 2.539398
1263.897, 2.852051
1264.379, 3.025452
1264.861, 3.033081
1265.343, 2.873596
1265.825, 2.510437
1266.308, 2.096802
1266.790, 1.442932
1267.272, 1.031158
1267.754, 1.104401
1268.236, 1.464722
1268.718, 2.067688
1269.200, 2.720306
1269.682, 2.704163
1270.165, 1.787262
1270.647, 1.223785
1271.129, 1.699188
1271.611, 2.494629
1272.093, 3.650513
1272.575, 4.641846
1273.057, 4.130463
1273.539, 2.726379
1274.021, 1.936157
1274.504, 2.043762
1274.986, 2.037262
1275.468, 1.744324
1275.950, 1.225922
1276.432, 0.3590390
1276.914, 0.4659120
1277.396, 0.6024780
1277.878, 0.2893070
1278.360, 0.1070250
1278.843, 0.5137330
1279.325, 0.9234920
1279.807, 1.358490
1280.289, 1.677826
1280.771, 1.778259
1281.253, 1.932404
1281.735, 2.673523
1282.217, 3.515137
1282.700, 3.927490
1283.182, 3.885803
1283.664, 3.855225
1284.146, 3.866241
1284.628, 3.280518
1285.110, 1.698090
1285.592, 0.5370480
1286.074, 1.707794
1286.557, 3.165405
1287.039, 3.134796
1287.521, 2.093933
1288.003, 2.003387
1288.485, 2.802979
1288.967, 3.050720
1289.449, 2.312531
1289.931, 2.003296
1290.413, 4.114777
1290.896, 5.503479
1291.378, 3.968170
1291.860, 1.346924
1292.342, 0.8449710
1292.824, 1.855286
1293.306, 2.715698
1293.788, 3.146271
1294.270, 3.160614
1294.752, 2.306671
1295.235, 1.640930
1295.717, 1.475311
1296.199, 1.558838
1296.681, 1.306763
1297.163, 0.8815920
1297.645, 0.5207520
1298.127, 0.2591550
1298.609, 0.2965090
1299.092, 0.5024410
1299.574, 1.339386
1300.056, 3.190887
1300.538, 4.821930
1301.020, 4.307343
1301.502, 3.062653
1301.984, 2.953003
1302.466, 2.139069
1302.948, 3.450989
1303.431, 1.261993
1303.913, 1.6541000E-02
1304.395, 9.2345998E-02
1304.877, 0.0000000E+00
##END=



