##NAMES=Chalcanthite
##RRUFFID=R060018
##IDEAL CHEMISTRY=CuSO_4_&#183;5H_2_O
##LOCALITY=Chuquicamata, Chile
##OWNER=RRUFF
##SOURCE=American Museum of Natural History
##DESCRIPTION=Dark blue fragment
##STATUS=The identification of this mineral is confirmed by single-crystal X-ray diffraction and chemical analysis.
##URL=rruff.info/R060018
##MEASURED CHEMISTRY=Cu_1.00_S_1.00_O_4_Â·5H_2_O
101.7418, 0.0000000E+00
102.2239, 8.8983998E-02
102.7061, 1.610502
103.1882, 5.878990
103.6703, 8.963587
104.1524, 9.017227
104.6345, 7.366444
105.1166, 6.617599
105.5988, 7.060625
106.0809, 7.664421
106.5630, 7.284807
107.0451, 5.680492
107.5272, 4.613636
108.0093, 5.488544
108.4915, 6.967266
108.9736, 7.831985
109.4557, 7.488327
109.9378, 6.443251
110.4199, 6.165739
110.9020, 7.525326
111.3842, 8.425745
111.8663, 7.657633
112.3484, 6.217140
112.8305, 5.581745
113.3126, 6.882488
113.7947, 10.19374
114.2769, 12.97447
114.7590, 15.61976
115.2411, 17.47202
115.7232, 17.72463
116.2053, 16.69940
116.6874, 15.76795
117.1696, 16.38840
117.6517, 19.13485
118.1338, 21.04810
118.6159, 21.44928
119.0980, 21.46055
119.5801, 22.08985
120.0623, 23.56878
120.5444, 25.33619
121.0265, 26.76173
121.5086, 27.92653
121.9907, 28.50476
122.4728, 28.28241
122.9550, 27.38667
123.4371, 26.03791
123.9192, 23.89191
124.4013, 21.83672
124.8834, 20.83226
125.3655, 20.91554
125.8477, 21.54193
126.3298, 21.97199
126.8119, 22.44517
127.2940, 22.37127
127.7761, 21.49560
128.2582, 20.04659
128.7404, 18.67547
129.2225, 16.61966
129.7046, 13.72139
130.1867, 11.32290
130.6688, 9.978382
131.1509, 9.643940
131.6331, 11.28809
132.1152, 12.72898
132.5973, 13.48645
133.0794, 13.21432
133.5615, 11.54935
134.0436, 10.38910
134.5258, 10.43119
135.0079, 10.40699
135.4900, 10.08405
135.9721, 9.582619
136.4542, 9.125457
136.9363, 9.013436
137.4185, 9.031110
137.9006, 9.000512
138.3827, 9.453884
138.8648, 9.597601
139.3469, 8.794439
139.8290, 7.185676
140.3112, 5.658381
140.7933, 5.062393
141.2754, 5.281269
141.7575, 5.047204
142.2396, 3.667521
142.7217, 2.115970
143.2039, 1.526721
143.6860, 2.110562
144.1681, 3.009750
144.6502, 3.562284
145.1323, 3.881016
145.6144, 4.171650
146.0966, 4.575499
146.5787, 5.020018
147.0608, 5.338150
147.5429, 5.777267
148.0250, 5.647245
148.5071, 3.948926
148.9893, 1.300943
149.4714, 0.5910300
149.9535, 0.2743170
150.4356, 4.227156
150.9177, 6.522742
151.3998, 4.717413
151.8820, 3.085832
152.3641, 3.863878
152.8462, 6.713763
153.3283, 9.379958
153.8104, 9.035325
154.2925, 4.143870
154.7747, 0.4692310
155.2568, 2.137683
155.7389, 3.747635
156.2210, 4.128480
156.7031, 3.348766
157.1852, 1.927264
157.6673, 0.6335290
158.1495, 0.7123740
158.6316, 1.508948
159.1137, 1.642642
159.5958, 1.327818
160.0779, 0.4889490
160.5600, 0.8967100
161.0422, 2.295745
161.5243, 2.388401
162.0064, 0.4143420
162.4885, 0.9164020
162.9706, 0.4032140
163.4527, 1.133222
163.9349, 2.039744
164.4170, 1.567273
164.8991, 0.1990100
165.3812, 0.6243100
165.8633, 0.8658640
166.3454, 1.187135
166.8276, 2.092190
167.3097, 3.491383
167.7918, 4.752346
168.2739, 5.750493
168.7560, 6.360364
169.2381, 6.500693
169.7203, 6.145464
170.2024, 5.362009
170.6845, 3.946970
171.1666, 1.707412
171.6487, 1.5052000E-02
172.1308, 0.4947940
172.6130, 0.3196860
173.0951, 0.3271890
173.5772, 1.418386
174.0593, 2.760739
174.5414, 4.195660
175.0235, 6.275879
175.5057, 7.159883
175.9878, 5.693552
176.4699, 3.434552
176.9520, 1.747075
177.4341, 1.252712
177.9162, 1.727524
178.3984, 2.519431
178.8805, 4.289476
179.3626, 5.505025
179.8447, 5.275091
180.3268, 4.602823
180.8089, 4.986256
181.2911, 7.356226
181.7732, 11.09522
182.2553, 12.64481
182.7374, 9.068168
183.2195, 6.543870
183.7016, 7.432722
184.1838, 10.14546
184.6659, 11.45999
185.1480, 9.104736
185.6301, 3.693233
186.1122, 1.637412
186.5943, 5.627378
187.0765, 9.391441
187.5586, 10.22316
188.0407, 8.707435
188.5228, 6.988161
189.0049, 6.359055
189.4870, 6.788289
189.9692, 7.479081
190.4513, 9.265128
190.9334, 10.62236
191.4155, 10.14029
191.8976, 7.935812
192.3797, 5.903442
192.8619, 5.439878
193.3440, 6.108461
193.8261, 6.546816
194.3082, 6.481955
194.7903, 6.221605
195.2724, 5.841410
195.7546, 5.216535
196.2367, 5.286287
196.7188, 7.946743
197.2009, 11.46747
197.6830, 13.34810
198.1651, 11.86091
198.6473, 8.994361
199.1294, 8.558902
199.6115, 11.83032
200.0936, 14.32354
200.5757, 13.30626
201.0578, 10.51415
201.5400, 7.931919
202.0221, 6.256313
202.5042, 5.556607
202.9863, 6.293685
203.4684, 9.939099
203.9505, 12.56599
204.4327, 12.80265
204.9148, 11.45835
205.3969, 9.493950
205.8790, 7.238892
206.3611, 4.939589
206.8432, 3.830937
207.3254, 4.667492
207.8075, 5.927533
208.2896, 7.670194
208.7717, 9.448169
209.2538, 10.67505
209.7359, 10.93966
210.2181, 10.34034
210.7002, 9.773175
211.1823, 9.421550
211.6644, 8.907605
212.1465, 7.927699
212.6286, 6.740211
213.1108, 5.704794
213.5929, 5.251612
214.0750, 5.379225
214.5571, 5.003095
215.0392, 2.999801
215.5213, 1.797172
216.0035, 2.496057
216.4856, 4.479761
216.9677, 6.535805
217.4498, 7.925910
217.9319, 8.651641
218.4140, 8.797857
218.8962, 7.701285
219.3783, 6.862753
219.8604, 7.724365
220.3425, 9.515863
220.8246, 9.854198
221.3067, 6.646883
221.7889, 0.7307340
222.2710, 2.155024
222.7531, 2.9727001E-02
223.2352, 2.943582
223.7173, 4.652538
224.1994, 5.251991
224.6816, 5.427887
225.1637, 5.560126
225.6458, 5.545008
226.1279, 5.115805
226.6100, 3.519967
227.0921, 2.246081
227.5743, 2.540259
228.0564, 4.266541
228.5385, 6.085082
229.0206, 7.564798
229.5027, 8.441672
229.9848, 8.243951
230.4670, 6.062532
230.9491, 4.105816
231.4312, 4.944529
231.9133, 8.593382
232.3954, 11.03245
232.8775, 9.207233
233.3597, 5.670696
233.8418, 3.647070
234.3239, 3.628909
234.8060, 4.864642
235.2881, 6.995158
235.7702, 10.20842
236.2524, 12.61048
236.7345, 13.07728
237.2166, 12.52079
237.6987, 11.49268
238.1808, 9.996636
238.6629, 8.513128
239.1451, 7.390945
239.6272, 6.464088
240.1093, 6.764095
240.5914, 10.11835
241.0735, 14.11874
241.5556, 17.03519
242.0378, 18.26689
242.5199, 18.39804
243.0020, 17.88179
243.4841, 16.48857
243.9662, 15.30575
244.4483, 13.98788
244.9305, 13.29386
245.4126, 14.39786
245.8947, 17.39491
246.3768, 20.43172
246.8589, 20.42459
247.3410, 15.88664
247.8232, 12.41971
248.3053, 10.51979
248.7874, 9.824568
249.2695, 10.88438
249.7516, 13.47350
250.2337, 16.05676
250.7159, 16.00430
251.1980, 11.39448
251.6801, 9.199000
252.1622, 11.89114
252.6443, 14.91423
253.1264, 15.43460
253.6086, 13.25254
254.0907, 10.23125
254.5728, 8.666424
255.0549, 9.091009
255.5370, 9.691717
256.0191, 10.93147
256.5013, 11.81001
256.9834, 11.23699
257.4655, 9.436111
257.9476, 7.814123
258.4297, 8.033698
258.9118, 10.77874
259.3940, 12.58075
259.8761, 13.73469
260.3582, 13.93439
260.8403, 12.32506
261.3224, 9.360097
261.8045, 6.639253
262.2867, 5.737802
262.7688, 6.976261
263.2509, 7.961790
263.7330, 8.304417
264.2151, 8.798169
264.6972, 10.17475
265.1794, 12.14295
265.6615, 13.64322
266.1436, 13.69036
266.6257, 12.18683
267.1078, 11.55426
267.5899, 12.44682
268.0721, 13.35891
268.5542, 14.02487
269.0363, 14.22492
269.5184, 13.40147
270.0005, 10.98704
270.4826, 7.144679
270.9648, 4.455582
271.4469, 2.570139
271.9290, 1.887226
272.4111, 3.358377
272.8932, 6.206871
273.3753, 8.727920
273.8575, 10.00281
274.3396, 10.09665
274.8217, 9.252043
275.3038, 6.076969
275.7859, 3.732793
276.2680, 3.788446
276.7502, 5.362169
277.2323, 6.625584
277.7144, 6.714106
278.1965, 5.991961
278.6786, 5.482835
279.1607, 5.127203
279.6429, 5.006747
280.1250, 5.309225
280.6071, 5.941199
281.0892, 6.214579
281.5713, 5.924632
282.0534, 5.171117
282.5356, 3.894212
283.0177, 1.658784
283.4998, 0.3473290
283.9819, 0.8668450
284.4640, 2.485578
284.9461, 4.297533
285.4283, 6.165869
285.9104, 7.662539
286.3925, 7.964426
286.8746, 7.001143
287.3567, 6.080959
287.8388, 5.712276
288.3210, 5.431289
288.8031, 4.503869
289.2852, 2.734116
289.7673, 0.8657260
290.2494, 0.4159450
290.7315, 1.166124
291.2137, 1.167225
291.6958, 0.1566240
292.1779, 1.970043
292.6600, 3.439732
293.1421, 4.484281
293.6242, 5.264236
294.1064, 5.978178
294.5885, 6.527482
295.0706, 6.480471
295.5527, 5.204762
296.0348, 3.722229
296.5169, 3.150099
296.9991, 3.457771
297.4812, 3.296187
297.9633, 1.221297
298.4454, 1.789412
298.9275, 2.801935
299.4096, 0.4016720
299.8918, 2.533210
300.3739, 3.982523
300.8560, 4.228400
301.3381, 4.438759
301.8202, 5.621202
302.3023, 6.844272
302.7845, 6.032745
303.2666, 2.161649
303.7487, 1.201366
304.2308, 1.927948
304.7129, 0.4992690
305.1950, 1.805934
305.6772, 5.392095
306.1593, 8.456653
306.6414, 7.829115
307.1235, 3.084163
307.6056, 0.6962530
308.0877, 0.8671710
308.5699, 1.484958
309.0520, 4.188908
309.5341, 7.213370
310.0162, 9.471138
310.4983, 9.306510
310.9804, 7.089980
311.4626, 4.630542
311.9447, 1.644003
312.4268, 0.9526970
312.9089, 1.473357
313.3910, 0.5351030
313.8731, 3.167053
314.3553, 5.362187
314.8374, 6.980639
315.3195, 7.396846
315.8016, 4.854959
316.2837, 2.001338
316.7658, 2.109303
317.2480, 5.312926
317.7301, 8.710536
318.2122, 11.01029
318.6943, 12.08511
319.1764, 11.79546
319.6585, 9.292804
320.1407, 6.474909
320.6228, 4.490853
321.1049, 3.348418
321.5870, 3.268144
322.0691, 4.999792
322.5512, 7.299622
323.0334, 7.814762
323.5155, 5.967922
323.9976, 4.238662
324.4797, 4.136361
324.9618, 5.230579
325.4439, 6.319449
325.9261, 7.257890
326.4082, 7.759813
326.8903, 7.211657
327.3724, 5.558271
327.8545, 4.002271
328.3366, 2.591332
328.8188, 1.816658
329.3009, 2.742341
329.7830, 5.643355
330.2651, 8.309481
330.7472, 7.990556
331.2293, 5.340612
331.7115, 4.011600
332.1936, 6.038984
332.6757, 8.881803
333.1578, 9.656045
333.6399, 8.229174
334.1220, 6.753367
334.6042, 6.888484
335.0863, 8.061378
335.5684, 8.077841
336.0505, 5.594605
336.5326, 3.185629
337.0147, 2.987944
337.4969, 4.503587
337.9790, 5.336246
338.4611, 4.062677
338.9432, 1.833860
339.4253, 1.337672
339.9074, 3.295898
340.3896, 4.890245
340.8717, 4.338233
341.3538, 2.729587
341.8359, 2.456967
342.3180, 4.405394
342.8001, 7.078243
343.2823, 8.331064
343.7644, 8.087989
344.2465, 7.793905
344.7286, 8.102385
345.2107, 8.294779
345.6928, 7.306373
346.1750, 5.001825
346.6571, 2.589810
347.1392, 0.9469970
347.6213, 0.2098060
348.1034, 0.6312590
348.5855, 3.811288
349.0677, 6.834685
349.5498, 7.599813
350.0319, 6.352155
350.5140, 4.847239
350.9961, 4.025939
351.4782, 3.828753
351.9604, 3.946905
352.4425, 4.366784
352.9246, 5.045760
353.4067, 6.283525
353.8888, 7.729680
354.3709, 8.732341
354.8531, 9.030255
355.3352, 8.877212
355.8173, 8.830926
356.2994, 9.383075
356.7815, 8.513665
357.2636, 4.503816
357.7458, 6.3271999E-02
358.2279, 1.797868
358.7100, 0.6698870
359.1921, 1.335752
359.6742, 1.921419
360.1563, 0.7578400
360.6385, 6.5881997E-02
361.1206, 0.2052360
361.6027, 0.1169970
362.0848, 0.8679240
362.5669, 2.499172
363.0490, 3.584450
363.5312, 3.182862
364.0133, 1.544065
364.4954, 0.7169850
364.9775, 1.527448
365.4596, 2.054844
365.9417, 1.480004
366.4239, 0.7017920
366.9060, 0.9534330
367.3881, 2.761495
367.8702, 5.260358
368.3523, 6.679476
368.8344, 6.444869
369.3166, 5.942960
369.7987, 4.894597
370.2808, 3.712380
370.7629, 2.679591
371.2450, 2.044212
371.7271, 1.885169
372.2093, 2.569928
372.6914, 4.431303
373.1735, 4.972425
373.6556, 2.494814
374.1377, 0.4761790
374.6198, 0.5758000
375.1020, 2.093663
375.5841, 3.436330
376.0662, 3.569369
376.5483, 2.744712
377.0304, 2.132336
377.5125, 1.631205
377.9947, 1.537390
378.4768, 2.519051
378.9589, 3.594491
379.4410, 3.511940
379.9231, 1.915127
380.4052, 1.2963000E-02
380.8874, 0.2088910
381.3695, 2.157161
381.8516, 3.521239
382.3337, 2.964803
382.8158, 1.882931
383.2979, 0.6118290
383.7801, 0.6260640
384.2622, 1.363898
384.7443, 0.8467290
385.2264, 0.7431020
385.7085, 0.9182750
386.1906, 2.082056
386.6728, 3.904611
387.1549, 1.897796
387.6370, 2.017776
388.1191, 4.918309
388.6012, 5.467478
389.0833, 4.606356
389.5655, 3.895141
390.0476, 3.360126
390.5297, 2.856176
391.0118, 2.417761
391.4939, 1.937611
391.9760, 1.207979
392.4582, 0.1922770
392.9403, 0.5893910
393.4224, 0.6005110
393.9045, 4.4736002E-02
394.3866, 0.6234560
394.8687, 0.9502400
395.3509, 1.345251
395.8330, 2.159136
396.3151, 3.266593
396.7972, 4.259116
397.2793, 5.434905
397.7614, 6.200400
398.2436, 5.229855
398.7257, 2.356248
399.2078, 3.9793000E-02
399.6899, 0.1867710
400.1720, 1.094242
400.6541, 2.494153
401.1363, 4.180159
401.6184, 5.563641
402.1005, 5.997261
402.5826, 5.828549
403.0647, 6.193912
403.5468, 7.641957
404.0290, 9.164248
404.5111, 9.001838
404.9932, 6.976337
405.4753, 5.617634
405.9574, 6.042675
406.4395, 6.989083
406.9217, 7.060555
407.4038, 6.227527
407.8859, 5.750989
408.3680, 6.896523
408.8501, 9.393497
409.3322, 9.859194
409.8144, 6.563025
410.2965, 3.490265
410.7786, 1.832892
411.2607, 1.385339
411.7428, 1.947664
412.2249, 3.474752
412.7071, 5.347521
413.1892, 6.291139
413.6713, 5.096036
414.1534, 5.187598
414.6355, 7.852699
415.1176, 10.80113
415.5998, 12.34971
416.0819, 12.31807
416.5640, 11.79104
417.0461, 11.53617
417.5282, 11.49718
418.0103, 11.36057
418.4925, 10.90870
418.9746, 10.56471
419.4567, 10.32312
419.9388, 10.32208
420.4209, 10.91257
420.9030, 12.27741
421.3852, 13.71982
421.8673, 13.46849
422.3494, 10.13085
422.8315, 8.710466
423.3136, 10.98508
423.7957, 14.18233
424.2779, 17.23494
424.7600, 19.77149
425.2421, 21.23227
425.7242, 20.64648
426.2063, 18.30289
426.6884, 17.03691
427.1706, 17.11801
427.6527, 17.89473
428.1348, 19.49956
428.6169, 21.41479
429.0990, 22.91098
429.5811, 23.72511
430.0633, 24.07550
430.5454, 24.02515
431.0275, 23.55740
431.5096, 23.50994
431.9917, 24.24158
432.4738, 25.39657
432.9560, 26.71856
433.4381, 28.20105
433.9202, 29.30062
434.4023, 29.36952
434.8844, 28.94617
435.3665, 29.60502
435.8487, 31.63373
436.3308, 33.39119
436.8129, 33.28398
437.2950, 31.90334
437.7771, 31.81758
438.2592, 34.50318
438.7414, 36.97287
439.2235, 37.07324
439.7056, 35.73362
440.1877, 35.33992
440.6698, 36.85683
441.1519, 39.21759
441.6341, 40.75023
442.1162, 41.34040
442.5983, 41.32008
443.0804, 40.01619
443.5625, 38.58928
444.0446, 38.06517
444.5268, 38.28613
445.0089, 38.28489
445.4910, 37.02889
445.9731, 34.71213
446.4552, 33.36498
446.9373, 33.74926
447.4195, 33.83372
447.9016, 32.62875
448.3837, 31.32671
448.8658, 31.60128
449.3479, 33.82700
449.8300, 36.52021
450.3122, 37.53859
450.7943, 36.50669
451.2764, 35.16747
451.7585, 32.71378
452.2406, 30.73594
452.7227, 30.06993
453.2049, 30.31384
453.6870, 30.58693
454.1691, 30.40404
454.6512, 29.77945
455.1333, 28.53204
455.6154, 26.22510
456.0976, 24.61752
456.5797, 25.05302
457.0618, 25.94582
457.5439, 26.13581
458.0260, 25.46563
458.5081, 24.39219
458.9903, 22.85161
459.4724, 21.13978
459.9545, 20.45045
460.4366, 21.17830
460.9187, 22.36392
461.4008, 23.00951
461.8830, 23.19378
462.3651, 23.24830
462.8472, 23.63046
463.3293, 23.45441
463.8114, 21.39815
464.2935, 18.08004
464.7757, 15.87440
465.2578, 15.83385
465.7399, 16.81528
466.2220, 16.89267
466.7041, 15.81175
467.1862, 14.95557
467.6683, 14.46766
468.1505, 14.26604
468.6326, 14.60051
469.1147, 15.27052
469.5968, 15.43322
470.0789, 14.43645
470.5610, 12.46208
471.0432, 10.75512
471.5253, 8.835243
472.0074, 7.874155
472.4895, 8.619554
472.9716, 9.940227
473.4537, 10.73963
473.9359, 10.72470
474.4180, 10.14152
474.9001, 9.152277
475.3822, 7.558439
475.8643, 6.728293
476.3464, 7.079959
476.8286, 7.924372
477.3107, 10.02866
477.7928, 12.25340
478.2749, 12.50685
478.7570, 9.514700
479.2391, 5.468138
479.7213, 4.271698
480.2034, 6.320664
480.6855, 7.763589
481.1676, 7.336977
481.6497, 6.414851
482.1318, 6.018421
482.6140, 6.143056
483.0961, 6.569587
483.5782, 7.830272
484.0603, 9.066051
484.5424, 8.470579
485.0245, 5.921491
485.5067, 3.951393
485.9888, 4.335710
486.4709, 6.015172
486.9530, 6.105936
487.4351, 3.745387
487.9172, 1.803523
488.3994, 1.255712
488.8815, 1.685929
489.3636, 3.104032
489.8457, 5.376440
490.3278, 6.766044
490.8099, 5.266612
491.2921, 0.6797130
491.7742, 1.617679
492.2563, 0.3192320
492.7384, 1.362286
493.2205, 2.952318
493.7026, 4.164587
494.1848, 4.540743
494.6669, 3.940921
495.1490, 2.942821
495.6311, 2.524578
496.1132, 3.018784
496.5953, 3.016864
497.0775, 1.666423
497.5596, 0.6247460
498.0417, 0.7211330
498.5238, 1.654302
499.0059, 2.665903
499.4880, 3.443290
499.9702, 4.000074
500.4523, 4.408829
500.9344, 4.711696
501.4165, 4.603618
501.8986, 3.919622
502.3807, 2.830499
502.8629, 1.020872
503.3450, 1.404392
503.8271, 2.591802
504.3092, 0.5028990
504.7913, 2.875217
505.2734, 4.298700
505.7556, 3.605978
506.2377, 2.767359
506.7198, 3.059341
507.2019, 3.923353
507.6840, 3.556135
508.1661, 1.198418
508.6483, 0.7508380
509.1304, 1.985938
509.6125, 2.285309
510.0946, 0.9157930
510.5767, 1.973058
511.0588, 4.964519
511.5410, 6.642786
512.0231, 7.017231
512.5052, 7.525590
512.9873, 8.889400
513.4694, 9.526390
513.9515, 8.854143
514.4337, 7.423023
514.9158, 5.558432
515.3979, 3.456815
515.8800, 1.771383
516.3621, 1.783749
516.8442, 3.775941
517.3264, 3.983492
517.8085, 0.2676420
518.2906, 2.468762
518.7727, 1.296059
519.2548, 2.036388
519.7369, 4.622307
520.2191, 5.463261
520.7012, 5.325183
521.1833, 4.735505
521.6654, 3.785930
522.1475, 3.280503
522.6296, 3.612113
523.1118, 4.024331
523.5939, 3.259026
524.0760, 1.558622
524.5581, 1.063268
525.0402, 3.232131
525.5223, 5.745161
526.0045, 7.200938
526.4866, 7.636718
526.9687, 7.257255
527.4508, 6.105848
527.9329, 4.453047
528.4150, 2.791587
528.8972, 5.4977000E-02
529.3793, 0.6828600
529.8614, 3.230465
530.3435, 6.777821
530.8256, 6.656886
531.3077, 3.813455
531.7899, 0.9761370
532.2720, 0.3206290
532.7541, 0.2956730
533.2362, 0.7548770
533.7183, 3.523962
534.2004, 5.361608
534.6826, 4.859322
535.1647, 4.045287
535.6468, 4.304215
536.1289, 5.433918
536.6110, 6.099560
537.0931, 4.950782
537.5753, 3.116164
538.0574, 2.880795
538.5395, 4.315647
539.0216, 5.820715
539.5037, 7.117947
539.9858, 7.748129
540.4680, 6.504851
540.9501, 2.822223
541.4322, 0.6988830
541.9143, 2.665744
542.3964, 5.778378
542.8785, 6.913116
543.3607, 6.169114
543.8428, 5.683964
544.3249, 6.935735
544.8070, 9.253778
545.2891, 10.14712
545.7712, 8.188685
546.2534, 6.702087
546.7355, 5.555197
547.2176, 5.065394
547.6997, 6.118771
548.1818, 8.235291
548.6639, 9.583234
549.1461, 8.514137
549.6282, 5.600716
550.1103, 3.677667
550.5924, 2.559307
551.0745, 2.641867
551.5566, 5.898136
552.0388, 9.257468
552.5209, 9.949969
553.0030, 7.818333
553.4851, 5.506894
553.9672, 4.711387
554.4493, 4.659167
554.9315, 3.514771
555.4136, 1.177807
555.8957, 0.2449700
556.3778, 2.758592
556.8599, 7.145886
557.3420, 8.970004
557.8242, 7.285265
558.3063, 5.821051
558.7884, 4.805140
559.2705, 4.640380
559.7526, 6.649648
560.2347, 10.19815
560.7169, 12.37342
561.1990, 10.76424
561.6811, 6.407102
562.1632, 4.258052
562.6453, 5.622972
563.1274, 6.732466
563.6096, 7.604358
564.0917, 7.788537
564.5738, 6.654431
565.0559, 4.397300
565.5380, 2.030701
566.0201, 8.9769997E-03
566.5023, 1.561818
566.9844, 2.085776
567.4665, 1.477993
567.9486, 0.1917860
568.4307, 4.075383
568.9128, 7.834851
569.3950, 8.043117
569.8771, 4.366518
570.3592, 1.316083
570.8413, 0.6744330
571.3234, 1.161955
571.8055, 1.841634
572.2877, 2.507591
572.7698, 2.524153
573.2519, 1.377163
573.7340, 0.1337870
574.2161, 0.1157670
574.6982, 4.020314
575.1804, 6.392396
575.6625, 5.734326
576.1446, 4.773787
576.6267, 6.056920
577.1088, 8.830705
577.5909, 10.62796
578.0731, 9.979937
578.5552, 7.730770
579.0373, 5.427430
579.5194, 2.871281
580.0015, 1.411819
580.4836, 1.688753
580.9658, 2.825716
581.4479, 4.523081
581.9300, 6.546751
582.4121, 7.918593
582.8942, 8.236546
583.3763, 7.791678
583.8585, 6.711883
584.3406, 5.084581
584.8227, 2.879581
585.3048, 0.1533510
585.7869, 2.390061
586.2690, 1.774678
586.7512, 2.787767
587.2333, 5.504827
587.7154, 4.968733
588.1975, 4.417870
588.6796, 5.465175
589.1617, 7.372906
589.6439, 8.908703
590.1260, 9.553191
590.6081, 9.673649
591.0902, 9.652255
591.5723, 9.407457
592.0544, 9.309337
592.5366, 9.234547
593.0187, 9.513601
593.5008, 10.78351
593.9829, 12.31176
594.4650, 12.86472
594.9471, 11.90122
595.4293, 10.89824
595.9114, 11.48627
596.3935, 12.79627
596.8756, 12.14995
597.3577, 9.052804
597.8398, 7.140460
598.3220, 9.954269
598.8041, 16.40536
599.2862, 18.81924
599.7683, 13.11421
600.2504, 9.451593
600.7325, 11.11099
601.2147, 14.36758
601.6968, 15.72912
602.1789, 14.95604
602.6610, 13.94812
603.1431, 14.29702
603.6252, 15.56122
604.1074, 15.66370
604.5895, 13.98413
605.0716, 12.76678
605.5537, 12.73366
606.0358, 13.25460
606.5179, 14.23790
607.0001, 15.52349
607.4822, 16.21965
607.9643, 15.21925
608.4464, 13.84231
608.9285, 14.02047
609.4106, 15.45335
609.8928, 16.10246
610.3749, 14.96919
610.8570, 13.50449
611.3391, 14.12997
611.8212, 17.90236
612.3033, 19.45611
612.7855, 16.97574
613.2676, 14.30561
613.7497, 12.67783
614.2318, 12.16783
614.7139, 13.01807
615.1960, 15.23176
615.6782, 17.44973
616.1603, 17.53445
616.6424, 15.35610
617.1245, 14.12240
617.6066, 14.55427
618.0887, 14.74627
618.5709, 13.08176
619.0530, 10.84895
619.5351, 10.04901
620.0172, 11.32567
620.4993, 12.38648
620.9814, 11.72373
621.4636, 10.17865
621.9457, 8.960359
622.4278, 8.211536
622.9099, 7.745578
623.3920, 7.431386
623.8741, 7.620218
624.3563, 7.487557
624.8384, 8.521523
625.3205, 9.330928
625.8026, 10.53277
626.2847, 10.99051
626.7668, 9.492867
627.2490, 6.651551
627.7311, 4.075630
628.2132, 2.398869
628.6953, 1.783535
629.1774, 3.873150
629.6595, 8.824450
630.1417, 11.77051
630.6238, 11.26703
631.1059, 9.514200
631.5880, 8.465777
632.0701, 7.878554
632.5522, 6.860737
633.0344, 4.700011
633.5165, 2.771972
633.9986, 1.914104
634.4807, 1.667527
634.9628, 1.183002
635.4449, 0.3568700
635.9271, 5.5124000E-02
636.4092, 0.6714130
636.8913, 2.451608
637.3734, 4.448723
637.8555, 7.662195
638.3376, 9.415948
638.8198, 8.547144
639.3019, 6.830554
639.7840, 5.083254
640.2661, 3.672990
640.7482, 3.512201
641.2303, 6.679188
641.7125, 10.26780
642.1946, 8.237357
642.6767, 1.265739
643.1588, 2.442622
643.6409, 0.3821740
644.1230, 5.291457
644.6052, 6.508759
645.0873, 3.252294
645.5694, 1.750180
646.0515, 4.017484
646.5336, 5.754510
647.0157, 4.667810
647.4979, 2.302839
647.9800, 0.7554810
648.4621, 0.5498350
648.9442, 0.8387750
649.4263, 0.6728390
649.9084, 0.1684020
650.3906, 0.5616460
650.8727, 2.293031
651.3548, 3.742422
651.8369, 3.990709
652.3190, 3.913802
652.8011, 5.084329
653.2833, 7.754314
653.7654, 8.874246
654.2475, 4.737514
654.7296, 5.8821000E-02
655.2117, 9.3284003E-02
655.6938, 3.461664
656.1760, 6.450874
656.6581, 7.243758
657.1402, 7.097535
657.6223, 7.961198
658.1044, 10.25564
658.5865, 11.02607
659.0687, 8.523456
659.5508, 6.434604
660.0329, 6.152683
660.5150, 6.507352
660.9971, 5.905376
661.4792, 4.075413
661.9614, 2.563702
662.4435, 2.965949
662.9256, 4.498626
663.4077, 5.278222
663.8898, 5.248897
664.3719, 5.581473
664.8541, 7.135245
665.3362, 8.766610
665.8183, 8.100791
666.3004, 3.777838
666.7825, 2.132929
667.2646, 6.189241
667.7468, 9.926718
668.2289, 9.808229
668.7110, 7.523256
669.1931, 6.034639
669.6752, 6.310877
670.1573, 7.103305
670.6395, 6.507313
671.1216, 4.742964
671.6037, 5.332041
672.0858, 9.506051
672.5679, 12.15280
673.0500, 9.549148
673.5322, 4.949405
674.0143, 3.554105
674.4964, 5.939745
674.9785, 7.455694
675.4606, 6.197909
675.9427, 4.028208
676.4249, 1.702995
676.9070, 0.2216910
677.3891, 0.2779080
677.8712, 2.086040
678.3533, 4.926833
678.8354, 5.182152
679.3176, 2.459079
679.7997, 1.014031
680.2818, 1.685589
680.7639, 2.376631
681.2460, 2.223907
681.7281, 1.789403
682.2103, 1.637089
682.6924, 1.846913
683.1745, 2.329861
683.6566, 3.891806
684.1387, 5.158060
684.6208, 3.193758
685.1030, 1.008855
685.5851, 2.132677
686.0672, 2.387888
686.5493, 8.322681
687.0314, 8.849996
687.5135, 2.329139
687.9957, 0.7521950
688.4778, 3.649066
688.9599, 6.829672
689.4420, 5.027486
689.9241, 1.741329
690.4063, 1.458901
690.8884, 4.815038
691.3705, 7.842135
691.8526, 6.720861
692.3347, 3.633044
692.8168, 3.025553
693.2990, 4.769248
693.7811, 5.895631
694.2632, 5.191113
694.7453, 3.640974
695.2274, 2.460580
695.7095, 1.578625
696.1917, 1.628116
696.6738, 3.501376
697.1559, 5.151847
697.6380, 6.134552
698.1201, 6.449169
698.6022, 5.687487
699.0844, 4.044519
699.5665, 3.001209
700.0486, 4.221539
700.5307, 6.727762
701.0128, 7.848923
701.4949, 7.858387
701.9771, 7.070642
702.4592, 5.244007
702.9413, 3.336701
703.4234, 2.474685
703.9055, 2.723546
704.3876, 3.149236
704.8698, 3.921132
705.3519, 4.654718
705.8340, 5.086720
706.3161, 5.479551
706.7982, 6.627509
707.2803, 8.279973
707.7625, 8.667132
708.2446, 5.924262
708.7267, 1.449170
709.2088, 0.4891680
709.6909, 0.4130760
710.1730, 0.3003010
710.6552, 2.648075
711.1373, 5.239167
711.6194, 3.870246
712.1015, 0.7211510
712.5836, 3.834953
713.0657, 4.479796
713.5479, 4.537930
714.0300, 4.335021
714.5121, 4.016121
714.9942, 3.429253
715.4763, 2.803213
715.9584, 3.068471
716.4406, 5.010448
716.9227, 7.697034
717.4048, 8.874513
717.8869, 8.415034
718.3690, 7.616254
718.8511, 6.284917
719.3333, 5.283929
719.8154, 5.509161
720.2975, 6.541820
720.7796, 7.425767
721.2617, 8.347536
721.7438, 8.581083
722.2260, 7.517483
722.7081, 5.921166
723.1902, 3.989997
723.6723, 2.175250
724.1544, 1.618325
724.6365, 2.956412
725.1187, 5.160808
725.6008, 6.513842
726.0829, 6.962327
726.5650, 7.157210
727.0471, 7.011612
727.5292, 6.854929
728.0114, 6.981544
728.4935, 7.140239
728.9756, 6.892186
729.4577, 6.128547
729.9398, 5.428565
730.4219, 4.946702
730.9041, 4.593974
731.3862, 4.327291
731.8683, 4.127651
732.3504, 4.008376
732.8325, 3.958610
733.3146, 3.854074
733.7968, 3.497070
734.2789, 2.915257
734.7610, 2.548074
735.2431, 2.521824
735.7252, 2.469130
736.2073, 2.039533
736.6895, 1.637409
737.1716, 1.905298
737.6537, 2.800423
738.1358, 3.157347
738.6179, 2.002486
739.1000, 1.049730
739.5822, 1.340812
740.0643, 2.358836
740.5464, 3.415296
741.0285, 4.344263
741.5106, 5.330540
741.9927, 6.616134
742.4749, 7.948765
742.9570, 8.423624
743.4391, 8.043993
743.9212, 6.936028
744.4033, 4.028399
744.8854, 1.604332
745.3676, 2.095629
745.8497, 4.569754
746.3318, 6.375574
746.8139, 7.133278
747.2960, 7.279016
747.7781, 6.567432
748.2603, 5.582819
748.7424, 4.967833
749.2245, 4.603280
749.7066, 3.828153
750.1887, 2.255992
750.6708, 0.6241170
751.1530, 2.0136001E-02
751.6351, 0.4417610
752.1172, 1.873097
752.5993, 4.854876
753.0814, 6.893381
753.5635, 5.924631
754.0457, 3.680549
754.5278, 4.094047
755.0099, 8.220832
755.4920, 9.827590
755.9741, 5.191125
756.4562, 0.9363180
756.9384, 1.726392
757.4205, 4.838659
757.9026, 5.689316
758.3847, 3.303071
758.8668, 0.4982960
759.3489, 0.1897270
759.8311, 0.7495210
760.3132, 2.143673
760.7953, 4.003870
761.2774, 5.447228
761.7595, 6.202486
762.2416, 6.523071
762.7238, 6.477509
763.2059, 5.996353
763.6880, 5.441449
764.1701, 3.965943
764.6522, 3.564467
765.1343, 5.283304
765.6165, 7.641893
766.0986, 10.53204
766.5807, 12.97915
767.0628, 12.22831
767.5449, 6.268260
768.0270, 0.2312260
768.5092, 0.8253510
768.9913, 2.679797
769.4734, 3.990437
769.9555, 2.508709
770.4376, 1.263057
770.9197, 2.286492
771.4019, 4.516580
771.8840, 5.561473
772.3661, 5.067309
772.8482, 4.393332
773.3303, 3.200093
773.8124, 2.252833
774.2946, 1.922187
774.7767, 1.835074
775.2588, 1.144925
775.7409, 0.1864430
776.2230, 0.4606390
776.7051, 2.725886
777.1873, 6.621808
777.6694, 7.113391
778.1515, 5.200353
778.6336, 4.226077
779.1157, 5.066314
779.5978, 6.050959
780.0800, 5.492200
780.5621, 3.681560
781.0442, 2.500365
781.5263, 1.938010
782.0084, 2.181830
782.4905, 4.323514
782.9727, 5.964828
783.4548, 5.122819
783.9369, 2.718117
784.4190, 1.071169
784.9011, 0.8398760
785.3832, 0.9072770
785.8654, 0.8735010
786.3475, 0.7897360
786.8296, 0.6084960
787.3117, 0.4264890
787.7938, 0.6134670
788.2759, 1.323520
788.7581, 1.984451
789.2402, 1.460498
789.7223, 0.1407120
790.2044, 0.1130950
790.6865, 2.084592
791.1686, 3.658666
791.6508, 3.354307
792.1329, 2.192104
792.6150, 1.154408
793.0971, 0.2329210
793.5792, 0.3528290
794.0613, 2.534696
794.5435, 4.558177
795.0256, 6.089035
795.5077, 6.885458
795.9898, 6.334506
796.4719, 4.783622
796.9540, 3.414699
797.4362, 2.770071
797.9183, 2.994651
798.4004, 5.118650
798.8825, 8.372071
799.3646, 9.334184
799.8467, 7.549634
800.3289, 5.572371
800.8110, 4.742891
801.2931, 4.909606
801.7752, 5.916043
802.2573, 8.448672
802.7394, 9.502237
803.2216, 7.790648
803.7037, 6.226921
804.1858, 5.446116
804.6679, 5.190665
805.1500, 5.091984
805.6321, 5.080877
806.1143, 5.064073
806.5964, 5.170684
807.0785, 5.090302
807.5606, 4.280328
808.0427, 3.177752
808.5248, 2.635242
809.0070, 2.774779
809.4891, 3.272824
809.9712, 3.971833
810.4533, 4.548178
810.9354, 3.855602
811.4175, 1.616189
811.8997, 0.5326190
812.3818, 1.012212
812.8639, 1.950477
813.3460, 2.900858
813.8281, 3.898378
814.3102, 5.194505
814.7924, 7.163094
815.2745, 7.923627
815.7566, 6.240237
816.2387, 4.356394
816.7208, 2.799866
817.2029, 2.052689
817.6851, 3.649201
818.1672, 7.232524
818.6493, 9.040044
819.1314, 4.887706
819.6135, 1.062779
820.0956, 1.142186
820.5778, 3.280461
821.0599, 5.873133
821.5420, 5.328066
822.0241, 4.035310
822.5062, 3.689271
822.9883, 4.046180
823.4705, 4.318135
823.9526, 4.425159
824.4347, 4.636427
824.9168, 4.875654
825.3989, 5.322982
825.8810, 6.369392
826.3632, 7.460242
826.8453, 7.995821
827.3274, 7.839125
827.8095, 7.169019
828.2916, 5.367744
828.7737, 3.755825
829.2559, 3.822820
829.7380, 4.511969
830.2201, 3.509030
830.7022, 0.8322250
831.1843, 0.6081920
831.6664, 1.730818
832.1486, 5.926622
832.6307, 8.044196
833.1128, 8.111632
833.5949, 6.131259
834.0770, 1.439599
834.5591, 1.834207
835.0413, 0.8259130
835.5233, 2.960364
836.0054, 6.112542
836.4875, 9.031129
836.9697, 10.13027
837.4518, 8.628098
837.9339, 6.397812
838.4160, 2.928868
838.8981, 0.2584060
839.3802, 1.312294
839.8624, 0.2465920
840.3445, 1.066470
840.8266, 1.354064
841.3087, 1.968151
841.7908, 5.057749
842.2729, 8.825808
842.7551, 9.805932
843.2372, 7.980026
843.7193, 6.137096
844.2014, 6.005604
844.6835, 6.737353
845.1656, 6.645746
845.6478, 5.720732
846.1299, 5.657705
846.6120, 6.916955
847.0941, 7.352238
847.5762, 5.617295
848.0583, 3.134242
848.5405, 2.060012
849.0226, 2.564171
849.5047, 2.920448
849.9868, 2.712354
850.4689, 2.909136
850.9510, 4.210075
851.4332, 5.604304
851.9153, 6.209796
852.3974, 6.156337
852.8795, 6.056048
853.3616, 6.102042
853.8438, 6.294956
854.3259, 7.051552
854.8080, 7.713508
855.2901, 6.819444
855.7722, 4.860389
856.2543, 4.169324
856.7365, 5.647192
857.2186, 7.248453
857.7007, 6.070432
858.1828, 2.728726
858.6649, 2.397851
859.1470, 5.894456
859.6292, 6.949243
860.1113, 2.869445
860.5934, 1.538075
861.0755, 2.071119
861.5576, 0.5975600
862.0397, 3.079581
862.5219, 6.450565
863.0040, 7.832574
863.4861, 5.505231
863.9682, 2.958413
864.4503, 1.367087
864.9324, 0.6672010
865.4146, 1.238479
865.8967, 3.076378
866.3788, 4.785551
866.8609, 6.006564
867.3430, 6.331402
867.8251, 4.712107
868.3073, 2.099682
868.7894, 5.1452000E-02
869.2715, 1.256475
869.7536, 0.5838160
870.2357, 2.891186
870.7178, 7.307533
871.2000, 8.607362
871.6821, 6.871506
872.1642, 5.102681
872.6463, 3.401814
873.1284, 2.339384
873.6105, 2.384772
874.0927, 2.857797
874.5748, 2.582363
875.0569, 1.341679
875.5390, 1.255069
876.0211, 3.683416
876.5032, 5.525117
876.9854, 6.467412
877.4675, 6.508814
877.9496, 5.104458
878.4317, 2.960750
878.9138, 1.876129
879.3959, 2.756177
879.8781, 3.560036
880.3602, 2.656316
880.8423, 1.697939
881.3244, 2.286552
881.8065, 4.038788
882.2886, 6.112494
882.7708, 8.110030
883.2529, 9.332301
883.7350, 8.885164
884.2171, 7.427197
884.6992, 6.421753
885.1813, 5.822278
885.6635, 5.199612
886.1456, 4.441545
886.6277, 4.289943
887.1098, 5.450337
887.5919, 7.165881
888.0740, 7.360734
888.5562, 5.460594
889.0383, 4.214502
889.5204, 4.185791
890.0025, 4.025595
890.4846, 3.023651
890.9667, 1.832115
891.4489, 1.020008
891.9310, 0.6025480
892.4131, 0.5873530
892.8952, 1.661680
893.3773, 2.758128
893.8594, 2.823790
894.3416, 2.961495
894.8237, 5.626557
895.3058, 9.304251
895.7879, 10.00417
896.2700, 6.257982
896.7521, 2.291416
897.2343, 1.390737
897.7164, 2.414685
898.1985, 4.403383
898.6806, 6.608218
899.1627, 6.574970
899.6448, 4.000953
900.1270, 2.050955
900.6091, 3.548293
901.0912, 6.912835
901.5733, 7.836560
902.0554, 6.272123
902.5375, 5.291611
903.0197, 5.382080
903.5018, 4.942396
903.9839, 2.807760
904.4660, 0.3379010
904.9481, 0.2192080
905.4302, 1.349099
905.9124, 2.778631
906.3945, 4.584277
906.8766, 5.482588
907.3587, 4.599464
907.8408, 3.383259
908.3229, 2.555762
908.8051, 2.227871
909.2872, 2.627464
909.7693, 4.059413
910.2514, 5.364378
910.7335, 6.443697
911.2156, 6.914743
911.6978, 6.076794
912.1799, 4.623092
912.6620, 3.414356
913.1441, 2.741300
913.6262, 2.961089
914.1083, 4.924864
914.5905, 6.842450
915.0726, 5.705097
915.5547, 2.843971
916.0368, 1.587444
916.5189, 2.132823
917.0010, 2.959146
917.4832, 3.328912
917.9653, 3.202177
918.4474, 2.061643
918.9295, 0.2075080
919.4116, 1.055962
919.8937, 5.156302
920.3759, 6.531102
920.8580, 2.737907
921.3401, 1.416406
921.8222, 1.926904
922.3043, 0.2969010
922.7864, 1.753256
923.2686, 1.743912
923.7507, 2.498334
924.2328, 5.218789
924.7149, 7.276122
925.1970, 7.938106
925.6791, 7.435489
926.1613, 5.291171
926.6434, 1.787023
927.1255, 0.1043970
927.6076, 2.219237
928.0897, 4.059015
928.5718, 2.497125
929.0540, 0.6539310
929.5361, 1.732949
930.0182, 4.636767
930.5003, 6.651555
930.9824, 6.899430
931.4645, 6.163838
931.9467, 4.575398
932.4288, 2.701243
932.9109, 0.7124210
933.3930, 0.8702210
933.8751, 0.5182610
934.3572, 1.737999
934.8394, 4.074468
935.3215, 5.347106
935.8036, 5.887582
936.2857, 6.470643
936.7678, 6.918985
937.2499, 5.308084
937.7321, 1.483637
938.2142, 0.5293680
938.6963, 0.9005090
939.1784, 3.404519
939.6605, 4.597820
940.1426, 4.616737
940.6248, 4.200689
941.1069, 3.153899
941.5890, 2.193084
942.0711, 0.8524640
942.5532, 0.5317920
943.0353, 2.826037
943.5175, 6.003197
943.9996, 7.132937
944.4817, 6.044436
944.9638, 5.248447
945.4459, 4.752938
945.9280, 4.663303
946.4102, 5.198224
946.8923, 5.972625
947.3744, 7.183716
947.8565, 8.329718
948.3386, 8.245036
948.8207, 6.539717
949.3029, 4.556148
949.7850, 2.516218
950.2671, 0.7451410
950.7492, 1.620119
951.2313, 3.074797
951.7134, 8.9550000E-03
952.1956, 6.506274
952.6777, 10.08611
953.1598, 6.600441
953.6419, 1.663311
954.1240, 1.731351
954.6061, 4.408163
955.0883, 5.361440
955.5704, 4.800622
956.0525, 4.678587
956.5346, 5.597607
957.0167, 6.778904
957.4988, 7.574616
957.9810, 7.982066
958.4631, 7.882836
958.9452, 7.323584
959.4273, 6.806060
959.9094, 6.356437
960.3915, 6.664634
960.8737, 8.265721
961.3558, 9.923828
961.8379, 9.629591
962.3200, 10.81977
962.8021, 11.59096
963.2842, 10.86846
963.7664, 12.65421
964.2485, 10.84156
964.7306, 9.245358
965.2127, 10.22679
965.6948, 13.03729
966.1769, 16.13920
966.6591, 19.76427
967.1412, 22.76546
967.6233, 24.23587
968.1054, 26.29622
968.5875, 29.64633
969.0696, 33.53632
969.5518, 37.55825
970.0339, 41.60548
970.5160, 45.69370
970.9981, 50.03239
971.4802, 53.53438
971.9623, 55.11997
972.4445, 56.72980
972.9266, 60.00177
973.4087, 63.58816
973.8908, 64.66514
974.3729, 64.02748
974.8550, 66.70064
975.3372, 76.36606
975.8193, 85.95940
976.3014, 88.72558
976.7835, 90.00556
977.2656, 96.16410
977.7477, 105.7202
978.2299, 114.9597
978.7120, 122.6918
979.1941, 128.8762
979.6762, 132.8344
980.1583, 137.2189
980.6404, 146.3369
981.1226, 158.0740
981.6047, 168.2794
982.0868, 175.8799
982.5689, 178.2093
983.0510, 174.2134
983.5331, 165.7155
984.0153, 154.5303
984.4974, 140.6447
984.9795, 122.4076
985.4616, 100.4641
985.9437, 83.36132
986.4258, 72.43117
986.9080, 63.46260
987.3901, 54.22160
987.8722, 45.45290
988.3543, 38.21995
988.8364, 32.52243
989.3185, 28.59310
989.8007, 26.90936
990.2828, 24.63361
990.7649, 20.83805
991.2470, 17.38149
991.7291, 15.66575
992.2112, 15.14149
992.6934, 14.66648
993.1755, 14.38756
993.6576, 13.27465
994.1397, 10.35000
994.6218, 8.356871
995.1039, 8.303818
995.5861, 8.941275
996.0682, 9.966069
996.5503, 10.93443
997.0324, 10.19525
997.5145, 6.808815
997.9966, 4.543619
998.4788, 4.278026
998.9609, 4.345006
999.4430, 4.124204
999.9251, 4.082530
1000.407, 5.299313
1000.889, 7.081132
1001.371, 6.770554
1001.854, 2.535897
1002.336, 0.1950950
1002.818, 3.987274
1003.300, 7.401688
1003.782, 5.983654
1004.264, 2.556250
1004.746, 0.4005670
1005.228, 0.2226820
1005.711, 0.5962280
1006.193, 1.411043
1006.675, 1.435805
1007.157, 0.8444020
1007.639, 3.526080
1008.121, 5.019057
1008.603, 5.496074
1009.085, 5.424212
1009.567, 5.309085
1010.050, 5.430840
1010.532, 6.277280
1011.014, 6.717864
1011.496, 4.952708
1011.978, 2.594198
1012.460, 2.213652
1012.942, 3.179314
1013.424, 3.506687
1013.906, 2.749614
1014.389, 1.873608
1014.871, 1.466932
1015.353, 1.645476
1015.835, 3.086625
1016.317, 5.074357
1016.799, 5.679191
1017.281, 5.090128
1017.763, 4.860513
1018.246, 5.450415
1018.728, 5.929264
1019.210, 5.517998
1019.692, 4.303327
1020.174, 1.686409
1020.656, 1.683484
1021.138, 2.014783
1021.620, 0.7223480
1022.102, 2.918664
1022.585, 3.191481
1023.067, 2.634348
1023.549, 2.198185
1024.031, 2.112802
1024.513, 3.737579
1024.995, 6.980483
1025.477, 7.487260
1025.959, 4.694714
1026.442, 1.955616
1026.924, 0.6510770
1027.406, 5.5011999E-02
1027.888, 0.7381300
1028.370, 1.494706
1028.852, 0.5732450
1029.334, 2.480427
1029.816, 3.506554
1030.298, 1.491902
1030.781, 0.4419940
1031.263, 2.597814
1031.745, 5.303898
1032.227, 5.102566
1032.709, 2.434652
1033.191, 1.098411
1033.673, 1.249316
1034.155, 2.416919
1034.638, 5.326049
1035.120, 7.488031
1035.602, 7.875250
1036.084, 6.785206
1036.566, 4.014209
1037.048, 0.1838640
1037.530, 1.567252
1038.012, 1.841195
1038.495, 3.565120
1038.977, 1.869325
1039.459, 0.5689810
1039.941, 1.683097
1040.423, 3.774961
1040.905, 5.098982
1041.387, 5.678734
1041.869, 6.182159
1042.351, 6.797879
1042.833, 7.024765
1043.316, 7.178699
1043.798, 6.530674
1044.280, 3.404401
1044.762, 0.1962890
1045.244, 0.4339970
1045.726, 3.844890
1046.208, 5.508019
1046.690, 3.346514
1047.173, 2.330400
1047.655, 3.953909
1048.137, 5.498494
1048.619, 5.788591
1049.101, 5.310799
1049.583, 4.364208
1050.065, 3.092571
1050.547, 2.536273
1051.030, 3.836628
1051.512, 4.211549
1051.994, 1.563491
1052.476, 0.1488180
1052.958, 2.652347
1053.440, 6.396239
1053.922, 6.141000
1054.404, 2.347936
1054.886, 0.3153780
1055.369, 2.155702
1055.851, 3.747204
1056.333, 4.051342
1056.815, 3.990982
1057.297, 4.064060
1057.779, 4.037709
1058.261, 3.287928
1058.743, 2.042851
1059.225, 2.122437
1059.708, 5.357616
1060.190, 7.042750
1060.672, 4.146983
1061.154, 1.150022
1061.636, 0.2301980
1062.118, 0.7976830
1062.600, 2.981553
1063.082, 5.937081
1063.565, 6.547278
1064.047, 2.622809
1064.529, 0.3957520
1065.011, 4.358229
1065.493, 8.183911
1065.975, 8.014868
1066.457, 5.960747
1066.939, 3.874149
1067.422, 2.278406
1067.904, 1.935637
1068.386, 3.610201
1068.868, 4.786301
1069.350, 3.783800
1069.832, 2.890579
1070.314, 3.940774
1070.796, 5.340059
1071.278, 4.731358
1071.760, 2.956513
1072.243, 3.290693
1072.725, 7.092950
1073.207, 9.552016
1073.689, 7.074981
1074.171, 4.459923
1074.653, 4.717392
1075.135, 5.987218
1075.617, 6.518088
1076.100, 6.316386
1076.582, 5.867424
1077.064, 5.279541
1077.546, 4.787233
1078.028, 4.749955
1078.510, 4.411511
1078.992, 3.195557
1079.474, 2.008065
1079.957, 1.218903
1080.439, 0.9821940
1080.921, 1.554194
1081.403, 2.972281
1081.885, 4.515656
1082.367, 6.464625
1082.849, 7.703690
1083.331, 7.246445
1083.813, 6.217729
1084.296, 5.224307
1084.778, 4.529758
1085.260, 4.507640
1085.742, 5.120201
1086.224, 5.760441
1086.706, 6.239377
1087.188, 6.607066
1087.670, 7.099016
1088.152, 7.383507
1088.635, 6.503921
1089.117, 5.638341
1089.599, 7.235765
1090.081, 10.93942
1090.563, 12.69512
1091.045, 9.984156
1091.527, 7.613353
1092.009, 8.126195
1092.491, 9.039648
1092.974, 8.862742
1093.456, 8.040616
1093.938, 6.851728
1094.420, 5.637164
1094.902, 5.484196
1095.384, 7.188056
1095.866, 8.132831
1096.348, 6.210218
1096.831, 4.337202
1097.313, 4.065029
1097.795, 4.616635
1098.277, 5.318611
1098.759, 6.089058
1099.241, 6.890391
1099.723, 7.796492
1100.205, 8.581829
1100.688, 9.326659
1101.170, 9.739330
1101.652, 9.999473
1102.134, 9.601981
1102.616, 7.681448
1103.098, 4.954998
1103.580, 2.684135
1104.062, 1.048645
1104.544, 0.2160890
1105.026, 0.7149350
1105.509, 1.351757
1105.991, 1.627185
1106.473, 2.116902
1106.955, 3.635282
1107.437, 5.360091
1107.919, 5.766743
1108.401, 4.877325
1108.883, 4.950591
1109.366, 7.628754
1109.848, 9.281008
1110.330, 9.408145
1110.812, 8.408180
1111.294, 4.913643
1111.776, 1.492745
1112.258, 1.286943
1112.740, 3.815394
1113.223, 5.974519
1113.705, 8.503045
1114.187, 8.638793
1114.669, 3.870117
1115.151, 0.1776150
1115.633, 2.332824
1116.115, 2.759109
1116.597, 0.9030750
1117.079, 2.440320
1117.562, 5.349887
1118.044, 8.184832
1118.526, 8.982058
1119.008, 6.314569
1119.490, 4.038970
1119.972, 2.585265
1120.454, 2.021634
1120.936, 2.654694
1121.418, 3.996261
1121.901, 5.331525
1122.383, 6.670891
1122.865, 7.439142
1123.347, 7.511275
1123.829, 7.437384
1124.311, 7.762425
1124.793, 6.601779
1125.275, 1.827926
1125.758, 2.610266
1126.240, 1.654000
1126.722, 3.462329
1127.204, 5.869757
1127.686, 4.848291
1128.168, 4.624963
1128.650, 5.504526
1129.132, 6.630775
1129.615, 8.013046
1130.097, 8.399798
1130.579, 6.366659
1131.061, 7.721704
1131.543, 3.777628
1132.025, 7.412100
1132.507, 8.426892
1132.989, 6.601512
1133.471, 5.946561
1133.953, 7.378270
1134.436, 8.223822
1134.918, 6.816569
1135.400, 5.077280
1135.882, 6.071495
1136.364, 5.248047
1136.846, 5.176438
1137.328, 6.278637
1137.810, 5.806792
1138.293, 7.711010
1138.775, 9.449142
1139.257, 10.00286
1139.739, 9.100965
1140.221, 6.021263
1140.703, 2.500491
1141.185, 2.682277
1141.667, 5.045304
1142.150, 4.803642
1142.632, 2.391320
1143.114, 0.2654620
1143.596, 0.8723940
1144.078, 0.9071880
1144.560, 0.2856110
1145.042, 1.981808
1145.524, 3.547652
1146.006, 4.907677
1146.489, 6.399155
1146.971, 7.401056
1147.453, 5.519233
1147.935, 1.954646
1148.417, 1.778965
1148.899, 6.535866
1149.381, 10.71329
1149.863, 9.743947
1150.345, 7.251295
1150.828, 6.031607
1151.310, 5.484007
1151.792, 5.078552
1152.274, 4.764570
1152.756, 4.497341
1153.238, 4.334236
1153.720, 4.743510
1154.202, 6.517617
1154.685, 7.057503
1155.167, 3.379320
1155.649, 2.5376000E-02
1156.131, 0.4568990
1156.613, 0.9112360
1157.095, 3.599126
1157.577, 6.640103
1158.059, 7.938977
1158.542, 6.974320
1159.024, 5.599467
1159.506, 3.128165
1159.988, 1.897198
1160.470, 4.177597
1160.952, 6.150719
1161.434, 4.542800
1161.916, 1.721187
1162.398, 1.494453
1162.880, 3.773370
1163.363, 4.752933
1163.845, 3.352169
1164.327, 2.625702
1164.809, 3.165897
1165.291, 3.340548
1165.773, 2.104609
1166.255, 1.147050
1166.737, 1.991506
1167.220, 4.051572
1167.702, 6.031449
1168.184, 8.084832
1168.666, 8.194885
1169.148, 5.774492
1169.630, 4.295565
1170.112, 4.475281
1170.594, 4.874829
1171.077, 4.994938
1171.559, 5.295569
1172.041, 6.567675
1172.523, 8.205747
1173.005, 7.336493
1173.487, 7.665512
1173.969, 7.306528
1174.451, 5.560448
1174.933, 5.737907
1175.416, 2.867128
1175.898, 0.5544270
1176.380, 1.401360
1176.862, 3.336896
1177.344, 3.392957
1177.826, 2.253673
1178.308, 1.055793
1178.790, 9.3217999E-02
1179.272, 5.6754999E-02
1179.755, 0.9804570
1180.237, 3.166895
1180.719, 6.478262
1181.201, 7.909757
1181.683, 3.605683
1182.165, 0.5119820
1182.647, 3.119414
1183.129, 8.449992
1183.612, 8.148099
1184.094, 4.740554
1184.576, 2.483086
1185.058, 1.832604
1185.540, 1.590060
1186.022, 1.429687
1186.504, 1.220238
1186.986, 0.6945410
1187.469, 0.3772250
1187.951, 0.6183360
1188.433, 1.085367
1188.915, 1.424749
1189.397, 1.888194
1189.879, 3.084189
1190.361, 4.915856
1190.843, 5.851945
1191.325, 5.308023
1191.807, 4.748627
1192.290, 3.632587
1192.772, 3.497998
1193.254, 6.036702
1193.736, 8.129830
1194.218, 6.707395
1194.700, 3.084052
1195.182, 0.5163980
1195.664, 1.019547
1196.147, 0.9021630
1196.629, 1.369073
1197.111, 2.316589
1197.593, 1.107800
1198.075, 0.6605130
1198.557, 2.479384
1199.039, 4.862191
1199.521, 6.038661
1200.004, 6.130412
1200.486, 4.910536
1200.968, 5.586879
1201.450, 2.909765
1201.932, 4.715298
1202.414, 5.060248
1202.896, 3.528755
1203.378, 3.292235
1203.860, 6.126907
1204.343, 8.833905
1204.825, 7.091582
1205.307, 4.179051
1205.789, 4.899070
1206.271, 7.045725
1206.753, 7.428755
1207.235, 6.375910
1207.717, 4.880837
1208.199, 3.477833
1208.682, 3.598869
1209.164, 6.633254
1209.646, 8.900717
1210.128, 7.619678
1210.610, 6.182610
1211.092, 7.639801
1211.574, 8.931741
1212.056, 5.810056
1212.539, 0.6745770
1213.021, 0.6387180
1213.503, 2.679938
1213.985, 4.900454
1214.467, 5.217685
1214.949, 5.194815
1215.431, 4.523468
1215.913, 4.248796
1216.396, 5.253824
1216.878, 5.834774
1217.360, 3.936807
1217.842, 1.077545
1218.324, 1.497864
1218.806, 5.295555
1219.288, 7.591752
1219.770, 8.313139
1220.252, 8.691543
1220.734, 8.923622
1221.217, 7.513821
1221.699, 3.747176
1222.181, 0.9123520
1222.663, 2.653687
1223.145, 6.117840
1223.627, 5.446287
1224.109, 2.577990
1224.591, 2.342267
1225.074, 3.866154
1225.556, 4.632942
1226.038, 4.189945
1226.520, 2.413518
1227.002, 0.6865200
1227.484, 2.044264
1227.966, 2.152202
1228.448, 6.723387
1228.931, 8.636905
1229.413, 8.691614
1229.895, 6.144364
1230.377, 3.122708
1230.859, 2.779124
1231.341, 4.737417
1231.823, 6.046831
1232.305, 6.209491
1232.787, 5.593469
1233.270, 2.611187
1233.752, 1.217516
1234.234, 3.259445
1234.716, 5.406766
1235.198, 5.869984
1235.680, 5.703746
1236.162, 6.307477
1236.644, 7.386165
1237.126, 7.291487
1237.609, 8.029249
1238.091, 6.000102
1238.573, 8.182798
1239.055, 8.793305
1239.537, 7.439678
1240.019, 5.055162
1240.501, 2.176497
1240.983, 0.3786460
1241.466, 2.009008
1241.948, 5.102129
1242.430, 5.876566
1242.912, 5.288383
1243.394, 5.455705
1243.876, 5.919208
1244.358, 4.861696
1244.840, 2.417301
1245.323, 0.7197340
1245.805, 0.7151250
1246.287, 0.7286700
1246.769, 0.8460810
1247.251, 1.888978
1247.733, 0.9996840
1248.215, 0.6828930
1248.697, 2.565345
1249.179, 4.223557
1249.661, 5.062828
1250.144, 5.175128
1250.626, 5.352773
1251.108, 5.639503
1251.590, 5.991419
1252.072, 6.580422
1252.554, 6.837939
1253.036, 6.647975
1253.518, 6.087831
1254.001, 5.079512
1254.483, 3.910182
1254.965, 2.795620
1255.447, 2.521682
1255.929, 4.708900
1256.411, 3.381845
1256.893, 7.891350
1257.375, 3.450054
1257.858, 1.643200
1258.340, 3.249372
1258.822, 4.941138
1259.304, 5.218173
1259.786, 4.948447
1260.268, 4.666053
1260.750, 4.509573
1261.232, 4.950568
1261.714, 5.246885
1262.197, 4.382183
1262.679, 3.071032
1263.161, 1.818099
1263.643, 1.172119
1264.125, 2.872879
1264.607, 7.151834
1265.089, 9.750945
1265.571, 7.400656
1266.053, 6.412459
1266.536, 9.716605
1267.018, 11.52448
1267.500, 8.525141
1267.982, 4.929801
1268.464, 4.760274
1268.946, 6.555945
1269.428, 6.697176
1269.910, 5.268421
1270.393, 4.465990
1270.875, 4.265775
1271.357, 4.315730
1271.839, 4.496808
1272.321, 3.816475
1272.803, 2.017053
1273.285, 0.8274890
1273.767, 1.427061
1274.250, 3.025340
1274.732, 5.753520
1275.214, 8.027319
1275.696, 7.458185
1276.178, 5.589733
1276.660, 4.309556
1277.142, 3.584374
1277.624, 2.718226
1278.106, 1.730420
1278.589, 1.292823
1279.071, 1.996731
1279.553, 2.268139
1280.035, 0.3331080
1280.517, 3.7170999E-02
1280.999, 3.343876
1281.481, 0.0000000E+00
##END=



