##NAMES=Chalcocite
##RRUFFID=R050067
##IDEAL CHEMISTRY=Cu_2_S
##LOCALITY=Flambeau, Rusk County, Wisconsin, USA
##OWNER=RRUFF
##SOURCE=Rock Currier
##DESCRIPTION=Iridescent blue irregular hexagonal tablet
##STATUS=The identification of this mineral has been confirmed by X-ray diffraction and chemical analysis
##URL=rruff.info/R050067
##MEASURED CHEMISTRY=Cu_2.00_S_1.00_
180.175, 0.000
181.564, 32.620
182.953, 0.906
184.342, 27.713
185.731, 3.317
187.119, 55.940
188.507, 64.746
189.895, 7.536
191.283, 69.948
192.670, 65.764
194.057, 77.755
195.444, 280.705
196.830, 263.428
198.216, 387.784
199.603, 435.706
200.988, 515.248
202.374, 718.479
203.759, 884.292
205.144, 1124.543
206.529, 1341.117
207.913, 1549.657
209.298, 1809.901
210.682, 2020.998
212.065, 2292.178
213.449, 2597.429
214.832, 3000.749
216.215, 3147.142
217.598, 3165.795
218.981, 2988.001
220.363, 2734.785
221.745, 2438.530
223.127, 1958.005
224.508, 1603.509
225.889, 1298.901
227.270, 994.085
228.651, 804.990
230.032, 693.641
231.412, 547.060
232.792, 392.268
234.171, 457.279
235.551, 326.109
236.930, 369.773
238.309, 398.281
239.688, 258.644
241.066, 261.871
242.445, 266.986
243.823, 279.012
245.200, 231.053
246.578, 266.217
247.955, 374.380
249.332, 313.476
250.709, 352.612
252.085, 447.303
253.462, 427.520
254.838, 565.350
256.213, 523.969
257.589, 667.302
258.964, 730.608
260.339, 870.349
261.714, 975.210
263.088, 1036.005
264.462, 1221.062
265.836, 1322.799
267.210, 1452.772
268.584, 1495.843
269.957, 1658.092
271.330, 1790.707
272.703, 1991.316
274.075, 2091.620
275.447, 2243.938
276.819, 2371.271
278.191, 2517.616
279.563, 2544.977
280.934, 2603.349
282.305, 2588.730
283.676, 2549.118
285.046, 2499.517
286.416, 2419.919
287.786, 2308.323
289.156, 2101.728
290.526, 1984.131
291.895, 1848.533
293.264, 1578.932
294.633, 1464.326
296.001, 1341.718
297.370, 1211.103
298.738, 972.483
300.105, 942.855
301.473, 740.219
302.840, 703.908
304.207, 642.034
305.574, 607.927
306.940, 491.187
308.307, 398.211
309.673, 356.075
311.039, 260.030
312.404, 252.293
313.769, 212.028
315.135, 179.437
316.499, 165.544
317.864, 160.071
319.228, 134.408
320.592, 111.700
321.956, 93.641
323.320, 68.570
324.683, 16.411
326.046, 27.756
327.409, 5.891
328.771, 9.998
330.134, 59.634
331.496, 21.748
332.858, 44.854
334.219, 66.495
335.581, 30.065
336.942, 10.590
338.303, 79.922
339.663, 45.487
341.024, 46.094
342.384, 28.403
343.744, 18.473
345.103, 28.452
346.463, 8.107
347.822, 48.993
349.181, 52.816
350.539, 62.618
351.898, 77.020
353.256, 1.050
354.614, 49.913
355.972, 26.197
357.329, 23.701
358.686, 120.472
360.043, 26.379
361.400, 90.423
362.756, 97.622
364.112, 109.708
365.468, 191.496
366.824, 181.369
368.180, 186.145
369.535, 268.158
370.890, 272.915
372.245, 259.915
373.599, 326.399
374.953, 373.586
376.307, 402.511
377.661, 384.971
379.015, 535.648
380.368, 531.494
381.721, 594.140
383.074, 568.767
384.426, 563.749
385.778, 612.952
387.131, 734.857
388.482, 803.378
389.834, 788.921
391.185, 785.384
392.536, 947.821
393.887, 904.933
395.238, 933.236
396.588, 924.980
397.938, 907.319
399.288, 883.635
400.638, 853.930
401.987, 828.202
403.336, 732.453
404.685, 744.683
406.034, 571.892
407.382, 602.083
408.730, 503.252
410.078, 481.401
411.426, 471.530
412.773, 367.637
414.120, 358.725
415.467, 290.788
416.814, 249.821
418.161, 227.806
419.507, 217.745
420.853, 208.616
422.198, 156.461
423.544, 95.201
424.889, 82.886
426.234, 85.442
427.579, 137.936
428.924, 67.373
430.268, 73.788
431.612, 58.165
432.956, 29.473
434.299, 58.866
435.643, 36.192
436.986, 22.510
438.328, 25.180
439.671, 15.412
441.013, 15.223
442.356, 6.384
443.697, 17.845
445.039, 30.061
446.380, 36.725
447.722, 30.750
449.062, 43.647
450.403, 11.821
451.744, 41.979
453.084, 57.124
454.424, 28.743
455.763, 30.363
457.103, 4.545
458.442, 46.529
459.781, 64.590
461.120, 29.646
462.458, 99.687
463.797, 50.716
465.135, 98.736
466.472, 106.739
467.810, 35.731
469.147, 177.705
470.484, 115.648
471.821, 101.573
473.158, 126.456
474.494, 91.298
475.830, 194.121
477.166, 164.928
478.502, 228.721
479.837, 229.744
481.172, 348.244
482.507, 239.950
483.842, 143.563
485.176, 183.059
486.510, 204.151
487.844, 176.390
489.178, 206.159
490.511, 210.957
491.845, 292.398
493.178, 210.487
494.510, 235.845
495.843, 211.125
497.175, 178.007
498.507, 221.303
499.839, 148.740
501.171, 95.339
502.502, 122.910
503.833, 94.083
505.164, 160.717
506.495, 106.625
507.825, 154.585
509.155, 53.000
510.485, 124.314
511.815, 164.865
513.144, 58.253
514.473, 57.633
515.802, 81.871
517.131, 80.629
518.459, 149.643
519.788, 27.171
521.116, 106.855
522.443, 13.287
523.771, 40.614
525.098, 111.979
526.425, 90.854
527.752, 114.253
529.078, 53.896
530.405, 17.436
531.731, 56.204
533.057, 76.712
534.382, 79.943
535.708, 39.205
537.033, 75.689
538.358, 118.953
539.683, 68.565
541.007, 145.986
542.331, 113.592
543.655, 214.999
544.979, 133.259
546.302, 27.902
547.626, 168.172
548.949, 100.645
550.271, 172.810
551.594, 144.220
552.916, 158.641
554.238, 229.959
555.560, 193.643
556.882, 249.831
558.203, 278.126
559.524, 190.512
560.845, 209.724
562.166, 248.886
563.486, 247.042
564.806, 310.982
566.126, 266.464
567.446, 333.537
568.766, 270.784
570.085, 382.904
571.404, 320.946
572.723, 385.245
574.041, 404.213
575.359, 327.277
576.678, 448.340
577.995, 417.177
579.313, 436.571
580.630, 425.722
581.947, 456.821
583.264, 495.664
584.581, 516.373
585.897, 528.739
587.214, 522.640
588.530, 500.460
589.845, 564.860
591.161, 541.306
592.476, 604.680
593.791, 648.927
595.106, 549.279
596.420, 546.476
597.735, 556.398
599.049, 642.086
600.363, 480.906
601.676, 500.692
602.990, 583.713
604.303, 477.587
605.616, 577.045
606.928, 427.466
608.241, 469.722
609.553, 460.606
610.865, 388.528
612.177, 483.968
613.488, 307.225
614.800, 304.143
616.111, 406.176
617.422, 290.354
618.732, 393.524
620.042, 344.229
621.353, 248.606
622.662, 296.934
623.972, 317.024
625.282, 276.090
626.591, 303.017
627.900, 230.856
629.208, 306.313
630.517, 260.296
631.825, 279.299
633.133, 218.552
634.441, 228.903
635.749, 361.998
637.056, 185.135
638.363, 222.379
639.670, 270.455
640.976, 176.524
642.283, 266.794
643.589, 159.982
644.895, 293.413
646.201, 170.937
647.506, 272.050
648.811, 290.321
650.116, 186.334
651.421, 272.627
652.726, 209.920
654.030, 175.286
655.334, 255.625
656.638, 163.715
657.942, 223.840
659.245, 166.860
660.548, 159.997
661.851, 224.569
663.154, 170.865
664.456, 177.636
665.758, 182.777
667.060, 205.562
668.362, 185.501
669.664, 152.892
670.965, 234.932
672.266, 139.803
673.567, 210.670
674.868, 186.993
676.168, 115.156
677.468, 172.361
678.768, 101.442
680.068, 153.040
681.367, 175.877
682.666, 20.958
683.965, 139.778
685.264, 68.720
686.563, 144.404
687.861, 127.420
689.159, 42.195
690.457, 155.992
691.755, 68.738
693.052, 82.261
694.349, 151.751
695.646, 43.644
696.943, 85.274
698.239, 37.157
699.536, 80.841
700.832, 113.010
702.127, 18.736
703.423, 101.959
704.718, 49.679
706.013, 119.328
707.308, 56.855
708.603, 50.448
709.897, 70.768
711.191, 1.963
712.485, 95.608
713.779, 66.162
715.073, 40.573
716.366, 77.782
717.659, 86.285
718.952, 83.580
720.244, 158.726
721.537, 12.022
722.829, 95.125
724.121, 49.333
725.412, 75.597
726.704, 90.341
727.995, 25.029
729.286, 100.024
730.577, 73.156
731.867, 71.501
733.158, 121.534
734.448, 5.683
735.738, 40.697
737.027, 20.719
738.317, 78.893
739.606, 61.850
740.895, 28.848
742.183, 123.927
743.472, 61.770
744.760, 120.285
746.048, 90.005
747.336, 82.105
748.623, 130.704
749.911, 6.670
751.198, 6.786
752.485, 48.781
753.771, 19.438
755.058, 76.049
756.344, 18.410
757.630, 64.313
758.916, 134.806
760.201, 25.719
761.487, 13.717
762.772, 59.132
764.057, 53.526
765.341, 127.902
766.626, 28.260
767.910, 125.597
769.194, 93.928
770.477, 59.240
771.761, 56.538
773.044, 20.184
774.327, 128.056
775.610, 57.280
776.893, 8.519
778.175, 116.653
779.457, 3.195
780.739, 121.928
782.021, 6.034
783.302, 29.114
784.583, 124.211
785.864, 0.250
787.145, 41.262
788.426, 81.252
789.706, 0.222
790.986, 124.163
792.266, 94.194
793.546, 140.986
794.825, 127.868
796.104, 60.730
797.383, 91.572
798.662, 38.607
799.941, 15.165
801.219, 98.914
802.497, 100.357
803.775, 116.291
805.052, 47.919
806.330, 43.525
807.607, 27.110
808.884, 29.672
810.161, 85.212
811.437, 78.731
812.714, 20.770
813.990, 60.690
815.265, 2.129
816.541, 6.458
817.816, 15.077
819.092, -3.931
820.366, 34.819
821.641, 1.215
822.916, 14.992
824.190, 27.175
825.464, 64.337
826.738, 84.478
828.011, 6.600
829.285, 41.698
830.558, 13.276
831.831, 48.767
833.104, 65.675
834.376, 23.322
835.648, 38.642
836.920, 74.127
838.192, 61.050
839.464, 58.694
840.735, 32.577
842.006, 85.424
843.277, 73.896
844.548, 80.965
845.818, 55.262
847.088, 93.843
848.358, 29.608
849.628, 41.993
850.898, 20.532
852.167, 61.849
853.436, 1.329
854.705, 40.917
855.974, 70.086
857.242, 30.592
858.511, 29.857
859.779, 65.401
861.046, 43.663
862.314, 110.885
863.581, 2.809
864.848, 13.092
866.115, 29.471
867.382, 57.707
868.649, 114.820
869.915, 24.074
871.181, 68.345
872.447, 171.587
873.712, 23.988
874.978, 141.851
876.243, 66.069
877.508, 47.080
878.772, 61.183
880.037, 38.349
881.301, 36.838
882.565, 55.396
883.829, 12.545
885.092, 67.475
886.356, 34.692
887.619, 8.682
888.882, 52.154
890.144, 9.872
891.407, 55.833
892.669, 40.708
893.931, 15.427
895.193, 66.527
896.455, 67.647
897.716, 93.350
898.977, 39.206
900.238, 39.191
901.499, 112.188
902.759, 7.870
904.020, 100.526
905.280, 51.137
906.539, 57.572
907.799, 140.269
909.058, 20.126
910.318, 79.747
911.577, 118.650
912.835, 98.996
914.094, 143.302
915.352, 165.850
916.610, 153.364
917.868, 126.175
919.126, 67.558
920.383, 126.336
921.640, 133.971
922.897, 64.449
924.154, 195.903
925.410, 147.443
926.667, 103.174
927.923, 170.340
929.179, 165.826
930.434, 226.476
931.690, 94.011
932.945, 133.662
934.200, 93.645
935.455, 40.887
936.709, 77.452
937.964, 69.403
939.218, 87.465
940.472, 138.885
941.725, 106.533
942.979, 170.114
944.232, 190.560
945.485, 53.147
946.738, 160.716
947.991, 227.995
949.243, 126.393
950.495, 242.525
951.747, 84.540
952.999, 223.944
954.250, 112.172
955.502, 170.634
956.753, 233.803
958.003, 205.946
959.254, 325.014
960.504, 136.084
961.755, 171.381
963.005, 320.644
964.254, 173.814
965.504, 237.989
966.753, 305.584
968.002, 220.637
969.251, 382.145
970.500, 313.343
971.748, 307.605
972.997, 267.976
974.245, 200.892
975.492, 380.887
976.740, 371.034
977.987, 417.262
979.234, 417.026
980.481, 431.979
981.728, 502.680
982.975, 459.746
984.221, 474.879
985.467, 495.865
986.713, 542.880
987.958, 536.044
989.204, 628.151
990.449, 531.248
991.694, 676.232
992.939, 615.438
994.183, 624.594
995.428, 679.779
996.672, 564.856
997.916, 705.095
999.159, 675.983
1000.403, 597.004
1001.646, 658.936
1002.889, 669.070
1004.132, 684.667
1005.374, 606.686
1006.617, 563.829
1007.859, 597.807
1009.101, 706.816
1010.343, 584.940
1011.584, 614.254
1012.825, 550.034
1014.067, 549.422
1015.307, 574.164
1016.548, 565.146
1017.788, 523.612
1019.029, 584.502
1020.269, 585.468
1021.508, 698.621
1022.748, 770.899
1023.987, 653.007
1025.227, 520.007
1026.466, 663.157
1027.704, 598.231
1028.943, 533.567
1030.181, 672.608
1031.419, 692.884
1032.657, 653.359
1033.895, 602.243
1035.132, 627.500
1036.369, 731.538
1037.606, 702.013
1038.843, 601.131
1040.080, 674.076
1041.316, 608.217
1042.552, 614.298
1043.788, 629.277
1045.024, 641.472
1046.259, 652.976
1047.495, 636.255
1048.730, 596.346
1049.964, 719.487
1051.199, 548.794
1052.433, 580.820
1053.668, 672.140
1054.902, 566.364
1056.135, 649.621
1057.369, 526.946
1058.602, 540.071
1059.836, 679.408
1061.068, 567.747
1062.301, 708.097
1063.534, 590.451
1064.766, 521.808
1065.998, 556.167
1067.230, 483.527
1068.462, 546.890
1069.693, 626.255
1070.924, 506.622
1072.155, 570.992
1073.386, 590.365
1074.617, 410.749
1075.847, 623.135
1077.077, 506.525
1078.307, 470.923
1079.537, 571.323
1080.766, 377.731
1081.996, 470.141
1083.225, 414.556
1084.454, 335.936
1085.682, 557.358
1086.911, 417.786
1088.139, 458.219
1089.367, 438.656
1090.595, 360.100
1091.822, 414.546
1093.050, 386.996
1094.277, 318.448
1095.504, 299.904
1096.731, 361.363
1097.957, 362.827
1099.184, 356.309
1100.410, 242.795
1101.636, 340.286
1102.861, 348.812
1104.087, 256.340
1105.312, 401.874
1106.537, 205.413
1107.762, 330.957
1108.987, 267.506
1110.211, 256.060
1111.435, 282.618
1112.659, 221.191
1113.883, 202.770
1115.107, 197.357
1116.330, 263.955
1117.553, 266.564
1118.776, 220.215
1119.999, 231.885
1121.221, 198.563
1122.444, 172.248
1123.666, 194.938
1124.888, 147.635
1126.109, 222.335
1127.331, 132.044
1128.552, 209.762
1129.773, 88.501
1130.994, 184.251
1132.215, 66.022
1133.435, 71.809
1134.655, 101.603
1135.875, 35.401
1137.095, 94.207
1138.315, 52.018
1139.534, 18.846
1140.753, 64.929
1141.972, 32.853
1143.191, 74.380
1144.409, 68.244
1145.628, 24.883
1146.846, 58.988
1148.064, 33.865
1149.281, 0.250
1150.499, 108.640
1151.716, 6.539
1152.933, 87.445
1154.150, 40.357
1155.367, 26.724
1156.583, 75.191
1157.799, 31.886
1159.015, 71.969
1160.231, 74.922
1161.447, 77.176
1162.662, 58.699
1163.877, 10.420
1165.092, 16.536
1166.307, 8.350
1167.522, 64.242
1168.736, 20.141
1169.950, 50.044
1171.164, 19.037
1172.378, 49.880
1173.591, 24.802
1174.804, 82.270
1176.018, 32.627
1177.230, 41.530
1178.443, 68.563
1179.656, 106.319
1180.868, 26.788
1182.080, 73.101
1183.292, 9.006
1184.503, 30.893
1185.715, 132.797
1186.926, 13.708
1188.137, 156.622
1189.348, 285.542
1190.558, 326.466
1191.769, 386.642
1192.979, 462.349
1194.189, 390.306
1195.399, 354.947
1196.608, 299.353
1197.817, 119.203
1199.027, 179.177
1200.235, 40.156
1201.444, 9.150
1202.653, 57.672
1203.861, 88.112
1205.069, 130.105
1206.277, 153.881
1207.485, 238.101
1208.692, 177.106
1209.899, 238.114
1211.106, 212.126
1212.313, 197.144
1213.520, 234.167
1214.726, 210.195
1215.932, 228.229
1217.138, 214.269
1218.344, 291.314
1219.550, 256.364
1220.755, 289.301
1221.960, 353.480
1223.165, 294.547
1224.370, 355.620
1225.575, 303.698
1226.779, 291.780
1227.983, 368.870
1229.187, 295.964
1230.391, 298.064
1231.595, 374.170
1232.798, 268.281
1234.001, 430.397
1235.204, 479.520
1236.407, 314.647
1237.609, 453.781
1238.811, 352.919
1240.013, 336.090
1241.215, 494.240
1242.417, 392.395
1243.619, 428.614
1244.820, 434.779
1246.021, 529.948
1247.222, 474.189
1248.422, 376.368
1249.623, 421.552
1250.823, 515.740
1252.023, 406.933
1253.223, 413.129
1254.423, 530.331
1255.622, 379.557
1256.821, 530.934
1258.020, 478.149
1259.219, 495.698
1260.418, 593.922
1261.616, 491.151
1262.814, 573.728
1264.012, 537.198
1265.210, 544.504
1266.407, 595.752
1267.605, 613.006
1268.802, 537.266
1269.999, 643.529
1271.196, 492.798
1272.392, 638.893
1273.589, 642.282
1274.785, 648.751
1275.981, 654.722
1277.176, 755.146
1278.372, 750.640
1279.567, 671.019
1280.762, 511.333
1281.957, 605.659
1283.152, 618.705
1284.346, 585.389
1285.541, 677.823
1286.735, 723.458
1287.929, 660.945
1289.122, 696.258
1290.316, 685.701
1291.509, 572.067
1292.702, 645.441
1293.895, 578.017
1295.088, 704.490
1296.280, 700.979
1297.472, 477.376
1298.665, 733.779
1299.856, 753.157
1301.048, 537.573
1302.239, 708.718
1303.431, 486.655
1304.622, 618.092
1305.813, 597.707
1307.003, 492.151
1308.194, 451.239
1309.384, 559.344
1310.574, 519.854
1311.764, 521.311
1312.953, 487.725
1314.143, 464.093
1315.332, 586.681
1316.521, 426.990
1317.710, 515.300
1318.898, 409.355
1320.087, 314.567
1321.275, 433.753
1322.463, 396.578
1323.651, 369.750
1324.838, 470.827
1326.026, 353.981
1327.213, 277.799
1328.400, 333.933
1329.587, 350.052
1330.773, 335.158
1331.960, 397.237
1333.146, 246.297
1334.332, 358.343
1335.517, 293.375
1336.703, 302.395
1337.888, 343.492
1339.074, 266.493
1340.259, 242.484
1341.443, 332.510
1342.628, 253.484
1343.812, 260.455
1344.996, 159.423
1346.180, 228.384
1347.364, 209.343
1348.548, 315.307
1349.731, 212.283
1350.914, 213.846
1352.097, 146.320
1353.280, 158.538
1354.462, 209.299
1355.645, 176.799
1356.827, 225.305
1358.009, 176.819
1359.190, 106.339
1360.372, 228.866
1361.553, 145.400
1362.734, 127.940
1363.915, 218.488
1365.096, 159.042
1366.277, 113.603
1367.457, 195.170
1368.637, 70.744
1369.817, 75.323
1370.997, 202.908
1372.176, 107.500
1373.356, 64.097
1374.535, 224.702
1375.714, 118.312
1376.892, 102.925
1378.071, 184.542
1379.249, 202.128
1380.427, 195.717
1381.605, 29.312
1382.783, 211.912
1383.960, 69.496
1385.138, 24.037
1386.315, 112.558
1387.492, 91.081
1388.669, 24.589
1389.845, 146.078
1391.021, 118.540
1392.198, 169.995
1393.373, 47.457
1394.549, 54.914
1395.725, 104.370
1396.900, 40.832
1398.075, 7.306
1399.250, 61.834
1400.425, 0.413
1401.599, 100.000
1402.774, 65.589
1403.948, 46.819
1405.122, 4.787
1406.295, 37.428
1407.469, 86.109
1408.642, 93.129
1409.815, 99.737
1410.988, 66.410
1412.161, 80.217
1413.334, 3.958
1414.506, 24.113
1415.678, 8.979
1416.850, 48.359
1418.022, 32.553
1419.193, 21.490
1420.365, 48.455
1421.536, 27.362
1422.707, 66.210
1423.877, 30.497
1425.048, 12.556
1426.218, 48.625
1427.389, 22.292
1428.558, 41.112
1429.728, 0.081
1430.898, 87.048
1432.067, 84.194
1433.236, 96.356
1434.405, 33.536
1435.574, 61.732
1436.743, 60.949
1437.911, 139.116
1439.079, 137.219
1440.247, 146.955
1441.415, 155.629
1442.582, 147.969
1443.750, 147.344
1444.917, 159.943
1446.084, 126.186
1447.251, 115.102
1448.417, 79.941
1449.584, 34.213
1450.750, 70.442
1451.916, 86.688
1453.082, 150.025
1454.247, 179.105
1455.413, 111.466
1456.578, 259.750
1457.743, 80.940
1458.908, 213.203
1460.072, 208.419
1461.237, 134.547
1462.401, 133.252
1463.565, 203.641
1464.729, 84.894
1465.893, 81.760
1467.056, 177.296
1468.219, 194.442
1469.382, 139.144
1470.545, 113.396
1471.708, 82.977
1472.870, 192.349
1474.032, 155.615
1475.195, 60.861
1476.356, 237.896
1477.518, 19.414
1478.680, 107.875
1479.841, 99.272
1481.002, 28.694
1482.163, 45.491
1483.323, 51.792
1484.484, 177.972
1485.644, 118.596
1486.804, 107.323
1487.964, 165.772
1489.124, 75.295
1490.283, 0.740
1491.443, 0.000
##END=



