##NAMES=Chalcoalumite
##RRUFFID=R060752
##IDEAL CHEMISTRY=CuAl_4_SO_4_(OH)_12_&#183;3H_2_O
##LOCALITY=Bisbee, Arizona, USA
##OWNER=RRUFF
##SOURCE=Bob Jenkins
##DESCRIPTION=Pale green aggregate
##STATUS=The identification of this mineral is not yet confirmed.
##URL=rruff.info/R060752
132.6164, 0.0000000E+00
133.0985, 45.65796
133.5806, 98.82129
134.0627, 115.9639
134.5449, 75.75488
135.0270, 151.7109
135.5091, 143.4617
135.9912, 127.1604
136.4733, 88.26929
136.9554, 4.782471
137.4376, 35.11108
137.9197, 21.31738
138.4018, 117.5452
138.8839, 204.3628
139.3660, 263.7751
139.8481, 298.6631
140.3303, 309.5525
140.8124, 262.7312
141.2945, 254.1882
141.7766, 326.2185
142.2587, 434.8623
142.7408, 531.9846
143.2230, 592.3704
143.7051, 626.5046
144.1872, 671.2820
144.6693, 731.8350
145.1514, 797.1365
145.6335, 865.0374
146.1157, 935.6199
146.5978, 1014.912
147.0799, 1109.664
147.5620, 1210.154
148.0441, 1261.523
148.5262, 1211.310
149.0084, 1165.134
149.4905, 1155.549
149.9726, 1159.673
150.4547, 1136.588
150.9368, 1056.467
151.4190, 928.9460
151.9011, 848.0117
152.3832, 859.4402
152.8653, 871.4487
153.3474, 868.3330
153.8295, 851.8569
154.3117, 827.9482
154.7938, 799.4160
155.2759, 766.8564
155.7580, 741.1809
156.2401, 736.1755
156.7222, 723.3655
157.2044, 683.4255
157.6865, 628.4536
158.1686, 584.6707
158.6507, 570.9194
159.1328, 586.9385
159.6149, 611.5466
160.0971, 663.9766
160.5792, 704.7053
161.0613, 714.7217
161.5434, 700.0337
162.0255, 677.2888
162.5076, 656.2666
162.9898, 636.9727
163.4719, 635.7847
163.9540, 656.8264
164.4361, 687.2502
164.9182, 732.1206
165.4003, 784.1260
165.8825, 821.7520
166.3646, 824.1980
166.8467, 792.2747
167.3288, 789.3442
167.8109, 840.8135
168.2930, 893.6223
168.7752, 913.2280
169.2573, 906.5200
169.7394, 913.0959
170.2215, 973.0042
170.7036, 1082.837
171.1857, 1118.396
171.6679, 995.0066
172.1500, 868.8506
172.6321, 822.0457
173.1142, 848.2307
173.5963, 886.7034
174.0784, 889.7817
174.5606, 861.8618
175.0427, 835.4146
175.5248, 813.7871
176.0069, 790.9895
176.4890, 761.5300
176.9711, 726.3379
177.4533, 693.4741
177.9354, 671.3049
178.4175, 657.1436
178.8996, 627.9849
179.3817, 570.4387
179.8638, 508.7600
180.3460, 460.8474
180.8281, 425.5378
181.3102, 386.1772
181.7923, 321.4414
182.2744, 242.6812
182.7565, 210.8552
183.2387, 274.4683
183.7208, 347.2292
184.2029, 366.5833
184.6850, 335.3730
185.1671, 291.6455
185.6492, 257.2146
186.1314, 229.9287
186.6135, 198.4497
187.0956, 136.2263
187.5777, 90.10522
188.0598, 114.0254
188.5419, 201.1343
189.0241, 268.8713
189.5062, 260.1514
189.9883, 193.2622
190.4704, 149.0276
190.9525, 141.1807
191.4346, 138.5591
191.9168, 115.2048
192.3989, 73.42847
192.8810, 36.11450
193.3631, 13.59326
193.8452, 8.584717
194.3273, 20.73315
194.8095, 62.04956
195.2916, 104.3521
195.7737, 131.9568
196.2558, 144.4688
196.7379, 158.1843
197.2200, 190.0918
197.7022, 222.9556
198.1843, 219.4058
198.6664, 156.3484
199.1485, 87.71875
199.6306, 49.07861
200.1127, 38.26489
200.5949, 41.23389
201.0770, 58.89746
201.5591, 82.62695
202.0412, 93.75415
202.5233, 85.96558
203.0054, 76.76807
203.4876, 81.46021
203.9697, 96.92285
204.4518, 103.2712
204.9339, 88.84595
205.4160, 63.12476
205.8981, 44.58789
206.3803, 35.52954
206.8624, 27.49683
207.3445, 13.94141
207.8266, 3.562744
208.3087, 19.21997
208.7908, 36.02197
209.2730, 43.57935
209.7551, 72.45508
210.2372, 13.24316
210.7193, 19.18262
211.2014, 26.31250
211.6835, 70.46802
212.1657, 30.90088
212.6478, 41.69946
213.1299, 51.51050
213.6120, 15.06592
214.0941, 57.97119
214.5762, 5.875732
215.0584, 13.88574
215.5405, 48.06030
216.0226, 28.58569
216.5047, 26.92578
216.9868, 80.83545
217.4689, 105.4521
217.9511, 84.74292
218.4332, 127.4373
218.9153, 58.22070
219.3974, 87.92798
219.8795, 160.9136
220.3616, 150.0876
220.8438, 202.7371
221.3259, 231.1206
221.8080, 153.0859
222.2901, 257.7361
222.7722, 284.2649
223.2543, 230.5532
223.7365, 331.7935
224.2186, 291.5120
224.7007, 302.8154
225.1828, 353.4294
225.6649, 365.0042
226.1470, 440.5759
226.6292, 456.3730
227.1113, 467.7000
227.5934, 483.0134
228.0755, 468.4656
228.5576, 473.2163
229.0397, 565.3699
229.5219, 726.4863
230.0040, 845.1208
230.4861, 870.0476
230.9682, 868.5981
231.4503, 903.7678
231.9324, 978.5603
232.4146, 1069.708
232.8967, 1166.564
233.3788, 1267.254
233.8609, 1361.848
234.3430, 1449.923
234.8251, 1531.964
235.3073, 1599.043
235.7894, 1654.785
236.2715, 1727.497
236.7536, 1839.318
237.2357, 1980.023
237.7178, 2103.239
238.2000, 2225.688
238.6821, 2315.571
239.1642, 2342.480
239.6463, 2319.376
240.1284, 2296.110
240.6105, 2304.916
241.0927, 2319.899
241.5748, 2261.357
242.0569, 2075.990
242.5390, 1912.999
243.0211, 1851.594
243.5033, 1849.244
243.9854, 1813.873
244.4675, 1704.565
244.9496, 1559.927
245.4317, 1464.362
245.9138, 1432.219
246.3960, 1404.115
246.8781, 1363.810
247.3602, 1321.454
247.8423, 1289.742
248.3244, 1272.286
248.8065, 1268.114
249.2887, 1277.049
249.7708, 1302.191
250.2529, 1332.873
250.7350, 1375.240
251.2171, 1419.155
251.6992, 1456.575
252.1814, 1485.781
252.6635, 1506.674
253.1456, 1520.161
253.6277, 1527.438
254.1098, 1514.377
254.5919, 1466.763
255.0741, 1410.833
255.5562, 1370.635
256.0383, 1343.148
256.5204, 1300.051
257.0025, 1211.929
257.4846, 1073.470
257.9668, 976.2458
258.4489, 947.3354
258.9310, 925.1406
259.4131, 883.6006
259.8952, 826.9653
260.3773, 771.2188
260.8595, 727.1465
261.3416, 693.3503
261.8237, 657.3159
262.3058, 633.4631
262.7879, 591.1755
263.2701, 500.7515
263.7522, 392.4766
264.2343, 315.0896
264.7164, 293.6833
265.1985, 308.9763
265.6806, 301.3152
266.1628, 231.8682
266.6449, 188.9121
267.1270, 209.1125
267.6091, 241.2568
268.0912, 238.9214
268.5733, 183.5925
269.0555, 99.69946
269.5376, 24.18799
270.0197, 45.61670
270.5018, 84.22437
270.9839, 83.82422
271.4660, 61.49976
271.9482, 26.81616
272.4303, 20.69238
272.9124, 63.62891
273.3945, 85.49634
273.8766, 84.42041
274.3587, 71.36646
274.8409, 21.57764
275.3230, 18.36328
275.8051, 17.72388
276.2872, 11.91846
276.7693, 32.65063
277.2514, 6.676514
277.7336, 60.53638
278.2157, 90.38477
278.6978, 55.49902
279.1799, 15.78638
279.6620, 13.59302
280.1441, 32.44971
280.6263, 38.08472
281.1084, 21.31689
281.5905, 0.4575200
282.0726, 29.47339
282.5547, 148.8335
283.0368, 229.0500
283.5190, 184.0383
284.0011, 100.0757
284.4832, 62.47534
284.9653, 100.2229
285.4474, 175.3540
285.9295, 248.9436
286.4117, 323.3301
286.8938, 376.2388
287.3759, 399.0405
287.8580, 401.7007
288.3401, 387.7810
288.8222, 351.0315
289.3044, 325.0471
289.7865, 341.7947
290.2686, 391.3999
290.7507, 426.7307
291.2328, 419.1873
291.7149, 423.2180
292.1971, 504.8342
292.6792, 652.3291
293.1613, 778.8792
293.6434, 824.4624
294.1255, 834.8572
294.6076, 896.8572
295.0898, 1026.265
295.5719, 1151.821
296.0540, 1200.957
296.5361, 1194.024
297.0182, 1221.854
297.5003, 1311.876
297.9825, 1428.419
298.4646, 1548.756
298.9467, 1671.170
299.4288, 1790.298
299.9109, 1900.758
300.3930, 2005.615
300.8752, 2118.999
301.3573, 2245.290
301.8394, 2372.263
302.3215, 2494.426
302.8036, 2614.271
303.2857, 2740.912
303.7679, 2880.592
304.2500, 3016.703
304.7321, 3115.616
305.2142, 3155.067
305.6963, 3201.391
306.1784, 3261.338
306.6606, 3328.519
307.1427, 3401.278
307.6248, 3477.814
308.1069, 3548.761
308.5890, 3602.645
309.0711, 3633.763
309.5533, 3674.438
310.0354, 3687.983
310.5175, 3742.119
310.9996, 3888.616
311.4817, 4105.790
311.9638, 4334.195
312.4460, 4529.747
312.9281, 4697.162
313.4102, 4879.944
313.8923, 5079.592
314.3744, 5296.568
314.8565, 5556.729
315.3387, 5824.765
315.8208, 6061.354
316.3029, 6249.918
316.7850, 6394.888
317.2671, 6503.047
317.7492, 6569.068
318.2314, 6609.708
318.7135, 6675.257
319.1956, 6685.843
319.6777, 6577.029
320.1598, 6341.974
320.6419, 6034.415
321.1241, 5692.113
321.6062, 5316.714
322.0883, 4934.013
322.5704, 4541.981
323.0525, 4150.708
323.5346, 3747.427
324.0168, 3346.405
324.4989, 2983.692
324.9810, 2692.517
325.4631, 2451.334
325.9452, 2208.441
326.4273, 1958.592
326.9095, 1730.107
327.3916, 1545.719
327.8737, 1388.551
328.3558, 1237.632
328.8379, 1085.407
329.3200, 953.3376
329.8022, 873.8640
330.2843, 836.4927
330.7664, 779.5200
331.2485, 673.4846
331.7306, 547.6033
332.2127, 452.5303
332.6949, 388.4954
333.1770, 338.5491
333.6591, 308.9031
334.1412, 289.0723
334.6233, 260.5308
335.1054, 219.9700
335.5876, 173.3882
336.0697, 130.7791
336.5518, 96.12109
337.0339, 76.79932
337.5160, 87.34473
337.9981, 96.57227
338.4803, 83.51562
338.9624, 53.40845
339.4445, 25.50952
339.9266, 13.68042
340.4087, 13.87500
340.8908, 4.812500
341.3730, 26.65283
341.8551, 52.02148
342.3372, 72.64868
342.8193, 83.73315
343.3014, 81.93188
343.7835, 94.87427
344.2657, 47.36987
344.7478, 17.20166
345.2299, 3.421387
345.7120, 55.15332
346.1941, 22.24268
346.6762, 23.21729
347.1584, 25.55518
347.6405, 19.34546
348.1226, 22.71899
348.6047, 58.80176
349.0868, 132.3030
349.5689, 164.2090
350.0511, 131.7410
350.5332, 94.57324
351.0153, 66.67651
351.4974, 53.09717
351.9795, 65.86426
352.4616, 119.1392
352.9438, 180.4595
353.4259, 200.6106
353.9080, 178.0049
354.3901, 171.0820
354.8722, 209.3025
355.3543, 263.3604
355.8365, 294.8157
356.3186, 301.0361
356.8007, 303.7473
357.2828, 301.0447
357.7649, 304.5518
358.2470, 345.0393
358.7292, 432.1023
359.2113, 520.0071
359.6934, 561.3545
360.1755, 555.0127
360.6576, 564.8506
361.1397, 598.9482
361.6219, 644.3511
362.1040, 686.9500
362.5861, 732.8582
363.0682, 807.8625
363.5503, 931.9219
364.0324, 1082.807
364.5146, 1186.988
364.9967, 1188.232
365.4788, 1212.783
365.9609, 1277.690
366.4430, 1364.416
366.9251, 1466.375
367.4073, 1576.831
367.8894, 1675.832
368.3715, 1735.166
368.8536, 1744.734
369.3357, 1761.799
369.8178, 1774.911
370.3000, 1807.139
370.7821, 1877.911
371.2642, 1974.728
371.7463, 2072.358
372.2284, 2159.193
372.7105, 2232.372
373.1927, 2277.700
373.6748, 2282.159
374.1569, 2293.829
374.6390, 2342.149
375.1211, 2397.590
375.6032, 2433.169
376.0854, 2442.845
376.5675, 2443.919
377.0496, 2450.157
377.5317, 2459.999
378.0138, 2468.305
378.4959, 2478.573
378.9781, 2478.057
379.4602, 2442.962
379.9423, 2381.368
380.4244, 2333.602
380.9065, 2335.232
381.3886, 2336.225
381.8708, 2281.524
382.3529, 2177.811
382.8350, 2076.590
383.3171, 2007.705
383.7992, 1962.391
384.2813, 1906.333
384.7635, 1816.278
385.2456, 1748.258
385.7277, 1720.122
386.2098, 1714.673
386.6919, 1718.870
387.1740, 1727.274
387.6562, 1729.308
388.1383, 1709.917
388.6204, 1662.216
389.1025, 1624.234
389.5846, 1597.527
390.0667, 1578.002
390.5489, 1568.776
391.0310, 1565.258
391.5131, 1557.174
391.9952, 1536.220
392.4773, 1512.307
392.9594, 1514.106
393.4416, 1550.926
393.9237, 1589.005
394.4058, 1649.324
394.8879, 1688.907
395.3700, 1662.408
395.8521, 1564.205
396.3343, 1452.831
396.8164, 1377.418
397.2985, 1324.875
397.7806, 1256.245
398.2627, 1156.998
398.7448, 1074.504
399.2270, 1073.655
399.7091, 1118.316
400.1912, 1102.958
400.6733, 942.6003
401.1554, 782.3398
401.6375, 738.5249
402.1197, 785.4661
402.6018, 824.1763
403.0839, 813.0630
403.5660, 768.5854
404.0481, 730.9927
404.5302, 684.4731
405.0124, 667.9460
405.4945, 724.8865
405.9766, 787.8887
406.4587, 786.7610
406.9408, 722.7217
407.4229, 674.4875
407.9051, 719.5938
408.3872, 855.8748
408.8693, 941.2979
409.3514, 928.9595
409.8335, 912.3975
410.3156, 887.0842
410.7978, 875.5371
411.2799, 917.0554
411.7620, 1030.534
412.2441, 1164.788
412.7262, 1257.922
413.2083, 1307.719
413.6905, 1313.320
414.1726, 1250.402
414.6547, 1169.538
415.1368, 1102.162
415.6189, 1055.503
416.1010, 1035.808
416.5832, 1053.701
417.0653, 1085.475
417.5474, 1099.721
418.0295, 1096.847
418.5116, 1095.011
418.9937, 1107.496
419.4759, 1124.304
419.9580, 1114.238
420.4401, 1040.953
420.9222, 1014.369
421.4043, 1099.882
421.8864, 1224.509
422.3686, 1311.844
422.8507, 1347.938
423.3328, 1358.030
423.8149, 1364.477
424.2970, 1366.802
424.7791, 1374.974
425.2613, 1398.767
425.7434, 1417.628
426.2255, 1422.363
426.7076, 1420.392
427.1897, 1422.293
427.6718, 1432.398
428.1540, 1445.612
428.6361, 1456.840
429.1182, 1467.984
429.6003, 1463.703
430.0824, 1431.142
430.5645, 1392.886
431.0467, 1369.849
431.5288, 1356.001
432.0109, 1325.583
432.4930, 1262.169
432.9751, 1177.260
433.4572, 1073.825
433.9394, 952.5813
434.4215, 865.3267
434.9036, 848.8762
435.3857, 872.6001
435.8678, 862.6631
436.3499, 803.8970
436.8321, 753.6624
437.3142, 717.0938
437.7963, 700.9424
438.2784, 729.4014
438.7605, 797.3210
439.2426, 851.0879
439.7248, 837.5137
440.2069, 757.7979
440.6890, 706.8291
441.1711, 721.5898
441.6532, 724.0256
442.1353, 672.0898
442.6175, 611.8928
443.0996, 567.4221
443.5817, 589.9019
444.0638, 592.5396
444.5459, 576.4045
445.0280, 485.3381
445.5102, 490.9646
445.9923, 457.8057
446.4744, 423.0330
446.9565, 442.1963
447.4386, 402.7639
447.9207, 394.4692
448.4029, 390.5676
448.8850, 382.0684
449.3671, 340.6179
449.8492, 252.2769
450.3313, 273.7053
450.8134, 275.2949
451.2956, 258.1050
451.7777, 165.9927
452.2598, 170.5779
452.7419, 136.3752
453.2240, 100.5603
453.7061, 118.6829
454.1883, 37.33350
454.6704, 123.9326
455.1525, 166.2493
455.6346, 122.3689
456.1167, 18.25659
456.5988, 35.30688
457.0810, 0.2495120
457.5631, 23.14600
458.0452, 15.19873
458.5273, 2.586914
459.0095, 12.93262
459.4916, 14.26074
459.9737, 17.73193
460.4558, 38.14722
460.9379, 69.42554
461.4200, 82.27002
461.9022, 69.51172
462.3843, 61.68164
462.8664, 93.37891
463.3485, 135.2896
463.8306, 126.2817
464.3127, 24.91797
464.7949, 52.48755
465.2770, 21.53491
465.7591, 65.33960
466.2412, 122.7087
466.7233, 132.4199
467.2054, 112.3293
467.6876, 73.12305
468.1697, 10.55469
468.6518, 7.598145
469.1339, 61.25464
469.6160, 119.9312
470.0981, 139.6338
470.5803, 132.4771
471.0624, 108.1165
471.5445, 71.18164
472.0266, 44.21045
472.5087, 79.35156
472.9908, 191.9075
473.4730, 218.5308
473.9551, 75.82007
474.4372, 61.51782
474.9193, 87.34839
475.4014, 34.42822
475.8835, 21.61841
476.3657, 62.61084
476.8478, 88.02197
477.3299, 94.01294
477.8120, 82.64478
478.2941, 60.68457
478.7762, 27.14038
479.2584, 6.818115
479.7405, 26.11108
480.2226, 26.89868
480.7047, 27.78125
481.1868, 16.17554
481.6689, 16.78149
482.1511, 59.60962
482.6332, 124.9722
483.1153, 164.5669
483.5974, 152.7383
484.0795, 115.7539
484.5616, 114.2556
485.0438, 165.4038
485.5259, 203.5522
486.0080, 201.4858
486.4901, 203.2935
486.9722, 242.4993
487.4543, 307.5886
487.9365, 354.9041
488.4186, 346.6726
488.9007, 319.2729
489.3828, 329.1187
489.8649, 375.1101
490.3470, 430.8296
490.8292, 488.9302
491.3113, 548.1892
491.7934, 608.6650
492.2755, 672.3228
492.7576, 727.7100
493.2397, 771.6697
493.7219, 807.3081
494.2040, 829.8789
494.6861, 845.2222
495.1682, 871.3711
495.6503, 920.2109
496.1324, 982.1587
496.6146, 1028.791
497.0967, 1049.461
497.5788, 1076.932
498.0609, 1108.595
498.5430, 1152.165
499.0251, 1220.320
499.5073, 1307.251
499.9894, 1388.953
500.4715, 1448.941
500.9536, 1496.310
501.4357, 1560.735
501.9178, 1643.839
502.4000, 1673.881
502.8821, 1593.746
503.3642, 1476.233
503.8463, 1452.393
504.3284, 1533.745
504.8105, 1620.636
505.2927, 1717.880
505.7748, 1795.756
506.2569, 1824.049
506.7390, 1809.364
507.2211, 1777.296
507.7032, 1741.040
508.1854, 1705.759
508.6675, 1687.510
509.1496, 1693.220
509.6317, 1701.885
510.1138, 1702.043
510.5959, 1712.497
511.0781, 1756.545
511.5602, 1824.819
512.0423, 1875.024
512.5244, 1881.414
513.0065, 1862.056
513.4886, 1836.577
513.9708, 1803.186
514.4529, 1813.281
514.9350, 1906.882
515.4171, 2036.936
515.8992, 2132.863
516.3813, 2193.109
516.8635, 2234.292
517.3456, 2249.019
517.8277, 2254.542
518.3098, 2255.549
518.7919, 2255.978
519.2740, 2264.781
519.7562, 2287.526
520.2383, 2323.311
520.7204, 2370.149
521.2025, 2432.028
521.6846, 2494.624
522.1667, 2568.590
522.6489, 2639.942
523.1310, 2682.478
523.6131, 2707.909
524.0952, 2764.734
524.5773, 2899.372
525.0594, 3052.863
525.5416, 3143.111
526.0237, 3183.695
526.5058, 3244.610
526.9879, 3341.382
527.4700, 3465.542
527.9521, 3609.352
528.4343, 3777.438
528.9164, 3960.812
529.3985, 4172.787
529.8806, 4386.932
530.3627, 4595.530
530.8448, 4788.113
531.3270, 4970.868
531.8091, 5153.000
532.2912, 5312.515
532.7733, 5389.185
533.2554, 5363.308
533.7375, 5456.742
534.2197, 5773.746
534.7018, 6072.862
535.1839, 6198.617
535.6660, 6224.443
536.1481, 6284.052
536.6302, 6415.361
537.1124, 6572.220
537.5945, 6749.713
538.0766, 6923.316
538.5587, 7038.804
539.0408, 7084.800
539.5229, 7088.086
540.0051, 7064.250
540.4872, 7014.531
540.9693, 7004.830
541.4514, 7107.510
541.9335, 7160.199
542.4156, 7104.312
542.8978, 7004.625
543.3799, 6928.342
543.8620, 6885.521
544.3441, 6836.583
544.8262, 6726.392
545.3083, 6578.112
545.7905, 6501.817
546.2726, 6515.374
546.7547, 6513.171
547.2368, 6439.619
547.7189, 6325.382
548.2010, 6225.364
548.6832, 6138.105
549.1653, 6068.996
549.6474, 6019.155
550.1295, 5988.179
550.6116, 5981.666
551.0938, 5994.899
551.5759, 6015.997
552.0580, 6039.838
552.5401, 6058.863
553.0222, 6047.908
553.5043, 5986.252
553.9865, 5948.520
554.4686, 5955.495
554.9507, 5977.263
555.4328, 5997.688
555.9149, 6020.382
556.3970, 6059.778
556.8792, 6132.102
557.3613, 6211.363
557.8434, 6275.170
558.3255, 6322.935
558.8076, 6346.033
559.2897, 6338.319
559.7719, 6329.613
560.2540, 6357.139
560.7361, 6427.163
561.2182, 6473.811
561.7003, 6475.927
562.1824, 6482.884
562.6646, 6523.996
563.1467, 6571.306
563.6288, 6591.925
564.1109, 6576.740
564.5930, 6536.725
565.0751, 6484.836
565.5573, 6418.784
566.0394, 6319.657
566.5215, 6181.349
567.0036, 6031.804
567.4857, 5876.998
567.9678, 5723.716
568.4500, 5587.501
568.9321, 5480.314
569.4142, 5353.760
569.8963, 5162.948
570.3784, 4969.575
570.8605, 4850.729
571.3427, 4787.510
571.8248, 4690.745
572.3069, 4504.435
572.7890, 4267.037
573.2711, 4039.972
573.7532, 3598.830
574.2354, 3639.015
574.7175, 3609.969
575.1996, 3515.404
575.6817, 3158.749
576.1638, 3140.710
576.6459, 2988.121
577.1281, 2830.025
577.6102, 2859.925
578.0923, 2541.894
578.5744, 2568.992
579.0565, 2458.467
579.5386, 2411.104
580.0208, 2227.274
580.5029, 2085.701
580.9850, 2080.758
581.4671, 2000.283
581.9492, 1801.100
582.4313, 1716.748
582.9135, 1672.515
583.3956, 1616.052
583.8777, 1568.596
584.3598, 1531.698
584.8419, 1484.431
585.3240, 1387.509
585.8062, 1273.940
586.2883, 1233.539
586.7704, 1265.084
587.2525, 1278.038
587.7346, 1230.241
588.2167, 1158.882
588.6989, 1126.606
589.1810, 1150.633
589.6631, 1154.432
590.1452, 1121.526
590.6273, 1079.553
591.1094, 1027.574
591.5916, 979.7061
592.0737, 966.9092
592.5558, 1002.449
593.0379, 1048.703
593.5200, 1045.530
594.0021, 991.5122
594.4843, 934.3960
594.9664, 873.4502
595.4485, 824.5210
595.9306, 793.6382
596.4127, 781.1143
596.8948, 790.7412
597.3770, 841.4121
597.8591, 872.2285
598.3412, 847.0789
598.8233, 808.2590
599.3054, 788.2441
599.7875, 788.1484
600.2697, 810.6680
600.7518, 860.3022
601.2339, 914.8716
601.7160, 898.5762
602.1981, 777.9980
602.6802, 693.6499
603.1624, 682.3218
603.6445, 691.3220
604.1266, 682.6260
604.6087, 656.0171
605.0908, 623.3394
605.5729, 581.8459
606.0551, 550.5171
606.5372, 547.2073
607.0193, 555.2544
607.5014, 547.2722
607.9835, 520.5952
608.4656, 496.2266
608.9478, 493.3992
609.4299, 508.2571
609.9120, 512.3689
610.3941, 502.4414
610.8762, 474.2632
611.3583, 396.9380
611.8405, 327.4209
612.3226, 309.3022
612.8047, 335.7957
613.2868, 364.9043
613.7689, 385.3589
614.2510, 395.8506
614.7332, 388.6511
615.2153, 370.5422
615.6974, 360.9456
616.1795, 365.1304
616.6616, 367.1377
617.1437, 348.2134
617.6259, 309.3525
618.1080, 282.7424
618.5901, 281.6904
619.0722, 276.5056
619.5543, 267.7395
620.0364, 248.7439
620.5186, 203.2104
621.0007, 135.7725
621.4828, 91.18042
621.9649, 110.8728
622.4470, 157.8911
622.9291, 194.8015
623.4113, 219.5730
623.8934, 222.0713
624.3755, 197.4631
624.8576, 158.2124
625.3397, 116.3333
625.8218, 66.35571
626.3040, 55.25757
626.7861, 136.4663
627.2682, 194.0793
627.7503, 180.1631
628.2324, 143.2104
628.7145, 142.3779
629.1967, 185.5876
629.6788, 219.7622
630.1609, 194.0732
630.6430, 142.1548
631.1251, 127.0300
631.6072, 144.3940
632.0894, 146.2581
632.5715, 111.8149
633.0536, 59.22168
633.5357, 8.276611
634.0178, 53.43140
634.4999, 52.47900
634.9821, 94.02002
635.4642, 204.2097
635.9463, 202.3601
636.4284, 145.2405
636.9105, 97.35669
637.3926, 74.87964
637.8748, 72.24707
638.3569, 104.5542
638.8390, 146.6379
639.3211, 144.8647
639.8032, 100.5593
640.2853, 53.31812
640.7675, 19.33203
641.2496, 6.518799
641.7317, 33.54590
642.2138, 66.50513
642.6959, 83.51099
643.1780, 80.00171
643.6602, 66.91846
644.1423, 33.83350
644.6244, 0.5927730
645.1065, 11.06616
645.5886, 8.403076
646.0707, 38.40869
646.5529, 72.49512
647.0350, 103.2004
647.5171, 114.1548
647.9992, 105.9453
648.4813, 88.02026
648.9634, 60.37964
649.4456, 40.15283
649.9277, 62.01343
650.4098, 148.5203
650.8919, 193.4336
651.3740, 164.2329
651.8561, 131.5430
652.3383, 120.2917
652.8204, 117.1733
653.3025, 101.8843
653.7846, 69.69580
654.2667, 39.28003
654.7488, 24.76807
655.2310, 20.27734
655.7131, 23.43774
656.1952, 30.61133
656.6773, 11.96606
657.1594, 51.10376
657.6415, 114.9204
658.1237, 99.16895
658.6058, 30.39185
659.0879, 82.32227
659.5700, 45.36182
660.0521, 132.0334
660.5342, 73.48438
661.0164, 35.70654
661.4985, 79.74463
661.9806, 37.18213
662.4627, 14.33618
662.9448, 20.78711
663.4269, 15.49731
663.9091, 46.79663
664.3912, 107.0325
664.8733, 164.1641
665.3554, 207.0432
665.8375, 221.5269
666.3196, 176.7678
666.8018, 59.87378
667.2839, 11.57251
667.7660, 72.41870
668.2481, 141.7612
668.7302, 205.4285
669.2123, 252.6362
669.6945, 270.0872
670.1766, 256.8784
670.6587, 233.2832
671.1408, 187.0657
671.6229, 151.5974
672.1050, 175.9155
672.5872, 233.9573
673.0693, 259.0078
673.5514, 231.9287
674.0335, 187.6128
674.5156, 164.6514
674.9977, 111.5066
675.4799, 180.8777
675.9620, 222.4180
676.4441, 237.6697
676.9262, 148.0186
677.4083, 193.9045
677.8904, 186.9016
678.3726, 178.3342
678.8547, 243.6533
679.3368, 169.2747
679.8189, 232.8613
680.3010, 241.4072
680.7831, 275.4919
681.2653, 255.4539
681.7474, 252.3745
682.2295, 303.4780
682.7116, 323.8149
683.1937, 296.1282
683.6758, 330.8611
684.1580, 253.9861
684.6401, 276.2720
685.1222, 342.2998
685.6043, 318.7988
686.0864, 354.8110
686.5685, 367.1650
687.0507, 274.3130
687.5328, 364.2881
688.0149, 333.0437
688.4970, 394.3381
688.9791, 446.4326
689.4612, 411.2104
689.9434, 312.1626
690.4255, 264.6926
690.9076, 353.5081
691.3897, 499.3057
691.8718, 574.3672
692.3539, 588.2136
692.8361, 601.7092
693.3182, 626.1792
693.8003, 635.1714
694.2824, 599.8599
694.7645, 535.6326
695.2466, 514.8118
695.7288, 592.3208
696.2109, 628.2439
696.6930, 568.9292
697.1751, 515.1755
697.6572, 541.9338
698.1393, 618.0251
698.6215, 666.5312
699.1036, 653.1973
699.5857, 632.5552
700.0678, 654.0784
700.5499, 695.7712
701.0320, 718.1870
701.5142, 720.4517
701.9963, 725.4507
702.4784, 745.1133
702.9605, 771.6721
703.4426, 799.8101
703.9247, 847.8149
704.4069, 809.6516
704.8890, 594.5056
705.3711, 427.5176
705.8532, 448.2852
706.3353, 556.6138
706.8174, 627.9062
707.2996, 642.1370
707.7817, 640.6201
708.2638, 627.1042
708.7459, 614.4312
709.2280, 616.1284
709.7101, 628.9712
710.1923, 643.8025
710.6744, 658.0981
711.1565, 677.6211
711.6386, 723.8835
712.1207, 783.3577
712.6028, 763.7483
713.0850, 649.0078
713.5671, 545.3970
714.0492, 477.4961
714.5313, 453.7874
715.0134, 503.9482
715.4955, 634.0303
715.9777, 685.2034
716.4598, 581.3743
716.9419, 490.7500
717.4240, 467.1643
717.9061, 475.9260
718.3882, 495.6990
718.8704, 515.4104
719.3525, 535.3789
719.8346, 573.1382
720.3167, 595.6238
720.7988, 537.8433
721.2809, 428.8555
721.7631, 353.7236
722.2452, 327.2236
722.7273, 322.4727
723.2094, 323.6819
723.6915, 327.4319
724.1736, 323.7432
724.6558, 314.2681
725.1379, 286.4824
725.6200, 201.3235
726.1021, 153.3794
726.5842, 226.4290
727.0663, 358.1809
727.5485, 435.0232
728.0306, 439.1982
728.5127, 393.9587
728.9948, 243.4365
729.4769, 100.5874
729.9590, 81.07300
730.4412, 149.6580
730.9233, 216.6101
731.4054, 246.1990
731.8875, 252.7388
732.3696, 243.9927
732.8517, 224.4097
733.3339, 237.3379
733.8160, 288.2109
734.2981, 290.5381
734.7802, 191.4036
735.2623, 73.04468
735.7444, 46.90845
736.2266, 125.6953
736.7087, 172.4502
737.1908, 172.4250
737.6729, 159.5930
738.1550, 120.9929
738.6371, 85.62842
739.1193, 78.25488
739.6014, 99.08545
740.0835, 136.6135
740.5656, 214.5029
741.0477, 266.8979
741.5298, 198.1785
742.0120, 74.85986
742.4941, 23.18188
742.9762, 56.88745
743.4583, 126.0864
743.9404, 206.0103
744.4225, 265.5132
744.9047, 201.6987
745.3868, 11.10547
745.8689, 123.0171
746.3510, 89.24268
746.8331, 6.375000
747.3152, 95.89453
747.7974, 200.2034
748.2795, 268.7104
748.7616, 298.5850
749.2437, 308.0315
749.7258, 289.2217
750.2079, 260.7800
750.6901, 228.2122
751.1722, 193.7117
751.6543, 143.1758
752.1364, 79.40527
752.6185, 65.13281
753.1006, 205.2749
753.5828, 388.6980
754.0649, 441.3826
754.5470, 385.6921
755.0291, 298.8992
755.5112, 202.9048
755.9933, 118.4187
756.4755, 62.65088
756.9576, 37.30835
757.4397, 60.46826
757.9218, 155.0945
758.4039, 224.9346
758.8860, 241.0220
759.3682, 246.0063
759.8503, 277.9048
760.3324, 322.8367
760.8145, 342.4673
761.2966, 328.9900
761.7787, 300.0708
762.2609, 257.9048
762.7430, 203.7600
763.2251, 115.6802
763.7072, 21.36084
764.1893, 31.24683
764.6714, 24.95654
765.1536, 37.39819
765.6357, 222.8628
766.1178, 436.4312
766.5999, 449.1062
767.0820, 282.9109
767.5641, 128.8867
768.0463, 53.86670
768.5284, 20.95996
769.0105, 14.07349
769.4926, 49.84521
769.9747, 48.24292
770.4568, 7.660400
770.9390, 60.25659
771.4211, 110.2317
771.9032, 138.9246
772.3853, 119.2878
772.8674, 63.55322
773.3495, 21.84058
773.8317, 3.728027
774.3138, 9.770508
774.7959, 21.37720
775.2780, 58.20825
775.7601, 79.54712
776.2422, 84.36450
776.7244, 69.78003
777.2065, 31.64844
777.6886, 10.48242
778.1707, 78.00244
778.6528, 178.7542
779.1349, 186.8640
779.6171, 110.7432
780.0992, 37.89600
780.5813, 1.237305
781.0634, 1.739258
781.5455, 30.80347
782.0276, 97.35571
782.5098, 153.6499
782.9919, 202.2510
783.4740, 231.2412
783.9561, 224.7766
784.4382, 213.1494
784.9203, 225.9160
785.4025, 258.3809
785.8846, 282.1809
786.3667, 298.5076
786.8488, 302.7473
787.3309, 281.7776
787.8130, 257.8418
788.2952, 249.2544
788.7773, 250.9829
789.2594, 250.3579
789.7415, 243.0854
790.2236, 231.1790
790.7057, 220.1711
791.1879, 203.2881
791.6700, 149.9966
792.1521, 79.34155
792.6342, 70.24780
793.1163, 147.7695
793.5984, 246.6265
794.0806, 295.0051
794.5627, 298.1204
795.0448, 295.8606
795.5269, 288.4888
796.0090, 272.4094
796.4911, 244.4888
796.9733, 212.6243
797.4554, 180.1633
797.9375, 150.0171
798.4196, 139.3640
798.9017, 173.3779
799.3839, 189.1245
799.8660, 161.3154
800.3481, 137.7007
800.8302, 148.9387
801.3123, 183.5735
801.7944, 229.0178
802.2766, 287.0374
802.7587, 311.1667
803.2408, 234.8413
803.7229, 142.7458
804.2050, 125.4656
804.6871, 161.5093
805.1693, 200.7183
805.6514, 225.8767
806.1335, 240.0923
806.6156, 244.1572
807.0977, 242.2017
807.5798, 245.2058
808.0620, 252.1760
808.5441, 249.8542
809.0262, 234.3049
809.5083, 237.0601
809.9904, 285.1221
810.4725, 358.4839
810.9547, 395.7507
811.4368, 377.9014
811.9189, 382.2847
812.4010, 430.8030
812.8831, 468.4551
813.3652, 454.8596
813.8474, 425.3408
814.3295, 432.5249
814.8116, 481.9512
815.2937, 515.0251
815.7758, 520.7913
816.2579, 511.1914
816.7401, 474.7222
817.2222, 436.7568
817.7043, 428.4658
818.1864, 445.4587
818.6685, 453.9082
819.1506, 432.4622
819.6328, 409.1726
820.1149, 409.1624
820.5970, 424.2395
821.0791, 446.8252
821.5612, 470.8743
822.0433, 482.2605
822.5255, 478.3284
823.0076, 465.6580
823.4897, 440.3208
823.9718, 406.0054
824.4539, 398.8164
824.9360, 419.7317
825.4182, 456.4146
825.9003, 512.1685
826.3824, 554.9297
826.8645, 546.9297
827.3466, 493.2380
827.8287, 450.9136
828.3109, 424.1814
828.7930, 408.3337
829.2751, 410.9773
829.7573, 414.2898
830.2394, 402.4419
830.7215, 385.9412
831.2036, 388.2100
831.6857, 418.6633
832.1678, 439.2456
832.6500, 440.6680
833.1321, 432.5276
833.6142, 420.0237
834.0963, 401.3823
834.5784, 362.2642
835.0605, 307.3647
835.5427, 282.0854
836.0248, 340.9834
836.5069, 409.3496
836.9890, 398.4287
837.4711, 344.5979
837.9532, 322.1646
838.4354, 333.4009
838.9175, 328.5337
839.3996, 278.3682
839.8817, 215.4744
840.3638, 199.7283
840.8459, 223.6338
841.3281, 224.4915
841.8102, 199.1333
842.2923, 177.7642
842.7744, 173.7900
843.2565, 169.7522
843.7386, 140.4927
844.2208, 88.90723
844.7029, 72.40894
845.1850, 106.7168
845.6671, 142.6567
846.1492, 196.0005
846.6313, 221.8770
847.1135, 161.3025
847.5956, 53.63623
848.0777, 5.699707
848.5598, 2.806396
849.0419, 20.73853
849.5240, 91.68213
850.0062, 146.0874
850.4883, 136.0996
850.9704, 100.4385
851.4525, 97.05396
851.9346, 129.3911
852.4167, 140.0762
852.8989, 76.20068
853.3810, 7.824951
853.8631, 15.15894
854.3452, 9.089355
854.8273, 12.39160
855.3094, 41.51440
855.7916, 68.07642
856.2737, 87.97656
856.7558, 89.36719
857.2379, 41.19653
857.7200, 33.01758
858.2021, 69.41235
858.6843, 68.95898
859.1664, 54.44653
859.6485, 33.22021
860.1306, 10.00757
860.6127, 10.63599
861.0948, 28.85376
861.5770, 48.10278
862.0591, 71.33521
862.5412, 70.11938
863.0233, 31.15649
863.5054, 4.757080
863.9875, 12.14868
864.4697, 0.9555660
864.9518, 17.20801
865.4339, 37.92041
865.9160, 57.01758
866.3981, 73.73999
866.8802, 89.81738
867.3624, 100.4631
867.8445, 114.5925
868.3266, 144.9028
868.8087, 188.4275
869.2908, 222.4180
869.7729, 227.1003
870.2551, 244.0337
870.7372, 300.2693
871.2193, 358.2534
871.7014, 392.0151
872.1835, 404.9277
872.6656, 402.3022
873.1478, 385.0374
873.6299, 372.6028
874.1120, 368.3779
874.5941, 382.2493
875.0762, 436.1768
875.5583, 509.4248
876.0405, 563.4717
876.5226, 595.7314
877.0047, 639.3440
877.4868, 722.9626
877.9689, 800.5603
878.4510, 782.3809
878.9332, 713.9070
879.4153, 712.6997
879.8974, 777.1553
880.3795, 867.9614
880.8616, 972.6316
881.3438, 1063.715
881.8259, 1098.199
882.3080, 1081.791
882.7901, 1057.968
883.2722, 1026.217
883.7543, 941.7917
884.2365, 1037.244
884.7186, 1103.519
885.2007, 1141.018
885.6828, 1073.695
886.1649, 1141.802
886.6470, 1155.658
887.1292, 1167.315
887.6113, 1355.932
888.0934, 1454.345
888.5755, 1372.221
889.0576, 1247.843
889.5397, 1251.303
890.0219, 1377.614
890.5040, 1438.348
890.9861, 1361.738
891.4682, 1325.839
891.9503, 1403.150
892.4324, 1470.875
892.9146, 1442.533
893.3967, 1359.087
893.8788, 1296.035
894.3609, 1266.152
894.8430, 1245.652
895.3251, 1230.230
895.8073, 1218.128
896.2894, 1223.047
896.7715, 1220.984
897.2536, 1176.697
897.7357, 1097.997
898.2178, 1023.072
898.7000, 965.6841
899.1821, 928.0461
899.6642, 915.0400
900.1463, 920.3350
900.6284, 956.0637
901.1105, 999.8262
901.5927, 1000.116
902.0748, 944.5232
902.5569, 862.7153
903.0390, 759.6357
903.5211, 669.9141
904.0032, 662.7539
904.4854, 713.1877
904.9675, 755.7417
905.4496, 780.3967
905.9317, 792.6245
906.4138, 795.1372
906.8959, 788.5242
907.3781, 767.5664
907.8602, 736.9851
908.3423, 739.7068
908.8244, 774.4177
909.3065, 748.2229
909.7886, 629.7205
910.2708, 527.3564
910.7529, 537.6353
911.2350, 618.8564
911.7171, 640.1101
912.1992, 590.4790
912.6813, 560.6980
913.1635, 563.6646
913.6456, 553.9949
914.1277, 510.2595
914.6098, 449.7083
915.0919, 384.3687
915.5740, 315.3003
916.0562, 309.2002
916.5383, 422.3569
917.0204, 486.5703
917.5025, 455.2180
917.9846, 408.5322
918.4667, 391.6377
918.9489, 389.3396
919.4310, 372.1011
919.9131, 337.4497
920.3952, 299.9744
920.8773, 252.5796
921.3594, 212.3882
921.8416, 170.6235
922.3237, 149.1494
922.8058, 176.6221
923.2879, 239.1677
923.7700, 294.1753
924.2521, 344.0413
924.7343, 358.5918
925.2164, 308.0142
925.6985, 242.5444
926.1806, 184.7322
926.6627, 133.3633
927.1448, 78.49243
927.6270, 23.04224
928.1091, 10.84058
928.5912, 16.16528
929.0733, 5.800781
929.5554, 93.40649
930.0375, 175.9587
930.5197, 167.2148
931.0018, 100.8484
931.4839, 56.06665
931.9660, 55.34912
932.4481, 67.90479
932.9302, 77.19580
933.4124, 84.62573
933.8945, 98.60400
934.3766, 108.1201
934.8587, 93.95483
935.3408, 57.07690
935.8229, 1.826660
936.3051, 71.27002
936.7872, 120.0857
937.2693, 67.97168
937.7514, 20.29492
938.2335, 12.81030
938.7156, 56.36133
939.1978, 73.18970
939.6799, 21.60254
940.1620, 17.39307
940.6441, 14.69873
941.1262, 71.05615
941.6083, 82.36865
942.0905, 53.32422
942.5726, 18.80957
943.0547, 123.2383
943.5368, 179.5579
944.0189, 162.3569
944.5010, 130.2622
944.9832, 141.8567
945.4653, 172.6733
945.9474, 141.0820
946.4295, 54.17896
946.9116, 23.91650
947.3937, 62.54810
947.8759, 81.69629
948.3580, 37.83691
948.8401, 14.21509
949.3222, 0.1064450
949.8043, 69.29126
950.2864, 116.8518
950.7686, 141.6699
951.2507, 148.7666
951.7328, 132.9507
952.2149, 131.3010
952.6970, 171.5103
953.1791, 224.1582
953.6613, 235.7754
954.1434, 204.4514
954.6255, 164.3315
955.1076, 97.12207
955.5897, 97.03735
956.0718, 218.7019
956.5540, 329.8840
957.0361, 322.4358
957.5182, 244.1729
958.0003, 225.7854
958.4824, 286.0962
958.9645, 329.1099
959.4467, 352.3584
959.9288, 361.0149
960.4109, 338.0066
960.8930, 327.4255
961.3751, 384.7026
961.8572, 487.8853
962.3394, 532.8191
962.8215, 479.5964
963.3036, 453.1489
963.7857, 456.8198
964.2678, 483.3276
964.7499, 550.3206
965.2321, 622.5139
965.7142, 654.0791
966.1963, 649.6978
966.6784, 671.3142
967.1605, 748.0996
967.6426, 805.4434
968.1248, 828.8286
968.6069, 846.5381
969.0890, 873.1428
969.5711, 899.7732
970.0532, 906.4971
970.5353, 893.0664
971.0175, 813.6272
971.4996, 965.3386
971.9817, 1070.840
972.4638, 1132.605
972.9459, 1019.610
973.4280, 1132.320
973.9102, 1154.647
974.3923, 1173.272
974.8744, 1317.840
975.3565, 1230.397
975.8386, 1372.996
976.3207, 1423.779
976.8029, 1516.615
977.2850, 1518.445
977.7671, 1628.535
978.2492, 1816.333
978.7313, 1910.453
979.2134, 1876.687
979.6956, 1837.660
980.1777, 1785.327
980.6598, 1781.354
981.1419, 1929.125
981.6240, 2065.654
982.1061, 2028.184
982.5883, 1868.776
983.0704, 1735.635
983.5525, 1657.005
984.0346, 1612.424
984.5167, 1626.505
984.9988, 1635.724
985.4810, 1625.825
985.9631, 1582.913
986.4452, 1481.049
986.9273, 1337.537
987.4094, 1201.890
987.8915, 1087.380
988.3737, 988.7971
988.8558, 920.4919
989.3379, 839.6816
989.8200, 679.8857
990.3021, 527.5933
990.7842, 489.8738
991.2664, 538.3503
991.7485, 554.0005
992.2306, 487.3679
992.7127, 437.2622
993.1948, 487.4646
993.6769, 521.1011
994.1591, 422.1584
994.6412, 284.4966
995.1233, 227.5176
995.6054, 256.6172
996.0875, 316.7017
996.5696, 410.9810
997.0518, 471.9138
997.5339, 465.8440
998.0160, 423.3931
998.4981, 333.5542
998.9802, 236.3320
999.4623, 187.9280
999.9445, 192.7419
1000.427, 220.4802
1000.909, 267.3401
1001.391, 309.5151
1001.873, 355.4656
1002.355, 372.1980
1002.837, 299.0918
1003.319, 203.6362
1003.801, 174.8025
1004.284, 220.5864
1004.766, 281.5430
1005.248, 359.8289
1005.730, 399.8835
1006.212, 332.2793
1006.694, 259.4517
1007.176, 267.7983
1007.658, 320.3889
1008.140, 355.8594
1008.623, 367.6853
1009.105, 377.2739
1009.587, 400.4763
1010.069, 372.5759
1010.551, 480.9224
1011.033, 543.0454
1011.515, 561.4277
1011.997, 405.0439
1012.479, 474.3481
1012.962, 453.2141
1013.444, 428.3774
1013.926, 407.6226
1014.408, 413.0486
1014.890, 422.8826
1015.372, 424.0637
1015.854, 391.7771
1016.336, 356.4294
1016.819, 353.0591
1017.301, 385.1370
1017.783, 422.5828
1018.265, 469.8833
1018.747, 496.4932
1019.229, 473.1917
1019.711, 444.0532
1020.193, 448.0679
1020.675, 460.1189
1021.158, 431.9365
1021.640, 364.6274
1022.122, 240.2366
1022.604, 333.4578
1023.086, 380.4648
1023.568, 383.8447
1024.050, 213.6262
1024.532, 273.6792
1025.015, 243.8618
1025.497, 204.6333
1025.979, 290.5933
1026.461, 146.6755
1026.943, 236.1438
1027.425, 231.0000
1027.907, 265.3208
1028.389, 222.3562
1028.871, 141.4431
1029.354, 49.72144
1029.836, 92.17261
1030.318, 261.0283
1030.800, 371.5195
1031.282, 360.4067
1031.764, 333.2427
1032.246, 321.5312
1032.728, 291.0283
1033.210, 185.8154
1033.693, 78.57861
1034.175, 71.92896
1034.657, 156.5710
1035.139, 206.1880
1035.621, 197.5076
1036.103, 173.4104
1036.585, 105.9470
1037.067, 60.82007
1037.550, 89.01831
1038.032, 135.4570
1038.514, 138.7966
1038.996, 103.9351
1039.478, 75.12305
1039.960, 51.68823
1040.442, 35.44214
1040.924, 19.74341
1041.406, 21.17529
1041.889, 52.15674
1042.371, 97.25562
1042.853, 155.6204
1043.335, 213.3352
1043.817, 212.7988
1044.299, 124.6309
1044.781, 48.18481
1045.263, 33.65503
1045.745, 64.59180
1046.228, 8.310791
1046.710, 79.57739
1047.192, 38.00659
1047.674, 74.40918
1048.156, 104.8608
1048.638, 31.13110
1049.120, 34.72876
1049.602, 89.39551
1050.085, 151.5757
1050.567, 240.3948
1051.049, 296.1584
1051.531, 257.6221
1052.013, 168.9546
1052.495, 152.0901
1052.977, 217.3181
1053.459, 229.0103
1053.942, 176.3787
1054.424, 145.1978
1054.906, 158.1443
1055.388, 182.6648
1055.870, 198.4658
1056.352, 203.7654
1056.834, 188.5557
1057.316, 156.7773
1057.798, 164.5098
1058.281, 208.7207
1058.763, 238.3657
1059.245, 243.3726
1059.727, 199.0581
1060.209, 83.65234
1060.691, 20.12402
1061.173, 38.65186
1061.655, 203.1611
1062.137, 248.8054
1062.620, 196.7444
1063.102, 155.2166
1063.584, 138.6584
1064.066, 106.6843
1064.548, 37.79761
1065.030, 5.282959
1065.512, 68.90405
1065.994, 195.2290
1066.477, 248.1055
1066.959, 243.6907
1067.441, 198.2593
1067.923, 132.5293
1068.405, 117.8184
1068.887, 174.0945
1069.369, 221.7661
1069.851, 177.8840
1070.333, 118.8015
1070.816, 147.2795
1071.298, 214.8850
1071.780, 277.7217
1072.262, 310.2070
1072.744, 242.5500
1073.226, 77.47461
1073.708, 38.59277
1074.190, 3.354980
1074.672, 68.60400
1075.155, 117.4285
1075.637, 139.4404
1076.119, 113.1636
1076.601, 68.04858
1077.083, 47.42090
1077.565, 54.21948
1078.047, 63.37036
1078.530, 66.86938
1079.012, 69.00024
1079.494, 73.35889
1079.976, 73.46924
1080.458, 71.36987
1080.940, 58.34448
1081.422, 4.718018
1081.904, 68.40210
1082.386, 77.90698
1082.869, 22.97266
1083.351, 74.89087
1083.833, 8.652100
1084.315, 61.91113
1084.797, 17.41675
1085.279, 60.41992
1085.761, 148.8723
1086.243, 226.0842
1086.725, 241.4470
1087.208, 186.2993
1087.690, 117.7441
1088.172, 10.65503
1088.654, 52.99194
1089.136, 60.13745
1089.618, 172.3164
1090.100, 159.7539
1090.582, 262.1079
1091.065, 318.2092
1091.547, 330.5640
1092.029, 168.1350
1092.511, 231.3801
1092.993, 204.1687
1093.475, 173.2468
1093.957, 268.2395
1094.439, 131.1980
1094.922, 167.6987
1095.404, 225.3516
1095.886, 302.1545
1096.368, 335.5347
1096.850, 328.1089
1097.332, 264.1858
1097.814, 152.0132
1098.296, 84.18945
1098.778, 84.92993
1099.260, 88.49390
1099.743, 42.78955
1100.225, 0.4267580
1100.707, 52.23926
1101.189, 157.2488
1101.671, 229.6594
1102.153, 269.7200
1102.635, 276.0088
1103.117, 256.5408
1103.600, 253.9412
1104.082, 301.1328
1104.564, 342.7145
1105.046, 333.9108
1105.528, 292.7224
1106.010, 239.7739
1106.492, 192.5059
1106.974, 147.7754
1107.457, 118.0826
1107.939, 147.7711
1108.421, 244.4546
1108.903, 315.6117
1109.385, 313.4231
1109.867, 285.4409
1110.349, 220.0499
1110.831, 168.8563
1111.313, 179.9861
1111.796, 220.5868
1112.278, 253.0101
1112.760, 270.9292
1113.242, 256.9038
1113.724, 189.0265
1114.206, 125.8663
1114.688, 36.62329
1115.170, 2.614380
1115.652, 84.64209
1116.135, 189.0614
1116.617, 252.0635
1117.099, 272.3757
1117.581, 237.7000
1118.063, 131.9142
1118.545, 90.17761
1119.027, 139.4114
1119.509, 158.7583
1119.992, 118.0272
1120.474, 81.15942
1120.956, 87.18726
1121.438, 12.59204
1121.920, 123.2799
1122.402, 187.6649
1122.884, 207.1005
1123.366, 53.07556
1123.849, 124.6581
1124.331, 105.7778
1124.813, 83.17578
1125.295, 186.4778
1125.777, 58.13123
1126.259, 159.4103
1126.741, 168.8524
1127.223, 220.9241
1127.705, 181.3787
1128.188, 169.9242
1128.670, 249.4833
1129.152, 278.6243
1129.634, 228.6638
1130.116, 282.9730
1130.598, 151.0029
1131.080, 232.4635
1131.562, 204.8417
1132.044, 176.3756
1132.527, 202.5193
1133.009, 227.1689
1133.491, 161.6096
1133.973, 56.89282
1134.455, 55.94507
1134.937, 187.7529
1135.419, 253.4542
1135.901, 115.4060
1136.384, 57.74329
1136.866, 220.6487
1137.348, 364.8671
1137.830, 355.3159
1138.312, 300.3894
1138.794, 330.9321
1139.276, 419.9929
1139.758, 419.4437
1140.240, 292.7019
1140.723, 258.6489
1141.205, 347.8032
1141.687, 356.8188
1142.169, 214.7872
1142.651, 91.31299
1143.133, 101.5220
1143.615, 185.3313
1144.097, 251.4308
1144.579, 303.0079
1145.062, 371.8994
1145.544, 442.9387
1146.026, 419.5997
1146.508, 309.5010
1146.990, 231.5737
1147.472, 222.1239
1147.954, 236.1301
1148.436, 244.1241
1148.919, 241.3589
1149.401, 199.0267
1149.883, 161.7523
1150.365, 220.6310
1150.847, 311.8639
1151.329, 308.3306
1151.811, 206.8956
1152.293, 99.94690
1152.776, 3.841919
1153.258, 29.75928
1153.740, 70.62317
1154.222, 171.6757
1154.704, 223.5907
1155.186, 244.4896
1155.668, 250.1777
1156.150, 236.4397
1156.632, 172.0884
1157.115, 52.71924
1157.597, 41.48425
1158.079, 225.6714
1158.561, 293.6152
1159.043, 179.9899
1159.525, 54.81873
1160.007, 31.56519
1160.489, 60.88135
1160.971, 1.249878
1161.454, 96.77649
1161.936, 77.29541
1162.418, 36.92053
1162.900, 3.007935
1163.382, 173.4342
1163.864, 270.2837
1164.346, 262.2207
1164.828, 232.9990
1165.311, 223.2795
1165.793, 209.3848
1166.275, 149.6564
1166.757, 96.16211
1167.239, 136.0369
1167.721, 207.0363
1168.203, 218.5247
1168.685, 194.4293
1169.167, 207.7764
1169.650, 258.8163
1170.132, 262.9695
1170.614, 162.3608
1171.096, 6.828491
1171.578, 112.4788
1172.060, 171.8911
1172.542, 186.9487
1173.024, 26.46753
1173.506, 92.98633
1173.989, 69.42334
1174.471, 41.92566
1174.953, 140.2163
1175.435, 6.473145
1175.917, 102.7522
1176.399, 107.0956
1176.881, 153.5717
1177.363, 109.0392
1177.846, 92.60571
1178.328, 167.0427
1178.810, 191.0549
1179.292, 134.9476
1179.774, 184.1307
1180.256, 48.16577
1180.738, 74.60608
1181.220, 170.9371
1181.703, 120.4121
1182.185, 171.0616
1182.667, 183.0536
1183.149, 20.05188
1183.631, 161.4380
1184.113, 171.3281
1184.595, 2.757202
1185.077, 85.78003
1185.559, 192.8701
1186.042, 183.9971
1186.524, 114.4636
1187.006, 59.29468
1187.488, 34.70068
1187.970, 71.53113
1188.452, 229.4949
1188.934, 296.2826
1189.416, 198.5244
1189.898, 102.9586
1190.381, 19.42969
1190.863, 11.10107
1191.345, 54.08533
1191.827, 151.8712
1192.309, 193.7845
1192.791, 186.8484
1193.273, 159.5403
1193.755, 113.7886
1194.238, 90.69873
1194.720, 91.27124
1195.202, 91.91663
1195.684, 85.89734
1196.166, 68.36536
1196.648, 33.96375
1197.130, 13.97913
1197.612, 57.53284
1198.094, 120.0509
1198.577, 145.4420
1199.059, 159.2770
1199.541, 206.2161
1200.023, 267.2349
1200.505, 297.4808
1200.987, 288.8456
1201.469, 257.5197
1201.951, 192.1208
1202.433, 134.0801
1202.916, 80.00549
1203.398, 50.05420
1203.880, 58.31458
1204.362, 82.30188
1204.844, 110.8674
1205.326, 139.2169
1205.808, 160.7113
1206.290, 175.4050
1206.773, 164.2756
1207.255, 127.0852
1207.737, 66.20703
1208.219, 14.63074
1208.701, 33.99792
1209.183, 36.71899
1209.665, 110.9373
1210.147, 124.3755
1210.630, 121.5084
1211.112, 177.7782
1211.594, 234.4944
1212.076, 183.6506
1212.558, 105.5511
1213.040, 88.83545
1213.522, 128.9581
1214.004, 178.8484
1214.486, 226.5701
1214.969, 254.6327
1215.451, 240.7725
1215.933, 233.8055
1216.415, 267.6238
1216.897, 271.6061
1217.379, 173.1249
1217.861, 110.0676
1218.343, 224.9777
1218.825, 404.0010
1219.308, 385.8307
1219.790, 189.7649
1220.272, 143.7081
1220.754, 237.6311
1221.236, 244.2725
1221.718, 149.1713
1222.200, 73.07385
1222.682, 57.16980
1223.165, 69.61389
1223.647, 89.79285
1224.129, 118.6436
1224.611, 178.4984
1225.093, 227.1816
1225.575, 214.6068
1226.057, 168.9689
1226.539, 113.5090
1227.021, 57.80334
1227.504, 4.885010
1227.986, 39.47742
1228.468, 39.13757
1228.950, 65.87769
1229.432, 123.6864
1229.914, 111.9108
1230.396, 80.64355
1230.878, 32.20947
1231.360, 4.667847
1231.843, 28.22473
1232.325, 82.45337
1232.807, 139.1094
1233.289, 191.1456
1233.771, 201.8787
1234.253, 180.0929
1234.735, 154.8373
1235.217, 130.5101
1235.700, 112.8867
1236.182, 92.55835
1236.664, 69.47644
1237.146, 21.62170
1237.628, 10.52527
1238.110, 14.80396
1238.592, 47.48938
1239.074, 63.47083
1239.557, 66.35730
1240.039, 49.83008
1240.521, 28.44897
1241.003, 24.87476
1241.485, 38.38257
1241.967, 63.30066
1242.449, 106.8651
1242.931, 135.8544
1243.413, 150.3323
1243.896, 142.9015
1244.378, 109.5442
1244.860, 96.17847
1245.342, 128.7515
1245.824, 148.2711
1246.306, 104.2939
1246.788, 49.12170
1247.270, 43.20374
1247.752, 64.24048
1248.235, 85.53271
1248.717, 107.4982
1249.199, 143.5427
1249.681, 188.4335
1250.163, 222.6754
1250.645, 237.3142
1251.127, 230.6034
1251.609, 184.0659
1252.092, 128.9834
1252.574, 37.26672
1253.056, 3.659058
1253.538, 65.90308
1254.020, 141.2964
1254.502, 120.6935
1254.984, 60.81018
1255.466, 97.90259
1255.948, 211.2549
1256.431, 285.5081
1256.913, 313.4796
1257.395, 221.8403
1257.877, 50.68677
1258.359, 0.1503910
1258.841, 111.2476
1259.323, 187.7928
1259.805, 108.5258
1260.287, 19.66479
1260.770, 12.26953
1261.252, 20.28113
1261.734, 10.93396
1262.216, 0.3233640
1262.698, 18.38086
1263.180, 0.0000000E+00
##END=



