##NAMES=Charoite
##RRUFFID=R060376
##IDEAL CHEMISTRY=(K,Sr,Ba,Mn)_15-16_(Ca,Na)_32_Si_70_(O,OH)_180_(OH,F)_4_&#183;nH_2_O
##LOCALITY=Chara River area, Murun Massif, northwest Aldan, Siberia, U.S.S.R.
##OWNER=RRUFF
##SOURCE=Michael Scott
##DESCRIPTION=Purple flaky and massive associated with tan colored tinaksite, R060375
##STATUS=The identification of this mineral is not yet confirmed.
##URL=rruff.info/R060376
101.7280, 0.0000000E+00
102.2101, 0.1886980
102.6922, 8.8729998E-03
103.1743, 0.1258390
103.6564, 0.6158220
104.1385, 1.437569
104.6207, 2.833130
105.1028, 4.456375
105.5849, 5.649391
106.0670, 6.361237
106.5491, 7.013649
107.0313, 6.983612
107.5134, 6.112907
107.9955, 4.993340
108.4776, 3.960991
108.9597, 3.034302
109.4418, 2.176712
109.9240, 1.255028
110.4061, 0.4497220
110.8882, 8.1177004E-02
111.3703, 0.2766490
111.8524, 0.1808930
112.3345, 0.1111910
112.8167, 0.7942120
113.2988, 1.424370
113.7809, 1.930061
114.2630, 2.345573
114.7451, 2.721252
115.2272, 3.086189
115.7094, 3.440620
116.1915, 3.753143
116.6736, 3.862503
117.1557, 4.090652
117.6378, 4.540253
118.1199, 5.207329
118.6021, 6.063866
119.0842, 7.137985
119.5663, 8.452805
120.0484, 9.574615
120.5305, 10.33717
121.0126, 10.97553
121.4948, 11.68608
121.9769, 12.49374
122.4590, 13.34666
122.9411, 14.30334
123.4232, 15.30599
123.9053, 16.06222
124.3875, 16.24609
124.8696, 16.09181
125.3517, 16.29208
125.8338, 17.17198
126.3159, 18.08143
126.7980, 18.56600
127.2802, 18.67445
127.7623, 18.64703
128.2444, 18.60710
128.7265, 18.54634
129.2086, 18.67489
129.6907, 19.33427
130.1729, 19.94734
130.6550, 20.20309
131.1371, 20.08368
131.6192, 19.82388
132.1013, 19.81644
132.5834, 20.51582
133.0656, 20.52400
133.5477, 19.32904
134.0298, 17.86693
134.5119, 16.92776
134.9940, 16.66105
135.4761, 16.78525
135.9583, 16.70750
136.4404, 15.88659
136.9225, 15.52480
137.4046, 15.81652
137.8867, 16.50456
138.3688, 17.24933
138.8510, 18.08025
139.3331, 18.85907
139.8152, 19.02717
140.2973, 18.49529
140.7794, 17.72816
141.2615, 16.84198
141.7437, 15.84918
142.2258, 14.80423
142.7079, 13.64184
143.1900, 12.51233
143.6721, 11.68291
144.1542, 11.26143
144.6364, 11.02480
145.1185, 10.78376
145.6006, 10.54046
146.0827, 10.27952
146.5648, 9.975151
147.0469, 9.652710
147.5291, 9.327759
148.0112, 8.988083
148.4933, 8.667717
148.9754, 8.488060
149.4575, 8.661949
149.9396, 8.583611
150.4218, 7.879677
150.9039, 6.892326
151.3860, 6.070541
151.8681, 5.681099
152.3502, 5.683510
152.8323, 5.744736
153.3145, 6.099045
153.7966, 6.274902
154.2787, 6.049919
154.7608, 5.566742
155.2429, 5.098129
155.7250, 4.850075
156.2072, 4.832199
156.6893, 4.923737
157.1714, 5.282448
157.6535, 5.584160
158.1356, 5.659042
158.6177, 5.531006
159.0999, 5.355064
159.5820, 5.343399
160.0641, 5.441437
160.5462, 5.498047
161.0283, 5.563431
161.5104, 5.564850
161.9926, 5.415459
162.4747, 5.106972
162.9568, 4.751755
163.4389, 4.463585
163.9210, 4.238487
164.4031, 4.033218
164.8853, 4.022392
165.3674, 3.978897
165.8495, 3.457497
166.3316, 2.222015
166.8137, 0.9848940
167.2958, 0.5083160
167.7780, 0.6172100
168.2601, 0.7427440
168.7422, 0.6148990
169.2243, 0.2813800
169.7064, 5.9113000E-02
170.1885, 0.3971180
170.6707, 0.7133410
171.1528, 0.9954530
171.6349, 1.249001
172.1170, 1.495323
172.5991, 1.827179
173.0812, 2.261833
173.5634, 2.413918
174.0455, 2.016693
174.5276, 1.504211
175.0097, 1.007950
175.4918, 0.5520550
175.9739, 0.1302800
176.4561, 0.2542650
176.9382, 0.5886840
177.4203, 0.9369430
177.9024, 1.326286
178.3845, 1.705879
178.8666, 2.002220
179.3488, 2.229614
179.8309, 2.495049
180.3130, 2.935776
180.7951, 3.571663
181.2772, 4.379379
181.7593, 5.459244
182.2415, 6.618881
182.7236, 7.798996
183.2057, 8.958954
183.6878, 9.960320
184.1699, 10.57774
184.6520, 10.58006
185.1342, 10.60812
185.6163, 10.78722
186.0984, 10.94787
186.5805, 10.85199
187.0626, 10.41543
187.5447, 9.874382
188.0269, 9.668121
188.5090, 9.892212
188.9911, 9.996445
189.4732, 9.757141
189.9553, 9.334641
190.4374, 9.014206
190.9196, 8.889030
191.4017, 8.857567
191.8838, 8.704971
192.3659, 8.392532
192.8480, 8.301933
193.3301, 8.822655
193.8123, 9.759338
194.2944, 10.36671
194.7765, 10.30389
195.2586, 10.02113
195.7407, 10.02122
196.2228, 10.30939
196.7050, 10.62938
197.1871, 10.75656
197.6692, 10.70460
198.1513, 10.78691
198.6334, 11.24972
199.1155, 11.70728
199.5977, 11.84346
200.0798, 11.65723
200.5619, 11.45541
201.0440, 11.54385
201.5261, 11.96150
202.0082, 12.41872
202.4904, 12.90979
202.9725, 13.41565
203.4546, 13.99873
203.9367, 14.63542
204.4188, 15.17087
204.9009, 15.33842
205.3831, 14.92489
205.8652, 14.80558
206.3473, 15.21086
206.8294, 15.73762
207.3115, 16.16350
207.7936, 16.45022
208.2758, 16.70092
208.7579, 17.08179
209.2400, 17.76514
209.7221, 18.17928
210.2042, 18.22036
210.6863, 18.11866
211.1685, 18.03264
211.6506, 17.99171
212.1327, 17.91525
212.6148, 17.67735
213.0969, 17.17702
213.5790, 16.71383
214.0612, 16.37405
214.5433, 16.02019
215.0254, 15.45145
215.5075, 14.64869
215.9896, 13.87427
216.4717, 13.51827
216.9539, 13.78186
217.4360, 14.03971
217.9181, 14.41936
218.4002, 14.72260
218.8823, 14.62312
219.3644, 14.03801
219.8466, 13.45000
220.3287, 13.61080
220.8108, 14.69398
221.2929, 15.49574
221.7750, 15.66979
222.2571, 15.57491
222.7393, 15.63513
223.2214, 15.90366
223.7035, 16.19792
224.1856, 16.28967
224.6677, 16.18794
225.1498, 16.12147
225.6320, 16.23341
226.1141, 16.41602
226.5962, 16.45953
227.0783, 16.28047
227.5604, 16.07170
228.0425, 16.08361
228.5247, 16.25652
229.0068, 16.34310
229.4889, 16.14661
229.9710, 15.80696
230.4531, 15.64037
230.9352, 15.71391
231.4174, 15.89043
231.8995, 16.09372
232.3816, 16.33768
232.8637, 16.64468
233.3458, 17.09341
233.8279, 17.61645
234.3101, 17.97929
234.7922, 18.04913
235.2743, 18.13485
235.7564, 18.41788
236.2385, 18.84011
236.7206, 19.28955
237.2028, 19.67019
237.6849, 20.02318
238.1670, 20.54009
238.6491, 21.28368
239.1312, 22.11774
239.6133, 23.00034
240.0955, 23.91676
240.5776, 24.87486
241.0597, 25.91409
241.5418, 26.98698
242.0239, 27.83463
242.5060, 28.34671
242.9882, 28.76401
243.4703, 29.14172
243.9524, 29.48694
244.4345, 29.81560
244.9166, 30.14592
245.3987, 30.45618
245.8809, 30.64992
246.3630, 30.84278
246.8451, 30.72665
247.3272, 30.10313
247.8093, 29.19480
248.2914, 28.29613
248.7736, 27.57200
249.2557, 26.94668
249.7378, 26.10742
250.2199, 24.61765
250.7020, 23.46360
251.1841, 23.01740
251.6663, 22.89100
252.1484, 22.63217
252.6305, 22.01920
253.1126, 21.15980
253.5947, 20.37240
254.0768, 19.65168
254.5590, 19.03638
255.0411, 18.60811
255.5232, 18.25336
256.0053, 17.90048
256.4874, 17.51826
256.9695, 17.01665
257.4517, 16.17899
257.9338, 14.52078
258.4159, 13.08362
258.8980, 11.87585
259.3801, 10.88797
259.8622, 10.18024
260.3444, 9.764877
260.8265, 9.440437
261.3086, 8.810349
261.7907, 7.319397
262.2728, 6.427040
262.7549, 6.655426
263.2371, 7.241196
263.7192, 7.313736
264.2013, 6.658218
264.6834, 5.901886
265.1655, 6.060127
265.6476, 7.866570
266.1298, 8.758904
266.6119, 8.077553
267.0940, 6.802414
267.5761, 5.786629
268.0582, 5.202042
268.5403, 4.813385
269.0225, 4.358673
269.5046, 3.817329
269.9867, 3.302948
270.4688, 2.809139
270.9509, 2.350922
271.4330, 1.947903
271.9152, 1.601574
272.3973, 1.282589
272.8794, 0.9586560
273.3615, 0.6304930
273.8436, 0.3733370
274.3257, 0.2184600
274.8079, 0.1115070
275.2900, 1.7982000E-02
275.7721, 6.5773003E-02
276.2542, 0.1385080
276.7363, 0.2128110
277.2184, 0.2741810
277.7006, 0.2612690
278.1827, 6.0683999E-02
278.6648, 0.2698590
279.1469, 0.1692500
279.6290, 1.143894
280.1111, 1.720188
280.5933, 1.138508
281.0754, 0.2180600
281.5575, 0.9282070
282.0396, 0.5643810
282.5217, 8.3622001E-02
283.0038, 4.2079999E-03
283.4860, 0.2739750
283.9681, 0.8233800
284.4502, 1.768318
284.9323, 2.816643
285.4144, 3.365856
285.8965, 3.258995
286.3787, 3.068569
286.8608, 3.027775
287.3429, 3.142059
287.8250, 3.463242
288.3071, 4.095924
288.7892, 4.827057
289.2714, 5.320877
289.7535, 5.546047
290.2356, 5.813255
290.7177, 6.374981
291.1998, 7.092449
291.6819, 7.564732
292.1641, 7.615421
292.6462, 7.575428
293.1283, 7.845116
293.6104, 8.383705
294.0925, 8.885941
294.5746, 9.282345
295.0568, 9.551464
295.5389, 9.582954
296.0210, 9.272476
296.5031, 9.005962
296.9852, 9.273590
297.4673, 9.881622
297.9495, 10.29087
298.4316, 10.29027
298.9137, 10.07413
299.3958, 9.974480
299.8779, 10.03341
300.3600, 10.02301
300.8422, 9.616859
301.3243, 9.082962
301.8064, 8.906662
302.2885, 9.297157
302.7706, 9.919521
303.2527, 10.46983
303.7349, 10.95417
304.2170, 11.29567
304.6991, 11.44100
305.1812, 11.44091
305.6633, 11.28884
306.1454, 10.83259
306.6276, 10.57561
307.1097, 11.16072
307.5918, 12.52947
308.0739, 13.61604
308.5560, 13.87669
309.0381, 13.83627
309.5203, 14.12489
310.0024, 14.80662
310.4845, 15.52424
310.9666, 16.11717
311.4487, 16.56579
311.9308, 16.71576
312.4130, 16.36844
312.8951, 15.95309
313.3772, 15.88290
313.8593, 16.11232
314.3414, 16.37358
314.8235, 16.58228
315.3057, 16.68791
315.7878, 16.74944
316.2699, 16.78354
316.7520, 16.75994
317.2341, 16.65024
317.7162, 16.47234
318.1984, 16.24997
318.6805, 16.02488
319.1626, 15.73380
319.6447, 15.24586
320.1268, 14.49262
320.6089, 13.91714
321.0911, 13.98464
321.5732, 14.31294
322.0553, 14.38790
322.5374, 14.03958
323.0195, 13.59792
323.5016, 13.37627
323.9838, 13.34298
324.4659, 13.21300
324.9480, 12.85564
325.4301, 12.39703
325.9122, 11.97592
326.3943, 11.58504
326.8765, 11.28954
327.3586, 11.16371
327.8407, 11.18414
328.3228, 11.23972
328.8049, 11.36005
329.2870, 11.42712
329.7692, 11.27543
330.2513, 10.92818
330.7334, 10.65002
331.2155, 10.61976
331.6976, 10.74612
332.1797, 10.84468
332.6619, 10.92818
333.1440, 10.89300
333.6261, 10.51838
334.1082, 9.947128
334.5903, 9.523209
335.0724, 9.451118
335.5546, 9.535046
336.0367, 9.522980
336.5188, 9.401119
337.0009, 9.282566
337.4830, 9.203426
337.9651, 9.154373
338.4473, 9.163326
338.9294, 9.239162
339.4115, 9.335911
339.8936, 9.485710
340.3757, 9.669033
340.8578, 9.724464
341.3400, 9.548180
341.8221, 9.255135
342.3042, 9.009068
342.7863, 8.799423
343.2684, 8.672459
343.7505, 8.751755
344.2327, 8.926998
344.7148, 8.934231
345.1969, 8.711956
345.6790, 8.328003
346.1611, 7.706062
346.6432, 6.896336
347.1254, 6.365017
347.6075, 6.557346
348.0896, 6.936306
348.5717, 6.798084
349.0538, 6.069744
349.5359, 5.202713
350.0181, 4.463631
350.5002, 3.858231
350.9823, 3.358849
351.4644, 3.062931
351.9465, 2.791664
352.4286, 2.446926
352.9108, 2.029999
353.3929, 1.491016
353.8750, 0.6982500
354.3571, 0.1138380
354.8392, 0.3088990
355.3214, 0.4519200
355.8035, 0.9791830
356.2856, 0.6275900
356.7677, 0.2036090
357.2498, 0.7830120
357.7319, 0.8844950
358.2141, 0.8050770
358.6962, 0.9897460
359.1783, 1.517483
359.6604, 1.804333
360.1425, 1.648037
360.6246, 1.307636
361.1068, 0.9615250
361.5889, 0.6432760
362.0710, 0.4348680
362.5531, 0.4286540
363.0352, 0.6228330
363.5173, 0.7388800
363.9995, 0.7452770
364.4816, 0.7144620
364.9637, 0.7147750
365.4458, 0.7076990
365.9279, 0.5838360
366.4100, 0.2772370
366.8922, 0.1626970
367.3743, 0.5762290
367.8564, 1.025799
368.3385, 1.365303
368.8206, 1.493504
369.3027, 1.536770
369.7849, 1.728909
370.2670, 2.115330
370.7491, 2.369686
371.2312, 1.964035
371.7133, 0.4541050
372.1954, 0.3119240
372.6776, 0.1622200
373.1597, 0.9013400
373.6418, 1.463501
374.1239, 1.755608
374.6060, 1.728622
375.0881, 1.284233
375.5703, 0.4474680
376.0524, 3.1605002E-02
376.5345, 0.5606190
377.0166, 0.8994370
377.4987, 0.6117780
377.9808, 2.2366000E-02
378.4630, 0.3651350
378.9451, 0.3176610
379.4272, 2.4906000E-02
379.9093, 4.4525001E-02
380.3914, 0.4143830
380.8735, 0.5760040
381.3557, 0.2302700
381.8378, 0.2601280
382.3199, 0.6659970
382.8020, 0.9368020
383.2841, 1.112034
383.7662, 1.207878
384.2484, 1.195129
384.7305, 1.310024
385.2126, 1.725784
385.6947, 2.106483
386.1768, 2.275421
386.6589, 2.331821
387.1411, 2.508083
387.6232, 2.980545
388.1053, 3.619099
388.5874, 3.915306
389.0695, 3.595760
389.5516, 3.450745
390.0338, 3.863632
390.5159, 4.398361
390.9980, 4.651054
391.4801, 4.510658
391.9622, 4.171711
392.4443, 3.808800
392.9265, 3.402298
393.4086, 3.172390
393.8907, 3.284889
394.3728, 3.460438
394.8549, 3.573013
395.3370, 3.614265
395.8192, 3.586723
396.3013, 3.446373
396.7834, 3.239052
397.2655, 3.132866
397.7476, 3.173214
398.2297, 3.197159
398.7119, 3.075577
399.1940, 2.899193
399.6761, 2.771107
400.1582, 2.693943
400.6403, 2.722809
401.1224, 2.994240
401.6046, 3.489326
402.0867, 3.842072
402.5688, 3.889187
403.0509, 3.802757
403.5330, 3.736561
404.0151, 3.683064
404.4973, 3.814629
404.9794, 4.387177
405.4615, 5.143047
405.9436, 5.587120
406.4257, 5.627018
406.9078, 5.628582
407.3900, 5.888889
407.8721, 6.369762
408.3542, 6.839054
408.8363, 7.296421
409.3184, 7.723965
409.8005, 8.034027
410.2827, 8.286263
410.7648, 8.724361
411.2469, 9.511341
411.7290, 10.42763
412.2111, 10.94304
412.6932, 11.03004
413.1754, 10.96849
413.6575, 10.59352
414.1396, 10.13793
414.6217, 9.819839
415.1038, 9.675835
415.5859, 9.626198
416.0681, 9.597855
416.5502, 9.587704
417.0323, 9.376221
417.5144, 8.820652
417.9965, 8.299934
418.4786, 8.000317
418.9608, 7.848736
419.4429, 7.639576
419.9250, 7.249115
420.4071, 6.823280
420.8892, 6.804642
421.3713, 7.583950
421.8535, 8.216145
422.3356, 8.553196
422.8177, 8.831097
423.2998, 9.183914
423.7819, 9.665188
424.2640, 10.32127
424.7462, 11.25437
425.2283, 12.48769
425.7104, 13.41835
426.1925, 13.72112
426.6746, 14.05569
427.1567, 14.57947
427.6389, 15.26570
428.1210, 16.06714
428.6031, 16.97418
429.0852, 17.93694
429.5673, 18.87695
430.0494, 19.81263
430.5316, 20.59378
431.0137, 21.00584
431.4958, 21.30553
431.9779, 21.65685
432.4600, 22.06637
432.9421, 22.41393
433.4243, 22.55270
433.9064, 22.53296
434.3885, 22.66818
434.8706, 23.06199
435.3527, 23.36443
435.8348, 23.28553
436.3170, 22.95255
436.7991, 22.60729
437.2812, 22.33794
437.7633, 22.04493
438.2454, 21.63986
438.7275, 21.13471
439.2097, 20.53498
439.6918, 19.85745
440.1739, 19.02600
440.6560, 17.83243
441.1381, 16.21368
441.6202, 14.92212
442.1024, 14.28991
442.5845, 14.02705
443.0666, 13.87479
443.5487, 13.79130
444.0308, 13.70692
444.5129, 13.55683
444.9951, 13.35728
445.4772, 13.25295
445.9593, 13.29250
446.4414, 13.35574
446.9235, 13.41689
447.4056, 13.47625
447.8878, 13.51430
448.3699, 13.52674
448.8520, 13.57932
449.3341, 13.78708
449.8162, 14.24279
450.2983, 14.58899
450.7805, 14.87661
451.2626, 15.02715
451.7447, 14.89230
452.2268, 14.57959
452.7089, 14.37102
453.1910, 14.47742
453.6732, 14.78988
454.1553, 14.80973
454.6374, 14.14964
455.1195, 13.87299
455.6016, 14.39203
456.0837, 15.15129
456.5659, 15.62634
457.0480, 15.74934
457.5301, 15.91842
458.0122, 16.66507
458.4943, 17.97479
458.9764, 18.88243
459.4586, 18.95082
459.9407, 19.23697
460.4228, 20.53981
460.9049, 22.36740
461.3870, 23.83537
461.8691, 24.56319
462.3513, 24.92755
462.8334, 25.40703
463.3155, 25.98768
463.7976, 26.31966
464.2797, 26.35275
464.7618, 26.00131
465.2440, 25.16484
465.7261, 23.85482
466.2082, 22.27013
466.6903, 20.24068
467.1724, 18.09349
467.6545, 16.13950
468.1367, 14.42578
468.6188, 13.09958
469.1009, 12.39018
469.5830, 12.12891
470.0651, 11.43290
470.5472, 9.894939
471.0294, 8.507298
471.5115, 7.430546
471.9936, 6.685387
472.4757, 6.377815
472.9578, 6.510056
473.4399, 6.788746
473.9221, 6.855640
474.4042, 6.664047
474.8863, 6.555065
475.3684, 6.567272
475.8505, 6.602562
476.3326, 6.713837
476.8148, 6.834015
477.2969, 6.762341
477.7790, 6.381660
478.2611, 5.832081
478.7432, 5.394573
479.2253, 5.080734
479.7075, 4.854225
480.1896, 4.773193
480.6717, 4.741493
481.1538, 4.702671
481.6359, 4.646347
482.1180, 4.590511
482.6002, 4.620037
483.0823, 4.674622
483.5644, 4.500629
484.0465, 3.984230
484.5286, 3.694302
485.0107, 4.019146
485.4929, 4.611481
485.9750, 5.119858
486.4571, 5.532864
486.9392, 5.716240
487.4213, 5.383789
487.9034, 4.796005
488.3856, 4.571983
488.8677, 4.834229
489.3498, 5.220829
489.8319, 5.437572
490.3140, 5.488888
490.7961, 5.559387
491.2783, 5.747223
491.7604, 5.871426
492.2425, 5.799828
492.7246, 5.642647
493.2067, 5.590973
493.6888, 5.725754
494.1710, 6.011810
494.6531, 6.390438
495.1352, 6.938225
495.6173, 7.312504
496.0994, 7.531101
496.5815, 7.559818
497.0637, 7.233368
497.5458, 6.727997
498.0279, 6.400578
498.5100, 6.475079
498.9921, 6.782768
499.4742, 6.999443
499.9564, 7.103191
500.4385, 7.194641
500.9206, 7.357994
501.4027, 7.458122
501.8848, 7.343842
502.3669, 7.056381
502.8491, 6.828709
503.3312, 6.873215
503.8133, 7.097782
504.2954, 7.204704
504.7775, 7.161312
505.2596, 7.085270
505.7418, 7.076012
506.2239, 7.083324
506.7060, 6.988892
507.1881, 6.721535
507.6702, 6.546467
508.1523, 6.716137
508.6345, 7.033455
509.1166, 7.104996
509.5987, 6.856228
510.0808, 6.645283
510.5629, 6.883514
511.0450, 7.502956
511.5272, 7.556057
512.0093, 6.550472
512.4914, 5.662281
512.9735, 5.301525
513.4556, 5.190544
513.9377, 4.971130
514.4199, 4.577583
514.9020, 4.144878
515.3841, 3.828297
515.8662, 3.636486
516.3483, 3.504650
516.8304, 3.596558
517.3126, 3.573215
517.7947, 3.179760
518.2768, 2.659439
518.7589, 2.399677
519.2410, 2.564026
519.7231, 2.873871
520.2053, 2.966763
520.6874, 2.839565
521.1695, 2.505383
521.6516, 1.781357
522.1337, 1.085384
522.6158, 0.6773190
523.0980, 0.5137790
523.5801, 0.4789390
524.0622, 0.5840640
524.5443, 0.7503010
525.0264, 0.9316600
525.5085, 1.115696
525.9907, 1.219398
526.4728, 1.211571
526.9549, 1.117584
527.4370, 0.9568900
527.9191, 0.7146800
528.4012, 0.4969140
528.8834, 0.2448540
529.3655, 7.9723001E-02
529.8476, 0.1708910
530.3297, 0.4274980
530.8118, 0.5652730
531.2939, 0.4197390
531.7761, 0.1374930
532.2582, 0.1202620
532.7403, 0.7198140
533.2224, 0.9234120
533.7045, 0.3103940
534.1866, 0.2978780
534.6688, 0.3785320
535.1509, 1.1127000E-02
535.6330, 0.4400670
536.1151, 0.7870330
536.5972, 0.9919930
537.0793, 0.8955040
537.5615, 0.3998070
538.0436, 4.5280000E-03
538.5257, 0.1833650
539.0078, 0.1693000
539.4899, 0.1816370
539.9720, 0.8359380
540.4542, 1.233486
540.9363, 0.9096910
541.4184, 0.2639240
541.9005, 0.1669580
542.3826, 0.3653950
542.8647, 0.4367030
543.3469, 0.3986820
543.8290, 0.3070490
544.3111, 0.3148690
544.7932, 0.4760250
545.2753, 0.5948410
545.7574, 0.6375850
546.2396, 0.6329420
546.7217, 0.6054920
547.2038, 0.5554580
547.6859, 0.4380870
548.1680, 0.1938630
548.6501, 8.9294001E-02
549.1323, 3.0895000E-02
549.6144, 1.088329
550.0965, 1.605228
550.5786, 0.9755970
551.0607, 0.1659620
551.5428, 7.7620998E-02
552.0250, 0.2365000
552.5071, 0.5697140
552.9892, 0.5171470
553.4713, 0.1986500
553.9534, 7.0446000E-02
554.4355, 0.3058890
554.9177, 0.3873180
555.3998, 5.5842999E-02
555.8819, 0.2954250
556.3640, 3.2021001E-02
556.8461, 0.9650120
557.3282, 1.658409
557.8104, 1.392422
558.2925, 0.7616580
558.7746, 0.4893070
559.2567, 0.5822110
559.7388, 0.6425090
560.2209, 0.4220390
560.7031, 1.1707000E-02
561.1852, 0.2995490
561.6673, 0.5388300
562.1494, 0.6317670
562.6315, 0.3263890
563.1136, 7.0274003E-02
563.5958, 0.3260840
564.0779, 0.9704060
564.5600, 1.450214
565.0421, 1.338928
565.5242, 0.8417400
566.0063, 0.6881140
566.4885, 1.056877
566.9706, 1.248379
567.4527, 0.8699340
567.9348, 0.4285810
568.4169, 0.2690700
568.8990, 0.3878710
569.3812, 0.5835110
569.8633, 0.9114880
570.3454, 1.170975
570.8275, 0.9702640
571.3096, 0.3430750
571.7917, 0.1867680
572.2739, 0.3711470
572.7560, 0.3962590
573.2381, 0.6213840
573.7202, 1.139568
574.2023, 1.484730
574.6844, 1.431988
575.1666, 1.352856
575.6487, 1.500542
576.1308, 1.837868
576.6129, 2.216549
577.0950, 2.561302
577.5771, 2.901283
578.0593, 3.336174
578.5414, 3.994751
579.0235, 4.393677
579.5056, 4.400742
579.9877, 4.237183
580.4698, 3.845669
580.9520, 3.365810
581.4341, 3.095963
581.9162, 3.221889
582.3983, 3.504723
582.8804, 3.615524
583.3625, 3.574791
583.8447, 3.604992
584.3268, 3.776775
584.8089, 3.992702
585.2910, 4.252041
585.7731, 4.519993
586.2552, 4.405125
586.7374, 3.348259
587.2195, 2.444389
587.7016, 2.411434
588.1837, 2.892998
588.6658, 3.270569
589.1479, 3.355732
589.6301, 3.332653
590.1122, 3.460876
590.5943, 3.788784
591.0764, 3.845417
591.5585, 3.152229
592.0406, 2.720455
592.5228, 3.177002
593.0049, 3.908901
593.4870, 4.073307
593.9691, 3.457886
594.4512, 2.721115
594.9333, 2.452415
595.4155, 2.583248
595.8976, 2.847351
596.3797, 3.272179
596.8618, 3.645802
597.3439, 3.738949
597.8260, 3.743633
598.3082, 4.200119
598.7903, 5.417427
599.2724, 6.303711
599.7545, 6.236580
600.2366, 5.810989
600.7188, 5.597321
601.2009, 5.666954
601.6830, 5.909473
602.1651, 6.258717
602.6472, 6.666565
603.1293, 6.972282
603.6115, 6.971752
604.0936, 7.273354
604.5757, 8.251305
605.0578, 9.219429
605.5399, 9.794823
606.0220, 9.996662
606.5042, 9.982567
606.9863, 9.718987
607.4684, 9.346706
607.9505, 9.281147
608.4326, 9.583988
608.9147, 9.823299
609.3969, 9.799770
609.8790, 9.695732
610.3611, 9.758823
610.8432, 9.995529
611.3253, 10.19856
611.8074, 10.24929
612.2896, 10.33949
612.7717, 10.68730
613.2538, 11.10810
613.7359, 11.20181
614.2180, 10.91471
614.7001, 10.60838
615.1823, 10.71936
615.6644, 11.26662
616.1465, 11.82951
616.6286, 12.28374
617.1107, 12.93363
617.5928, 14.09472
618.0750, 15.33537
618.5571, 16.05855
619.0392, 16.17241
619.5213, 16.49751
620.0034, 17.84819
620.4855, 19.83496
620.9677, 21.52745
621.4498, 22.84776
621.9319, 24.12945
622.4140, 25.52283
622.8961, 27.06335
623.3782, 28.78824
623.8604, 30.65379
624.3425, 32.68471
624.8246, 35.08630
625.3067, 37.52051
625.7888, 39.74328
626.2709, 41.77314
626.7531, 43.69542
627.2352, 45.53471
627.7173, 47.50496
628.1994, 50.08502
628.6815, 53.46283
629.1636, 56.63468
629.6458, 59.31256
630.1279, 61.99567
630.6100, 64.93977
631.0921, 68.07098
631.5742, 71.28997
632.0563, 74.65862
632.5385, 77.85141
633.0206, 80.44656
633.5027, 82.74279
633.9848, 85.44028
634.4669, 88.62746
634.9490, 91.77114
635.4312, 94.57375
635.9133, 96.97984
636.3954, 98.74476
636.8775, 99.37659
637.3596, 99.98283
637.8417, 100.9072
638.3239, 101.5596
638.8060, 101.6140
639.2881, 101.0127
639.7702, 99.70461
640.2523, 97.55946
640.7344, 94.95691
641.2166, 92.60648
641.6987, 90.50452
642.1808, 88.54079
642.6629, 86.73179
643.1450, 84.97453
643.6271, 83.06431
644.1093, 81.09519
644.5914, 79.49997
645.0735, 78.41980
645.5556, 77.64016
646.0377, 77.33321
646.5198, 77.15429
647.0020, 76.56564
647.4841, 75.49813
647.9662, 74.30075
648.4483, 73.27738
648.9304, 72.40652
649.4125, 71.50075
649.8947, 70.63264
650.3768, 69.59878
650.8589, 68.25408
651.3410, 66.83318
651.8231, 65.52213
652.3052, 64.29932
652.7874, 62.97021
653.2695, 61.21149
653.7516, 59.51364
654.2337, 58.58982
654.7158, 58.30009
655.1979, 57.97089
655.6801, 57.38767
656.1622, 56.86353
656.6443, 56.77889
657.1264, 57.16595
657.6085, 57.38241
658.0906, 56.99821
658.5728, 57.00268
659.0549, 57.71570
659.5370, 58.88022
660.0191, 60.30289
660.5012, 61.89329
660.9833, 63.59967
661.4655, 65.37081
661.9476, 67.24559
662.4297, 69.33295
662.9118, 71.65521
663.3939, 73.99137
663.8760, 76.14693
664.3582, 78.36427
664.8403, 80.97669
665.3224, 83.96407
665.8045, 87.06621
666.2866, 90.21768
666.7687, 93.45778
667.2509, 96.91683
667.7330, 100.4387
668.2151, 103.7621
668.6972, 106.8299
669.1793, 109.7806
669.6614, 112.8210
670.1436, 115.9403
670.6257, 118.9434
671.1078, 121.7555
671.5899, 124.5389
672.0720, 127.5891
672.5541, 130.5321
673.0363, 133.2082
673.5184, 135.5437
674.0005, 137.1936
674.4826, 137.9037
674.9647, 137.9704
675.4468, 137.7544
675.9290, 137.1449
676.4111, 135.8102
676.8932, 133.6570
677.3753, 130.7764
677.8574, 127.2733
678.3395, 123.1469
678.8217, 118.3873
679.3038, 112.3130
679.7859, 106.4800
680.2680, 101.4819
680.7501, 96.67816
681.2322, 91.37630
681.7144, 85.59203
682.1965, 79.87721
682.6786, 74.64188
683.1607, 69.75063
683.6428, 65.00821
684.1249, 60.40096
684.6071, 56.05067
685.0892, 51.96387
685.5713, 48.18584
686.0534, 44.75855
686.5355, 41.69855
687.0176, 38.93315
687.4998, 36.54140
687.9819, 34.28517
688.4640, 32.16129
688.9461, 30.13365
689.4282, 28.10387
689.9103, 26.10433
690.3925, 24.30972
690.8746, 22.86694
691.3567, 21.71787
691.8388, 20.84501
692.3209, 20.26952
692.8030, 19.39952
693.2852, 17.93669
693.7673, 16.39660
694.2494, 15.27542
694.7315, 14.56312
695.2136, 14.01699
695.6957, 13.82865
696.1779, 13.55956
696.6600, 12.97671
697.1421, 12.28596
697.6242, 11.77902
698.1063, 11.44082
698.5884, 10.94799
699.0706, 10.01547
699.5527, 8.824341
700.0348, 7.856201
700.5169, 7.113106
700.9990, 6.627308
701.4811, 6.602173
701.9633, 6.557377
702.4454, 6.014839
702.9275, 5.108543
703.4096, 4.248081
703.8917, 3.361813
704.3738, 2.702484
704.8560, 2.435966
705.3381, 2.412014
705.8202, 2.546665
706.3023, 2.761135
706.7844, 2.848381
707.2665, 2.660755
707.7487, 2.271614
708.2308, 1.841782
708.7129, 1.317551
709.1950, 1.009514
709.6771, 1.016365
710.1592, 1.168484
710.6414, 1.454659
711.1235, 1.787022
711.6056, 1.979591
712.0877, 2.003510
712.5698, 1.882401
713.0519, 1.483601
713.5341, 1.034561
714.0162, 0.8088340
714.4983, 0.8070490
714.9804, 0.9331860
715.4625, 1.153038
715.9446, 1.315331
716.4268, 1.005756
716.9089, 1.6380001E-02
717.3910, 0.5029140
717.8731, 0.2879910
718.3552, 8.4674999E-02
718.8373, 0.5508690
719.3195, 0.9180220
719.8016, 0.8197630
720.2837, 0.1081500
720.7658, 0.4981580
721.2479, 0.5402830
721.7300, 0.3874360
722.2122, 0.4696160
722.6943, 0.7284970
723.1764, 0.8660890
723.6585, 0.7521170
724.1406, 0.4912720
724.6227, 0.2157100
725.1049, 9.4299003E-02
725.5870, 0.2433550
726.0691, 0.1997870
726.5512, 4.2072002E-02
727.0333, 0.4131280
727.5154, 0.8377150
727.9976, 0.7992100
728.4797, 0.2780610
728.9618, 0.1070940
729.4439, 2.2915000E-02
729.9260, 0.2974550
730.4081, 0.3964390
730.8903, 0.3713070
731.3724, 0.3632470
731.8545, 0.4136770
732.3366, 0.4809800
732.8187, 0.5192410
733.3008, 0.5330620
733.7830, 0.5914730
734.2651, 0.7556570
734.7472, 0.8312260
735.2293, 0.6746670
735.7114, 0.4965590
736.1935, 0.4227600
736.6757, 0.4546890
737.1578, 0.5794940
737.6399, 0.9710430
738.1220, 1.222477
738.6041, 0.8875580
739.0862, 0.3051260
739.5684, 4.8958000E-02
740.0505, 0.1713490
740.5326, 0.3365940
741.0147, 0.3061710
741.4968, 0.1308020
741.9789, 7.5263999E-02
742.4611, 0.3908200
742.9432, 0.4198490
743.4253, 0.2201650
743.9074, 0.7134930
744.3895, 0.4978370
744.8716, 0.1460270
745.3538, 0.7415540
745.8359, 1.266178
746.3180, 1.574066
746.8001, 1.460499
747.2822, 1.198109
747.7643, 1.010914
748.2465, 0.9309650
748.7286, 0.9916730
749.2107, 1.208847
749.6928, 1.453754
750.1749, 1.507393
750.6570, 1.355408
751.1392, 1.347744
751.6213, 1.609276
752.1034, 1.716160
752.5855, 1.248669
753.0676, 0.7178840
753.5497, 0.8497050
754.0319, 1.675377
754.5140, 2.251362
754.9961, 2.121914
755.4782, 1.920746
755.9603, 2.036808
756.4424, 2.327183
756.9246, 2.541996
757.4067, 2.638199
757.8888, 2.778656
758.3709, 3.148678
758.8530, 3.622025
759.3351, 3.675980
759.8173, 3.224876
760.2994, 3.120255
760.7815, 3.689987
761.2636, 4.384804
761.7457, 4.786343
762.2278, 4.919140
762.7100, 4.932434
763.1921, 4.615440
763.6742, 4.510677
764.1563, 4.935951
764.6384, 5.464092
765.1205, 5.750172
765.6027, 5.831459
766.0848, 5.893055
766.5669, 6.018055
767.0490, 6.203156
767.5311, 6.494831
768.0132, 6.856312
768.4954, 7.055294
768.9775, 7.057690
769.4596, 7.090416
769.9417, 7.308815
770.4238, 7.550064
770.9059, 7.500626
771.3881, 7.042648
771.8702, 6.767754
772.3523, 6.736088
772.8344, 6.806431
773.3165, 7.029449
773.7986, 7.270870
774.2808, 7.340931
774.7629, 7.245018
775.2450, 7.212803
775.7271, 7.558659
776.2092, 7.959576
776.6913, 7.808533
777.1735, 7.263092
777.6556, 7.017490
778.1377, 7.238941
778.6198, 7.522243
779.1019, 7.579292
779.5840, 7.438793
780.0662, 7.142647
780.5483, 6.433678
781.0304, 6.036797
781.5125, 6.243282
781.9946, 6.555740
782.4767, 6.927048
782.9589, 7.175488
783.4410, 6.902859
783.9231, 5.899578
784.4052, 4.962166
784.8873, 4.538849
785.3694, 4.418007
785.8516, 4.508839
786.3337, 4.736267
786.8158, 4.788395
787.2979, 4.518272
787.7800, 4.162418
788.2621, 4.093822
788.7443, 4.303463
789.2264, 4.198425
789.7085, 3.613628
790.1906, 3.160973
790.6727, 3.068695
791.1548, 3.134933
791.6370, 3.162174
792.1191, 3.152832
792.6012, 3.176758
793.0833, 3.482437
793.5654, 3.559715
794.0475, 2.888866
794.5297, 2.103970
795.0118, 1.947605
795.4939, 2.310944
795.9760, 2.578457
796.4581, 2.434067
796.9402, 2.147194
797.4224, 2.070316
797.9045, 2.151989
798.3866, 2.198784
798.8687, 2.200336
799.3508, 2.275955
799.8329, 2.548164
800.3151, 2.827213
800.7972, 2.713535
801.2793, 2.024860
801.7614, 1.492588
802.2435, 1.088814
802.7256, 0.9789580
803.2078, 1.450527
803.6899, 2.027313
804.1720, 2.195557
804.6541, 1.944023
805.1362, 1.674751
805.6183, 1.520466
806.1005, 1.541958
806.5826, 1.999817
807.0647, 2.643448
807.5468, 2.848007
808.0289, 2.540192
808.5110, 2.132301
808.9932, 1.904530
809.4753, 1.820637
809.9574, 1.787327
810.4395, 1.810150
810.9216, 1.855949
811.4037, 2.036930
811.8859, 2.079384
812.3680, 1.721886
812.8501, 1.188641
813.3322, 0.7683030
813.8143, 0.4644130
814.2964, 0.3515970
814.7786, 0.6618920
815.2607, 0.9379650
815.7428, 0.8668750
816.2249, 0.6234860
816.7070, 0.3967440
817.1891, 0.2662890
817.6713, 0.3632130
818.1534, 0.8879810
818.6355, 1.547539
819.1176, 1.694229
819.5997, 1.404858
820.0818, 1.295773
820.5640, 1.485115
821.0461, 1.785870
821.5282, 2.116779
822.0103, 2.406361
822.4924, 2.416233
822.9745, 1.899883
823.4567, 1.646839
823.9388, 1.828484
824.4209, 2.074051
824.9030, 2.370045
825.3851, 2.596191
825.8672, 2.549545
826.3494, 2.210667
826.8315, 1.932564
827.3136, 1.940769
827.7957, 2.019547
828.2778, 2.054001
828.7599, 2.005657
829.2421, 1.714054
829.7242, 1.213943
830.2063, 0.8954320
830.6884, 1.093372
831.1705, 1.567287
831.6526, 1.679310
832.1348, 1.412155
832.6169, 1.310112
833.0990, 1.485924
833.5811, 1.671989
834.0632, 1.699867
834.5453, 1.623951
835.0275, 1.605263
835.5096, 1.652637
835.9917, 1.743183
836.4738, 1.990452
836.9559, 2.139439
837.4380, 2.017864
837.9202, 1.799229
838.4023, 1.660717
838.8844, 1.630440
839.3665, 1.669754
839.8486, 1.838036
840.3307, 1.964539
840.8129, 1.819267
841.2950, 1.522942
841.7771, 1.252678
842.2592, 1.068264
842.7413, 1.164249
843.2234, 1.701870
843.7056, 2.341656
844.1877, 2.275723
844.6698, 1.412846
845.1519, 1.024006
845.6340, 1.298634
846.1161, 1.613865
846.5983, 1.725914
847.0804, 1.730217
847.5625, 1.775688
848.0446, 1.872288
848.5267, 1.839043
849.0089, 1.413891
849.4910, 1.186131
849.9731, 1.496815
850.4552, 1.937576
850.9373, 2.165955
851.4194, 2.178326
851.9016, 2.141384
852.3837, 2.130329
852.8658, 2.113708
853.3479, 2.015079
853.8300, 1.848198
854.3121, 1.612431
854.7943, 1.330563
855.2764, 1.058506
855.7585, 0.8214720
856.2406, 0.7750740
856.7227, 1.171158
857.2048, 1.936680
857.6870, 2.269180
858.1691, 2.054821
858.6512, 1.862541
859.1333, 1.826279
859.6154, 1.842670
860.0975, 1.870403
860.5797, 1.892433
861.0618, 1.764366
861.5439, 1.262257
862.0260, 0.9637640
862.5081, 1.048985
862.9902, 1.232491
863.4724, 1.427048
863.9545, 1.572884
864.4366, 1.566147
864.9187, 1.407997
865.4008, 1.287792
865.8829, 1.421665
866.3651, 1.553398
866.8472, 1.298122
867.3293, 0.8452950
867.8114, 0.6881100
868.2935, 0.9065820
868.7756, 1.194118
869.2578, 1.329807
869.7399, 1.332024
870.2220, 1.238625
870.7041, 1.048367
871.1862, 0.7348480
871.6683, 0.2101360
872.1505, 0.1090550
872.6326, 7.0979998E-02
873.1147, 0.4926870
873.5968, 0.7338790
874.0789, 0.7661400
874.5610, 0.7654420
875.0432, 0.6667370
875.5253, 0.6220090
876.0074, 0.7829670
876.4895, 0.9168210
876.9716, 0.7472190
877.4537, 0.3640560
877.9359, 0.1538890
878.4180, 0.3290210
878.9001, 0.4917110
879.3822, 0.2421190
879.8643, 3.6697000E-02
880.3464, 0.1825520
880.8286, 0.7527960
881.3107, 1.221798
881.7928, 1.416904
882.2749, 1.402016
882.7570, 1.179550
883.2391, 0.8292050
883.7213, 0.5942610
884.2034, 0.4719390
884.6855, 0.4432140
885.1676, 0.5187870
885.6497, 0.5800210
886.1318, 0.5301670
886.6140, 0.3993150
887.0961, 0.2862170
887.5782, 0.1828770
888.0603, 0.1179540
888.5424, 0.1040650
889.0245, 0.1113820
889.5067, 0.1811710
889.9888, 0.2335470
890.4709, 0.1258580
890.9530, 0.1434140
891.4351, 0.2657050
891.9172, 1.5636001E-02
892.3994, 0.1902730
892.8815, 8.7029003E-02
893.3636, 6.7001000E-02
893.8457, 1.0555000E-02
894.3278, 0.2716710
894.8099, 0.5126300
895.2921, 0.6558840
895.7742, 0.6836700
896.2563, 0.4376950
896.7384, 0.1384580
897.2205, 0.2681500
897.7026, 0.7152330
898.1848, 0.9550860
898.6669, 0.8312340
899.1490, 0.6164890
899.6311, 0.5685120
900.1132, 0.6527250
900.5953, 0.7767300
901.0775, 0.9590640
901.5596, 0.9305040
902.0417, 0.5714260
902.5238, 0.2768630
903.0059, 0.3164750
903.4880, 0.5326190
903.9702, 0.5850750
904.4523, 0.3858180
904.9344, 0.3773000
905.4165, 0.6918330
905.8986, 1.025036
906.3807, 1.555012
906.8629, 1.884960
907.3450, 1.469624
907.8271, 0.5144460
908.3092, 8.0123998E-02
908.7913, 9.9968001E-02
909.2734, 0.2773670
909.7556, 6.8085000E-02
910.2377, 0.4149550
910.7198, 0.1824150
911.2019, 0.3838690
911.6840, 0.7538530
912.1661, 0.7592350
912.6483, 0.5501940
913.1304, 0.1385540
913.6125, 0.3014220
914.0946, 0.4530490
914.5767, 0.3862690
915.0588, 0.3555370
915.5410, 0.3918880
916.0231, 0.3424610
916.5052, 0.1073990
916.9873, 0.1603240
917.4694, 0.1671370
917.9515, 0.1027070
918.4337, 0.1364750
918.9158, 0.1250570
919.3979, 0.3684730
919.8800, 0.5095060
920.3621, 0.5461350
920.8442, 0.4601670
921.3264, 0.2607150
921.8085, 5.0666999E-02
922.2906, 0.3103520
922.7727, 0.4503860
923.2548, 0.2497560
923.7369, 5.1743001E-02
924.2191, 0.4162520
924.7012, 0.7781910
925.1833, 1.065170
925.6654, 1.272247
926.1475, 1.331348
926.6296, 1.022068
927.1118, 0.7949330
927.5939, 1.015388
928.0760, 1.339783
928.5581, 1.292038
929.0402, 0.9806980
929.5223, 0.9307140
930.0045, 1.400791
930.4866, 1.972969
930.9687, 2.340195
931.4508, 2.514683
931.9329, 2.381111
932.4150, 2.075302
932.8972, 2.055714
933.3793, 2.419777
933.8614, 2.778873
934.3435, 2.811871
934.8256, 2.611092
935.3077, 2.554543
935.7899, 2.647034
936.2720, 2.982479
936.7541, 3.594303
937.2362, 4.122787
937.7183, 4.380646
938.2004, 4.498013
938.6826, 4.662514
939.1647, 4.876820
939.6468, 5.028923
940.1289, 5.111675
940.6110, 5.139519
941.0931, 4.996799
941.5753, 4.953270
942.0574, 5.264797
942.5395, 5.807697
943.0216, 6.259716
943.5037, 6.633755
943.9858, 6.873379
944.4680, 6.870159
944.9501, 6.858685
945.4322, 6.869102
945.9143, 6.955238
946.3964, 7.198669
946.8785, 7.573589
947.3607, 7.955544
947.8428, 8.366085
948.3249, 8.645069
948.8070, 8.559574
949.2891, 8.418713
949.7712, 8.563763
950.2534, 8.880756
950.7355, 9.105740
951.2176, 9.180218
951.6997, 9.292603
952.1818, 9.567150
952.6639, 9.909855
953.1461, 10.25013
953.6282, 10.53007
954.1103, 10.63354
954.5924, 10.53127
955.0745, 10.11361
955.5566, 9.314983
956.0388, 8.510906
956.5209, 8.306362
957.0030, 8.530174
957.4851, 8.238583
957.9672, 7.434059
958.4493, 6.799854
958.9315, 6.516949
959.4136, 6.218311
959.8957, 5.614037
960.3778, 4.841221
960.8599, 4.248539
961.3420, 3.861271
961.8242, 3.553707
962.3063, 3.421516
962.7884, 3.110199
963.2705, 2.298363
963.7526, 1.540855
964.2347, 1.507732
964.7169, 2.067902
965.1990, 2.253788
965.6811, 1.767109
966.1632, 1.357380
966.6453, 1.109200
967.1274, 0.8890270
967.6096, 0.5668640
968.0917, 0.2252200
968.5738, 2.9701000E-02
969.0559, 1.1631000E-02
969.5380, 6.4425997E-02
970.0201, 0.4660110
970.5023, 0.6982800
970.9844, 0.4226300
971.4665, 3.9089002E-02
971.9486, 0.1092220
972.4307, 7.8472003E-02
972.9128, 9.4600998E-02
973.3950, 0.2167660
973.8771, 0.2262310
974.3592, 0.1124880
974.8413, 0.5275310
975.3234, 0.8133810
975.8055, 0.9886970
976.2877, 1.111153
976.7698, 1.187222
977.2519, 1.120945
977.7340, 0.8643530
978.2161, 0.6534460
978.6982, 0.8525540
979.1804, 1.214405
979.6625, 1.144192
980.1446, 0.7966730
980.6267, 0.8803410
981.1088, 1.516048
981.5909, 2.170452
982.0731, 2.461422
982.5552, 2.524338
983.0373, 2.524563
983.5194, 2.499790
984.0015, 2.739426
984.4836, 3.252605
984.9658, 3.862904
985.4479, 4.509342
985.9300, 5.305531
986.4121, 6.379841
986.8942, 7.649578
987.3763, 8.958355
987.8585, 10.48563
988.3406, 10.74789
988.8227, 9.355534
989.3048, 7.796558
989.7869, 6.742908
990.2690, 5.645454
990.7512, 3.650948
991.2333, 0.9177130
991.7154, 0.4534110
992.1975, 0.3332560
992.6796, 0.7914540
993.1617, 0.4994620
993.6439, 0.2142300
994.1260, 0.3420830
994.6081, 0.6530990
995.0902, 0.8331530
995.5723, 0.8798290
996.0544, 0.8811230
996.5366, 0.7941970
997.0187, 0.7288280
997.5008, 0.6029130
997.9829, 0.6051370
998.4650, 1.004616
998.9471, 1.548042
999.4293, 1.770847
999.9114, 1.597641
1000.393, 1.466305
1000.876, 1.449203
1001.358, 1.557755
1001.840, 2.022720
1002.322, 2.423466
1002.804, 2.327759
1003.286, 1.874657
1003.768, 1.409081
1004.250, 1.019291
1004.733, 0.7606810
1005.215, 0.6744650
1005.697, 0.7206040
1006.179, 1.045185
1006.661, 1.373093
1007.143, 1.304554
1007.625, 0.8984870
1008.107, 0.4415020
1008.589, 3.5969000E-02
1009.072, 0.1553570
1009.554, 0.2155230
1010.036, 0.7012630
1010.518, 0.6654240
1011.000, 0.3671800
1011.482, 0.4084970
1011.964, 0.8016700
1012.446, 1.070992
1012.929, 0.9532390
1013.411, 0.6638180
1013.893, 0.3955990
1014.375, 0.1751940
1014.857, 3.9841000E-02
1015.339, 7.7099999E-04
1015.821, 0.1510770
1016.303, 0.4754220
1016.785, 0.6917570
1017.268, 0.5890730
1017.750, 0.3722380
1018.232, 0.3912510
1018.714, 0.5841600
1019.196, 0.7115290
1019.678, 0.7644420
1020.160, 0.7090150
1020.642, 0.5380860
1021.125, 0.4744830
1021.607, 0.7294010
1022.089, 1.091267
1022.571, 1.045689
1023.053, 0.6140140
1023.535, 0.1755260
1024.017, 0.2670630
1024.499, 0.4198570
1024.981, 0.1776540
1025.464, 0.3171390
1025.946, 1.000927
1026.428, 1.705406
1026.910, 1.840820
1027.392, 1.322727
1027.874, 1.155029
1028.356, 1.423996
1028.838, 1.770672
1029.321, 2.105961
1029.803, 2.347832
1030.285, 2.405899
1030.767, 2.339050
1031.249, 2.457382
1031.731, 2.824512
1032.213, 3.076088
1032.695, 3.213776
1033.177, 3.127357
1033.660, 2.630909
1034.142, 2.081242
1034.624, 1.845139
1035.106, 1.914700
1035.588, 2.214558
1036.070, 3.125912
1036.552, 3.364368
1037.034, 2.205956
1037.516, 1.422569
1037.999, 2.023415
1038.481, 3.060272
1038.963, 3.458397
1039.445, 3.296955
1039.927, 3.355984
1040.409, 3.830822
1040.891, 4.212040
1041.373, 4.609070
1041.855, 4.772430
1042.338, 4.344540
1042.820, 3.830666
1043.302, 3.765278
1043.784, 4.100941
1044.266, 4.454231
1044.748, 4.817337
1045.230, 5.191631
1045.712, 5.709686
1046.195, 6.077915
1046.677, 5.975147
1047.159, 5.811653
1047.641, 6.063965
1048.123, 6.688934
1048.605, 7.284508
1049.087, 7.933434
1049.569, 8.292889
1050.052, 8.166779
1050.534, 8.031628
1051.016, 8.025230
1051.498, 8.189487
1051.980, 8.667255
1052.462, 9.382240
1052.944, 9.901867
1053.426, 10.09416
1053.908, 10.20351
1054.391, 10.05097
1054.873, 10.09567
1055.355, 10.87545
1055.837, 11.76577
1056.319, 11.91419
1056.801, 11.45053
1057.283, 11.36570
1057.765, 12.10431
1058.248, 12.72335
1058.730, 12.93832
1059.212, 12.97584
1059.694, 12.83953
1060.176, 12.68081
1060.658, 12.73990
1061.140, 12.94316
1061.622, 12.91024
1062.104, 12.47602
1062.587, 11.98085
1063.069, 11.58904
1063.551, 11.12571
1064.033, 10.45958
1064.515, 9.686001
1064.997, 8.798260
1065.479, 7.907021
1065.961, 7.392876
1066.443, 7.541908
1066.926, 7.421780
1067.408, 6.398766
1067.890, 5.336334
1068.372, 4.697948
1068.854, 4.339119
1069.336, 4.145767
1069.818, 4.051659
1070.300, 3.927460
1070.782, 3.721424
1071.265, 3.553429
1071.747, 3.644867
1072.229, 3.594204
1072.711, 3.007847
1073.193, 2.264400
1073.675, 1.596138
1074.157, 1.178787
1074.639, 1.504715
1075.122, 2.869110
1075.604, 3.709206
1076.086, 2.811653
1076.568, 1.780918
1077.050, 1.586792
1077.532, 1.707863
1078.014, 1.607830
1078.496, 1.328007
1078.979, 1.111431
1079.461, 1.018093
1079.943, 1.053947
1080.425, 1.304501
1080.907, 1.581387
1081.389, 1.952293
1081.871, 2.132996
1082.353, 1.649532
1082.835, 0.8845210
1083.318, 0.7060010
1083.800, 1.284367
1084.282, 1.650581
1084.764, 1.171188
1085.246, 0.6571460
1085.728, 0.4401400
1086.210, 0.4286460
1086.692, 0.7654570
1087.175, 1.151848
1087.657, 1.000526
1088.139, 0.2507130
1088.621, 0.3746800
1089.103, 0.5424420
1089.585, 0.5950850
1090.067, 0.6913720
1090.549, 0.7176930
1091.031, 0.4813920
1091.514, 0.1728320
1091.996, 6.0924999E-02
1092.478, 0.1818920
1092.960, 0.4689480
1093.442, 1.171280
1093.924, 1.529640
1094.406, 0.8492010
1094.888, 0.1815030
1095.370, 0.3656880
1095.853, 0.8706470
1096.335, 1.071808
1096.817, 0.8973270
1097.299, 0.4062390
1097.781, 0.6207120
1098.263, 1.358452
1098.745, 1.353130
1099.227, 1.222118
1099.709, 1.266533
1100.192, 1.368153
1100.674, 1.332794
1101.156, 1.228027
1101.638, 1.299870
1102.120, 1.586735
1102.602, 2.083588
1103.084, 3.258770
1103.566, 4.042377
1104.049, 3.619591
1104.531, 2.983181
1105.013, 2.980705
1105.495, 3.441025
1105.977, 3.845020
1106.459, 4.118683
1106.941, 4.426632
1107.423, 4.944401
1107.906, 5.290215
1108.388, 5.199120
1108.870, 5.070992
1109.352, 5.209621
1109.834, 5.471378
1110.316, 5.594910
1110.798, 5.562038
1111.280, 5.508633
1111.762, 5.378006
1112.245, 5.330513
1112.727, 5.481495
1113.209, 5.610420
1113.691, 5.600304
1114.173, 5.515106
1114.655, 5.382183
1115.137, 5.218163
1115.619, 5.253250
1116.102, 5.739700
1116.584, 5.974609
1117.066, 5.824429
1117.548, 5.600304
1118.030, 5.298908
1118.512, 5.089928
1118.994, 5.228355
1119.476, 5.579323
1119.958, 5.549522
1120.441, 4.824810
1120.923, 4.763386
1121.405, 5.729980
1121.887, 6.559956
1122.369, 6.936962
1122.851, 7.118484
1123.333, 7.191063
1123.815, 7.306145
1124.297, 7.833733
1124.780, 8.813995
1125.262, 9.609840
1125.744, 10.04966
1126.226, 11.00579
1126.708, 12.81340
1127.190, 14.49217
1127.672, 15.41015
1128.154, 16.15946
1128.636, 17.68736
1129.119, 19.84007
1129.601, 21.26229
1130.083, 21.90259
1130.565, 22.43811
1131.047, 22.92213
1131.529, 23.39719
1132.011, 23.87435
1132.493, 24.36582
1132.976, 24.88868
1133.458, 25.41265
1133.940, 25.86085
1134.422, 26.23363
1134.904, 26.50264
1135.386, 26.67186
1135.868, 26.80527
1136.350, 26.92539
1136.833, 27.23689
1137.315, 27.88634
1137.797, 28.82332
1138.279, 30.15791
1138.761, 31.66672
1139.243, 32.45853
1139.725, 32.69905
1140.207, 33.15666
1140.689, 33.90153
1141.172, 34.49089
1141.654, 34.71726
1142.136, 34.63363
1142.618, 34.31421
1143.100, 33.70192
1143.582, 32.79691
1144.064, 31.48558
1144.546, 29.42198
1145.029, 26.73297
1145.511, 23.67057
1145.993, 20.41664
1146.475, 17.66248
1146.957, 16.05128
1147.439, 14.81660
1147.921, 13.28858
1148.403, 11.62581
1148.885, 9.910473
1149.368, 8.298660
1149.850, 7.030266
1150.332, 6.094284
1150.814, 5.272038
1151.296, 4.450581
1151.778, 3.790359
1152.260, 3.525551
1152.742, 3.420708
1153.224, 3.352886
1153.707, 3.213337
1154.189, 2.888184
1154.671, 2.475693
1155.153, 2.174503
1155.635, 2.021111
1156.117, 1.896336
1156.599, 1.744453
1157.081, 1.651085
1157.563, 1.667942
1158.046, 1.723602
1158.528, 1.796162
1159.010, 1.866856
1159.492, 1.966412
1159.974, 2.066387
1160.456, 1.932102
1160.938, 1.109814
1161.420, 0.9039880
1161.903, 2.169270
1162.385, 2.900677
1162.867, 2.236813
1163.349, 1.201565
1163.831, 0.3759840
1164.313, 0.1191020
1164.795, 8.3870001E-02
1165.277, 1.093147
1165.760, 1.950161
1166.242, 2.804832
1166.724, 2.919048
1167.206, 1.875301
1167.688, 1.079063
1168.170, 1.301857
1168.652, 2.004616
1169.134, 2.575306
1169.616, 2.956184
1170.099, 2.725754
1170.581, 1.871307
1171.063, 1.533199
1171.545, 1.783245
1172.027, 2.163841
1172.509, 2.541866
1172.991, 2.690720
1173.473, 2.391869
1173.956, 2.038967
1174.438, 2.401337
1174.920, 3.242413
1175.402, 3.915756
1175.884, 4.365234
1176.366, 4.271523
1176.848, 3.731472
1177.330, 3.469730
1177.813, 3.780666
1178.295, 4.085789
1178.777, 3.766224
1179.259, 3.328911
1179.741, 3.415649
1180.223, 3.780922
1180.705, 4.162273
1181.187, 4.498634
1181.669, 4.694340
1182.151, 4.767830
1182.634, 4.912628
1183.116, 5.261898
1183.598, 5.516602
1184.080, 5.499950
1184.562, 5.330021
1185.044, 4.818249
1185.526, 4.415634
1186.008, 4.811111
1186.490, 5.639050
1186.973, 5.884918
1187.455, 5.334549
1187.937, 5.128090
1188.419, 5.835033
1188.901, 6.387997
1189.383, 6.405365
1189.865, 6.428234
1190.347, 6.815224
1190.830, 7.278538
1191.312, 7.458359
1191.794, 7.435329
1192.276, 7.674763
1192.758, 8.436668
1193.240, 8.493992
1193.722, 7.437351
1194.204, 6.961948
1194.687, 7.648838
1195.169, 8.380772
1195.651, 8.398952
1196.133, 8.113590
1196.615, 8.307556
1197.097, 8.913311
1197.579, 9.494678
1198.061, 9.998840
1198.543, 9.830349
1199.026, 9.003216
1199.508, 8.534782
1199.990, 8.752808
1200.472, 9.120865
1200.954, 9.225067
1201.436, 9.323318
1201.918, 9.892540
1202.400, 10.56806
1202.883, 10.52967
1203.365, 10.09361
1203.847, 10.03443
1204.329, 10.35638
1204.811, 10.59940
1205.293, 10.59966
1205.775, 10.57875
1206.257, 10.68552
1206.740, 10.78645
1207.222, 10.78421
1207.704, 10.74051
1208.186, 10.73457
1208.668, 10.71373
1209.150, 10.51336
1209.632, 10.18206
1210.114, 10.04664
1210.596, 10.24207
1211.078, 10.43523
1211.561, 10.47822
1212.043, 10.62335
1212.525, 11.05089
1213.007, 11.50677
1213.489, 11.87096
1213.971, 12.11962
1214.453, 12.27019
1214.935, 12.30595
1215.417, 11.84041
1215.900, 10.58147
1216.382, 9.990257
1216.864, 10.29531
1217.346, 10.62381
1217.828, 10.70985
1218.310, 10.74956
1218.792, 10.92301
1219.274, 11.01886
1219.757, 10.47495
1220.239, 9.542656
1220.721, 9.610016
1221.203, 10.42381
1221.685, 10.70328
1222.167, 10.37041
1222.649, 10.00076
1223.131, 9.795254
1223.614, 9.579536
1224.096, 9.253773
1224.578, 8.768818
1225.060, 7.710663
1225.542, 6.761284
1226.024, 7.007027
1226.506, 7.776531
1226.988, 8.025368
1227.470, 7.763493
1227.953, 7.482128
1228.435, 7.368240
1228.917, 7.224644
1229.399, 6.923065
1229.881, 6.686935
1230.363, 6.806305
1230.845, 6.761398
1231.327, 5.958725
1231.810, 5.038952
1232.292, 4.941368
1232.774, 5.388004
1233.256, 5.194244
1233.738, 4.071621
1234.220, 3.571873
1234.702, 3.857315
1235.184, 4.312473
1235.667, 4.962444
1236.149, 5.180531
1236.631, 4.559975
1237.113, 3.747196
1237.595, 3.528004
1238.077, 3.693008
1238.559, 3.612747
1239.041, 3.340549
1239.523, 3.138977
1240.005, 3.010059
1240.488, 2.969528
1240.970, 2.964542
1241.452, 2.608261
1241.934, 1.699852
1242.416, 1.034981
1242.898, 1.565575
1243.380, 2.435577
1243.862, 3.042953
1244.344, 3.296173
1244.827, 2.857632
1245.309, 2.122231
1245.791, 1.707649
1246.273, 1.670223
1246.755, 1.778633
1247.237, 2.064861
1247.719, 2.177338
1248.201, 1.645462
1248.684, 1.481770
1249.166, 2.607979
1249.648, 3.447369
1250.130, 2.879105
1250.612, 1.770027
1251.094, 1.310467
1251.576, 1.356110
1252.058, 0.8812290
1252.541, 0.2786710
1253.023, 0.6496470
1253.505, 0.1110530
1253.987, 0.1520650
1254.469, 0.1438180
1254.951, 0.3015900
1255.433, 9.2658997E-02
1255.915, 0.5684620
1256.397, 0.5228160
1256.880, 0.2162550
1257.362, 0.2100870
1257.844, 0.2941440
1258.326, 9.4093002E-02
1258.808, 0.7052760
1259.290, 0.8831290
1259.772, 0.5604250
1260.254, 3.7537001E-02
1260.737, 0.6181950
1261.219, 1.019733
1261.701, 0.8033370
1262.183, 0.4976960
1262.665, 0.1754570
1263.147, 5.0602000E-02
1263.629, 0.4767000
1264.111, 1.055820
1264.594, 1.241310
1265.076, 1.073128
1265.558, 0.8745920
1266.040, 0.5171320
1266.522, 0.6166880
1267.004, 1.323875
1267.486, 1.918941
1267.968, 2.253571
1268.450, 2.622875
1268.932, 3.251015
1269.415, 3.337547
1269.897, 2.567226
1270.379, 1.243565
1270.861, 1.043289
1271.343, 1.542336
1271.825, 1.874882
1272.307, 1.801476
1272.789, 1.690933
1273.271, 2.214573
1273.754, 2.943558
1274.236, 3.623287
1274.718, 3.954559
1275.200, 3.694401
1275.682, 3.394581
1276.164, 3.553116
1276.646, 3.838551
1277.128, 3.760246
1277.611, 3.500839
1278.093, 3.110847
1278.575, 2.610882
1279.057, 2.091942
1279.539, 1.539139
1280.021, 1.352798
1280.503, 1.747410
1280.985, 1.612545
1281.468, 0.6406140
1281.950, 3.2191999E-02
1282.432, 5.9505001E-02
1282.914, 0.6063880
1283.396, 1.445179
1283.878, 1.958759
1284.360, 1.494419
1284.842, 0.4583740
1285.324, 0.0000000E+00
##END=



