##NAMES=Chenevixite
##RRUFFID=R100177
##IDEAL CHEMISTRY=Cu^2+^(Fe^3+^,Al)(As^5+^O_4_)(OH)_2_
##LOCALITY=Patagonia Mountains, Harshaw District, Santa Cruz County, Arizona
##OWNER=RRUFF
##SOURCE=Joe Ruiz
##DESCRIPTION=Transparent green thin tabular crystals
##STATUS=The identification of this mineral has been confirmed only by single crystal X-ray diffraction.
##URL=rruff.info/R100177
104.5868, 0.0000000E+00
105.0690, 1.972328
105.5511, 4.322319
106.0332, 6.212738
106.5153, 6.809631
106.9974, 7.339890
107.4795, 5.426918
107.9617, 3.231712
108.4438, 0.8975180
108.9259, 0.4876480
109.4080, 0.3849870
109.8901, 2.065987
110.3722, 2.719116
110.8544, 2.021606
111.3365, 1.377716
111.8186, 2.064915
112.3007, 3.519485
112.7828, 4.517895
113.2649, 4.468895
113.7471, 3.380646
114.2292, 2.897655
114.7113, 3.865200
115.1934, 4.580715
115.6755, 4.904854
116.1576, 4.911812
116.6397, 4.708595
117.1219, 4.437725
117.6040, 4.141369
118.0861, 3.620544
118.5682, 2.351662
119.0503, 1.170799
119.5324, 0.7506980
120.0146, 1.196156
120.4967, 1.953880
120.9788, 2.297115
121.4609, 1.755901
121.9430, 1.465729
122.4251, 1.809345
122.9073, 2.331303
123.3894, 2.341736
123.8715, 1.512417
124.3536, 0.3696670
124.8357, 0.3457680
125.3178, 1.878536
125.8000, 3.268303
126.2821, 3.805634
126.7642, 3.653252
127.2463, 3.428169
127.7284, 3.442863
128.2105, 3.589619
128.6927, 3.889828
129.1748, 4.555904
129.6569, 5.042664
130.1390, 5.413124
130.6211, 5.620319
131.1032, 5.901749
131.5854, 6.580608
132.0675, 7.316376
132.5496, 7.923981
133.0317, 8.464176
133.5138, 8.855747
133.9959, 8.690655
134.4781, 7.338837
134.9602, 6.393871
135.4423, 6.636345
135.9244, 7.441242
136.4065, 7.957722
136.8886, 7.618324
137.3708, 6.514160
137.8529, 5.852203
138.3350, 6.321167
138.8171, 6.587627
139.2992, 6.165314
139.7813, 5.262127
140.2635, 4.382225
140.7456, 3.953720
141.2277, 4.026100
141.7098, 4.173676
142.1919, 4.508987
142.6740, 4.811272
143.1561, 4.878601
143.6383, 4.731350
144.1204, 4.649540
144.6025, 4.972942
145.0846, 5.794643
145.5667, 6.354553
146.0488, 6.572384
146.5310, 6.537594
147.0131, 6.287983
147.4952, 5.798946
147.9773, 5.251575
148.4594, 4.947311
148.9415, 4.834602
149.4237, 4.484268
149.9058, 3.485165
150.3879, 2.107811
150.8700, 1.168770
151.3521, 1.030861
151.8342, 1.042160
152.3164, 0.5510640
152.7985, 0.3700290
153.2806, 1.184406
153.7627, 1.393772
154.2448, 0.9844550
154.7269, 0.7135890
155.2091, 0.8477440
155.6912, 1.024372
156.1733, 1.073490
156.6554, 0.9780620
157.1375, 0.8078380
157.6196, 0.6499670
158.1018, 0.5318570
158.5839, 0.3461040
159.0660, 9.6938998E-02
159.5481, 0.2167660
160.0302, 0.6635510
160.5123, 1.236366
160.9945, 1.798382
161.4766, 2.096371
161.9587, 1.919868
162.4408, 1.944118
162.9229, 1.883186
163.4050, 1.891186
163.8871, 2.180477
164.3693, 2.825581
164.8514, 3.624489
165.3335, 4.098072
165.8156, 3.917152
166.2977, 3.855778
166.7798, 4.037182
167.2620, 4.429024
167.7441, 4.833584
168.2262, 5.173836
168.7083, 5.447132
169.1904, 5.625740
169.6725, 5.548859
170.1547, 5.680099
170.6368, 6.348309
171.1189, 7.406467
171.6010, 8.366825
172.0831, 9.018631
172.5652, 9.429165
173.0474, 9.778267
173.5295, 9.999496
174.0116, 10.27850
174.4937, 10.78131
174.9758, 11.50761
175.4579, 12.26622
175.9401, 13.03535
176.4222, 13.76013
176.9043, 14.38411
177.3864, 14.91420
177.8685, 15.33485
178.3506, 15.55749
178.8328, 15.48812
179.3149, 15.53813
179.7970, 15.93298
180.2791, 16.47660
180.7612, 17.02201
181.2433, 17.52134
181.7255, 17.96013
182.2076, 18.27169
182.6897, 18.26932
183.1718, 18.58112
183.6539, 19.69821
184.1360, 20.97173
184.6181, 21.68048
185.1003, 21.45512
185.5824, 20.57631
186.0645, 20.04205
186.5466, 20.16957
187.0287, 20.28289
187.5108, 20.21793
187.9930, 20.10688
188.4751, 20.10035
188.9572, 20.27886
189.4393, 20.65134
189.9214, 21.27261
190.4035, 22.70491
190.8857, 23.76217
191.3678, 23.94749
191.8499, 23.62000
192.3320, 23.42931
192.8141, 23.79575
193.2962, 24.61915
193.7784, 25.07893
194.2605, 24.94210
194.7426, 24.78193
195.2247, 24.72453
195.7068, 24.78888
196.1889, 25.03714
196.6711, 25.56932
197.1532, 26.28421
197.6353, 26.69530
198.1174, 26.61308
198.5995, 26.43847
199.0816, 26.40020
199.5638, 26.47723
200.0459, 26.50195
200.5280, 26.27868
201.0101, 25.97205
201.4922, 26.04744
201.9743, 26.97935
202.4565, 27.83888
202.9386, 27.65526
203.4207, 26.39583
203.9028, 25.23930
204.3849, 24.97907
204.8670, 25.16758
205.3492, 25.15297
205.8313, 24.70486
206.3134, 24.17418
206.7955, 24.14115
207.2776, 24.78934
207.7597, 25.07236
208.2419, 23.97521
208.7240, 22.44997
209.2061, 21.44689
209.6882, 21.34314
210.1703, 21.72958
210.6524, 21.89264
211.1346, 21.72868
211.6167, 21.62991
212.0988, 21.84853
212.5809, 22.18150
213.0630, 22.38586
213.5451, 22.33107
214.0273, 22.13909
214.5094, 22.23002
214.9915, 22.96808
215.4736, 23.33956
215.9557, 22.75014
216.4378, 21.93079
216.9200, 21.67728
217.4021, 22.34815
217.8842, 23.53728
218.3663, 24.16756
218.8484, 23.73574
219.3305, 23.42014
219.8127, 23.45331
220.2948, 23.62194
220.7769, 23.68959
221.2590, 23.54950
221.7411, 23.27748
222.2232, 23.09318
222.7054, 23.12623
223.1875, 23.09078
223.6696, 23.16888
224.1517, 23.10059
224.6338, 22.51108
225.1159, 21.22841
225.5980, 19.50916
226.0802, 18.09390
226.5623, 17.45076
227.0444, 16.56258
227.5265, 15.09287
228.0086, 13.41143
228.4907, 12.02476
228.9729, 11.14902
229.4550, 10.61192
229.9371, 9.985527
230.4192, 9.102997
230.9013, 8.391884
231.3834, 8.060478
231.8656, 7.910892
232.3477, 7.622581
232.8298, 7.053532
233.3119, 6.373173
233.7940, 5.971882
234.2761, 5.933178
234.7583, 5.891586
235.2404, 5.680153
235.7225, 5.418377
236.2046, 5.360302
236.6867, 5.643436
237.1688, 6.022186
237.6510, 6.025784
238.1331, 5.614670
238.6152, 5.220772
239.0973, 4.937679
239.5794, 4.775669
240.0615, 4.792072
240.5437, 5.058380
241.0258, 5.391895
241.5079, 5.508801
241.9900, 5.408703
242.4721, 5.396465
242.9542, 5.606293
243.4364, 5.999462
243.9185, 6.516834
244.4006, 7.231728
244.8827, 7.907772
245.3648, 8.342190
245.8469, 8.553791
246.3290, 8.568790
246.8112, 8.379719
247.2933, 8.003181
247.7754, 7.397182
248.2575, 6.296501
248.7396, 5.428135
249.2217, 5.585266
249.7039, 6.477730
250.1860, 7.117126
250.6681, 6.735313
251.1502, 5.635002
251.6323, 4.988255
252.1144, 5.136730
252.5966, 5.268314
253.0787, 4.850132
253.5608, 4.056866
254.0429, 3.265678
254.5250, 2.639175
255.0071, 2.180622
255.4893, 1.914879
255.9714, 1.918423
256.4535, 2.010456
256.9356, 2.131557
257.4177, 2.266361
257.8998, 2.402351
258.3820, 2.567665
258.8641, 2.712322
259.3462, 2.615692
259.8283, 2.015102
260.3104, 1.615856
260.7925, 1.917282
261.2747, 2.448669
261.7568, 2.541180
262.2389, 1.790157
262.7210, 0.5309300
263.2031, 0.2570760
263.6852, 0.3374370
264.1674, 0.3138960
264.6495, 0.3236160
265.1316, 0.3267560
265.6137, 0.2692410
266.0958, 0.1249080
266.5779, 6.4960003E-02
267.0601, 0.2122880
267.5422, 0.3546220
268.0243, 0.3701170
268.5064, 0.2091140
268.9885, 4.3892000E-02
269.4706, 0.3924870
269.9528, 0.8258550
270.4349, 1.173538
270.9170, 1.019516
271.3991, 0.2058490
271.8812, 0.7795680
272.3633, 0.1695670
272.8455, 0.7544560
273.3276, 1.445072
273.8097, 1.727543
274.2918, 1.624149
274.7739, 1.072155
275.2560, 0.4149630
275.7382, 1.288857
276.2202, 1.273075
276.7024, 0.9918330
277.1845, 0.7134510
277.6666, 0.5410190
278.1487, 0.5570950
278.6308, 0.8700330
279.1129, 1.531265
279.5951, 2.331398
280.0772, 3.626022
280.5593, 4.738308
281.0414, 5.166531
281.5235, 5.008400
282.0056, 4.803303
282.4878, 5.106594
282.9699, 6.047981
283.4520, 6.553791
283.9341, 6.116428
284.4162, 5.801300
284.8983, 6.096027
285.3805, 6.892735
285.8626, 7.820232
286.3447, 8.608646
286.8268, 9.256721
287.3089, 9.839916
287.7910, 10.34739
288.2732, 10.80785
288.7553, 11.14710
289.2374, 11.44714
289.7195, 11.88765
290.2016, 12.59958
290.6837, 13.49165
291.1659, 14.05902
291.6480, 14.07670
292.1301, 14.03146
292.6122, 14.11192
293.0943, 14.14714
293.5764, 13.83945
294.0586, 13.04050
294.5407, 11.94957
295.0228, 11.10279
295.5049, 10.69347
295.9870, 10.30832
296.4691, 9.894577
296.9513, 9.515247
297.4334, 9.278473
297.9155, 9.213634
298.3976, 9.186489
298.8797, 8.960182
299.3618, 8.305965
299.8440, 7.890316
300.3261, 8.009857
300.8082, 8.180866
301.2903, 7.857414
301.7724, 7.002392
302.2545, 6.219463
302.7367, 6.301620
303.2188, 7.668957
303.7009, 8.213783
304.1830, 7.168209
304.6651, 6.006367
305.1472, 5.751431
305.6294, 6.348278
306.1115, 7.010647
306.5936, 7.039394
307.0757, 6.383938
307.5578, 6.073811
308.0399, 6.436340
308.5221, 6.754761
309.0042, 6.642971
309.4863, 6.221214
309.9684, 5.852890
310.4505, 5.782249
310.9326, 5.953876
311.4148, 5.982235
311.8969, 5.713654
312.3790, 5.502758
312.8611, 5.572826
313.3432, 5.731289
313.8253, 5.566185
314.3075, 4.856503
314.7896, 3.949329
315.2717, 3.765999
315.7538, 5.355648
316.2359, 6.148247
316.7180, 5.319492
317.2001, 3.868488
317.6823, 2.848209
318.1644, 2.564518
318.6465, 2.736053
319.1286, 2.975918
319.6107, 3.335793
320.0928, 3.412582
320.5750, 3.113766
321.0571, 2.651424
321.5392, 2.060364
322.0213, 1.438831
322.5034, 1.075584
322.9855, 1.281651
323.4677, 2.148861
323.9498, 2.948792
324.4319, 3.684505
324.9140, 4.309349
325.3961, 4.849834
325.8782, 5.261314
326.3604, 5.438919
326.8425, 5.306328
327.3246, 4.941551
327.8067, 4.782211
328.2888, 4.787785
328.7709, 4.895050
329.2531, 5.112495
329.7352, 5.455643
330.2173, 6.093094
330.6994, 7.107174
331.1815, 8.194454
331.6636, 8.553207
332.1458, 7.078514
332.6279, 6.300346
333.1100, 6.842758
333.5921, 7.826157
334.0742, 8.454906
334.5563, 8.496468
335.0385, 8.192524
335.5206, 7.864922
336.0027, 7.423508
336.4848, 7.216343
336.9669, 7.299370
337.4490, 7.540531
337.9312, 7.929649
338.4133, 8.419636
338.8954, 8.860790
339.3775, 9.082859
339.8596, 9.042797
340.3417, 9.340092
340.8239, 10.43475
341.3060, 11.34408
341.7881, 11.58186
342.2702, 11.37275
342.7523, 11.18517
343.2344, 11.30115
343.7166, 11.68592
344.1987, 12.17257
344.6808, 12.90210
345.1629, 13.57893
345.6450, 14.13436
346.1271, 14.63721
346.6093, 15.18340
347.0914, 15.80113
347.5735, 16.42284
348.0556, 16.90812
348.5377, 17.20182
349.0198, 17.44946
349.5020, 17.71884
349.9841, 17.90303
350.4662, 17.97605
350.9483, 17.90685
351.4304, 17.61209
351.9125, 16.96873
352.3947, 15.91673
352.8768, 14.92442
353.3589, 13.62256
353.8410, 12.74441
354.3231, 12.77265
354.8052, 13.43073
355.2874, 14.17190
355.7695, 14.66301
356.2516, 14.89402
356.7337, 14.78255
357.2158, 13.82649
357.6979, 13.21870
358.1800, 13.51857
358.6621, 14.10628
359.1443, 14.24216
359.6264, 13.64499
360.1085, 12.73222
360.5906, 12.32435
361.0727, 12.78021
361.5548, 12.79210
362.0370, 11.87589
362.5191, 10.77615
363.0012, 9.936562
363.4833, 9.392403
363.9654, 8.925114
364.4475, 8.269958
364.9297, 7.402355
365.4118, 6.778940
365.8939, 6.794821
366.3760, 6.616665
366.8581, 5.568655
367.3402, 4.099760
367.8224, 3.168230
368.3045, 3.495043
368.7866, 4.615297
369.2687, 5.156723
369.7508, 4.951992
370.2329, 4.509554
370.7151, 3.794350
371.1972, 3.045311
371.6793, 2.494904
372.1614, 2.221561
372.6435, 2.105125
373.1256, 2.052429
373.6078, 2.074783
374.0899, 2.006422
374.5720, 1.831087
375.0541, 1.522762
375.5362, 0.9116130
376.0183, 5.8568999E-02
376.5005, 0.5249820
376.9826, 0.2626300
377.4647, 0.5720200
377.9468, 0.9480190
378.4289, 0.6962870
378.9110, 0.2179850
379.3932, 0.3355690
379.8753, 0.9086880
380.3574, 1.393381
380.8395, 1.807844
381.3216, 2.072395
381.8037, 2.045397
382.2859, 1.722534
382.7680, 1.310513
383.2501, 0.7313120
383.7322, 0.2390060
384.2143, 0.2801270
384.6964, 1.054371
385.1786, 1.680922
385.6607, 1.501284
386.1428, 0.7826310
386.6249, 0.2309190
387.1070, 2.3031000E-02
387.5891, 2.1470999E-02
388.0713, 3.7636001E-02
388.5534, 3.0634001E-02
389.0355, 0.1721820
389.5176, 0.6961940
389.9997, 1.261036
390.4818, 1.504309
390.9640, 1.418222
391.4461, 1.207262
391.9282, 0.9091430
392.4103, 0.6204410
392.8924, 0.7773090
393.3745, 1.994278
393.8567, 2.946798
394.3388, 2.951826
394.8209, 2.344021
395.3030, 1.689854
395.7851, 1.164152
396.2672, 0.8679830
396.7494, 1.012239
397.2315, 1.827187
397.7136, 2.549313
398.1957, 3.119812
398.6778, 3.609241
399.1599, 4.105404
399.6420, 4.600258
400.1241, 4.971447
400.6063, 5.074604
401.0884, 4.894508
401.5705, 4.996086
402.0526, 5.691730
402.5347, 6.282719
403.0168, 6.433203
403.4990, 6.363207
403.9811, 6.467146
404.4632, 6.936863
404.9453, 7.596001
405.4274, 8.014050
405.9095, 8.056524
406.3917, 8.063931
406.8738, 7.803087
407.3559, 7.688299
407.8380, 8.220499
408.3201, 9.323694
408.8022, 10.31467
409.2844, 10.41969
409.7665, 9.555376
410.2486, 9.138058
410.7307, 9.649508
411.2128, 10.10585
411.6949, 10.05354
412.1771, 9.787714
412.6592, 9.847473
413.1413, 10.54966
413.6234, 11.54490
414.1055, 12.01873
414.5876, 11.73903
415.0698, 11.65242
415.5519, 12.08589
416.0340, 12.72271
416.5161, 13.40301
416.9982, 14.09886
417.4803, 14.77364
417.9625, 15.38594
418.4446, 15.94527
418.9267, 16.53068
419.4088, 17.13260
419.8909, 17.78493
420.3730, 18.56701
420.8552, 19.40591
421.3373, 20.13135
421.8194, 20.59173
422.3015, 21.01148
422.7836, 21.64408
423.2657, 22.48768
423.7479, 23.46873
424.2300, 24.57386
424.7121, 25.79598
425.1942, 27.20404
425.6763, 28.89466
426.1584, 30.27293
426.6406, 30.90270
427.1227, 31.10774
427.6048, 31.37730
428.0869, 31.78676
428.5690, 32.36731
429.0511, 33.21064
429.5333, 34.31508
430.0154, 35.22810
430.4975, 36.11715
430.9796, 36.65622
431.4617, 36.31525
431.9438, 35.45927
432.4260, 35.14323
432.9081, 35.95255
433.3902, 37.23610
433.8723, 37.40403
434.3544, 35.38270
434.8365, 33.99643
435.3187, 33.76695
435.8008, 33.91135
436.2829, 33.98480
436.7650, 33.83390
437.2471, 33.27725
437.7292, 32.09839
438.2114, 30.27569
438.6935, 28.75642
439.1756, 27.91935
439.6577, 27.00374
440.1398, 25.78140
440.6219, 24.42608
441.1040, 23.22549
441.5862, 22.29407
442.0683, 21.41547
442.5504, 20.11093
443.0325, 18.05686
443.5146, 16.65568
443.9967, 16.74419
444.4789, 16.96459
444.9610, 16.50753
445.4431, 15.48361
445.9252, 14.55725
446.4073, 14.31780
446.8894, 14.54794
447.3716, 14.33390
447.8537, 13.47208
448.3358, 12.65628
448.8179, 12.21064
449.3000, 11.96008
449.7821, 11.72487
450.2643, 11.45699
450.7464, 11.25578
451.2285, 11.35766
451.7106, 11.65197
452.1927, 11.51215
452.6748, 10.65749
453.1570, 9.670033
453.6391, 9.161423
454.1212, 9.037933
454.6033, 8.937222
455.0854, 8.776928
455.5675, 8.605593
456.0497, 8.566908
456.5318, 8.603876
457.0139, 8.347605
457.4960, 7.539492
457.9781, 6.402657
458.4602, 5.512913
458.9424, 4.761862
459.4245, 4.409502
459.9066, 4.851452
460.3887, 5.521660
460.8708, 5.890680
461.3529, 5.861912
461.8351, 5.533335
462.3172, 4.935755
462.7993, 4.053518
463.2814, 3.520664
463.7635, 3.584970
464.2456, 3.687225
464.7278, 3.664686
465.2099, 3.603539
465.6920, 3.680981
466.1741, 3.958307
466.6562, 4.248962
467.1383, 4.198009
467.6205, 3.639677
468.1026, 3.253447
468.5847, 3.186802
469.0668, 3.185410
469.5489, 3.095810
470.0310, 2.974340
470.5132, 3.008579
470.9953, 3.378687
471.4774, 3.918962
471.9595, 4.183199
472.4416, 4.103453
472.9237, 4.000212
473.4059, 3.972528
473.8880, 3.980009
474.3701, 3.944309
474.8522, 3.876280
475.3343, 3.968483
475.8164, 4.418715
476.2986, 5.113791
476.7807, 5.713005
477.2628, 6.178328
477.7449, 6.554407
478.2270, 6.928186
478.7091, 7.225908
479.1913, 7.210299
479.6734, 6.499577
480.1555, 5.889912
480.6376, 5.901754
481.1197, 6.298857
481.6018, 6.577017
482.0839, 6.568785
482.5660, 6.458717
483.0482, 6.535444
483.5303, 6.925205
484.0124, 7.120296
484.4945, 6.724850
484.9766, 6.460537
485.4587, 6.900036
485.9409, 7.777706
486.4230, 8.399158
486.9051, 8.356293
487.3872, 7.878885
487.8693, 7.621584
488.3514, 7.738960
488.8336, 7.779543
489.3157, 7.592136
489.7978, 7.415594
490.2799, 7.461300
490.7620, 7.708820
491.2441, 7.941477
491.7263, 7.984875
492.2084, 7.872675
492.6905, 7.801275
493.1726, 7.837112
493.6547, 7.707239
494.1368, 6.941982
494.6190, 6.127319
495.1011, 5.956253
495.5832, 6.609756
496.0653, 7.378483
496.5474, 7.794739
497.0295, 7.903223
497.5117, 7.771561
497.9938, 7.359074
498.4759, 6.879807
498.9580, 6.459490
499.4401, 6.118183
499.9222, 5.923937
500.4044, 6.013590
500.8865, 6.114334
501.3686, 6.117353
501.8507, 6.024683
502.3328, 5.833296
502.8149, 5.542696
503.2971, 5.171406
503.7792, 4.697573
504.2613, 3.946812
504.7434, 3.770508
505.2255, 4.704042
505.7076, 5.621410
506.1898, 5.993408
506.6719, 5.935635
507.1540, 5.731838
507.6361, 5.523027
508.1182, 5.337276
508.6003, 5.222610
509.0825, 5.128784
509.5646, 5.249578
510.0467, 6.079948
510.5288, 6.710293
511.0109, 6.447777
511.4930, 5.504356
511.9752, 4.743273
512.4573, 4.894293
512.9394, 5.465536
513.4215, 5.202934
513.9036, 3.949726
514.3857, 2.823639
514.8679, 2.058002
515.3500, 1.801645
515.8321, 2.383532
516.3142, 3.936937
516.7963, 5.149748
517.2784, 5.360235
517.7606, 4.949068
518.2427, 4.259100
518.7248, 3.364784
519.2069, 2.742325
519.6890, 2.758381
520.1711, 3.284393
520.6533, 3.688374
521.1354, 4.207848
521.6175, 4.316652
522.0996, 3.539930
522.5817, 2.537577
523.0638, 1.982464
523.5460, 1.972769
524.0281, 2.199982
524.5102, 2.412184
524.9923, 2.603731
525.4744, 2.537275
525.9565, 1.956181
526.4387, 1.447557
526.9208, 1.069014
527.4029, 0.8463840
527.8850, 0.8468970
528.3671, 1.076235
528.8492, 1.374748
529.3314, 1.661486
529.8135, 1.911306
530.2956, 1.842894
530.7777, 1.331148
531.2598, 0.7277870
531.7419, 4.0197000E-02
532.2241, 0.5482030
532.7062, 0.6498740
533.1883, 6.4823002E-02
533.6704, 0.7498570
534.1525, 0.7380920
534.6346, 0.2747780
535.1168, 8.6359002E-02
535.5989, 0.2235980
536.0810, 0.2154810
536.5631, 0.1182170
537.0452, 7.3687002E-02
537.5273, 0.2427220
538.0095, 0.4223160
538.4916, 0.5447730
538.9737, 0.6596050
539.4558, 0.6772710
539.9379, 0.8158018
540.4200, 0.9951845
540.9022, 0.9437750
541.3843, 1.268391
541.8664, 1.183853
542.3485, 0.9717060
542.8306, 0.3887880
543.3127, 5.4953001E-02
543.7948, 0.1165890
544.2769, 3.9657999E-02
544.7590, 0.1673720
545.2411, 0.1771760
545.7233, 0.1344660
546.2054, 0.1535420
546.6875, 0.2211860
547.1696, 9.3330003E-02
547.6517, 0.4001140
548.1339, 0.8412910
548.6160, 0.8189260
549.0981, 0.4578990
549.5802, 6.7769997E-02
550.0623, 0.4188860
550.5444, 0.7862610
551.0266, 0.8024960
551.5087, 0.6030200
551.9908, 0.5352370
552.4729, 0.7109910
552.9550, 0.8911650
553.4371, 0.7556370
553.9193, 0.2227020
554.4014, 0.1337150
554.8835, 9.3089998E-02
555.3656, 0.1461470
555.8477, 0.6166360
556.3298, 1.247400
556.8120, 1.640545
557.2941, 1.655434
557.7762, 1.471689
558.2583, 1.287599
558.7404, 1.079422
559.2225, 1.101666
559.7047, 1.644431
560.1868, 2.041090
560.6689, 1.781866
561.1510, 1.233216
561.6331, 1.065207
562.1152, 1.602745
562.5974, 2.214972
563.0795, 2.243462
563.5616, 1.849791
564.0437, 1.652632
564.5258, 1.808421
565.0079, 2.000817
565.4901, 1.956778
565.9722, 1.673212
566.4543, 1.329000
566.9364, 0.5354380
567.4185, 0.1213490
567.9006, 0.7945310
568.3828, 1.890740
568.8649, 2.430176
569.3470, 2.177411
569.8291, 1.637671
570.3112, 1.382592
570.7933, 1.427622
571.2755, 1.468700
571.7576, 1.404078
572.2397, 1.468333
572.7218, 1.978175
573.2039, 2.514648
573.6860, 2.488131
574.1682, 1.769082
574.6503, 1.044161
575.1324, 1.041952
575.6145, 1.599448
576.0966, 2.029575
576.5787, 2.309893
577.0609, 2.377755
577.5430, 1.976879
578.0251, 1.404276
578.5072, 1.412526
578.9893, 2.389612
579.4714, 3.101091
579.9536, 2.741424
580.4357, 2.033873
580.9178, 1.992153
581.3999, 2.654924
581.8820, 3.200785
582.3641, 2.953989
582.8463, 2.081910
583.3284, 1.569502
583.8105, 1.603466
584.2926, 1.755896
584.7747, 2.203718
585.2568, 2.601542
585.7390, 2.576942
586.2211, 2.197878
586.7032, 1.883063
587.1853, 1.930828
587.6674, 2.253083
588.1495, 2.708817
588.6317, 3.372481
589.1138, 3.676632
589.5959, 3.170044
590.0780, 2.448770
590.5601, 2.321077
591.0422, 2.818830
591.5244, 3.224689
592.0065, 3.326654
592.4886, 3.242911
592.9707, 2.952277
593.4528, 2.546404
593.9349, 2.321994
594.4171, 2.416466
594.8992, 2.730868
595.3813, 3.099712
595.8634, 3.559006
596.3455, 3.964018
596.8276, 4.351809
597.3098, 4.655779
597.7919, 4.952574
598.2740, 5.102234
598.7561, 4.798843
599.2382, 3.932584
599.7203, 2.974203
600.2025, 2.571012
600.6846, 2.730328
601.1667, 2.818492
601.6488, 2.636390
602.1309, 2.575272
602.6130, 3.145708
603.0952, 4.006293
603.5773, 4.413672
604.0594, 4.088566
604.5415, 3.644751
605.0236, 3.349271
605.5057, 3.177459
605.9879, 3.029171
606.4700, 2.912717
606.9521, 3.036452
607.4342, 3.639097
607.9163, 4.587870
608.3984, 4.990118
608.8806, 4.352018
609.3627, 3.795032
609.8448, 3.565969
610.3269, 3.372985
610.8090, 2.908276
611.2911, 2.249439
611.7733, 1.789331
612.2554, 1.827323
612.7375, 2.154603
613.2196, 2.353586
613.7017, 2.421949
614.1838, 2.431545
614.6660, 2.388422
615.1481, 2.306437
615.6302, 2.125553
616.1123, 1.858670
616.5944, 1.839394
617.0765, 2.485288
617.5587, 3.072358
618.0408, 3.061932
618.5229, 2.621597
619.0050, 2.105516
619.4871, 1.642713
619.9692, 1.250674
620.4514, 0.9367790
620.9335, 0.6845310
621.4156, 0.6294550
621.8977, 1.026239
622.3798, 1.322791
622.8619, 1.260926
623.3441, 1.082006
623.8262, 1.113552
624.3083, 1.424627
624.7904, 1.688772
625.2725, 1.530623
625.7546, 1.139481
626.2367, 1.030995
626.7188, 1.254539
627.2009, 1.392560
627.6830, 1.146193
628.1652, 0.7437790
628.6473, 0.7933910
629.1294, 1.529549
629.6115, 1.883750
630.0936, 1.400741
630.5757, 0.7449200
631.0579, 0.3129800
631.5400, 0.1227750
632.0221, 8.0398999E-02
632.5042, 0.1352830
632.9863, 0.3240730
633.4684, 0.8115330
633.9506, 1.750628
634.4327, 2.206266
634.9148, 1.814423
635.3969, 1.329977
635.8790, 1.016034
636.3611, 0.8781000
636.8433, 1.038146
637.3254, 1.681767
637.8075, 2.128091
638.2896, 1.599959
638.7717, 0.6134650
639.2538, 0.1662640
639.7360, 0.3735160
640.2181, 0.8631330
640.7002, 1.477379
641.1823, 2.089113
641.6644, 2.185180
642.1465, 0.9428150
642.6287, 0.3132780
643.1108, 0.8133350
643.5929, 1.508945
644.0750, 1.861087
644.5571, 1.856574
645.0392, 1.625418
645.5214, 1.174610
646.0035, 0.7520350
646.4856, 0.9364940
646.9677, 1.724761
647.4498, 2.038353
647.9319, 1.462716
648.4141, 0.7874060
648.8962, 0.6955190
649.3783, 1.066468
649.8604, 1.449192
650.3425, 1.987511
650.8246, 2.302529
651.3068, 2.042010
651.7889, 1.558031
652.2710, 1.277585
652.7531, 1.271033
653.2352, 1.430800
653.7173, 1.695232
654.1995, 2.005633
654.6816, 2.097709
655.1637, 1.836579
655.6458, 1.710111
656.1279, 2.032313
656.6100, 2.264441
657.0922, 1.955895
657.5743, 1.277425
658.0564, 0.8448060
658.5385, 0.9718640
659.0206, 1.325420
659.5027, 1.767966
659.9849, 2.180228
660.4670, 2.097334
660.9491, 1.401885
661.4312, 0.7859590
661.9133, 0.9395440
662.3954, 1.762734
662.8776, 1.984651
663.3597, 0.9440780
663.8418, 0.1720540
664.3239, 2.9338000E-02
664.8060, 2.8169001E-02
665.2881, 0.2240030
665.7703, 0.5382980
666.2524, 0.4777750
666.7345, 0.4459200
667.2166, 0.7609143
667.6987, 0.7474959
668.1808, 1.393129
668.6630, 1.189294
669.1451, 1.758112
669.6272, 2.419211
670.1093, 2.478137
670.5914, 1.976138
671.0735, 1.608755
671.5557, 1.405295
672.0378, 1.324555
672.5199, 1.418425
673.0020, 1.588868
673.4841, 1.717990
673.9662, 1.832080
674.4484, 2.012690
674.9305, 2.330647
675.4126, 2.673766
675.8947, 2.657216
676.3768, 2.188660
676.8589, 1.809690
677.3411, 1.657113
677.8232, 1.612091
678.3053, 1.620604
678.7874, 1.656600
679.2695, 1.617365
679.7516, 1.372416
680.2338, 1.202227
680.7159, 1.306584
681.1980, 1.544330
681.6801, 1.748018
682.1622, 1.881052
682.6443, 1.891944
683.1265, 1.696209
683.6086, 1.387114
684.0907, 1.476049
684.5728, 2.342045
685.0549, 2.789221
685.5370, 2.115863
686.0192, 1.444490
686.5013, 1.540138
686.9834, 2.193356
687.4655, 2.695819
687.9476, 2.760966
688.4297, 2.639376
688.9119, 2.443327
689.3940, 2.252973
689.8761, 2.350395
690.3582, 2.777536
690.8403, 3.060555
691.3224, 2.805183
691.8046, 2.143910
692.2867, 1.570077
692.7688, 0.9195680
693.2509, 0.6394680
693.7330, 1.162305
694.2151, 1.668700
694.6973, 1.558476
695.1794, 1.017775
695.6615, 0.5195090
696.1436, 0.2228900
696.6257, 0.1920980
697.1078, 0.7251980
697.5900, 1.594906
698.0721, 1.913628
698.5542, 1.530527
699.0363, 1.117581
699.5184, 1.133347
700.0005, 1.456983
700.4827, 1.761996
700.9648, 2.295027
701.4469, 2.518875
701.9290, 2.111400
702.4111, 1.683735
702.8932, 1.722035
703.3754, 1.998812
703.8575, 1.940102
704.3396, 1.289292
704.8217, 0.5864040
705.3038, 0.5719240
705.7859, 1.091050
706.2681, 1.412061
706.7502, 1.473562
707.2323, 1.359733
707.7144, 1.027043
708.1965, 0.6177740
708.6786, 0.4882700
709.1607, 0.7692810
709.6428, 0.9299130
710.1249, 0.8129650
710.6071, 0.6886460
711.0892, 0.7742310
711.5713, 0.9394470
712.0534, 0.8840340
712.5355, 0.5239880
713.0176, 0.2185130
713.4998, 0.5112190
713.9819, 1.244593
714.4640, 1.517939
714.9461, 1.251324
715.4282, 0.9625330
715.9103, 0.8516500
716.3925, 0.8517200
716.8746, 0.8965680
717.3567, 1.008892
717.8388, 0.9680850
718.3209, 0.4899400
718.8030, 0.1445460
719.2852, 0.2035420
719.7673, 0.5579210
720.2494, 1.191309
720.7315, 2.009716
721.2136, 2.588639
721.6957, 2.460092
722.1779, 1.814932
722.6600, 1.290351
723.1421, 0.8635760
723.6242, 0.6367170
724.1063, 0.7957280
724.5884, 1.020282
725.0706, 0.8349580
725.5527, 0.2706310
726.0348, 0.1289730
726.5169, 0.3025500
726.9990, 0.3487190
727.4811, 0.2106620
727.9633, 2.1591000E-02
728.4454, 5.6770001E-02
728.9275, 3.0890999E-02
729.4096, 5.6997001E-02
729.8917, 0.2796480
730.3738, 0.5246940
730.8560, 0.3081970
731.3381, 0.3920960
731.8202, 0.7303690
732.3023, 0.4631900
732.7844, 8.1568003E-02
733.2665, 2.7411999E-02
733.7487, 3.4271002E-02
734.2308, 0.1337830
734.7129, 0.7312740
735.1950, 1.176613
735.6771, 1.406374
736.1592, 1.398056
736.6414, 0.9715810
737.1235, 0.3088780
737.6056, 0.1695080
738.0877, 0.2738060
738.5698, 0.2118300
739.0519, 0.2931440
739.5341, 0.4889340
740.0162, 0.4969290
740.4983, 0.2523400
740.9804, 6.4273998E-02
741.4625, 0.1219810
741.9446, 0.2923180
742.4268, 0.3092900
742.9089, 0.1209790
743.3910, 6.5516002E-02
743.8731, 0.3695810
744.3552, 0.5974850
744.8373, 0.4429280
745.3195, 0.1253400
745.8016, 6.7726001E-02
746.2837, 5.7484001E-02
746.7658, 0.1084560
747.2479, 0.5225350
747.7300, 0.9921040
748.2122, 0.8905740
748.6943, 1.037965
749.1764, 1.085699
749.6585, 0.7727640
750.1406, 0.8837430
750.6227, 0.5691680
751.1049, 0.1473050
751.5870, 0.4921020
752.0691, 0.1604880
752.5512, 8.1754997E-02
753.0333, 8.5104004E-02
753.5154, 5.5114999E-02
753.9976, 0.3743610
754.4797, 0.7518880
754.9618, 0.8464870
755.4439, 0.4220500
755.9260, 5.1236998E-02
756.4081, 0.2612720
756.8903, 3.3353290E-03
757.3724, 1.101599
757.8545, 0.1166990
758.3366, 0.8777200
758.8187, 1.288683
759.3008, 1.273314
759.7830, 1.222422
760.2651, 1.167570
760.7472, 0.9969440
761.2293, 0.4514450
761.7114, 8.7015003E-02
762.1935, 0.2471470
762.6757, 0.6542570
763.1578, 1.002914
763.6399, 1.224464
764.1220, 1.309151
764.6041, 1.189625
765.0862, 0.9678020
765.5684, 0.7619800
766.0505, 0.5787830
766.5326, 0.4339390
767.0147, 0.3346250
767.4968, 0.4461860
767.9789, 1.014084
768.4611, 2.006718
768.9432, 2.577271
769.4253, 2.432808
769.9074, 2.366739
770.3895, 2.589907
770.8716, 2.829557
771.3538, 2.907551
771.8359, 2.869429
772.3180, 2.870033
772.8001, 2.911324
773.2822, 3.106728
773.7643, 3.698738
774.2465, 4.408951
774.7286, 4.747181
775.2107, 4.751148
775.6928, 4.904493
776.1749, 5.486557
776.6570, 6.208616
777.1392, 6.490589
777.6213, 6.251846
778.1034, 6.240362
778.5855, 6.501148
779.0676, 6.905931
779.5497, 7.475407
780.0319, 8.115662
780.5140, 8.684835
780.9961, 9.176003
781.4782, 9.733910
781.9603, 10.49447
782.4424, 11.22249
782.9246, 11.85958
783.4067, 12.34006
783.8888, 12.45200
784.3709, 12.25098
784.8530, 12.16892
785.3351, 12.58253
785.8173, 13.31861
786.2994, 13.91312
786.7815, 14.35722
787.2636, 14.94444
787.7457, 15.74884
788.2278, 16.67243
788.7100, 17.73951
789.1921, 18.80822
789.6742, 19.42320
790.1563, 19.24323
790.6384, 19.37648
791.1205, 20.14333
791.6026, 20.93123
792.0847, 21.34082
792.5668, 21.57190
793.0490, 22.04545
793.5311, 22.87863
794.0132, 23.68461
794.4953, 24.08999
794.9774, 24.28693
795.4595, 24.53973
795.9417, 24.88049
796.4238, 25.36340
796.9059, 25.99392
797.3880, 26.82382
797.8701, 28.00044
798.3522, 29.49250
798.8344, 30.42719
799.3165, 30.37697
799.7986, 30.55429
800.2807, 31.35476
800.7628, 32.27801
801.2449, 33.21140
801.7271, 33.99171
802.2092, 34.19431
802.6913, 33.46470
803.1734, 32.87391
803.6555, 33.08353
804.1376, 33.60371
804.6198, 34.00742
805.1019, 34.22320
805.5840, 34.26216
806.0661, 34.16031
806.5482, 33.91593
807.0303, 33.26466
807.5125, 32.31417
807.9946, 32.40481
808.4767, 33.82367
808.9588, 34.64696
809.4409, 34.09921
809.9230, 32.92465
810.4052, 31.83492
810.8873, 30.82720
811.3694, 29.83079
811.8515, 28.72849
812.3336, 27.77325
812.8157, 27.00599
813.2979, 26.46082
813.7800, 26.16184
814.2621, 26.07213
814.7442, 26.23221
815.2263, 26.82514
815.7084, 27.12171
816.1906, 25.96010
816.6727, 24.04739
817.1548, 22.80273
817.6369, 22.28644
818.1190, 22.13205
818.6011, 22.20533
819.0833, 22.28846
819.5654, 22.06792
820.0475, 21.53559
820.5296, 20.88668
821.0117, 20.05463
821.4938, 19.22853
821.9760, 18.36561
822.4581, 17.61222
822.9402, 17.14399
823.4223, 16.90492
823.9044, 16.62222
824.3865, 15.97545
824.8687, 15.68805
825.3508, 16.42730
825.8329, 17.35932
826.3150, 17.76424
826.7971, 17.62156
827.2792, 16.98162
827.7614, 15.85308
828.2435, 14.93665
828.7256, 15.43562
829.2077, 16.86731
829.6898, 17.20749
830.1719, 16.40679
830.6541, 15.91641
831.1362, 16.32001
831.6183, 17.05065
832.1004, 17.41462
832.5825, 17.41915
833.0646, 17.79115
833.5468, 18.92770
834.0289, 19.80847
834.5110, 20.01384
834.9931, 20.21699
835.4752, 20.94168
835.9573, 21.99493
836.4395, 22.84149
836.9216, 23.29443
837.4037, 23.70531
837.8858, 24.15875
838.3679, 24.74305
838.8500, 25.49386
839.3322, 26.46251
839.8143, 27.88148
840.2964, 29.78133
840.7785, 31.62037
841.2606, 32.71763
841.7427, 33.28276
842.2249, 34.12037
842.7070, 35.23167
843.1891, 36.43124
843.6712, 37.60853
844.1533, 39.10314
844.6354, 41.44382
845.1176, 44.29739
845.5997, 45.98520
846.0818, 45.06829
846.5639, 45.26308
847.0460, 47.52011
847.5281, 49.82459
848.0103, 51.24216
848.4924, 52.10675
848.9745, 52.96250
849.4566, 53.89625
849.9387, 54.79884
850.4208, 55.64258
850.9030, 56.40294
851.3851, 57.05529
851.8672, 57.61550
852.3493, 58.16137
852.8314, 58.68017
853.3135, 59.05378
853.7957, 59.16673
854.2778, 59.15512
854.7599, 59.25377
855.2420, 59.47745
855.7241, 60.30879
856.2062, 62.03814
856.6884, 63.14538
857.1705, 62.59834
857.6526, 61.15793
858.1347, 60.24370
858.6168, 60.01278
859.0989, 59.60654
859.5811, 58.95137
860.0632, 58.22120
860.5453, 57.87836
861.0274, 57.19260
861.5095, 55.14710
861.9916, 51.99747
862.4738, 49.19869
862.9559, 47.33219
863.4380, 45.74143
863.9201, 44.17559
864.4022, 42.53126
864.8843, 40.64839
865.3665, 38.58669
865.8486, 36.56801
866.3307, 34.70801
866.8128, 33.05281
867.2949, 31.71176
867.7770, 30.55632
868.2592, 28.85637
868.7413, 26.59959
869.2234, 25.09184
869.7055, 24.86464
870.1876, 24.71438
870.6697, 23.43640
871.1519, 21.30110
871.6340, 19.86610
872.1161, 19.61258
872.5981, 19.13671
873.0803, 18.06838
873.5624, 17.11002
874.0445, 16.71418
874.5266, 16.53546
875.0087, 16.03318
875.4908, 15.12475
875.9730, 14.26971
876.4551, 13.73295
876.9372, 13.17822
877.4193, 12.43631
877.9014, 11.53073
878.3835, 10.30584
878.8657, 8.932808
879.3478, 8.060274
879.8299, 8.145569
880.3120, 8.552769
880.7941, 8.386229
881.2762, 7.815279
881.7584, 7.415106
882.2405, 7.207321
882.7226, 6.912117
883.2047, 6.413265
883.6868, 5.732674
884.1689, 4.834877
884.6511, 3.733515
885.1332, 3.259212
885.6153, 3.762838
886.0974, 3.910666
886.5795, 3.172297
887.0616, 2.354305
887.5438, 2.039446
888.0259, 2.126438
888.5080, 2.312309
888.9901, 2.632664
889.4722, 2.956902
889.9543, 3.533302
890.4365, 3.835485
890.9186, 3.446980
891.4007, 2.692142
891.8828, 1.925320
892.3649, 1.240255
892.8470, 0.7010880
893.3292, 0.3434330
893.8113, 0.1398410
894.2934, 7.3063001E-02
894.7755, 0.1703640
895.2576, 0.5675490
895.7397, 1.202831
896.2219, 1.819210
896.7040, 2.290758
897.1861, 2.518724
897.6682, 2.236670
898.1503, 1.521866
898.6324, 1.007713
899.1146, 0.6985440
899.5967, 0.5620920
900.0788, 0.6116870
900.5609, 0.7693210
901.0430, 0.9938110
901.5251, 1.254105
902.0073, 1.349728
902.4894, 1.147524
902.9715, 1.017513
903.4536, 1.069813
903.9357, 1.121298
904.4178, 1.180971
904.9000, 1.132177
905.3821, 0.7250140
905.8642, 7.7642001E-02
906.3463, 0.4315450
906.8284, 0.1893420
907.3105, 0.9142480
907.7927, 1.699638
908.2748, 2.142147
908.7569, 1.580296
909.2390, 1.768255
909.7211, 0.7786790
910.2032, 1.168158
910.6854, 1.191458
911.1675, 1.050430
911.6496, 0.7857150
912.1317, 0.3374880
912.6138, 0.1774390
913.0959, 0.3237290
913.5781, 1.7969999E-03
914.0602, 0.3551690
914.5423, 0.3013740
915.0244, 8.2723998E-02
915.5065, 0.6341150
915.9886, 1.357580
916.4708, 1.641386
916.9529, 1.376795
917.4350, 0.8173660
917.9171, 1.128834
918.3992, 0.8548000
918.8813, 1.236874
919.3635, 1.108280
919.8456, 0.9789410
920.3277, 0.8960290
920.8098, 0.7267100
921.2919, 0.3655180
921.7740, 1.7748000E-02
922.2562, 0.4433090
922.7383, 0.7970010
923.2204, 0.6785450
923.7025, 0.2857330
924.1846, 0.8675620
924.6667, 0.4523450
925.1489, 9.3446001E-02
925.6310, 0.2826750
926.1131, 0.2599210
926.5952, 0.2487970
927.0773, 0.2916720
927.5594, 0.3266080
928.0416, 0.3034840
928.5237, 0.2571610
929.0058, 0.2051390
929.4879, 0.1647280
929.9700, 0.1551660
930.4521, 0.1871780
930.9343, 0.3087060
931.4164, 0.5174270
931.8985, 0.6671300
932.3806, 0.5694060
932.8627, 0.3075870
933.3448, 0.1377870
933.8270, 5.6313999E-02
934.3091, 5.3142998E-02
934.7912, 0.1363730
935.2733, 0.1076260
935.7554, 0.2097180
936.2375, 0.2410717
936.7197, 0.2408444
937.2018, 0.4026170
937.6839, 0.2724610
938.1660, 0.4695940
938.6481, 0.5511430
939.1302, 0.3012510
939.6124, 3.4527000E-02
940.0945, 0.2032220
940.5766, 0.2238570
941.0587, 0.2768530
941.5408, 0.2452130
942.0229, 0.4223590
942.5051, 1.198813
942.9872, 1.772839
943.4693, 1.533565
943.9514, 0.9716590
944.4335, 0.8265230
944.9156, 1.160780
945.3978, 1.326598
945.8799, 0.8074020
946.3620, 0.4267230
946.8441, 0.8760360
947.3262, 1.466675
947.8083, 1.383941
948.2905, 0.8251650
948.7726, 0.5105940
949.2547, 0.7072730
949.7368, 0.9530270
950.2189, 0.7101430
950.7010, 0.4054460
951.1832, 0.7875300
951.6653, 1.540266
952.1474, 1.866769
952.6295, 1.651256
953.1116, 1.260126
953.5938, 0.9112330
954.0759, 0.6243460
954.5580, 0.4161400
955.0400, 0.2954940
955.5222, 0.3145120
956.0043, 0.4744980
956.4864, 0.7924370
956.9685, 1.301621
957.4506, 1.712925
957.9327, 1.734081
958.4149, 1.436418
958.8970, 1.066461
959.3791, 0.5415390
959.8612, 0.4148580
960.3433, 0.9361320
960.8254, 1.259349
961.3076, 0.7890850
961.7897, 0.1888050
962.2718, 0.4851740
962.7539, 1.707056
963.2360, 2.268437
963.7181, 1.596816
964.2003, 1.133675
964.6824, 1.326982
965.1645, 1.449961
965.6466, 0.8727660
966.1287, 7.0619002E-02
966.6108, 9.5294997E-02
967.0930, 0.5070090
967.5751, 1.098154
968.0572, 1.666272
968.5393, 2.045485
969.0214, 2.247883
969.5035, 2.180429
969.9857, 1.452473
970.4678, 0.4182550
970.9499, 1.7488001E-02
971.4320, 0.4722640
971.9141, 1.235715
972.3962, 2.324437
972.8784, 3.149172
973.3605, 2.890789
973.8426, 2.133659
974.3247, 1.873730
974.8068, 2.139774
975.2889, 2.202811
975.7711, 1.608124
976.2532, 0.9325210
976.7353, 1.044989
977.2174, 1.514012
977.6995, 1.409995
978.1816, 0.8768450
978.6638, 0.6173850
979.1459, 0.8087170
979.6280, 1.050629
980.1101, 1.009305
980.5922, 0.7929030
981.0743, 0.5764650
981.5565, 0.3620830
982.0386, 0.2631090
982.5207, 0.3439100
983.0028, 0.5344550
983.4849, 0.7942030
983.9670, 0.9542580
984.4492, 0.7689220
984.9313, 0.3851200
985.4134, 0.6175910
985.8955, 1.613412
986.3776, 2.081762
986.8597, 1.807434
987.3419, 1.287635
987.8240, 0.6170800
988.3061, 9.8001003E-02
988.7882, 0.2073280
989.2703, 0.9406640
989.7524, 1.579557
990.2346, 2.206888
990.7167, 2.546132
991.1988, 2.414617
991.6809, 2.189466
992.1630, 2.071068
992.6451, 2.013128
993.1273, 1.917961
993.6094, 1.760159
994.0915, 1.600628
994.5736, 1.313877
995.0557, 1.278766
995.5378, 1.943729
996.0200, 2.468469
996.5021, 2.089228
996.9842, 1.267306
997.4663, 0.9634250
997.9484, 1.373302
998.4305, 1.658148
998.9127, 1.406552
999.3948, 1.244913
999.8769, 1.758375
1000.359, 2.237269
1000.841, 1.790017
1001.323, 0.7492050
1001.805, 0.2706940
1002.287, 0.7634830
1002.770, 1.353386
1003.252, 1.763923
1003.734, 1.927302
1004.216, 1.430080
1004.698, 0.8844720
1005.180, 1.331882
1005.662, 2.516279
1006.144, 3.129331
1006.627, 2.547813
1007.109, 1.721701
1007.591, 1.303731
1008.073, 1.155612
1008.555, 1.145858
1009.037, 1.284358
1009.519, 1.615257
1010.001, 2.100372
1010.483, 2.620024
1010.966, 3.142098
1011.448, 3.402422
1011.930, 2.834113
1012.412, 1.899434
1012.894, 1.566024
1013.376, 1.693639
1013.858, 1.639317
1014.340, 1.293636
1014.823, 1.126179
1015.305, 1.496431
1015.787, 2.039094
1016.269, 2.023130
1016.751, 1.670598
1017.233, 1.994758
1017.715, 2.902804
1018.197, 3.315727
1018.679, 2.921185
1019.162, 2.281892
1019.644, 1.802428
1020.126, 1.578091
1020.608, 1.924457
1021.090, 1.702473
1021.572, 2.842857
1022.054, 2.125632
1022.536, 1.936183
1023.018, 2.768147
1023.501, 3.620480
1023.983, 3.561279
1024.465, 2.873499
1024.947, 2.424703
1025.429, 2.227454
1025.911, 1.857535
1026.393, 1.203569
1026.875, 0.9085650
1027.358, 1.266500
1027.840, 1.821010
1028.322, 2.118748
1028.804, 2.224623
1029.286, 2.514116
1029.768, 2.394715
1030.250, 3.144821
1030.732, 2.149663
1031.214, 1.382977
1031.697, 1.321957
1032.179, 1.577184
1032.661, 1.837808
1033.143, 2.062691
1033.625, 2.022925
1034.107, 1.555497
1034.589, 1.232863
1035.071, 1.151444
1035.553, 1.032594
1036.036, 0.6237750
1036.518, 0.3167910
1037.000, 0.6387200
1037.482, 1.439865
1037.964, 1.842713
1038.446, 1.588171
1038.928, 1.431402
1039.410, 1.350371
1039.893, 1.399853
1040.375, 1.820849
1040.857, 2.210801
1041.339, 2.092978
1041.821, 1.570815
1042.303, 1.199550
1042.785, 0.8249710
1043.267, 0.9168130
1043.750, 2.164395
1044.232, 3.043197
1044.714, 2.850738
1045.196, 2.177113
1045.678, 1.310380
1046.160, 0.4226320
1046.642, 0.2580950
1047.124, 1.504090
1047.606, 2.095949
1048.089, 0.9404070
1048.571, 5.4807000E-02
1049.053, 0.5935180
1049.535, 1.503911
1050.017, 1.795558
1050.499, 1.511124
1050.981, 1.054496
1051.463, 0.2410000
1051.945, 6.4997002E-02
1052.428, 0.8839300
1052.910, 1.692994
1053.392, 1.617558
1053.874, 1.192379
1054.356, 0.8951740
1054.838, 0.7470800
1055.320, 0.6478410
1055.802, 0.5779810
1056.285, 0.5530890
1056.767, 0.7715120
1057.249, 0.8128090
1057.731, 4.9876001E-02
1058.213, 0.6854930
1058.695, 0.3936940
1059.177, 0.6360690
1059.659, 1.352553
1060.141, 1.426903
1060.624, 1.542290
1061.106, 2.166460
1061.588, 2.594875
1062.070, 2.330727
1062.552, 1.803421
1063.034, 1.344750
1063.516, 1.023641
1063.998, 0.9288940
1064.480, 1.125227
1064.963, 1.187773
1065.445, 0.7219020
1065.927, 0.3565470
1066.409, 0.6158870
1066.891, 0.9705800
1067.373, 0.8363050
1067.855, 0.4114930
1068.337, 0.1227360
1068.820, 0.1320650
1069.302, 0.2762380
1069.784, 0.5487940
1070.266, 0.8608950
1070.748, 1.316830
1071.230, 1.661001
1071.712, 1.601360
1072.194, 1.264428
1072.677, 0.8485700
1073.159, 0.4115160
1073.641, 0.3290950
1074.123, 1.151355
1074.605, 1.875565
1075.087, 1.853134
1075.569, 1.638992
1076.051, 1.753445
1076.533, 2.044182
1077.016, 2.096561
1077.498, 1.865425
1077.980, 1.621193
1078.462, 1.513471
1078.944, 1.363657
1079.426, 0.9490620
1079.908, 0.5890390
1080.390, 0.6040550
1080.872, 0.8196840
1081.354, 0.8853430
1081.837, 0.7966220
1082.319, 0.9569490
1082.801, 1.681651
1083.283, 2.362249
1083.765, 2.917240
1084.247, 3.113302
1084.729, 2.574057
1085.211, 1.695703
1085.694, 0.7835680
1086.176, 3.4818999E-02
1086.658, 3.3670001E-02
1087.140, 1.343680
1087.622, 2.359325
1088.104, 2.214767
1088.586, 1.782308
1089.068, 1.494762
1089.551, 1.315307
1090.033, 1.217529
1090.515, 1.153326
1090.997, 0.9676890
1091.479, 0.5397870
1091.961, 0.3512980
1092.443, 0.8163420
1092.925, 1.282632
1093.407, 1.393404
1093.890, 1.355860
1094.372, 1.360562
1094.854, 1.401903
1095.336, 1.403038
1095.818, 1.342772
1096.300, 1.300902
1096.782, 1.311443
1097.264, 1.333589
1097.746, 1.393806
1098.229, 1.418964
1098.711, 1.330757
1099.193, 1.173973
1099.675, 1.002907
1100.157, 0.8263700
1100.639, 0.7810060
1101.121, 1.163856
1101.603, 1.305868
1102.086, 0.6713520
1102.568, 0.1326360
1103.050, 0.4659170
1103.532, -2.5221353E-02
1104.014, 0.9094790
1104.496, 3.8144998E-02
1104.978, 0.2221640
1105.460, 0.9749770
1105.943, 1.736849
1106.425, 1.506480
1106.907, 1.102370
1107.389, 0.7860020
1107.871, 0.5508980
1108.353, 0.3838250
1108.835, 0.2800360
1109.317, 0.2103820
1109.799, 7.5781003E-02
1110.281, 0.2155640
1110.764, 0.9574220
1111.246, 1.567190
1111.728, 1.844485
1112.210, 1.907026
1112.692, 1.844066
1113.174, 1.637010
1113.656, 1.126040
1114.138, 7.8275003E-02
1114.621, 0.1788130
1115.103, 1.251221
1115.585, 1.981011
1116.067, 1.175170
1116.549, 0.1613690
1117.031, 0.4839310
1117.513, 0.7852940
1117.995, 0.6747020
1118.478, 0.1455970
1118.960, 0.1304640
1119.442, 3.0483000E-02
1119.924, 9.0220002E-03
1120.406, 0.2831090
1120.888, 0.7285320
1121.370, 1.500544
1121.852, 2.022614
1122.334, 1.446751
1122.817, 1.764807
1123.299, 1.578171
1123.781, 0.9420500
1124.263, 1.140009
1124.745, 0.1544120
1125.227, 0.6673360
1125.709, 0.5362090
1126.191, 1.925924
1126.673, 2.203894
1127.156, 1.834378
1127.638, 2.005754
1128.120, 2.751684
1128.602, 2.888775
1129.084, 2.342162
1129.566, 1.969097
1130.048, 1.965877
1130.530, 1.922684
1131.013, 1.491676
1131.495, 1.132669
1131.977, 1.668689
1132.459, 0.9090579
1132.941, 2.246572
1133.423, 0.3630670
1133.905, 0.2150140
1134.387, 0.7479770
1134.870, 1.598280
1135.352, 1.688534
1135.834, 1.465830
1136.316, 1.309821
1136.798, 1.256986
1137.280, 1.499218
1137.762, 1.895852
1138.244, 1.916128
1138.726, 1.596664
1139.208, 1.131988
1139.691, 0.6371560
1140.173, 0.6138030
1140.655, 1.445449
1141.137, 2.256605
1141.619, 1.591158
1142.101, 0.3847530
1142.583, 0.4553600
1143.065, 1.262732
1143.548, 1.570149
1144.030, 1.302610
1144.512, 0.8940740
1144.994, 0.5339450
1145.476, 0.4628940
1145.958, 1.147960
1146.440, 1.857586
1146.922, 1.757124
1147.405, 1.357005
1147.887, 1.142167
1148.369, 1.103145
1148.851, 1.017457
1149.333, 0.8532070
1149.815, 0.7436920
1150.297, 0.7489700
1150.779, 0.8285050
1151.261, 1.073614
1151.744, 1.261312
1152.226, 1.153022
1152.708, 0.9431280
1153.190, 0.8269090
1153.672, 0.8319440
1154.154, 1.003674
1154.636, 1.410575
1155.118, 1.570649
1155.600, 0.9963280
1156.083, 0.6282520
1156.565, 1.011769
1157.047, 1.486103
1157.529, 1.668534
1158.011, 1.591413
1158.493, 1.265947
1158.975, 0.7038220
1159.457, 0.3019630
1159.940, 8.0113001E-02
1160.422, 7.0570000E-03
1160.904, 1.116160
1161.386, 1.920972
1161.868, 1.771358
1162.350, 1.311841
1162.832, 1.047682
1163.314, 0.9771920
1163.796, 1.009863
1164.279, 1.124250
1164.761, 1.531658
1165.243, 2.443396
1165.725, 2.854420
1166.207, 2.446886
1166.689, 1.941610
1167.171, 1.742786
1167.653, 1.685193
1168.135, 1.500572
1168.618, 1.266049
1169.100, 1.570757
1169.582, 2.398209
1170.064, 2.478933
1170.546, 1.721467
1171.028, 0.9157130
1171.510, 0.3241180
1171.992, 2.8156999E-02
1172.474, 0.1068710
1172.957, 0.4249790
1173.439, 0.7642870
1173.921, 1.097197
1174.403, 1.413572
1174.885, 1.616800
1175.367, 1.391646
1175.849, 0.8146590
1176.331, 0.3617280
1176.814, 0.2064740
1177.296, 0.3100760
1177.778, 0.7880950
1178.260, 1.324238
1178.742, 1.625301
1179.224, 1.698238
1179.706, 1.360533
1180.188, 0.8818490
1180.671, 0.8571170
1181.153, 1.298447
1181.635, 1.610302
1182.117, 1.476626
1182.599, 1.383968
1183.081, 1.704033
1183.563, 2.043870
1184.045, 2.142250
1184.527, 2.015409
1185.010, 1.519885
1185.492, 0.8786240
1185.974, 0.6457840
1186.456, 0.9309090
1186.938, 0.9290660
1187.420, 3.1931002E-02
1187.902, 0.4325130
1188.384, 0.1045640
1188.866, 0.6767630
1189.349, 0.9511840
1189.831, 0.9764670
1190.313, 0.6968470
1190.795, 0.2249360
1191.277, 8.7970002E-03
1191.759, 4.2576000E-02
1192.241, 0.3612400
1192.723, 1.436065
1193.206, 1.992815
1193.688, 1.650293
1194.170, 1.337028
1194.652, 1.652246
1195.134, 2.053026
1195.616, 1.718743
1196.098, 0.8724320
1196.580, 0.3793750
1197.063, 0.2510120
1197.545, 0.8048940
1198.027, 1.934282
1198.509, 2.398266
1198.991, 1.891227
1199.473, 1.316108
1199.955, 1.285403
1200.437, 1.539495
1200.919, 1.846956
1201.401, 2.129968
1201.884, 2.266341
1202.366, 2.269910
1202.848, 2.242353
1203.330, 2.105230
1203.812, 1.399154
1204.294, 3.3410002E-02
1204.776, 0.5501050
1205.258, 1.023303
1205.741, 2.496534
1206.223, 2.253170
1206.705, 1.557482
1207.187, 1.240045
1207.669, 1.068563
1208.151, 0.6730560
1208.633, 0.1652650
1209.115, 2.5512001E-02
1209.598, 0.4091880
1210.080, 0.7171160
1210.562, 0.9203010
1211.044, 0.9555710
1211.526, 0.5630640
1212.008, 0.3032000
1212.490, 0.5118920
1212.972, 0.9066450
1213.454, 1.225400
1213.937, 1.427644
1214.419, 1.236480
1214.901, 0.4585780
1215.383, 0.4012090
1215.865, 0.2850278
1216.347, 3.7011325E-02
1216.829, 0.2967970
1217.311, 0.4151560
1217.793, 0.2875460
1218.276, 1.510242
1218.758, 2.067842
1219.240, 2.166689
1219.722, 2.406008
1220.204, 2.710076
1220.686, 2.822139
1221.168, 2.735806
1221.650, 2.479506
1222.133, 2.089394
1222.615, 1.664366
1223.097, 1.235710
1223.579, 1.007220
1224.061, 1.385573
1224.543, 1.817170
1225.025, 1.599525
1225.507, 1.254275
1225.990, 1.542383
1226.472, 2.146630
1226.954, 2.289448
1227.436, 1.892185
1227.918, 1.617537
1228.400, 1.683575
1228.882, 1.769398
1229.364, 1.711876
1229.846, 1.798874
1230.328, 2.516359
1230.811, 3.032701
1231.293, 2.520192
1231.775, 1.522614
1232.257, 1.007658
1232.739, 0.9739560
1233.221, 1.274065
1233.703, 2.098378
1234.185, 2.302971
1234.668, 1.628284
1235.150, 1.431474
1235.632, 2.229003
1236.114, 2.978425
1236.596, 2.803623
1237.078, 3.114715
1237.560, 2.319334
1238.042, 2.659039
1238.525, 2.230834
1239.007, 1.371658
1239.489, 1.232441
1239.971, 1.684676
1240.453, 1.570518
1240.935, 0.6836810
1241.417, 0.3816280
1241.899, 1.748405
1242.381, 3.090046
1242.864, 2.960880
1243.346, 2.361341
1243.828, 1.856745
1244.310, 1.565388
1244.792, 1.639955
1245.274, 1.922701
1245.756, 2.333005
1246.238, 2.782880
1246.720, 3.046150
1247.203, 3.249300
1247.685, 2.972144
1248.167, 1.427005
1248.649, 0.6072350
1249.131, 1.662856
1249.613, 2.737847
1250.095, 2.298192
1250.577, 1.124723
1251.059, 0.7280070
1251.542, 0.9989610
1252.024, 1.485027
1252.506, 2.126390
1252.988, 2.516293
1253.470, 2.618564
1253.952, 2.453396
1254.434, 2.049432
1254.916, 1.693457
1255.399, 1.598337
1255.881, 1.550086
1256.363, 1.157676
1256.845, 0.7558770
1257.327, 0.9627350
1257.809, 0.8049550
1258.291, 1.434646
1258.773, 1.231554
1259.255, 1.508447
1259.738, 2.243185
1260.220, 2.230521
1260.702, 0.4799650
1261.184, 0.4729830
1261.666, 0.7415340
1262.148, 2.152058
1262.630, 3.761419
1263.112, 4.443729
1263.594, 2.470577
1264.077, 0.1406090
1264.559, 0.1984130
1265.041, 1.889544
1265.523, 2.549637
1266.005, 1.434542
1266.487, 0.9959730
1266.969, 1.396286
1267.451, 1.406581
1267.934, 0.7092400
1268.416, 0.4718110
1268.898, 1.387978
1269.380, 2.451830
1269.862, 2.432043
1270.344, 1.875584
1270.826, 1.736592
1271.308, 1.813014
1271.791, 1.699375
1272.273, 1.509291
1272.755, 1.526225
1273.237, 1.562566
1273.719, 1.907495
1274.201, 2.338876
1274.683, 2.611860
1275.165, 3.063254
1275.647, 3.162417
1276.130, 2.024278
1276.612, 0.8771460
1277.094, 0.4403630
1277.576, 0.3868960
1278.058, 0.3089950
1278.540, 0.2626030
1279.022, 0.4413160
1279.504, 0.8937070
1279.986, 1.121996
1280.469, 1.126887
1280.951, 0.9744050
1281.433, 0.6231530
1281.915, 0.2573790
1282.397, 8.0019999E-03
1282.879, 1.0509000E-02
1283.361, 0.3151530
1283.843, 0.5608270
1284.326, 0.3313690
1284.808, 0.0000000E+00
##END=



