##NAMES=Chloritoid
##RRUFFID=R060292
##IDEAL CHEMISTRY=Fe^2+^Al_2_OSiO_4_(OH)_2_
##LOCALITY=Pech, Kunar Province, Afghanistan
##OWNER=RRUFF
##SOURCE=Herb Obodda
##DESCRIPTION=Black tabular crystal
##STATUS=The identification of this mineral has been confirmed by X-ray diffraction and chemical analysis
##URL=rruff.info/R060292
##MEASURED CHEMISTRY=(Fe^2+^_1.55_Mg_0.43_Mn_0.02_)_Σ=2_(Al_3.93_Fe^3+^_0.07_)_Σ=4_Si_2.00_O_10_(OH)_4_
126.6509, 0.0000000E+00
127.1331, 0.1508370
127.6152, 2.910474
128.0973, 5.356383
128.5794, 4.394897
129.0615, 1.528286
129.5436, 0.3019940
130.0258, 1.165593
130.5079, 3.045539
130.9900, 3.031444
131.4721, 2.464028
131.9542, 0.5152160
132.4363, 0.7425990
132.9185, 2.801847
133.4006, 4.329663
133.8827, 4.659484
134.3648, 3.975094
134.8469, 2.706759
135.3290, 0.6698880
135.8112, 1.148415
136.2933, 1.293759
136.7754, 0.3610630
137.2575, 1.670654
137.7396, 1.638668
138.2217, 0.3148770
138.7039, 6.1974999E-02
139.1860, 1.211853
139.6681, 2.912189
140.1502, 3.854811
140.6323, 3.823782
141.1144, 3.706764
141.5966, 3.806263
142.0787, 4.124853
142.5608, 4.631266
143.0429, 5.291952
143.5250, 6.153370
144.0071, 7.464977
144.4893, 9.797878
144.9714, 11.62675
145.4535, 12.06915
145.9356, 9.894775
146.4177, 8.866045
146.8998, 9.660620
147.3820, 11.71772
147.8641, 12.71427
148.3462, 11.71925
148.8283, 10.52249
149.3104, 10.06141
149.7925, 10.61339
150.2747, 11.55272
150.7568, 12.95901
151.2389, 14.79340
151.7210, 16.60507
152.2031, 19.24162
152.6852, 21.32673
153.1674, 22.03325
153.6495, 18.62777
154.1316, 16.64999
154.6137, 17.50239
155.0958, 21.25599
155.5779, 24.41092
156.0601, 26.55913
156.5422, 27.94592
157.0243, 28.74701
157.5064, 28.67324
157.9885, 28.31616
158.4706, 27.59136
158.9528, 26.39134
159.4349, 25.83884
159.9170, 26.88104
160.3991, 28.52725
160.8812, 29.63463
161.3633, 29.25912
161.8455, 28.76905
162.3276, 28.91024
162.8097, 29.94604
163.2918, 30.60706
163.7739, 29.64172
164.2560, 27.99228
164.7382, 26.83993
165.2203, 27.67636
165.7024, 29.30673
166.1845, 31.27300
166.6666, 34.01848
167.1487, 35.48277
167.6309, 32.77765
168.1130, 27.94382
168.5951, 25.34087
169.0772, 29.59489
169.5593, 35.49803
170.0414, 38.39568
170.5236, 36.59745
171.0057, 33.87865
171.4878, 32.84042
171.9699, 33.08732
172.4520, 33.44564
172.9341, 33.09249
173.4163, 32.53775
173.8984, 32.43624
174.3805, 33.15685
174.8626, 33.98416
175.3447, 34.56731
175.8268, 34.81656
176.3090, 34.27641
176.7911, 31.49517
177.2732, 27.92285
177.7553, 26.06847
178.2374, 27.33324
178.7195, 29.69701
179.2017, 30.71143
179.6838, 30.47045
180.1659, 29.69242
180.6480, 28.34299
181.1301, 26.86269
181.6122, 26.36169
182.0944, 27.81494
182.5765, 29.92937
183.0586, 30.49830
183.5407, 29.52732
184.0228, 27.93085
184.5049, 25.90485
184.9871, 23.78012
185.4692, 22.64966
185.9513, 23.37898
186.4334, 25.11311
186.9155, 25.76596
187.3976, 25.25937
187.8798, 24.50147
188.3619, 24.46361
188.8440, 25.03737
189.3261, 25.49603
189.8082, 25.51494
190.2903, 25.25749
190.7725, 25.37179
191.2546, 25.97761
191.7367, 26.33709
192.2188, 25.28680
192.7009, 22.90868
193.1830, 20.88537
193.6652, 19.87283
194.1473, 19.77023
194.6294, 19.81390
195.1115, 19.99696
195.5936, 20.09185
196.0757, 19.42889
196.5579, 17.94937
197.0400, 17.37481
197.5221, 19.25552
198.0042, 23.29065
198.4863, 24.47602
198.9684, 22.15812
199.4506, 18.41782
199.9327, 16.22494
200.4148, 15.65167
200.8969, 15.78364
201.3790, 16.64405
201.8611, 18.30243
202.3433, 18.70564
202.8254, 17.37896
203.3075, 15.53132
203.7896, 15.43082
204.2717, 17.41642
204.7538, 19.39559
205.2360, 20.49615
205.7181, 20.64941
206.2002, 20.53545
206.6823, 20.09910
207.1644, 19.46290
207.6465, 18.87273
208.1287, 18.38302
208.6108, 17.76717
209.0929, 16.75945
209.5750, 15.14782
210.0571, 14.37720
210.5392, 14.74801
211.0214, 15.68607
211.5035, 15.97733
211.9856, 15.45098
212.4677, 14.75081
212.9498, 14.06319
213.4319, 13.28022
213.9141, 13.04130
214.3962, 13.58546
214.8783, 14.52600
215.3604, 14.97494
215.8425, 14.87519
216.3246, 14.42698
216.8067, 13.59355
217.2889, 12.12694
217.7710, 11.16436
218.2531, 10.85017
218.7352, 10.98080
219.2173, 11.05943
219.6994, 11.00469
220.1816, 11.05371
220.6637, 11.51531
221.1458, 12.98876
221.6279, 12.98885
222.1100, 10.65712
222.5921, 7.161011
223.0743, 5.735832
223.5564, 7.636818
224.0385, 9.419121
224.5206, 9.259644
225.0027, 6.030457
225.4848, 3.962021
225.9670, 3.551468
226.4491, 4.207932
226.9312, 4.387550
227.4133, 3.877434
227.8954, 3.230316
228.3775, 2.658096
228.8597, 2.026474
229.3418, 1.801842
229.8239, 2.150017
230.3060, 2.862648
230.7881, 3.327888
231.2702, 3.360596
231.7524, 3.433655
232.2345, 3.774544
232.7166, 4.543716
233.1987, 5.260368
233.6808, 6.141281
234.1629, 6.911453
234.6451, 6.716026
235.1272, 4.813171
235.6093, 3.054054
236.0914, 2.340828
236.5735, 3.349892
237.0556, 3.847565
237.5378, 3.636368
238.0199, 2.975693
238.5020, 2.492851
238.9841, 2.143509
239.4662, 2.034203
239.9483, 2.327438
240.4305, 3.550278
240.9126, 3.857391
241.3947, 2.697708
241.8768, 0.7930760
242.3589, 2.7961999E-02
242.8410, 0.7722320
243.3232, 1.825508
243.8053, 2.631676
244.2874, 3.340492
244.7695, 3.370361
245.2516, 2.289970
245.7337, 0.7004850
246.2159, 5.7296999E-02
246.6980, 0.2256770
247.1801, 1.019165
247.6622, 2.281258
248.1443, 4.488152
248.6264, 5.827026
249.1086, 6.175781
249.5907, 5.734253
250.0728, 4.684944
250.5549, 2.059250
251.0370, 0.4731900
251.5191, 1.417610
252.0013, 6.369942
252.4834, 8.738724
252.9655, 7.458733
253.4476, 4.218964
253.9297, 2.084831
254.4118, 1.412331
254.8940, 1.438049
255.3761, 1.958801
255.8582, 3.110962
256.3403, 4.007996
256.8224, 4.832909
257.3046, 5.250862
257.7867, 4.532158
258.2688, 2.037926
258.7509, 6.9420002E-02
259.2330, 1.129066
259.7151, 1.076187
260.1973, 0.6015170
260.6794, 0.6207730
261.1615, 2.025978
261.6436, 2.567459
262.1257, 1.660919
262.6078, 1.457436
263.0900, 2.997711
263.5721, 6.637505
264.0542, 8.250229
264.5363, 6.997917
265.0184, 4.774117
265.5005, 4.067169
265.9827, 5.390800
266.4648, 6.754860
266.9469, 7.591682
267.4290, 7.879974
267.9111, 8.195686
268.3932, 8.461494
268.8754, 8.870842
269.3575, 9.735100
269.8396, 11.24245
270.3217, 12.54135
270.8038, 13.38131
271.2859, 13.79371
271.7681, 14.25754
272.2502, 14.82702
272.7323, 15.33749
273.2144, 15.47362
273.6965, 15.08347
274.1786, 15.16110
274.6608, 16.04311
275.1429, 17.60469
275.6250, 18.97337
276.1071, 20.11826
276.5892, 21.15676
277.0714, 22.04040
277.5535, 22.70826
278.0356, 23.81698
278.5177, 25.51984
278.9998, 27.74720
279.4819, 30.31256
279.9641, 33.32919
280.4462, 36.32174
280.9283, 39.08296
281.4104, 41.60638
281.8925, 43.33987
282.3746, 43.92873
282.8568, 43.87857
283.3389, 44.83227
283.8210, 46.94574
284.3031, 48.85256
284.7852, 49.76265
285.2673, 49.66467
285.7495, 48.38704
286.2316, 45.57948
286.7137, 42.04897
287.1958, 39.74786
287.6779, 38.72881
288.1600, 37.26846
288.6422, 33.71276
289.1243, 28.43746
289.6064, 24.48138
290.0885, 22.19730
290.5706, 20.89297
291.0527, 19.54829
291.5349, 18.17995
292.0170, 17.01694
292.4991, 16.50859
292.9812, 16.36204
293.4633, 15.27703
293.9454, 12.95372
294.4276, 10.65131
294.9097, 10.36367
295.3918, 11.74406
295.8739, 12.98644
296.3560, 12.98297
296.8381, 12.23691
297.3203, 11.99448
297.8024, 12.33154
298.2845, 12.70346
298.7666, 12.37591
299.2487, 11.58141
299.7308, 11.02993
300.2130, 11.46928
300.6951, 12.15887
301.1772, 11.49104
301.6593, 9.475082
302.1414, 7.855026
302.6235, 8.852547
303.1057, 11.33439
303.5878, 12.98985
304.0699, 12.76098
304.5520, 11.57952
305.0341, 10.20474
305.5162, 8.698334
305.9984, 7.538261
306.4805, 7.362938
306.9626, 7.681465
307.4447, 7.843414
307.9268, 7.774002
308.4089, 7.354721
308.8911, 6.293488
309.3732, 4.722939
309.8553, 3.191200
310.3374, 2.156708
310.8195, 1.253960
311.3016, 2.8847000E-02
311.7838, 1.936707
312.2659, 3.541351
312.7480, 3.905029
313.2301, 3.322899
313.7122, 2.544052
314.1943, 1.393341
314.6765, 0.4978180
315.1586, 0.5034030
315.6407, 1.853180
316.1228, 2.848412
316.6049, 2.333290
317.0870, 0.9864040
317.5692, 0.1089550
318.0513, 0.6078110
318.5334, 0.7462620
319.0155, 0.4604110
319.4976, 0.3558500
319.9797, 0.8438340
320.4619, 0.5413820
320.9440, 0.1731410
321.4261, 0.8711550
321.9082, 1.784180
322.3903, 2.349197
322.8724, 2.164268
323.3546, 1.205696
323.8367, 0.6501080
324.3188, 0.6426010
324.8009, 1.129509
325.2830, 2.110664
325.7651, 4.424553
326.2473, 6.432861
326.7294, 7.819046
327.2115, 8.647919
327.6936, 9.445457
328.1757, 10.10664
328.6578, 10.83427
329.1400, 11.73106
329.6221, 12.82298
330.1042, 14.03634
330.5863, 15.43675
331.0684, 16.96503
331.5505, 18.43417
332.0327, 19.98397
332.5148, 21.31979
332.9969, 22.26802
333.4790, 22.55127
333.9611, 23.23052
334.4432, 24.82961
334.9254, 26.52199
335.4075, 26.81727
335.8896, 25.20237
336.3717, 23.23384
336.8538, 21.45663
337.3359, 19.92677
337.8180, 17.71284
338.3001, 14.54125
338.7823, 11.11286
339.2644, 8.199409
339.7465, 5.772888
340.2286, 3.906807
340.7107, 2.696899
341.1928, 2.078613
341.6750, 1.685463
342.1571, 1.476257
342.6392, 1.607437
343.1213, 2.488991
343.6034, 4.133972
344.0855, 5.045113
344.5677, 4.705421
345.0498, 3.760567
345.5319, 3.932236
346.0140, 5.258507
346.4961, 6.616386
346.9782, 7.345245
347.4604, 7.506142
347.9425, 7.297272
348.4246, 6.667793
348.9067, 5.879456
349.3888, 5.281281
349.8709, 4.852135
350.3531, 4.471420
350.8352, 3.776314
351.3173, 3.155083
351.7994, 3.698463
352.2815, 5.552971
352.7636, 7.205887
353.2458, 6.873222
353.7279, 5.251205
354.2100, 3.839874
354.6921, 3.193008
355.1742, 3.042336
355.6563, 3.014786
356.1385, 3.150757
356.6206, 3.840057
357.1027, 6.288269
357.5848, 9.093147
358.0669, 10.51666
358.5490, 9.241280
359.0312, 7.758774
359.5133, 7.780624
359.9954, 8.908058
360.4775, 9.895683
360.9596, 9.968079
361.4417, 9.811043
361.9239, 9.865669
362.4060, 10.19678
362.8881, 10.75165
363.3702, 11.75251
363.8523, 12.91905
364.3344, 13.82168
364.8166, 14.38577
365.2987, 14.62688
365.7808, 14.32108
366.2629, 13.33486
366.7450, 12.92470
367.2271, 13.96189
367.7093, 15.32942
368.1914, 16.04559
368.6735, 15.25957
369.1556, 14.65646
369.6377, 14.78944
370.1198, 15.47921
370.6020, 15.00439
371.0841, 12.34721
371.5662, 9.572426
372.0483, 7.797668
372.5304, 7.244225
373.0125, 7.231636
373.4947, 8.166626
373.9768, 9.417938
374.4589, 9.415695
374.9410, 7.595688
375.4231, 5.762848
375.9052, 4.553619
376.3874, 4.050117
376.8695, 3.732704
377.3516, 3.399666
377.8337, 3.127052
378.3158, 3.136177
378.7979, 3.513916
379.2801, 3.732140
379.7622, 3.656670
380.2443, 3.249603
380.7264, 2.258339
381.2085, 0.5556410
381.6906, 0.6966710
382.1728, 0.1621550
382.6549, 1.857697
383.1370, 3.468361
383.6191, 4.375305
384.1012, 4.754295
384.5833, 4.658485
385.0655, 4.154739
385.5476, 3.842567
386.0297, 4.244713
386.5118, 5.077484
386.9939, 5.843941
387.4760, 6.493408
387.9582, 6.873787
388.4403, 6.702644
388.9224, 6.147865
389.4045, 5.592316
389.8866, 4.827393
390.3687, 4.417946
390.8509, 5.052711
391.3330, 6.636200
391.8151, 8.231903
392.2972, 9.837440
392.7793, 10.89062
393.2614, 10.72353
393.7436, 7.922241
394.2257, 5.717354
394.7078, 5.888588
395.1899, 7.776871
395.6720, 9.567841
396.1541, 11.24107
396.6363, 12.17927
397.1184, 11.90480
397.6005, 9.914856
398.0826, 8.207512
398.5647, 6.554550
399.0468, 5.551601
399.5290, 5.822563
400.0111, 9.651115
400.4932, 12.44927
400.9753, 13.09319
401.4574, 11.58865
401.9395, 10.41677
402.4217, 9.374222
402.9038, 8.863949
403.3859, 9.296791
403.8680, 11.36324
404.3501, 12.74652
404.8322, 13.25404
405.3144, 12.99236
405.7965, 11.85445
406.2786, 9.233894
406.7607, 7.732006
407.2428, 9.210258
407.7249, 13.82283
408.2071, 16.18731
408.6892, 15.89665
409.1713, 14.61083
409.6534, 14.28717
410.1355, 14.89416
410.6176, 15.69775
411.0998, 16.39127
411.5819, 17.20372
412.0640, 18.93662
412.5461, 21.53666
413.0282, 24.01479
413.5103, 25.39752
413.9925, 26.11044
414.4746, 27.13188
414.9567, 28.77090
415.4388, 30.30680
415.9209, 30.81881
416.4030, 30.63457
416.8852, 30.58167
417.3673, 31.66399
417.8494, 32.66365
418.3315, 32.38937
418.8136, 30.76284
419.2957, 29.02486
419.7779, 28.07952
420.2600, 27.28757
420.7421, 26.02670
421.2242, 24.05480
421.7063, 21.64062
422.1884, 18.30395
422.6706, 14.44847
423.1527, 11.46620
423.6348, 10.23136
424.1169, 9.535072
424.5990, 8.728722
425.0811, 7.256611
425.5633, 6.893894
426.0454, 8.807693
426.5275, 11.38322
427.0096, 12.53724
427.4917, 11.15905
427.9738, 10.05785
428.4560, 10.09927
428.9381, 11.18400
429.4202, 10.91271
429.9023, 8.744434
430.3844, 6.230980
430.8665, 4.423611
431.3487, 3.346870
431.8308, 2.972065
432.3129, 3.612206
432.7950, 4.537617
433.2771, 3.764290
433.7592, 1.196865
434.2414, 0.4855920
434.7235, 0.9008450
435.2056, 4.308723
435.6877, 5.180496
436.1698, 3.362175
436.6519, 0.9304920
437.1341, 0.1273770
437.6162, 0.1614230
438.0983, 0.1059610
438.5804, 0.2181660
439.0625, 0.3608670
439.5446, 0.3525890
440.0268, 0.1513860
440.5089, 7.8018002E-02
440.9910, 7.1952999E-02
441.4731, 4.1721001E-02
441.9552, 0.2760390
442.4373, 0.8996470
442.9195, 1.250050
443.4016, 0.7290730
443.8837, 0.1703990
444.3658, 0.8494380
444.8479, 1.038807
445.3300, 1.074772
445.8122, 0.9555170
446.2943, 0.7202610
446.7764, 0.6710590
447.2585, 1.080791
447.7406, 1.512043
448.2227, 1.759010
448.7049, 1.839565
449.1870, 1.693066
449.6691, 1.255692
450.1512, 0.6226880
450.6333, 0.1200750
451.1154, 1.253117
451.5976, 1.873791
452.0797, 1.500187
452.5618, 0.2448430
453.0439, 5.5679001E-02
453.5260, 0.8875390
454.0081, 1.898407
454.4903, 1.966125
454.9724, 1.104378
455.4545, 0.1649630
455.9366, 0.9634480
456.4187, 1.670300
456.9008, 0.3149380
457.3830, 2.809093
457.8651, 5.264973
458.3472, 5.578594
458.8293, 4.595783
459.3114, 3.501266
459.7935, 2.330933
460.2757, 1.829582
460.7578, 3.393387
461.2399, 5.767712
461.7220, 7.130562
462.2041, 6.537216
462.6862, 5.658657
463.1684, 5.613655
463.6505, 6.110836
464.1326, 6.477104
464.6147, 5.966793
465.0968, 5.649075
465.5789, 6.197010
466.0611, 7.778168
466.5432, 9.237167
467.0253, 11.15426
467.5074, 12.40840
467.9895, 12.03308
468.4716, 6.802418
468.9538, 4.050133
469.4359, 5.350216
469.9180, 9.415844
470.4001, 12.16392
470.8822, 13.03221
471.3643, 13.54770
471.8465, 14.36763
472.3286, 15.57015
472.8107, 16.19361
473.2928, 16.08161
473.7749, 15.76266
474.2570, 15.63547
474.7392, 15.70358
475.2213, 16.66150
475.7034, 19.20189
476.1855, 22.06052
476.6676, 22.20386
477.1497, 19.88631
477.6319, 17.54130
478.1140, 16.51337
478.5961, 16.42410
479.0782, 16.77982
479.5603, 17.57297
480.0424, 18.43431
480.5246, 19.32130
481.0067, 20.01727
481.4888, 20.19940
481.9709, 19.22614
482.4530, 18.33289
482.9352, 18.16691
483.4173, 18.60078
483.8994, 19.23199
484.3815, 20.53008
484.8636, 21.50040
485.3457, 21.56411
485.8279, 20.42548
486.3100, 19.37186
486.7921, 18.24400
487.2742, 17.39788
487.7563, 17.15704
488.2384, 17.73711
488.7206, 18.62178
489.2027, 20.10924
489.6848, 21.80298
490.1669, 22.06241
490.6490, 20.41424
491.1311, 18.74556
491.6133, 17.82557
492.0954, 17.60005
492.5775, 18.31602
493.0596, 20.15242
493.5417, 21.97663
494.0238, 22.40731
494.5060, 21.68700
494.9881, 20.95739
495.4702, 20.22667
495.9523, 20.19801
496.4344, 22.58241
496.9165, 26.74183
497.3987, 30.28316
497.8808, 31.60932
498.3629, 31.88509
498.8450, 32.04361
499.3271, 32.14746
499.8092, 32.44605
500.2914, 33.43582
500.7735, 34.50195
501.2556, 35.08279
501.7377, 35.01889
502.2198, 34.40973
502.7019, 33.14399
503.1841, 31.37646
503.6662, 29.51387
504.1483, 27.61424
504.6304, 25.55421
505.1125, 23.09763
505.5946, 20.14194
506.0768, 18.16568
506.5589, 17.76736
507.0410, 17.52158
507.5231, 16.03580
508.0052, 13.00158
508.4873, 10.98405
508.9695, 10.51157
509.4516, 10.83471
509.9337, 10.53561
510.4158, 9.581871
510.8979, 8.557495
511.3800, 7.766716
511.8622, 7.080353
512.3443, 6.140556
512.8264, 4.966743
513.3085, 3.938515
513.7906, 3.355118
514.2728, 3.065720
514.7549, 3.066185
515.2370, 3.470795
515.7191, 3.575455
516.2012, 2.523521
516.6833, 1.011765
517.1655, 9.4025001E-02
517.6476, 0.3000260
518.1297, 0.9660260
518.6118, 2.383484
519.0939, 4.381233
519.5760, 5.210266
520.0582, 3.424042
520.5403, 1.473747
521.0224, 0.4061580
521.5045, 0.4916000
521.9866, 0.6414790
522.4688, 0.7930830
522.9509, 1.078011
523.4330, 1.701004
523.9151, 2.717285
524.3972, 3.771202
524.8793, 4.784050
525.3615, 5.775986
525.8436, 6.809547
526.3257, 7.889282
526.8078, 9.007133
527.2899, 10.28236
527.7720, 11.58722
528.2542, 12.59486
528.7363, 13.28436
529.2184, 13.83271
529.7005, 14.28581
530.1826, 14.71310
530.6647, 15.27736
531.1469, 16.41298
531.6290, 17.03102
532.1111, 16.01392
532.5932, 14.07018
533.0753, 12.64927
533.5574, 12.96246
534.0396, 13.09549
534.5217, 12.29612
535.0038, 10.48906
535.4859, 8.697105
535.9680, 6.654282
536.4501, 4.932816
536.9323, 3.984436
537.4144, 4.330383
537.8965, 3.809410
538.3786, 1.870705
538.8607, 0.2507320
539.3428, 0.3924030
539.8250, 1.611954
540.3071, 3.316689
540.7892, 3.964478
541.2713, 3.905342
541.7534, 3.967377
542.2355, 4.120789
542.7177, 4.044159
543.1998, 3.219444
543.6819, 2.147736
544.1640, 1.374237
544.6461, 0.8997340
545.1282, 1.425087
545.6104, 4.552406
546.0925, 8.501488
546.5746, 11.25527
547.0567, 11.65493
547.5388, 11.63296
548.0209, 11.12933
548.5031, 10.68376
548.9852, 11.46843
549.4673, 15.19453
549.9494, 18.54447
550.4315, 20.38380
550.9136, 20.72300
551.3958, 22.16817
551.8779, 25.08759
552.3600, 28.50176
552.8421, 32.15881
553.3242, 36.23702
553.8063, 38.70227
554.2885, 39.21423
554.7706, 38.81615
555.2527, 39.27855
555.7348, 40.27820
556.2169, 39.67960
556.6990, 36.35147
557.1812, 31.76993
557.6633, 27.82240
558.1454, 24.39373
558.6275, 21.03722
559.1096, 17.40461
559.5917, 13.83266
560.0739, 10.42212
560.5560, 7.153008
561.0381, 4.847603
561.5202, 4.643166
562.0023, 5.064308
562.4844, 5.025490
562.9666, 4.030830
563.4487, 3.073570
563.9308, 2.133278
564.4129, 1.294098
564.8950, 0.7432400
565.3771, 0.7310490
565.8593, 0.3858490
566.3414, 0.8351290
566.8235, 2.494385
567.3056, 2.256134
567.7877, 0.1801680
568.2698, 2.315735
568.7520, 1.932510
569.2341, 5.7076000E-02
569.7162, 0.1913380
570.1983, 2.908577
570.6804, 5.940468
571.1625, 7.461319
571.6447, 7.889153
572.1268, 7.771584
572.6089, 6.883797
573.0910, 6.259232
573.5731, 6.477898
574.0552, 7.421349
574.5374, 8.888161
575.0195, 10.64778
575.5016, 13.08284
575.9837, 16.74582
576.4658, 21.47369
576.9479, 25.41655
577.4301, 27.13604
577.9122, 29.59843
578.3943, 34.04968
578.8764, 40.53519
579.3585, 48.60436
579.8406, 58.10422
580.3228, 69.57323
580.8049, 84.19464
581.2870, 101.7544
581.7691, 119.9507
582.2512, 138.6648
582.7333, 157.0182
583.2155, 174.0378
583.6976, 189.5282
584.1797, 203.6324
584.6617, 215.3116
585.1439, 226.2005
585.6260, 236.9285
586.1081, 247.8614
586.5902, 260.8062
587.0723, 277.4807
587.5544, 295.5831
588.0366, 313.2828
588.5187, 328.9793
589.0008, 350.0837
589.4829, 378.4930
589.9650, 412.0567
590.4471, 449.5311
590.9293, 491.8920
591.4114, 536.2831
591.8935, 583.1493
592.3756, 631.6865
592.8577, 680.7645
593.3398, 729.9822
593.8220, 779.4897
594.3041, 828.7971
594.7862, 878.7380
595.2683, 934.6428
595.7504, 994.5989
596.2325, 1048.183
596.7147, 1101.953
597.1968, 1138.363
597.6789, 1137.857
598.1610, 1098.963
598.6431, 1031.403
599.1252, 922.5801
599.6074, 798.7466
600.0895, 679.2993
600.5716, 560.7411
601.0537, 458.7399
601.5358, 379.8166
602.0179, 317.9645
602.5001, 267.0187
602.9822, 229.9936
603.4643, 198.8712
603.9464, 172.4569
604.4285, 150.6724
604.9106, 133.1201
605.3928, 120.2135
605.8749, 109.6767
606.3570, 101.0067
606.8391, 93.82681
607.3212, 86.77998
607.8033, 79.91246
608.2855, 73.52133
608.7676, 68.00639
609.2497, 63.05264
609.7318, 58.44789
610.2139, 54.14494
610.6960, 50.01548
611.1782, 45.59261
611.6603, 41.48936
612.1424, 38.30334
612.6245, 37.16206
613.1066, 35.79182
613.5887, 33.70160
614.0709, 31.23209
614.5530, 29.01162
615.0351, 27.22202
615.5172, 25.38013
615.9993, 23.15617
616.4814, 20.73293
616.9636, 19.28984
617.4457, 18.91390
617.9278, 18.64671
618.4099, 17.95950
618.8920, 16.92346
619.3741, 15.61809
619.8563, 14.03432
620.3384, 12.53403
620.8205, 11.44199
621.3026, 10.55588
621.7847, 9.622387
622.2668, 8.461506
622.7490, 7.569931
623.2311, 7.475372
623.7132, 7.662399
624.1953, 7.462845
624.6774, 6.310558
625.1595, 5.334122
625.6417, 4.643929
626.1238, 4.172279
626.6059, 3.961880
627.0880, 4.113029
627.5701, 4.195030
628.0522, 4.018620
628.5344, 3.656864
629.0165, 3.509914
629.4986, 3.602448
629.9807, 3.667408
630.4628, 3.431694
630.9449, 2.963654
631.4271, 2.481392
631.9092, 2.019867
632.3913, 1.574928
632.8734, 1.039150
633.3555, 0.5013850
633.8376, 3.6240000E-02
634.3198, 0.5262410
634.8019, 0.6147840
635.2840, 0.6488570
635.7661, 2.217079
636.2482, 2.561638
636.7303, 0.3174900
637.2125, 0.8207320
637.6946, 0.2271880
638.1767, 2.438717
638.6588, 2.681728
639.1409, 0.6626630
639.6230, 0.9416660
640.1052, 1.080589
640.5873, 0.1790850
641.0694, 0.8150860
641.5515, 1.880035
642.0336, 2.475361
642.5157, 1.935902
642.9979, 0.8613430
643.4800, 0.1533550
643.9621, 1.070324
644.4442, 1.674194
644.9263, 1.778961
645.4084, 1.586979
645.8906, 1.248035
646.3727, 0.7005350
646.8548, 0.1561430
647.3369, 0.4994090
647.8190, 1.094364
648.3011, 1.309761
648.7833, 0.9068410
649.2654, 0.8648340
649.7475, 1.492100
650.2296, 2.371342
650.7117, 2.599037
651.1938, 2.221569
651.6760, 1.786797
652.1581, 1.615711
652.6402, 1.449852
653.1223, 0.5976260
653.6044, 0.7103200
654.0865, 1.518852
654.5687, 0.8867870
655.0508, 0.1225170
655.5329, 0.9585270
656.0150, 1.577019
656.4971, 1.793682
656.9792, 1.187004
657.4614, 0.4719810
657.9435, 2.1699999E-04
658.4256, 0.2501980
658.9077, 8.3045997E-02
659.3898, 0.7978590
659.8719, 1.574974
660.3541, 1.073128
660.8362, 0.6433180
661.3183, 1.452259
661.8004, 0.9475440
662.2825, 0.2702900
662.7646, 2.023319
663.2468, 3.873394
663.7289, 4.697392
664.2110, 3.459038
664.6931, 1.865551
665.1752, 0.8408510
665.6573, 0.3792080
666.1395, 0.4373130
666.6216, 1.779919
667.1037, 2.844990
667.5858, 2.968918
668.0679, 2.298195
668.5500, 1.766872
669.0322, 1.246468
669.5143, 1.128117
669.9964, 1.850395
670.4785, 3.308216
670.9606, 3.650024
671.4427, 2.786903
671.9249, 1.666626
672.4070, 0.8567500
672.8891, 0.3741000
673.3712, 0.2992250
673.8533, 0.6515390
674.3354, 1.244808
674.8176, 2.281738
675.2997, 3.331055
675.7818, 3.937248
676.2639, 3.977436
676.7460, 3.626293
677.2281, 2.455635
677.7103, 1.123478
678.1924, 0.4334980
678.6745, 0.5681270
679.1566, 1.015781
679.6387, 1.917068
680.1208, 2.909016
680.6030, 3.160389
681.0851, 2.671516
681.5672, 1.978275
682.0493, 1.113289
682.5314, 0.3156510
683.0135, 2.2488000E-02
683.4957, 0.1765710
683.9778, 0.5666350
684.4599, 1.370850
684.9420, 2.130543
685.4241, 2.613964
685.9063, 2.796562
686.3884, 2.613525
686.8705, 1.357307
687.3526, 0.3706550
687.8347, 0.4113580
688.3168, 1.736240
688.7990, 2.188187
689.2811, 1.449184
689.7632, 0.5656970
690.2453, 0.3814010
690.7274, 0.8427090
691.2095, 1.247704
691.6917, 1.526310
692.1738, 1.897068
692.6559, 2.974163
693.1380, 4.253933
693.6201, 4.692089
694.1022, 3.737507
694.5844, 2.808746
695.0665, 3.075237
695.5486, 3.742012
696.0307, 3.673855
696.5128, 1.182785
696.9949, 0.1469990
697.4771, 0.6103900
697.9592, 2.425220
698.4413, 3.115566
698.9234, 2.283127
699.4055, 1.805477
699.8876, 2.324135
700.3698, 3.376781
700.8519, 3.793137
701.3340, 3.631687
701.8161, 3.296608
702.2982, 2.905712
702.7803, 2.573837
703.2625, 2.560043
703.7446, 2.773624
704.2267, 2.724155
704.7088, 1.610813
705.1909, 0.6594810
705.6730, 0.6153070
706.1552, 1.604473
706.6373, 2.353779
707.1194, 2.749866
707.6015, 3.042358
708.0836, 3.475250
708.5657, 4.095600
709.0479, 3.983166
709.5300, 2.968246
710.0121, 2.011265
710.4942, 2.163448
710.9763, 3.067352
711.4584, 3.943020
711.9406, 4.774437
712.4227, 5.329674
712.9048, 5.158749
713.3869, 4.765831
713.8690, 4.688866
714.3511, 5.025024
714.8333, 5.730019
715.3154, 7.409977
715.7975, 9.115791
716.2796, 9.792965
716.7617, 9.056473
717.2438, 8.547852
717.7260, 8.386147
718.2081, 8.438866
718.6902, 8.495270
719.1723, 8.639416
719.6544, 9.220619
720.1365, 10.57104
720.6187, 12.01831
721.1008, 12.72828
721.5829, 12.95067
722.0650, 13.29111
722.5471, 14.23624
723.0292, 15.08996
723.5114, 15.37394
723.9935, 15.29027
724.4756, 15.65028
724.9577, 16.47605
725.4398, 17.75690
725.9219, 19.79980
726.4041, 22.27919
726.8862, 23.27167
727.3683, 22.65809
727.8504, 22.43241
728.3325, 23.97596
728.8146, 26.58917
729.2968, 28.99256
729.7789, 31.07735
730.2610, 32.56118
730.7431, 33.07298
731.2252, 33.21740
731.7073, 33.36293
732.1895, 33.52977
732.6716, 33.93531
733.1537, 34.66053
733.6358, 35.53637
734.1179, 36.70737
734.6000, 38.42276
735.0822, 38.78064
735.5643, 37.40489
736.0464, 35.62804
736.5285, 34.58572
737.0106, 34.20181
737.4927, 34.32497
737.9749, 34.99843
738.4570, 35.48249
738.9391, 35.32789
739.4212, 34.52840
739.9033, 32.87621
740.3854, 29.65838
740.8676, 27.24970
741.3497, 27.14790
741.8318, 27.76762
742.3139, 27.36222
742.7960, 25.08912
743.2781, 24.01565
743.7603, 24.79514
744.2424, 26.04726
744.7245, 25.62801
745.2066, 23.71108
745.6887, 21.86263
746.1708, 20.42517
746.6530, 19.30019
747.1351, 18.57449
747.6172, 18.02951
748.0993, 17.33255
748.5814, 16.15452
749.0635, 15.08718
749.5457, 14.78384
750.0278, 14.64193
750.5099, 13.29827
750.9920, 9.415573
751.4741, 6.858253
751.9562, 6.628670
752.4384, 7.911324
752.9205, 8.888794
753.4026, 9.565166
753.8847, 9.698559
754.3668, 8.913105
754.8489, 7.750294
755.3311, 7.091881
755.8132, 6.839180
756.2953, 6.667435
756.7774, 6.546761
757.2595, 6.338062
757.7416, 5.965572
758.2238, 5.456856
758.7059, 4.918522
759.1880, 4.195782
759.6701, 3.689732
760.1522, 3.492344
760.6343, 3.605907
761.1165, 4.318157
761.5986, 5.681389
762.0807, 6.446327
762.5628, 5.510292
763.0449, 3.684334
763.5270, 2.203392
764.0092, 1.119595
764.4913, 0.5121190
764.9734, 0.9012030
765.4555, 1.380791
765.9376, 1.162937
766.4197, 0.2223970
766.9019, 0.3010100
767.3840, 2.618301
767.8661, 4.279850
768.3482, 3.680801
768.8303, 0.9652900
769.3124, 0.2038800
769.7946, 0.2713010
770.2767, 1.137089
770.7588, 1.726440
771.2409, 2.033806
771.7230, 1.997074
772.2051, 1.625572
772.6873, 1.122768
773.1694, 0.4614830
773.6515, 0.1774560
774.1336, 0.7501260
774.6157, 1.304642
775.0978, 1.352146
775.5800, 0.4784740
776.0621, 0.3462600
776.5442, 0.4830630
777.0263, 0.1088710
777.5084, 0.4741440
777.9905, 0.6048130
778.4727, 0.6107560
778.9548, 0.5845640
779.4369, 0.4978870
779.9190, 0.2760620
780.4011, 9.0668000E-02
780.8832, 0.4725720
781.3654, 1.076523
781.8475, 1.466881
782.3296, 1.211922
782.8117, 0.1010740
783.2938, 0.8592220
783.7759, 0.7746350
784.2581, 0.5349200
784.7402, 0.6941990
785.2223, 1.252075
785.7044, 1.745216
786.1865, 2.184921
786.6686, 2.272659
787.1508, 1.289467
787.6329, 7.1289003E-02
788.1150, 0.6775970
788.5971, 0.2626570
789.0792, 0.2410280
789.5613, 0.6585310
790.0435, 0.7986150
790.5256, 0.3799210
791.0077, 1.144264
791.4898, 1.615433
791.9719, 0.4518590
792.4540, 0.7996900
792.9362, 0.4197310
793.4183, 1.408005
793.9004, 2.278214
794.3825, 1.919464
794.8646, 1.447327
795.3467, 1.960960
795.8289, 3.013535
796.3110, 4.018211
796.7931, 4.895828
797.2752, 5.690773
797.7573, 6.256134
798.2394, 6.870102
798.7216, 7.847115
799.2037, 9.707504
799.6858, 10.32273
800.1679, 9.052910
800.6500, 7.984840
801.1321, 9.699692
801.6143, 13.57569
802.0964, 16.46927
802.5785, 17.93755
803.0606, 19.19770
803.5427, 21.18070
804.0248, 23.57847
804.5070, 26.03128
804.9891, 28.32163
805.4712, 31.11951
805.9533, 35.36250
806.4354, 39.60554
806.9175, 42.62147
807.3997, 43.86428
807.8818, 46.30995
808.3639, 50.12673
808.8460, 54.68137
809.3281, 59.32715
809.8102, 64.18838
810.2924, 69.90791
810.7745, 76.73660
811.2566, 82.87595
811.7387, 87.56888
812.2208, 90.61769
812.7029, 91.79129
813.1851, 90.88072
813.6672, 88.40339
814.1493, 84.41329
814.6314, 78.91451
815.1135, 71.50297
815.5956, 62.00090
816.0778, 53.45367
816.5599, 45.96651
817.0420, 39.22993
817.5241, 32.79365
818.0062, 26.98943
818.4883, 22.38445
818.9705, 19.14389
819.4526, 16.18736
819.9347, 12.53032
820.4168, 9.306259
820.8989, 7.506294
821.3810, 7.490356
821.8632, 7.429993
822.3453, 7.445213
822.8274, 7.158096
823.3095, 5.709572
823.7916, 3.505074
824.2737, 3.248665
824.7559, 5.111252
825.2380, 7.157257
825.7201, 7.916115
826.2022, 7.934120
826.6843, 7.555199
827.1664, 6.720398
827.6486, 6.219421
828.1307, 6.061264
828.6128, 6.418800
829.0949, 7.623413
829.5770, 9.778206
830.0591, 10.82301
830.5413, 10.55409
831.0234, 10.36137
831.5055, 11.58912
831.9876, 13.49385
832.4697, 14.49641
832.9518, 14.62771
833.4340, 15.03954
833.9161, 16.39732
834.3982, 18.14532
834.8803, 20.24343
835.3624, 22.73186
835.8445, 23.90688
836.3267, 22.92999
836.8088, 22.31570
837.2909, 23.56828
837.7730, 26.26466
838.2551, 27.66956
838.7372, 27.86086
839.2194, 28.23032
839.7015, 29.94109
840.1836, 32.07016
840.6657, 33.92955
841.1478, 35.42492
841.6299, 36.26167
842.1121, 35.65123
842.5942, 35.10112
843.0763, 35.24705
843.5584, 35.88531
844.0405, 35.68269
844.5226, 34.49104
845.0048, 33.76656
845.4869, 34.38010
845.9690, 35.58498
846.4511, 36.37096
846.9332, 36.63577
847.4153, 36.07745
847.8975, 33.75797
848.3796, 31.44868
848.8617, 30.00150
849.3438, 29.22189
849.8259, 28.47195
850.3080, 27.72664
850.7902, 26.97578
851.2723, 26.31163
851.7544, 25.50380
852.2365, 23.70387
852.7186, 21.17525
853.2007, 19.50374
853.6829, 19.58326
854.1650, 20.22131
854.6471, 20.80448
855.1292, 21.12270
855.6113, 20.82079
856.0934, 18.87099
856.5756, 17.53072
857.0577, 17.10173
857.5398, 17.32401
858.0219, 18.07323
858.5040, 19.41442
858.9861, 20.01778
859.4683, 19.52980
859.9504, 18.75461
860.4325, 18.51759
860.9146, 18.73495
861.3967, 19.39339
861.8788, 20.77163
862.3610, 21.71075
862.8431, 21.06997
863.3252, 20.23048
863.8073, 20.50070
864.2894, 22.29152
864.7715, 23.92065
865.2537, 25.29449
865.7358, 26.72604
866.2179, 28.76560
866.7000, 31.13972
867.1821, 32.78220
867.6642, 33.50888
868.1464, 34.82304
868.6285, 38.70851
869.1106, 42.87590
869.5927, 45.27515
870.0748, 45.08781
870.5569, 46.82060
871.0391, 51.35977
871.5212, 56.07925
872.0033, 59.39505
872.4854, 61.52205
872.9675, 63.42484
873.4496, 65.20145
873.9318, 68.03110
874.4139, 73.65237
874.8960, 79.88824
875.3781, 84.94846
875.8602, 88.88831
876.3423, 92.34776
876.8245, 94.73187
877.3066, 97.37060
877.7887, 100.7284
878.2708, 104.6102
878.7529, 108.2852
879.2350, 111.7428
879.7172, 114.9155
880.1993, 117.8327
880.6814, 120.2914
881.1635, 122.3927
881.6456, 123.7981
882.1277, 123.7143
882.6099, 120.2610
883.0920, 117.1667
883.5741, 115.9892
884.0562, 115.5183
884.5383, 113.6801
885.0204, 110.2473
885.5026, 106.9717
885.9847, 104.3072
886.4668, 101.4719
886.9489, 97.20121
887.4310, 91.97333
887.9131, 86.67309
888.3953, 81.22289
888.8774, 76.63413
889.3595, 74.77120
889.8416, 73.10726
890.3237, 69.00378
890.8058, 61.00573
891.2880, 54.99046
891.7701, 51.36292
892.2522, 48.58746
892.7343, 45.21822
893.2164, 41.58044
893.6985, 38.58200
894.1807, 36.31435
894.6628, 34.27072
895.1449, 32.46996
895.6270, 30.54517
896.1091, 27.94086
896.5912, 24.56102
897.0734, 22.51585
897.5555, 22.44440
898.0376, 22.21090
898.5197, 20.64712
899.0018, 18.19058
899.4839, 16.29752
899.9661, 14.95359
900.4482, 14.07763
900.9303, 14.13516
901.4124, 14.15502
901.8945, 13.27031
902.3766, 11.80667
902.8588, 10.86800
903.3409, 10.97692
903.8230, 10.84879
904.3051, 10.20350
904.7872, 9.265671
905.2693, 8.448952
905.7515, 7.732918
906.2336, 6.902596
906.7157, 5.732475
907.1978, 4.894005
907.6799, 5.223900
908.1620, 6.102783
908.6442, 6.791290
909.1263, 7.092957
909.6084, 7.276726
910.0905, 7.471527
910.5726, 7.391548
911.0547, 6.574883
911.5369, 5.120567
912.0190, 4.324287
912.5011, 4.290939
912.9832, 4.033577
913.4653, 1.922791
913.9474, 0.2442860
914.4296, 0.4847340
914.9117, 1.464661
915.3938, 2.977524
915.8759, 3.669174
916.3580, 3.855309
916.8401, 3.593033
917.3223, 2.922043
917.8044, 1.765068
918.2865, 0.2014770
918.7686, 0.6076580
919.2507, 0.3046650
919.7328, 1.962189
920.2150, 4.119286
920.6971, 6.239571
921.1792, 7.045296
921.6613, 5.104675
922.1434, 3.188423
922.6255, 1.593475
923.1077, 0.3010410
923.5898, 0.8649600
924.0719, 1.858002
924.5540, 1.851013
925.0361, 0.4721760
925.5182, 1.085426
926.0004, 1.926750
926.4825, 2.114861
926.9646, 1.597397
927.4467, 9.6146002E-02
927.9288, 1.120232
928.4109, 0.8848420
928.8931, 0.4655910
929.3752, 0.6235810
929.8573, 1.343460
930.3394, 2.069847
930.8215, 2.796333
931.3036, 2.933334
931.7858, 1.183678
932.2679, 0.7387620
932.7500, 0.8157880
933.2321, 0.7228850
933.7142, 1.564415
934.1964, 0.5998690
934.6785, 0.3244930
935.1606, 0.7103650
935.6427, 0.7706450
936.1248, 1.122757
936.6069, 1.753326
937.0891, 2.453362
937.5712, 3.184471
938.0533, 3.915352
938.5354, 4.858154
939.0175, 5.703445
939.4996, 5.976555
939.9818, 4.341743
940.4639, 4.076942
940.9460, 6.004089
941.4281, 8.326546
941.9102, 9.066612
942.3923, 8.412178
942.8745, 8.213364
943.3566, 8.619339
943.8387, 8.870453
944.3208, 7.889641
944.8029, 6.820793
945.2850, 6.666344
945.7672, 7.544777
946.2493, 8.653152
946.7314, 10.13139
947.2135, 11.41358
947.6956, 12.18191
948.1777, 12.63895
948.6599, 13.53754
949.1420, 14.80105
949.6241, 15.97619
950.1062, 16.75728
950.5883, 17.49071
951.0704, 18.87238
951.5526, 20.27640
952.0347, 20.35346
952.5168, 17.69795
952.9989, 16.56197
953.4810, 17.58248
953.9631, 19.48949
954.4453, 21.13079
954.9274, 22.50764
955.4095, 23.46037
955.8916, 23.89320
956.3737, 24.10891
956.8558, 24.20590
957.3380, 24.28954
957.8201, 24.57256
958.3022, 25.10470
958.7843, 24.70821
959.2664, 22.83880
959.7485, 21.92136
960.2307, 23.71806
960.7128, 26.78906
961.1949, 27.80525
961.6770, 27.26384
962.1591, 26.68838
962.6412, 27.08500
963.1234, 27.05311
963.6055, 25.23071
964.0876, 23.04710
964.5697, 23.04354
965.0518, 25.79417
965.5339, 28.04151
966.0161, 29.47671
966.4982, 30.02885
966.9803, 29.11471
967.4624, 27.46164
967.9445, 26.33324
968.4266, 25.95441
968.9088, 25.75238
969.3909, 25.49356
969.8730, 25.19196
970.3551, 24.92046
970.8372, 24.71651
971.3193, 24.72129
971.8015, 24.94718
972.2836, 24.91161
972.7657, 24.12985
973.2478, 23.09859
973.7299, 22.42941
974.2120, 22.09104
974.6942, 21.77544
975.1763, 21.26224
975.6584, 20.76168
976.1405, 20.22799
976.6226, 19.86217
977.1047, 20.00465
977.5869, 20.48017
978.0690, 20.88380
978.5511, 21.19058
979.0332, 21.33590
979.5153, 20.86457
979.9974, 20.61320
980.4796, 21.47696
980.9617, 23.76593
981.4438, 24.14506
981.9259, 21.42352
982.4080, 19.18222
982.8901, 19.29881
983.3723, 20.98600
983.8544, 22.10839
984.3365, 22.69944
984.8186, 22.93391
985.3007, 22.74247
985.7828, 22.36179
986.2650, 21.74899
986.7471, 21.21954
987.2292, 21.16529
987.7113, 21.74886
988.1934, 21.98332
988.6755, 21.74614
989.1577, 21.35692
989.6398, 21.14178
990.1219, 21.06369
990.6040, 21.25078
991.0861, 21.70799
991.5682, 21.56475
992.0504, 19.93134
992.5325, 18.28876
993.0146, 17.18579
993.4967, 16.62730
993.9788, 16.73672
994.4609, 17.51208
994.9431, 18.01389
995.4252, 17.78415
995.9073, 17.15955
996.3894, 16.13008
996.8715, 15.08796
997.3536, 14.60773
997.8358, 15.51505
998.3179, 16.04886
998.8000, 16.12360
999.2821, 15.88140
999.7642, 15.53162
1000.246, 14.99439
1000.728, 13.54685
1001.211, 11.20213
1001.693, 9.543304
1002.175, 10.78652
1002.657, 11.98856
1003.139, 10.81122
1003.621, 7.611523
1004.103, 5.558128
1004.585, 4.848518
1005.068, 4.586182
1005.550, 4.613804
1006.032, 4.783554
1006.514, 5.088737
1006.996, 5.304104
1007.478, 4.855335
1007.960, 3.122677
1008.442, 1.912876
1008.924, 2.544971
1009.407, 3.206623
1009.889, 2.443974
1010.371, 0.1711160
1010.853, 0.5272520
1011.335, 0.3574300
1011.817, 1.186562
1012.299, 0.5176320
1012.781, 0.4132420
1013.263, 0.5477910
1013.746, 7.6299999E-04
1014.228, 0.7801590
1014.710, 2.228668
1015.192, 2.941246
1015.674, 2.554283
1016.156, 1.603447
1016.638, 0.6450390
1017.120, 0.2027740
1017.603, 0.4386560
1018.085, 0.1032680
1018.567, 0.5051000
1019.049, 0.2965660
1019.531, 0.9711270
1020.013, 0.3583600
1020.495, 1.464733
1020.977, 2.172321
1021.459, 1.629181
1021.942, 1.184166
1022.424, 1.560371
1022.906, 2.269398
1023.388, 2.983505
1023.870, 3.463821
1024.352, 3.238850
1024.834, 1.373760
1025.316, 0.1195870
1025.799, 1.237907
1026.281, 1.734085
1026.763, 1.086197
1027.245, 0.4983600
1027.727, 1.882526
1028.209, 2.984241
1028.691, 3.428577
1029.173, 2.305443
1029.656, 1.024826
1030.138, 0.7000810
1030.620, 1.121220
1031.102, 0.8173070
1031.584, 0.6315160
1032.066, 0.9089550
1032.548, 1.008690
1033.030, 3.228409
1033.512, 2.438789
1033.995, 0.1310920
1034.477, 1.080029
1034.959, 0.3473890
1035.441, 0.4783250
1035.923, 1.422516
1036.405, 1.777489
1036.887, 0.6635020
1037.369, 1.558403
1037.851, 1.134998
1038.334, 1.613747
1038.816, 3.723030
1039.298, 3.003391
1039.780, 1.603405
1040.262, 0.6761820
1040.744, 0.1608700
1041.226, 0.1026310
1041.708, 0.1377070
1042.191, 0.1780620
1042.673, 0.9970970
1043.155, 1.636139
1043.637, 0.8719670
1044.119, 0.3353420
1044.601, 4.3933999E-02
1045.083, 1.802139
1045.565, 3.124557
1046.047, 2.419296
1046.530, 1.992718
1047.012, 2.643188
1047.494, 4.009895
1047.976, 5.378109
1048.458, 6.663086
1048.940, 6.880936
1049.422, 5.353134
1049.904, 4.055347
1050.386, 5.408913
1050.869, 7.161583
1051.351, 6.638378
1051.833, 3.112495
1052.315, 1.447495
1052.797, 2.010052
1053.279, 2.741421
1053.761, 2.059200
1054.243, 1.027554
1054.726, 1.912312
1055.208, 3.958542
1055.690, 5.168652
1056.172, 4.024551
1056.654, 3.079643
1057.136, 2.659531
1057.618, 2.600155
1058.100, 2.828079
1058.583, 3.281418
1059.065, 3.603447
1059.547, 3.764015
1060.029, 3.651520
1060.511, 2.692501
1060.993, 1.904381
1061.475, 2.233841
1061.957, 3.323967
1062.439, 3.471874
1062.922, 2.426109
1063.404, 2.153439
1063.886, 3.422474
1064.368, 4.807125
1064.850, 4.358921
1065.332, 3.018570
1065.814, 1.988899
1066.296, 1.481392
1066.778, 1.430595
1067.261, 1.997627
1067.743, 2.664963
1068.225, 3.286381
1068.707, 3.698681
1069.189, 3.197830
1069.671, 2.047966
1070.153, 1.263519
1070.635, 1.447777
1071.118, 1.873230
1071.600, 2.518448
1072.082, 3.130436
1072.564, 3.394428
1073.046, 3.262779
1073.528, 3.029037
1074.010, 2.686474
1074.492, 2.801643
1074.974, 4.601234
1075.457, 6.395824
1075.939, 6.640465
1076.421, 5.553440
1076.903, 4.161434
1077.385, 2.092133
1077.867, 1.229561
1078.349, 2.245495
1078.831, 3.605206
1079.313, 2.964592
1079.796, 1.429497
1080.278, 1.183189
1080.760, 2.590584
1081.242, 3.701385
1081.724, 3.579586
1082.206, 3.382504
1082.688, 3.564346
1083.170, 3.862919
1083.652, 3.494476
1084.135, 2.608913
1084.617, 1.814117
1085.099, 1.238724
1085.581, 1.068260
1086.063, 1.709949
1086.545, 2.499973
1087.027, 2.777607
1087.509, 2.443993
1087.992, 2.257263
1088.474, 2.220852
1088.956, 2.621502
1089.438, 4.225674
1089.920, 5.792229
1090.402, 5.667267
1090.884, 4.594322
1091.366, 4.325184
1091.849, 5.786568
1092.331, 6.547741
1092.813, 6.509827
1093.295, 6.160431
1093.777, 5.822872
1094.259, 5.541317
1094.741, 5.377613
1095.223, 5.247208
1095.705, 5.371880
1096.188, 6.244400
1096.670, 6.919598
1097.152, 7.090714
1097.634, 6.913040
1098.116, 6.508419
1098.598, 5.945744
1099.080, 5.664536
1099.562, 5.780472
1100.044, 5.836216
1100.527, 5.375626
1101.009, 4.875366
1101.491, 4.576164
1101.973, 4.447567
1102.455, 4.806801
1102.937, 5.723606
1103.419, 6.036541
1103.901, 5.055210
1104.384, 4.081833
1104.866, 4.862347
1105.348, 6.224007
1105.830, 6.719131
1106.312, 5.893173
1106.794, 5.259731
1107.276, 4.809830
1107.758, 4.585808
1108.240, 4.683369
1108.723, 4.958469
1109.205, 5.278492
1109.687, 5.562397
1110.169, 5.614330
1110.651, 5.272861
1111.133, 4.883194
1111.615, 4.430542
1112.097, 3.973564
1112.579, 3.525181
1113.062, 3.150352
1113.544, 3.085007
1114.026, 3.335728
1114.508, 3.893024
1114.990, 5.818699
1115.472, 6.712860
1115.954, 4.891449
1116.436, 2.182102
1116.919, 1.531242
1117.401, 2.773010
1117.883, 3.060944
1118.365, 2.027050
1118.847, 1.536766
1119.329, 3.936668
1119.811, 6.535526
1120.293, 7.036682
1120.776, 6.057083
1121.258, 6.470688
1121.740, 8.502953
1122.222, 9.923458
1122.704, 10.25977
1123.186, 9.682220
1123.668, 7.283890
1124.150, 4.742813
1124.632, 4.182575
1125.115, 6.171402
1125.597, 7.201138
1126.079, 7.122070
1126.561, 6.374325
1127.043, 4.867592
1127.525, 3.198261
1128.007, 2.221069
1128.489, 1.824905
1128.971, 1.930958
1129.454, 2.973221
1129.936, 3.097748
1130.418, 1.535576
1130.900, 0.2575000
1131.382, 0.6970630
1131.864, 2.167744
1132.346, 2.775566
1132.828, 2.668613
1133.311, 2.311985
1133.793, 1.670025
1134.275, 1.110378
1134.757, 0.5472830
1135.239, 0.2649770
1135.721, 0.7093160
1136.203, 1.743305
1136.685, 2.184135
1137.167, 2.069344
1137.650, 1.904099
1138.132, 2.191994
1138.614, 2.264362
1139.096, 1.465237
1139.578, 0.4492530
1140.060, 0.1583210
1140.542, 0.5995940
1141.024, 1.192276
1141.506, 1.900978
1141.989, 2.093384
1142.471, 0.2301480
1142.953, 1.326881
1143.435, 0.1901820
1143.917, 2.619381
1144.399, 3.407288
1144.881, 1.838085
1145.363, 0.7390520
1145.846, 0.6351390
1146.328, 0.8747900
1146.810, 0.8769260
1147.292, 0.8583980
1147.774, 1.054562
1148.256, 1.479610
1148.738, 1.872044
1149.220, 2.254787
1149.703, 2.513042
1150.185, 2.639473
1150.667, 2.561432
1151.149, 1.807312
1151.631, 0.9743080
1152.113, 1.177902
1152.595, 2.889072
1153.077, 2.947174
1153.559, 0.2060320
1154.042, 1.517704
1154.524, 0.2479820
1155.006, 2.250446
1155.488, 2.599716
1155.970, 1.776520
1156.452, 1.802303
1156.934, 3.771938
1157.416, 4.690704
1157.898, 3.900517
1158.381, 2.736992
1158.863, 1.607040
1159.345, 0.8295560
1159.827, 2.100346
1160.309, 4.474686
1160.791, 5.248039
1161.273, 1.893421
1161.755, 0.2982520
1162.238, 0.2617800
1162.720, 1.523224
1163.202, 2.067497
1163.684, 2.037254
1164.166, 2.215847
1164.648, 2.538734
1165.130, 2.733906
1165.612, 2.700199
1166.094, 2.414028
1166.577, 1.490585
1167.059, 0.7121280
1167.541, 1.110897
1168.023, 2.485622
1168.505, 2.909676
1168.987, 2.411217
1169.469, 1.753597
1169.951, 0.7232820
1170.433, 0.3890380
1170.916, 1.714439
1171.398, 3.716034
1171.880, 5.388603
1172.362, 6.713585
1172.844, 6.843948
1173.326, 5.747070
1173.808, 4.716583
1174.290, 4.716293
1174.773, 4.985210
1175.255, 5.471916
1175.737, 5.770252
1176.219, 4.793690
1176.701, 2.524235
1177.183, 1.232441
1177.665, 1.217976
1178.147, 1.716499
1178.630, 2.123322
1179.112, 2.815613
1179.594, 4.680183
1180.076, 7.011066
1180.558, 7.326134
1181.040, 5.504875
1181.522, 3.934372
1182.004, 2.995316
1182.486, 2.884144
1182.969, 4.246498
1183.451, 6.118031
1183.933, 8.242729
1184.415, 10.28811
1184.897, 10.03469
1185.379, 7.192570
1185.861, 5.361465
1186.343, 5.671860
1186.825, 6.423679
1187.308, 6.219357
1187.790, 5.465263
1188.272, 4.201275
1188.754, 2.526772
1189.236, 2.417267
1189.718, 4.115776
1190.200, 5.046032
1190.682, 4.150417
1191.165, 2.866787
1191.647, 2.828426
1192.129, 3.159706
1192.611, 2.688347
1193.093, 1.220810
1193.575, 1.092594
1194.057, 2.517841
1194.539, 3.711243
1195.021, 3.868999
1195.504, 3.717106
1195.986, 4.327934
1196.468, 4.985367
1196.950, 4.494846
1197.432, 2.387482
1197.914, 2.053852
1198.396, 3.842777
1198.878, 4.977036
1199.360, 3.580978
1199.843, 1.740120
1200.325, 2.080959
1200.807, 3.441113
1201.289, 4.339130
1201.771, 4.589577
1202.253, 4.163322
1202.735, 2.923199
1203.217, 1.768234
1203.700, 1.194229
1204.182, 0.9787710
1204.664, 1.025589
1205.146, 1.190453
1205.628, 1.233936
1206.110, 1.095192
1206.592, 0.9613460
1207.074, 0.7922820
1207.557, 0.6757470
1208.039, 0.5043870
1208.521, 0.5544200
1209.003, 1.448555
1209.485, 2.692577
1209.967, 3.339241
1210.449, 3.145893
1210.931, 2.852551
1211.413, 2.430603
1211.896, 2.050873
1212.378, 2.240162
1212.860, 2.413372
1213.342, 1.267803
1213.824, 0.4668120
1214.306, 1.230469
1214.788, 0.6122510
1215.270, 0.2141190
1215.752, 0.1033250
1216.235, 4.8248000E-02
1216.717, 0.5388220
1217.199, 1.145161
1217.681, 1.938938
1218.163, 2.606010
1218.645, 2.274990
1219.127, 0.3522910
1219.609, 1.7220000E-02
1220.092, 1.574665
1220.574, 3.103508
1221.056, 3.165600
1221.538, 2.439518
1222.020, 1.011688
1222.502, 0.5893330
1222.984, 1.252529
1223.466, 0.7892990
1223.948, 0.1560520
1224.431, 0.6011010
1224.913, 1.359825
1225.395, 2.236427
1225.877, 2.877190
1226.359, 2.977547
1226.841, 2.605473
1227.323, 1.894711
1227.805, 0.6991120
1228.287, 0.2341580
1228.770, 0.6113510
1229.252, 1.219570
1229.734, 1.810688
1230.216, 2.210453
1230.698, 2.081451
1231.180, 1.719074
1231.662, 1.848541
1232.144, 2.522446
1232.627, 2.917366
1233.109, 2.973179
1233.591, 2.637756
1234.073, 1.133732
1234.555, 2.5822001E-02
1235.037, 0.4916110
1235.519, 1.919926
1236.001, 2.921314
1236.484, 3.532837
1236.966, 3.623264
1237.448, 3.235596
1237.930, 3.005939
1238.412, 3.521805
1238.894, 4.157082
1239.376, 4.592319
1239.858, 4.895100
1240.340, 5.288597
1240.823, 5.711063
1241.305, 5.324329
1241.787, 4.086933
1242.269, 2.993366
1242.751, 2.700649
1243.233, 2.680069
1243.715, 2.757053
1244.197, 2.902313
1244.679, 3.187267
1245.162, 3.540688
1245.644, 3.402390
1246.126, 2.796368
1246.608, 2.591412
1247.090, 4.140541
1247.572, 4.958416
1248.054, 4.003143
1248.536, 2.380768
1249.019, 1.733688
1249.501, 1.836735
1249.983, 2.075390
1250.465, 2.369858
1250.947, 2.529060
1251.429, 2.133823
1251.911, 2.105423
1252.393, 2.765923
1252.875, 3.612862
1253.358, 4.171032
1253.840, 4.334373
1254.322, 3.530010
1254.804, 1.895573
1255.286, 0.9938470
1255.768, 1.681141
1256.250, 2.452068
1256.732, 3.149345
1257.214, 3.697327
1257.697, 4.246395
1258.179, 4.451702
1258.661, 3.177620
1259.143, 0.7179490
1259.625, 4.6588998E-02
1260.107, 1.937157
1260.589, 3.360912
1261.071, 3.749912
1261.554, 3.528969
1262.036, 2.916691
1262.518, 2.122135
1263.000, 1.161953
1263.482, 0.1308020
1263.964, 0.1621060
1264.446, 0.3617020
1264.928, 0.6919360
1265.411, 0.6358720
1265.893, 0.9169500
1266.375, 3.138416
1266.857, 5.134117
1267.339, 4.407505
1267.821, 1.962917
1268.303, 1.331055
1268.785, 2.744156
1269.267, 2.504333
1269.750, 0.1615640
1270.232, 1.578407
1270.714, 0.4009820
1271.196, 1.727455
1271.678, 4.466831
1272.160, 6.846573
1272.642, 6.870121
1273.124, 4.752056
1273.606, 3.649380
1274.089, 3.775097
1274.571, 4.095779
1275.053, 4.386768
1275.535, 4.222733
1276.017, 3.080959
1276.499, 1.846226
1276.981, 2.019604
1277.463, 3.099571
1277.946, 2.876865
1278.428, 1.455158
1278.910, 0.5867920
1279.392, 1.868057
1279.874, 2.581902
1280.356, 2.073128
1280.838, 1.224037
1281.320, 0.8388750
1281.802, 0.8674050
1282.285, 1.679230
1282.767, 2.950436
1283.249, 3.330383
1283.731, 1.596317
1284.213, 0.6198810
1284.695, 0.5976490
1285.177, 1.199127
1285.659, 2.685898
1286.141, 4.197132
1286.624, 4.569202
1287.106, 3.515373
1287.588, 2.721981
1288.070, 1.594189
1288.552, 0.8073690
1289.034, 0.3894920
1289.516, 0.4340820
1289.998, 1.454006
1290.481, 2.525036
1290.963, 2.718407
1291.445, 2.533463
1291.927, 3.113823
1292.409, 4.566620
1292.891, 3.963055
1293.373, 1.431519
1293.855, 0.3222160
1294.338, 1.364742
1294.820, 3.092682
1295.302, 2.919868
1295.784, 2.240173
1296.266, 2.085541
1296.748, 2.475273
1297.230, 3.307503
1297.712, 4.353027
1298.194, 4.830341
1298.677, 3.399857
1299.159, 2.437126
1299.641, 1.577202
1300.123, 0.8811190
1300.605, 0.3210950
1301.087, 5.4859999E-03
1301.569, 0.2915840
1302.051, 0.7835080
1302.533, 0.5316470
1303.016, 0.0000000E+00
##END=



