##NAMES=Chloritoid
##RRUFFID=R050334
##IDEAL CHEMISTRY=Fe^2+^Al_2_OSiO_4_(OH)_2_
##LOCALITY=Selçuk, Mugla Province, Turkey
##OWNER=RRUFF
##SOURCE=George Rossman
##DESCRIPTION=Dark greenish-black foliated cleavage fragments
##STATUS=The identification of this mineral is confirmed by single-crystal X-ray diffraction and chemical analysis.
##URL=rruff.info/R050334
##MEASURED CHEMISTRY=(Fe^2+^_1.84_Mg_0.12_Mn_0.04_)_Σ=2_(Al_3.95_Fe^3+^_0.05_)_Σ=4_Si_2.00_O_10_(OH)_4_ ; H not measured but estimated by difference and stoichiometry
235.479, 0.000
236.853, 1.210
238.227, 28.117
239.601, 19.111
240.974, 32.840
242.347, 70.302
243.720, 97.475
245.093, 248.668
246.465, 293.314
247.837, 396.623
249.209, 473.173
250.581, 509.846
251.953, 557.625
253.324, 506.156
254.695, 498.688
256.066, 436.782
257.436, 441.268
258.806, 454.499
260.177, 313.992
261.546, 356.860
262.916, 126.217
264.285, 118.284
265.654, 65.970
267.023, 13.158
268.392, 86.030
269.761, 84.623
271.129, 66.749
272.497, 121.421
273.864, 226.414
275.232, 322.035
276.599, 413.666
277.966, 631.493
279.333, 847.743
280.700, 893.015
282.066, 967.808
283.432, 854.494
284.798, 744.097
286.164, 579.625
287.529, 573.681
288.894, 374.733
290.259, 399.190
291.624, 426.625
292.989, 335.860
294.353, 408.445
295.717, 405.671
297.081, 489.580
298.444, 537.690
299.808, 540.328
301.171, 538.994
302.534, 557.688
303.896, 518.154
305.259, 432.792
306.621, 413.693
307.983, 334.604
309.345, 256.492
310.706, 196.259
312.067, 113.048
313.428, 81.862
314.789, 44.700
316.150, 31.562
317.510, 7.542
318.870, 66.594
320.230, 2.592
321.590, 20.538
322.949, 17.566
324.309, 90.717
325.667, 109.911
327.026, 143.145
328.385, 215.415
329.743, 381.718
331.101, 334.052
332.459, 364.413
333.816, 410.789
335.174, 347.187
336.531, 224.606
337.888, 156.043
339.244, 91.493
340.601, 83.952
341.957, 148.419
343.313, 205.895
344.669, 123.378
346.024, 257.869
347.380, 119.362
348.735, 47.856
350.090, 20.649
351.444, 64.154
352.799, 59.923
354.153, 138.156
355.507, 1.344
356.860, 9.160
358.214, 48.317
359.567, 176.710
360.920, 82.063
362.273, 144.422
363.625, 135.798
364.978, 191.245
366.330, 246.710
367.682, 201.187
369.033, 144.672
370.385, 82.164
371.736, 88.661
373.087, 104.165
374.437, 46.656
375.788, 61.066
377.138, 58.374
378.488, 100.687
379.838, 134.030
381.188, 103.391
382.537, 229.786
383.886, 239.242
385.235, 277.740
386.584, 379.247
387.932, 411.774
389.280, 343.312
390.628, 332.892
391.976, 321.734
393.323, 338.102
394.671, 299.750
396.018, 376.399
397.365, 395.047
398.711, 429.154
400.058, 428.438
401.404, 361.183
402.750, 387.944
404.096, 421.733
405.441, 480.522
406.786, 473.304
408.131, 508.073
409.476, 563.827
410.821, 659.562
412.165, 665.278
413.509, 690.973
414.853, 672.615
416.197, 678.236
417.540, 501.837
418.883, 512.416
420.226, 420.960
421.569, 427.472
422.912, 378.954
424.254, 410.409
425.596, 303.839
426.938, 244.245
428.280, 325.621
429.621, 189.250
430.962, 263.564
432.303, 151.852
433.644, 183.112
434.984, 180.353
436.325, 156.568
437.665, 191.748
439.005, 133.857
440.344, 191.822
441.684, 190.713
443.023, 153.590
444.362, 215.462
445.700, 135.328
447.039, 202.189
448.377, 193.053
449.715, 212.909
451.053, 158.758
452.390, 189.602
453.728, 204.564
455.065, 247.255
456.402, 243.943
457.739, 249.507
459.075, 221.074
460.411, 202.640
461.747, 237.225
463.083, 306.819
464.419, 296.417
465.754, 346.012
467.089, 306.707
468.424, 351.320
469.759, 357.938
471.093, 364.558
472.427, 451.179
473.761, 396.635
475.095, 438.999
476.429, 485.204
477.762, 465.271
479.095, 459.913
480.428, 455.669
481.760, 440.531
483.093, 512.466
484.425, 484.349
485.757, 490.088
487.089, 543.489
488.420, 645.378
489.752, 688.613
491.083, 821.525
492.414, 974.372
493.744, 1099.521
495.075, 1285.499
496.405, 1482.623
497.735, 1480.576
499.065, 1673.354
500.394, 1475.373
501.723, 1331.074
503.052, 1385.905
504.381, 1275.741
505.710, 1244.496
507.038, 1194.289
508.366, 1247.238
509.694, 1188.475
511.022, 1165.729
512.350, 1129.351
513.677, 1014.562
515.004, 875.766
516.331, 804.027
517.658, 818.071
518.984, 678.965
520.310, 645.632
521.636, 758.662
522.962, 700.656
524.287, 782.568
525.613, 927.632
526.938, 991.067
528.263, 1174.811
529.587, 1204.403
530.912, 1064.961
532.236, 1147.605
533.560, 981.387
534.883, 809.890
536.207, 723.744
537.530, 682.087
538.853, 597.699
540.176, 558.567
541.499, 633.565
542.821, 550.569
544.143, 636.340
545.465, 717.550
546.787, 920.270
548.109, 1227.152
549.430, 1441.029
550.751, 1835.052
552.072, 2000.613
553.393, 1891.258
554.713, 1517.846
556.033, 1206.338
557.353, 883.858
558.673, 709.221
559.993, 600.606
561.312, 511.907
562.631, 403.192
563.950, 442.463
565.269, 406.719
566.587, 355.962
567.905, 418.189
569.223, 417.403
570.541, 434.602
571.859, 419.787
573.176, 425.957
574.493, 447.114
575.810, 474.320
577.127, 532.184
578.443, 589.499
579.759, 720.599
581.075, 850.686
582.391, 1054.758
583.707, 1321.817
585.022, 1965.862
586.337, 2845.894
587.652, 3987.911
588.967, 6331.919
590.281, 10002.912
591.596, 14593.894
592.910, 20254.859
594.223, 22515.816
595.537, 19176.754
596.850, 13607.687
598.164, 8198.599
599.477, 5290.500
600.789, 3514.391
602.102, 2490.382
603.414, 1959.380
604.726, 1457.414
606.038, 1248.330
607.350, 1063.159
608.661, 841.194
609.972, 748.260
611.283, 652.669
612.594, 481.727
613.905, 411.176
615.215, 398.254
616.525, 370.502
617.835, 210.335
619.145, 227.996
620.454, 183.517
621.763, 240.437
623.072, 183.415
624.381, 99.731
625.690, 168.183
626.998, 152.934
628.306, 164.811
629.614, 136.699
630.922, 122.292
632.229, 114.360
633.537, 74.113
634.844, 70.516
636.151, 44.281
637.457, 100.176
638.764, 87.791
640.070, 48.549
641.376, 76.187
642.682, 47.859
643.987, 2.528
645.292, 65.027
646.598, 11.510
647.902, 65.026
649.207, 4.585
650.512, 16.793
651.816, 40.153
653.120, 18.496
654.424, 43.820
655.727, 84.127
657.031, 10.418
658.334, 47.690
659.637, 67.947
660.939, 65.186
662.242, 72.410
663.544, 72.618
664.846, 25.809
666.148, 108.983
667.450, 88.143
668.751, 68.299
670.052, 13.461
671.353, 26.097
672.654, 23.189
673.955, 37.967
675.255, 10.888
676.555, 1.772
677.855, 10.680
679.155, 18.382
680.454, 27.426
681.754, 8.548
683.053, 30.551
684.352, 35.594
685.650, 33.356
686.949, 19.807
688.247, 4.969
689.545, 26.844
690.843, 33.639
692.140, 26.582
693.437, 81.160
694.735, 57.888
696.031, 23.400
697.328, 26.725
698.625, 10.087
699.921, 30.522
701.217, 13.886
702.513, 6.324
703.808, 10.210
705.104, 41.274
706.399, 4.197
707.694, 65.647
708.989, 43.082
710.283, 53.500
711.577, 74.145
712.872, 64.288
714.166, 97.659
715.459, 89.015
716.753, 105.357
718.046, 173.685
719.339, 174.999
720.632, 161.299
721.924, 273.585
723.217, 275.858
724.509, 353.117
725.801, 349.363
727.093, 406.595
728.384, 453.813
729.676, 557.019
730.967, 634.211
732.258, 638.389
733.548, 674.555
734.839, 668.398
736.129, 679.848
737.419, 620.975
738.709, 611.089
739.999, 572.190
741.288, 533.279
742.577, 551.355
743.866, 491.419
745.155, 480.471
746.443, 414.510
747.732, 281.537
749.020, 284.551
750.308, 193.554
751.596, 128.545
752.883, 218.523
754.170, 170.490
755.457, 125.445
756.744, 58.388
758.031, 53.318
759.317, 41.236
760.604, 26.860
761.890, 86.014
763.175, 29.876
764.461, 18.725
765.746, 20.439
767.031, 13.370
768.316, 5.834
769.601, 1.944
770.886, 83.293
772.170, 52.412
773.454, 58.896
774.738, 25.248
776.022, 20.373
777.305, 2.980
778.588, 23.426
779.871, 57.951
781.154, 15.426
782.437, 11.077
783.719, 4.569
785.001, 14.047
786.283, 10.501
787.565, 24.911
788.847, 28.859
790.128, 14.325
791.409, 37.613
792.690, 49.646
793.971, 12.844
795.251, 39.865
796.532, 27.993
797.812, 23.992
799.092, 74.402
800.371, 92.454
801.651, 122.151
802.930, 42.294
804.209, 79.223
805.488, 75.970
806.766, 63.877
808.045, 81.625
809.323, 97.532
810.601, 50.601
811.879, 152.227
813.156, 109.130
814.434, 73.109
815.711, 125.071
816.988, 119.056
818.264, 161.036
819.541, 208.790
820.817, 223.909
822.093, 212.935
823.369, 287.871
824.645, 290.494
825.920, 258.224
827.195, 412.882
828.470, 393.667
829.745, 497.084
831.020, 665.069
832.294, 647.490
833.569, 728.125
834.842, 795.831
836.116, 910.374
837.390, 1010.532
838.663, 1027.372
839.936, 1029.351
841.209, 1136.179
842.482, 1100.940
843.755, 1127.620
845.027, 1079.327
846.299, 1056.734
847.571, 1072.634
848.843, 940.436
850.114, 904.049
851.385, 889.457
852.656, 815.915
853.927, 784.595
855.198, 705.825
856.468, 729.535
857.738, 703.071
859.008, 699.604
860.278, 750.979
861.548, 728.812
862.817, 804.550
864.086, 814.331
865.355, 841.206
866.624, 1087.039
867.893, 1154.013
869.161, 1250.951
870.429, 1425.959
871.697, 1585.972
872.965, 1875.987
874.232, 2127.007
875.500, 2632.027
876.767, 2614.048
878.034, 2889.067
879.300, 2917.085
880.567, 3001.105
881.833, 2820.125
883.099, 2879.150
884.365, 2465.192
885.631, 2257.232
886.896, 2079.273
888.161, 1887.312
889.426, 1717.356
890.691, 1697.410
891.956, 1473.477
893.220, 1259.553
894.484, 1458.639
895.748, 1152.726
897.012, 1104.813
898.276, 1145.901
899.539, 1112.989
900.802, 1125.077
902.065, 1216.169
903.328, 1165.264
904.591, 1059.356
905.853, 1218.451
907.115, 1027.546
908.377, 1023.642
909.639, 970.625
910.900, 920.590
912.161, 899.513
913.423, 814.541
914.683, 731.645
915.944, 758.535
917.205, 653.383
918.465, 757.877
919.725, 659.711
920.985, 641.142
922.244, 565.941
923.504, 513.562
924.763, 591.586
926.022, 563.772
927.281, 477.090
928.540, 551.998
929.798, 495.838
931.056, 533.330
932.314, 464.676
933.572, 533.713
934.830, 489.614
936.087, 438.501
937.344, 542.435
938.601, 498.366
939.858, 518.364
941.115, 567.706
942.371, 584.676
943.627, 582.518
944.883, 581.654
946.139, 620.645
947.394, 601.758
948.650, 626.795
949.905, 612.896
951.160, 645.118
952.414, 682.345
953.669, 667.580
954.923, 699.806
956.177, 608.078
957.431, 652.357
958.685, 605.643
959.938, 517.935
961.192, 532.232
962.445, 508.538
963.698, 457.852
964.950, 473.170
966.203, 384.500
967.455, 381.814
968.707, 382.177
969.959, 345.524
971.211, 292.879
972.462, 286.257
973.713, 322.640
974.964, 259.031
976.215, 192.429
977.466, 276.833
978.716, 116.254
979.966, 221.683
981.217, 148.125
982.466, 199.578
983.716, 173.044
984.965, 95.518
986.215, 162.999
987.464, 107.494
988.712, 97.006
989.961, 101.539
991.209, 99.090
992.458, 180.657
993.706, 106.237
994.953, 139.823
996.201, 391.417
997.448, 216.237
998.695, 363.646
999.942, 87.271
1001.189, 162.913
1002.436, 199.571
1003.682, 148.639
1004.928, 214.322
1006.174, 152.020
1007.420, 183.729
1008.666, 130.018
1009.911, 123.755
1011.156, 109.869
1012.401, 144.621
1013.646, 158.380
1014.890, 80.555
1016.135, 126.327
1017.379, 99.104
1018.623, 73.922
1019.866, 120.711
1021.110, 65.810
1022.353, 89.428
1023.596, 86.189
1024.839, 145.094
1026.082, 105.916
1027.325, 121.742
1028.567, 77.574
1029.809, 101.194
1031.051, 51.035
1032.293, 128.268
1033.534, 137.349
1034.775, 138.204
1036.017, 84.064
1037.257, 80.004
1038.498, 215.798
1039.739, 69.187
1040.979, 51.042
1042.219, 166.343
1043.459, 75.312
1044.699, 88.555
1045.938, 103.604
1047.177, 90.544
1048.416, 97.819
1049.655, 116.476
1050.894, 95.181
1052.133, 86.245
1053.371, 91.160
1054.609, 75.954
1055.847, 89.971
1057.084, 66.136
1058.322, 97.145
1059.559, 102.078
1060.796, 68.019
1062.033, 168.962
1063.270, 61.917
1064.506, 92.652
1065.743, 143.616
1066.979, 65.611
1068.215, 174.589
1069.450, 111.601
1070.686, 108.271
1071.921, 200.263
1073.156, 73.351
1074.391, 117.375
1075.626, 70.418
1076.860, 45.472
1078.094, 77.531
1079.329, 115.592
1080.562, 106.667
1081.796, 103.759
1083.030, 99.859
1084.263, 124.477
1085.496, 135.516
1086.729, 162.575
1087.961, 180.692
1089.194, 157.589
1090.426, 202.944
1091.658, 150.166
1092.890, 137.313
1094.122, 123.462
1095.353, 138.615
1096.585, 86.769
1097.816, 143.926
1099.047, 104.086
1100.277, 53.302
1101.508, 137.465
1102.738, 104.630
1103.968, 100.832
1105.198, 115.000
1106.428, 117.169
1107.657, 114.279
1108.886, 58.512
1110.116, 104.156
1111.344, 91.330
1112.573, 77.505
1113.802, 105.653
1115.030, 88.538
1116.258, 75.124
1117.486, 90.302
1118.714, 55.482
1119.941, 72.981
1121.168, 84.162
1122.396, 1.343
1123.622, 96.625
1124.849, 39.807
1126.076, 72.987
1127.302, 116.590
1128.528, 11.771
1129.754, 127.985
1130.980, 46.166
1132.205, 58.348
1133.431, 110.826
1134.656, 63.103
1135.881, 76.283
1137.105, 8.461
1138.330, 42.640
1139.554, 76.816
1140.778, 65.293
1142.002, 39.468
1143.226, 58.679
1144.450, 11.852
1145.673, 28.023
1146.896, 91.477
1148.119, 19.646
1149.342, 38.812
1150.564, 10.821
1151.787, 7.337
1153.009, 80.494
1154.231, 7.649
1155.453, 13.195
1156.674, 60.000
1157.896, 25.854
1159.117, 45.276
1160.338, 33.431
1161.559, 25.443
1162.779, 80.667
1164.000, 36.774
1165.220, 3.879
1166.440, 20.981
1167.660, 21.480
1168.879, 13.396
1170.099, 15.235
1171.318, 17.111
1172.537, 33.938
1173.756, 19.983
1174.974, 35.315
1176.193, 10.936
1177.411, 27.092
1178.629, 19.883
1179.847, 64.874
1181.064, 25.096
1182.282, 50.061
1183.499, 5.023
1184.716, 11.019
1185.933, 36.073
1187.150, 43.152
1188.366, 33.989
1189.582, 28.373
1190.798, 0.552
1192.014, 3.294
1193.230, 17.136
1194.446, 17.972
1195.661, 7.805
1196.876, 6.368
1198.091, 5.009
1199.306, 52.259
1200.520, 12.065
1201.734, 26.867
1202.948, 7.665
1204.162, 12.456
1205.376, 62.242
1206.590, 7.677
1207.803, 45.092
1209.016, 55.857
1210.229, 3.383
1211.442, 138.366
1212.654, 28.111
1213.867, 102.852
1215.079, 28.589
1216.291, 16.680
1217.503, 102.032
1218.714, 20.738
1219.926, 64.439
1221.137, 60.135
1222.348, 42.826
1223.559, 49.512
1224.769, 64.192
1225.980, 38.867
1227.190, 51.537
1228.400, 44.201
1229.610, 10.268
1230.819, 90.372
1232.029, 1.994
1233.238, 116.655
1234.447, 279.268
1235.656, 184.236
1236.865, 22.479
1238.073, 131.075
1239.281, 49.666
1240.490, 57.252
1241.697, 60.833
1242.905, 115.410
1244.113, 81.980
1245.320, 32.546
1246.527, 50.130
1247.734, 79.683
1248.941, 38.231
1250.147, 120.768
1251.354, 97.300
1252.560, 92.805
1253.766, 110.306
1254.972, 10.799
1256.177, 112.283
1257.382, 78.760
1258.588, 1.231
1259.793, 104.690
1260.997, 25.143
1262.202, 54.681
1263.406, 87.119
1264.611, 51.449
1265.815, 65.964
1267.019, 121.362
1268.222, 27.746
1269.426, 108.125
1270.629, 87.496
1271.832, 14.861
1273.035, 113.217
1274.237, 43.567
1275.440, 66.122
1276.642, 115.449
1277.844, 19.769
1279.046, 30.084
1280.248, 83.389
1281.450, 77.686
1282.651, 78.977
1283.852, 58.262
1285.053, 20.539
1286.254, 108.809
1287.454, 44.072
1288.655, 60.330
1289.855, 88.581
1291.055, 21.826
1292.255, 62.063
1293.454, 87.294
1294.654, 0.520
1295.853, 120.339
1297.052, 99.544
1298.251, 103.743
1299.449, 80.593
1300.648, 42.208
1301.846, 84.388
1303.044, 111.195
1304.242, 46.363
1305.440, 100.533
1306.637, 103.272
1307.834, 94.415
1309.032, 113.552
1310.228, 113.003
1311.425, 4.229
1312.622, 127.584
1313.818, 29.877
1315.014, 34.027
1316.210, 115.032
1317.406, 88.120
1318.602, 119.202
1319.797, 106.278
1320.992, 87.566
1322.187, 107.684
1323.382, 86.306
1324.577, 99.130
1325.771, 108.180
1326.965, 67.224
1328.159, 159.189
1329.353, 176.296
1330.547, 122.809
1331.740, 109.855
1332.934, 71.455
1334.127, 100.388
1335.320, 101.534
1336.512, 92.908
1337.705, 121.348
1338.897, 108.309
1340.089, 109.221
1341.281, 162.408
1342.473, 129.728
1343.665, 54.214
1344.856, 122.113
1346.047, 102.067
1347.238, 134.919
1348.429, 127.804
1349.620, 6.766
1350.810, 162.723
1352.001, 82.680
1353.191, 104.634
1354.380, 156.810
1355.570, 81.085
1356.760, 153.006
1357.949, 182.954
1359.138, 71.806
1360.327, 82.004
1361.516, 199.877
1362.704, 115.679
1363.893, 202.545
1365.081, 88.407
1366.269, 40.265
1367.457, 173.118
1368.644, 33.965
1369.832, 149.787
1371.019, 99.606
1372.206, 5.578
1373.393, 130.792
1374.579, 118.600
1375.766, 17.461
1376.952, 160.272
1378.138, 130.090
1379.324, 91.924
1380.510, 311.740
1381.695, 203.401
1382.881, 182.756
1384.066, 194.715
1385.251, 40.696
1386.436, 110.722
1387.620, 119.699
1388.805, 17.703
1389.989, 166.196
1391.173, 143.174
1392.357, 57.090
1393.540, 96.911
1394.724, 34.087
1395.907, 125.967
1397.090, 109.722
1398.273, 17.102
1399.456, 156.904
1400.638, 99.730
1401.820, 38.086
1403.003, 102.885
1404.184, 3.672
1405.366, 136.087
1406.548, 156.803
1407.729, 12.202
1408.910, 101.936
1410.091, 99.155
1411.272, 72.854
1412.453, 137.475
1413.633, 90.157
1414.814, 33.800
1415.994, 171.481
1417.174, 0.849
1418.353, 49.872
1419.533, 157.325
1420.712, 6.989
1421.891, 138.641
1423.070, 149.292
1424.249, 333.975
1425.428, 283.674
1426.606, 119.371
1427.784, 40.116
1428.962, 143.917
1430.140, 9.700
1431.318, 109.479
1432.495, 89.031
1433.672, 72.039
1434.849, 95.813
1436.026, 85.584
1437.203, 96.864
1438.380, 134.630
1439.556, 151.399
1440.732, 9.840
1441.908, 129.927
1443.084, 40.705
1444.259, 21.478
1445.435, 136.247
1446.610, 1.012
1447.785, 93.129
1448.960, 176.885
1450.134, 52.598
1451.309, 72.362
1452.483, 121.122
1453.657, 110.871
1454.831, 148.608
1456.005, 91.286
1457.179, 87.009
1458.352, 151.743
1459.525, 39.562
1460.698, 87.382
1461.871, 179.207
1463.043, 28.039
1464.216, 102.655
1465.388, 180.478
1466.560, 18.344
1467.732, 144.232
1468.904, 115.130
1470.075, 4.466
1471.247, 183.417
1472.418, 56.371
1473.589, 75.350
1474.759, 123.340
1475.930, 39.659
1477.100, 119.350
1478.271, 98.368
1479.441, 98.397
1480.610, 288.454
1481.780, 275.247
1482.949, 52.265
1484.119, 101.294
1485.288, 137.333
1486.457, 78.449
1487.625, 99.585
1488.794, 66.746
1489.962, 53.937
1491.131, 154.156
1492.299, 27.403
1493.466, 113.684
1494.634, 91.005
1495.801, 3.642
1496.969, 83.779
1498.136, 93.239
1499.303, 25.497
1500.469, 81.219
1501.636, 40.897
1502.802, 0.669
1503.968, 157.399
1505.134, 51.068
1506.300, 16.651
1507.466, 146.119
1508.631, 23.428
1509.796, 92.830
1510.961, 62.031
1512.126, 8.950
1513.291, 139.881
1514.455, 38.845
1515.620, 96.926
1516.784, 143.228
1517.948, 4.286
1519.111, 93.769
1520.275, 127.703
1521.438, 0.000
##END=



