##NAMES=Cinnabar
##RRUFFID=R070532
##IDEAL CHEMISTRY=HgS
##LOCALITY=Charcas, San Luis Potosi, Mexico
##OWNER=RRUFF
##SOURCE=James Shigley
##DESCRIPTION=Red prismatic crystals associated with calcite
##STATUS=The identification of this mineral is confirmed by single-crystal X-ray diffraction and chemical analysis.
##URL=rruff.info/R070532
##MEASURED CHEMISTRY=Hg_1.00_S_1.00_
151.1196, 0.0000000E+00
151.6017, 5.502075
152.0838, 6.496460
152.5659, 0.5904540
153.0481, 0.4752200
153.5302, 6.781006
154.0123, 26.35876
154.4944, 47.88184
154.9765, 59.91931
155.4586, 44.06592
155.9408, 34.00903
156.4229, 41.86084
156.9050, 70.25952
157.3871, 87.27881
157.8692, 90.51294
158.3513, 85.36670
158.8335, 78.63574
159.3156, 70.13245
159.7977, 61.73145
160.2798, 53.71216
160.7619, 43.08105
161.2440, 38.20410
161.7262, 47.33594
162.2083, 64.69360
162.6904, 75.74377
163.1725, 69.66174
163.6546, 58.81641
164.1367, 51.57605
164.6189, 51.55493
165.1010, 54.70361
165.5831, 60.50940
166.0652, 61.84424
166.5473, 62.67017
167.0294, 61.57935
167.5116, 60.40369
167.9937, 60.92810
168.4758, 65.90271
168.9579, 74.42078
169.4400, 79.26050
169.9221, 83.73633
170.4043, 86.03552
170.8864, 85.85620
171.3685, 84.44397
171.8506, 78.16553
172.3327, 57.48669
172.8148, 37.50635
173.2970, 34.21655
173.7791, 49.59827
174.2612, 66.82495
174.7433, 73.14709
175.2254, 67.56628
175.7076, 56.89417
176.1897, 44.66394
176.6718, 33.46423
177.1539, 27.84412
177.6360, 28.79907
178.1181, 30.17615
178.6003, 23.57019
179.0824, 12.55579
179.5645, 3.868652
180.0466, 8.792603
180.5287, 23.79260
181.0108, 43.71338
181.4930, 72.25891
181.9751, 97.01709
182.4572, 95.22424
182.9393, 69.79675
183.4214, 44.05933
183.9035, 38.15649
184.3857, 45.23206
184.8678, 44.52637
185.3499, 28.12122
185.8320, 5.855591
186.3141, 2.887939
186.7962, 1.786011
187.2784, 10.38721
187.7605, 15.26074
188.2426, 17.12732
188.7247, 20.25269
189.2068, 28.04553
189.6889, 36.78271
190.1711, 34.31274
190.6532, 19.52673
191.1353, 3.159546
191.6174, 3.484131
192.0995, 0.9981690
192.5816, 3.402710
193.0638, 8.669800
193.5459, 14.17871
194.0280, 16.46619
194.5101, 15.11365
194.9922, 12.36023
195.4743, 11.71558
195.9565, 13.25037
196.4386, 12.52905
196.9207, 6.082153
197.4028, 5.358643
197.8849, 12.00208
198.3671, 13.40344
198.8492, 11.04968
199.3313, 5.740479
199.8134, 3.224121
200.2955, 9.806763
200.7776, 10.58301
201.2598, 5.317017
201.7419, 0.8017580
202.2240, 2.911987
202.7061, 5.923462
203.1882, 8.486816
203.6703, 10.70422
204.1525, 12.22925
204.6346, 12.45068
205.1167, 11.07861
205.5988, 11.55273
206.0809, 15.58118
206.5630, 20.39258
207.0452, 17.24255
207.5273, 2.971924
208.0094, 9.852539
208.4915, 12.48596
208.9736, 2.562256
209.4557, 2.508667
209.9379, 0.5191650
210.4200, 8.811157
210.9021, 11.73047
211.3842, 6.783447
211.8663, 2.115967
212.3484, 4.524048
212.8306, 16.98059
213.3127, 24.35754
213.7948, 22.41016
214.2769, 13.72131
214.7590, 13.71265
215.2411, 25.37744
215.7233, 40.31433
216.2054, 51.99841
216.6875, 59.38806
217.1696, 66.88257
217.6517, 76.57642
218.1338, 87.71753
218.6160, 89.61865
219.0981, 75.50305
219.5802, 61.84937
220.0623, 65.56140
220.5444, 95.98523
221.0265, 119.7515
221.5087, 128.9811
221.9908, 123.8903
222.4729, 123.4099
222.9550, 128.0369
223.4371, 136.6664
223.9192, 149.0092
224.4014, 166.5415
224.8835, 183.8123
225.3656, 198.2603
225.8477, 209.5001
226.3298, 228.4270
226.8119, 261.9036
227.2941, 296.3981
227.7762, 314.2538
228.2583, 300.4548
228.7404, 299.4845
229.2225, 326.3108
229.7046, 385.4302
230.1868, 431.0780
230.6689, 456.2272
231.1510, 473.1917
231.6331, 497.9817
232.1152, 534.0839
232.5974, 571.1548
233.0795, 604.9727
233.5616, 632.3610
234.0437, 674.1149
234.5258, 733.4313
235.0079, 805.3933
235.4901, 884.2125
235.9722, 973.9062
236.4543, 1063.866
236.9364, 1151.133
237.4185, 1235.745
237.9006, 1317.539
238.3828, 1391.881
238.8649, 1465.838
239.3470, 1552.781
239.8291, 1655.730
240.3112, 1766.400
240.7933, 1882.656
241.2755, 2008.049
241.7576, 2127.382
242.2397, 2235.731
242.7218, 2340.501
243.2039, 2453.870
243.6860, 2572.208
244.1682, 2704.867
244.6503, 2859.404
245.1324, 3049.808
245.6145, 3216.557
246.0966, 3347.752
246.5787, 3461.303
247.0609, 3591.436
247.5430, 3742.646
248.0251, 3903.368
248.5072, 4075.534
248.9893, 4271.955
249.4714, 4433.722
249.9536, 4553.422
250.4357, 4642.834
250.9178, 4730.501
251.3999, 4837.143
251.8820, 4905.533
252.3641, 4911.507
252.8463, 4845.011
253.3284, 4746.603
253.8105, 4621.011
254.2926, 4462.522
254.7747, 4254.643
255.2568, 3975.606
255.7390, 3683.837
256.2211, 3397.788
256.7032, 3119.718
257.1853, 2847.473
257.6674, 2576.565
258.1495, 2315.547
258.6317, 2087.545
259.1138, 1901.306
259.5959, 1734.676
260.0780, 1580.358
260.5601, 1435.519
261.0422, 1307.661
261.5244, 1199.781
262.0065, 1106.902
262.4886, 1020.710
262.9707, 939.9596
263.4528, 867.1600
263.9349, 801.9628
264.4171, 742.6331
264.8992, 697.8077
265.3813, 672.7253
265.8634, 657.7249
266.3455, 631.6750
266.8276, 590.0344
267.3098, 548.1523
267.7919, 511.1417
268.2740, 478.1459
268.7561, 455.8885
269.2382, 448.3489
269.7203, 448.6613
270.2025, 442.4100
270.6846, 427.6886
271.1667, 412.2520
271.6488, 398.8064
272.1309, 387.1594
272.6130, 379.0763
273.0952, 374.6548
273.5773, 373.7301
274.0594, 375.9053
274.5415, 381.0455
275.0236, 389.7424
275.5057, 404.9963
275.9879, 428.3630
276.4700, 441.6726
276.9521, 442.2732
277.4342, 436.1310
277.9163, 432.2078
278.3984, 429.7689
278.8806, 433.9122
279.3627, 450.4417
279.8448, 479.7306
280.3269, 500.5905
280.8090, 509.4556
281.2911, 515.1794
281.7733, 536.5394
282.2554, 575.4988
282.7375, 608.1284
283.2196, 616.8743
283.7017, 603.5242
284.1838, 608.0833
284.6660, 634.0518
285.1481, 670.9946
285.6302, 709.4946
286.1123, 749.7036
286.5944, 776.9668
287.0765, 780.6470
287.5587, 763.6206
288.0408, 746.1544
288.5229, 728.5322
289.0050, 710.0548
289.4871, 690.3424
289.9692, 669.2452
290.4514, 645.4204
290.9335, 619.3357
291.4156, 590.1495
291.8977, 553.4124
292.3798, 507.7939
292.8619, 460.4707
293.3441, 420.6707
293.8262, 387.2178
294.3083, 355.6853
294.7904, 324.2938
295.2726, 293.2153
295.7547, 261.9169
296.2368, 230.3486
296.7189, 201.3329
297.2010, 178.9940
297.6831, 162.3190
298.1653, 147.5574
298.6474, 131.7231
299.1295, 117.4424
299.6116, 110.3279
300.0937, 110.6158
300.5758, 112.6139
301.0580, 113.6887
301.5401, 112.5892
302.0222, 106.2041
302.5043, 88.24475
302.9864, 67.30872
303.4685, 55.10229
303.9507, 51.30579
304.4328, 50.83728
304.9149, 52.20715
305.3970, 53.77588
305.8791, 52.73242
306.3612, 45.90088
306.8434, 37.87402
307.3255, 33.82361
307.8076, 33.96375
308.2897, 34.94507
308.7718, 33.81091
309.2539, 31.72327
309.7361, 30.58435
310.2182, 33.66101
310.7003, 34.59412
311.1824, 26.12341
311.6645, 10.74939
312.1466, 2.350708
312.6288, 10.47571
313.1109, 12.89307
313.5930, 7.996948
314.0751, 12.59766
314.5572, 29.66968
315.0393, 30.00354
315.5215, 17.55847
316.0036, 6.440918
316.4857, 1.805786
316.9678, 1.242188
317.4499, 3.410889
317.9320, 9.036255
318.4142, 15.27722
318.8963, 22.28003
319.3784, 28.97217
319.8605, 33.02258
320.3426, 34.68152
320.8247, 32.82410
321.3069, 25.31775
321.7890, 5.861084
322.2711, 6.159302
322.7532, 2.427124
323.2353, 11.16748
323.7174, 23.59912
324.1996, 31.32703
324.6817, 38.79785
325.1638, 48.08679
325.6459, 61.16162
326.1280, 71.05737
326.6101, 78.90308
327.0923, 82.83850
327.5744, 80.11511
328.0565, 55.55103
328.5386, 39.17419
329.0207, 41.27930
329.5028, 68.08252
329.9850, 85.93799
330.4671, 89.52869
330.9492, 87.09070
331.4313, 87.28674
331.9134, 88.64685
332.3955, 94.92566
332.8777, 109.2791
333.3598, 132.0460
333.8419, 148.4774
334.3240, 155.6057
334.8061, 159.6102
335.2882, 165.8998
335.7704, 175.8634
336.2525, 185.5194
336.7346, 194.3137
337.2167, 201.9983
337.6988, 209.9764
338.1809, 218.9127
338.6631, 227.1705
339.1452, 233.3254
339.6273, 237.1998
340.1094, 240.2513
340.5915, 242.7548
341.0736, 244.6289
341.5558, 245.4902
342.0379, 245.3732
342.5200, 244.1722
343.0021, 241.0458
343.4842, 236.0576
343.9663, 233.9410
344.4485, 236.9338
344.9306, 241.4894
345.4127, 237.6250
345.8948, 224.7740
346.3769, 213.2534
346.8590, 212.8611
347.3412, 221.0424
347.8233, 224.5267
348.3054, 221.5829
348.7875, 217.6420
349.2696, 222.8241
349.7517, 234.6016
350.2339, 241.1693
350.7160, 235.5491
351.1981, 221.1840
351.6802, 202.2670
352.1623, 178.3170
352.6444, 156.0436
353.1266, 143.9541
353.6087, 138.5659
354.0908, 132.8995
354.5729, 122.8237
355.0550, 111.7075
355.5371, 105.0699
356.0193, 102.8094
356.5014, 99.18164
356.9835, 89.69812
357.4656, 76.70337
357.9477, 63.01550
358.4298, 47.92773
358.9120, 34.50867
359.3941, 24.62708
359.8762, 18.03162
360.3583, 13.68872
360.8404, 12.06396
361.3225, 12.01440
361.8047, 12.99658
362.2868, 16.26172
362.7689, 18.25830
363.2510, 18.61279
363.7331, 16.71045
364.2152, 11.11279
364.6974, 5.584473
365.1795, 20.54944
365.6616, 27.41748
366.1437, 22.51343
366.6258, 17.40881
367.1079, 15.64453
367.5901, 14.32886
368.0722, 9.011230
368.5543, 10.37073
369.0364, 24.53296
369.5185, 27.05225
370.0006, 15.35413
370.4828, 6.354370
370.9649, 1.654419
371.4470, 1.000732
371.9291, 4.167603
372.4112, 9.940552
372.8933, 12.97583
373.3755, 11.13306
373.8576, 4.978516
374.3397, 2.604980
374.8218, 6.345825
375.3039, 10.27698
375.7860, 9.817261
376.2682, 3.897339
376.7503, 1.880005
377.2324, 7.046997
377.7145, 11.59351
378.1967, 15.43848
378.6788, 18.44873
379.1609, 21.27295
379.6430, 25.46350
380.1251, 30.87341
380.6072, 31.03455
381.0894, 23.96350
381.5715, 14.85498
382.0536, 12.58289
382.5357, 16.82178
383.0178, 21.37146
383.4999, 22.54504
383.9821, 21.72888
384.4642, 24.10059
384.9463, 30.08557
385.4284, 35.69836
385.9105, 35.33826
386.3926, 31.32715
386.8748, 30.16479
387.3569, 37.79443
387.8390, 46.67334
388.3211, 45.32690
388.8032, 34.82593
389.2853, 26.01526
389.7675, 31.16907
390.2496, 40.47058
390.7317, 40.96960
391.2138, 23.35132
391.6959, 6.392456
392.1780, 4.420776
392.6602, 13.13318
393.1423, 19.79834
393.6244, 12.40210
394.1065, 5.570801
394.5886, 11.00647
395.0707, 36.83276
395.5529, 54.79211
396.0350, 48.58582
396.5171, 30.70032
396.9992, 19.44360
397.4813, 26.43152
397.9634, 33.34216
398.4456, 33.56323
398.9277, 25.32104
399.4098, 21.35596
399.8919, 29.97156
400.3740, 38.86572
400.8561, 37.92090
401.3383, 17.61707
401.8204, 1.275635
402.3025, 9.977783
402.7846, 15.84790
403.2667, 11.23010
403.7488, 10.78430
404.2310, 32.66333
404.7131, 44.14307
405.1952, 43.08960
405.6773, 39.12793
406.1594, 29.63904
406.6415, 19.29443
407.1237, 19.37024
407.6058, 32.07214
408.0879, 42.00256
408.5700, 39.19727
409.0521, 25.24731
409.5342, 24.36877
410.0164, 38.15039
410.4985, 52.15649
410.9806, 44.34460
411.4627, 18.71155
411.9448, 1.557129
412.4269, 5.848877
412.9091, 20.64050
413.3912, 24.04431
413.8733, 16.96045
414.3554, 8.881226
414.8375, 7.781372
415.3196, 10.75818
415.8018, 12.45044
416.2839, 9.867432
416.7660, 7.031982
417.2481, 6.898315
417.7302, 9.297974
418.2123, 13.86694
418.6945, 25.05188
419.1766, 35.23108
419.6587, 37.49268
420.1408, 29.70569
420.6229, 22.85437
421.1050, 22.07361
421.5872, 24.63635
422.0693, 27.41614
422.5514, 31.25391
423.0335, 32.23340
423.5156, 28.13892
423.9977, 19.87415
424.4799, 15.35767
424.9620, 19.33459
425.4441, 24.34045
425.9262, 26.24133
426.4083, 21.17822
426.8904, 18.83972
427.3726, 20.40576
427.8547, 24.73877
428.3368, 28.42944
428.8189, 30.12524
429.3010, 33.65381
429.7831, 42.56750
430.2653, 58.69922
430.7474, 63.75513
431.2295, 55.19556
431.7116, 41.19360
432.1937, 29.71826
432.6758, 20.18762
433.1580, 16.13269
433.6401, 20.85315
434.1222, 31.62048
434.6043, 38.45972
435.0864, 41.06274
435.5685, 41.40125
436.0507, 41.83606
436.5328, 41.30920
437.0149, 35.17773
437.4970, 20.01819
437.9791, 5.702515
438.4612, 8.067749
438.9434, 22.30408
439.4255, 33.22485
439.9076, 26.12915
440.3897, 15.49561
440.8718, 18.47473
441.3539, 36.98132
441.8361, 53.86462
442.3182, 59.71545
442.8003, 58.10913
443.2824, 53.11133
443.7645, 42.10205
444.2466, 31.87634
444.7288, 23.98755
445.2109, 18.67737
445.6930, 17.32800
446.1751, 22.98511
446.6572, 30.57056
447.1393, 37.56018
447.6215, 44.24695
448.1036, 49.63879
448.5857, 56.37756
449.0678, 60.99719
449.5499, 56.85779
450.0320, 36.77722
450.5142, 20.43347
450.9963, 13.87598
451.4784, 17.42529
451.9605, 18.72839
452.4426, 16.95129
452.9247, 15.61841
453.4069, 18.65466
453.8890, 26.67615
454.3711, 32.52014
454.8532, 35.11743
455.3353, 34.94299
455.8174, 30.80212
456.2996, 22.75623
456.7817, 18.25818
457.2638, 27.55945
457.7459, 43.30200
458.2280, 43.48022
458.7102, 25.15564
459.1923, 4.931396
459.6744, 0.3680420
460.1565, 4.569946
460.6386, 10.17358
461.1208, 20.38940
461.6029, 28.52966
462.0850, 22.42297
462.5671, 5.279907
463.0492, 4.766235
463.5313, 9.299561
464.0135, 29.39661
464.4956, 42.18457
464.9777, 45.41711
465.4598, 42.04700
465.9419, 25.17981
466.4240, 3.500854
466.9062, 8.525513
467.3883, 0.2021480
467.8704, 9.985352
468.3525, 15.53406
468.8346, 16.20959
469.3167, 18.97314
469.7989, 25.67737
470.2810, 32.18066
470.7631, 35.55969
471.2452, 36.07690
471.7273, 30.27686
472.2094, 14.10535
472.6916, 5.853516
473.1737, 12.55798
473.6558, 4.249878
474.1379, 5.925171
474.6200, 12.58459
475.1021, 16.07275
475.5843, 18.59827
476.0664, 20.33264
476.5485, 20.70825
477.0306, 16.21631
477.5127, 9.309326
477.9948, 8.651367
478.4770, 21.78186
478.9591, 36.25879
479.4412, 33.76428
479.9233, 17.97766
480.4054, 5.069702
480.8875, 5.277588
481.3697, 12.01526
481.8518, 20.58386
482.3339, 30.91968
482.8160, 40.53613
483.2981, 51.88379
483.7802, 60.72510
484.2624, 61.43274
484.7445, 36.76343
485.2266, 20.75085
485.7087, 29.44202
486.1908, 60.16504
486.6729, 75.35754
487.1551, 60.17761
487.6372, 42.69104
488.1193, 36.78076
488.6014, 48.19458
489.0835, 57.66016
489.5656, 66.19275
490.0478, 71.85596
490.5299, 70.96570
491.0120, 62.16248
491.4941, 53.40271
491.9762, 46.41357
492.4583, 41.37439
492.9405, 40.42749
493.4226, 43.93835
493.9047, 46.87000
494.3868, 43.74866
494.8689, 36.76392
495.3510, 32.74231
495.8332, 32.85388
496.3153, 35.62317
496.7974, 40.85217
497.2795, 47.37720
497.7616, 52.36475
498.2437, 54.92651
498.7259, 55.35596
499.2080, 53.93250
499.6901, 49.68079
500.1722, 44.26367
500.6543, 33.93811
501.1364, 25.52197
501.6186, 24.81128
502.1007, 43.66931
502.5828, 54.46973
503.0649, 44.53650
503.5470, 23.67932
504.0291, 16.74133
504.5113, 40.47375
504.9934, 57.53345
505.4755, 56.17896
505.9576, 35.56433
506.4397, 18.57788
506.9218, 2.890747
507.4040, 4.773071
507.8861, 5.758057
508.3682, 37.16821
508.8503, 56.71082
509.3324, 58.50842
509.8145, 49.97693
510.2967, 42.52747
510.7788, 36.35583
511.2609, 33.84656
511.7430, 41.04834
512.2252, 51.38953
512.7073, 50.49316
513.1894, 38.19727
513.6715, 24.44214
514.1536, 14.79871
514.6357, 9.033447
515.1179, 7.938721
515.6000, 15.70557
516.0821, 20.27466
516.5642, 7.364014
517.0463, 12.87183
517.5284, 19.57397
518.0106, 12.31079
518.4927, 41.96765
518.9748, 51.35278
519.4569, 37.30518
519.9390, 28.51147
520.4211, 31.01233
520.9033, 34.32837
521.3854, 31.92810
521.8675, 18.55725
522.3496, 10.46509
522.8317, 8.519409
523.3138, 12.31616
523.7960, 24.76855
524.2781, 49.04895
524.7602, 62.18518
525.2423, 49.97253
525.7244, 18.80652
526.2065, 4.574097
526.6887, 7.860229
527.1708, 17.87732
527.6529, 30.37891
528.1350, 42.19409
528.6171, 45.08118
529.0992, 33.66614
529.5814, 21.88257
530.0635, 25.03296
530.5456, 36.73315
531.0277, 45.05481
531.5098, 42.62158
531.9919, 38.57825
532.4741, 38.56079
532.9562, 42.34558
533.4383, 42.79053
533.9204, 31.14343
534.4025, 20.25403
534.8846, 18.33618
535.3668, 32.70410
535.8489, 44.66675
536.3310, 57.22705
536.8131, 65.90637
537.2952, 61.72009
537.7773, 37.21301
538.2595, 21.11328
538.7416, 23.50696
539.2237, 40.16785
539.7058, 47.44946
540.1879, 44.53369
540.6700, 40.52515
541.1522, 45.46216
541.6343, 55.10352
542.1164, 50.12817
542.5985, 26.16211
543.0806, 3.001587
543.5627, 2.873413
544.0449, 18.52612
544.5270, 36.11279
545.0091, 58.52942
545.4912, 73.52881
545.9733, 65.76685
546.4554, 41.48743
546.9376, 24.44653
547.4197, 34.42175
547.9018, 45.75488
548.3839, 43.36365
548.8660, 20.01819
549.3481, 4.513916
549.8303, 1.362549
550.3124, 5.499512
550.7945, 14.09717
551.2766, 33.46484
551.7587, 42.41064
552.2408, 35.04333
552.7230, 17.86011
553.2051, 7.125366
553.6872, 2.814697
554.1693, 5.195801
554.6514, 21.23950
555.1335, 45.17627
555.6157, 43.73743
556.0978, 15.98328
556.5799, 8.226563
557.0620, 4.603027
557.5441, 38.25366
558.0262, 63.85120
558.5084, 76.36255
558.9905, 76.00708
559.4726, 50.01685
559.9547, 13.06055
560.4368, 8.708252
560.9189, 12.28345
561.4011, 33.80127
561.8832, 36.83887
562.3653, 22.10181
562.8474, 11.65356
563.3295, 12.81104
563.8116, 15.54663
564.2938, 15.25220
564.7759, 10.73340
565.2580, 7.288330
565.7401, 5.292725
566.2222, 5.755127
566.7043, 10.48682
567.1865, 19.89819
567.6686, 30.12622
568.1507, 42.81519
568.6328, 53.32153
569.1149, 44.37036
569.5970, 18.54663
570.0792, 3.100830
570.5613, 30.50781
571.0434, 71.20264
571.5255, 77.09692
572.0076, 44.97095
572.4897, 14.87671
572.9719, 20.83276
573.4540, 39.81787
573.9361, 46.49658
574.4182, 24.76392
574.9003, 6.799316
575.3824, 6.987061
575.8646, 18.42773
576.3467, 23.29346
576.8288, 9.163330
577.3109, 2.232910
577.7930, 12.04517
578.2751, 37.18018
578.7573, 49.69531
579.2394, 46.85889
579.7215, 40.57422
580.2036, 40.08228
580.6857, 45.24731
581.1678, 38.24194
581.6500, 15.88159
582.1321, 7.169922
582.6142, 10.63452
583.0963, 0.1992190
583.5784, 9.227539
584.0605, 12.33301
584.5427, 11.22729
585.0248, 6.352539
585.5069, 0.5500490
585.9890, 5.030273
586.4711, 3.380127
586.9532, 6.8847999E-02
587.4354, 2.720215
587.9175, 4.859863
588.3996, 6.630127
588.8817, 8.333008
589.3638, 9.342285
589.8459, 9.131592
590.3281, 5.447754
590.8102, 5.265381
591.2923, 10.58105
591.7744, 17.29614
592.2565, 17.23340
592.7386, 8.949951
593.2208, 7.770752
593.7029, 20.92383
594.1850, 41.30103
594.6671, 51.11475
595.1492, 51.06836
595.6313, 45.57178
596.1135, 30.77173
596.5956, 16.37793
597.0777, 19.02417
597.5598, 40.25000
598.0419, 58.83691
598.5240, 59.28931
599.0062, 52.28760
599.4883, 47.71313
599.9704, 47.99731
600.4525, 50.41992
600.9346, 59.81030
601.4167, 69.73364
601.8989, 68.28931
602.3810, 45.21655
602.8631, 27.41089
603.3452, 22.86865
603.8273, 28.88428
604.3094, 29.26953
604.7916, 22.25830
605.2737, 16.98755
605.7558, 19.80835
606.2379, 29.15332
606.7200, 38.07544
607.2021, 46.64282
607.6843, 52.86230
608.1664, 53.00269
608.6485, 50.12012
609.1306, 49.40894
609.6127, 51.91406
610.0948, 56.68604
610.5770, 70.11987
611.0591, 84.80347
611.5412, 87.77026
612.0233, 64.04053
612.5054, 39.71265
612.9875, 17.50781
613.4697, 0.8791500
613.9518, 0.1762700
614.4339, 34.80029
614.9160, 66.04590
615.3981, 73.06641
615.8802, 53.25366
616.3624, 40.87915
616.8445, 36.85840
617.3266, 37.62036
617.8087, 42.25903
618.2908, 48.79736
618.7729, 49.77417
619.2551, 41.61426
619.7372, 32.39917
620.2193, 35.21387
620.7014, 43.65796
621.1835, 44.15088
621.6656, 13.74097
622.1478, 10.35669
622.6299, 0.3652340
623.1120, 35.84253
623.5941, 62.47388
624.0762, 65.39062
624.5583, 61.35645
625.0405, 55.27344
625.5226, 46.24756
626.0047, 43.56421
626.4868, 50.17285
626.9689, 58.53979
627.4510, 63.28076
627.9332, 64.35059
628.4153, 61.60962
628.8974, 54.67603
629.3795, 44.35352
629.8616, 26.76611
630.3438, 5.526367
630.8259, 5.206055
631.3080, 3.227539
631.7901, 19.33643
632.2722, 36.52832
632.7543, 52.38867
633.2365, 60.17798
633.7186, 54.10767
634.2007, 42.13501
634.6828, 23.67871
635.1649, 1.954102
635.6470, 14.25146
636.1292, 1.074951
636.6113, 16.45532
637.0934, 27.46753
637.5755, 30.18506
638.0576, 32.42065
638.5397, 34.38989
639.0219, 35.60645
639.5040, 36.46411
639.9861, 35.73999
640.4682, 28.12085
640.9503, 9.342773
641.4324, 8.276855
641.9146, 1.715576
642.3967, 20.99634
642.8788, 38.34741
643.3609, 35.24146
643.8430, 26.73169
644.3251, 21.94800
644.8073, 20.99243
645.2894, 22.49268
645.7715, 27.05811
646.2536, 33.18896
646.7357, 42.85352
647.2178, 58.87207
647.7000, 60.02100
648.1821, 35.64722
648.6642, 11.56958
649.1463, 13.03296
649.6284, 43.14722
650.1105, 58.53467
650.5927, 54.01343
651.0748, 39.12183
651.5569, 19.05225
652.0390, 1.671875
652.5211, 5.927979
653.0032, 23.13989
653.4854, 54.48730
653.9675, 56.81006
654.4496, 38.47363
654.9317, 21.58472
655.4138, 13.30518
655.8959, 10.15942
656.3781, 12.63501
656.8602, 20.53198
657.3423, 26.97192
657.8244, 34.90649
658.3065, 37.16211
658.7886, 27.09033
659.2708, 1.340576
659.7529, 8.490234
660.2350, 0.7883300
660.7171, 15.38403
661.1992, 22.54663
661.6813, 23.73706
662.1635, 24.80640
662.6456, 26.56494
663.1277, 28.72095
663.6098, 32.73120
664.0919, 36.64111
664.5741, 37.14600
665.0562, 31.46484
665.5383, 24.06128
666.0204, 12.37085
666.5026, 4.5653999E-02
666.9847, 2.852783
667.4668, 12.81714
667.9489, 30.19238
668.4310, 48.38550
668.9131, 66.47339
669.3953, 71.69702
669.8774, 61.62817
670.3595, 46.75928
670.8416, 30.56812
671.3237, 14.14307
671.8058, 4.496582
672.2880, 2.004883
672.7701, 4.552979
673.2522, 15.12915
673.7343, 27.99268
674.2164, 33.47461
674.6985, 26.84985
675.1807, 21.95410
675.6628, 29.78784
676.1449, 42.12988
676.6270, 49.23682
677.1091, 41.80908
677.5912, 38.31201
678.0734, 42.46753
678.5555, 50.99414
679.0376, 57.30322
679.5197, 61.52490
680.0018, 60.94800
680.4839, 54.13354
680.9661, 44.26514
681.4482, 44.40869
681.9303, 53.68262
682.4124, 61.30273
682.8945, 60.31519
683.3766, 53.85767
683.8588, 44.11401
684.3409, 31.46216
684.8230, 21.31812
685.3051, 18.09497
685.7872, 17.33643
686.2693, 15.74438
686.7515, 12.05493
687.2336, 10.37915
687.7157, 12.03247
688.1978, 14.70215
688.6799, 15.48511
689.1620, 14.07568
689.6442, 17.22876
690.1263, 27.36768
690.6084, 38.34961
691.0905, 38.18433
691.5726, 29.25537
692.0547, 24.28882
692.5369, 29.40259
693.0190, 36.46948
693.5011, 34.21265
693.9832, 28.11768
694.4653, 27.21729
694.9474, 48.74292
695.4296, 63.32227
695.9117, 50.33960
696.3938, 13.61157
696.8759, 3.552979
697.3580, 14.13208
697.8401, 32.27588
698.3223, 35.97241
698.8044, 24.97412
699.2865, 23.77539
699.7686, 35.06934
700.2507, 48.27637
700.7328, 53.93359
701.2150, 54.18359
701.6971, 55.01270
702.1792, 57.05518
702.6613, 58.18359
703.1434, 57.88037
703.6255, 55.08228
704.1077, 47.99487
704.5898, 32.88965
705.0719, 20.36304
705.5540, 11.80200
706.0361, 8.242920
706.5182, 11.70825
707.0004, 29.78296
707.4825, 38.94434
707.9646, 32.95190
708.4467, 19.40503
708.9288, 15.43359
709.4109, 20.97241
709.8931, 24.70923
710.3752, 21.04102
710.8573, 15.38940
711.3394, 14.54199
711.8215, 17.76416
712.3036, 22.36719
712.7858, 30.55078
713.2679, 36.61792
713.7500, 33.31445
714.2321, 21.31567
714.7142, 17.48193
715.1964, 38.38208
715.6785, 55.09277
716.1606, 53.51123
716.6427, 30.57373
717.1248, 19.06567
717.6069, 21.18823
718.0891, 26.94409
718.5712, 26.73804
719.0533, 21.62354
719.5354, 15.31250
720.0175, 7.929932
720.4996, 2.128906
720.9818, 2.418701
721.4639, 4.985840
721.9460, 4.715332
722.4281, 0.7211910
722.9102, 6.128174
723.3923, 13.73560
723.8745, 18.61328
724.3566, 13.53491
724.8387, 10.04785
725.3208, 27.97388
725.8029, 36.13062
726.2850, 38.09277
726.7672, 42.89478
727.2493, 50.60986
727.7314, 50.02856
728.2135, 30.95947
728.6956, 9.089844
729.1777, 17.10767
729.6599, 45.83203
730.1420, 64.13525
730.6241, 44.62988
731.1062, 20.11157
731.5883, 9.643311
732.0704, 12.49609
732.5526, 17.29810
733.0347, 26.90186
733.5168, 33.44336
733.9989, 34.03882
734.4810, 28.80493
734.9631, 21.59644
735.4453, 10.70605
735.9274, 5.330566
736.4095, 17.38184
736.8916, 40.51514
737.3737, 51.34399
737.8558, 48.82056
738.3380, 41.82935
738.8201, 34.25269
739.3022, 27.44434
739.7843, 22.19702
740.2664, 17.70312
740.7485, 17.98120
741.2307, 30.13965
741.7128, 43.79346
742.1949, 50.80542
742.6770, 45.36157
743.1591, 42.56836
743.6412, 45.73999
744.1234, 48.43481
744.6055, 37.94580
745.0876, 16.74121
745.5697, 5.446045
746.0518, 10.13135
746.5339, 21.39502
747.0161, 32.42676
747.4982, 41.60425
747.9803, 46.10791
748.4624, 38.86279
748.9445, 31.56812
749.4266, 29.27051
749.9088, 30.20728
750.3909, 29.73315
750.8730, 25.48340
751.3551, 24.73486
751.8372, 30.80493
752.3193, 40.89893
752.8015, 45.82837
753.2836, 45.71460
753.7657, 40.18970
754.2478, 20.98901
754.7299, 1.432129
755.2120, 11.59839
755.6942, 43.72559
756.1763, 63.46216
756.6584, 38.05542
757.1405, 7.969727
757.6226, 5.096191
758.1047, 2.1970000E-03
758.5869, 5.805908
759.0690, 13.26855
759.5511, 18.47949
760.0332, 18.22363
760.5153, 11.36011
760.9974, 20.09717
761.4796, 47.50757
761.9617, 68.40332
762.4438, 54.74902
762.9259, 23.52124
763.4080, 8.087158
763.8901, 11.36011
764.3723, 19.22241
764.8544, 26.52344
765.3365, 32.48682
765.8186, 36.40649
766.3007, 38.05737
766.7828, 38.14478
767.2650, 36.41919
767.7471, 33.23853
768.2292, 28.03955
768.7113, 20.18848
769.1934, 15.82104
769.6755, 15.64844
770.1577, 16.96826
770.6398, 13.44800
771.1219, 9.459717
771.6040, 17.64795
772.0861, 45.91992
772.5682, 69.36865
773.0504, 70.34351
773.5325, 58.17212
774.0146, 43.82446
774.4967, 21.53247
774.9788, 8.063232
775.4609, 6.608887
775.9431, 12.70435
776.4252, 21.81909
776.9073, 34.87305
777.3894, 40.76831
777.8715, 34.59424
778.3536, 26.41846
778.8358, 37.82910
779.3179, 60.60718
779.8000, 71.83545
780.2821, 54.85547
780.7642, 34.13770
781.2463, 23.70801
781.7285, 20.34863
782.2106, 17.30737
782.6927, 10.69849
783.1748, 7.813965
783.6569, 10.33350
784.1390, 16.97900
784.6212, 26.14453
785.1033, 38.49390
785.5854, 46.34814
786.0675, 43.63477
786.5496, 34.94360
787.0317, 28.45068
787.5139, 24.95361
787.9960, 27.07397
788.4781, 43.57275
788.9602, 58.93140
789.4423, 65.31177
789.9244, 63.13086
790.4066, 55.74658
790.8887, 39.78052
791.3708, 24.73340
791.8529, 11.84521
792.3350, 2.055176
792.8171, 4.107910
793.2993, 19.44922
793.7814, 31.16284
794.2635, 24.87891
794.7456, 11.74707
795.2277, 11.32300
795.7098, 21.58667
796.1920, 30.26367
796.6741, 29.31177
797.1562, 26.54126
797.6383, 28.54810
798.1204, 35.74731
798.6025, 30.94507
799.0847, 1.767822
799.5668, 18.02393
800.0489, 7.298340
800.5310, 29.53296
801.0131, 46.80078
801.4952, 44.37866
801.9774, 36.88550
802.4595, 34.30225
802.9416, 32.91895
803.4237, 27.76855
803.9058, 19.30322
804.3879, 10.55322
804.8701, 0.4418950
805.3522, 7.518555
805.8343, 5.454102
806.3164, 6.313477
806.7985, 17.59863
807.2806, 29.77734
807.7628, 38.33789
808.2449, 38.52539
808.7270, 31.87354
809.2091, 26.83105
809.6912, 23.63184
810.1733, 25.69043
810.6555, 42.97021
811.1376, 62.34521
811.6197, 67.95752
812.1018, 56.38281
812.5839, 49.13623
813.0660, 61.69482
813.5482, 72.39990
814.0303, 66.07715
814.5124, 37.96729
814.9945, 29.29883
815.4766, 45.60791
815.9587, 59.76709
816.4409, 40.75049
816.9230, 1.841797
817.4051, 16.95264
817.8872, 12.78174
818.3693, 2.866699
818.8514, 4.234863
819.3336, 10.01367
819.8157, 15.49658
820.2978, 20.56396
820.7799, 26.23389
821.2620, 33.14014
821.7441, 39.79736
822.2263, 45.85791
822.7084, 51.19824
823.1905, 50.21387
823.6726, 41.51074
824.1547, 35.24268
824.6368, 45.97510
825.1190, 62.95850
825.6011, 67.97070
826.0832, 57.57910
826.5653, 49.11475
827.0474, 54.38965
827.5295, 62.45264
828.0117, 64.94727
828.4938, 59.90088
828.9760, 57.56982
829.4581, 60.81299
829.9402, 61.20898
830.4223, 47.39893
830.9044, 23.34521
831.3865, 12.71777
831.8687, 17.45508
832.3508, 23.82910
832.8329, 16.48730
833.3150, 6.978516
833.7971, 9.020020
834.2792, 28.06592
834.7614, 40.11719
835.2435, 33.81055
835.7256, 24.11914
836.2077, 18.87354
836.6898, 18.32812
837.1719, 21.14502
837.6541, 28.14014
838.1362, 34.39453
838.6183, 30.83740
839.1004, 24.47510
839.5825, 34.33252
840.0646, 63.05762
840.5468, 83.77734
841.0289, 79.15381
841.5110, 62.40527
841.9931, 39.06885
842.4752, 4.524414
842.9573, 12.76709
843.4395, 11.56006
843.9216, 4.450684
844.4037, 43.63379
844.8858, 100.5435
845.3679, 118.3335
845.8500, 95.46729
846.3322, 68.31787
846.8143, 70.60498
847.2964, 80.18164
847.7785, 70.77637
848.2606, 38.26611
848.7427, 14.47803
849.2249, 17.71045
849.7070, 22.77393
850.1891, 14.69678
850.6712, 7.867676
851.1533, 7.284668
851.6354, 20.71777
852.1176, 46.41553
852.5997, 45.02100
853.0818, 28.17627
853.5639, 17.72852
854.0460, 14.24268
854.5281, 13.35938
855.0103, 11.63330
855.4924, 12.64502
855.9745, 19.06885
856.4566, 31.22949
856.9387, 46.30762
857.4208, 65.43799
857.9030, 80.19922
858.3851, 84.20215
858.8672, 78.31641
859.3493, 72.17725
859.8314, 65.40283
860.3135, 53.84180
860.7957, 20.82764
861.2778, 7.055176
861.7599, 0.1250000
862.2420, 37.73145
862.7241, 63.74316
863.2062, 56.00000
863.6884, 49.56934
864.1705, 56.29590
864.6526, 72.39844
865.1347, 77.11230
865.6168, 69.68555
866.0989, 65.82324
866.5811, 80.66797
867.0632, 98.03076
867.5453, 91.23193
868.0274, 66.83594
868.5095, 47.07275
868.9916, 41.99414
869.4738, 42.52344
869.9559, 49.69287
870.4380, 60.06494
870.9201, 61.37402
871.4022, 50.62842
871.8843, 44.67383
872.3665, 50.70654
872.8486, 61.54785
873.3307, 61.87012
873.8128, 54.35059
874.2949, 47.44678
874.7770, 43.19043
875.2592, 41.18311
875.7413, 45.47363
876.2234, 53.47559
876.7055, 57.99707
877.1876, 55.41064
877.6697, 55.24170
878.1519, 60.34375
878.6340, 65.76123
879.1161, 58.66797
879.5982, 42.74072
880.0803, 41.04688
880.5624, 63.99219
881.0446, 87.54834
881.5267, 89.32129
882.0088, 79.85938
882.4909, 73.93262
882.9730, 80.31152
883.4551, 82.73926
883.9373, 77.02393
884.4194, 70.24756
884.9015, 73.99854
885.3836, 88.56250
885.8657, 85.86084
886.3478, 59.25830
886.8300, 35.31250
887.3121, 52.13135
887.7942, 84.30420
888.2763, 95.91309
888.7584, 74.40674
889.2405, 54.32812
889.7227, 40.36035
890.2048, 36.10645
890.6869, 46.77148
891.1690, 76.55029
891.6511, 94.71973
892.1332, 100.7334
892.6154, 96.56836
893.0975, 71.98291
893.5796, 42.58789
894.0617, 42.55029
894.5438, 73.42432
895.0259, 90.45752
895.5081, 52.08350
895.9902, 11.72412
896.4723, 4.154785
896.9544, 29.96045
897.4365, 46.23242
897.9186, 53.18457
898.4008, 53.21582
898.8829, 43.58740
899.3650, 29.49902
899.8471, 24.67822
900.3292, 27.92676
900.8113, 31.83594
901.2935, 36.19922
901.7756, 39.16357
902.2577, 35.53662
902.7398, 27.37305
903.2219, 25.82129
903.7040, 30.72070
904.1862, 43.14404
904.6683, 68.03271
905.1504, 94.78857
905.6325, 96.90967
906.1146, 79.27588
906.5967, 62.87744
907.0789, 54.71094
907.5610, 52.57471
908.0431, 60.29150
908.5252, 71.11914
909.0073, 74.98145
909.4894, 66.70605
909.9716, 60.53662
910.4537, 58.41748
910.9358, 57.26855
911.4179, 52.92090
911.9000, 45.85547
912.3821, 38.89600
912.8643, 33.10498
913.3464, 24.42334
913.8285, 2.892090
914.3106, 19.73584
914.7927, 31.36475
915.2748, 28.42725
915.7570, 15.62939
916.2391, 12.78271
916.7212, 41.01367
917.2033, 57.98584
917.6854, 63.97754
918.1675, 55.51172
918.6497, 32.30811
919.1318, 15.24756
919.6139, 29.84912
920.0960, 53.19824
920.5781, 64.99268
921.0602, 63.30908
921.5424, 61.57666
922.0245, 63.47656
922.5066, 62.77979
922.9887, 54.65723
923.4708, 41.81006
923.9529, 42.35986
924.4351, 55.14062
924.9172, 64.87793
925.3993, 62.10547
925.8814, 53.65723
926.3635, 42.97559
926.8456, 33.27344
927.3278, 25.94873
927.8099, 28.44092
928.2920, 28.50977
928.7741, 22.33740
929.2562, 14.54736
929.7383, 15.26025
930.2205, 24.11377
930.7026, 35.25586
931.1847, 49.00537
931.6668, 59.18018
932.1489, 60.37939
932.6310, 55.05078
933.1132, 46.02979
933.5953, 30.10254
934.0774, 17.31396
934.5595, 4.620605
935.0416, 0.4926760
935.5237, 17.32568
936.0059, 55.82080
936.4880, 59.46289
936.9701, 23.10986
937.4522, 11.48291
937.9343, 9.392090
938.4164, 13.24756
938.8986, 50.01025
939.3807, 101.8232
939.8628, 124.3218
940.3449, 91.31641
940.8270, 58.10156
941.3091, 48.17773
941.7913, 57.32471
942.2734, 61.84570
942.7555, 61.70654
943.2376, 59.80273
943.7197, 58.39990
944.2018, 54.63379
944.6840, 43.10498
945.1661, 27.36865
945.6482, 17.04199
946.1303, 18.69678
946.6124, 18.48193
947.0945, 12.12988
947.5767, 5.651367
948.0588, 13.84180
948.5409, 34.33594
949.0230, 46.53467
949.5051, 44.01025
949.9872, 37.01025
950.4694, 30.70801
950.9515, 26.77490
951.4336, 27.31152
951.9157, 35.23047
952.3978, 43.23779
952.8799, 52.65869
953.3621, 59.87354
953.8442, 63.18896
954.3263, 62.04980
954.8084, 47.38672
955.2905, 19.52295
955.7726, 0.4165040
956.2548, 12.34033
956.7369, 30.59473
957.2190, 32.00781
957.7011, 16.34180
958.1832, 7.708496
958.6653, 7.763184
959.1475, 13.64014
959.6296, 27.76562
960.1117, 43.86133
960.5938, 40.59961
961.0759, 23.65576
961.5580, 15.35693
962.0402, 32.72559
962.5223, 52.19385
963.0044, 61.40576
963.4865, 65.24854
963.9686, 71.30615
964.4507, 78.94971
964.9329, 83.29932
965.4150, 88.33447
965.8971, 87.43506
966.3792, 61.97949
966.8613, 25.46484
967.3434, 15.30957
967.8256, 39.62305
968.3077, 57.79736
968.7898, 39.79932
969.2719, 16.04541
969.7540, 5.118652
970.2361, 7.276367
970.7183, 24.60156
971.2004, 61.05762
971.6825, 91.37354
972.1646, 96.12354
972.6467, 87.26367
973.1288, 82.99707
973.6110, 83.89209
974.0931, 89.56836
974.5752, 109.1230
975.0573, 120.3843
975.5394, 112.8677
976.0215, 94.51123
976.5037, 78.36426
976.9858, 64.05078
977.4679, 54.14014
977.9500, 48.84473
978.4321, 50.43994
978.9142, 72.38672
979.3964, 97.74463
979.8785, 100.2676
980.3606, 63.03613
980.8427, 41.53076
981.3248, 51.98340
981.8069, 70.33008
982.2891, 88.04688
982.7712, 104.0215
983.2533, 79.92871
983.7354, 17.99170
984.2175, 24.50342
984.6996, 9.503906
985.1818, 63.83984
985.6639, 101.1982
986.1460, 119.3491
986.6281, 114.4272
987.1102, 72.33643
987.5923, 35.41309
988.0745, 9.806152
988.5566, 2.390137
989.0387, 11.67578
989.5208, 43.82617
990.0029, 63.98389
990.4850, 59.50098
990.9672, 52.25146
991.4493, 54.39258
991.9314, 61.30859
992.4135, 70.79736
992.8956, 89.94238
993.3778, 81.17627
993.8599, 36.67383
994.3420, 2.927734
994.8242, 7.121582
995.3063, 39.53857
995.7884, 41.56934
996.2705, 16.01416
996.7526, 2.349609
997.2347, 10.88184
997.7169, 25.27881
998.1990, 29.76807
998.6811, 26.29688
999.1632, 20.65820
999.6453, 12.62891
1000.127, 8.873535
1000.610, 10.75342
1001.092, 19.05078
1001.574, 42.21582
1002.056, 69.60889
1002.538, 84.91553
1003.020, 75.63916
1003.502, 71.45068
1003.984, 76.32275
1004.466, 84.51514
1004.949, 94.51904
1005.431, 104.6948
1005.913, 98.00635
1006.395, 75.04834
1006.877, 53.44629
1007.359, 43.65186
1007.841, 40.43359
1008.323, 37.24316
1008.806, 36.92676
1009.288, 56.95410
1009.770, 106.8770
1010.252, 142.7080
1010.734, 145.7148
1011.216, 140.2188
1011.698, 187.6689
1012.180, 256.2324
1012.662, 269.7051
1013.145, 179.9150
1013.627, 95.56348
1014.109, 48.41211
1014.591, 29.44434
1015.073, 38.26562
1015.555, 80.71387
1016.037, 99.69434
1016.519, 94.37695
1017.002, 82.71777
1017.484, 80.64844
1017.966, 77.74805
1018.448, 59.69141
1018.930, 29.24609
1019.412, 5.286133
1019.894, 3.404297
1020.376, 14.48633
1020.858, 36.47363
1021.341, 56.95605
1021.823, 42.72852
1022.305, 3.199219
1022.787, 22.29297
1023.269, 20.73828
1023.751, 14.01855
1024.233, 10.49512
1024.715, 11.83984
1025.198, 20.60742
1025.680, 38.03906
1026.162, 55.60742
1026.644, 73.65332
1027.126, 86.10254
1027.608, 79.95215
1028.090, 69.66602
1028.572, 83.80957
1029.054, 115.5947
1029.536, 137.9189
1030.019, 132.2871
1030.501, 126.8447
1030.983, 132.4248
1031.465, 137.9648
1031.947, 119.6084
1032.429, 83.46680
1032.911, 51.88379
1033.393, 27.35742
1033.876, 21.83105
1034.358, 71.91211
1034.840, 126.9131
1035.322, 135.4961
1035.804, 85.66895
1036.286, 55.11523
1036.768, 48.70605
1037.250, 50.03125
1037.733, 53.91699
1038.215, 56.81641
1038.697, 49.34961
1039.179, 34.73242
1039.661, 23.22266
1040.143, 15.66699
1040.625, 15.62793
1041.107, 29.04883
1041.589, 45.30566
1042.072, 47.42480
1042.554, 39.00488
1043.036, 42.42773
1043.518, 60.67285
1044.000, 78.51270
1044.482, 84.89941
1044.964, 82.50977
1045.446, 70.71680
1045.928, 49.79980
1046.411, 36.16406
1046.893, 32.63281
1047.375, 31.39648
1047.857, 27.86523
1048.339, 26.79102
1048.821, 41.95996
1049.303, 67.46973
1049.785, 89.28418
1050.268, 106.2842
1050.750, 110.9238
1051.232, 88.06348
1051.714, 61.28027
1052.196, 49.46973
1052.678, 54.28125
1053.160, 65.41699
1053.642, 85.18457
1054.125, 94.91797
1054.607, 70.79980
1055.089, 40.80664
1055.571, 26.48242
1056.053, 27.30273
1056.535, 35.83008
1057.017, 54.51270
1057.499, 74.25293
1057.981, 97.04004
1058.464, 111.4023
1058.946, 83.95996
1059.428, 37.71680
1059.910, 29.33496
1060.392, 79.89160
1060.874, 115.7314
1061.356, 92.42676
1061.838, 61.47363
1062.320, 49.68359
1062.803, 55.33398
1063.285, 55.98828
1063.767, 52.38867
1064.249, 57.65039
1064.731, 83.18848
1065.213, 115.4551
1065.695, 151.6406
1066.177, 185.0361
1066.660, 202.7627
1067.142, 204.7422
1067.624, 187.7012
1068.106, 145.1133
1068.588, 104.8896
1069.070, 103.2900
1069.552, 120.4707
1070.034, 117.2461
1070.516, 93.69141
1070.999, 88.07422
1071.481, 146.1260
1071.963, 183.1514
1072.445, 165.9248
1072.927, 118.7402
1073.409, 109.3154
1073.891, 129.4463
1074.373, 129.8076
1074.855, 90.82520
1075.338, 51.95703
1075.820, 41.31738
1076.302, 42.84473
1076.784, 39.45312
1077.266, 27.18750
1077.748, 44.94824
1078.230, 99.04590
1078.713, 132.3008
1079.195, 87.43164
1079.677, 20.30859
1080.159, 6.398438
1080.641, 28.02148
1081.123, 46.45801
1081.605, 40.27832
1082.087, 48.03027
1082.569, 80.27148
1083.052, 113.4268
1083.534, 113.7959
1084.016, 92.37012
1084.498, 85.80762
1084.980, 97.04395
1085.462, 101.0342
1085.944, 68.10156
1086.426, 42.11719
1086.908, 46.61621
1087.391, 73.22461
1087.873, 101.9336
1088.355, 132.0830
1088.837, 119.3994
1089.319, 32.28809
1089.801, 46.89453
1090.283, 30.38477
1090.765, 28.64746
1091.248, 76.14941
1091.730, 112.2002
1092.212, 102.4775
1092.694, 31.79883
1093.176, 24.13184
1093.658, 6.288086
1094.140, 47.71484
1094.622, 76.16406
1095.104, 84.97559
1095.587, 88.32422
1096.069, 94.11426
1096.551, 88.57617
1097.033, 63.42871
1097.515, 36.23438
1097.997, 24.37207
1098.479, 27.81934
1098.961, 54.41992
1099.443, 102.9893
1099.926, 137.7119
1100.408, 130.3545
1100.890, 108.8330
1101.372, 74.40039
1101.854, 39.80371
1102.336, 54.49219
1102.818, 117.8418
1103.300, 144.8271
1103.783, 106.9229
1104.265, 57.12012
1104.747, 40.58496
1105.229, 42.40137
1105.711, 52.62988
1106.193, 74.01270
1106.675, 67.97461
1107.157, 25.31348
1107.640, 3.650391
1108.122, 20.05859
1108.604, 59.49805
1109.086, 37.70605
1109.568, 15.05762
1110.050, 35.02539
1110.532, 29.43262
1111.014, 79.92090
1111.496, 104.0166
1111.979, 117.9355
1112.461, 139.1328
1112.943, 163.6602
1113.425, 174.8604
1113.907, 173.1904
1114.389, 166.7695
1114.871, 150.6104
1115.353, 141.0264
1115.835, 151.5986
1116.318, 168.0596
1116.800, 163.1162
1117.282, 138.2393
1117.764, 112.3291
1118.246, 87.45215
1118.728, 75.10156
1119.210, 106.4473
1119.692, 136.3691
1120.175, 118.9033
1120.657, 59.70801
1121.139, 27.89648
1121.621, 26.15918
1122.103, 31.88379
1122.585, 39.78027
1123.067, 46.95605
1123.549, 47.25586
1124.031, 45.66895
1124.514, 49.16797
1124.996, 62.03711
1125.478, 71.30371
1125.960, 73.94727
1126.442, 80.67285
1126.924, 109.3828
1127.406, 140.5342
1127.888, 117.5664
1128.370, 61.05957
1128.853, 28.17480
1129.335, 71.86719
1129.817, 92.60352
1130.299, 58.63184
1130.781, 25.28223
1131.263, 72.22559
1131.745, 170.3721
1132.227, 192.6982
1132.710, 139.1826
1133.192, 86.95605
1133.674, 79.03223
1134.156, 82.37598
1134.638, 88.24414
1135.120, 93.97363
1135.602, 88.83203
1136.084, 75.30469
1136.567, 87.68750
1137.049, 135.8467
1137.531, 170.0986
1138.013, 134.8848
1138.495, 84.84863
1138.977, 58.47070
1139.459, 55.07031
1139.941, 76.28613
1140.423, 125.5254
1140.906, 155.8740
1141.388, 149.2402
1141.870, 124.7588
1142.352, 86.11816
1142.834, 51.26270
1143.316, 45.48730
1143.798, 80.50781
1144.280, 106.6162
1144.762, 125.4395
1145.245, 128.2412
1145.727, 98.20117
1146.209, 59.91113
1146.691, 53.05957
1147.173, 65.87402
1147.655, 71.23438
1148.137, 63.27930
1148.619, 56.56836
1149.102, 49.20605
1149.584, 41.80762
1150.066, 29.84766
1150.548, 18.95117
1151.030, 26.06250
1151.512, 49.87402
1151.994, 68.74902
1152.476, 68.32617
1152.958, 68.51758
1153.441, 72.15332
1153.923, 79.93848
1154.405, 101.3047
1154.887, 128.1357
1155.369, 127.4922
1155.851, 96.57031
1156.333, 65.04004
1156.815, 36.24219
1157.297, 24.93750
1157.780, 47.63281
1158.262, 83.76465
1158.744, 68.63379
1159.226, 13.23145
1159.708, 5.213867
1160.190, 36.84473
1160.672, 81.42090
1161.154, 97.14941
1161.637, 93.30664
1162.119, 69.42969
1162.601, 31.17578
1163.083, 22.23145
1163.565, 41.26172
1164.047, 56.08203
1164.529, 54.25977
1165.011, 44.61914
1165.494, 29.51172
1165.976, 13.53906
1166.458, 1.127930
1166.940, 7.658203
1167.422, 19.23047
1167.904, 34.59570
1168.386, 37.99316
1168.868, 21.49219
1169.350, 5.272461
1169.833, 43.01270
1170.315, 80.90527
1170.797, 97.02930
1171.279, 79.22070
1171.761, 77.28027
1172.243, 93.73633
1172.725, 115.2764
1173.207, 141.8145
1173.689, 161.4053
1174.172, 152.4678
1174.654, 124.1924
1175.136, 107.6973
1175.618, 108.5352
1176.100, 114.0254
1176.582, 125.2461
1177.064, 136.3955
1177.546, 139.6279
1178.029, 138.5967
1178.511, 142.4141
1178.993, 150.9863
1179.475, 152.9736
1179.957, 144.5693
1180.439, 133.2314
1180.921, 117.2549
1181.403, 107.6826
1181.885, 126.7939
1182.368, 157.3213
1182.850, 175.1201
1183.332, 176.6211
1183.814, 174.1846
1184.296, 168.4707
1184.778, 161.1318
1185.260, 150.3457
1185.742, 143.0293
1186.224, 154.6133
1186.707, 174.6338
1187.189, 191.7881
1187.671, 207.1895
1188.153, 201.2021
1188.635, 152.4951
1189.117, 110.8213
1189.599, 102.0879
1190.081, 113.8994
1190.564, 115.3740
1191.046, 108.1982
1191.528, 95.12695
1192.010, 63.59766
1192.492, 60.72266
1192.974, 128.0742
1193.456, 180.6016
1193.938, 146.0791
1194.421, 56.23633
1194.903, 39.88672
1195.385, 79.71387
1195.867, 113.2959
1196.349, 108.5156
1196.831, 100.0410
1197.313, 97.32812
1197.795, 93.93750
1198.277, 78.39941
1198.760, 56.64160
1199.242, 64.47168
1199.724, 95.52246
1200.206, 116.2520
1200.688, 97.69727
1201.170, 81.52637
1201.652, 81.86523
1202.134, 86.77930
1202.616, 82.22363
1203.099, 69.94336
1203.581, 60.61621
1204.063, 54.61426
1204.545, 47.72949
1205.027, 32.66992
1205.509, 24.32910
1205.991, 30.49609
1206.473, 43.23340
1206.956, 50.79492
1207.438, 53.76074
1207.920, 56.69922
1208.402, 59.58789
1208.884, 58.11914
1209.366, 40.32812
1209.848, 28.76172
1210.330, 34.53125
1210.813, 49.46484
1211.295, 56.51367
1211.777, 56.79883
1212.259, 53.87109
1212.741, 48.77148
1213.223, 40.01367
1213.705, 9.523438
1214.187, 3.996094
1214.669, 19.10352
1215.151, 69.09570
1215.634, 127.6543
1216.116, 187.5762
1216.598, 211.0508
1217.080, 178.5996
1217.562, 159.1172
1218.044, 216.7539
1218.526, 268.3457
1219.008, 263.0488
1219.491, 218.8281
1219.973, 204.9824
1220.455, 216.7051
1220.937, 235.9199
1221.419, 263.4238
1221.901, 276.0117
1222.383, 240.1152
1222.865, 208.6914
1223.348, 216.3457
1223.830, 253.0234
1224.312, 275.0703
1224.794, 282.1562
1225.276, 271.4941
1225.758, 237.7109
1226.240, 198.1758
1226.722, 152.2930
1227.204, 115.1973
1227.687, 99.75195
1228.169, 100.1973
1228.651, 77.11719
1229.133, 38.46680
1229.615, 18.79297
1230.097, 47.49219
1230.579, 74.26172
1231.061, 91.36328
1231.543, 92.06641
1232.026, 62.35352
1232.508, 9.462891
1232.990, 0.1074220
1233.472, 24.99414
1233.954, 41.34961
1234.436, 11.61328
1234.918, 1.099609
1235.400, 29.26953
1235.883, 63.25000
1236.365, 60.07227
1236.847, 31.33789
1237.329, 31.48438
1237.811, 53.07227
1238.293, 60.48242
1238.775, 1.337891
1239.257, 18.26953
1239.740, 39.99219
1240.222, 107.9922
1240.704, 108.5742
1241.186, 65.47266
1241.668, 49.11328
1242.150, 54.33984
1242.632, 50.48633
1243.114, 3.906250
1243.596, 22.27539
1244.079, 20.77344
1244.561, 77.31836
1245.043, 89.98633
1245.525, 76.54688
1246.007, 75.70312
1246.489, 87.38086
1246.971, 97.66602
1247.453, 93.88477
1247.936, 106.9062
1248.418, 151.9238
1248.900, 185.8613
1249.382, 137.2656
1249.864, 52.35352
1250.346, 6.755859
1250.828, 2.673828
1251.310, 19.24219
1251.792, 74.19531
1252.275, 94.13672
1252.757, 58.57617
1253.239, 11.12109
1253.721, 9.294922
1254.203, 25.97656
1254.685, 23.05859
1255.167, 0.4355470
1255.649, 16.84766
1256.131, 34.17578
1256.614, 12.58594
1257.096, 66.70312
1257.578, 140.6523
1258.060, 121.1309
1258.542, 67.93164
1259.024, 45.51367
1259.506, 56.55078
1259.988, 67.74219
1260.471, 75.23438
1260.953, 98.76367
1261.435, 146.9688
1261.917, 192.7090
1262.399, 199.1895
1262.881, 194.3652
1263.363, 193.0938
1263.845, 199.8672
1264.328, 224.8789
1264.810, 283.6133
1265.292, 288.1055
1265.774, 206.5898
1266.256, 130.6953
1266.738, 162.6367
1267.220, 218.7637
1267.702, 207.1602
1268.184, 151.6562
1268.667, 155.1465
1269.149, 213.5137
1269.631, 240.4277
1270.113, 208.0293
1270.595, 173.5273
1271.077, 169.2305
1271.559, 162.6465
1272.041, 144.9355
1272.523, 109.3301
1273.006, 60.26562
1273.488, 28.39062
1273.970, 20.17578
1274.452, 45.63672
1274.934, 65.22266
1275.416, 52.38477
1275.898, 39.11133
1276.380, 39.13867
1276.863, 46.25977
1277.345, 41.61914
1277.827, 29.79102
1278.309, 23.80859
1278.791, 25.57422
1279.273, 33.18164
1279.755, 51.08008
1280.237, 64.48242
1280.719, 65.52539
1281.202, 61.80859
1281.684, 68.30859
1282.166, 82.49805
1282.648, 87.38867
1283.130, 79.90039
1283.612, 63.46875
1284.094, 33.31445
1284.576, 12.16016
1285.058, 5.044922
1285.541, 13.02930
1286.023, 62.89062
1286.505, 117.2695
1286.987, 113.7617
1287.469, 32.66406
1287.951, 0.4277340
1288.433, 17.32422
1288.915, 0.0000000E+00
##END=



