##NAMES=Cinnabar
##RRUFFID=R070532
##IDEAL CHEMISTRY=HgS
##LOCALITY=Charcas, San Luis Potosi, Mexico
##OWNER=RRUFF
##SOURCE=James Shigley
##DESCRIPTION=Red prismatic crystals associated with calcite
##STATUS=The identification of this mineral is confirmed by single-crystal X-ray diffraction and chemical analysis.
##URL=rruff.info/R070532
##MEASURED CHEMISTRY=Hg_1.00_S_1.00_
142.1308, 0.0000000E+00
142.6129, 3.369751
143.0950, 13.88434
143.5771, 26.16638
144.0592, 37.70435
144.5413, 46.19928
145.0235, 55.68542
145.5056, 68.20575
145.9877, 81.05670
146.4698, 89.89288
146.9519, 92.67743
147.4340, 92.39545
147.9162, 95.30023
148.3983, 102.5671
148.8804, 109.5666
149.3625, 116.3716
149.8446, 121.8636
150.3267, 123.6443
150.8089, 120.2238
151.2910, 113.6274
151.7731, 107.9773
152.2552, 103.1578
152.7373, 99.54669
153.2194, 97.50250
153.7016, 96.99982
154.1837, 97.48309
154.6658, 98.68225
155.1479, 100.5604
155.6300, 102.9127
156.1121, 104.6766
156.5943, 108.6915
157.0764, 119.8203
157.5585, 135.3853
158.0406, 145.2416
158.5227, 143.5499
159.0048, 136.6422
159.4870, 133.4471
159.9691, 129.8545
160.4512, 128.2950
160.9333, 134.1890
161.4154, 146.1914
161.8975, 152.4192
162.3797, 146.4451
162.8618, 135.6601
163.3439, 134.0674
163.8260, 143.4259
164.3081, 151.8977
164.7902, 162.4590
165.2724, 172.2529
165.7545, 178.4856
166.2366, 186.6346
166.7187, 193.1967
167.2008, 197.1486
167.6829, 198.0972
168.1651, 195.5645
168.6472, 194.6047
169.1293, 192.7864
169.6114, 190.6120
170.0935, 189.8814
170.5756, 186.6682
171.0578, 184.9479
171.5399, 188.1097
172.0220, 188.3029
172.5041, 176.1801
172.9862, 155.9825
173.4683, 139.5804
173.9505, 133.7419
174.4326, 131.0551
174.9147, 124.5660
175.3968, 112.4588
175.8789, 101.1283
176.3610, 99.03601
176.8432, 107.4726
177.3253, 112.9415
177.8074, 111.0721
178.2895, 104.9306
178.7716, 95.23114
179.2537, 81.73932
179.7359, 68.42157
180.2180, 60.44653
180.7001, 58.71887
181.1822, 55.98120
181.6643, 48.32800
182.1464, 40.27966
182.6286, 35.35950
183.1107, 34.32837
183.5928, 33.84760
184.0749, 28.85492
184.5570, 17.90131
185.0391, 10.94769
185.5213, 17.75922
186.0034, 24.62524
186.4855, 21.19836
186.9676, 5.598450
187.4497, 12.03827
187.9318, 18.80664
188.4140, 12.38989
188.8961, 8.382874
189.3782, 12.41132
189.8603, 17.93475
190.3424, 21.19440
190.8245, 21.56506
191.3067, 21.07312
191.7888, 22.31537
192.2709, 25.88733
192.7530, 27.92645
193.2351, 23.60828
193.7172, 20.57245
194.1994, 24.65491
194.6815, 36.12708
195.1636, 48.29755
195.6457, 53.66718
196.1278, 51.29535
196.6099, 47.79974
197.0921, 43.88934
197.5742, 38.91449
198.0563, 30.27496
198.5384, 18.68622
199.0205, 9.895813
199.5026, 11.88007
199.9848, 25.69537
200.4669, 35.12921
200.9490, 40.31714
201.4311, 39.30475
201.9132, 27.64594
202.3953, 6.834473
202.8775, 14.95081
203.3596, 30.39709
203.8417, 39.30139
204.3238, 43.67896
204.8059, 35.57446
205.2880, 29.55579
205.7702, 32.42200
206.2523, 43.67798
206.7344, 58.54175
207.2165, 73.87573
207.6986, 89.91724
208.1807, 103.7034
208.6629, 111.2773
209.1450, 120.1631
209.6271, 132.3073
210.1092, 148.2722
210.5913, 168.5559
211.0734, 195.7743
211.5556, 229.8413
212.0377, 258.4784
212.5198, 277.1649
213.0019, 295.0222
213.4840, 314.0597
213.9661, 334.9747
214.4483, 359.1022
214.9304, 387.7472
215.4125, 420.4763
215.8946, 454.3542
216.3767, 492.6801
216.8588, 527.8947
217.3410, 552.1248
217.8231, 571.7289
218.3052, 598.6586
218.7873, 641.0511
219.2694, 696.3672
219.7516, 752.7559
220.2337, 808.9954
220.7158, 868.4116
221.1979, 935.4282
221.6800, 1005.283
222.1621, 1070.210
222.6443, 1122.911
223.1264, 1170.959
223.6085, 1238.743
224.0906, 1336.629
224.5727, 1436.553
225.0548, 1525.057
225.5370, 1611.977
226.0191, 1708.647
226.5012, 1820.677
226.9833, 1945.403
227.4654, 2077.119
227.9475, 2213.836
228.4297, 2365.179
228.9118, 2537.119
229.3939, 2722.633
229.8760, 2912.912
230.3581, 3103.537
230.8402, 3305.796
231.3224, 3534.712
231.8045, 3789.049
232.2866, 4073.441
232.7687, 4385.505
233.2508, 4730.100
233.7329, 5114.572
234.2151, 5538.101
234.6972, 6001.050
235.1793, 6502.432
235.6614, 7040.572
236.1435, 7613.037
236.6256, 8219.518
237.1078, 8860.367
237.5899, 9547.002
238.0720, 10281.04
238.5541, 11018.34
239.0362, 11718.53
239.5183, 12381.43
240.0005, 13060.20
240.4826, 13770.36
240.9647, 14497.71
241.4468, 15235.36
241.9289, 15980.80
242.4110, 16716.28
242.8932, 17410.64
243.3753, 18080.03
243.8574, 18795.71
244.3395, 19575.53
244.8216, 20388.65
245.3037, 21193.77
245.7859, 22003.81
246.2680, 22872.13
246.7501, 23838.33
247.2322, 24879.31
247.7143, 25938.71
248.1964, 26992.16
248.6786, 28121.63
249.1607, 29436.69
249.6428, 30868.28
250.1249, 32255.40
250.6070, 33592.34
251.0891, 34845.60
251.5713, 36043.88
252.0534, 37245.08
252.5355, 38101.77
253.0176, 38384.87
253.4997, 38162.76
253.9818, 37513.13
254.4640, 36407.54
254.9461, 34918.80
255.4282, 33038.73
255.9103, 30778.42
256.3924, 28367.26
256.8745, 25832.13
257.3567, 23264.77
257.8388, 20825.50
258.3209, 18498.35
258.8030, 16358.63
259.2851, 14470.78
259.7672, 12830.16
260.2494, 11385.20
260.7315, 10138.50
261.2136, 9073.863
261.6957, 8161.306
262.1778, 7407.709
262.6599, 6738.355
263.1421, 6131.412
263.6242, 5585.567
264.1063, 5110.262
264.5884, 4710.152
265.0705, 4364.900
265.5526, 4047.882
266.0348, 3755.857
266.5169, 3498.652
266.9990, 3285.549
267.4811, 3103.744
267.9632, 2940.038
268.4453, 2792.708
268.9275, 2659.712
269.4096, 2539.671
269.8917, 2433.772
270.3738, 2341.013
270.8559, 2264.978
271.3380, 2199.713
271.8202, 2139.503
272.3023, 2085.431
272.7844, 2044.310
273.2665, 2023.919
273.7486, 2023.828
274.2307, 2018.671
274.7129, 1990.622
275.1950, 1976.313
275.6771, 1999.352
276.1592, 2047.566
276.6413, 2093.234
277.1234, 2120.071
277.6056, 2133.418
278.0877, 2156.946
278.5698, 2201.575
279.0519, 2243.071
279.5340, 2280.318
280.0161, 2312.030
280.4983, 2337.551
280.9804, 2356.524
281.4625, 2368.039
281.9446, 2369.354
282.4267, 2345.532
282.9088, 2335.362
283.3910, 2357.129
283.8731, 2379.495
284.3552, 2374.335
284.8373, 2338.866
285.3194, 2294.735
285.8015, 2268.952
286.2837, 2268.276
286.7658, 2260.769
287.2479, 2241.705
287.7300, 2220.629
288.2121, 2208.792
288.6942, 2200.121
289.1764, 2176.533
289.6585, 2122.069
290.1406, 2037.794
290.6227, 1947.344
291.1048, 1858.677
291.5869, 1751.783
292.0691, 1609.993
292.5512, 1449.117
293.0333, 1291.818
293.5154, 1149.299
293.9975, 1020.647
294.4796, 907.8098
294.9618, 816.0244
295.4439, 728.1716
295.9260, 631.9603
296.4081, 540.0789
296.8902, 465.9135
297.3723, 414.3927
297.8545, 374.3979
298.3366, 333.4614
298.8187, 291.3588
299.3008, 253.5957
299.7829, 224.4017
300.2650, 198.1549
300.7472, 170.2515
301.2293, 140.4506
301.7114, 111.2487
302.1935, 81.57849
302.6756, 53.44043
303.1577, 35.26172
303.6399, 30.45020
304.1220, 31.12732
304.6041, 32.10938
305.0862, 33.24084
305.5683, 33.70300
306.0504, 33.10864
306.5326, 31.78369
307.0147, 31.38184
307.4968, 32.15662
307.9789, 28.53943
308.4610, 12.90527
308.9431, 9.813110
309.4253, 21.14893
309.9074, 12.72205
310.3895, 0.6837160
310.8716, 7.649902
311.3537, 12.86975
311.8358, 14.05847
312.3180, 9.083130
312.8001, 1.057251
313.2822, 1.902832
313.7643, 1.177124
314.2464, 6.977417
314.7285, 13.40796
315.2107, 21.54175
315.6928, 35.37402
316.1749, 56.08936
316.6570, 76.93921
317.1391, 88.21729
317.6212, 84.97034
318.1034, 88.97656
318.5855, 100.4323
319.0676, 119.0446
319.5497, 148.5675
320.0318, 185.4395
320.5139, 218.4042
320.9961, 237.2074
321.4782, 242.6385
321.9603, 265.0786
322.4424, 317.5548
322.9245, 372.9562
323.4066, 428.7789
323.8888, 483.5449
324.3709, 533.7936
324.8530, 577.3859
325.3351, 622.0991
325.8172, 687.5679
326.2993, 784.1184
326.7815, 880.7773
327.2636, 972.7798
327.7457, 1063.853
328.2278, 1154.075
328.7099, 1244.771
329.1920, 1341.873
329.6742, 1456.068
330.1563, 1588.769
330.6384, 1708.771
331.1205, 1796.823
331.6026, 1891.330
332.0847, 2016.042
332.5669, 2164.138
333.0490, 2314.594
333.5311, 2450.959
334.0132, 2582.899
334.4953, 2735.620
334.9774, 2912.225
335.4596, 3097.077
335.9417, 3283.974
336.4238, 3473.867
336.9059, 3663.330
337.3880, 3843.817
337.8701, 4037.531
338.3523, 4273.012
338.8344, 4540.932
339.3165, 4799.320
339.7986, 5034.530
340.2807, 5250.169
340.7628, 5454.496
341.2450, 5655.403
341.7271, 5819.718
342.2092, 5950.727
342.6913, 6033.687
343.1735, 6048.756
343.6556, 5993.049
344.1377, 5880.509
344.6198, 5718.859
345.1019, 5502.208
345.5840, 5276.192
346.0662, 5020.641
346.5483, 4775.517
347.0304, 4551.793
347.5125, 4353.547
347.9946, 4185.643
348.4767, 4053.046
348.9589, 3949.427
349.4410, 3851.502
349.9231, 3768.860
350.4052, 3678.898
350.8873, 3592.792
351.3694, 3492.190
351.8516, 3357.574
352.3337, 3184.426
352.8158, 2989.249
353.2979, 2789.823
353.7800, 2584.865
354.2621, 2379.327
354.7443, 2162.030
355.2264, 1952.864
355.7085, 1760.252
356.1906, 1583.501
356.6727, 1421.135
357.1548, 1273.317
357.6370, 1138.281
358.1191, 1011.318
358.6012, 892.1430
359.0833, 783.2275
359.5654, 686.9376
360.0475, 601.5515
360.5297, 527.0171
361.0118, 465.5110
361.4939, 409.7427
361.9760, 351.5172
362.4581, 292.3384
362.9402, 242.1782
363.4224, 204.3601
363.9045, 175.0938
364.3866, 151.5873
364.8687, 133.6643
365.3508, 114.5643
365.8329, 89.22180
366.3151, 63.26508
366.7972, 43.68097
367.2793, 30.72083
367.7614, 19.55804
368.2435, 5.539917
368.7256, 10.63245
369.2078, 18.91180
369.6899, 10.62079
370.1720, 5.342712
370.6541, 14.01337
371.1362, 28.86987
371.6183, 36.35553
372.1005, 31.05853
372.5826, 19.44952
373.0647, 13.80078
373.5468, 18.71265
374.0289, 20.52167
374.5110, 14.42139
374.9932, 9.575500
375.4753, 13.49683
375.9574, 24.85046
376.4395, 35.68567
376.9216, 39.06323
377.4037, 35.75110
377.8859, 34.49200
378.3680, 37.25739
378.8501, 39.18127
379.3322, 39.09473
379.8143, 37.17413
380.2964, 33.13971
380.7786, 26.50079
381.2607, 19.68127
381.7428, 16.02844
382.2249, 15.53473
382.7070, 15.01154
383.1891, 13.99640
383.6713, 12.24060
384.1534, 9.390320
384.6355, 5.556030
385.1176, 2.075256
385.5997, 0.1251220
386.0818, 1.908264
386.5640, 4.668762
387.0461, 8.493042
387.5282, 12.23694
388.0103, 15.44745
388.4924, 17.98608
388.9745, 18.91077
389.4567, 15.46893
389.9388, 13.33655
390.4209, 16.03345
390.9030, 21.07770
391.3851, 24.36725
391.8672, 24.48407
392.3494, 22.83154
392.8315, 21.28668
393.3136, 18.38513
393.7957, 19.51740
394.2778, 28.64587
394.7599, 37.72467
395.2421, 42.17377
395.7242, 42.58887
396.2063, 41.88739
396.6884, 41.84186
397.1705, 42.38367
397.6526, 43.63550
398.1348, 46.72626
398.6169, 48.56274
399.0990, 47.57599
399.5811, 45.58014
400.0632, 44.29755
400.5453, 44.15295
401.0275, 43.95068
401.5096, 41.85327
401.9917, 38.27570
402.4738, 36.83167
402.9559, 38.47107
403.4380, 41.54492
403.9202, 45.68860
404.4023, 50.38489
404.8844, 53.16077
405.3665, 52.07721
405.8486, 49.65204
406.3307, 48.08728
406.8129, 47.28546
407.2950, 46.44910
407.7771, 45.07660
408.2592, 43.61255
408.7413, 43.25323
409.2234, 44.64557
409.7056, 45.79675
410.1877, 45.48279
410.6698, 45.45691
411.1519, 47.47552
411.6340, 51.70172
412.1161, 57.32056
412.5983, 64.16034
413.0804, 72.35559
413.5625, 75.60303
414.0446, 67.88550
414.5267, 61.54553
415.0089, 59.38318
415.4910, 60.01727
415.9731, 61.34985
416.4552, 62.53070
416.9373, 64.61035
417.4194, 70.82892
417.9016, 82.20850
418.3837, 87.35400
418.8658, 79.63000
419.3479, 70.12964
419.8300, 67.30005
420.3121, 70.10529
420.7943, 72.74536
421.2764, 71.62360
421.7585, 69.38086
422.2406, 69.63989
422.7227, 72.45673
423.2048, 76.76514
423.6870, 83.05475
424.1691, 89.76923
424.6512, 92.30695
425.1333, 87.88220
425.6154, 85.18567
426.0975, 88.89661
426.5797, 93.72534
427.0618, 93.40631
427.5439, 87.95279
428.0260, 82.28369
428.5081, 80.88635
428.9902, 83.64459
429.4724, 86.71393
429.9545, 93.91376
430.4366, 98.92639
430.9187, 97.53970
431.4008, 92.74863
431.8829, 89.92230
432.3651, 91.62518
432.8472, 94.76489
433.3293, 93.85254
433.8114, 87.87494
434.2935, 81.76678
434.7756, 76.17819
435.2578, 71.97275
435.7399, 69.88080
436.2220, 69.15021
436.7041, 67.87228
437.1862, 63.91187
437.6683, 59.86414
438.1505, 60.14130
438.6326, 64.68689
439.1147, 68.92438
439.5968, 70.98792
440.0789, 70.72144
440.5610, 67.36407
441.0432, 58.74084
441.5253, 53.29370
442.0074, 56.02740
442.4895, 60.98853
442.9716, 61.77417
443.4537, 57.92010
443.9359, 53.39813
444.4180, 51.86163
444.9001, 53.03125
445.3822, 51.00354
445.8643, 39.40369
446.3464, 32.16614
446.8286, 33.94556
447.3107, 39.54968
447.7928, 44.26135
448.2749, 46.82574
448.7570, 47.71381
449.2391, 46.44946
449.7213, 42.97931
450.2034, 41.42969
450.6855, 43.12323
451.1676, 45.02173
451.6497, 46.46289
452.1318, 47.16595
452.6140, 45.24438
453.0961, 36.85016
453.5782, 29.42596
454.0603, 30.78149
454.5424, 38.88513
455.0245, 46.65561
455.5067, 52.20865
455.9888, 55.27722
456.4709, 54.66257
456.9530, 48.19519
457.4351, 45.92596
457.9172, 51.85266
458.3994, 58.53143
458.8815, 62.43314
459.3636, 63.22812
459.8457, 60.97000
460.3278, 55.67975
460.8099, 48.44269
461.2921, 41.75797
461.7742, 34.14856
462.2563, 30.95224
462.7384, 34.55908
463.2205, 40.92761
463.7026, 50.05032
464.1848, 60.48343
464.6669, 66.87167
465.1490, 62.91165
465.6311, 53.13425
466.1132, 49.00281
466.5953, 51.29260
467.0775, 53.54565
467.5596, 52.88351
468.0417, 50.18753
468.5238, 47.07529
469.0059, 42.80704
469.4880, 40.62894
469.9702, 43.69153
470.4523, 48.39172
470.9344, 49.86325
471.4165, 47.76718
471.8986, 45.71338
472.3807, 46.85782
472.8629, 50.91574
473.3450, 54.16357
473.8271, 56.75055
474.3092, 58.22388
474.7913, 59.13739
475.2734, 58.65881
475.7556, 54.78943
476.2377, 47.51447
476.7198, 40.69257
477.2019, 39.33282
477.6840, 43.01141
478.1661, 44.33002
478.6483, 41.87476
479.1304, 39.69855
479.6125, 41.26013
480.0946, 44.24323
480.5767, 45.01154
481.0588, 41.96564
481.5410, 38.93970
482.0231, 38.12793
482.5052, 39.10016
482.9873, 41.92920
483.4694, 46.78418
483.9515, 50.17059
484.4337, 47.87933
484.9158, 39.32800
485.3979, 34.37018
485.8800, 35.11432
486.3621, 36.40845
486.8442, 37.23932
487.3264, 37.55463
487.8085, 37.01440
488.2906, 35.57532
488.7727, 34.49078
489.2548, 36.46857
489.7369, 42.18683
490.2191, 43.58807
490.7012, 37.19708
491.1833, 30.98138
491.6654, 29.45294
492.1475, 30.74713
492.6296, 31.17188
493.1118, 28.73639
493.5939, 26.99219
494.0760, 30.45123
494.5581, 37.21747
495.0402, 41.48987
495.5223, 41.89685
496.0045, 39.00458
496.4866, 32.68884
496.9687, 22.35620
497.4508, 14.25049
497.9329, 6.456970
498.4150, 2.669373
498.8972, 6.821167
499.3793, 15.16003
499.8614, 22.61841
500.3435, 27.21698
500.8256, 29.08105
501.3077, 27.38574
501.7899, 21.03528
502.2720, 18.22101
502.7541, 22.41504
503.2362, 26.08728
503.7183, 24.52795
504.2004, 20.06824
504.6826, 17.46429
505.1647, 19.06708
505.6468, 21.23846
506.1289, 20.95404
506.6110, 18.52289
507.0932, 14.16071
507.5753, 7.371338
508.0574, 1.857727
508.5395, 2.116150
509.0216, 8.788879
509.5038, 12.86285
509.9859, 12.67548
510.4680, 11.87555
510.9501, 11.46625
511.4322, 11.35535
511.9143, 11.20270
512.3964, 10.97992
512.8785, 11.39594
513.3607, 14.34351
513.8428, 20.51086
514.3249, 22.07672
514.8070, 15.66620
515.2891, 9.375671
515.7712, 8.429199
516.2534, 9.775330
516.7355, 7.915771
517.2176, 0.1317140
517.6997, 7.307800
518.1818, 7.398132
518.6639, 2.694031
519.1461, 1.789124
519.6282, 5.028137
520.1103, 7.692261
520.5924, 10.86304
521.0745, 14.83728
521.5566, 15.03662
522.0388, 7.698608
522.5209, 1.722412
523.0030, 0.6231080
523.4851, 0.6068120
523.9672, 1.127502
524.4493, 4.065308
524.9315, 6.369324
525.4136, 5.625244
525.8957, 2.132935
526.3778, 0.1171880
526.8599, 0.1953740
527.3420, 0.4706420
527.8242, 2.636353
528.3063, 5.679810
528.7884, 8.179565
529.2705, 9.731018
529.7526, 10.10175
530.2347, 7.903625
530.7169, 5.184265
531.1990, 5.411682
531.6811, 8.643616
532.1632, 11.69629
532.6453, 12.25726
533.1274, 10.83838
533.6096, 9.932678
534.0917, 9.734314
534.5738, 9.790039
535.0559, 11.61493
535.5380, 12.56964
536.0201, 9.071655
536.5023, 2.188660
536.9844, 2.576660
537.4665, 0.4946900
537.9486, 5.752014
538.4307, 10.16113
538.9128, 12.68561
539.3950, 13.55597
539.8771, 11.59381
540.3592, 9.240906
540.8413, 11.63007
541.3234, 19.66559
541.8055, 22.83173
542.2877, 13.33899
542.7698, 3.172485
543.2519, 2.093323
543.7340, 7.830688
544.2161, 13.77069
544.6982, 16.90540
545.1804, 17.34546
545.6625, 14.37445
546.1446, 5.496704
546.6267, 1.321167
547.1088, 5.207275
547.5909, 10.76544
548.0731, 17.47198
548.5552, 23.54364
549.0373, 25.08069
549.5194, 18.75305
550.0015, 12.28119
550.4836, 14.94788
550.9658, 23.69019
551.4479, 28.00244
551.9300, 25.49615
552.4121, 20.92664
552.8942, 18.35773
553.3763, 17.73566
553.8585, 16.81201
554.3406, 15.93237
554.8227, 14.37927
555.3048, 9.447266
555.7869, 5.157959
556.2690, 7.323181
556.7512, 15.99139
557.2333, 24.30817
557.7154, 25.15894
558.1975, 20.28180
558.6796, 18.29199
559.1617, 19.79236
559.6439, 22.15546
560.1260, 25.83856
560.6081, 28.77539
561.0902, 27.88574
561.5723, 22.58759
562.0544, 17.59454
562.5366, 14.21497
563.0187, 11.90417
563.5008, 10.07996
563.9829, 8.852783
564.4650, 9.168823
564.9471, 11.67249
565.4293, 14.47961
565.9114, 13.10480
566.3935, 4.733276
566.8756, 0.2044680
567.3577, 2.986572
567.8398, 6.506775
568.3220, 8.998779
568.8041, 10.11273
569.2862, 8.986023
569.7683, 4.298035
570.2504, 7.6290001E-03
570.7325, 0.4597170
571.2147, 4.270569
571.6968, 7.641785
572.1789, 9.859680
572.6610, 11.74554
573.1431, 14.56494
573.6252, 17.89825
574.1074, 16.44214
574.5895, 4.760132
575.0716, 4.413330
575.5537, 8.726807
576.0358, 10.23798
576.5179, 11.74829
577.0001, 12.88025
577.4822, 9.321716
577.9643, 5.690430
578.4464, 25.36896
578.9285, 29.58795
579.4106, 16.72321
579.8928, 6.201172
580.3749, 4.849060
580.8570, 7.721375
581.3391, 8.026611
581.8212, 5.603516
582.3033, 6.197998
582.7855, 15.12000
583.2676, 22.71643
583.7497, 23.60773
584.2318, 19.15527
584.7139, 10.62018
585.1960, 1.090332
585.6782, 11.19873
586.1603, 12.56641
586.6424, 4.759033
587.1245, 2.636902
587.6066, 10.65479
588.0887, 16.44623
588.5709, 18.39569
589.0530, 17.55566
589.5352, 14.32556
590.0173, 8.075623
590.4994, 2.996643
590.9815, 1.753296
591.4636, 2.302551
591.9457, 1.747681
592.4279, 0.4085690
592.9100, 1.218872
593.3921, 6.057556
593.8742, 13.04901
594.3563, 18.11932
594.8384, 22.08130
595.3206, 21.99225
595.8027, 13.50488
596.2848, 4.949524
596.7669, 2.574097
597.2490, 7.179504
597.7311, 4.457458
598.2133, 9.656067
598.6954, 24.28308
599.1775, 29.25763
599.6596, 27.42651
600.1417, 25.71265
600.6238, 25.24707
601.1060, 24.41949
601.5881, 21.67651
602.0702, 17.62323
602.5523, 16.00781
603.0344, 20.25183
603.5165, 22.18982
603.9987, 17.89240
604.4808, 14.02936
604.9629, 17.51642
605.4450, 26.24707
605.9271, 31.40826
606.4092, 26.59552
606.8914, 17.81976
607.3735, 13.41229
607.8556, 13.03210
608.3377, 14.24530
608.8198, 16.87726
609.3019, 19.36035
609.7841, 20.18127
610.2662, 19.32727
610.7483, 18.03503
611.2304, 14.47968
611.7125, 12.83429
612.1946, 15.59094
612.6768, 19.75153
613.1589, 22.50061
613.6410, 23.40472
614.1231, 23.37738
614.6052, 22.20959
615.0873, 21.46667
615.5695, 25.79541
616.0516, 35.25079
616.5337, 40.74921
617.0158, 37.88147
617.4979, 32.83856
617.9800, 33.69653
618.4622, 41.02051
618.9443, 45.28638
619.4264, 45.31940
619.9085, 43.18317
620.3906, 37.14740
620.8727, 30.59924
621.3549, 28.40698
621.8370, 31.33295
622.3191, 35.45807
622.8012, 36.60229
623.2833, 35.81708
623.7654, 39.01263
624.2476, 47.46252
624.7297, 52.41180
625.2118, 48.97247
625.6939, 42.27924
626.1760, 39.81287
626.6581, 41.77802
627.1403, 42.50873
627.6224, 39.44580
628.1045, 36.82062
628.5866, 36.56573
629.0687, 38.44977
629.5508, 43.24982
630.0330, 50.70154
630.5151, 56.41840
630.9972, 53.95892
631.4793, 44.70642
631.9614, 41.12775
632.4435, 45.07642
632.9257, 47.83209
633.4078, 45.12830
633.8899, 40.22064
634.3720, 37.93823
634.8541, 38.65430
635.3362, 38.42218
635.8184, 35.12274
636.3005, 31.90985
636.7826, 30.88049
637.2647, 31.51385
637.7468, 33.00446
638.2289, 34.97150
638.7111, 36.67548
639.1932, 37.23883
639.6753, 36.69666
640.1574, 35.11041
640.6395, 31.58527
641.1216, 30.00659
641.6038, 33.46588
642.0859, 38.63147
642.5680, 40.25702
643.0501, 37.78253
643.5322, 35.75690
644.0143, 37.65253
644.4965, 38.88269
644.9786, 33.20801
645.4607, 24.95544
645.9428, 24.15692
646.4249, 33.60175
646.9070, 43.71600
647.3892, 41.65582
647.8713, 28.72931
648.3534, 22.24017
648.8355, 24.58569
649.3176, 26.69348
649.7997, 23.92053
650.2819, 19.79309
650.7640, 20.05670
651.2461, 25.30585
651.7282, 29.31952
652.2103, 31.16418
652.6924, 31.38806
653.1746, 28.86749
653.6567, 25.39581
654.1388, 24.57532
654.6209, 27.12805
655.1030, 29.13068
655.5851, 26.08771
656.0673, 18.93250
656.5494, 12.68878
657.0315, 6.916992
657.5136, 4.675659
657.9957, 8.917358
658.4778, 15.42218
658.9600, 17.88855
659.4421, 15.97284
659.9242, 14.42377
660.4063, 11.69202
660.8884, 11.51630
661.3705, 20.00336
661.8527, 30.28339
662.3348, 31.16376
662.8169, 20.90662
663.2990, 9.589355
663.7811, 7.138306
664.2632, 11.17816
664.7454, 13.78748
665.2275, 14.90613
665.7096, 15.73718
666.1917, 17.06677
666.6738, 17.52191
667.1559, 14.81506
667.6381, 8.404480
668.1202, 5.235291
668.6023, 6.443237
669.0844, 7.920410
669.5665, 10.12817
670.0486, 12.12604
670.5308, 13.31659
671.0129, 13.33099
671.4950, 11.03656
671.9771, 3.471375
672.4592, 5.218262
672.9413, 6.521790
673.4235, 1.085205
673.9056, 5.046265
674.3877, 10.65918
674.8698, 14.33398
675.3519, 14.06415
675.8340, 9.946899
676.3162, 7.867310
676.7983, 9.313019
677.2804, 10.88751
677.7625, 12.25607
678.2446, 13.54797
678.7267, 14.87598
679.2089, 16.47015
679.6910, 18.53253
680.1731, 22.38141
680.6552, 25.01666
681.1373, 21.69208
681.6194, 14.49448
682.1016, 8.787537
682.5837, 5.666077
683.0658, 5.131714
683.5479, 7.582825
684.0300, 12.31967
684.5121, 16.05978
684.9943, 19.21570
685.4764, 20.49048
685.9585, 16.48349
686.4406, 13.60638
686.9227, 17.38708
687.4048, 24.83029
687.8870, 28.22385
688.3691, 24.15564
688.8512, 18.57132
689.3333, 14.56845
689.8154, 11.69904
690.2975, 9.079651
690.7797, 6.855255
691.2618, 6.353149
691.7439, 8.469879
692.2260, 11.85452
692.7081, 13.78989
693.1902, 14.23102
693.6724, 13.49808
694.1545, 10.63461
694.6366, 8.713898
695.1187, 9.592560
695.6008, 12.03555
696.0829, 14.79556
696.5651, 18.79553
697.0472, 20.08514
697.5293, 14.78748
698.0114, 8.997223
698.4935, 7.141083
698.9756, 8.264923
699.4578, 10.26352
699.9399, 12.28754
700.4220, 13.65637
700.9041, 12.47351
701.3862, 9.717346
701.8683, 11.81418
702.3505, 19.57031
702.8326, 24.27664
703.3147, 22.19904
703.7968, 16.03790
704.2789, 7.955261
704.7610, 3.554230
705.2432, 5.796204
705.7253, 10.96799
706.2074, 24.48587
706.6895, 26.40604
707.1716, 23.36319
707.6537, 22.52502
708.1359, 24.46899
708.6180, 24.82999
709.1001, 19.36728
709.5822, 12.44516
710.0643, 9.795746
710.5464, 10.52460
711.0286, 12.15326
711.5107, 14.09280
711.9928, 15.09875
712.4749, 13.84293
712.9570, 10.92523
713.4391, 9.907837
713.9213, 11.72525
714.4034, 13.07559
714.8855, 14.25818
715.3676, 14.16330
715.8497, 10.89554
716.3318, 5.968140
716.8140, 3.224060
717.2961, 4.008331
717.7782, 5.740448
718.2603, 7.847900
718.7424, 9.829773
719.2245, 11.64551
719.7067, 12.85593
720.1888, 11.98682
720.6709, 8.239044
721.1530, 3.745789
721.6351, 1.830109
722.1172, 2.343506
722.5994, 3.054565
723.0815, 4.071259
723.5636, 4.452881
724.0457, 3.838104
724.5278, 2.230896
725.0099, 1.129395
725.4921, 8.002472
725.9742, 9.261322
726.4563, 0.9413150
726.9384, 10.01062
727.4205, 13.19168
727.9026, 12.85248
728.3848, 11.16486
728.8669, 8.856903
729.3490, 7.080292
729.8311, 6.761322
730.3132, 6.983826
730.7953, 6.925934
731.2775, 7.116974
731.7596, 7.962555
732.2417, 9.563873
732.7238, 12.33478
733.2059, 17.06647
733.6880, 22.87552
734.1702, 25.47986
734.6523, 24.77835
735.1344, 20.89960
735.6165, 10.43774
736.0986, 0.7422490
736.5807, 3.367096
737.0629, 3.265167
737.5450, 2.185852
738.0271, 0.7152400
738.5092, 2.182617
738.9913, 10.19974
739.4734, 16.97348
739.9556, 14.37000
740.4377, 6.527130
740.9198, 4.297607
741.4019, 12.13593
741.8840, 21.72894
742.3661, 23.08081
742.8483, 18.52377
743.3304, 16.61899
743.8125, 17.58746
744.2946, 16.50522
744.7767, 10.76639
745.2589, 4.600616
745.7410, 4.044250
746.2231, 9.680969
746.7052, 12.85852
747.1873, 10.87424
747.6694, 10.26517
748.1516, 14.16025
748.6337, 18.50204
749.1158, 20.71326
749.5979, 20.46255
750.0800, 17.45557
750.5621, 9.440338
751.0443, 1.659424
751.5264, 3.263519
752.0085, 5.513641
752.4906, 4.509613
752.9727, 0.7916560
753.4548, 2.971161
753.9370, 5.176361
754.4191, 6.932068
754.9012, 10.93918
755.3833, 16.90717
755.8654, 18.73328
756.3475, 14.83820
756.8297, 13.51633
757.3118, 20.81107
757.7939, 30.56778
758.2760, 30.80087
758.7581, 17.60858
759.2402, 9.689636
759.7224, 9.559204
760.2045, 11.24579
760.6866, 13.65744
761.1687, 16.64737
761.6508, 21.03775
762.1329, 26.40353
762.6151, 29.23242
763.0972, 27.49927
763.5793, 23.89520
764.0614, 17.58783
764.5435, 11.05469
765.0256, 9.073547
765.5078, 11.94000
765.9899, 16.24384
766.4720, 19.80035
766.9541, 22.51483
767.4362, 23.99933
767.9183, 24.24051
768.4005, 24.67444
768.8826, 26.19327
769.3647, 24.97504
769.8468, 17.53424
770.3289, 7.463531
770.8110, 3.499695
771.2932, 6.696991
771.7753, 9.475342
772.2574, 14.00229
772.7395, 16.30545
773.2216, 12.38574
773.7037, 7.000336
774.1859, 5.835052
774.6680, 9.407318
775.1501, 13.72327
775.6322, 16.62228
776.1143, 19.37543
776.5964, 24.39600
777.0786, 29.54053
777.5607, 30.56396
778.0428, 27.19901
778.5249, 22.30923
779.0070, 17.53226
779.4891, 13.94113
779.9713, 15.38547
780.4534, 21.72128
780.9355, 23.43890
781.4176, 18.54160
781.8997, 14.10614
782.3818, 14.54297
782.8640, 17.21494
783.3461, 16.28952
783.8282, 9.794891
784.3103, 8.398590
784.7924, 18.44858
785.2745, 24.46527
785.7567, 17.08133
786.2388, 6.603210
786.7209, 5.200989
787.2030, 13.08948
787.6851, 18.91809
788.1672, 14.99051
788.6494, 10.99783
789.1315, 15.62656
789.6136, 22.89651
790.0957, 23.69199
790.5778, 18.02673
791.0599, 11.90811
791.5421, 8.741913
792.0242, 8.236481
792.5063, 11.28378
792.9884, 16.95065
793.4705, 19.52954
793.9526, 18.34558
794.4348, 16.88733
794.9169, 17.39124
795.3990, 18.18243
795.8811, 15.98245
796.3632, 10.02271
796.8453, 7.747467
797.3275, 13.07922
797.8096, 15.57443
798.2917, 7.656006
798.7738, 0.5816650
799.2559, 0.6922000
799.7380, 9.952179
800.2202, 16.26147
800.7023, 15.74625
801.1844, 14.21741
801.6665, 12.04819
802.1486, 11.04178
802.6307, 15.41699
803.1129, 22.15900
803.5950, 21.86475
804.0771, 9.930115
804.5592, 0.5046690
805.0413, 8.029175
805.5234, 25.21262
806.0056, 30.13715
806.4877, 23.99130
806.9698, 17.76984
807.4519, 15.31830
807.9340, 13.41232
808.4161, 7.583282
808.8983, 0.8646850
809.3804, 1.498535
809.8625, 7.997833
810.3446, 15.07614
810.8267, 16.98834
811.3088, 16.94107
811.7910, 17.03021
812.2731, 17.05328
812.7552, 16.24097
813.2373, 12.74063
813.7194, 11.75089
814.2015, 16.35239
814.6837, 20.26245
815.1658, 19.40826
815.6479, 16.56921
816.1300, 16.68591
816.6121, 20.51645
817.0942, 21.58063
817.5764, 13.56879
818.0585, 4.993134
818.5406, 1.702484
819.0227, 2.286560
819.5048, 5.486572
819.9869, 10.12802
820.4691, 12.76349
820.9512, 10.50723
821.4333, 7.116577
821.9154, 10.41956
822.3975, 18.07617
822.8796, 18.68994
823.3618, 11.36646
823.8439, 6.062439
824.3260, 8.118835
824.8081, 12.49734
825.2902, 10.22903
825.7723, 0.5771790
826.2545, 1.792389
826.7366, 7.926392
827.2187, 12.40503
827.7008, 1.375549
828.1829, 10.26495
828.6650, 5.562073
829.1472, 12.70358
829.6293, 22.74973
830.1114, 18.99408
830.5935, 14.52802
831.0756, 10.26880
831.5577, 6.468628
832.0399, 2.241516
832.5220, 1.017242
833.0041, 0.1477970
833.4862, 5.873657
833.9683, 11.16214
834.4504, 12.19186
834.9326, 11.17133
835.4147, 9.326630
835.8968, 7.222382
836.3789, 5.094727
836.8610, 3.385254
837.3431, 4.187256
837.8253, 10.11832
838.3074, 16.76935
838.7895, 14.63251
839.2716, 6.156952
839.7537, 3.165833
840.2358, 6.854370
840.7180, 10.30292
841.2001, 9.867188
841.6822, 7.328644
842.1643, 5.283936
842.6464, 3.635925
843.1285, 4.975128
843.6107, 10.90952
844.0928, 14.78162
844.5749, 13.34543
845.0570, 11.08167
845.5391, 12.73553
846.0212, 17.67303
846.5034, 20.39981
846.9855, 20.17664
847.4676, 18.92737
847.9497, 14.88794
848.4318, 11.79758
848.9139, 12.83835
849.3961, 15.78326
849.8782, 16.90750
850.3603, 15.68869
850.8424, 13.96951
851.3245, 12.68341
851.8066, 10.92981
852.2888, 6.930786
852.7709, 2.736450
853.2530, 1.264282
853.7351, 2.582886
854.2172, 4.910034
854.6993, 7.636292
855.1815, 9.593353
855.6636, 8.161774
856.1457, 5.395599
856.6278, 6.510529
857.1099, 11.06531
857.5920, 12.95419
858.0742, 9.591431
858.5563, 6.339325
859.0384, 10.91965
859.5205, 21.22943
860.0026, 25.33594
860.4847, 23.05225
860.9669, 18.21072
861.4490, 10.78641
861.9311, 4.581421
862.4132, 2.300659
862.8953, 3.578674
863.3774, 7.028870
863.8596, 15.04391
864.3417, 18.24191
864.8238, 12.51062
865.3059, 8.492126
865.7880, 12.72177
866.2701, 19.19833
866.7523, 19.66888
867.2344, 14.22784
867.7165, 11.38110
868.1986, 14.10617
868.6807, 15.93701
869.1628, 15.19910
869.6450, 13.22116
870.1271, 9.270844
870.6092, 5.565247
871.0913, 7.238617
871.5734, 16.40121
872.0555, 23.88690
872.5377, 25.15857
873.0198, 23.15402
873.5019, 19.18536
873.9840, 14.11917
874.4661, 7.894745
874.9482, 1.358673
875.4304, 1.943909
875.9125, 1.025208
876.3946, 6.703644
876.8767, 12.40338
877.3588, 16.65991
877.8409, 16.31107
878.3231, 12.15070
878.8052, 9.969635
879.2873, 12.26535
879.7694, 15.07507
880.2515, 12.48038
880.7336, 6.202515
881.2158, 5.449493
881.6979, 10.13162
882.1800, 11.89941
882.6621, 8.436829
883.1442, 5.509583
883.6263, 7.577301
884.1085, 13.10394
884.5906, 19.17087
885.0727, 27.41214
885.5548, 26.91132
886.0369, 10.87991
886.5190, 1.350006
887.0012, 10.82550
887.4833, 25.00977
887.9654, 26.81729
888.4475, 16.42993
888.9296, 8.901215
889.4117, 3.555511
889.8939, 2.148132
890.3760, 10.23288
890.8581, 16.67896
891.3402, 11.79453
891.8223, 2.267059
892.3044, 0.6965640
892.7866, 9.914459
893.2687, 17.71848
893.7508, 21.89478
894.2329, 23.07922
894.7150, 19.70276
895.1971, 15.04349
895.6793, 11.72900
896.1614, 9.818359
896.6435, 8.399170
897.1256, 6.661835
897.6077, 6.583405
898.0898, 10.90421
898.5720, 16.34503
899.0541, 20.68335
899.5362, 23.06702
900.0183, 21.70175
900.5004, 16.58270
900.9825, 10.90189
901.4647, 6.407745
901.9468, 3.592743
902.4289, 3.030304
902.9110, 4.658234
903.3931, 10.10040
903.8752, 18.13940
904.3574, 22.23062
904.8395, 19.29178
905.3216, 12.69159
905.8037, 4.975830
906.2858, 2.441742
906.7679, 2.904083
907.2501, 2.963928
907.7322, 8.122131
908.2143, 10.98029
908.6964, 12.53210
909.1785, 13.47629
909.6606, 13.70816
910.1428, 12.50601
910.6249, 9.590729
911.1070, 9.248260
911.5891, 12.42050
912.0712, 13.76575
912.5533, 10.61365
913.0355, 6.726501
913.5176, 5.938934
913.9997, 8.054474
914.4818, 11.90888
914.9639, 19.81412
915.4460, 23.39987
915.9282, 19.31403
916.4103, 15.30682
916.8924, 16.13614
917.3745, 19.01410
917.8566, 18.12094
918.3387, 13.18329
918.8209, 10.29471
919.3030, 11.14352
919.7852, 11.65262
920.2673, 8.876678
920.7494, 7.748962
921.2315, 14.80640
921.7136, 25.26648
922.1957, 27.42700
922.6779, 17.43369
923.1600, 9.817749
923.6421, 9.019165
924.1242, 9.686249
924.6063, 9.991547
925.0884, 10.16187
925.5706, 11.50644
926.0527, 13.15619
926.5348, 11.48792
927.0169, 3.779999
927.4990, 3.218811
927.9811, 7.502960
928.4633, 8.481750
928.9454, 3.231415
929.4275, 4.533234
929.9096, 8.778107
930.3917, 8.758270
930.8738, 8.530670
931.3560, 10.27933
931.8381, 12.80133
932.3202, 17.66238
932.8023, 20.93341
933.2844, 13.97104
933.7665, 1.305511
934.2487, 3.570251
934.7308, 3.285248
935.2129, 10.59088
935.6950, 6.916870
936.1771, 0.1914370
936.6592, 1.373474
937.1414, 7.734253
937.6235, 9.752472
938.1056, 7.132599
938.5877, 5.428436
939.0698, 7.382965
939.5519, 10.23917
940.0341, 10.42984
940.5162, 8.902374
940.9983, 7.920959
941.4804, 7.530060
941.9625, 8.427277
942.4446, 10.56439
942.9268, 11.40369
943.4089, 9.085602
943.8910, 5.602448
944.3731, 4.467529
944.8552, 5.479309
945.3373, 7.984711
945.8195, 11.88071
946.3016, 13.14301
946.7837, 10.46262
947.2658, 7.134064
947.7479, 6.114716
948.2300, 6.401886
948.7122, 4.099091
949.1943, 1.086395
949.6764, 0.9678650
950.1585, 12.28436
950.6406, 18.91824
951.1227, 14.85138
951.6049, 6.597717
952.0870, 0.6028140
952.5691, 2.938751
953.0512, 2.298920
953.5333, 3.657104
954.0154, 8.077026
954.4976, 9.731873
954.9797, 12.18085
955.4618, 18.47726
955.9439, 23.73367
956.4260, 19.70859
956.9081, 6.834229
957.3903, 3.828827
957.8724, 16.64120
958.3545, 23.38171
958.8366, 18.71564
959.3187, 12.31366
959.8008, 8.453033
960.2830, 7.080231
960.7651, 8.757874
961.2472, 14.13556
961.7293, 16.56201
962.2114, 13.46448
962.6935, 12.06854
963.1757, 14.65314
963.6578, 17.91583
964.1399, 20.48050
964.6220, 21.89594
965.1041, 20.84116
965.5862, 16.30826
966.0684, 12.51773
966.5505, 9.144958
967.0326, 7.526367
967.5147, 7.204285
967.9968, 8.558228
968.4789, 14.73605
968.9611, 22.69006
969.4432, 23.26727
969.9253, 11.86981
970.4074, 6.414093
970.8895, 13.49222
971.3716, 19.96365
971.8538, 22.02148
972.3359, 21.64749
972.8180, 20.80142
973.3001, 19.07474
973.7822, 13.79785
974.2643, 1.6602000E-02
974.7465, 4.960602
975.2286, 12.85403
975.7107, 26.47714
976.1928, 19.80042
976.6749, 7.192261
977.1570, 3.155914
977.6392, 7.090363
978.1213, 11.18799
978.6034, 14.46570
979.0855, 16.67163
979.5676, 16.61279
980.0497, 16.78421
980.5319, 20.27417
981.0140, 23.49274
981.4961, 21.04749
981.9782, 13.83862
982.4603, 9.113068
982.9424, 9.359741
983.4246, 10.96829
983.9067, 14.20441
984.3888, 16.95474
984.8709, 17.51871
985.3530, 16.82077
985.8351, 16.50821
986.3173, 16.78204
986.7994, 16.48590
987.2815, 13.97406
987.7636, 12.41177
988.2457, 14.51678
988.7278, 16.49951
989.2100, 13.16620
989.6921, 9.411499
990.1742, 15.20099
990.6563, 29.69641
991.1384, 36.64059
991.6205, 25.22293
992.1027, 13.24072
992.5848, 7.442993
993.0669, 5.794220
993.5490, 8.543091
994.0311, 13.14536
994.5132, 16.23560
994.9954, 17.15723
995.4775, 16.27609
995.9596, 11.94287
996.4417, 8.621704
996.9238, 8.097931
997.4059, 9.662476
997.8881, 15.72217
998.3702, 22.08685
998.8523, 21.10028
999.3344, 12.31036
999.8165, 4.683350
1000.299, 1.832947
1000.781, 1.083435
1001.263, 1.201172
1001.745, 2.884064
1002.227, 8.757996
1002.709, 15.65457
1003.191, 18.24875
1003.673, 15.83435
1004.156, 12.43256
1004.638, 7.750214
1005.120, 5.296783
1005.602, 9.750214
1006.084, 14.15195
1006.566, 9.965851
1007.048, 2.844604
1007.530, 5.156097
1008.013, 17.54572
1008.495, 24.59973
1008.977, 14.68451
1009.459, 5.740051
1009.941, 7.465759
1010.423, 11.74744
1010.905, 12.41629
1011.387, 11.63727
1011.869, 14.93256
1012.352, 22.47015
1012.834, 24.68542
1013.316, 13.44611
1013.798, 4.105927
1014.280, 5.255737
1014.762, 8.687988
1015.244, 8.083618
1015.726, 5.626678
1016.208, 5.657806
1016.691, 8.549683
1017.173, 10.77954
1017.655, 10.87033
1018.137, 10.52661
1018.619, 8.697388
1019.101, 8.379974
1019.583, 13.86084
1020.065, 20.99918
1020.548, 23.40976
1021.030, 20.73215
1021.512, 18.07635
1021.994, 18.52859
1022.476, 16.60434
1022.958, 7.873322
1023.440, 0.7991940
1023.922, 7.011871
1024.404, 9.445953
1024.887, 4.118866
1025.369, 7.680695
1025.851, 14.05740
1026.333, 7.038177
1026.815, 3.453918
1027.297, 11.62677
1027.779, 19.22336
1028.261, 16.67609
1028.744, 11.85425
1029.226, 16.13095
1029.708, 28.33102
1030.190, 35.37347
1030.672, 34.81635
1031.154, 30.05518
1031.636, 15.90601
1032.118, 5.021606
1032.600, 4.778778
1033.083, 9.418121
1033.565, 12.40631
1034.047, 13.66702
1034.529, 14.45487
1035.011, 14.93872
1035.493, 14.81424
1035.975, 14.47607
1036.457, 13.00528
1036.939, 6.107758
1037.422, 1.189209
1037.904, 9.086365
1038.386, 25.16306
1038.868, 30.04559
1039.350, 16.93811
1039.832, 9.415070
1040.314, 10.11304
1040.796, 12.47388
1041.279, 16.67474
1041.761, 19.84167
1042.243, 18.95840
1042.725, 15.36679
1043.207, 12.87448
1043.689, 11.93948
1044.171, 10.11343
1044.653, 6.193207
1045.135, 4.162354
1045.618, 6.027039
1046.100, 7.952637
1046.582, 6.879456
1047.064, 4.365662
1047.546, 3.789856
1048.028, 5.293243
1048.510, 7.825653
1048.992, 12.87234
1049.474, 12.57898
1049.957, 2.479858
1050.439, 3.228973
1050.921, 5.644531
1051.403, 20.37811
1051.885, 26.37158
1052.367, 23.97473
1052.849, 20.21100
1053.331, 14.75989
1053.814, 10.46243
1054.296, 7.718445
1054.778, 6.166504
1055.260, 5.562744
1055.742, 6.604431
1056.224, 10.80005
1056.706, 16.97287
1057.188, 19.35403
1057.671, 18.08908
1058.153, 16.15576
1058.635, 13.87473
1059.117, 11.22015
1059.599, 8.142822
1060.081, 5.852753
1060.563, 5.927826
1061.045, 6.974548
1061.527, 4.944946
1062.010, 0.9042660
1062.492, 0.1946720
1062.974, 1.482086
1063.456, 2.475311
1063.938, 1.870880
1064.420, 2.037720
1064.902, 4.990845
1065.384, 8.882599
1065.866, 11.44324
1066.349, 12.61633
1066.831, 11.81390
1067.313, 9.611664
1067.795, 7.848297
1068.277, 6.661407
1068.759, 3.753235
1069.241, 2.774414
1069.723, 6.827881
1070.206, 0.4185490
1070.688, 11.33371
1071.170, 17.22214
1071.652, 19.48499
1072.134, 21.01605
1072.616, 21.79565
1073.098, 19.55856
1073.580, 13.33273
1074.063, 7.475250
1074.545, 3.676422
1075.027, 2.727020
1075.509, 7.994690
1075.991, 14.13711
1076.473, 15.10748
1076.955, 12.34305
1077.437, 9.096161
1077.919, 6.251587
1078.401, 7.201752
1078.884, 19.44986
1079.366, 27.48651
1079.848, 20.27802
1080.330, 11.66782
1080.812, 11.83908
1081.294, 16.07855
1081.776, 16.48132
1082.258, 13.00220
1082.741, 11.45746
1083.223, 15.73721
1083.705, 16.31329
1084.187, 7.284149
1084.669, 0.4560240
1085.151, 0.8573300
1085.633, 5.273438
1086.115, 13.91962
1086.598, 23.91803
1087.080, 22.56747
1087.562, 2.710083
1088.044, 4.539246
1088.526, 7.942688
1089.008, 16.64587
1089.490, 14.12613
1089.972, 10.66772
1090.454, 14.24072
1090.937, 20.32358
1091.419, 19.05835
1091.901, 10.38324
1092.383, 8.278015
1092.865, 14.01147
1093.347, 14.19287
1093.829, 5.890839
1094.311, 0.4056700
1094.794, 3.772980
1095.276, 9.355713
1095.758, 8.138672
1096.240, 3.580048
1096.722, 10.36771
1097.204, 25.62259
1097.686, 26.83383
1098.168, 14.57880
1098.651, 3.503510
1099.133, 1.304535
1099.615, 0.6599730
1100.097, 11.01309
1100.579, 23.80283
1101.061, 32.54211
1101.543, 36.14999
1102.025, 29.39130
1102.507, 16.81940
1102.990, 8.924744
1103.472, 7.158630
1103.954, 7.886566
1104.436, 9.544952
1104.918, 11.87955
1105.400, 17.05643
1105.882, 20.29214
1106.364, 14.41458
1106.846, 6.509644
1107.329, 4.757965
1107.811, 8.285126
1108.293, 13.77716
1108.775, 20.72244
1109.257, 24.66653
1109.739, 23.78336
1110.221, 20.34430
1110.703, 11.09854
1111.186, 4.078094
1111.668, 6.123566
1112.150, 11.94650
1112.632, 14.84192
1113.114, 14.51031
1113.596, 13.57300
1114.078, 10.94565
1114.560, 10.58997
1115.042, 14.86783
1115.525, 17.42145
1116.007, 15.79059
1116.489, 12.95126
1116.971, 10.82486
1117.453, 9.477997
1117.935, 9.255280
1118.417, 10.24591
1118.899, 9.845703
1119.381, 7.576599
1119.864, 7.287537
1120.346, 9.682068
1120.828, 13.62790
1121.310, 18.89194
1121.792, 22.93518
1122.274, 22.64246
1122.756, 18.81613
1123.238, 11.90137
1123.721, 3.500000
1124.203, 2.056458
1124.685, 6.845703
1125.167, 11.45956
1125.649, 13.97305
1126.131, 15.35223
1126.613, 16.36240
1127.095, 15.78842
1127.578, 9.946045
1128.060, 4.331635
1128.542, 6.271759
1129.024, 12.01175
1129.506, 15.82892
1129.988, 16.96429
1130.470, 15.74814
1130.952, 12.21704
1131.434, 10.36017
1131.917, 14.60690
1132.399, 17.87280
1132.881, 14.08136
1133.363, 10.69583
1133.845, 16.29059
1134.327, 24.38745
1134.809, 24.59280
1135.291, 16.82578
1135.773, 9.180084
1136.256, 2.136932
1136.738, 4.244293
1137.220, 10.50388
1137.702, 22.69931
1138.184, 27.34097
1138.666, 27.12933
1139.148, 22.89328
1139.630, 16.51340
1140.113, 12.18790
1140.595, 9.934021
1141.077, 7.178680
1141.559, 3.644592
1142.041, 3.172974
1142.523, 6.529724
1143.005, 9.157318
1143.487, 8.928345
1143.969, 9.559540
1144.452, 15.98376
1144.934, 23.38980
1145.416, 18.55161
1145.898, 6.751312
1146.380, 4.972778
1146.862, 10.73846
1147.344, 14.43387
1147.826, 14.13083
1148.308, 12.01178
1148.791, 8.846222
1149.273, 7.921661
1149.755, 14.62613
1150.237, 21.32681
1150.719, 21.88702
1151.201, 18.43643
1151.683, 10.24390
1152.165, 1.330078
1152.648, 0.7808840
1153.130, 9.263519
1153.612, 12.70361
1154.094, 0.4353330
1154.576, 6.375519
1155.058, 6.155457
1155.540, 17.87775
1156.022, 19.59454
1156.505, 18.41122
1156.987, 20.71146
1157.469, 24.55103
1157.951, 23.92157
1158.433, 18.08334
1158.915, 14.64444
1159.397, 14.05911
1159.879, 12.86313
1160.361, 10.13922
1160.844, 10.27020
1161.326, 15.81891
1161.808, 20.91888
1162.290, 18.47971
1162.772, 12.11026
1163.254, 10.63562
1163.736, 12.52292
1164.218, 11.98715
1164.700, 10.23834
1165.183, 15.10617
1165.665, 25.54724
1166.147, 26.55118
1166.629, 9.788940
1167.111, 6.094666
1167.593, 4.651733
1168.075, 2.205444
1168.557, 8.337006
1169.040, 11.50467
1169.522, 5.997772
1170.004, 2.398834
1170.486, 1.839142
1170.968, 8.154053
1171.450, 13.97495
1171.932, 10.28955
1172.414, 7.208038
1172.896, 5.487946
1173.379, 5.209839
1173.861, 8.013092
1174.343, 9.923645
1174.825, 6.165314
1175.307, 1.253235
1175.789, 4.912811
1176.271, 16.58246
1176.753, 21.63260
1177.235, 19.74722
1177.718, 17.09149
1178.200, 14.34027
1178.682, 12.01947
1179.164, 10.31747
1179.646, 9.440948
1180.128, 9.505798
1180.610, 10.70804
1181.092, 15.90381
1181.575, 20.61679
1182.057, 13.41815
1182.539, 1.660858
1183.021, 1.183472
1183.503, 10.25299
1183.985, 16.90536
1184.467, 17.50092
1184.949, 15.40121
1185.432, 9.539063
1185.914, 5.243622
1186.396, 5.134308
1186.878, 6.722412
1187.360, 10.95856
1187.842, 14.22345
1188.324, 10.48944
1188.806, 2.179077
1189.288, 6.0973998E-02
1189.771, 4.796295
1190.253, 9.418854
1190.735, 14.60748
1191.217, 16.35822
1191.699, 12.76895
1192.181, 13.36197
1192.663, 23.41190
1193.145, 32.74991
1193.627, 29.72928
1194.110, 20.56406
1194.592, 20.28937
1195.074, 25.07520
1195.556, 22.06281
1196.038, 14.07050
1196.520, 11.77869
1197.002, 15.29019
1197.484, 16.06305
1197.967, 10.25275
1198.449, 7.033020
1198.931, 14.78503
1199.413, 21.72150
1199.895, 18.93869
1200.377, 14.57825
1200.859, 15.79880
1201.341, 18.60931
1201.823, 16.56625
1202.306, 10.73151
1202.788, 7.963409
1203.270, 8.413849
1203.752, 12.63736
1204.234, 23.72958
1204.716, 27.57562
1205.198, 18.29330
1205.680, 7.315186
1206.162, 0.6978760
1206.645, 1.897675
1207.127, 5.0354000E-02
1207.609, 5.086243
1208.091, 11.07437
1208.573, 16.72433
1209.055, 15.67831
1209.537, 10.45404
1210.019, 10.05161
1210.502, 14.85641
1210.984, 19.64676
1211.466, 22.30060
1211.948, 23.11429
1212.430, 20.33511
1212.912, 18.72696
1213.394, 23.12628
1213.876, 27.61343
1214.359, 29.54999
1214.841, 27.78922
1215.323, 17.19336
1215.805, 2.142548
1216.287, 5.4687999E-02
1216.769, 13.93173
1217.251, 21.30267
1217.733, 20.63159
1218.215, 17.51404
1218.698, 11.93839
1219.180, 7.280487
1219.662, 4.887817
1220.144, 4.348206
1220.626, 5.601349
1221.108, 7.236053
1221.590, 5.021179
1222.072, 1.796112
1222.554, 6.687531
1223.037, 15.68173
1223.519, 17.95386
1224.001, 14.34097
1224.483, 14.97971
1224.965, 21.55017
1225.447, 25.73795
1225.929, 21.98187
1226.411, 17.99844
1226.894, 17.23129
1227.376, 16.82401
1227.858, 14.87738
1228.340, 13.02420
1228.822, 12.85718
1229.304, 14.06525
1229.786, 16.24545
1230.268, 19.17429
1230.750, 15.42398
1231.233, 3.616760
1231.715, 1.314484
1232.197, 2.005463
1232.679, 6.955322
1233.161, 11.59366
1233.643, 16.76111
1234.125, 23.15674
1234.607, 28.03683
1235.089, 27.00333
1235.572, 23.54883
1236.054, 22.31726
1236.536, 19.40503
1237.018, 15.46677
1237.500, 9.995331
1237.982, 4.408325
1238.464, 9.8663002E-02
1238.946, 1.562744
1239.429, 12.23544
1239.911, 9.775208
1240.393, 0.0000000E+00
##END=



