##NAMES=Cinnabar
##RRUFFID=R050072
##IDEAL CHEMISTRY=HgS
##LOCALITY=Gui Zhu, Hunan Province, China
##OWNER=RRUFF
##SOURCE=Rock Currier
##DESCRIPTION=Red single crystal associated with calcite
##STATUS=The identification of this mineral has been confirmed by X-ray diffraction and chemical analysis
##URL=rruff.info/R050072
##MEASURED CHEMISTRY=Hg_1.00_S_1.00_
172.452, 0.000
173.833, 9.052
175.213, 47.844
176.594, 40.358
177.974, 123.981
179.354, 125.553
180.734, 171.794
182.114, 210.106
183.493, 18.056
184.872, 242.884
186.251, 183.895
187.630, 157.370
189.008, 33.826
190.387, 71.275
191.765, 102.705
193.143, 89.530
194.520, 196.670
195.898, 33.019
197.275, 212.508
198.652, 184.101
200.029, 281.780
201.405, 246.261
202.782, 274.052
204.158, 177.959
205.534, 426.048
206.909, 616.232
208.285, 547.455
209.660, 731.284
211.035, 867.557
212.410, 912.437
213.784, 1627.364
215.159, 2348.023
216.533, 2856.437
217.907, 3243.630
219.281, 2868.646
220.654, 2213.521
222.027, 1341.270
223.400, 891.943
224.773, 838.724
226.146, 381.447
227.518, 239.012
228.891, 227.435
230.263, 130.713
231.634, 232.422
233.006, 308.715
234.377, 205.201
235.748, 241.422
237.119, 374.271
238.490, 309.540
239.860, 555.877
241.231, 521.923
242.601, 635.855
243.970, 700.493
245.340, 802.146
246.709, 1131.512
248.079, 1072.476
249.448, 1386.926
250.816, 1332.213
252.185, 1608.492
253.553, 1500.771
254.921, 1462.299
256.289, 1411.850
257.657, 1313.860
259.024, 1149.316
260.391, 880.004
261.758, 749.760
263.125, 565.227
264.492, 737.794
265.858, 576.607
267.224, 485.371
268.590, 559.750
269.956, 203.809
271.321, 349.493
272.687, 491.693
274.052, 355.415
275.416, 192.476
276.781, 466.848
278.146, 330.478
279.510, 248.816
280.874, 427.526
282.237, 470.674
283.601, 617.318
284.964, 538.867
286.327, 883.462
287.690, 322.922
289.053, 198.389
290.416, 80.857
291.778, 202.321
293.140, 183.780
294.502, 129.229
295.863, 134.667
297.225, 131.106
298.586, 56.543
299.947, 127.972
301.308, 64.395
302.668, 74.116
304.029, 20.208
305.389, 101.595
306.749, 97.970
308.108, 167.582
309.468, 144.681
310.827, 125.014
312.186, 83.334
313.545, 41.757
314.903, 92.921
316.262, 21.812
317.620, 3.568
318.978, 54.654
320.336, 83.104
321.693, 140.115
323.051, 66.378
324.408, 9.623
325.765, 84.140
327.121, 38.091
328.478, 39.705
329.834, 73.548
331.190, 35.561
332.546, 272.605
333.902, 2.428
335.257, 213.522
336.612, 55.580
337.967, 268.178
339.322, 180.479
340.677, 128.362
342.031, 388.080
343.385, 244.676
344.739, 278.850
346.093, 354.042
347.446, 42.761
348.799, 261.888
350.153, 159.015
351.505, 240.074
352.858, 191.431
354.210, 133.126
355.563, 103.012
356.915, 20.841
358.267, 235.967
359.618, 96.349
360.969, 105.451
362.321, 194.540
363.672, 58.615
365.022, 202.673
366.373, 4.739
367.723, 119.190
369.073, 86.711
370.423, 110.571
371.773, 164.563
373.122, 35.135
374.471, 199.715
375.821, 89.628
377.169, 55.663
378.518, 299.580
379.866, 53.719
381.215, 85.403
382.563, 235.043
383.910, 200.897
385.258, 202.386
386.605, 147.205
387.952, 386.150
389.299, 90.871
390.646, 405.055
391.992, 149.210
393.339, 275.388
394.685, 371.017
396.031, 416.369
397.376, 548.740
398.722, 187.298
400.067, 492.305
401.412, 405.468
402.757, 380.385
404.101, 536.921
405.446, 739.674
406.790, 526.104
408.134, 539.475
409.478, 325.779
410.821, 533.065
412.165, 609.271
413.508, 431.424
414.851, 670.505
416.193, 832.568
417.536, 861.864
418.878, 1053.314
420.220, 1043.484
421.562, 943.522
422.904, 948.547
424.245, 962.027
425.586, 1404.028
426.927, 1173.132
428.268, 1140.410
429.609, 759.431
430.949, 658.381
432.289, 747.311
433.629, 677.864
434.969, 731.126
436.309, 928.993
437.648, 967.792
438.987, 1205.664
440.326, 1091.442
441.665, 997.209
443.003, 1044.960
444.342, 1206.699
445.680, 1082.423
447.018, 1373.133
448.355, 1409.831
449.693, 1293.516
451.030, 1365.149
452.367, 1695.279
453.704, 1799.906
455.041, 1799.442
456.377, 2194.738
457.713, 2029.045
459.049, 2399.322
460.385, 2298.241
461.721, 2647.490
463.056, 2799.807
464.391, 3035.193
465.726, 3321.938
467.061, 3577.318
468.395, 3981.382
469.730, 4145.294
471.064, 4731.529
472.398, 4552.032
473.731, 4733.547
475.065, 4004.246
476.398, 3677.334
477.731, 3212.158
479.064, 3329.685
480.397, 2922.454
481.729, 2855.229
483.062, 3000.773
484.394, 2845.567
485.725, 2963.425
487.057, 2922.722
488.389, 3195.349
489.720, 3373.023
491.051, 3311.811
492.382, 3342.913
493.712, 3610.256
495.043, 3238.601
496.373, 3241.836
497.703, 2701.183
499.032, 2579.370
500.362, 2568.297
501.691, 1937.345
503.020, 2100.459
504.349, 1572.551
505.678, 1632.620
507.007, 1116.670
508.335, 1261.042
509.663, 1162.590
510.991, 948.726
512.319, 1047.168
513.646, 754.106
514.973, 841.217
516.300, 787.271
517.627, 703.845
518.954, 491.195
520.280, 470.425
521.607, 539.881
522.933, 529.375
524.259, 287.243
525.584, 406.513
526.910, 121.340
528.235, 395.186
529.560, 136.658
530.885, 520.973
532.209, 139.217
533.534, 21.362
534.858, 468.806
536.182, 180.540
537.506, 271.365
538.829, 36.990
540.152, 317.162
541.476, 74.193
542.799, 210.803
544.121, 54.645
545.444, 209.483
546.766, 38.453
548.088, 310.807
549.410, 105.535
550.732, 11.274
552.053, 1.697
553.375, 229.497
554.696, 43.752
556.017, 33.400
557.337, 293.891
558.658, 107.261
559.978, 61.229
561.298, 125.518
562.618, 212.061
563.938, 153.948
565.257, 254.461
566.576, 263.082
567.895, 288.873
569.214, 316.641
570.533, 337.110
571.851, 351.002
573.170, 340.888
574.488, 327.372
575.805, 167.414
577.123, 128.683
578.440, 17.768
579.758, 361.021
581.075, 646.175
582.391, 117.254
583.708, 364.861
585.024, 200.350
586.341, 156.083
587.657, 216.652
588.972, 277.301
590.288, 290.694
591.603, 372.067
592.918, 334.950
594.233, 232.655
595.548, 299.677
596.863, 218.953
598.177, 270.617
599.491, 501.845
600.805, 608.443
602.119, 655.083
603.432, 547.238
604.746, 457.370
606.059, 455.857
607.372, 524.529
608.685, 281.010
609.997, 448.043
611.309, 473.252
612.621, 337.241
613.933, 346.376
615.245, 258.318
616.557, 238.238
617.868, 277.475
619.179, 242.400
620.490, 142.628
621.801, 41.496
623.111, 140.271
624.421, 185.170
625.731, 292.937
627.041, 76.967
628.351, 272.469
629.660, 138.608
630.970, 90.821
632.279, 240.867
633.588, 23.274
634.896, 176.582
636.205, 81.817
637.513, 384.391
638.821, 289.747
640.129, 121.352
641.437, 436.076
642.744, 78.554
644.051, 80.039
645.358, 209.750
646.665, 174.057
647.972, 115.521
649.278, 85.143
650.584, 201.368
651.890, 95.984
653.196, 398.504
654.502, 47.219
655.807, 304.449
657.113, 24.549
658.418, 172.618
659.722, 398.957
661.027, 309.977
662.331, 486.973
663.636, 518.026
664.940, 265.976
666.244, 93.146
667.547, 146.181
668.851, 96.922
670.154, 6.587
671.457, 116.608
672.760, 94.326
674.062, 104.147
675.365, 105.815
676.667, 29.456
677.969, 254.069
679.271, 52.661
680.572, 60.223
681.874, 69.241
683.175, 196.224
684.476, 107.267
685.777, 157.689
687.077, 212.747
688.378, 38.124
689.678, 187.316
690.978, 68.745
692.278, 56.057
693.577, 191.803
694.877, 175.353
696.176, 21.507
697.475, 149.585
698.774, 152.066
700.072, 87.097
701.371, 81.447
702.669, 230.420
703.967, 197.173
705.265, 251.206
706.562, 216.799
707.860, 179.263
709.157, 31.526
710.454, 155.423
711.751, 53.556
713.047, 84.087
714.344, 82.934
715.640, 237.261
716.936, 99.622
718.232, 44.009
719.527, 426.636
720.823, 38.002
722.118, 84.789
723.413, 56.425
724.708, 47.183
726.002, 23.725
727.297, 222.244
728.591, 165.013
729.885, 2.775
731.179, 101.754
732.472, 41.425
733.766, 36.575
735.059, 41.011
736.352, 47.321
737.645, 58.888
738.937, 165.094
740.230, 289.365
741.522, 12.496
742.814, 32.544
744.106, 130.430
745.397, 276.204
746.689, 196.006
747.980, 3.442
749.271, 428.748
750.562, 11.847
751.853, 333.925
753.143, 84.947
754.433, 310.991
755.723, 88.021
757.013, 72.032
758.303, 352.024
759.592, 187.030
760.881, 89.996
762.170, 39.946
763.459, 79.639
764.748, 462.797
766.036, 133.188
767.325, 400.078
768.613, 138.959
769.901, 403.826
771.188, 219.682
772.476, 45.478
773.763, 166.333
775.050, 88.131
776.337, 166.571
777.624, 201.964
778.910, 17.622
780.196, 162.959
781.482, 78.694
782.768, 6.150
784.054, 37.558
785.339, 14.083
786.625, 47.106
787.910, 86.772
789.195, 73.311
790.479, 130.760
791.764, 9.359
793.048, 178.264
794.332, 77.123
795.616, 67.029
796.900, 120.602
798.183, 112.559
799.467, 58.516
800.750, 150.004
802.033, 110.336
803.316, 59.584
804.598, 187.338
805.880, 61.262
807.163, 78.668
808.445, 26.115
809.726, 23.184
811.008, 180.236
812.289, 254.805
813.570, 90.020
814.851, 288.436
816.132, 225.846
817.413, 141.256
818.693, 176.082
819.973, 103.477
821.253, 129.527
822.533, 156.600
823.813, 235.502
825.092, 184.877
826.371, 297.809
827.650, 124.818
828.929, 203.691
830.208, 216.566
831.486, 362.240
832.764, 409.191
834.042, 396.197
835.320, 536.924
836.598, 305.736
837.875, 285.256
839.152, 169.102
840.429, 212.154
841.706, 396.438
842.983, 113.982
844.259, 200.156
845.536, 422.854
846.812, 216.490
848.088, 287.859
849.363, 86.049
850.639, 286.984
851.914, 212.008
853.189, 211.047
854.464, 285.811
855.739, 318.543
857.013, 257.789
858.288, 313.465
859.562, 122.268
860.836, 281.504
862.110, 294.660
863.383, 168.197
864.656, 350.248
865.930, 41.205
867.203, 148.955
868.475, 299.771
869.748, 201.410
871.020, 69.268
872.292, 166.842
873.564, 154.264
874.836, 117.830
876.108, 113.883
877.379, 142.479
878.650, 230.527
879.922, 214.088
881.192, 217.395
882.463, 175.246
883.733, 139.549
885.004, 42.535
886.274, 224.266
887.544, 81.264
888.813, 299.865
890.083, 99.426
891.352, 70.281
892.621, 253.609
893.890, 220.051
895.159, 158.219
896.427, 12.486
897.695, 22.680
898.964, 13.828
900.232, 71.605
901.499, 153.670
902.767, 275.219
904.034, 433.031
905.301, 417.969
906.568, 421.531
907.835, 396.586
909.102, 285.816
910.368, 245.002
911.634, 180.408
912.900, 463.123
914.166, 306.176
915.432, 213.566
916.697, 295.201
917.962, 81.348
919.227, 245.914
920.492, 240.102
921.757, 282.209
923.021, 307.273
924.285, 404.232
925.550, 320.303
926.813, 245.533
928.077, 350.973
929.341, 289.709
930.604, 338.406
931.867, 345.305
933.130, 243.371
934.393, 305.551
935.655, 542.613
936.918, 209.439
938.180, 502.350
939.442, 328.566
940.703, 312.779
941.965, 497.941
943.226, 475.330
944.488, 517.420
945.749, 269.324
947.009, 482.713
948.270, 472.352
949.530, 321.676
950.791, 371.748
952.051, 474.018
953.311, 355.260
954.570, 323.408
955.830, 415.059
957.089, 382.559
958.348, 407.027
959.607, 276.641
960.866, 549.982
962.124, 382.033
963.383, 397.695
964.641, 479.441
965.899, 301.277
967.156, 472.934
968.414, 514.613
969.671, 194.871
970.928, 308.867
972.185, 255.432
973.442, 480.459
974.699, 445.568
975.955, 449.766
977.211, 482.443
978.468, 273.545
979.723, 597.775
980.979, 465.412
982.234, 294.238
983.490, 629.680
984.745, 318.145
986.000, 546.912
987.254, 471.604
988.509, 267.203
989.763, 516.834
991.017, 626.375
992.271, 551.725
993.525, 429.566
994.779, 543.014
996.032, 550.449
997.285, 380.797
998.538, 620.756
999.791, 347.434
1001.044, 626.637
1002.296, 131.549
1003.548, 420.297
1004.800, 471.516
1006.052, 452.414
1007.304, 541.387
1008.555, 525.695
1009.807, 422.443
1011.058, 536.203
1012.309, 431.473
1013.559, 443.803
1014.810, 496.340
1016.060, 317.094
1017.310, 481.369
1018.560, 385.973
1019.810, 309.676
1021.060, 525.244
1022.309, 531.008
1023.558, 365.887
1024.807, 577.160
1026.056, 376.742
1027.305, 597.469
1028.553, 362.748
1029.801, 691.236
1031.049, 593.037
1032.297, 317.006
1033.545, 494.967
1034.793, 729.268
1036.040, 548.225
1037.287, 474.406
1038.534, 312.666
1039.781, 348.270
1041.027, 748.766
1042.274, 537.199
1043.520, 775.998
1044.766, 1087.117
1046.012, 556.381
1047.257, 615.391
1048.503, 629.844
1049.748, 833.596
1050.993, 485.883
1052.238, 753.367
1053.483, 661.875
1054.727, 740.504
1055.971, 603.027
1057.216, 922.699
1058.459, 846.996
1059.703, 742.951
1060.947, 517.238
1062.190, 743.402
1063.433, 585.699
1064.676, 702.242
1065.919, 579.203
1067.162, 639.688
1068.404, 772.648
1069.646, 529.338
1070.888, 683.336
1072.130, 745.006
1073.372, 702.105
1074.613, 601.842
1075.855, 626.707
1077.096, 501.734
1078.337, 503.375
1079.578, 523.621
1080.818, 671.012
1082.059, 649.750
1083.299, 531.771
1084.539, 697.184
1085.779, 571.959
1087.018, 520.814
1088.258, 472.877
1089.497, 504.629
1090.736, 499.246
1091.975, 493.721
1093.213, 467.057
1094.452, 327.254
1095.690, 448.301
1096.928, 345.223
1098.166, 462.994
1099.404, 505.623
1100.642, 395.109
1101.879, 481.453
1103.116, 454.650
1104.353, 284.703
1105.590, 398.613
1106.827, 295.377
1108.063, 745.998
1109.299, 268.484
1110.536, 435.818
1111.771, 303.010
1113.007, 29.047
1114.243, 405.895
1115.478, 268.592
1116.713, 147.133
1117.948, 317.512
1119.183, 386.311
1120.418, 126.383
1121.652, 319.092
1122.886, 312.840
1124.120, 290.436
1125.354, 402.873
1126.588, 161.158
1127.821, 238.100
1129.055, 198.061
1130.288, 309.855
1131.521, 386.367
1132.753, 195.852
1133.986, 158.123
1135.218, 281.271
1136.450, 292.264
1137.682, 268.229
1138.914, 273.471
1140.146, 165.980
1141.377, 216.324
1142.609, 82.502
1143.840, 141.500
1145.071, 249.330
1146.301, 310.994
1147.532, 373.502
1148.762, 215.783
1149.992, 282.969
1151.222, 163.492
1152.452, 218.854
1153.682, 247.611
1154.911, 229.141
1156.140, 271.508
1157.369, 278.928
1158.598, 214.914
1159.827, 294.867
1161.055, 263.688
1162.284, 227.877
1163.512, 191.650
1164.740, 68.543
1165.967, 187.588
1167.195, 43.379
1168.422, 341.322
1169.650, 90.188
1170.877, 147.533
1172.103, 22.521
1173.330, 47.576
1174.557, 52.133
1175.783, 65.332
1177.009, 137.223
1178.235, 116.283
1179.461, 167.545
1180.686, 21.545
1181.912, 131.998
1183.137, 47.178
1184.362, 206.201
1185.587, 157.014
1186.811, 19.643
1188.036, 73.221
1189.260, 24.633
1190.484, 74.717
1191.708, 54.957
1192.932, 213.451
1194.155, 267.781
1195.378, 137.035
1196.602, 193.125
1197.825, 25.518
1199.047, 169.604
1200.270, 110.494
1201.492, 224.564
1202.715, 377.059
1203.937, 231.627
1205.159, 51.533
1206.380, 67.480
1207.602, 155.721
1208.823, 109.959
1210.044, 139.721
1211.265, 13.711
1212.486, 5.568
1213.707, 49.572
1214.927, 84.568
1216.147, 20.611
1217.367, 53.293
1218.587, 61.207
1219.807, 85.812
1221.027, 44.912
1222.246, 223.719
1223.465, 9.680
1224.684, 202.211
1225.903, 230.977
1227.121, 210.699
1228.340, 303.449
1229.558, 436.914
1230.776, 304.324
1231.994, 420.312
1233.212, 339.674
1234.429, 513.717
1235.646, 700.463
1236.864, 586.246
1238.081, 998.916
1239.297, 880.436
1240.514, 1220.717
1241.730, 1457.287
1242.947, 1482.236
1244.163, 1643.633
1245.378, 1851.396
1246.594, 1968.215
1247.810, 2316.445
1249.025, 2367.414
1250.240, 2509.148
1251.455, 2506.553
1252.670, 2663.311
1253.885, 2617.514
1255.099, 2548.486
1256.313, 2596.336
1257.527, 2376.770
1258.741, 2571.529
1259.955, 2580.041
1261.168, 2081.998
1262.382, 2140.264
1263.595, 2104.334
1264.808, 1867.574
1266.021, 2002.992
1267.233, 1974.428
1268.446, 1706.320
1269.658, 1364.078
1270.870, 1300.619
1272.082, 1110.496
1273.294, 875.768
1274.505, 782.592
1275.716, 816.928
1276.928, 707.865
1278.139, 552.014
1279.349, 758.971
1280.560, 656.461
1281.770, 585.830
1282.981, 627.143
1284.191, 449.258
1285.401, 492.291
1286.610, 329.354
1287.820, 307.760
1289.029, 287.057
1290.239, 226.496
1291.448, 273.139
1292.656, 210.791
1293.865, 244.625
1295.073, 276.527
1296.282, 64.828
1297.490, 66.863
1298.698, 149.828
1299.906, 263.693
1301.113, 267.342
1302.320, 55.768
1303.528, 67.918
1304.735, 28.609
1305.942, 66.844
1307.148, 9.279
1308.355, 10.934
1309.561, 69.213
1310.767, 219.506
1311.973, 191.801
1313.179, 64.326
1314.384, 161.867
1315.590, 225.943
1316.795, 145.840
1318.000, 50.197
1319.205, 19.961
1320.410, 132.424
1321.614, 290.338
1322.819, 183.051
1324.023, 206.117
1325.227, 39.982
1326.431, 180.725
1327.634, 181.924
1328.838, 0.934
1330.041, 74.916
1331.244, 128.719
1332.447, 181.412
1333.650, 187.482
1334.852, 92.559
1336.055, 126.656
1337.257, 217.113
1338.459, 169.404
1339.661, 247.055
1340.862, 372.404
1342.064, 262.314
1343.265, 194.836
1344.466, 433.416
1345.667, 435.965
1346.868, 307.320
1348.068, 701.713
1349.269, 365.883
1350.469, 451.371
1351.669, 716.145
1352.869, 586.543
1354.069, 648.990
1355.268, 796.760
1356.468, 546.332
1357.667, 759.938
1358.866, 736.156
1360.065, 555.113
1361.263, 886.994
1362.462, 662.588
1363.660, 860.551
1364.858, 935.135
1366.056, 959.787
1367.254, 973.145
1368.451, 998.082
1369.649, 1108.543
1370.846, 780.443
1372.043, 1124.611
1373.240, 988.561
1374.436, 1176.080
1375.633, 1610.951
1376.829, 1065.602
1378.025, 1454.791
1379.221, 1305.041
1380.417, 1336.375
1381.613, 1328.684
1382.808, 1463.326
1384.003, 1572.871
1385.199, 1635.322
1386.393, 1743.682
1387.588, 1745.949
1388.783, 1841.777
1389.977, 2162.229
1391.171, 2106.232
1392.365, 1955.160
1393.559, 2334.059
1394.753, 2536.891
1395.946, 2421.662
1397.140, 2643.385
1398.333, 2888.047
1399.526, 2991.658
1400.719, 3196.225
1401.911, 3378.746
1403.104, 3422.234
1404.296, 3578.688
1405.488, 3829.102
1406.680, 4387.496
1407.872, 4211.896
1409.063, 4748.273
1410.255, 5370.625
1411.446, 5040.168
1412.637, 5497.371
1413.828, 5814.184
1415.018, 6204.070
1416.209, 6572.645
1417.399, 6931.598
1418.589, 6850.277
1419.779, 7449.754
1420.969, 7464.734
1422.159, 8223.871
1423.348, 8201.203
1424.537, 8621.949
1425.726, 9358.461
1426.915, 9459.164
1428.104, 9660.473
1429.293, 10395.594
1430.481, 10709.938
1431.669, 11066.434
1432.857, 11408.074
1434.045, 12092.141
1435.233, 12114.559
1436.420, 13097.312
1437.608, 13361.422
1438.795, 13435.879
1439.982, 13679.793
1441.169, 13834.992
1442.355, 13954.523
1443.542, 13921.320
1444.728, 14015.297
1445.914, 13930.469
1447.100, 13659.781
1448.286, 13398.141
1449.472, 13214.484
1450.657, 12778.762
1451.842, 12815.945
1453.027, 12182.996
1454.212, 11266.121
1455.397, 11525.402
1456.581, 10565.844
1457.766, 10558.469
1458.950, 10121.289
1460.134, 9406.316
1461.318, 9321.574
1462.501, 8729.070
1463.685, 8454.824
1464.868, 8748.859
1466.051, 7924.188
1467.234, 7991.836
1468.417, 7309.914
1469.600, 7152.480
1470.782, 7049.648
1471.965, 7138.664
1473.147, 6621.297
1474.329, 6757.555
1475.510, 6756.465
1476.692, 6297.000
1477.873, 6203.133
1479.055, 6068.883
1480.236, 5896.262
1481.416, 6176.277
1482.597, 5463.945
1483.778, 5226.270
1484.958, 5162.289
1486.138, 4497.047
1487.318, 4609.602
1488.498, 4607.055
1489.678, 4143.504
1490.857, 3526.031
1492.037, 3409.719
1493.216, 3269.660
1494.395, 3041.973
1495.574, 2682.770
1496.752, 2520.164
1497.931, 1879.266
1499.109, 2121.152
1500.287, 1319.957
1501.465, 1718.840
1502.643, 830.984
1503.820, 666.625
1504.998, 908.039
1506.175, 420.547
1507.352, 298.512
1508.529, 631.344
1509.706, 332.508
1510.882, 143.555
1512.059, 138.172
1513.235, 434.211
1514.411, 176.742
1515.587, 79.906
1516.762, 310.938
1517.938, 17.418
1519.113, 258.238
1520.288, 62.805
1521.463, 110.207
1522.638, 0.000
##END=



