##NAMES=Clinoatacamite
##RRUFFID=R061066
##IDEAL CHEMISTRY=Cu_2_(OH)_3_Cl
##LOCALITY=Esperanza mine, Diego de Almagro, Chile
##OWNER=RRUFF
##SOURCE=Bob Jenkins
##DESCRIPTION=Aggregates of dark green pseudo-octahedral crystals associated with malachite
##STATUS=The identification of this mineral is confirmed by single-crystal X-ray diffraction and chemical analysis.
##URL=rruff.info/R061066
##MEASURED CHEMISTRY=Cu_2.00_Cl_1.00_(OH)_3_
118.1473, 0.0000000E+00
118.6294, 3.089355
119.1115, 3.358398
119.5937, 9.067383
120.0758, 1.098633
120.5579, 14.73047
121.0400, 3.367188
121.5221, 84.82715
122.0042, 223.6172
122.4864, 401.2520
122.9685, 607.8174
123.4506, 842.0605
123.9327, 1103.454
124.4148, 1384.149
124.8969, 1693.104
125.3791, 2041.818
125.8612, 2426.341
126.3433, 2847.879
126.8254, 3317.586
127.3075, 3784.084
127.7896, 4078.426
128.2718, 4240.166
128.7539, 4413.502
129.2360, 4586.836
129.7181, 4749.784
130.2002, 4931.278
130.6823, 5180.978
131.1645, 5494.508
131.6466, 5833.211
132.1287, 6150.722
132.6108, 6458.221
133.0929, 6840.291
133.5750, 7332.519
134.0572, 7897.826
134.5393, 8412.425
135.0214, 8867.105
135.5035, 9298.866
135.9856, 9728.070
136.4677, 10150.63
136.9498, 10601.84
137.4320, 11087.74
137.9141, 11610.67
138.3962, 12182.93
138.8783, 12821.16
139.3604, 13491.67
139.8425, 14182.96
140.3247, 14984.03
140.8068, 15578.32
141.2889, 15921.70
141.7710, 16146.68
142.2531, 15707.46
142.7352, 14438.59
143.2174, 12597.67
143.6995, 10820.85
144.1816, 9023.695
144.6637, 7419.036
145.1458, 6144.255
145.6279, 5255.064
146.1101, 4546.922
146.5922, 4039.921
147.0743, 3721.822
147.5564, 3414.881
148.0385, 3117.119
148.5206, 2831.967
149.0028, 2565.662
149.4849, 2331.771
149.9670, 2097.419
150.4491, 1840.254
150.9312, 1535.640
151.4133, 1323.882
151.8955, 1269.054
152.3776, 1287.253
152.8597, 1277.744
153.3418, 1179.648
153.8239, 1100.438
154.3060, 1073.502
154.7882, 1125.271
155.2703, 1175.013
155.7524, 1204.016
156.2345, 1224.016
156.7166, 1259.465
157.1987, 1306.341
157.6808, 1376.265
158.1630, 1476.812
158.6451, 1629.175
159.1272, 1784.670
159.6093, 1920.086
160.0914, 2044.279
160.5735, 2194.439
161.0557, 2410.831
161.5378, 2644.365
162.0199, 2858.592
162.5020, 3022.264
162.9841, 3181.155
163.4662, 3356.824
163.9484, 3548.358
164.4305, 3732.006
164.9126, 3892.252
165.3947, 4041.550
165.8768, 4190.606
166.3589, 4381.402
166.8411, 4545.924
167.3232, 4656.731
167.8053, 4710.244
168.2874, 4686.630
168.7695, 4572.652
169.2516, 4378.293
169.7338, 4112.182
170.2159, 3739.128
170.6980, 3328.688
171.1801, 2928.277
171.6622, 2522.256
172.1443, 2145.558
172.6265, 1841.728
173.1086, 1616.202
173.5907, 1415.468
174.0728, 1200.301
174.5549, 1009.008
175.0370, 874.6152
175.5192, 829.7090
176.0013, 797.6582
176.4834, 721.6914
176.9655, 608.3164
177.4476, 511.0532
177.9297, 480.8110
178.4118, 493.4893
178.8940, 498.0283
179.3761, 464.5928
179.8582, 425.7598
180.3403, 442.9302
180.8224, 515.9692
181.3046, 592.2368
181.7867, 627.0093
182.2688, 626.6396
182.7509, 612.3174
183.2330, 584.8247
183.7151, 550.0566
184.1973, 520.5591
184.6794, 497.4224
185.1615, 474.3203
185.6436, 440.3091
186.1257, 397.2798
186.6078, 362.2891
187.0900, 348.9512
187.5721, 350.8784
188.0542, 340.1587
188.5363, 312.7441
189.0184, 281.3740
189.5005, 264.8994
189.9827, 263.3281
190.4648, 265.6147
190.9469, 265.3584
191.4290, 263.6460
191.9111, 266.5308
192.3932, 275.9775
192.8754, 288.3608
193.3575, 293.8125
193.8396, 291.3794
194.3217, 292.8872
194.8038, 309.9771
195.2859, 342.0400
195.7681, 366.9551
196.2502, 380.2173
196.7323, 384.8350
197.2144, 389.1841
197.6965, 392.7861
198.1786, 397.0298
198.6607, 409.1851
199.1429, 431.0728
199.6250, 429.0400
200.1071, 385.3213
200.5892, 312.1968
201.0713, 278.7041
201.5534, 293.0503
202.0356, 323.0210
202.5177, 341.5513
202.9998, 349.8823
203.4819, 339.1855
203.9640, 300.9424
204.4461, 237.3887
204.9283, 190.4116
205.4104, 163.0078
205.8925, 147.0317
206.3746, 135.1929
206.8567, 130.1411
207.3388, 118.8589
207.8210, 93.76367
208.3031, 45.28724
208.7852, 51.18361
209.2673, 53.05716
209.7494, 51.13086
210.2315, 33.64358
210.7137, 36.54039
211.1958, 31.44638
211.6779, 26.14641
212.1600, 32.27586
212.6421, 17.70512
213.1242, 23.90923
213.6064, 21.99759
214.0885, 23.98564
214.5706, 17.93212
215.0527, 14.52854
215.5348, 19.42305
216.0169, 19.92008
216.4991, 13.43375
216.9812, 16.42331
217.4633, 2.836764
217.9454, 4.034327
218.4275, 11.68274
218.9096, 6.242173
219.3917, 10.01585
219.8739, 10.45537
220.3560, -4.706480
220.8381, 7.612042
221.3202, 8.228051
221.8023, -3.175261
222.2844, 8.586863
222.7666, -0.8880193
223.2487, -2.610325
223.7308, 1.533106
224.2129, -0.1789930
224.6950, 7.667929
225.1771, 6.555178
225.6593, 4.757763
226.1414, 6.630049
226.6235, -1.410290
227.1056, 9.301756
227.5877, 7.418000
228.0698, 11.98535
228.5520, 18.11352
229.0341, 13.39231
229.5162, 20.41810
229.9983, 9.550878
230.4804, 13.88850
230.9625, 16.72951
231.4447, 29.33554
231.9268, 19.06397
232.4089, 23.49056
232.8910, 34.24831
233.3731, 36.45179
233.8552, 42.41193
234.3374, 37.75455
234.8195, 43.31771
235.3016, 46.22547
235.7837, 58.87481
236.2658, 64.06065
236.7479, 60.21966
237.2301, 56.54527
237.7122, 70.39439
238.1943, 67.88101
238.6764, 75.56201
239.1585, 94.40723
239.6406, 112.1040
240.1227, 124.1611
240.6049, 129.4570
241.0870, 142.6206
241.5691, 169.0942
242.0512, 198.8706
242.5333, 218.3789
243.0154, 219.7461
243.4976, 223.0386
243.9797, 231.5029
244.4618, 243.1353
244.9439, 273.0908
245.4260, 334.8213
245.9081, 405.0576
246.3903, 449.5986
246.8724, 455.5117
247.3545, 457.4775
247.8366, 464.3584
248.3187, 476.2896
248.8008, 492.7305
249.2830, 516.7095
249.7651, 543.2764
250.2472, 563.2334
250.7293, 570.4146
251.2114, 582.3711
251.6935, 605.9917
252.1757, 644.5747
252.6578, 681.8794
253.1399, 717.2197
253.6220, 751.7427
254.1041, 788.0776
254.5862, 830.4702
255.0684, 867.3579
255.5505, 893.4834
256.0326, 904.6108
256.5147, 920.4434
256.9968, 943.8076
257.4789, 970.1084
257.9611, 990.3379
258.4432, 1003.464
258.9253, 1012.373
259.4074, 1017.773
259.8895, 1019.016
260.3716, 1018.456
260.8538, 1015.863
261.3359, 1011.572
261.8180, 1006.099
262.3001, 998.2402
262.7822, 991.6631
263.2643, 988.6968
263.7465, 991.6978
264.2286, 990.1953
264.7107, 984.9106
265.1928, 974.7061
265.6749, 955.2017
266.1570, 920.2627
266.6392, 890.3257
267.1213, 876.2266
267.6034, 883.5259
268.0855, 883.9829
268.5676, 877.8369
269.0497, 864.3154
269.5318, 838.4336
270.0139, 794.2383
270.4961, 753.0674
270.9782, 726.8608
271.4603, 719.7905
271.9424, 706.6519
272.4245, 683.6470
272.9066, 657.6597
273.3888, 646.0977
273.8709, 653.2104
274.3530, 654.4873
274.8351, 634.7534
275.3172, 591.2827
275.7993, 559.6230
276.2815, 543.7749
276.7636, 535.8027
277.2457, 519.2866
277.7278, 492.2515
278.2099, 465.4741
278.6920, 445.5400
279.1742, 433.3545
279.6563, 422.8594
280.1384, 414.4170
280.6205, 401.8330
281.1026, 370.3442
281.5847, 317.5952
282.0669, 266.6772
282.5490, 230.3320
283.0311, 209.2720
283.5132, 195.2412
283.9953, 190.8608
284.4774, 187.1606
284.9596, 164.4180
285.4417, 117.8784
285.9238, 71.80713
286.4059, 43.43994
286.8880, 35.24951
287.3701, 30.40527
287.8523, 24.68799
288.3344, 17.99902
288.8165, 13.02930
289.2986, 11.51855
289.7807, 11.83496
290.2628, 14.29785
290.7450, 17.16943
291.2271, 13.53809
291.7092, 1.202148
292.1913, 11.29346
292.6734, 11.32861
293.1555, 0.5966800
293.6377, 12.37305
294.1198, 27.46533
294.6019, 42.87158
295.0840, 47.94385
295.5661, 39.28906
296.0482, 30.61328
296.5304, 47.03271
297.0125, 82.08447
297.4946, 106.7144
297.9767, 97.12939
298.4588, 69.22119
298.9409, 51.66064
299.4231, 45.93506
299.9052, 53.00342
300.3873, 86.38086
300.8694, 135.1055
301.3515, 168.9546
301.8336, 160.6265
302.3158, 133.7524
302.7979, 120.3618
303.2800, 121.6030
303.7621, 131.9473
304.2442, 150.2534
304.7263, 173.7432
305.2085, 197.4917
305.6906, 226.3394
306.1727, 250.0298
306.6548, 255.3555
307.1369, 241.2744
307.6190, 223.1309
308.1012, 207.6250
308.5833, 196.6709
309.0654, 192.7686
309.5475, 207.0396
310.0296, 221.9067
310.5117, 222.5972
310.9938, 208.9111
311.4760, 193.6685
311.9581, 180.5757
312.4402, 171.3940
312.9223, 168.3159
313.4044, 172.0488
313.8865, 182.0337
314.3687, 201.5166
314.8508, 229.7168
315.3329, 254.6792
315.8150, 274.8042
316.2971, 287.5078
316.7792, 289.9556
317.2614, 267.4756
317.7435, 248.0498
318.2256, 245.1396
318.7077, 256.7812
319.1898, 265.8784
319.6719, 259.2422
320.1541, 252.2163
320.6362, 256.0723
321.1183, 286.4268
321.6004, 313.8325
322.0825, 328.3423
322.5646, 332.8188
323.0468, 342.6328
323.5289, 363.8477
324.0110, 389.1680
324.4931, 414.5874
324.9752, 440.6001
325.4573, 464.8755
325.9395, 483.0049
326.4216, 497.8345
326.9037, 521.2915
327.3858, 558.0586
327.8679, 600.2344
328.3500, 645.7056
328.8322, 709.7910
329.3143, 752.7969
329.7964, 758.6885
330.2785, 744.3667
330.7606, 753.0522
331.2427, 799.2554
331.7249, 854.7300
332.2070, 910.4517
332.6891, 972.2739
333.1712, 1018.780
333.6533, 1043.789
334.1354, 1057.141
334.6176, 1075.460
335.0997, 1094.936
335.5818, 1123.732
336.0639, 1166.279
336.5460, 1226.451
337.0281, 1291.438
337.5103, 1363.820
337.9924, 1435.209
338.4745, 1491.482
338.9566, 1529.492
339.4387, 1571.049
339.9208, 1625.031
340.4030, 1690.705
340.8851, 1746.278
341.3672, 1787.351
341.8493, 1830.472
342.3314, 1897.326
342.8135, 1988.118
343.2957, 2082.856
343.7778, 2175.125
344.2599, 2266.285
344.7420, 2364.964
345.2241, 2470.016
345.7062, 2578.834
346.1884, 2682.138
346.6705, 2783.668
347.1526, 2901.651
347.6347, 3040.969
348.1168, 3199.188
348.5989, 3373.019
349.0811, 3559.659
349.5632, 3750.389
350.0453, 3927.098
350.5274, 4100.332
351.0095, 4299.480
351.4916, 4532.208
351.9737, 4786.102
352.4558, 5044.222
352.9380, 5308.571
353.4201, 5589.458
353.9022, 5905.403
354.3843, 6237.674
354.8664, 6560.038
355.3485, 6863.705
355.8307, 7168.226
356.3128, 7483.813
356.7949, 7808.526
357.2770, 8144.979
357.7591, 8519.782
358.2412, 8891.210
358.7234, 9225.544
359.2055, 9516.448
359.6876, 9787.756
360.1697, 10045.49
360.6518, 10291.20
361.1339, 10534.83
361.6161, 10807.89
362.0982, 11053.43
362.5803, 11238.75
363.0624, 11361.30
363.5445, 11456.72
364.0266, 11545.22
364.5088, 11606.62
364.9909, 11621.44
365.4730, 11573.08
365.9551, 11491.34
366.4372, 11375.11
366.9193, 11225.70
367.4015, 11066.53
367.8836, 10912.63
368.3657, 10742.84
368.8478, 10546.41
369.3299, 10326.67
369.8120, 10074.96
370.2942, 9791.184
370.7763, 9476.669
371.2584, 9141.613
371.7405, 8799.976
372.2226, 8421.227
372.7047, 7980.141
373.1869, 7447.095
373.6690, 6931.308
374.1511, 6438.140
374.6332, 5963.246
375.1153, 5500.721
375.5974, 5054.338
376.0796, 4621.045
376.5617, 4192.719
377.0438, 3774.553
377.5259, 3387.773
378.0080, 3035.828
378.4901, 2714.570
378.9723, 2428.822
379.4544, 2178.040
379.9365, 1944.916
380.4186, 1726.354
380.9007, 1520.615
381.3828, 1334.049
381.8650, 1164.070
382.3471, 1014.059
382.8292, 896.0259
383.3113, 802.5181
383.7934, 705.2031
384.2755, 592.7935
384.7577, 475.8950
385.2398, 366.1504
385.7219, 239.5633
386.2040, 221.8920
386.6861, 194.0679
387.1682, 156.8230
387.6504, 71.25338
388.1325, 56.26584
388.6146, 17.99780
389.0967, -17.80271
389.5788, -12.64601
390.0609, -72.80997
390.5431, -61.10822
391.0252, -73.09624
391.5073, -69.03549
391.9894, -88.42367
392.4715, -95.89577
392.9536, -72.76982
393.4357, -61.03894
393.9178, -69.25557
394.4000, -42.97612
394.8821, -68.37635
395.3642, -41.72579
395.8463, 9.414096
396.3284, 20.40874
396.8105, 65.03155
397.2927, 101.7858
397.7748, 90.07976
398.2569, 172.4185
398.7390, 195.6426
399.2211, 243.4424
399.7032, 294.9663
400.1854, 355.2949
400.6675, 436.7251
401.1496, 515.1611
401.6317, 579.1724
402.1138, 617.1685
402.5959, 663.6572
403.0781, 722.2261
403.5602, 787.4658
404.0423, 847.4927
404.5244, 899.4976
405.0065, 953.7241
405.4886, 1017.388
405.9708, 1091.630
406.4529, 1148.134
406.9350, 1179.792
407.4171, 1211.277
407.8992, 1269.244
408.3813, 1354.169
408.8635, 1467.106
409.3456, 1627.714
409.8277, 1808.858
410.3098, 1917.504
410.7919, 1952.302
411.2740, 1969.429
411.7562, 2011.690
412.2383, 2071.682
412.7204, 2126.149
413.2025, 2165.541
413.6846, 2209.455
414.1667, 2289.880
414.6489, 2398.971
415.1310, 2505.252
415.6131, 2590.955
416.0952, 2663.187
416.5773, 2728.859
417.0594, 2790.794
417.5416, 2842.765
418.0237, 2872.601
418.5058, 2892.337
418.9879, 2919.820
419.4700, 2983.283
419.9521, 3038.067
420.4343, 3060.769
420.9164, 3050.163
421.3985, 3029.844
421.8806, 2999.389
422.3627, 2965.670
422.8448, 2933.315
423.3270, 2923.414
423.8091, 2891.332
424.2912, 2816.916
424.7733, 2712.172
425.2554, 2622.934
425.7375, 2555.252
426.2197, 2498.485
426.7018, 2448.317
427.1839, 2405.082
427.6660, 2369.736
428.1481, 2344.156
428.6302, 2325.378
429.1124, 2309.120
429.5945, 2297.226
430.0766, 2282.696
430.5587, 2258.044
431.0408, 2225.801
431.5229, 2222.780
432.0051, 2252.656
432.4872, 2298.366
432.9693, 2346.961
433.4514, 2398.247
433.9335, 2448.800
434.4156, 2494.583
434.8977, 2543.269
435.3799, 2613.327
435.8620, 2702.844
436.3441, 2794.955
436.8262, 2877.555
437.3083, 2954.863
437.7904, 3032.366
438.2726, 3109.668
438.7547, 3192.115
439.2368, 3294.458
439.7189, 3404.873
440.2010, 3501.141
440.6831, 3560.269
441.1653, 3611.072
441.6474, 3677.383
442.1295, 3758.486
442.6116, 3827.277
443.0937, 3864.219
443.5758, 3887.684
444.0580, 3913.544
444.5401, 3971.981
445.0222, 3999.725
445.5043, 3970.750
445.9864, 3898.263
446.4685, 3823.279
446.9507, 3760.639
447.4328, 3689.246
447.9149, 3602.424
448.3970, 3502.900
448.8791, 3380.928
449.3612, 3224.610
449.8434, 3054.931
450.3255, 2898.933
450.8076, 2764.854
451.2897, 2633.986
451.7718, 2503.263
452.2539, 2368.658
452.7361, 2219.290
453.2182, 2052.707
453.7003, 1891.572
454.1824, 1751.081
454.6645, 1628.745
455.1466, 1498.960
455.6288, 1354.780
456.1109, 1210.173
456.5930, 1086.764
457.0751, 983.3628
457.5572, 889.0479
458.0393, 807.2793
458.5215, 728.8291
459.0036, 632.9277
459.4857, 517.2988
459.9678, 414.7744
460.4499, 363.1216
460.9320, 338.2710
461.4142, 308.8413
461.8963, 264.5649
462.3784, 212.4863
462.8605, 123.1494
463.3426, 105.8673
463.8247, 78.42074
464.3069, 41.54548
464.7890, -43.65026
465.2711, -58.27268
465.7532, -96.18554
466.2353, -131.6330
466.7174, -126.1322
467.1996, -185.9587
467.6817, -173.9205
468.1638, -185.5795
468.6459, -181.1970
469.1280, -200.2683
469.6101, -207.4298
470.0923, -183.9984
470.5744, -171.9673
471.0565, -179.8898
471.5386, -153.3246
472.0207, -178.4440
472.5028, -151.5163
472.9850, -100.1030
473.4671, -88.84167
473.9492, -43.95951
474.4313, -6.958347
474.9134, -18.41970
475.3955, 64.16282
475.8776, 111.1791
476.3597, 121.5870
476.8419, 211.7706
477.3240, 232.7812
477.8061, 272.6763
478.2882, 311.6831
478.7703, 363.8550
479.2524, 438.7749
479.7346, 520.4980
480.2167, 598.7842
480.6988, 673.3413
481.1809, 742.1606
481.6630, 788.3081
482.1451, 839.9219
482.6273, 917.2700
483.1094, 1027.367
483.5915, 1143.041
484.0736, 1263.454
484.5557, 1382.299
485.0378, 1492.424
485.5200, 1570.073
486.0021, 1664.875
486.4842, 1789.975
486.9663, 1940.865
487.4484, 2087.607
487.9305, 2223.321
488.4127, 2361.973
488.8948, 2511.626
489.3769, 2671.589
489.8590, 2839.138
490.3411, 3014.509
490.8232, 3197.456
491.3054, 3392.948
491.7875, 3600.703
492.2696, 3810.597
492.7517, 4017.229
493.2338, 4226.072
493.7159, 4462.294
494.1981, 4723.719
494.6802, 4994.468
495.1623, 5264.218
495.6444, 5532.009
496.1265, 5788.944
496.6086, 6027.668
497.0908, 6283.075
497.5729, 6597.700
498.0550, 6950.905
498.5371, 7310.849
499.0192, 7657.177
499.5013, 8009.098
499.9835, 8366.155
500.4656, 8728.733
500.9477, 9111.533
501.4298, 9522.940
501.9119, 9948.180
502.3940, 10382.42
502.8762, 10832.11
503.3583, 11275.85
503.8404, 11694.91
504.3225, 12112.34
504.8046, 12577.12
505.2867, 13116.17
505.7689, 13650.36
506.2510, 14147.27
506.7331, 14607.70
507.2152, 15091.98
507.6973, 15607.33
508.1794, 16124.45
508.6616, 16634.87
509.1437, 17134.64
509.6258, 17566.03
510.1079, 17919.82
510.5900, 18202.42
511.0721, 18419.30
511.5543, 18572.22
512.0364, 18669.46
512.5185, 18737.89
513.0006, 18741.70
513.4827, 18639.55
513.9648, 18430.37
514.4470, 18122.62
514.9291, 17692.89
515.4112, 17181.99
515.8933, 16624.35
516.3754, 16023.53
516.8575, 15385.71
517.3397, 14692.96
517.8218, 13967.87
518.3039, 13246.09
518.7860, 12521.32
519.2681, 11810.61
519.7502, 11122.54
520.2324, 10453.70
520.7145, 9809.259
521.1966, 9181.299
521.6787, 8586.455
522.1608, 8031.312
522.6429, 7518.398
523.1251, 7031.541
523.6072, 6570.923
524.0893, 6139.529
524.5714, 5742.317
525.0535, 5377.699
525.5356, 5030.205
526.0178, 4686.558
526.4999, 4352.474
526.9820, 4038.664
527.4641, 3751.311
527.9462, 3489.183
528.4283, 3257.995
528.9105, 3052.191
529.3926, 2859.798
529.8747, 2682.112
530.3568, 2513.254
530.8389, 2348.833
531.3210, 2192.637
531.8032, 2043.709
532.2853, 1907.551
532.7674, 1775.331
533.2495, 1642.552
533.7316, 1507.226
534.2137, 1387.300
534.6959, 1290.191
535.1780, 1203.375
535.6601, 1117.044
536.1422, 1026.278
536.6243, 949.5522
537.1064, 890.4873
537.5885, 842.3467
538.0706, 791.6265
538.5527, 737.9209
539.0349, 685.8120
539.5170, 636.0137
539.9991, 589.1064
540.4812, 547.2900
540.9633, 510.0947
541.4454, 478.0083
541.9276, 452.5410
542.4097, 432.0405
542.8918, 414.1509
543.3739, 399.3193
543.8560, 383.5410
544.3381, 362.2202
544.8203, 337.7139
545.3024, 314.4888
545.7845, 286.0137
546.2666, 266.9702
546.7487, 270.1841
547.2308, 292.1738
547.7130, 307.3682
548.1951, 299.0366
548.6772, 292.4165
549.1593, 300.2466
549.6414, 328.7681
550.1235, 351.8218
550.6057, 368.6323
551.0878, 381.2871
551.5699, 392.5239
552.0520, 403.3999
552.5341, 408.3770
553.0162, 399.5156
553.4984, 387.7061
553.9805, 407.2827
554.4626, 459.1704
554.9447, 518.2876
555.4268, 572.2471
555.9089, 620.6924
556.3911, 660.0596
556.8732, 689.3013
557.3553, 720.4302
557.8374, 768.1060
558.3195, 823.5264
558.8016, 874.1216
559.2838, 915.6304
559.7659, 953.1299
560.2480, 980.6958
560.7301, 1005.188
561.2122, 1042.951
561.6943, 1105.167
562.1765, 1175.763
562.6586, 1250.867
563.1407, 1330.670
563.6228, 1406.748
564.1049, 1476.564
564.5870, 1545.408
565.0692, 1618.150
565.5513, 1695.700
566.0334, 1767.383
566.5155, 1828.682
566.9976, 1889.470
567.4797, 1975.921
567.9619, 2084.766
568.4440, 2173.327
568.9261, 2213.891
569.4082, 2234.689
569.8903, 2289.532
570.3724, 2373.008
570.8546, 2454.919
571.3367, 2514.112
571.8188, 2562.294
572.3009, 2610.844
572.7830, 2662.039
573.2651, 2708.033
573.7473, 2747.204
574.2294, 2779.614
574.7115, 2804.199
575.1936, 2815.740
575.6757, 2827.470
576.1578, 2847.787
576.6400, 2869.018
577.1221, 2869.812
577.6042, 2841.930
578.0863, 2809.948
578.5684, 2785.184
579.0505, 2766.786
579.5327, 2737.685
580.0148, 2698.648
580.4969, 2644.868
580.9790, 2565.772
581.4611, 2466.329
581.9432, 2372.503
582.4254, 2288.938
582.9075, 2211.787
583.3896, 2143.116
583.8717, 2077.783
584.3538, 2004.669
584.8359, 1917.824
585.3181, 1826.055
585.8002, 1729.422
586.2823, 1631.507
586.7644, 1543.132
587.2465, 1477.156
587.7286, 1413.934
588.2108, 1341.459
588.6929, 1251.792
589.1750, 1180.083
589.6571, 1130.168
590.1392, 1094.366
590.6213, 1072.917
591.1035, 1079.160
591.5856, 1043.026
592.0677, 943.9612
592.5498, 816.0259
593.0319, 724.9497
593.5140, 669.6113
593.9962, 625.4641
594.4783, 586.0669
594.9604, 549.6802
595.4425, 514.2598
595.9246, 479.9788
596.4067, 444.7803
596.8889, 406.5300
597.3710, 367.0742
597.8531, 326.5598
598.3352, 283.0066
598.8173, 248.8044
599.2994, 237.6184
599.7816, 234.2607
600.2637, 223.1931
600.7458, 193.3440
601.2279, 165.7979
601.7100, 141.1667
602.1921, 120.6108
602.6743, 109.6372
603.1564, 113.3325
603.6385, 112.8171
604.1206, 101.3755
604.6027, 80.04517
605.0848, 49.89844
605.5670, 9.924561
606.0491, 21.93628
606.5312, 27.81689
607.0133, 15.97632
607.4954, 3.554688
607.9775, 8.369629
608.4597, 14.55054
608.9418, 5.162598
609.4239, 10.92847
609.9060, 21.35059
610.3881, 12.35742
610.8702, 7.894531
611.3524, 21.90869
611.8345, 47.44995
612.3166, 63.77588
612.7987, 65.23975
613.2808, 60.14941
613.7629, 47.12891
614.2451, 26.37402
614.7272, 17.32739
615.2093, 22.25684
615.6914, 32.61401
616.1735, 46.53345
616.6556, 63.57617
617.1378, 64.74951
617.6199, 45.70703
618.1020, 24.44873
618.5840, 26.06348
619.0662, 41.94800
619.5483, 51.50195
620.0304, 45.75537
620.5125, 35.34302
620.9946, 25.58740
621.4767, 17.62598
621.9589, 14.22314
622.4410, 23.81030
622.9231, 31.32104
623.4052, 28.51831
623.8873, 14.63428
624.3694, 5.540771
624.8516, 4.099121
625.3337, 5.166992
625.8158, 5.937500
626.2979, 5.785400
626.7800, 8.594482
627.2621, 15.96899
627.7443, 22.15479
628.2264, 17.53760
628.7085, 3.947510
629.1906, 2.357666
629.6727, 5.772949
630.1548, 14.85596
630.6370, 1.280762
631.1191, 26.37354
631.6012, 44.71411
632.0833, 40.14331
632.5654, 24.79858
633.0475, 2.593262
633.5297, 38.01855
634.0118, 55.14038
634.4939, 27.27612
634.9760, 4.149170
635.4581, 19.24634
635.9402, 13.69702
636.4224, 9.553467
636.9045, 5.747070
637.3866, 5.088379
637.8687, 11.48804
638.3508, 25.43823
638.8329, 38.51587
639.3151, 51.71289
639.7972, 58.61401
640.2793, 38.57568
640.7614, 1.079590
641.2435, 16.77612
641.7256, 11.97241
642.2078, 53.29688
642.6899, 76.70923
643.1720, 84.65479
643.6541, 85.06689
644.1362, 74.87549
644.6183, 63.96240
645.1005, 56.14380
645.5826, 51.83496
646.0647, 51.98022
646.5468, 57.05981
647.0289, 65.91479
647.5110, 79.31128
647.9932, 100.4253
648.4753, 113.4165
648.9574, 116.5215
649.4395, 116.0852
649.9216, 119.8894
650.4037, 127.0754
650.8859, 133.2852
651.3680, 137.6685
651.8501, 140.4512
652.3322, 141.5552
652.8143, 141.4148
653.2964, 140.9121
653.7786, 139.6462
654.2607, 138.8311
654.7428, 138.3875
655.2249, 138.6417
655.7070, 141.8474
656.1891, 154.7677
656.6713, 164.7584
657.1534, 164.5206
657.6355, 151.3513
658.1176, 152.0593
658.5997, 174.4893
659.0818, 195.2090
659.5640, 190.4283
660.0461, 161.1707
660.5282, 143.7672
661.0103, 142.0874
661.4924, 148.5452
661.9745, 159.8130
662.4567, 172.1414
662.9388, 176.2040
663.4209, 164.4854
663.9030, 149.8350
664.3851, 138.7292
664.8672, 132.8492
665.3494, 133.9872
665.8315, 151.3260
666.3136, 166.8376
666.7957, 174.3236
667.2778, 174.2710
667.7599, 170.8347
668.2421, 161.4569
668.7242, 156.2354
669.2063, 163.0533
669.6884, 180.3777
670.1705, 176.5358
670.6526, 150.0450
671.1348, 123.4160
671.6169, 121.0417
672.0990, 133.3445
672.5811, 134.0161
673.0632, 115.5104
673.5453, 101.7714
674.0275, 122.1746
674.5096, 153.5327
674.9917, 168.9222
675.4738, 148.3582
675.9559, 128.5735
676.4380, 112.7604
676.9202, 101.3588
677.4023, 97.99365
677.8844, 109.2942
678.3665, 119.0887
678.8486, 123.8981
679.3307, 124.3329
679.8129, 121.9722
680.2950, 115.9744
680.7771, 107.3523
681.2592, 91.75244
681.7413, 76.70093
682.2234, 80.57642
682.7056, 101.9546
683.1877, 122.5527
683.6698, 131.8259
684.1519, 134.0653
684.6340, 132.3214
685.1161, 126.3307
685.5983, 117.8051
686.0804, 101.9993
686.5625, 88.65186
687.0446, 85.68420
687.5267, 101.1104
688.0089, 105.1478
688.4910, 93.54810
688.9731, 78.01709
689.4552, 78.37109
689.9373, 93.68604
690.4194, 96.13525
690.9016, 71.32336
691.3837, 38.68176
691.8658, 33.33740
692.3479, 50.07837
692.8300, 64.42871
693.3121, 60.45178
693.7943, 50.84924
694.2764, 43.51843
694.7585, 39.44751
695.2406, 41.49756
695.7227, 56.23022
696.2048, 69.11707
696.6870, 75.02136
697.1691, 73.62109
697.6512, 77.79224
698.1333, 89.69666
698.6154, 99.23828
699.0975, 99.05151
699.5797, 93.19885
700.0618, 92.20752
700.5438, 96.39685
701.0259, 99.36829
701.5081, 93.97913
701.9902, 83.57507
702.4723, 72.84070
702.9544, 61.26660
703.4365, 54.30383
703.9186, 54.74939
704.4008, 61.44617
704.8829, 72.85730
705.3650, 107.3961
705.8471, 121.3690
706.3292, 99.24512
706.8113, 59.22314
707.2935, 42.69690
707.7756, 53.23315
708.2577, 67.26709
708.7398, 80.21326
709.2219, 89.53455
709.7040, 85.42493
710.1862, 70.16296
710.6683, 57.04993
711.1504, 53.48853
711.6325, 55.78760
712.1146, 62.26062
712.5967, 72.37988
713.0789, 81.48572
713.5610, 88.96570
714.0431, 94.30725
714.5252, 96.68542
715.0073, 95.72510
715.4894, 94.81165
715.9716, 94.37500
716.4537, 93.51965
716.9358, 90.58289
717.4179, 85.41174
717.9000, 84.73145
718.3821, 89.95337
718.8643, 93.85364
719.3464, 83.92432
719.8285, 67.96838
720.3106, 61.84302
720.7927, 72.34277
721.2748, 85.21753
721.7570, 98.75281
722.2391, 106.7501
722.7212, 100.9375
723.2033, 59.33337
723.6854, 29.67688
724.1675, 20.77808
724.6497, 25.42126
725.1318, 29.39233
725.6139, 32.02649
726.0960, 37.19434
726.5781, 48.37903
727.0602, 60.73572
727.5424, 57.81311
728.0245, 42.87231
728.5066, 35.11926
728.9887, 57.17578
729.4708, 82.71130
729.9529, 82.60083
730.4351, 61.09631
730.9172, 46.38672
731.3993, 56.81519
731.8814, 70.26599
732.3635, 76.64136
732.8456, 75.53418
733.3278, 70.92468
733.8099, 61.08337
734.2920, 51.18896
734.7741, 45.86072
735.2562, 44.72314
735.7383, 34.54993
736.2205, 13.57593
736.7026, 0.7996830
737.1847, 16.91956
737.6668, 48.58362
738.1489, 66.25549
738.6310, 63.84753
739.1132, 53.71130
739.5953, 34.13098
740.0774, 14.41650
740.5595, 3.468994
741.0416, 11.00134
741.5237, 14.87769
742.0059, 11.93115
742.4880, 8.190918
742.9701, 13.87207
743.4522, 30.36011
743.9343, 40.54504
744.4164, 39.79675
744.8986, 34.74072
745.3807, 36.10986
745.8628, 41.77417
746.3449, 45.72827
746.8270, 44.45264
747.3091, 42.05762
747.7913, 41.63647
748.2734, 42.05688
748.7555, 40.52417
749.2376, 33.43970
749.7197, 28.32422
750.2018, 33.68604
750.6840, 42.49390
751.1661, 16.38062
751.6482, 57.03296
752.1303, 107.8535
752.6124, 96.82581
753.0945, 45.03528
753.5767, 4.664551
754.0588, 24.67358
754.5409, 44.36353
755.0230, 49.93750
755.5051, 50.54004
755.9872, 53.45264
756.4694, 59.07471
756.9515, 65.34985
757.4336, 77.09326
757.9157, 84.16724
758.3978, 79.13892
758.8799, 58.99243
759.3621, 54.02905
759.8442, 68.62988
760.3263, 85.84131
760.8084, 89.48975
761.2905, 84.12329
761.7726, 95.38525
762.2548, 126.1680
762.7369, 152.2515
763.2190, 147.9167
763.7011, 130.2109
764.1832, 117.3157
764.6653, 111.5981
765.1475, 113.6060
765.6296, 128.2395
766.1117, 148.3691
766.5938, 168.7219
767.0759, 194.0208
767.5580, 206.0125
768.0402, 201.0830
768.5223, 188.3733
769.0044, 174.2927
769.4865, 161.1931
769.9686, 165.2881
770.4507, 194.3984
770.9329, 227.4792
771.4150, 244.0095
771.8971, 249.6467
772.3792, 252.6313
772.8613, 247.7922
773.3434, 250.4126
773.8256, 269.5818
774.3077, 296.8350
774.7898, 318.1421
775.2719, 331.5759
775.7540, 343.9656
776.2361, 354.5508
776.7183, 367.9302
777.2004, 398.3940
777.6825, 441.7085
778.1646, 475.0730
778.6467, 480.4170
779.1288, 487.4573
779.6110, 533.1045
780.0931, 601.1680
780.5752, 655.0872
781.0573, 664.8804
781.5394, 676.2129
782.0215, 702.5459
782.5037, 742.5957
782.9857, 793.9946
783.4678, 859.2314
783.9500, 924.2136
784.4321, 983.3213
784.9142, 1037.588
785.3963, 1094.447
785.8784, 1154.912
786.3605, 1208.893
786.8427, 1235.802
787.3248, 1262.945
787.8069, 1324.532
788.2890, 1415.859
788.7711, 1499.825
789.2532, 1555.419
789.7354, 1607.202
790.2175, 1665.309
790.6996, 1729.610
791.1817, 1791.133
791.6638, 1850.794
792.1459, 1910.875
792.6281, 1974.067
793.1102, 2038.640
793.5923, 2097.262
794.0744, 2149.777
794.5565, 2195.666
795.0386, 2232.976
795.5208, 2266.734
796.0029, 2303.328
796.4850, 2342.966
796.9671, 2374.648
797.4492, 2396.778
797.9313, 2409.119
798.4135, 2411.110
798.8956, 2402.844
799.3777, 2387.899
799.8598, 2365.220
800.3419, 2340.604
800.8240, 2324.594
801.3062, 2309.270
801.7883, 2269.389
802.2704, 2204.683
802.7525, 2134.734
803.2346, 2078.999
803.7167, 2020.106
804.1989, 1941.086
804.6810, 1834.509
805.1631, 1736.076
805.6452, 1645.104
806.1273, 1566.605
806.6094, 1509.884
807.0916, 1479.043
807.5737, 1418.541
808.0558, 1324.361
808.5379, 1230.324
809.0200, 1174.371
809.5021, 1133.289
809.9843, 1068.098
810.4664, 976.4163
810.9485, 894.3135
811.4306, 844.9651
811.9127, 806.1008
812.3948, 761.2598
812.8770, 704.0334
813.3591, 654.5381
813.8412, 614.8645
814.3233, 579.6833
814.8054, 545.0115
815.2875, 510.9626
815.7697, 478.7725
816.2518, 448.3293
816.7339, 420.8083
817.2160, 399.3772
817.6981, 380.7129
818.1802, 358.5122
818.6624, 329.2510
819.1445, 309.3396
819.6266, 310.7515
820.1087, 319.3242
820.5908, 323.9592
821.0729, 323.7397
821.5551, 322.4763
822.0372, 320.0620
822.5193, 316.7693
823.0014, 314.0146
823.4835, 310.6689
823.9656, 301.6782
824.4478, 285.8389
824.9299, 270.2415
825.4120, 262.6746
825.8941, 256.6775
826.3762, 244.7971
826.8583, 220.9180
827.3405, 205.0896
827.8226, 205.8364
828.3047, 208.1243
828.7868, 199.8845
829.2689, 180.2468
829.7510, 157.3918
830.2332, 105.2893
830.7153, 125.7831
831.1974, 133.1380
831.6795, 128.0930
832.1616, 71.74592
832.6437, 82.99490
833.1259, 67.97649
833.6080, 52.44866
834.0901, 74.89367
834.5722, 29.03767
835.0543, 52.06730
835.5364, 48.42338
836.0186, 57.84404
836.5007, 40.83613
836.9828, 32.76173
837.4649, 52.30367
837.9470, 57.46895
838.4291, 39.70531
838.9113, 53.45245
839.3934, 12.54008
839.8755, 20.69773
840.3576, 50.36164
840.8397, 36.90007
841.3218, 54.08482
841.8040, 60.41157
842.2861, 15.30101
842.7682, 61.25627
843.2503, 68.67206
843.7324, 36.50045
844.2145, 81.12107
844.6967, 55.66725
845.1788, 56.02302
845.6609, 75.95050
846.1430, 76.67852
846.6251, 109.1937
847.1072, 112.2407
847.5894, 113.1948
848.0715, 126.4528
848.5536, 107.0930
849.0357, 149.9292
849.5178, 151.2712
849.9999, 174.1187
850.4821, 202.3015
850.9642, 194.7627
851.4463, 226.2500
851.9284, 198.7215
852.4105, 221.6549
852.8926, 239.8046
853.3748, 290.4274
853.8569, 265.5422
854.3390, 289.4449
854.8211, 344.3403
855.3032, 388.8223
855.7853, 453.9924
856.2675, 520.0415
856.7496, 574.9929
857.2317, 619.6624
857.7138, 683.7817
858.1959, 768.0510
858.6780, 858.0852
859.1602, 942.4685
859.6423, 1025.870
860.1244, 1118.611
860.6065, 1218.996
861.0886, 1317.686
861.5707, 1399.751
862.0529, 1487.143
862.5350, 1594.444
863.0171, 1718.705
863.4992, 1835.639
863.9813, 1944.074
864.4634, 2045.356
864.9456, 2141.466
865.4276, 2230.728
865.9097, 2314.159
866.3918, 2390.059
866.8740, 2451.256
867.3561, 2496.087
867.8382, 2522.720
868.3203, 2527.269
868.8024, 2511.829
869.2845, 2488.366
869.7667, 2471.687
870.2488, 2423.875
870.7309, 2295.318
871.2130, 2220.235
871.6951, 2139.967
872.1772, 2055.403
872.6594, 1920.023
873.1415, 1875.952
873.6236, 1811.001
874.1057, 1755.953
874.5878, 1756.792
875.0699, 1686.537
875.5521, 1709.104
876.0342, 1710.317
876.5163, 1737.659
876.9984, 1731.428
877.4805, 1780.988
877.9626, 1866.121
878.4448, 1946.274
878.9269, 2006.643
879.4090, 2072.139
879.8911, 2171.327
880.3732, 2302.156
880.8553, 2462.665
881.3375, 2674.132
881.8196, 2880.462
882.3017, 3043.320
882.7838, 3202.203
883.2659, 3407.452
883.7480, 3672.274
884.2302, 3937.091
884.7123, 4194.280
885.1944, 4457.627
885.6765, 4743.670
886.1586, 5048.829
886.6407, 5377.339
887.1229, 5732.200
887.6050, 6082.170
888.0871, 6411.311
888.5692, 6724.123
889.0513, 7022.955
889.5334, 7289.541
890.0156, 7588.761
890.4977, 7940.824
890.9798, 8283.913
891.4619, 8569.924
891.9440, 8801.131
892.4261, 8990.312
892.9083, 9135.703
893.3904, 9207.769
893.8725, 9177.465
894.3546, 9065.060
894.8367, 8879.604
895.3188, 8620.696
895.8010, 8329.462
896.2831, 8015.009
896.7652, 7660.568
897.2473, 7247.374
897.7294, 6786.075
898.2115, 6332.994
898.6937, 5891.499
899.1758, 5451.972
899.6579, 5000.605
900.1400, 4559.398
900.6221, 4155.205
901.1042, 3781.840
901.5864, 3442.018
902.0685, 3147.133
902.5506, 2879.209
903.0327, 2638.100
903.5148, 2417.120
903.9969, 2201.761
904.4791, 1994.488
904.9612, 1822.773
905.4433, 1703.362
905.9254, 1612.540
906.4075, 1524.720
906.8896, 1441.313
907.3718, 1368.831
907.8539, 1313.659
908.3360, 1266.980
908.8181, 1214.322
909.3002, 1175.432
909.7823, 1184.877
910.2645, 1246.687
910.7466, 1300.093
911.2287, 1333.667
911.7108, 1365.168
912.1929, 1405.705
912.6750, 1462.060
913.1572, 1547.439
913.6393, 1671.914
914.1214, 1801.350
914.6035, 1910.885
915.0856, 2033.448
915.5677, 2193.694
916.0499, 2396.265
916.5320, 2601.092
917.0141, 2806.826
917.4962, 3024.771
917.9783, 3263.733
918.4604, 3519.016
918.9426, 3781.692
919.4247, 4049.514
919.9068, 4332.090
920.3889, 4619.715
920.8710, 4937.436
921.3531, 5308.784
921.8353, 5726.492
922.3174, 6116.752
922.7995, 6473.541
923.2816, 6819.826
923.7637, 7149.684
924.2458, 7483.522
924.7280, 7884.449
925.2101, 8319.983
925.6922, 8701.573
926.1743, 8986.574
926.6564, 9215.568
927.1385, 9389.462
927.6207, 9516.447
928.1028, 9616.147
928.5849, 9706.387
929.0670, 9671.795
929.5491, 9480.814
930.0313, 9179.235
930.5134, 8796.350
930.9955, 8358.820
931.4776, 7900.067
931.9597, 7428.193
932.4418, 6952.105
932.9240, 6464.385
933.4061, 5982.802
933.8882, 5515.085
934.3703, 5062.492
934.8524, 4624.502
935.3345, 4199.746
935.8167, 3801.656
936.2988, 3446.796
936.7809, 3131.887
937.2630, 2850.686
937.7451, 2603.527
938.2272, 2376.062
938.7094, 2159.067
939.1915, 1964.557
939.6736, 1799.885
940.1557, 1663.046
940.6378, 1528.501
941.1199, 1394.086
941.6021, 1269.322
942.0842, 1156.707
942.5663, 1057.915
943.0484, 978.4429
943.5305, 915.4700
944.0126, 860.3960
944.4948, 809.5471
944.9769, 766.9365
945.4590, 736.1858
945.9411, 713.5249
946.4232, 692.9131
946.9053, 674.0820
947.3875, 663.5654
947.8695, 662.4583
948.3516, 669.5127
948.8337, 686.2649
949.3159, 708.0942
949.7980, 727.9199
950.2801, 744.0237
950.7622, 762.5803
951.2443, 775.7727
951.7264, 799.1733
952.2086, 844.6919
952.6907, 914.6741
953.1728, 987.0950
953.6549, 1060.932
954.1370, 1139.390
954.6191, 1228.052
955.1013, 1321.200
955.5834, 1404.977
956.0655, 1482.496
956.5476, 1582.452
957.0297, 1719.325
957.5118, 1873.927
957.9940, 2043.982
958.4761, 2226.156
958.9582, 2405.944
959.4403, 2584.529
959.9224, 2770.600
960.4045, 2966.203
960.8867, 3173.124
961.3688, 3398.636
961.8509, 3641.248
962.3330, 3899.255
962.8151, 4171.430
963.2972, 4457.147
963.7794, 4767.061
964.2615, 5077.959
964.7436, 5359.865
965.2257, 5618.715
965.7078, 5894.945
966.1899, 6194.604
966.6721, 6503.392
967.1542, 6838.840
967.6363, 7161.101
968.1184, 7434.977
968.6005, 7652.033
969.0826, 7863.867
969.5648, 8094.049
970.0469, 8289.973
970.5290, 8435.029
971.0111, 8524.584
971.4932, 8555.434
971.9753, 8522.804
972.4575, 8401.182
972.9396, 8115.418
973.4217, 7801.114
973.9038, 7541.021
974.3859, 7302.762
974.8680, 7027.703
975.3502, 6700.549
975.8323, 6369.229
976.3144, 6033.402
976.7965, 5710.984
977.2786, 5421.966
977.7607, 5159.562
978.2429, 4906.638
978.7250, 4661.396
979.2071, 4426.473
979.6892, 4218.897
980.1713, 4016.233
980.6534, 3803.239
981.1356, 3579.323
981.6177, 3361.648
982.0998, 3149.542
982.5819, 2933.174
983.0640, 2693.543
983.5461, 2455.582
984.0283, 2253.978
984.5104, 2082.494
984.9925, 1923.066
985.4746, 1778.584
985.9567, 1632.532
986.4388, 1472.371
986.9210, 1314.771
987.4031, 1195.686
987.8852, 1112.770
988.3673, 1015.874
988.8494, 892.3254
989.3315, 775.8059
989.8137, 703.8806
990.2958, 654.5396
990.7779, 604.1792
991.2600, 547.1321
991.7421, 494.3469
992.2242, 451.9143
992.7064, 409.7246
993.1885, 355.7102
993.6706, 293.8010
994.1527, 254.7334
994.6348, 237.9453
995.1169, 226.9238
995.5991, 218.4106
996.0812, 205.7478
996.5633, 183.5581
997.0454, 153.9856
997.5275, 122.4604
998.0096, 84.33911
998.4918, 61.93823
998.9739, 63.10669
999.4560, 68.23682
999.9381, 43.56079
1000.420, 3.951416
1000.902, 17.16211
1001.384, 9.851563
1001.867, 6.462891
1002.349, 31.35254
1002.831, 55.20654
1003.313, 55.72412
1003.795, 32.06714
1004.277, 28.65625
1004.759, 46.96216
1005.241, 67.50098
1005.724, 83.17529
1006.206, 90.83765
1006.688, 79.31470
1007.170, 56.59644
1007.652, 45.68921
1008.134, 69.51416
1008.616, 81.62842
1009.098, 71.31201
1009.580, 52.94995
1010.063, 51.75244
1010.545, 63.82642
1011.027, 66.71338
1011.509, 55.13403
1011.991, 42.74316
1012.473, 39.10010
1012.955, 39.82129
1013.437, 41.46948
1013.919, 43.87085
1014.402, 45.31909
1014.884, 46.77905
1015.366, 44.80835
1015.848, 35.03564
1016.330, 22.16870
1016.812, 17.37061
1017.294, 18.13330
1017.776, 17.16602
1018.259, 3.418213
1018.741, 2.670654
1019.223, 10.73730
1019.705, 30.27075
1020.187, 37.78003
1020.669, 32.93164
1021.151, 29.80859
1021.633, 30.48938
1022.115, 29.58032
1022.598, 17.74927
1023.080, 4.573120
1023.562, 9.9730998E-02
1024.044, 5.317749
1024.526, 13.43542
1025.008, 29.47729
1025.490, 35.17786
1025.972, 16.86938
1026.454, 11.42786
1026.937, 3.844360
1027.419, 28.83521
1027.901, 46.89819
1028.383, 23.68542
1028.865, 1.526978
1029.347, 9.762207
1029.829, 11.17407
1030.311, 19.89917
1030.794, 39.82434
1031.276, 43.69861
1031.758, 28.18701
1032.240, 11.08923
1032.722, 11.50049
1033.204, 17.60278
1033.686, 12.99023
1034.168, 1.934692
1034.651, 10.58777
1035.133, 4.463379
1035.615, 2.354736
1036.097, 7.229980
1036.579, 9.771362
1037.061, 6.761841
1037.543, 6.8359999E-03
1038.025, 2.991821
1038.507, 0.5023190
1038.990, 7.063354
1039.472, 20.10303
1039.954, 31.62244
1040.436, 32.22095
1040.918, 18.18311
1041.400, 12.30859
1041.882, 15.16760
1042.364, 22.03918
1042.846, 34.92395
1043.329, 46.51648
1043.811, 41.46985
1044.293, 24.86865
1044.775, 15.32410
1045.257, 29.03162
1045.739, 37.29822
1046.221, 33.24182
1046.703, 23.57068
1047.186, 16.40295
1047.668, 12.39429
1048.150, 19.76880
1048.632, 42.11438
1049.114, 56.95288
1049.596, 34.27393
1050.078, 8.076172
1050.560, 12.06970
1051.042, 46.42371
1051.525, 58.94836
1052.007, 46.01135
1052.489, 31.61279
1052.971, 25.59326
1053.453, 25.25146
1053.935, 28.11829
1054.417, 33.41797
1054.899, 39.46826
1055.381, 44.01477
1055.864, 52.54236
1056.346, 70.14062
1056.828, 85.40210
1057.310, 83.85620
1057.792, 69.02161
1058.274, 61.81287
1058.756, 63.00366
1059.238, 67.94067
1059.721, 79.29431
1060.203, 87.37341
1060.685, 82.28088
1061.167, 69.33679
1061.649, 67.55017
1062.131, 78.29370
1062.613, 86.65222
1063.095, 88.75574
1063.578, 88.54980
1064.060, 93.69543
1064.542, 99.30530
1065.024, 96.97888
1065.506, 82.04041
1065.988, 69.14417
1066.470, 59.48694
1066.952, 54.60388
1067.434, 56.95227
1067.917, 63.61707
1068.399, 64.24927
1068.881, 60.75769
1069.363, 60.42114
1069.845, 71.69922
1070.327, 80.33997
1070.809, 76.87000
1071.291, 69.30579
1071.773, 68.69824
1072.255, 76.19373
1072.738, 77.55164
1073.220, 71.36206
1073.702, 66.54468
1074.184, 71.09863
1074.666, 79.91962
1075.148, 90.33081
1075.630, 101.4102
1076.112, 106.9059
1076.595, 104.5238
1077.077, 99.94739
1077.559, 92.76123
1078.041, 87.36353
1078.523, 93.96094
1079.005, 107.3390
1079.487, 116.1794
1079.969, 117.3777
1080.452, 117.0582
1080.934, 113.5341
1081.416, 112.6473
1081.898, 119.0400
1082.380, 131.0565
1082.862, 133.6039
1083.344, 127.9532
1083.826, 123.7734
1084.308, 126.6710
1084.791, 130.5284
1085.273, 129.8289
1085.755, 128.0225
1086.237, 131.8899
1086.719, 142.9150
1087.201, 154.2580
1087.683, 165.8462
1088.165, 174.0897
1088.647, 171.0963
1089.130, 165.3635
1089.612, 170.9011
1090.094, 185.4683
1090.576, 190.1842
1091.058, 172.0812
1091.540, 160.8550
1092.022, 164.0093
1092.504, 173.9041
1092.987, 177.7208
1093.469, 177.8023
1093.951, 181.0092
1094.433, 189.6266
1094.915, 195.2822
1095.397, 187.3495
1095.879, 182.6126
1096.361, 192.9229
1096.844, 215.3196
1097.326, 225.6556
1097.808, 224.3677
1098.290, 220.3475
1098.772, 216.9108
1099.254, 212.0187
1099.736, 200.2576
1100.218, 188.6868
1100.700, 187.1879
1101.182, 198.3959
1101.665, 212.0363
1102.147, 228.8373
1102.629, 239.8417
1103.111, 234.1637
1103.593, 222.4896
1104.075, 218.1086
1104.557, 219.6522
1105.039, 221.8506
1105.522, 225.2894
1106.004, 226.4862
1106.486, 223.0703
1106.968, 221.8046
1107.450, 236.5016
1107.932, 258.4315
1108.414, 268.1212
1108.896, 264.3418
1109.379, 254.8969
1109.861, 231.2645
1110.343, 215.5423
1110.825, 220.6472
1111.307, 238.3145
1111.789, 239.1765
1112.271, 225.9447
1112.753, 217.5984
1113.235, 220.5497
1113.718, 227.0474
1114.200, 235.5831
1114.682, 242.6714
1115.164, 244.5286
1115.646, 240.5037
1116.128, 235.1333
1116.610, 228.5242
1117.092, 223.8686
1117.574, 222.8530
1118.057, 224.8467
1118.539, 231.0776
1119.021, 238.6966
1119.503, 243.3989
1119.985, 244.7342
1120.467, 243.6666
1120.949, 239.4483
1121.431, 234.5797
1121.914, 231.0019
1122.396, 228.6949
1122.878, 227.5818
1123.360, 227.1686
1123.842, 226.9085
1124.324, 224.2181
1124.806, 226.3090
1125.288, 237.2524
1125.771, 249.4300
1126.253, 248.7660
1126.735, 239.6231
1127.217, 237.4255
1127.699, 244.8088
1128.181, 247.6638
1128.663, 229.0815
1129.145, 215.3016
1129.627, 220.5324
1130.109, 238.1785
1130.592, 245.2556
1131.074, 242.7239
1131.556, 238.9714
1132.038, 236.4418
1132.520, 234.0203
1133.002, 231.5141
1133.484, 228.2295
1133.966, 222.7629
1134.449, 214.9020
1134.931, 209.8978
1135.413, 207.7480
1135.895, 208.1480
1136.377, 214.0428
1136.859, 218.9130
1137.341, 214.5075
1137.823, 205.3320
1138.306, 199.2296
1138.788, 202.2031
1139.270, 189.6892
1139.752, 157.0141
1140.234, 132.6439
1140.716, 147.8232
1141.198, 176.6739
1141.680, 185.2266
1142.162, 177.2690
1142.645, 166.9455
1143.127, 155.5458
1143.609, 144.8435
1144.091, 134.0793
1144.573, 126.8449
1145.055, 129.9503
1145.537, 138.6448
1146.019, 143.4645
1146.501, 143.7496
1146.984, 143.1317
1147.466, 141.9425
1147.948, 143.3441
1148.430, 149.0980
1148.912, 156.0735
1149.394, 159.3920
1149.876, 159.5928
1150.358, 157.4971
1150.841, 153.0811
1151.323, 147.8431
1151.805, 143.3749
1152.287, 137.6575
1152.769, 129.1114
1153.251, 118.6948
1153.733, 109.2271
1154.215, 101.3128
1154.697, 99.32336
1155.180, 106.5349
1155.662, 113.7111
1156.144, 116.2158
1156.626, 115.7894
1157.108, 114.0806
1157.590, 110.9602
1158.072, 105.5879
1158.554, 98.39264
1159.036, 94.14380
1159.519, 97.02777
1160.001, 100.7285
1160.483, 100.2215
1160.965, 98.03021
1161.447, 98.38568
1161.929, 103.5906
1162.411, 96.79852
1162.893, 76.94958
1163.375, 63.72974
1163.858, 80.59100
1164.340, 101.1523
1164.822, 98.82947
1165.304, 82.87213
1165.786, 75.69226
1166.268, 82.11621
1166.750, 83.07709
1167.232, 76.80658
1167.715, 68.17139
1168.197, 56.30682
1168.679, 48.38599
1169.161, 57.38458
1169.643, 79.12109
1170.125, 90.49146
1170.607, 85.52710
1171.089, 82.41516
1171.572, 84.46082
1172.054, 87.22235
1172.536, 84.57910
1173.018, 79.88416
1173.500, 78.72845
1173.982, 81.42853
1174.464, 81.20776
1174.946, 76.34918
1175.428, 70.48792
1175.911, 64.32800
1176.393, 57.93414
1176.875, 48.86230
1177.357, 40.48401
1177.839, 40.37091
1178.321, 51.32886
1178.803, 56.37061
1179.285, 48.42255
1179.767, 42.69458
1180.250, 45.89703
1180.732, 53.27606
1181.214, 54.79749
1181.696, 52.39362
1182.178, 50.78442
1182.660, 52.67847
1183.142, 49.68286
1183.624, 33.85376
1184.107, 22.94165
1184.589, 28.50275
1185.071, 44.33496
1185.553, 52.51221
1186.035, 54.21167
1186.517, 52.65100
1186.999, 46.30774
1187.481, 42.21869
1187.964, 43.75122
1188.446, 45.69128
1188.928, 44.74536
1189.410, 41.18628
1189.892, 33.32684
1190.374, 23.48132
1190.856, 20.89099
1191.338, 39.59875
1191.820, 52.47620
1192.302, 50.28162
1192.785, 43.12244
1193.267, 40.45575
1193.749, 40.98907
1194.231, 35.26746
1194.713, 24.34674
1195.195, 16.13916
1195.677, 17.63806
1196.159, 18.86902
1196.642, 15.90735
1197.124, 11.78809
1197.606, 11.09143
1198.088, 12.74329
1198.570, 9.066650
1199.052, 0.2120360
1199.534, 5.333008
1200.016, 1.853577
1200.499, 7.794556
1200.981, 6.559937
1201.463, 1.568848
1201.945, 2.088257
1202.427, 4.703552
1202.909, 10.27899
1203.391, 19.17194
1203.873, 21.42749
1204.355, 0.3594970
1204.838, 16.00909
1205.320, 12.02167
1205.802, 1.990173
1206.284, 2.962463
1206.766, 6.829163
1207.248, 9.035522
1207.730, 5.9937000E-02
1208.212, 5.811279
1208.694, 6.148987
1209.177, 17.40332
1209.659, 15.50574
1210.141, 5.497864
1210.623, 1.347961
1211.105, 4.911255
1211.587, 3.075684
1212.069, 5.487305
1212.551, 13.49872
1213.034, 20.57587
1213.516, 21.23529
1213.998, 9.687439
1214.480, 8.859497
1214.962, 12.46582
1215.444, 3.480347
1215.926, 4.612915
1216.408, 7.418091
1216.891, 11.72211
1217.373, 26.10779
1217.855, 38.07953
1218.337, 39.65063
1218.819, 33.20947
1219.301, 27.12677
1219.783, 21.85187
1220.265, 19.31580
1220.747, 21.71210
1221.229, 22.32977
1221.712, 16.38538
1222.194, 9.079773
1222.676, 2.196533
1223.158, 3.398865
1223.640, 1.673706
1224.122, 6.096741
1224.604, 13.63190
1225.086, 18.39014
1225.569, 22.68964
1226.051, 28.04651
1226.533, 32.72998
1227.015, 36.62695
1227.497, 39.05579
1227.979, 33.18988
1228.461, 21.28992
1228.943, 13.60760
1229.426, 16.42230
1229.908, 20.33154
1230.390, 24.07556
1230.872, 25.85504
1231.354, 22.58789
1231.836, 16.11603
1232.318, 17.29999
1232.800, 24.48944
1233.282, 30.81622
1233.765, 35.01770
1234.247, 34.90167
1234.729, 25.88544
1235.211, 18.32001
1235.693, 22.92975
1236.175, 36.04224
1236.657, 45.41174
1237.139, 50.50403
1237.621, 49.54706
1238.104, 34.86218
1238.586, 23.87238
1239.068, 20.09393
1239.550, 19.54333
1240.032, 18.73358
1240.514, 17.88043
1240.996, 18.46362
1241.478, 19.77704
1241.960, 19.38818
1242.443, 14.42615
1242.925, 11.35406
1243.407, 10.75793
1243.889, 12.09442
1244.371, 14.89594
1244.853, 19.36066
1245.335, 27.88733
1245.817, 38.65051
1246.300, 44.11713
1246.782, 41.56946
1247.264, 33.83990
1247.746, 17.89301
1248.228, 4.234985
1248.710, 9.145447
1249.192, 22.64423
1249.674, 27.34839
1250.156, 24.28223
1250.639, 17.99915
1251.121, 6.706116
1251.603, 4.9439999E-03
1252.085, 1.127625
1252.567, 1.648132
1253.049, 9.784058
1253.531, 18.26093
1254.013, 19.54694
1254.495, 16.30188
1254.978, 13.81683
1255.460, 11.74884
1255.942, 14.66992
1256.424, 23.93945
1256.906, 31.75562
1257.388, 27.83795
1257.870, 21.15778
1258.352, 22.85394
1258.835, 30.01385
1259.317, 27.50104
1259.799, 12.32434
1260.281, 6.181641
1260.763, 11.95856
1261.245, 21.69940
1261.727, 36.11047
1262.209, 45.36237
1262.692, 37.75775
1263.174, 19.73132
1263.656, 4.495361
1264.138, 8.084900
1264.620, 4.346619
1265.102, 17.96228
1265.584, 32.81738
1266.066, 5.317322
1266.548, 18.87415
1267.031, 4.342957
1267.513, 27.22400
1267.995, 33.61487
1268.477, 18.35663
1268.959, 16.38684
1269.441, 31.33887
1269.923, 42.48730
1270.405, 30.28601
1270.887, 20.68915
1271.370, 24.90582
1271.852, 36.10132
1272.334, 46.03699
1272.816, 53.24182
1273.298, 48.79584
1273.780, 32.40619
1274.262, 20.80432
1274.744, 29.50940
1275.227, 31.18842
1275.709, 15.11707
1276.191, 2.561951
1276.673, 7.595886
1277.155, 32.11877
1277.637, 41.16241
1278.119, 33.33911
1278.601, 25.88098
1279.083, 25.48737
1279.566, 27.84216
1280.048, 27.47821
1280.530, 30.82501
1281.012, 24.82074
1281.494, 15.84290
1281.976, 12.73401
1282.458, 15.53448
1282.940, 17.94604
1283.422, 19.43604
1283.905, 21.03552
1284.387, 23.35571
1284.869, 21.06323
1285.351, 12.35785
1285.833, 2.413025
1286.315, 1.560852
1286.797, 0.1442260
1287.279, 1.833069
1287.762, 3.355713
1288.244, 7.113831
1288.726, 13.62384
1289.208, 19.85083
1289.690, 16.94031
1290.172, 14.42352
1290.654, 19.33850
1291.136, 25.13971
1291.619, 18.97168
1292.101, 3.250610
1292.583, 0.0000000E+00
##END=



