##NAMES=Clintonite
##RRUFFID=R070229
##IDEAL CHEMISTRY=CaAlMg_2_(SiAl_3_)O_10_(OH)_2_
##LOCALITY=Amity, Warwick Township, Orange County, New York, USA
##OWNER=RRUFF
##SOURCE=Michael Scott
##DESCRIPTION=Brown micaceous plates in dolomite. Polytype 1M, variety called seybertite
##STATUS=The identification of this mineral has been confirmed by X-ray diffraction and chemical analysis
##URL=rruff.info/R070229
##MEASURED CHEMISTRY=(Ca_0.98_Na_0.02_)_Σ=1_(Al_0.68_Mg_0.20_Fe^3+^_0.11_Ti_0.01_)_Σ=1_Mg_2.00_(Si_1.34_Al_2.66_)_Σ=4_O_10_((OH)_1.87_O_0.13_)_Σ=2_; OH estimated by charge balance
150.6261, 0.0000000E+00
151.1082, 3.029663
151.5903, 2.380127
152.0724, 10.72559
152.5545, 25.74158
153.0366, 42.19043
153.5188, 57.92737
154.0009, 69.50317
154.4830, 72.70630
154.9651, 73.90796
155.4472, 76.15686
155.9293, 82.11951
156.4115, 85.31580
156.8936, 80.85376
157.3757, 71.58044
157.8578, 67.56042
158.3399, 74.27759
158.8221, 85.59509
159.3042, 97.63391
159.7863, 114.6890
160.2684, 127.1307
160.7505, 130.0710
161.2326, 124.4924
161.7148, 117.7084
162.1969, 108.8284
162.6790, 101.6951
163.1611, 100.0753
163.6432, 112.0609
164.1253, 124.3789
164.6075, 128.4059
165.0896, 123.7775
165.5717, 120.8804
166.0538, 127.1316
166.5359, 138.4740
167.0180, 149.0957
167.5002, 155.4386
167.9823, 160.9349
168.4644, 167.7250
168.9465, 175.8358
169.4286, 186.1019
169.9107, 202.0377
170.3929, 220.6417
170.8750, 236.0059
171.3571, 240.3018
171.8392, 241.7122
172.3213, 250.3754
172.8034, 269.6011
173.2856, 289.0153
173.7677, 299.7986
174.2498, 302.8939
174.7319, 301.4471
175.2140, 292.6135
175.6961, 281.5486
176.1783, 276.5037
176.6604, 280.1479
177.1425, 288.5336
177.6246, 300.6782
178.1067, 315.2433
178.5888, 324.1760
179.0710, 312.5652
179.5531, 290.7898
180.0352, 283.7321
180.5173, 303.5675
180.9994, 334.5051
181.4815, 349.0573
181.9637, 347.8386
182.4458, 345.6689
182.9279, 359.6932
183.4100, 384.5647
183.8921, 399.9851
184.3742, 396.2521
184.8564, 381.1442
185.3385, 371.4579
185.8206, 367.1445
186.3027, 367.8662
186.7848, 375.9209
187.2669, 390.2341
187.7491, 402.6213
188.2312, 409.7014
188.7133, 412.5413
189.1954, 416.0588
189.6775, 420.9199
190.1596, 423.4279
190.6418, 416.4413
191.1239, 400.2856
191.6060, 387.0697
192.0881, 384.6616
192.5702, 391.2385
193.0524, 389.2026
193.5345, 376.3209
194.0166, 360.6643
194.4987, 356.6367
194.9808, 365.1223
195.4629, 371.8672
195.9451, 369.4998
196.4272, 358.1628
196.9093, 346.4878
197.3914, 334.4296
197.8735, 322.5253
198.3556, 310.0353
198.8378, 295.9332
199.3199, 287.8445
199.8020, 295.2500
200.2841, 320.2043
200.7662, 329.3824
201.2483, 315.4626
201.7305, 289.6421
202.2126, 283.1436
202.6947, 298.4431
203.1768, 315.4800
203.6589, 319.0754
204.1410, 302.5045
204.6232, 292.3784
205.1053, 290.0391
205.5874, 292.3033
206.0695, 293.2209
206.5516, 289.9041
207.0337, 291.3550
207.5159, 309.2307
207.9980, 351.6350
208.4801, 376.7616
208.9622, 374.1738
209.4443, 350.0480
209.9264, 337.3622
210.4086, 339.5988
210.8907, 348.0745
211.3728, 356.5312
211.8549, 364.9921
212.3370, 373.8143
212.8191, 382.7380
213.3013, 391.5283
213.7834, 400.3787
214.2655, 407.8964
214.7476, 417.5129
215.2297, 433.4216
215.7118, 459.6024
216.1940, 481.0344
216.6761, 493.5482
217.1582, 498.0522
217.6403, 509.7682
218.1224, 532.0059
218.6045, 555.5229
219.0867, 569.7598
219.5688, 567.2653
220.0509, 574.8705
220.5330, 599.4846
221.0151, 641.0842
221.4972, 679.9648
221.9794, 715.5120
222.4615, 751.1995
222.9436, 790.5618
223.4257, 833.3022
223.9078, 881.6729
224.3899, 937.4219
224.8721, 1001.847
225.3542, 1056.674
225.8363, 1095.696
226.3184, 1130.974
226.8005, 1179.353
227.2827, 1249.231
227.7648, 1317.342
228.2469, 1376.856
228.7290, 1425.547
229.2111, 1477.483
229.6932, 1535.812
230.1754, 1594.756
230.6575, 1649.546
231.1396, 1708.777
231.6217, 1747.692
232.1038, 1758.758
232.5859, 1739.766
233.0681, 1704.229
233.5502, 1649.765
234.0323, 1580.782
234.5144, 1502.164
234.9965, 1413.143
235.4786, 1316.270
235.9608, 1208.337
236.4429, 1085.221
236.9250, 977.4102
237.4071, 893.4412
237.8892, 820.2544
238.3713, 735.0990
238.8535, 623.5430
239.3356, 524.2423
239.8177, 451.1501
240.2998, 410.3809
240.7819, 372.1333
241.2640, 335.4963
241.7462, 301.3131
242.2283, 270.6963
242.7104, 243.5697
243.1925, 220.1454
243.6746, 200.5979
244.1567, 185.1449
244.6389, 173.1517
245.1210, 167.1179
245.6031, 163.0769
246.0852, 153.2847
246.5673, 132.9784
247.0494, 115.0710
247.5316, 104.9191
248.0137, 105.6691
248.4958, 103.5706
248.9779, 98.23865
249.4600, 90.26245
249.9421, 80.29724
250.4243, 66.19958
250.9064, 53.87744
251.3885, 46.40613
251.8706, 46.58838
252.3527, 41.64026
252.8348, 28.57385
253.3170, 12.25037
253.7991, 2.697266
254.2812, 4.042969
254.7633, 4.345947
255.2454, 2.294556
255.7275, 19.84595
256.2097, 28.72437
256.6918, 24.81396
257.1739, 14.99036
257.6560, 12.69482
258.1381, 22.09778
258.6202, 30.40588
259.1024, 32.16125
259.5845, 25.27441
260.0666, 20.65759
260.5487, 19.07080
261.0308, 19.20142
261.5129, 18.71411
261.9951, 17.95520
262.4772, 15.77979
262.9593, 11.35205
263.4414, 3.858887
263.9235, 2.860962
264.4056, 10.42651
264.8878, 15.80945
265.3699, 11.85535
265.8520, 6.120117
266.3341, 20.01648
266.8162, 20.66125
267.2983, 4.905029
267.7805, 3.462280
268.2626, 2.732300
268.7447, 3.628540
269.2268, 10.74072
269.7089, 19.53625
270.1910, 25.76440
270.6732, 27.39575
271.1553, 24.03345
271.6374, 19.68335
272.1195, 14.06152
272.6016, 7.836426
273.0837, 1.331909
273.5659, 6.401733
274.0480, 9.859253
274.5301, 4.828369
275.0122, 9.163330
275.4943, 17.00537
275.9764, 16.96985
276.4586, 14.04346
276.9407, 17.08301
277.4228, 27.22412
277.9049, 33.57178
278.3870, 29.01367
278.8691, 14.34326
279.3513, 8.539307
279.8334, 12.91162
280.3155, 22.76685
280.7976, 34.16479
281.2798, 47.33032
281.7619, 55.57544
282.2440, 55.38452
282.7261, 47.62378
283.2082, 37.27271
283.6903, 23.07935
284.1725, 10.87256
284.6546, 10.70215
285.1367, 22.04419
285.6188, 29.95923
286.1009, 27.44507
286.5830, 17.06421
287.0652, 10.65308
287.5473, 9.084717
288.0294, 6.857178
288.5115, 5.721436
288.9936, 26.80273
289.4757, 40.23511
289.9579, 36.17749
290.4400, 21.79126
290.9221, 17.00000
291.4042, 22.20996
291.8863, 31.95825
292.3684, 43.80396
292.8506, 56.44873
293.3327, 64.15112
293.8148, 61.33154
294.2969, 54.70630
294.7790, 60.49585
295.2611, 78.77368
295.7433, 94.99585
296.2254, 92.98462
296.7075, 78.62866
297.1896, 68.05249
297.6717, 64.48364
298.1538, 68.17212
298.6360, 82.08301
299.1181, 105.6589
299.6002, 130.2649
300.0823, 150.5430
300.5644, 167.2844
301.0465, 182.4712
301.5287, 197.7959
302.0108, 210.2859
302.4929, 211.1809
302.9750, 203.3032
303.4571, 202.4634
303.9392, 228.4678
304.4214, 265.2239
304.9035, 291.1895
305.3856, 297.2231
305.8677, 296.5105
306.3498, 299.6990
306.8319, 305.4197
307.3141, 308.9797
307.7962, 302.2349
308.2783, 294.2891
308.7604, 294.9131
309.2425, 308.7542
309.7246, 325.5374
310.2068, 339.1895
310.6889, 350.3662
311.1710, 361.3755
311.6531, 372.9419
312.1352, 385.9939
312.6173, 400.9314
313.0995, 417.8369
313.5816, 433.5095
314.0637, 447.7534
314.5458, 461.3831
315.0279, 474.9929
315.5100, 487.0042
315.9922, 498.7085
316.4743, 511.1230
316.9564, 524.7156
317.4385, 540.1902
317.9206, 556.9390
318.4027, 575.3896
318.8849, 596.2971
319.3670, 626.6418
319.8491, 653.6414
320.3312, 670.2942
320.8133, 673.8474
321.2954, 682.6169
321.7776, 706.6609
322.2597, 735.1580
322.7418, 756.4253
323.2239, 758.5847
323.7060, 761.9512
324.1881, 774.1270
324.6703, 797.4321
325.1524, 814.8799
325.6345, 815.2312
326.1166, 813.0129
326.5987, 820.0625
327.0808, 841.4609
327.5630, 866.0710
328.0451, 895.7527
328.5272, 930.2642
329.0093, 958.6052
329.4914, 979.1353
329.9735, 994.4324
330.4557, 1005.236
330.9378, 1006.203
331.4199, 1012.050
331.9020, 1023.586
332.3841, 1040.322
332.8662, 1061.766
333.3484, 1093.737
333.8305, 1122.592
334.3126, 1139.662
334.7947, 1139.114
335.2768, 1142.234
335.7589, 1151.309
336.2411, 1164.997
336.7232, 1178.899
337.2053, 1191.221
337.6874, 1205.796
338.1695, 1226.469
338.6516, 1254.342
339.1338, 1275.005
339.6159, 1286.645
340.0980, 1294.476
340.5801, 1307.679
341.0622, 1327.598
341.5443, 1344.278
342.0265, 1351.102
342.5086, 1349.024
342.9907, 1354.367
343.4728, 1369.420
343.9549, 1383.332
344.4370, 1379.217
344.9192, 1358.779
345.4013, 1340.192
345.8834, 1332.454
346.3655, 1330.651
346.8476, 1320.060
347.3297, 1300.394
347.8119, 1281.120
348.2940, 1275.561
348.7761, 1278.210
349.2582, 1271.817
349.7403, 1245.696
350.2225, 1214.176
350.7046, 1199.509
351.1867, 1199.743
351.6688, 1200.566
352.1509, 1192.532
352.6331, 1178.274
353.1152, 1161.158
353.5973, 1140.429
354.0794, 1119.862
354.5615, 1105.416
355.0436, 1094.462
355.5258, 1078.997
356.0079, 1051.644
356.4900, 1019.514
356.9721, 987.6025
357.4542, 955.3567
357.9363, 927.8130
358.4185, 911.6121
358.9006, 901.6277
359.3827, 888.9924
359.8648, 864.2734
360.3469, 840.7593
360.8290, 828.5518
361.3112, 831.0190
361.7933, 825.6946
362.2754, 797.4888
362.7575, 760.7859
363.2396, 731.1064
363.7217, 723.2888
364.2039, 711.8513
364.6860, 685.4978
365.1681, 643.7988
365.6502, 613.5901
366.1323, 606.9011
366.6144, 606.9656
367.0966, 602.2607
367.5787, 589.6069
368.0608, 575.5103
368.5429, 557.7356
369.0250, 537.9553
369.5071, 525.2615
369.9893, 523.8950
370.4714, 524.6792
370.9535, 522.6077
371.4356, 513.3582
371.9177, 511.7869
372.3998, 522.3037
372.8820, 538.4792
373.3641, 545.4958
373.8462, 540.7368
374.3283, 533.4988
374.8104, 525.2524
375.2925, 515.0093
375.7747, 516.6028
376.2568, 533.6199
376.7389, 555.4082
377.2210, 567.0347
377.7031, 567.8535
378.1852, 567.8457
378.6674, 570.5903
379.1495, 574.9368
379.6316, 574.0232
380.1137, 566.9385
380.5958, 562.8289
381.0779, 574.0754
381.5601, 597.2666
382.0422, 614.6675
382.5243, 622.3691
383.0064, 622.8210
383.4885, 615.8940
383.9706, 603.0400
384.4528, 595.3867
384.9349, 604.2393
385.4170, 622.2595
385.8991, 637.8604
386.3812, 649.5625
386.8633, 658.4016
387.3455, 665.3091
387.8276, 670.1216
388.3097, 672.5481
388.7918, 664.3611
389.2739, 658.8711
389.7560, 668.7102
390.2382, 695.8840
390.7203, 725.7576
391.2024, 756.0054
391.6845, 782.6460
392.1666, 801.4185
392.6487, 799.0496
393.1309, 799.4304
393.6130, 816.8047
394.0951, 849.2070
394.5772, 872.0408
395.0593, 869.4465
395.5414, 861.4155
396.0236, 860.4705
396.5057, 878.6895
396.9878, 891.7947
397.4699, 897.3093
397.9520, 896.0110
398.4341, 890.1631
398.9163, 871.2864
399.3984, 856.7075
399.8805, 854.4895
400.3626, 872.1819
400.8447, 879.7249
401.3268, 874.8843
401.8090, 861.5229
402.2911, 843.6235
402.7732, 818.6892
403.2553, 796.2422
403.7374, 779.0986
404.2195, 767.0273
404.7017, 755.9951
405.1838, 745.9624
405.6659, 736.7485
406.1480, 731.3447
406.6301, 730.3523
407.1122, 717.0503
407.5944, 681.5125
408.0765, 636.4668
408.5586, 612.1687
409.0407, 608.1460
409.5228, 607.3198
410.0049, 600.2390
410.4871, 587.7590
410.9692, 570.8987
411.4513, 548.6467
411.9334, 526.2888
412.4155, 509.0610
412.8976, 496.3162
413.3798, 486.8225
413.8619, 484.4780
414.3440, 480.9062
414.8261, 466.8918
415.3082, 442.1924
415.7903, 413.4536
416.2725, 376.1895
416.7546, 340.2808
417.2367, 316.8552
417.7188, 322.2781
418.2009, 328.0383
418.6830, 317.9136
419.1652, 296.3408
419.6473, 280.4377
420.1294, 277.5549
420.6115, 280.3848
421.0937, 285.7576
421.5758, 296.4602
422.0579, 302.3350
422.5400, 298.7432
423.0221, 289.8889
423.5042, 282.9399
423.9864, 275.9980
424.4685, 273.7009
424.9506, 276.4988
425.4327, 285.4116
425.9148, 290.7556
426.3969, 296.0227
426.8791, 297.7117
427.3612, 290.6560
427.8433, 269.3984
428.3254, 253.3369
428.8075, 243.0222
429.2896, 239.7056
429.7718, 250.6523
430.2539, 279.9858
430.7360, 305.6155
431.2181, 311.4004
431.7002, 298.5210
432.1823, 288.9775
432.6645, 284.1338
433.1466, 282.3853
433.6287, 282.3694
434.1108, 283.5576
434.5929, 283.1973
435.0750, 279.1201
435.5572, 273.2607
436.0393, 268.9475
436.5214, 266.1431
437.0035, 263.8093
437.4856, 264.0813
437.9677, 263.5198
438.4499, 256.4785
438.9320, 237.5239
439.4141, 218.5796
439.8962, 212.5972
440.3783, 213.7266
440.8604, 206.6140
441.3426, 173.8301
441.8247, 139.1003
442.3068, 115.6511
442.7889, 106.0950
443.2710, 102.2380
443.7531, 107.2266
444.2353, 114.7500
444.7174, 117.8591
445.1995, 112.0957
445.6816, 105.6685
446.1637, 100.6143
446.6458, 96.63867
447.1280, 89.16113
447.6101, 74.06201
448.0922, 59.95483
448.5743, 51.99731
449.0564, 52.43188
449.5385, 53.05835
450.0207, 54.34497
450.5028, 55.12256
450.9849, 52.56958
451.4670, 45.97681
451.9491, 39.79883
452.4312, 34.60938
452.9134, 30.95264
453.3955, 35.01025
453.8776, 48.05225
454.3597, 59.74683
454.8418, 57.02344
455.3239, 43.42944
455.8061, 34.64209
456.2882, 36.54126
456.7703, 40.91602
457.2524, 33.34253
457.7345, 17.00244
458.2166, 4.666504
458.6988, 7.216309
459.1809, 16.24780
459.6630, 24.18091
460.1451, 30.75415
460.6272, 32.57300
461.1093, 20.83472
461.5915, 5.141846
462.0736, 2.241455
462.5557, 17.96021
463.0378, 32.22241
463.5199, 18.48633
464.0020, 17.67896
464.4842, 34.47485
464.9663, 1.346924
465.4484, 37.39819
465.9305, 58.13965
466.4126, 48.27002
466.8947, 41.29248
467.3769, 38.63232
467.8590, 38.26001
468.3411, 37.38550
468.8232, 38.09229
469.3053, 33.68481
469.7874, 19.52075
470.2696, 3.380859
470.7517, 15.38867
471.2338, 14.63379
471.7159, 8.730469
472.1980, 2.549561
472.6801, 3.846680
473.1623, 7.562988
473.6444, 8.330566
474.1265, 6.023682
474.6086, 0.8320310
475.0907, 11.63037
475.5728, 22.41968
476.0550, 31.29980
476.5371, 38.82935
477.0192, 45.88330
477.5013, 52.55762
477.9834, 58.01904
478.4655, 62.13501
478.9477, 64.51318
479.4298, 64.27393
479.9119, 57.38184
480.3940, 52.63306
480.8761, 60.78369
481.3582, 75.57666
481.8404, 78.78711
482.3225, 45.87378
482.8046, 15.36523
483.2867, 7.440674
483.7688, 32.44531
484.2509, 49.98413
484.7331, 56.77197
485.2152, 54.43311
485.6973, 43.19043
486.1794, 12.53687
486.6615, 8.783936
487.1436, 14.16992
487.6258, 7.141113
488.1079, 3.220703
488.5900, 1.383545
489.0721, 5.676025
489.5542, 21.77856
490.0363, 49.92017
490.5185, 69.01245
491.0006, 77.31616
491.4827, 80.08862
491.9648, 83.98755
492.4470, 88.36670
492.9291, 89.09302
493.4112, 81.35693
493.8933, 72.17847
494.3754, 73.68042
494.8575, 84.57837
495.3397, 96.78174
495.8218, 105.3245
496.3039, 112.3494
496.7860, 120.5625
497.2681, 131.2217
497.7502, 140.0881
498.2324, 144.0239
498.7145, 145.1108
499.1966, 146.2263
499.6787, 143.3696
500.1608, 145.5488
500.6429, 158.9238
501.1251, 182.5054
501.6072, 200.1873
502.0893, 208.7466
502.5714, 213.2622
503.0535, 215.6062
503.5356, 213.9734
504.0178, 214.6504
504.4999, 218.7788
504.9820, 224.1863
505.4641, 226.6162
505.9462, 224.7273
506.4283, 227.0530
506.9105, 237.6528
507.3926, 253.9692
507.8747, 266.7830
508.3568, 276.1672
508.8389, 281.0527
509.3210, 276.6147
509.8032, 267.1543
510.2853, 266.3801
510.7674, 278.1223
511.2495, 289.4536
511.7316, 284.1011
512.2137, 268.6553
512.6959, 256.6531
513.1780, 257.9966
513.6601, 261.0044
514.1422, 255.4438
514.6243, 243.1763
515.1064, 237.2908
515.5886, 245.9587
516.0707, 260.4890
516.5528, 276.7688
517.0349, 299.7957
517.5170, 313.2659
517.9991, 304.8398
518.4813, 290.1357
518.9634, 289.4961
519.4455, 312.5410
519.9276, 333.2185
520.4097, 346.7339
520.8918, 353.5229
521.3740, 357.1548
521.8561, 356.1729
522.3382, 354.9326
522.8203, 359.6348
523.3024, 368.7366
523.7845, 372.5874
524.2667, 369.9717
524.7488, 364.6931
525.2309, 359.5020
525.7130, 355.1387
526.1951, 354.2234
526.6772, 357.7512
527.1594, 365.0557
527.6415, 378.3740
528.1236, 395.6694
528.6057, 408.5493
529.0878, 411.4758
529.5699, 410.5508
530.0521, 409.2256
530.5342, 407.2742
531.0163, 407.0376
531.4984, 406.2739
531.9805, 407.1785
532.4626, 412.7854
532.9448, 429.1426
533.4269, 444.2129
533.9090, 457.0520
534.3911, 467.8511
534.8732, 475.9365
535.3553, 479.4431
535.8375, 486.3540
536.3196, 501.3975
536.8017, 525.3574
537.2838, 533.9622
537.7659, 524.6094
538.2480, 515.2419
538.7302, 526.0540
539.2123, 552.7048
539.6944, 573.7708
540.1765, 587.8489
540.6586, 597.3359
541.1407, 603.0916
541.6229, 603.6431
542.1050, 601.7468
542.5871, 595.6924
543.0692, 591.3572
543.5513, 595.5862
544.0334, 609.7725
544.5156, 624.6931
544.9977, 636.7964
545.4798, 645.4597
545.9619, 650.5771
546.4440, 651.2126
546.9261, 651.3433
547.4083, 650.7122
547.8904, 648.8972
548.3725, 644.4431
548.8546, 635.0344
549.3367, 626.3237
549.8188, 619.4304
550.3010, 614.3535
550.7831, 612.6091
551.2652, 616.3376
551.7473, 616.2219
552.2294, 600.9961
552.7115, 573.0510
553.1937, 559.3762
553.6758, 564.8513
554.1579, 573.3037
554.6400, 559.6641
555.1221, 532.1665
555.6042, 514.9966
556.0864, 523.8235
556.5685, 539.3105
557.0506, 545.5654
557.5327, 543.3682
558.0148, 535.3506
558.4969, 515.9482
558.9791, 496.2312
559.4612, 483.9233
559.9433, 481.5107
560.4254, 477.8201
560.9075, 473.5588
561.3896, 465.5320
561.8718, 450.4346
562.3539, 418.9771
562.8360, 396.7837
563.3181, 390.0601
563.8002, 391.8584
564.2823, 385.0979
564.7645, 368.4429
565.2466, 349.0879
565.7287, 326.6260
566.2108, 303.6125
566.6929, 298.2634
567.1750, 311.5740
567.6572, 320.8411
568.1393, 298.5249
568.6214, 259.8228
569.1035, 237.0764
569.5856, 237.6924
570.0677, 244.0081
570.5499, 242.8269
571.0320, 237.3357
571.5141, 232.5852
571.9962, 235.0125
572.4783, 233.9756
572.9604, 222.7014
573.4426, 203.3518
573.9247, 186.9370
574.4068, 172.9302
574.8889, 164.6453
575.3710, 165.6018
575.8531, 179.2178
576.3353, 183.6086
576.8174, 175.8203
577.2995, 163.1184
577.7816, 151.6882
578.2637, 141.6255
578.7458, 131.9700
579.2280, 121.7976
579.7101, 113.4172
580.1922, 114.8835
580.6743, 123.6760
581.1564, 125.5876
581.6385, 105.6172
582.1207, 79.54419
582.6028, 71.19751
583.0849, 78.27075
583.5670, 82.15991
584.0491, 67.49780
584.5313, 48.08594
585.0134, 35.45483
585.4955, 34.35400
585.9776, 30.22754
586.4597, 16.34180
586.9418, 1.172607
587.4240, 15.54443
587.9061, 30.62842
588.3882, 36.11646
588.8703, 26.94971
589.3524, 8.550781
589.8345, 2.984375
590.3167, 6.372314
590.7988, 8.003174
591.2809, 11.88867
591.7630, 16.48657
592.2451, 10.22363
592.7272, 7.470703
593.2094, 22.02344
593.6915, 14.36841
594.1736, 3.649170
594.6557, 6.635986
595.1378, 13.44580
595.6199, 31.95972
596.1021, 30.95728
596.5842, 16.58325
597.0663, 2.490234
597.5485, 34.01416
598.0306, 58.25513
598.5127, 65.95508
598.9948, 60.28076
599.4769, 55.25513
599.9590, 49.80835
600.4412, 47.59570
600.9233, 51.30640
601.4054, 61.68311
601.8875, 67.34985
602.3696, 69.36987
602.8517, 63.85083
603.3339, 40.50415
603.8160, 1.647705
604.2981, 16.60547
604.7802, 6.964600
605.2623, 12.85303
605.7444, 21.71289
606.2266, 22.53247
606.7087, 22.77344
607.1908, 26.40894
607.6729, 29.37231
608.1550, 27.86401
608.6371, 22.92700
609.1193, 17.90186
609.6014, 9.365234
610.0835, 5.189941
610.5656, 11.09766
611.0477, 29.10718
611.5298, 43.80249
612.0120, 55.88452
612.4941, 63.23267
612.9762, 63.44604
613.4583, 54.17358
613.9404, 45.22729
614.4225, 34.85938
614.9047, 28.78882
615.3868, 39.89258
615.8689, 66.49121
616.3510, 84.07227
616.8331, 80.95264
617.3152, 71.10181
617.7974, 80.10449
618.2795, 102.3750
618.7616, 116.7139
619.2437, 100.8892
619.7258, 80.53125
620.2079, 75.98999
620.6901, 88.28491
621.1722, 100.4343
621.6543, 101.7727
622.1364, 104.4434
622.6185, 118.1128
623.1006, 156.0630
623.5828, 175.4570
624.0649, 164.4629
624.5470, 145.7661
625.0291, 147.6143
625.5112, 173.7520
625.9933, 201.2336
626.4755, 227.3242
626.9576, 250.2659
627.4397, 264.5828
627.9218, 271.1804
628.4039, 276.9819
628.8860, 281.8306
629.3682, 289.7668
629.8503, 308.2192
630.3324, 336.0298
630.8145, 364.1208
631.2966, 380.7632
631.7787, 399.9436
632.2609, 433.5054
632.7430, 487.3760
633.2251, 538.2229
633.7072, 578.0701
634.1893, 614.7007
634.6714, 654.6460
635.1536, 698.5913
635.6357, 744.5022
636.1178, 791.6877
636.5999, 840.7356
637.0820, 893.1729
637.5641, 948.9099
638.0463, 1004.248
638.5284, 1056.523
639.0105, 1109.435
639.4926, 1170.833
639.9747, 1240.749
640.4568, 1317.095
640.9390, 1403.733
641.4211, 1493.966
641.9032, 1581.948
642.3853, 1666.904
642.8674, 1752.138
643.3495, 1830.334
643.8317, 1914.838
644.3138, 2016.868
644.7959, 2147.924
645.2780, 2273.633
645.7601, 2384.395
646.2422, 2498.172
646.7244, 2641.752
647.2065, 2821.061
647.6886, 2996.442
648.1707, 3158.904
648.6528, 3312.788
649.1349, 3462.733
649.6171, 3610.704
650.0992, 3774.559
650.5813, 3974.412
651.0634, 4186.171
651.5455, 4390.347
652.0276, 4586.449
652.5098, 4757.788
652.9919, 4879.904
653.4740, 4985.627
653.9561, 5102.295
654.4382, 5240.544
654.9203, 5345.433
655.4025, 5406.468
655.8846, 5433.691
656.3667, 5435.235
656.8488, 5420.273
657.3309, 5348.155
657.8130, 5209.471
658.2952, 5027.577
658.7773, 4828.173
659.2594, 4610.809
659.7415, 4390.239
660.2236, 4169.846
660.7057, 3947.434
661.1879, 3718.082
661.6700, 3485.633
662.1521, 3262.603
662.6342, 3046.529
663.1163, 2850.916
663.5984, 2694.299
664.0806, 2571.590
664.5627, 2440.147
665.0448, 2279.975
665.5269, 2119.271
666.0090, 1966.868
666.4911, 1822.378
666.9733, 1699.237
667.4554, 1600.687
667.9375, 1513.874
668.4196, 1431.375
668.9017, 1352.959
669.3839, 1272.716
669.8660, 1188.096
670.3481, 1112.318
670.8302, 1067.098
671.3123, 1042.219
671.7944, 1015.499
672.2766, 979.9678
672.7587, 941.7158
673.2408, 904.1560
673.7229, 866.8892
674.2050, 827.7090
674.6871, 775.1836
675.1693, 732.7156
675.6514, 712.5017
676.1335, 708.9287
676.6156, 692.8647
677.0977, 659.2812
677.5798, 624.6455
678.0620, 595.3818
678.5441, 571.5156
679.0262, 554.1460
679.5083, 543.3706
679.9904, 534.4314
680.4725, 523.8887
680.9547, 512.1731
681.4368, 500.7368
681.9189, 490.2200
682.4010, 476.2212
682.8831, 450.6069
683.3652, 422.7153
683.8474, 402.3459
684.3295, 393.6313
684.8116, 389.0007
685.2937, 391.3054
685.7758, 395.8701
686.2579, 397.1812
686.7401, 396.0198
687.2222, 388.6572
687.7043, 371.6331
688.1864, 350.7161
688.6685, 340.1729
689.1506, 339.5598
689.6328, 341.8823
690.1149, 346.6729
690.5970, 350.8416
691.0791, 349.1440
691.5612, 342.3467
692.0433, 334.5090
692.5255, 326.2285
693.0076, 318.7188
693.4897, 314.4221
693.9718, 314.1968
694.4539, 307.7756
694.9360, 287.9255
695.4182, 267.3057
695.9003, 252.6970
696.3824, 245.8577
696.8645, 235.3083
697.3466, 220.0378
697.8287, 205.7024
698.3109, 198.6714
698.7930, 198.0327
699.2751, 199.6560
699.7572, 203.6985
700.2393, 207.0251
700.7214, 205.5754
701.2036, 201.1453
701.6857, 196.4900
702.1678, 193.9524
702.6499, 189.7625
703.1320, 181.2917
703.6141, 170.1609
704.0963, 160.4414
704.5784, 153.5562
705.0605, 145.9067
705.5426, 135.1477
706.0247, 123.1248
706.5068, 119.3457
706.9890, 124.6833
707.4711, 130.7139
707.9532, 133.3997
708.4353, 133.5161
708.9174, 132.4844
709.3995, 130.4150
709.8817, 128.4661
710.3638, 129.6560
710.8459, 129.8896
711.3280, 124.6047
711.8101, 112.5637
712.2922, 101.7534
712.7744, 98.72949
713.2565, 94.33521
713.7386, 80.95264
714.2207, 49.10400
714.7028, 35.01221
715.1849, 46.30322
715.6671, 61.85547
716.1492, 54.12036
716.6313, 25.69531
717.1134, 8.244873
717.5955, 9.537842
718.0776, 15.99561
718.5598, 9.532227
719.0419, 3.607666
719.5240, 11.13599
720.0061, 2.950195
720.4882, 4.743896
720.9703, 4.321777
721.4525, 1.981934
721.9346, 9.074463
722.4167, 16.68140
722.8988, 25.06372
723.3809, 37.48584
723.8630, 50.42065
724.3452, 47.03784
724.8273, 25.00366
725.3094, 3.465332
725.7915, 9.386719
726.2736, 14.90869
726.7557, 14.69873
727.2379, 9.394043
727.7200, 4.006104
728.2021, 0.8920900
728.6842, 0.2917480
729.1663, 1.249512
729.6484, 5.692627
730.1306, 7.876221
730.6127, 2.098145
731.0948, 2.767090
731.5769, 1.205078
732.0590, 9.336426
732.5411, 15.47241
733.0233, 16.28198
733.5054, 14.74854
733.9875, 13.88159
734.4696, 13.30737
734.9517, 10.02832
735.4338, 3.436768
735.9160, 4.278564
736.3981, 12.63770
736.8802, 20.14551
737.3623, 24.48389
737.8444, 24.23193
738.3266, 22.30005
738.8087, 18.84546
739.2908, 14.68115
739.7729, 11.00610
740.2551, 7.873291
740.7372, 5.534912
741.2193, 5.644287
741.7014, 5.201904
742.1835, 4.344238
742.6656, 23.09448
743.1478, 37.66235
743.6299, 42.62549
744.1120, 42.65332
744.5941, 43.71777
745.0762, 45.86182
745.5583, 49.23779
746.0405, 58.12256
746.5226, 64.32983
747.0047, 58.56714
747.4868, 44.15967
747.9689, 41.17188
748.4510, 66.53516
748.9332, 84.57056
749.4153, 81.22656
749.8974, 58.87524
750.3795, 47.08398
750.8616, 47.43384
751.3438, 46.38135
751.8259, 31.94531
752.3080, 10.58008
752.7901, 3.798584
753.2722, 10.78076
753.7543, 11.31909
754.2365, 0.3554690
754.7186, 13.78784
755.2007, 20.39062
755.6828, 18.39551
756.1649, 14.58325
756.6470, 7.014404
757.1292, 0.6105960
757.6113, 1.289063
758.0934, 2.549561
758.5755, 4.502686
759.0576, 3.311035
759.5397, 4.493408
760.0219, 17.21729
760.5040, 37.22998
760.9861, 50.44287
761.4682, 53.98755
761.9503, 53.83398
762.4324, 51.01929
762.9146, 48.75708
763.3967, 51.08496
763.8788, 63.17749
764.3609, 73.05664
764.8430, 79.27539
765.3251, 81.94971
765.8073, 80.23608
766.2894, 72.41064
766.7715, 66.87183
767.2536, 64.65771
767.7357, 65.50293
768.2178, 69.99170
768.7000, 77.43140
769.1821, 84.63306
769.6642, 89.51685
770.1463, 95.57812
770.6284, 108.1309
771.1105, 123.7327
771.5927, 135.7339
772.0748, 135.4202
772.5569, 139.1841
773.0390, 154.3250
773.5211, 175.4507
774.0032, 187.5002
774.4854, 186.8247
774.9675, 191.2827
775.4496, 208.5566
775.9317, 232.3206
776.4138, 245.4497
776.8959, 249.6187
777.3781, 255.2576
777.8602, 272.3740
778.3423, 290.9482
778.8244, 302.5261
779.3065, 308.1665
779.7886, 313.0696
780.2708, 318.9277
780.7529, 323.9502
781.2350, 325.5071
781.7171, 324.6230
782.1992, 333.7234
782.6813, 356.3911
783.1635, 379.9094
783.6456, 400.2913
784.1277, 414.7729
784.6098, 408.7883
785.0919, 384.9727
785.5740, 369.0571
786.0562, 382.4824
786.5383, 407.1970
787.0204, 433.0017
787.5025, 458.9675
787.9846, 472.1255
788.4667, 453.6570
788.9489, 436.7278
789.4310, 437.8257
789.9131, 458.5474
790.3952, 466.3210
790.8773, 458.5752
791.3594, 449.6279
791.8416, 449.8867
792.3237, 457.2290
792.8058, 466.7480
793.2879, 478.2288
793.7700, 490.0281
794.2521, 501.9612
794.7343, 513.1021
795.2164, 523.8062
795.6985, 535.9990
796.1806, 540.5786
796.6627, 534.9727
797.1448, 524.1501
797.6270, 507.0415
798.1091, 480.2136
798.5912, 479.3286
799.0733, 508.8350
799.5554, 540.6365
800.0375, 544.6799
800.5197, 532.2134
801.0018, 524.1416
801.4839, 523.5095
801.9660, 529.0339
802.4481, 549.8438
802.9302, 570.0303
803.4124, 575.3247
803.8945, 552.2351
804.3766, 538.8113
804.8587, 539.7600
805.3408, 542.5925
805.8229, 534.0522
806.3051, 514.3123
806.7872, 501.1780
807.2693, 496.1448
807.7514, 496.6196
808.2335, 502.2292
808.7156, 510.6382
809.1978, 517.6829
809.6799, 520.6663
810.1620, 528.3799
810.6441, 555.4270
811.1262, 581.8875
811.6083, 587.1812
812.0905, 556.4648
812.5726, 543.1714
813.0547, 554.1321
813.5368, 571.3955
814.0189, 574.0352
814.5010, 564.0315
814.9832, 549.7944
815.4653, 529.9912
815.9474, 519.9836
816.4295, 546.0400
816.9116, 584.5730
817.3937, 605.0750
817.8759, 588.1592
818.3580, 576.2456
818.8401, 584.1094
819.3222, 596.6753
819.8043, 598.5337
820.2864, 585.5935
820.7686, 582.6511
821.2507, 594.8535
821.7328, 608.5420
822.2149, 601.6855
822.6970, 582.5708
823.1791, 572.5864
823.6613, 578.4189
824.1434, 588.0232
824.6255, 594.4990
825.1076, 599.9084
825.5897, 606.4546
826.0718, 619.1536
826.5540, 625.4800
827.0361, 620.1775
827.5182, 614.6047
828.0003, 628.3367
828.4824, 660.8350
828.9645, 670.1836
829.4467, 646.2278
829.9288, 614.4888
830.4109, 601.2356
830.8930, 600.3696
831.3751, 602.7798
831.8572, 606.9875
832.3394, 612.3606
832.8215, 623.2378
833.3036, 632.5981
833.7857, 632.5281
834.2678, 619.2429
834.7499, 606.3687
835.2321, 592.4878
835.7142, 584.5515
836.1963, 598.4595
836.6784, 626.6650
837.1605, 639.7429
837.6426, 629.8513
838.1248, 614.2820
838.6069, 604.8464
839.0890, 597.8186
839.5711, 588.8748
840.0532, 572.4583
840.5353, 563.6040
841.0175, 570.9749
841.4996, 577.9204
841.9817, 564.7515
842.4638, 530.3679
842.9459, 502.6453
843.4280, 484.4573
843.9102, 471.7693
844.3923, 466.2625
844.8744, 461.2361
845.3565, 444.6951
845.8386, 411.1323
846.3207, 377.6040
846.8029, 345.0842
847.2850, 319.6475
847.7671, 307.1606
848.2492, 313.8870
848.7313, 317.0674
849.2134, 317.3704
849.6956, 312.3428
850.1777, 297.5430
850.6598, 275.1956
851.1419, 252.2761
851.6240, 229.2815
852.1061, 208.3530
852.5883, 189.5420
853.0704, 174.2490
853.5525, 164.7654
854.0346, 165.4092
854.5167, 159.2747
854.9988, 141.8977
855.4810, 122.3284
855.9631, 107.9446
856.4452, 98.84229
856.9273, 82.10327
857.4094, 56.93823
857.8915, 31.81934
858.3737, 14.43945
858.8558, 1.725342
859.3379, 9.299805
859.8200, 18.70996
860.3021, 29.35547
860.7842, 47.76392
861.2664, 62.44751
861.7485, 65.68774
862.2306, 55.94116
862.7127, 51.14014
863.1948, 52.14990
863.6769, 54.14575
864.1591, 54.82104
864.6412, 53.67163
865.1233, 48.55591
865.6054, 39.71948
866.0875, 31.50269
866.5696, 27.41089
867.0518, 23.90454
867.5339, 19.42773
868.0160, 13.74023
868.4981, 5.247559
868.9802, 4.900146
869.4623, 20.43652
869.9445, 45.18701
870.4266, 76.55688
870.9087, 102.0735
871.3908, 122.4832
871.8729, 142.3921
872.3550, 161.5950
872.8372, 184.2600
873.3193, 211.1462
873.8014, 243.8052
874.2835, 288.8660
874.7656, 356.0142
875.2477, 427.2510
875.7299, 503.3733
876.2120, 578.9587
876.6941, 628.7844
877.1762, 652.7358
877.6583, 687.9216
878.1404, 757.6235
878.6226, 839.0715
879.1047, 903.0764
879.5869, 954.2244
880.0690, 1005.869
880.5511, 1066.451
881.0332, 1124.038
881.5153, 1170.452
881.9974, 1213.021
882.4796, 1267.186
882.9617, 1333.402
883.4438, 1411.289
883.9259, 1505.257
884.4080, 1600.007
884.8901, 1668.416
885.3723, 1718.297
885.8544, 1767.917
886.3365, 1822.807
886.8186, 1879.065
887.3007, 1934.500
887.7828, 1989.932
888.2650, 2047.763
888.7471, 2113.516
889.2292, 2165.475
889.7113, 2201.494
890.1934, 2224.239
890.6755, 2230.304
891.1577, 2226.165
891.6398, 2235.271
892.1219, 2265.342
892.6040, 2290.830
893.0861, 2292.362
893.5682, 2281.629
894.0504, 2269.349
894.5325, 2258.236
895.0146, 2243.001
895.4967, 2226.954
895.9788, 2200.798
896.4609, 2154.379
896.9431, 2090.247
897.4252, 2023.335
897.9073, 1954.361
898.3894, 1886.664
898.8715, 1821.247
899.3536, 1757.708
899.8358, 1693.676
900.3179, 1629.074
900.8000, 1570.544
901.2821, 1518.858
901.7642, 1473.708
902.2463, 1438.616
902.7285, 1411.084
903.2106, 1362.922
903.6927, 1295.161
904.1748, 1230.423
904.6569, 1182.228
905.1390, 1143.304
905.6212, 1107.017
906.1033, 1073.814
906.5854, 1044.088
907.0675, 1026.970
907.5496, 1002.381
908.0317, 961.9033
908.5139, 912.4177
908.9960, 874.3667
909.4781, 847.9700
909.9602, 824.7905
910.4423, 803.7483
910.9244, 782.0317
911.4066, 755.7468
911.8887, 726.6270
912.3708, 697.4321
912.8529, 667.5774
913.3350, 639.9004
913.8171, 613.9182
914.2993, 591.1755
914.7814, 574.6816
915.2635, 564.8411
915.7456, 556.8608
916.2277, 551.0293
916.7098, 542.3926
917.1920, 523.6589
917.6741, 499.0676
918.1562, 472.7214
918.6383, 441.9583
919.1204, 421.2217
919.6025, 427.2793
920.0847, 436.9800
920.5668, 433.0732
921.0489, 412.3667
921.5310, 397.8333
922.0131, 390.0613
922.4952, 384.7146
922.9774, 381.4641
923.4595, 377.3945
923.9416, 364.0745
924.4237, 342.0442
924.9058, 328.1238
925.3879, 336.3125
925.8701, 346.8721
926.3522, 352.3486
926.8343, 353.0632
927.3164, 350.3538
927.7985, 343.7334
928.2806, 338.1721
928.7628, 337.9077
929.2449, 338.2454
929.7270, 327.2878
930.2091, 310.6758
930.6912, 303.3369
931.1733, 332.1028
931.6555, 346.7190
932.1376, 319.2212
932.6197, 273.8452
933.1018, 251.1152
933.5839, 253.7229
934.0660, 258.3770
934.5482, 262.0232
935.0303, 262.8110
935.5124, 255.4773
935.9945, 244.3713
936.4766, 237.8857
936.9587, 240.5176
937.4409, 240.3596
937.9230, 233.2471
938.4051, 221.9106
938.8872, 207.1846
939.3693, 187.2253
939.8514, 175.5359
940.3336, 173.4495
940.8157, 170.7410
941.2978, 151.9985
941.7799, 130.6787
942.2620, 131.0808
942.7441, 152.9485
943.2263, 167.2039
943.7084, 154.1626
944.1905, 139.6448
944.6726, 133.1863
945.1547, 134.0869
945.6368, 140.2542
946.1190, 152.3347
946.6011, 158.7981
947.0832, 150.2021
947.5653, 137.9473
948.0474, 138.7788
948.5295, 147.8018
949.0117, 153.6370
949.4938, 149.5737
949.9759, 145.4106
950.4580, 143.5742
950.9401, 142.3164
951.4222, 141.1196
951.9044, 139.8384
952.3865, 132.0403
952.8686, 115.4358
953.3507, 95.75854
953.8328, 73.80664
954.3149, 57.58008
954.7971, 59.79785
955.2792, 89.80933
955.7613, 104.8757
956.2434, 89.77881
956.7255, 69.22656
957.2076, 57.40552
957.6898, 54.75049
958.1719, 55.95923
958.6540, 60.81665
959.1361, 64.48804
959.6182, 62.71021
960.1003, 59.08459
960.5825, 53.40186
961.0646, 46.93250
961.5467, 48.99683
962.0288, 70.17017
962.5109, 89.19983
962.9930, 101.9519
963.4752, 108.3121
963.9573, 105.0192
964.4394, 94.12317
964.9215, 88.26147
965.4036, 93.31226
965.8857, 101.3813
966.3679, 108.9172
966.8500, 114.4423
967.3321, 116.0125
967.8142, 115.9622
968.2963, 104.3306
968.7784, 74.38928
969.2606, 47.22729
969.7427, 46.73486
970.2248, 65.75879
970.7069, 88.02612
971.1890, 112.1405
971.6711, 128.9142
972.1533, 127.8051
972.6354, 120.7062
973.1175, 114.2854
973.5996, 109.5081
974.0817, 107.4921
974.5638, 104.5116
975.0460, 105.5607
975.5281, 114.7930
976.0102, 128.2676
976.4923, 139.5037
976.9744, 148.3910
977.4565, 154.3258
977.9387, 153.6567
978.4208, 152.4592
978.9029, 153.0537
979.3850, 155.4786
979.8671, 159.6454
980.3492, 165.3667
980.8314, 175.1154
981.3135, 190.9196
981.7956, 202.8616
982.2777, 196.1073
982.7598, 180.4263
983.2419, 167.6406
983.7241, 158.6572
984.2062, 160.5671
984.6883, 187.7644
985.1704, 213.9340
985.6525, 227.4597
986.1346, 229.3766
986.6168, 230.3467
987.0989, 230.2971
987.5810, 226.9972
988.0631, 214.8151
988.5452, 202.3438
989.0273, 198.4053
989.5095, 200.7098
989.9916, 203.5582
990.4737, 207.5037
990.9558, 209.8673
991.4379, 211.9313
991.9200, 209.9573
992.4022, 193.6223
992.8843, 167.3502
993.3664, 149.8955
993.8485, 145.4561
994.3306, 146.8040
994.8127, 153.7802
995.2949, 160.8390
995.7770, 163.6531
996.2591, 162.3986
996.7412, 154.3135
997.2233, 138.0994
997.7054, 120.1373
998.1876, 99.84985
998.6697, 82.36328
999.1518, 81.51941
999.6339, 94.09558
1000.116, 106.9741
1000.598, 124.0112
1001.080, 128.8013
1001.562, 104.7803
1002.044, 70.18713
1002.527, 59.83081
1003.009, 75.94446
1003.491, 85.51367
1003.973, 82.28284
1004.455, 72.16077
1004.937, 57.32727
1005.419, 41.60913
1005.901, 30.11426
1006.384, 24.30115
1006.866, 20.87524
1007.348, 23.60400
1007.830, 22.09534
1008.312, 7.402344
1008.794, 16.92957
1009.276, 30.79065
1009.758, 34.58264
1010.240, 32.42456
1010.723, 17.34241
1011.205, 6.303833
1011.687, 16.54199
1012.169, 38.51746
1012.651, 45.81580
1013.133, 32.85352
1013.615, 19.49817
1014.097, 7.370605
1014.580, 0.7515870
1015.062, 1.641479
1015.544, 10.10107
1016.026, 16.43872
1016.508, 18.98535
1016.990, 20.14001
1017.472, 22.65552
1017.954, 21.98486
1018.436, 13.57654
1018.919, 1.843872
1019.401, 6.819092
1019.883, 1.284790
1020.365, 3.986084
1020.847, 2.972656
1021.329, 1.390625
1021.811, 8.942871
1022.293, 17.36267
1022.776, 20.92566
1023.258, 14.86707
1023.740, 9.659424
1024.222, 5.531006
1024.704, 3.898804
1025.186, 10.22009
1025.668, 20.80554
1026.150, 19.67712
1026.632, 3.318481
1027.115, 6.526489
1027.597, 13.12207
1028.079, 35.45459
1028.561, 40.76282
1029.043, 29.84631
1029.525, 25.27356
1030.007, 28.45056
1030.489, 25.76990
1030.972, 1.763916
1031.454, 21.11914
1031.936, 1.628662
1032.418, 47.83508
1032.900, 69.72607
1033.382, 25.92676
1033.864, 6.483887
1034.346, 20.11975
1034.828, 19.49890
1035.311, 2.775513
1035.793, 26.15125
1036.275, 38.18982
1036.757, 31.02209
1037.239, 22.16125
1037.721, 22.60291
1038.203, 27.02588
1038.685, 32.57239
1039.167, 38.95068
1039.650, 46.42493
1040.132, 56.38647
1040.614, 60.35571
1041.096, 52.69824
1041.578, 42.25159
1042.060, 43.86255
1042.542, 52.94775
1043.024, 61.42615
1043.507, 68.51294
1043.989, 71.22815
1044.471, 65.83105
1044.953, 59.80420
1045.435, 59.64404
1045.917, 64.75122
1046.399, 67.87842
1046.881, 68.79443
1047.364, 66.12720
1047.846, 55.24329
1048.328, 43.87854
1048.810, 36.64343
1049.292, 33.63013
1049.774, 33.91248
1050.256, 39.49573
1050.738, 40.08728
1051.220, 31.57434
1051.703, 22.85718
1052.185, 29.58325
1052.667, 44.23035
1053.149, 54.27991
1053.631, 56.73047
1054.113, 56.89124
1054.595, 53.78638
1055.077, 51.62939
1055.559, 53.17725
1056.042, 57.66223
1056.524, 59.14062
1057.006, 58.10254
1057.488, 58.56543
1057.970, 63.52747
1058.452, 69.84277
1058.934, 76.64368
1059.416, 83.14990
1059.899, 88.57471
1060.381, 94.73303
1060.863, 92.47083
1061.345, 79.50488
1061.827, 64.41565
1062.309, 53.93909
1062.791, 48.00244
1063.273, 47.72107
1063.755, 52.90759
1064.238, 58.62012
1064.720, 63.93591
1065.202, 69.60022
1065.684, 76.20447
1066.166, 82.88452
1066.648, 86.92407
1067.130, 88.20337
1067.612, 85.79602
1068.094, 78.34729
1068.577, 71.22485
1069.059, 66.09009
1069.541, 61.56213
1070.023, 56.70312
1070.505, 52.36365
1070.987, 50.61011
1071.469, 51.80225
1071.951, 52.73230
1072.434, 49.35352
1072.916, 44.80872
1073.398, 41.73450
1073.880, 40.97314
1074.362, 45.15845
1074.844, 65.63098
1075.326, 71.61780
1075.808, 54.02844
1076.291, 31.21265
1076.773, 30.28833
1077.255, 44.00940
1077.737, 54.22009
1078.219, 58.07861
1078.701, 60.36353
1079.183, 65.52917
1079.665, 67.35779
1080.147, 61.43250
1080.630, 49.48816
1081.112, 40.86206
1081.594, 35.60876
1082.076, 36.02185
1082.558, 45.16028
1083.040, 56.40906
1083.522, 64.66125
1084.004, 70.64978
1084.486, 75.87732
1084.969, 85.04346
1085.451, 78.93762
1085.933, 52.09094
1086.415, 27.28369
1086.897, 23.60571
1087.379, 32.83777
1087.861, 43.60474
1088.343, 54.77563
1088.826, 62.80945
1089.308, 64.96790
1089.790, 66.58508
1090.272, 68.18457
1090.754, 67.17578
1091.236, 53.74207
1091.718, 32.62891
1092.200, 36.58020
1092.682, 73.70483
1093.165, 102.0823
1093.647, 82.13525
1094.129, 55.06580
1094.611, 47.72644
1095.093, 57.39905
1095.575, 65.36182
1096.057, 71.82324
1096.539, 71.63074
1097.022, 60.56458
1097.504, 46.75281
1097.986, 37.29822
1098.468, 30.82874
1098.950, 24.65588
1099.432, 12.81006
1099.914, 20.37537
1100.396, 54.18018
1100.879, 83.95178
1101.361, 83.49890
1101.843, 65.64111
1102.325, 53.11035
1102.807, 45.20715
1103.289, 38.52808
1103.771, 30.15198
1104.253, 25.61975
1104.735, 27.82568
1105.218, 31.33679
1105.700, 27.08972
1106.182, 17.28308
1106.664, 11.74915
1107.146, 10.49951
1107.628, 11.07532
1108.110, 11.21387
1108.592, 13.11865
1109.074, 20.79004
1109.557, 31.06152
1110.039, 27.48254
1110.521, 9.742798
1111.003, 3.796265
1111.485, 20.32117
1111.967, 41.41162
1112.449, 54.06860
1112.931, 59.46130
1113.414, 57.81970
1113.896, 47.88379
1114.378, 37.93103
1114.860, 27.22534
1115.342, 19.62341
1115.824, 18.94812
1116.306, 21.27344
1116.788, 21.08728
1117.271, 18.89417
1117.753, 15.80273
1118.235, 8.266846
1118.717, 6.723267
1119.199, 15.38086
1119.681, 23.22205
1120.163, 14.48267
1120.645, 3.124023
1121.127, 4.100098
1121.609, 10.77832
1122.092, 22.89050
1122.574, 16.72668
1123.056, 14.07642
1123.538, 25.41418
1124.020, 41.83704
1124.502, 43.24146
1124.984, 31.86670
1125.466, 28.92346
1125.949, 39.73926
1126.431, 46.12231
1126.913, 26.97168
1127.395, 5.733276
1127.877, 0.8704830
1128.359, 10.39575
1128.841, 17.58923
1129.323, 22.46631
1129.806, 24.61157
1130.288, 22.90796
1130.770, 20.51099
1131.252, 17.82996
1131.734, 17.77808
1132.216, 25.62427
1132.698, 46.35413
1133.180, 58.73145
1133.662, 61.08655
1134.145, 59.08545
1134.627, 53.21765
1135.109, 47.57373
1135.591, 49.76172
1136.073, 57.29285
1136.555, 63.79932
1137.037, 71.67676
1137.519, 70.71375
1138.001, 57.36511
1138.484, 42.49829
1138.966, 38.53027
1139.448, 41.17297
1139.930, 38.31860
1140.412, 30.23083
1140.894, 25.94177
1141.376, 33.26025
1141.858, 39.79834
1142.341, 42.44995
1142.823, 42.45203
1143.305, 41.70276
1143.787, 40.72400
1144.269, 41.01489
1144.751, 43.27759
1145.233, 45.05298
1145.715, 44.07898
1146.198, 42.69861
1146.680, 43.07947
1147.162, 44.12463
1147.644, 37.71301
1148.126, 24.98462
1148.608, 22.53040
1149.090, 40.30420
1149.572, 57.04565
1150.054, 55.32654
1150.536, 45.73865
1151.019, 37.71875
1151.501, 31.61914
1151.983, 27.94580
1152.465, 26.84106
1152.947, 24.99707
1153.429, 19.85742
1153.911, 14.03052
1154.393, 9.606079
1154.876, 6.310425
1155.358, 3.744507
1155.840, 2.096680
1156.322, 0.4475100
1156.804, 4.690796
1157.286, 5.627930
1157.768, 5.628174
1158.250, 19.23181
1158.733, 22.29138
1159.215, 16.68542
1159.697, 10.67920
1160.179, 4.448486
1160.661, 0.1693120
1161.143, 2.215698
1161.625, 1.691895
1162.107, 7.597534
1162.589, 18.41858
1163.072, 14.19055
1163.554, 4.696655
1164.036, 11.75073
1164.518, 10.24036
1165.000, 26.30750
1165.482, 27.00415
1165.964, 19.70361
1166.446, 16.56226
1166.928, 16.10278
1167.411, 14.95618
1167.893, 12.39929
1168.375, 9.826782
1168.857, 6.684326
1169.339, 5.165771
1169.821, 7.057129
1170.303, 10.38062
1170.785, 6.634277
1171.268, 0.8089600
1171.750, 0.1600340
1172.232, 15.71875
1172.714, 31.09143
1173.196, 40.31433
1173.678, 46.26648
1174.160, 50.33728
1174.642, 52.44067
1175.125, 51.66431
1175.607, 48.03870
1176.089, 41.69434
1176.571, 26.97058
1177.053, 17.29333
1177.535, 25.25964
1178.017, 35.94336
1178.499, 34.18726
1178.981, 19.75171
1179.464, 13.54175
1179.946, 15.17224
1180.428, 16.85181
1180.910, 12.70422
1181.392, 8.384277
1181.874, 7.489624
1182.356, 7.910767
1182.838, 6.200562
1183.320, 2.231323
1183.803, 0.9663090
1184.285, 3.213135
1184.767, 2.626343
1185.249, 4.097168
1185.731, 12.26489
1186.213, 20.34143
1186.695, 26.96399
1187.177, 27.89490
1187.660, 22.62000
1188.142, 20.66016
1188.624, 24.28748
1189.106, 25.56702
1189.588, 12.55457
1190.070, 1.617432
1190.552, 6.406494
1191.034, 2.032715
1191.516, 7.191162
1191.999, 22.33167
1192.481, 32.48047
1192.963, 34.76782
1193.445, 32.31689
1193.927, 26.75549
1194.409, 19.04163
1194.891, 8.120483
1195.373, 6.133667
1195.855, 9.983032
1196.338, 2.174683
1196.820, 4.633179
1197.302, 4.078491
1197.784, 3.406250
1198.266, 14.74731
1198.748, 28.44971
1199.230, 31.52478
1199.712, 21.29248
1200.195, 8.530762
1200.677, 8.165649
1201.159, 17.15686
1201.641, 7.905396
1202.123, 6.808105
1202.605, 14.72131
1203.087, 17.13013
1203.569, 15.54138
1204.052, 6.753418
1204.534, 6.084717
1205.016, 15.15955
1205.498, 22.59973
1205.980, 17.34534
1206.462, 8.864502
1206.944, 2.478271
1207.426, 16.04504
1207.908, 23.89734
1208.391, 26.31067
1208.873, 7.046265
1209.355, 15.76599
1209.837, 13.26746
1210.319, 10.30835
1210.801, 23.00476
1211.283, 7.186646
1211.765, 19.77759
1212.247, 20.82556
1212.730, 27.03735
1213.212, 21.95251
1213.694, 20.34497
1214.176, 30.00403
1214.658, 33.25000
1215.140, 26.62891
1215.622, 33.16357
1216.104, 16.64282
1216.587, 20.37061
1217.069, 32.83289
1217.551, 19.12085
1218.033, 27.39990
1218.515, 34.73804
1218.997, 28.87561
1219.479, 19.15564
1219.961, 17.12537
1220.443, 22.89197
1220.926, 23.25317
1221.408, 13.70764
1221.890, 15.37769
1222.372, 37.67346
1222.854, 61.00757
1223.336, 62.60547
1223.818, 52.55920
1224.300, 40.25671
1224.782, 26.76477
1225.265, 17.87756
1225.747, 13.78491
1226.229, 13.39148
1226.711, 16.81885
1227.193, 22.53125
1227.675, 32.58618
1228.157, 41.58459
1228.639, 41.26721
1229.122, 29.58313
1229.604, 24.00500
1230.086, 25.29333
1230.568, 28.09814
1231.050, 32.08728
1231.532, 33.52478
1232.014, 21.53162
1232.496, 6.981812
1232.979, 4.693237
1233.461, 17.36560
1233.943, 26.25000
1234.425, 31.67957
1234.907, 29.90979
1235.389, 12.27576
1235.871, 2.072998
1236.353, 14.20154
1236.835, 40.34631
1237.318, 47.00977
1237.800, 30.30469
1238.282, 17.47559
1238.764, 8.388062
1239.246, 8.484009
1239.728, 30.37610
1240.210, 50.67175
1240.692, 43.68506
1241.175, 26.18835
1241.657, 20.88318
1242.139, 31.00403
1242.621, 40.30676
1243.103, 48.86841
1243.585, 53.98706
1244.067, 53.90222
1244.549, 49.52246
1245.031, 37.32336
1245.514, 25.55017
1245.996, 26.26526
1246.478, 40.90662
1246.960, 51.28918
1247.442, 57.07434
1247.924, 58.17603
1248.406, 47.31677
1248.888, 36.64368
1249.370, 35.00391
1249.853, 34.10938
1250.335, 27.23486
1250.817, 14.31860
1251.299, 12.58081
1251.781, 21.98145
1252.263, 29.69751
1252.745, 23.69336
1253.227, 19.09155
1253.710, 26.05396
1254.192, 35.04285
1254.674, 31.20227
1255.156, 17.27808
1255.638, 15.47192
1256.120, 25.82397
1256.602, 32.97778
1257.084, 25.00452
1257.567, 16.59509
1258.049, 11.36584
1258.531, 9.464722
1259.013, 12.57153
1259.495, 19.19861
1259.977, 23.01099
1260.459, 24.03430
1260.941, 27.99829
1261.423, 44.64172
1261.906, 53.86157
1262.388, 48.37903
1262.870, 38.56726
1263.352, 43.20544
1263.834, 53.93323
1264.316, 47.83118
1264.798, 24.75537
1265.280, 9.116211
1265.762, 12.38416
1266.245, 17.87000
1266.727, 24.27087
1267.209, 27.02441
1267.691, 17.50256
1268.173, 3.103149
1268.655, 3.692749
1269.137, 1.877441
1269.619, 5.148193
1270.102, 20.18030
1270.584, 29.57751
1271.066, 29.08569
1271.548, 26.75134
1272.030, 36.16907
1272.512, 47.11292
1272.994, 44.14453
1273.476, 27.71082
1273.958, 23.77319
1274.441, 36.47473
1274.923, 44.35535
1275.405, 42.06482
1275.887, 36.61060
1276.369, 34.33240
1276.851, 33.15942
1277.333, 31.81982
1277.815, 29.90686
1278.297, 23.99707
1278.780, 13.58118
1279.262, 11.48474
1279.744, 21.34485
1280.226, 35.18018
1280.708, 53.16431
1281.190, 66.45789
1281.672, 65.61572
1282.154, 55.58618
1282.637, 55.34351
1283.119, 63.40186
1283.601, 63.51233
1284.083, 52.99097
1284.565, 46.22534
1285.047, 54.87830
1285.529, 64.28613
1286.011, 68.46509
1286.494, 67.29993
1286.976, 59.11914
1287.458, 45.29993
1287.940, 28.69189
1288.422, 8.672241
1288.904, 3.767822
1289.386, 0.1812740
1289.868, 7.432495
1290.350, 16.07642
1290.833, 22.52051
1291.315, 14.08899
1291.797, 0.1643070
1292.279, 0.7110600
1292.761, 23.41711
1293.243, 33.25623
1293.725, 15.36279
1294.207, 3.680664
1294.689, 7.799683
1295.172, 13.80640
1295.654, 14.49219
1296.136, 14.36316
1296.618, 11.07385
1297.100, 9.400391
1297.582, 5.399536
1298.064, 0.0000000E+00
##END=



