##NAMES=Clinohumite
##RRUFFID=R070561
##IDEAL CHEMISTRY=Mg_9_(SiO_4_)_4_F_2_
##LOCALITY=Unknown
##OWNER=RRUFF
##SOURCE=www.multicolour.com
##DESCRIPTION=Brownish orange transparent fragments
##STATUS=The identification of this mineral has been confirmed by X-ray diffraction and chemical analysis
##URL=rruff.info/R070561
##MEASURED CHEMISTRY=(Mg_8.47_Fe_0.23_Ti_0.15_[box]_0.14_Mn_0.01_)_Σ=9_((Si_3.98_Al_0.02_)_Σ=1_O_4_)_4_(F_1.01_(OH)_0.99_)_Σ=2_ ; OH estimated by difference and charge balance
155.7619, 0.0000000E+00
156.2440, 119.1689
156.7261, 205.1338
157.2082, 226.6697
157.6903, 207.8660
158.1724, 180.3545
158.6546, 219.9810
159.1367, 262.8701
159.6188, 235.1187
160.1009, 212.7629
160.5830, 167.1243
161.0651, 85.05054
161.5473, 9.394287
162.0294, 37.50244
162.5115, 101.3157
162.9936, 194.6931
163.4757, 192.6204
163.9578, 141.4617
164.4400, 105.9700
164.9221, 120.2515
165.4042, 170.0737
165.8863, 187.9473
166.3684, 126.1548
166.8505, 86.69971
167.3327, 105.6343
167.8148, 155.0137
168.2969, 185.1226
168.7790, 165.1226
169.2611, 109.0637
169.7432, 105.5674
170.2254, 246.1318
170.7075, 333.2520
171.1896, 278.2305
171.6717, 141.4438
172.1538, 34.11230
172.6359, 23.44263
173.1181, 96.60669
173.6002, 156.3857
174.0823, 200.2788
174.5644, 236.7114
175.0465, 281.1108
175.5286, 320.0352
176.0108, 314.9539
176.4929, 231.6208
176.9750, 86.07861
177.4571, 46.96045
177.9392, 194.7329
178.4213, 340.7649
178.9035, 436.3757
179.3856, 483.8938
179.8677, 492.6328
180.3498, 464.2637
180.8319, 402.3252
181.3140, 353.5159
181.7962, 329.5593
182.2783, 303.3394
182.7604, 252.1169
183.2425, 189.0620
183.7246, 147.4038
184.2067, 149.4504
184.6889, 193.1196
185.1710, 250.0979
185.6531, 375.1699
186.1352, 456.8650
186.6173, 422.9092
187.0994, 306.2341
187.5816, 197.1990
188.0637, 157.3701
188.5458, 179.3572
189.0279, 208.8679
189.5100, 258.1184
189.9921, 279.5764
190.4743, 226.2109
190.9564, 125.8105
191.4385, 57.58130
191.9206, 81.26050
192.4027, 188.5710
192.8848, 239.2852
193.3670, 186.8071
193.8491, 137.4338
194.3312, 144.1980
194.8133, 190.4072
195.2954, 223.2131
195.7775, 204.0288
196.2597, 138.6841
196.7418, 110.7925
197.2239, 150.4089
197.7060, 188.3162
198.1881, 196.0415
198.6702, 180.3457
199.1524, 157.1416
199.6345, 138.3298
200.1166, 118.6880
200.5987, 146.2590
201.0808, 277.4177
201.5629, 394.5732
202.0451, 461.2251
202.5272, 481.2288
203.0093, 461.4907
203.4914, 399.0347
203.9735, 302.7925
204.4556, 255.4924
204.9378, 290.9895
205.4199, 328.1135
205.9020, 329.8186
206.3841, 313.3074
206.8662, 321.0264
207.3483, 385.9404
207.8305, 489.5845
208.3126, 557.9648
208.7947, 608.0198
209.2768, 612.0647
209.7589, 525.3701
210.2410, 389.2761
210.7232, 278.2014
211.2053, 233.7175
211.6874, 246.7205
212.1695, 270.3379
212.6516, 342.5496
213.1337, 382.0139
213.6159, 358.5820
214.0980, 292.4763
214.5801, 210.7463
215.0622, 124.6108
215.5443, 43.13184
216.0264, 7.639648
216.5086, 50.81201
216.9907, 100.3062
217.4728, 173.8716
217.9549, 241.5305
218.4370, 252.2144
218.9191, 178.3535
219.4013, 48.74023
219.8834, 35.03442
220.3655, 15.20142
220.8476, 5.122559
221.3297, 30.15967
221.8118, 64.02734
222.2940, 71.97021
222.7761, 38.73193
223.2582, 20.04517
223.7403, 66.12207
224.2224, 88.92651
224.7046, 110.7866
225.1867, 108.8508
225.6688, 116.4778
226.1509, 180.4507
226.6330, 315.8279
227.1151, 471.8625
227.5973, 542.1135
228.0794, 463.5879
228.5615, 386.7070
229.0436, 290.8030
229.5257, 211.1333
230.0078, 180.6240
230.4900, 207.9668
230.9721, 273.8071
231.4542, 349.9492
231.9363, 460.8347
232.4184, 534.7317
232.9005, 583.3362
233.3827, 593.4241
233.8648, 527.1479
234.3469, 388.9919
234.8290, 251.2163
235.3111, 227.7280
235.7932, 390.4873
236.2754, 488.9417
236.7575, 508.6086
237.2396, 485.4487
237.7217, 419.0808
238.2038, 320.5686
238.6859, 226.8013
239.1681, 177.3320
239.6502, 175.9695
240.1323, 205.3413
240.6144, 348.8132
241.0965, 452.3848
241.5786, 421.7344
242.0608, 272.8398
242.5429, 100.6006
243.0250, 23.78198
243.5071, 103.6272
243.9892, 93.09595
244.4713, 134.4590
244.9535, 336.9353
245.4356, 413.7588
245.9177, 385.0015
246.3998, 325.6841
246.8819, 288.0317
247.3640, 269.7422
247.8462, 240.3560
248.3283, 180.5422
248.8104, 134.9531
249.2925, 119.7783
249.7746, 130.4338
250.2567, 158.8777
250.7389, 213.5042
251.2210, 279.8528
251.7031, 294.4822
252.1852, 208.8108
252.6673, 163.2825
253.1494, 278.2949
253.6316, 456.9465
254.1137, 541.4304
254.5958, 414.4734
255.0779, 200.1548
255.5600, 167.0471
256.0421, 388.9468
256.5243, 550.4727
257.0064, 426.7747
257.4885, 184.8838
257.9706, 7.527100
258.4527, 54.23584
258.9348, 40.43506
259.4170, 23.81299
259.8991, 144.5437
260.3812, 239.6697
260.8633, 268.8174
261.3454, 255.6951
261.8275, 227.6814
262.3097, 177.8083
262.7918, 136.3940
263.2739, 121.0986
263.7560, 132.5095
264.2381, 183.2734
264.7202, 309.5364
265.2024, 444.5337
265.6845, 485.7783
266.1666, 414.9963
266.6487, 331.3186
267.1308, 265.2632
267.6129, 222.3948
268.0951, 231.7595
268.5772, 321.6628
269.0593, 419.1199
269.5414, 394.3679
270.0235, 235.8799
270.5056, 112.2283
270.9878, 95.93506
271.4699, 128.4148
271.9520, 123.1069
272.4341, 60.35938
272.9162, 1.513916
273.3983, 10.91528
273.8805, 116.1384
274.3626, 185.0359
274.8447, 180.7825
275.3268, 158.6074
275.8089, 156.1177
276.2910, 179.0803
276.7732, 233.3296
277.2553, 342.1909
277.7374, 514.5410
278.2195, 557.0405
278.7016, 360.1851
279.1837, 150.9829
279.6659, 37.72217
280.1480, 8.668701
280.6301, 3.676270
281.1122, 52.11084
281.5943, 127.4678
282.0764, 108.7471
282.5586, 137.6199
283.0407, 323.5415
283.5228, 360.0505
284.0049, 299.0398
284.4870, 215.8711
284.9691, 147.1443
285.4513, 94.27368
285.9334, 62.08887
286.4155, 30.08740
286.8976, 54.06006
287.3797, 223.3501
287.8618, 404.8611
288.3440, 447.4404
288.8261, 306.9307
289.3082, 100.0938
289.7903, 36.64136
290.2724, 202.4004
290.7545, 286.6016
291.2367, 190.8047
291.7188, 67.87451
292.2009, 3.685791
292.6830, 11.72437
293.1651, 59.12622
293.6472, 130.2571
294.1294, 230.4392
294.6115, 283.8093
295.0936, 244.8354
295.5757, 199.0540
296.0578, 196.8499
296.5399, 228.1565
297.0221, 250.2466
297.5042, 221.4324
297.9863, 157.8406
298.4684, 127.5034
298.9505, 140.0745
299.4326, 167.2297
299.9148, 192.5073
300.3969, 219.5618
300.8790, 256.6096
301.3611, 324.8193
301.8432, 392.1040
302.3253, 390.0229
302.8075, 304.8479
303.2896, 262.7151
303.7717, 380.5850
304.2538, 565.9509
304.7359, 627.5332
305.2180, 486.7712
305.7002, 316.7456
306.1823, 197.7632
306.6644, 136.9363
307.1465, 182.4917
307.6286, 388.5732
308.1107, 660.2537
308.5929, 796.8357
309.0750, 779.0911
309.5571, 723.5527
310.0392, 611.5496
310.5213, 496.5769
311.0034, 468.6768
311.4856, 551.1150
311.9677, 665.1990
312.4498, 705.6726
312.9319, 629.9753
313.4140, 609.3530
313.8961, 700.1138
314.3783, 802.3252
314.8604, 844.9543
315.3425, 827.1328
315.8246, 786.9062
316.3067, 749.9636
316.7888, 717.0117
317.2710, 730.9939
317.7531, 854.8906
318.2352, 953.5012
318.7173, 968.3645
319.1994, 929.7412
319.6815, 895.6536
320.1637, 901.3982
320.6458, 932.6426
321.1279, 931.9263
321.6100, 857.6311
322.0921, 818.8218
322.5742, 855.0605
323.0564, 920.0168
323.5385, 977.4617
324.0206, 1016.333
324.5027, 1024.961
324.9848, 972.8191
325.4669, 842.7808
325.9491, 741.1287
326.4312, 698.6572
326.9133, 683.3103
327.3954, 680.7375
327.8775, 686.0322
328.3596, 686.7295
328.8418, 666.5867
329.3239, 633.1824
329.8060, 620.2588
330.2881, 646.4150
330.7702, 669.5762
331.2523, 660.4353
331.7345, 623.0127
332.2166, 562.7893
332.6987, 432.6079
333.1808, 307.5439
333.6629, 296.9485
334.1451, 401.6257
334.6272, 513.1487
335.1093, 578.7456
335.5914, 596.8398
336.0735, 578.2759
336.5556, 479.4275
337.0378, 395.2332
337.5199, 386.5559
338.0020, 422.0764
338.4841, 431.4453
338.9662, 383.0859
339.4483, 304.9792
339.9305, 260.9705
340.4126, 263.9758
340.8947, 285.4624
341.3768, 351.7258
341.8589, 419.7439
342.3410, 441.7437
342.8232, 415.6814
343.3053, 390.7021
343.7874, 421.0518
344.2695, 520.3376
344.7516, 585.8152
345.2337, 609.7468
345.7159, 606.7444
346.1980, 567.6125
346.6801, 507.8562
347.1622, 450.0488
347.6443, 407.3235
348.1265, 378.9570
348.6086, 364.4670
349.0907, 372.0244
349.5728, 378.7695
350.0549, 368.3201
350.5370, 358.6199
351.0192, 380.8442
351.5013, 448.9631
351.9834, 504.7742
352.4655, 471.7161
352.9476, 348.1316
353.4297, 264.3025
353.9119, 275.8904
354.3940, 310.8574
354.8761, 293.4592
355.3582, 223.8608
355.8403, 162.5916
356.3224, 143.1606
356.8046, 149.5923
357.2867, 158.0427
357.7688, 167.5649
358.2509, 163.7244
358.7330, 119.2656
359.2151, 42.14966
359.6973, 19.51953
360.1794, 99.33423
360.6615, 194.3184
361.1436, 265.7551
361.6257, 310.5566
362.1078, 323.4070
362.5900, 298.9036
363.0721, 246.4446
363.5542, 195.9553
364.0363, 120.2581
364.5184, 81.89795
365.0005, 112.5737
365.4827, 167.3723
365.9648, 206.0247
366.4469, 217.7546
366.9290, 210.8484
367.4111, 192.0403
367.8932, 154.2671
368.3754, 133.1924
368.8575, 133.4097
369.3396, 146.4731
369.8217, 178.3403
370.3038, 221.3340
370.7859, 259.7561
371.2681, 289.4729
371.7502, 304.0999
372.2323, 272.6187
372.7144, 168.5852
373.1965, 84.97949
373.6786, 79.88721
374.1608, 107.7285
374.6429, 119.0942
375.1250, 98.81787
375.6071, 74.80200
376.0892, 65.08936
376.5714, 70.74561
377.0535, 107.6506
377.5356, 201.2671
378.0177, 290.2368
378.4998, 273.3950
378.9819, 148.1321
379.4641, 49.18408
379.9462, 0.4482420
380.4283, 4.347900
380.9104, 54.66016
381.3925, 168.2202
381.8746, 259.4600
382.3568, 267.0156
382.8389, 194.4419
383.3210, 123.8020
383.8031, 33.54517
384.2852, 31.45728
384.7673, 44.12915
385.2495, 28.26025
385.7316, 26.75317
386.2137, 56.92041
386.6958, 83.28442
387.1779, 23.70850
387.6600, 189.3374
388.1422, 325.7349
388.6243, 326.2883
389.1064, 290.3950
389.5885, 271.3938
390.0706, 271.8794
390.5527, 265.4067
391.0349, 216.4834
391.5170, 234.4890
391.9991, 149.8396
392.4812, 194.1301
392.9633, 205.7224
393.4454, 86.67773
393.9276, 136.3208
394.4097, 118.3591
394.8918, 97.62207
395.3739, 171.0083
395.8560, 70.95996
396.3381, 142.8489
396.8203, 146.1055
397.3024, 180.7947
397.7845, 160.1790
398.2666, 184.3955
398.7487, 220.7834
399.2308, 219.8955
399.7130, 141.1138
400.1951, 42.58716
400.6772, 27.52539
401.1593, 63.36157
401.6414, 76.42554
402.1235, 75.97607
402.6057, 61.90869
403.0878, 29.58325
403.5699, 46.02905
404.0520, 114.6218
404.5341, 179.8938
405.0162, 225.0950
405.4984, 225.0911
405.9805, 169.5286
406.4626, 92.34180
406.9447, 51.52222
407.4268, 56.47510
407.9089, 51.03809
408.3911, 15.20776
408.8732, 53.94287
409.3553, 21.58008
409.8374, 186.7246
410.3195, 319.2371
410.8016, 331.9849
411.2838, 272.4976
411.7659, 226.5361
412.2480, 194.9336
412.7301, 192.8230
413.2122, 245.4392
413.6943, 332.5239
414.1765, 386.3533
414.6586, 399.0344
415.1407, 388.7458
415.6228, 331.8647
416.1049, 264.1057
416.5870, 262.3154
417.0692, 347.7871
417.5513, 452.1453
418.0334, 480.9006
418.5155, 409.9767
418.9976, 348.8129
419.4797, 256.3853
419.9619, 209.6305
420.4440, 294.8337
420.9261, 458.6780
421.4082, 565.7893
421.8903, 518.2427
422.3724, 374.4081
422.8546, 336.2983
423.3367, 454.4637
423.8188, 560.5530
424.3009, 596.3589
424.7830, 612.0588
425.2651, 648.3691
425.7473, 712.2478
426.2294, 781.6396
426.7115, 846.6418
427.1936, 904.0615
427.6757, 943.7922
428.1578, 964.7257
428.6400, 966.7229
429.1221, 934.7974
429.6042, 877.9775
430.0863, 857.7258
430.5684, 912.3337
431.0505, 975.5083
431.5327, 1026.380
432.0148, 1055.709
432.4969, 1026.975
432.9790, 921.6378
433.4611, 783.0728
433.9432, 697.8259
434.4254, 691.9768
434.9075, 693.6774
435.3896, 719.7361
435.8717, 738.5991
436.3538, 730.8513
436.8359, 697.2285
437.3181, 647.9243
437.8002, 585.3364
438.2823, 514.7584
438.7644, 454.2767
439.2465, 393.6555
439.7286, 366.2639
440.2108, 397.9773
440.6929, 463.1123
441.1750, 550.0618
441.6571, 666.6218
442.1392, 752.0015
442.6213, 750.5457
443.1035, 689.6306
443.5856, 631.1190
444.0677, 585.2638
444.5498, 557.1096
445.0319, 560.2178
445.5140, 594.6179
445.9962, 601.3622
446.4783, 567.3654
446.9604, 519.4670
447.4425, 454.2205
447.9246, 386.8892
448.4067, 345.9038
448.8889, 344.4448
449.3710, 367.3357
449.8531, 385.6296
450.3352, 402.9431
450.8173, 407.9961
451.2994, 401.1392
451.7816, 380.9502
452.2637, 336.4554
452.7458, 276.8691
453.2279, 222.2634
453.7100, 182.4543
454.1921, 163.2994
454.6743, 197.0405
455.1564, 300.0352
455.6385, 359.8787
456.1206, 294.5619
456.6027, 175.8297
457.0848, 125.0957
457.5670, 164.7375
458.0491, 213.3680
458.5312, 256.2334
459.0133, 277.0114
459.4954, 239.7070
459.9775, 143.0985
460.4597, 42.65747
460.9418, 13.07324
461.4239, 20.46191
461.9060, 12.59558
462.3881, 21.43945
462.8702, 50.02893
463.3524, 55.34314
463.8345, 57.54785
464.3166, 87.74048
464.7987, 156.4506
465.2808, 217.9773
465.7629, 186.7373
466.2451, 45.88220
466.7272, 34.49072
467.2093, 2.507202
467.6914, 58.14722
468.1735, 95.85022
468.6556, 118.7412
469.1378, 150.5355
469.6199, 215.8190
470.1020, 278.3865
470.5841, 302.5095
471.0662, 292.9536
471.5483, 269.7926
472.0305, 240.1938
472.5126, 201.1396
472.9947, 143.8533
473.4768, 46.39563
473.9589, 14.00110
474.4410, 30.93787
474.9232, 16.21399
475.4053, 46.26135
475.8874, 135.9521
476.3695, 199.2251
476.8516, 196.9417
477.3337, 152.8511
477.8159, 147.2971
478.2980, 198.5475
478.7801, 242.9355
479.2622, 275.8612
479.7443, 289.7616
480.2264, 267.8759
480.7086, 211.0811
481.1907, 162.0963
481.6728, 156.6438
482.1549, 172.9142
482.6370, 171.6322
483.1191, 150.1497
483.6013, 118.5305
484.0834, 72.54895
484.5655, 24.32129
485.0476, 26.57043
485.5297, 144.4847
486.0118, 216.1407
486.4940, 182.6141
486.9761, 105.2566
487.4582, 27.46533
487.9403, 33.25269
488.4224, 51.46594
488.9045, 7.090088
489.3867, 139.3969
489.8688, 252.2601
490.3509, 366.0166
490.8330, 425.1210
491.3151, 387.3987
491.7972, 302.9192
492.2794, 224.4292
492.7615, 163.0654
493.2436, 120.1244
493.7257, 108.8618
494.2078, 117.5299
494.6899, 106.4399
495.1721, 65.95190
495.6542, 27.88513
496.1363, 15.58789
496.6184, 30.31409
497.1005, 67.26160
497.5826, 177.1416
498.0648, 249.9283
498.5469, 221.9377
499.0290, 144.1381
499.5111, 89.14539
499.9932, 78.25940
500.4753, 78.85364
500.9575, 39.21228
501.4396, 53.10767
501.9217, 90.30054
502.4038, 49.94092
502.8859, 19.51453
503.3680, 127.0042
503.8502, 240.4331
504.3323, 301.9596
504.8144, 279.1279
505.2965, 231.8130
505.7786, 222.1581
506.2607, 234.2465
506.7429, 200.3271
507.2250, 94.73633
507.7071, 7.801758
508.1892, 18.59033
508.6713, 78.67700
509.1534, 119.8781
509.6356, 21.24658
510.1177, 39.99634
510.5998, 43.37671
511.0819, 200.6348
511.5641, 330.1411
512.0461, 391.9170
512.5283, 388.2350
513.0104, 290.8710
513.4925, 78.91382
513.9746, 30.53735
514.4567, 44.48401
514.9388, 134.7754
515.4210, 131.9941
515.9031, 70.66736
516.3852, 30.97668
516.8673, 54.50977
517.3494, 81.29248
517.8315, 57.42737
518.3137, 1.186279
518.7958, 61.13843
519.2779, 112.6265
519.7600, 136.5682
520.2421, 100.3162
520.7242, 15.82532
521.2064, 69.00806
521.6885, 10.20544
522.1706, 48.25903
522.6527, 86.02014
523.1348, 91.79419
523.6169, 39.78992
524.0991, 81.20630
524.5812, 206.5914
525.0633, 250.6052
525.5454, 215.7543
526.0275, 205.2739
526.5096, 239.3025
526.9918, 282.3790
527.4739, 307.8054
527.9560, 320.6201
528.4381, 334.4137
528.9202, 386.2294
529.4023, 402.3373
529.8845, 287.7532
530.3666, 125.1514
530.8487, 79.29138
531.3308, 190.2949
531.8129, 332.9697
532.2950, 359.2197
532.7772, 253.9562
533.2593, 197.0002
533.7414, 214.7061
534.2235, 246.3751
534.7056, 292.9414
535.1877, 336.8538
535.6699, 353.7242
536.1520, 334.7263
536.6341, 305.9150
537.1162, 282.5464
537.5983, 268.3035
538.0804, 274.4847
538.5626, 301.6620
539.0447, 359.0803
539.5268, 475.9640
540.0089, 634.7676
540.4910, 699.3286
540.9731, 585.1713
541.4553, 494.2058
541.9374, 484.2375
542.4195, 514.1633
542.9016, 541.6196
543.3837, 558.4775
543.8658, 580.7397
544.3480, 626.1606
544.8301, 691.5073
545.3122, 750.4858
545.7943, 805.1985
546.2764, 839.6764
546.7585, 835.7662
547.2407, 817.3398
547.7228, 813.3502
548.2049, 827.2765
548.6870, 848.8549
549.1691, 883.4983
549.6512, 917.6219
550.1334, 942.0194
550.6155, 952.0946
551.0976, 928.7651
551.5797, 857.0613
552.0618, 748.6648
552.5439, 640.8684
553.0261, 510.0247
553.5082, 422.5151
553.9903, 394.0228
554.4724, 394.6285
554.9545, 427.7019
555.4366, 476.7654
555.9188, 490.4468
556.4009, 414.2573
556.8830, 306.8877
557.3651, 272.3572
557.8472, 304.6912
558.3293, 315.4994
558.8115, 266.7061
559.2936, 198.0121
559.7757, 166.3955
560.2578, 180.4332
560.7399, 231.1741
561.2220, 385.4939
561.7042, 503.5808
562.1863, 471.4426
562.6684, 362.4180
563.1505, 321.7961
563.6326, 411.6306
564.1147, 538.8000
564.5969, 549.0232
565.0790, 437.0483
565.5611, 395.6694
566.0432, 470.9651
566.5253, 565.1128
567.0074, 633.9121
567.4896, 670.3118
567.9717, 646.6082
568.4538, 522.0509
568.9359, 398.4824
569.4180, 307.5149
569.9001, 254.3064
570.3823, 266.0331
570.8644, 337.5439
571.3465, 396.2253
571.8286, 363.9644
572.3107, 257.6941
572.7928, 246.7461
573.2750, 412.2515
573.7571, 529.0292
574.2392, 514.5842
574.7213, 452.3152
575.2034, 398.1460
575.6855, 360.6583
576.1677, 359.8845
576.6498, 440.8672
577.1319, 541.5120
577.6140, 580.9878
578.0961, 565.5063
578.5782, 530.1605
579.0604, 481.4371
579.5425, 432.1879
580.0246, 405.7607
580.5067, 396.6041
580.9888, 424.5906
581.4709, 546.3157
581.9531, 648.3591
582.4352, 660.5706
582.9173, 615.0659
583.3994, 573.9907
583.8815, 557.9089
584.3636, 578.1682
584.8458, 680.8693
585.3279, 841.0288
585.8100, 928.5154
586.2921, 913.2493
586.7742, 863.5325
587.2563, 829.7590
587.7385, 814.4807
588.2206, 840.0684
588.7027, 956.8965
589.1848, 1045.985
589.6669, 1073.885
590.1490, 1066.991
590.6312, 1034.824
591.1133, 989.5381
591.5954, 968.4495
592.0775, 1009.807
592.5597, 1096.445
593.0418, 1177.758
593.5239, 1256.746
594.0060, 1307.911
594.4882, 1312.181
594.9703, 1294.183
595.4524, 1278.763
595.9345, 1251.585
596.4166, 1286.242
596.8987, 1434.674
597.3809, 1611.579
597.8630, 1778.927
598.3451, 1931.005
598.8272, 2067.539
599.3093, 2187.801
599.7914, 2284.506
600.2736, 2329.845
600.7557, 2318.314
601.2378, 2371.861
601.7199, 2520.091
602.2020, 2688.228
602.6841, 2843.086
603.1663, 2985.505
603.6484, 3120.550
604.1305, 3267.233
604.6126, 3365.455
605.0947, 3363.338
605.5768, 3317.537
606.0590, 3293.191
606.5411, 3292.347
607.0232, 3280.360
607.5053, 3234.201
607.9874, 3157.048
608.4695, 3055.903
608.9517, 2924.423
609.4338, 2789.538
609.9159, 2660.271
610.3980, 2523.507
610.8801, 2373.819
611.3622, 2210.838
611.8444, 2034.082
612.3265, 1801.611
612.8086, 1593.397
613.2907, 1486.928
613.7728, 1435.446
614.2549, 1346.566
614.7371, 1198.629
615.2192, 1039.823
615.7013, 916.8274
616.1834, 830.0515
616.6655, 774.7292
617.1476, 766.7728
617.6298, 751.4211
618.1119, 698.9524
618.5940, 649.5616
619.0761, 637.2720
619.5582, 655.8971
620.0403, 669.4475
620.5225, 676.6011
621.0046, 663.5421
621.4867, 593.3513
621.9688, 480.4911
622.4509, 386.6439
622.9330, 337.4999
623.4152, 317.1372
623.8973, 304.7010
624.3794, 308.7292
624.8615, 303.5535
625.3436, 240.7258
625.8257, 215.5769
626.3079, 313.5042
626.7900, 456.0173
627.2721, 522.1812
627.7542, 475.6493
628.2363, 407.2003
628.7184, 352.8893
629.2006, 312.8254
629.6827, 292.0621
630.1648, 287.0435
630.6469, 282.9418
631.1290, 272.5844
631.6111, 252.2212
632.0933, 204.6261
632.5754, 99.63525
633.0575, 53.55359
633.5396, 114.4766
634.0217, 189.4738
634.5038, 249.2620
634.9860, 289.8884
635.4681, 303.7413
635.9502, 282.6195
636.4323, 248.8605
636.9144, 218.2954
637.3965, 189.5674
637.8787, 136.7911
638.3608, 60.91394
638.8429, 25.37476
639.3250, 81.48804
639.8071, 196.6943
640.2892, 243.9396
640.7714, 181.3206
641.2535, 155.8900
641.7356, 258.4056
642.2177, 333.4271
642.6998, 246.4545
643.1819, 54.65710
643.6641, 58.06726
644.1462, 9.784668
644.6283, 87.22510
645.1104, 184.8877
645.5925, 270.8373
646.0746, 323.2598
646.5568, 337.4561
647.0389, 315.5950
647.5210, 251.4784
648.0031, 159.9817
648.4852, 113.0276
648.9673, 126.0875
649.4495, 151.3208
649.9316, 181.3514
650.4137, 213.5691
650.8958, 272.5946
651.3779, 344.6221
651.8600, 344.8770
652.3422, 146.3513
652.8243, 20.85254
653.3064, 33.78613
653.7885, 204.2039
654.2706, 308.5948
654.7527, 304.7130
655.2349, 245.7670
655.7170, 169.2578
656.1991, 83.83545
656.6812, 45.21399
657.1633, 61.67786
657.6454, 102.6852
658.1276, 194.5051
658.6097, 285.5226
659.0918, 306.9329
659.5739, 261.7863
660.0560, 238.5997
660.5381, 308.5695
661.0203, 361.2610
661.5024, 302.1853
661.9845, 198.5863
662.4666, 166.1768
662.9487, 225.1266
663.4308, 291.8037
663.9130, 275.1420
664.3951, 198.8508
664.8772, 191.5658
665.3593, 271.0217
665.8414, 327.5698
666.3235, 319.7920
666.8057, 281.3207
667.2878, 253.1388
667.7699, 238.9653
668.2520, 208.9952
668.7341, 120.8248
669.2162, 60.67017
669.6984, 94.92896
670.1805, 166.3567
670.6626, 197.1659
671.1447, 172.3683
671.6268, 136.5273
672.1089, 136.5796
672.5911, 154.6962
673.0732, 126.1012
673.5553, 49.19641
674.0374, 5.060181
674.5195, 33.02759
675.0016, 78.37500
675.4838, 61.30420
675.9659, 36.36401
676.4480, 64.67664
676.9301, 60.82849
677.4122, 148.6792
677.8943, 100.5834
678.3765, 9.493896
678.8586, 16.15198
679.3407, 38.08777
679.8228, 100.5996
680.3049, 137.2164
680.7870, 140.7570
681.2692, 69.72595
681.7513, 56.27087
682.2334, 115.2496
682.7155, 60.62317
683.1976, 26.77063
683.6797, 41.73376
684.1619, 23.72815
684.6440, 24.64661
685.1261, 115.5073
685.6082, 211.8693
686.0903, 196.8816
686.5724, 141.6111
687.0546, 103.1196
687.5367, 88.31934
688.0188, 90.87769
688.5009, 125.2894
688.9830, 160.8354
689.4651, 164.5367
689.9473, 148.1157
690.4294, 141.9790
690.9115, 153.7478
691.3936, 162.7903
691.8757, 144.5585
692.3578, 103.1877
692.8400, 81.66980
693.3221, 92.67383
693.8042, 83.41858
694.2863, 9.208496
694.7684, 62.66699
695.2505, 51.50537
695.7327, 36.23242
696.2148, 104.5598
696.6969, 133.3494
697.1790, 145.2294
697.6611, 137.5983
698.1432, 125.4102
698.6254, 138.5950
699.1075, 173.9252
699.5896, 182.9695
700.0717, 112.9664
700.5538, 3.817505
701.0359, 42.86023
701.5181, 30.77222
702.0002, 19.95984
702.4823, 29.30347
702.9644, 41.43542
703.4465, 40.14038
703.9286, 25.65796
704.4108, 4.654663
704.8929, 60.07874
705.3750, 81.37183
705.8571, 0.4294430
706.3392, 91.87537
706.8214, 110.3917
707.3035, 66.17847
707.7856, 33.03088
708.2677, 62.49695
708.7498, 91.81995
709.2319, 33.55981
709.7141, 67.58484
710.1962, 97.60034
710.6783, 38.63074
711.1604, 18.79419
711.6425, 9.115356
712.1246, 49.43213
712.6068, 92.43213
713.0889, 117.6780
713.5710, 135.1473
714.0531, 164.2776
714.5352, 162.6134
715.0173, 69.52563
715.4995, 72.40320
715.9816, 150.8336
716.4637, 135.5123
716.9458, 83.43201
717.4279, 36.06116
717.9100, 145.7695
718.3922, 145.7686
718.8743, 66.78809
719.3564, 26.43921
719.8385, 91.00977
720.3206, 181.5627
720.8027, 170.3485
721.2849, 74.37000
721.7670, 12.84741
722.2491, 1.023193
722.7312, 13.59509
723.2133, 69.86475
723.6954, 138.1396
724.1776, 144.3901
724.6597, 53.66919
725.1418, 20.46643
725.6239, 80.07837
726.1060, 122.2557
726.5881, 130.3507
727.0703, 125.5013
727.5524, 151.3536
728.0345, 221.4425
728.5166, 261.6431
728.9987, 183.3665
729.4808, 80.51538
729.9630, 77.43262
730.4451, 151.7719
730.9272, 208.0289
731.4093, 209.5803
731.8914, 210.9460
732.3735, 300.0098
732.8557, 470.5795
733.3378, 566.6366
733.8199, 563.2966
734.3020, 551.5264
734.7841, 559.3357
735.2662, 585.6038
735.7484, 638.6030
736.2305, 717.0685
736.7126, 789.0857
737.1947, 897.4062
737.6768, 954.1737
738.1589, 862.0886
738.6411, 744.1770
739.1232, 742.4042
739.6053, 854.0464
740.0874, 968.1531
740.5695, 1030.018
741.0516, 1054.055
741.5338, 1025.801
742.0159, 964.2800
742.4980, 961.4568
742.9801, 1039.133
743.4622, 1118.811
743.9443, 1142.973
744.4265, 1116.204
744.9086, 1049.467
745.3907, 912.8135
745.8728, 827.4602
746.3549, 822.7339
746.8370, 854.0713
747.3192, 925.7217
747.8013, 1008.019
748.2834, 1021.224
748.7655, 911.8491
749.2476, 828.6768
749.7297, 850.1833
750.2119, 884.2434
750.6940, 832.8474
751.1761, 737.0718
751.6582, 716.8943
752.1403, 823.3989
752.6224, 929.0046
753.1046, 866.3252
753.5867, 709.1458
754.0688, 666.7478
754.5509, 740.0767
755.0330, 777.7371
755.5151, 708.8091
755.9973, 595.8633
756.4794, 537.4224
756.9615, 542.7043
757.4436, 523.0774
757.9257, 459.3171
758.4078, 399.1829
758.8900, 354.2625
759.3721, 325.8193
759.8542, 320.8318
760.3363, 336.4443
760.8184, 331.5537
761.3005, 283.6023
761.7827, 229.8665
762.2648, 170.0464
762.7469, 127.5010
763.2290, 143.1094
763.7111, 205.6211
764.1932, 244.5964
764.6754, 218.2412
765.1575, 153.8357
765.6396, 62.32544
766.1217, 43.23047
766.6038, 70.75806
767.0859, 3.096191
767.5681, 87.08496
768.0502, 111.9229
768.5323, 97.86597
769.0144, 106.7473
769.4965, 152.6558
769.9786, 194.6548
770.4608, 207.4963
770.9429, 242.7859
771.4250, 351.9673
771.9071, 490.4785
772.3892, 579.7920
772.8713, 594.7061
773.3535, 631.2202
773.8356, 718.0559
774.3177, 840.5027
774.7998, 1010.050
775.2819, 1201.048
775.7640, 1358.061
776.2462, 1471.698
776.7283, 1590.805
777.2104, 1752.445
777.6925, 1950.298
778.1746, 2190.219
778.6567, 2459.117
779.1389, 2700.405
779.6210, 2896.749
780.1031, 3064.511
780.5852, 3220.937
781.0673, 3360.874
781.5494, 3470.181
782.0316, 3561.544
782.5137, 3600.993
782.9958, 3555.209
783.4779, 3482.831
783.9600, 3442.086
784.4421, 3411.529
784.9243, 3317.562
785.4064, 3135.206
785.8885, 2928.583
786.3706, 2689.841
786.8527, 2447.606
787.3348, 2237.736
787.8170, 2033.616
788.2991, 1765.786
788.7812, 1402.976
789.2633, 1072.451
789.7454, 897.8486
790.2275, 801.8760
790.7097, 668.1619
791.1918, 507.2576
791.6739, 375.3643
792.1560, 292.1194
792.6381, 242.1494
793.1202, 215.6824
793.6024, 206.1206
794.0845, 163.0645
794.5666, 79.35425
795.0487, 6.248047
795.5308, 49.24487
796.0129, 77.38867
796.4951, 63.51318
796.9772, 11.37939
797.4593, 39.97412
797.9414, 98.24976
798.4235, 144.3118
798.9056, 163.0815
799.3878, 182.3879
799.8699, 227.7053
800.3520, 285.2664
800.8341, 316.2820
801.3162, 293.6382
801.7983, 304.9607
802.2805, 444.5073
802.7626, 599.2073
803.2447, 640.4133
803.7268, 608.6912
804.2089, 618.9854
804.6910, 709.2751
805.1732, 814.9580
805.6553, 876.4626
806.1374, 899.5940
806.6195, 886.1211
807.1016, 841.3269
807.5837, 815.6421
808.0659, 822.6145
808.5480, 864.3425
809.0301, 951.6665
809.5122, 1073.167
809.9943, 1138.533
810.4764, 1114.337
810.9586, 1132.198
811.4407, 1235.079
811.9228, 1351.202
812.4049, 1417.393
812.8870, 1460.406
813.3691, 1559.145
813.8513, 1752.011
814.3334, 1921.812
814.8155, 2017.081
815.2976, 2119.961
815.7797, 2271.957
816.2618, 2465.554
816.7440, 2680.702
817.2261, 2912.867
817.7082, 3184.677
818.1903, 3502.728
818.6724, 3875.241
819.1545, 4331.943
819.6367, 4847.816
820.1188, 5358.055
820.6009, 5854.947
821.0830, 6388.019
821.5651, 6991.531
822.0472, 7671.120
822.5294, 8483.849
823.0115, 9412.302
823.4936, 10262.48
823.9757, 10995.07
824.4578, 11749.16
824.9399, 12627.63
825.4221, 13572.66
825.9042, 14446.19
826.3863, 15227.95
826.8684, 16005.62
827.3505, 16863.27
827.8326, 17584.40
828.3148, 18048.51
828.7969, 18346.88
829.2790, 18632.81
829.7611, 18925.15
830.2432, 18977.43
830.7253, 18662.60
831.2075, 18221.44
831.6896, 17707.92
832.1717, 17132.03
832.6538, 16451.89
833.1359, 15701.51
833.6180, 15015.34
834.1002, 14456.27
834.5823, 13973.58
835.0644, 13512.69
835.5465, 13106.53
836.0286, 12800.57
836.5107, 12597.77
836.9929, 12492.13
837.4750, 12480.10
837.9571, 12528.77
838.4392, 12597.25
838.9213, 12692.43
839.4034, 12842.09
839.8856, 13044.80
840.3677, 13308.18
840.8498, 13649.79
841.3319, 13940.87
841.8140, 14031.22
842.2961, 13943.65
842.7783, 13893.62
843.2604, 13924.66
843.7425, 13856.33
844.2246, 13670.00
844.7067, 13365.46
845.1888, 12901.53
845.6710, 12321.67
846.1531, 11767.70
846.6352, 11240.73
847.1173, 10726.05
847.5994, 10209.23
848.0815, 9726.740
848.5637, 9268.104
849.0458, 8865.893
849.5279, 8569.673
850.0100, 8385.312
850.4921, 8247.895
850.9742, 8114.221
851.4564, 8037.786
851.9385, 8074.424
852.4206, 8175.123
852.9027, 8263.105
853.3848, 8344.722
853.8669, 8496.176
854.3491, 8764.131
854.8312, 9106.247
855.3133, 9491.649
855.7954, 9905.608
856.2775, 10333.17
856.7596, 10760.02
857.2418, 11130.43
857.7239, 11421.36
858.2060, 11643.24
858.6881, 11825.23
859.1702, 11954.07
859.6523, 11930.80
860.1345, 11750.81
860.6166, 11485.43
861.0987, 11155.96
861.5808, 10737.95
862.0629, 10195.86
862.5450, 9551.066
863.0272, 8916.360
863.5093, 8279.188
863.9914, 7691.116
864.4735, 7163.254
864.9556, 6666.821
865.4377, 6184.525
865.9199, 5724.735
866.4020, 5298.023
866.8841, 4903.751
867.3662, 4542.954
867.8483, 4239.343
868.3304, 3940.354
868.8126, 3605.029
869.2947, 3279.901
869.7768, 3019.824
870.2589, 2822.408
870.7410, 2645.487
871.2231, 2482.717
871.7053, 2323.409
872.1874, 2135.031
872.6695, 1967.677
873.1516, 1896.792
873.6337, 1888.953
874.1158, 1851.103
874.5980, 1747.406
875.0801, 1616.200
875.5622, 1475.670
876.0443, 1339.066
876.5264, 1228.427
877.0085, 1138.583
877.4907, 1049.542
877.9728, 957.4509
878.4549, 878.6558
878.9370, 830.6699
879.4191, 781.2839
879.9012, 770.9119
880.3834, 733.7585
880.8655, 720.0444
881.3476, 735.4624
881.8297, 709.2488
882.3118, 598.0024
882.7939, 445.4097
883.2761, 325.5132
883.7582, 236.8259
884.2403, 186.9893
884.7224, 192.3386
885.2045, 185.8530
885.6866, 142.2700
886.1688, 89.02002
886.6509, 38.99780
887.1330, 0.9548340
887.6151, 36.36499
888.0972, 279.9009
888.5793, 386.0356
889.0615, 200.4099
889.5436, 7.104492
890.0257, 70.94128
890.5078, 66.20081
890.9899, 18.16553
891.4720, 85.14673
891.9542, 137.6775
892.4363, 94.90820
892.9184, 29.02417
893.4005, 62.20374
893.8826, 140.1824
894.3647, 155.5073
894.8469, 118.5703
895.3290, 89.95605
895.8111, 97.62903
896.2932, 105.7382
896.7753, 85.04468
897.2574, 62.16736
897.7396, 66.38904
898.2217, 89.30090
898.7038, 113.4846
899.1859, 132.2609
899.6680, 133.6002
900.1501, 91.60693
900.6323, 39.29749
901.1144, 15.91833
901.5965, 17.11365
902.0786, 43.35205
902.5607, 87.32373
903.0428, 117.8857
903.5250, 117.4459
904.0071, 84.92114
904.4892, 9.698242
904.9713, 136.7178
905.4534, 168.8325
905.9355, 110.5071
906.4177, 82.25024
906.8998, 129.3293
907.3819, 216.3436
907.8640, 313.1429
908.3461, 409.3317
908.8282, 440.3202
909.3104, 401.2008
909.7925, 392.2017
910.2746, 439.0616
910.7567, 464.8412
911.2388, 412.2065
911.7209, 320.5835
912.2031, 284.3350
912.6852, 321.1946
913.1673, 303.2781
913.6494, 191.2900
914.1315, 126.3159
914.6136, 176.4550
915.0958, 257.7904
915.5779, 282.6504
916.0600, 257.9883
916.5421, 257.2740
917.0242, 326.7881
917.5063, 341.2333
917.9885, 228.9153
918.4706, 131.8247
918.9527, 129.3403
919.4348, 178.1223
919.9169, 215.3402
920.3990, 240.0795
920.8812, 241.2323
921.3633, 171.0425
921.8455, 136.9095
922.3276, 195.2343
922.8097, 284.1300
923.2918, 365.4391
923.7739, 429.4421
924.2560, 460.9102
924.7382, 445.2388
925.2203, 425.7622
925.7024, 394.2325
926.1845, 389.1552
926.6666, 454.0969
927.1487, 554.0857
927.6309, 659.8262
928.1130, 754.4281
928.5951, 774.2065
929.0772, 609.5549
929.5593, 459.0167
930.0414, 506.5396
930.5236, 613.9016
931.0057, 607.1385
931.4878, 510.7737
931.9699, 451.9688
932.4520, 479.8715
932.9341, 490.3127
933.4163, 341.9293
933.8984, 168.4121
934.3805, 173.2906
934.8626, 275.2017
935.3447, 283.0057
935.8268, 176.5541
936.3090, 71.69690
936.7911, 36.68921
937.2732, 52.83472
937.7553, 130.6505
938.2374, 227.5323
938.7195, 226.8246
939.2017, 144.8036
939.6838, 75.94385
940.1659, 53.15454
940.6480, 67.45471
941.1301, 122.9757
941.6122, 193.8772
942.0944, 210.3551
942.5765, 181.3948
943.0586, 158.4224
943.5407, 150.0267
944.0228, 153.3470
944.5049, 171.5889
944.9871, 184.7974
945.4692, 132.5084
945.9513, 35.56873
946.4334, 113.6198
946.9155, 374.0531
947.3976, 493.5549
947.8798, 381.0642
948.3619, 246.8979
948.8440, 250.6620
949.3261, 349.5950
949.8082, 433.4987
950.2903, 502.8909
950.7725, 545.4635
951.2546, 553.7692
951.7367, 542.4860
952.2188, 514.1150
952.7009, 493.5670
953.1830, 505.6570
953.6652, 545.1959
954.1473, 589.7389
954.6294, 640.9158
955.1115, 699.0627
955.5936, 762.5449
956.0757, 830.3994
956.5579, 894.5588
957.0400, 979.8138
957.5221, 1136.767
958.0042, 1377.768
958.4863, 1561.569
958.9684, 1656.942
959.4506, 1755.416
959.9327, 1856.361
960.4148, 1986.622
960.8969, 2189.218
961.3790, 2429.388
961.8611, 2599.967
962.3433, 2651.519
962.8254, 2801.888
963.3075, 3143.267
963.7896, 3443.683
964.2717, 3632.383
964.7538, 3758.993
965.2360, 3864.941
965.7181, 3947.361
966.2002, 3988.299
966.6823, 4008.965
967.1644, 3952.752
967.6465, 3787.454
968.1287, 3581.047
968.6108, 3334.620
969.0929, 3078.692
969.5750, 2856.314
970.0571, 2667.611
970.5392, 2452.507
971.0214, 2141.339
971.5035, 1897.273
971.9856, 1790.449
972.4677, 1711.974
972.9498, 1604.503
973.4319, 1478.943
973.9141, 1352.518
974.3962, 1225.021
974.8783, 1128.434
975.3604, 1083.316
975.8425, 1041.337
976.3246, 992.5098
976.8068, 942.5925
977.2889, 897.5320
977.7710, 853.7458
978.2531, 801.9580
978.7352, 739.1273
979.2173, 674.7046
979.6995, 609.8790
980.1816, 545.4849
980.6637, 458.3142
981.1458, 393.0067
981.6279, 416.8209
982.1100, 499.7759
982.5922, 526.1974
983.0743, 435.1763
983.5564, 365.9878
984.0385, 412.7668
984.5206, 441.7985
985.0027, 339.0920
985.4849, 193.2010
985.9670, 109.6438
986.4491, 100.8021
986.9312, 143.4056
987.4133, 282.3942
987.8954, 384.6796
988.3776, 384.8837
988.8597, 336.7788
989.3418, 246.0461
989.8239, 150.0785
990.3060, 112.8629
990.7881, 135.4825
991.2703, 144.8383
991.7524, 88.34705
992.2345, 43.06213
992.7166, 42.77283
993.1987, 69.61548
993.6808, 124.7345
994.1630, 187.0103
994.6451, 231.9481
995.1272, 255.8658
995.6093, 243.3630
996.0914, 146.3975
996.5735, 56.10791
997.0557, 15.38843
997.5378, 6.728760
998.0199, 30.14795
998.5020, 69.90588
998.9841, 96.00061
999.4662, 100.8613
999.9484, 75.77393
1000.430, 37.93909
1000.913, 119.2919
1001.395, 68.55212
1001.877, 33.44055
1002.359, 117.4957
1002.841, 166.4069
1003.323, 151.3304
1003.805, 33.01294
1004.287, 21.66675
1004.770, 159.7153
1005.252, 319.5129
1005.734, 243.9476
1006.216, 78.78577
1006.698, 8.070679
1007.180, 2.031128
1007.662, 51.24927
1008.144, 169.9514
1008.626, 237.8394
1009.109, 135.7969
1009.591, 32.90979
1010.073, 67.81946
1010.555, 160.7061
1011.037, 209.5061
1011.519, 200.8695
1012.001, 157.4546
1012.483, 52.39990
1012.966, 14.60974
1013.448, 33.73511
1013.930, 99.36206
1014.412, 102.3778
1014.894, 83.75623
1015.376, 126.1954
1015.858, 226.6490
1016.340, 267.4298
1016.822, 138.6273
1017.305, 54.36426
1017.787, 166.9596
1018.269, 281.5610
1018.751, 214.9939
1019.233, 79.10815
1019.715, 82.40503
1020.197, 240.4286
1020.679, 322.0093
1021.161, 174.4202
1021.644, 48.65234
1022.126, 45.26587
1022.608, 75.19360
1023.090, 89.12170
1023.572, 87.41821
1024.054, 71.88940
1024.536, 43.49292
1025.018, 34.71606
1025.500, 72.69580
1025.983, 105.2301
1026.465, 117.7134
1026.947, 118.5636
1027.429, 103.3066
1027.911, 84.73193
1028.393, 87.04834
1028.875, 114.5237
1029.357, 134.1573
1029.840, 137.8882
1030.322, 136.0426
1030.804, 146.3402
1031.286, 136.6444
1031.768, 54.52917
1032.250, 51.01257
1032.732, 86.46899
1033.214, 36.19421
1033.697, 22.40869
1034.179, 100.9816
1034.661, 166.5583
1035.143, 239.5426
1035.625, 270.5829
1036.107, 190.3690
1036.589, 58.63831
1037.071, 1.848877
1037.553, 29.62671
1038.036, 41.34265
1038.518, 29.00708
1039.000, 37.02295
1039.482, 124.2191
1039.964, 264.7368
1040.446, 224.1243
1040.928, 332.9769
1041.410, 374.5818
1041.892, 335.7739
1042.375, 417.1392
1042.857, 296.9359
1043.339, 193.9735
1043.821, 156.9545
1044.303, 128.2579
1044.785, 55.26477
1045.267, 19.83264
1045.749, 2.479736
1046.232, 143.9417
1046.714, 175.8525
1047.196, 39.64417
1047.678, 36.15417
1048.160, 9.929932
1048.642, 79.54980
1049.124, 118.2845
1049.606, 127.8304
1050.089, 106.9126
1050.571, 53.83020
1051.053, 26.73425
1051.535, 27.43494
1052.017, 48.83020
1052.499, 97.14209
1052.981, 127.4927
1053.463, 104.8304
1053.945, 71.20740
1054.427, 115.9143
1054.910, 89.12231
1055.392, 77.09937
1055.874, 111.1982
1056.356, 61.27820
1056.838, 116.9474
1057.320, 161.1899
1057.802, 122.4857
1058.284, 53.92371
1058.767, 45.08850
1059.249, 16.40625
1059.731, 16.03516
1060.213, 37.38306
1060.695, 50.23279
1061.177, 125.9624
1061.659, 161.2463
1062.141, 97.74402
1062.624, 13.12793
1063.106, 4.895264
1063.588, 43.11914
1064.070, 46.37451
1064.552, 27.26611
1065.034, 39.65222
1065.516, 82.71436
1065.998, 106.9797
1066.480, 89.85181
1066.963, 60.38232
1067.445, 29.88782
1067.927, 20.81128
1068.409, 102.6360
1068.891, 214.5427
1069.373, 228.1052
1069.855, 156.6560
1070.337, 88.35779
1070.819, 56.46167
1071.302, 70.04004
1071.784, 180.2622
1072.266, 287.7535
1072.748, 294.7163
1073.230, 246.4363
1073.712, 179.4883
1074.194, 113.0946
1074.676, 73.42383
1075.159, 67.50720
1075.641, 74.40369
1076.123, 89.63599
1076.605, 105.9000
1077.087, 120.2295
1077.569, 133.0217
1078.051, 150.5002
1078.533, 164.3705
1079.016, 150.5262
1079.498, 106.8979
1079.980, 93.70227
1080.462, 156.7511
1080.944, 212.0624
1081.426, 254.9795
1081.908, 262.9113
1082.390, 177.7723
1082.872, 73.12720
1083.354, 66.46545
1083.837, 160.8092
1084.319, 228.3291
1084.801, 242.7555
1085.283, 259.6060
1085.765, 305.3077
1086.247, 320.8274
1086.729, 259.1935
1087.212, 178.6954
1087.694, 147.1658
1088.176, 157.5933
1088.658, 159.5342
1089.140, 159.4915
1089.622, 119.3004
1090.104, 2.867920
1090.586, 45.25293
1091.068, 80.07812
1091.551, 237.1879
1092.033, 299.0797
1092.515, 279.8076
1092.997, 210.0858
1093.479, 87.15430
1093.961, 14.92126
1094.443, 1.421753
1094.925, 21.89392
1095.407, 64.25342
1095.890, 58.54980
1096.372, 57.56433
1096.854, 210.8470
1097.336, 238.1058
1097.818, 173.7953
1098.300, 149.1635
1098.782, 154.4026
1099.264, 116.1055
1099.747, 30.78833
1100.229, 10.28552
1100.711, 48.65955
1101.193, 129.4467
1101.675, 125.0232
1102.157, 175.6602
1102.639, 122.8358
1103.121, 185.7917
1103.604, 191.2418
1104.086, 146.8649
1104.568, 131.1539
1105.050, 176.9604
1105.532, 197.4895
1106.014, 94.08533
1106.496, 9.006226
1106.978, 65.13049
1107.460, 176.8732
1107.943, 300.7716
1108.425, 390.2919
1108.907, 341.1434
1109.389, 133.7837
1109.871, 3.858887
1110.353, 87.59912
1110.835, 167.4695
1111.317, 192.8529
1111.799, 182.3860
1112.282, 101.2278
1112.764, 18.03259
1113.246, 59.93445
1113.728, 223.7847
1114.210, 279.3273
1114.692, 158.5601
1115.174, 60.73083
1115.656, 20.55811
1116.139, 50.08539
1116.621, 0.8220210
1117.103, 82.01404
1117.585, 158.5535
1118.067, 227.9713
1118.549, 294.2656
1119.031, 364.9290
1119.513, 352.3470
1119.995, 244.4285
1120.478, 159.3125
1120.960, 128.9332
1121.442, 129.4659
1121.924, 147.9218
1122.406, 163.7246
1122.888, 127.3342
1123.370, 58.49792
1123.852, 37.57520
1124.334, 55.69617
1124.817, 73.18994
1125.299, 85.49219
1125.781, 118.9261
1126.263, 186.9620
1126.745, 239.7823
1127.227, 200.5233
1127.709, 144.4996
1128.191, 175.7269
1128.674, 243.1404
1129.156, 280.7355
1129.638, 285.8842
1130.120, 262.0145
1130.602, 214.9625
1131.084, 202.1622
1131.566, 312.6925
1132.048, 378.7996
1132.531, 266.6537
1133.013, 141.9938
1133.495, 128.3737
1133.977, 170.2186
1134.459, 187.3802
1134.941, 175.9943
1135.423, 167.1049
1135.905, 150.2997
1136.387, 162.6951
1136.870, 242.6549
1137.352, 292.2397
1137.834, 268.0219
1138.316, 225.1484
1138.798, 208.9069
1139.280, 207.7646
1139.762, 190.5552
1140.244, 155.4781
1140.726, 114.3737
1141.209, 59.69702
1141.691, 86.69312
1142.173, 224.2021
1142.655, 302.5609
1143.137, 219.9343
1143.619, 88.13745
1144.101, 61.64038
1144.583, 103.0261
1145.066, 104.3196
1145.548, 81.50781
1146.030, 89.42200
1146.512, 127.0479
1146.994, 166.9429
1147.476, 198.9541
1147.958, 223.4913
1148.440, 240.9049
1148.922, 250.5211
1149.405, 240.7722
1149.887, 221.5153
1150.369, 201.5975
1150.851, 180.5231
1151.333, 153.1257
1151.815, 121.7045
1152.297, 102.6951
1152.779, 111.0483
1153.261, 94.35449
1153.744, 11.69678
1154.226, 70.43146
1154.708, 17.17834
1155.190, 122.3008
1155.672, 128.3682
1156.154, 170.6108
1156.636, 176.3411
1157.118, 137.1072
1157.601, 127.7260
1158.083, 23.79883
1158.565, 40.98291
1159.047, 77.41779
1159.529, 42.89746
1160.011, 105.1033
1160.493, 247.3217
1160.975, 240.5979
1161.458, 130.6176
1161.940, 38.76959
1162.422, 25.41779
1162.904, 24.54663
1163.386, 161.8479
1163.868, 217.1703
1164.350, 159.3340
1164.832, 121.2524
1165.314, 190.0409
1165.797, 272.3832
1166.279, 256.2932
1166.761, 216.2343
1167.243, 255.6390
1167.725, 312.0518
1168.207, 285.5370
1168.689, 196.0482
1169.171, 121.8094
1169.653, 81.49561
1170.136, 75.19940
1170.618, 153.9845
1171.100, 193.8212
1171.582, 96.44055
1172.064, 18.53619
1172.546, 82.21045
1173.028, 194.1697
1173.510, 248.0967
1173.993, 246.4515
1174.475, 205.2142
1174.957, 230.5983
1175.439, 240.3011
1175.921, 195.3003
1176.403, 248.6675
1176.885, 172.5238
1177.367, 90.96216
1177.849, 92.99432
1178.332, 53.81171
1178.814, 113.1185
1179.296, 66.56390
1179.778, 83.61877
1180.260, 139.2208
1180.742, 145.9983
1181.224, 109.0873
1181.706, 98.25732
1182.188, 135.8547
1182.671, 172.7467
1183.153, 178.6296
1183.635, 165.4802
1184.117, 111.9205
1184.599, 73.94366
1185.081, 138.6572
1185.563, 225.3276
1186.045, 198.9016
1186.528, 81.34827
1187.010, 35.77991
1187.492, 127.2360
1187.974, 171.6911
1188.456, 93.27106
1188.938, 74.20502
1189.420, 191.5300
1189.902, 299.2571
1190.385, 302.5538
1190.867, 261.7638
1191.349, 272.3239
1191.831, 321.7121
1192.313, 326.4363
1192.795, 287.7467
1193.277, 219.8071
1193.759, 129.6219
1194.241, 85.15399
1194.724, 103.5587
1195.206, 120.0186
1195.688, 82.43652
1196.170, 49.32001
1196.652, 114.3011
1197.134, 203.0580
1197.616, 232.5446
1198.098, 214.2172
1198.580, 130.7934
1199.063, 27.40363
1199.545, 29.93030
1200.027, 174.0221
1200.509, 289.9310
1200.991, 335.0999
1201.473, 330.9125
1201.955, 234.6924
1202.437, 148.6143
1202.920, 116.9211
1203.402, 123.5568
1203.884, 169.2574
1204.366, 231.3660
1204.848, 206.1183
1205.330, 234.0186
1205.812, 244.9751
1206.294, 194.4374
1206.776, 237.5391
1207.259, 150.9528
1207.741, 97.36768
1208.223, 165.4582
1208.705, 252.4478
1209.187, 228.4796
1209.669, 287.7168
1210.151, 212.6832
1210.633, 286.3295
1211.115, 246.6650
1211.598, 147.3652
1212.080, 120.3967
1212.562, 188.0319
1213.044, 269.4414
1213.526, 362.7512
1214.008, 394.1365
1214.490, 337.7340
1214.972, 234.3304
1215.455, 3.520142
1215.937, 167.6669
1216.419, 57.80219
1216.901, 156.0414
1217.383, 173.6158
1217.865, 15.71149
1218.347, 5.257446
1218.829, 126.2284
1219.312, 200.3171
1219.794, 200.4159
1220.276, 211.5917
1220.758, 263.7594
1221.240, 295.0699
1221.722, 258.3459
1222.204, 200.5271
1222.686, 182.1411
1223.168, 180.7086
1223.651, 160.7680
1224.133, 138.4973
1224.615, 141.3257
1225.097, 164.2627
1225.579, 184.7375
1226.061, 198.1417
1226.543, 232.3571
1227.025, 358.3170
1227.507, 408.0518
1227.990, 274.7562
1228.472, 164.8424
1228.954, 170.8237
1229.436, 196.4165
1229.918, 153.1344
1230.400, 87.82397
1230.882, 129.0854
1231.364, 60.06946
1231.847, 223.1803
1232.329, 25.60626
1232.811, 51.92767
1233.293, 13.77808
1233.775, 111.0678
1234.257, 194.8256
1234.739, 245.0093
1235.221, 240.6392
1235.703, 212.2339
1236.186, 180.0257
1236.668, 148.1826
1237.150, 112.8704
1237.632, 86.70898
1238.114, 88.76544
1238.596, 112.7240
1239.078, 143.1132
1239.560, 181.4169
1240.042, 191.3748
1240.525, 143.6042
1241.007, 123.9194
1241.489, 139.6182
1241.971, 193.5963
1242.453, 307.9159
1242.935, 375.5439
1243.417, 289.8950
1243.899, 136.7111
1244.382, 92.41589
1244.864, 131.3871
1245.346, 192.5322
1245.828, 253.4504
1246.310, 233.2070
1246.792, 151.4684
1247.274, 107.7248
1247.756, 129.9658
1248.239, 160.2488
1248.721, 171.7591
1249.203, 174.8222
1249.685, 136.5259
1250.167, 137.9094
1250.649, 193.6870
1251.131, 244.5295
1251.613, 212.1227
1252.095, 142.4232
1252.578, 133.0995
1253.060, 184.0792
1253.542, 231.3796
1254.024, 277.3580
1254.506, 274.5740
1254.988, 220.5995
1255.470, 209.5245
1255.952, 267.6700
1256.434, 299.1168
1256.917, 229.5833
1257.399, 141.3352
1257.881, 118.4856
1258.363, 135.2472
1258.845, 144.7538
1259.327, 149.1458
1259.809, 146.4528
1260.291, 145.1870
1260.774, 165.8533
1261.256, 209.6355
1261.738, 239.2758
1262.220, 238.5254
1262.702, 248.2941
1263.184, 280.9159
1263.666, 292.3661
1264.148, 269.9135
1264.630, 227.8287
1265.113, 172.2711
1265.595, 115.6477
1266.077, 70.85400
1266.559, 43.92871
1267.041, 60.32751
1267.523, 41.61169
1268.005, 93.06348
1268.487, 66.25732
1268.969, 80.27771
1269.452, 129.0154
1269.934, 117.4810
1270.416, 11.06030
1270.898, 76.97272
1271.380, 17.08069
1271.862, 133.0779
1272.344, 298.5132
1272.826, 381.0399
1273.309, 268.9464
1273.791, 125.0812
1274.273, 139.0366
1274.755, 246.0515
1275.237, 231.8580
1275.719, 115.5800
1276.201, 68.87292
1276.683, 77.91211
1277.166, 99.66687
1277.648, 205.5050
1278.130, 250.1693
1278.612, 202.6432
1279.094, 137.8531
1279.576, 81.52100
1280.058, 65.22095
1280.540, 165.7717
1281.022, 235.9104
1281.505, 151.7426
1281.987, 38.37488
1282.469, 0.0000000E+00
##END=



