##NAMES=Clinobisvanite
##RRUFFID=R070401
##IDEAL CHEMISTRY=BiVO_4_
##LOCALITY=Linka mine (Garnetite mine), Spencer Hot Springs District, Lander County, Nevada, USA
##OWNER=RRUFF
##SOURCE=Michael Scott
##DESCRIPTION=Orange platy crust on quartz associated with bismutite
##STATUS=The identification of this mineral has been confirmed by single-crystal X-ray diffraction.
##URL=rruff.info/R070401
160.5530, 0.0000000E+00
161.0351, 24.44141
161.5172, 3.095703
161.9993, 10.17969
162.4814, 8.843750
162.9636, 28.04102
163.4457, 0.4140630
163.9278, 108.1797
164.4099, 261.9512
164.8920, 402.0547
165.3741, 519.3613
165.8563, 638.4062
166.3384, 791.5215
166.8205, 955.1543
167.3026, 1085.398
167.7847, 1144.467
168.2668, 1164.605
168.7490, 1222.553
169.2311, 1338.855
169.7132, 1444.406
170.1953, 1501.523
170.6774, 1525.449
171.1595, 1536.068
171.6417, 1533.654
172.1238, 1527.871
172.6059, 1543.461
173.0880, 1587.139
173.5701, 1639.033
174.0522, 1686.857
174.5344, 1736.512
175.0165, 1797.543
175.4986, 1878.656
175.9807, 1971.521
176.4628, 2053.713
176.9449, 2119.516
177.4271, 2184.242
177.9092, 2244.959
178.3913, 2310.102
178.8734, 2393.439
179.3555, 2507.676
179.8376, 2639.783
180.3197, 2747.045
180.8019, 2798.736
181.2840, 2882.850
181.7661, 3037.141
182.2482, 3231.566
182.7303, 3430.480
183.2124, 3615.518
183.6946, 3793.701
184.1767, 3986.127
184.6588, 4193.912
185.1409, 4410.590
185.6230, 4633.973
186.1051, 4860.969
186.5873, 5090.096
187.0694, 5321.207
187.5515, 5552.604
188.0336, 5779.727
188.5157, 5975.504
188.9978, 6216.121
189.4800, 6529.932
189.9621, 6881.543
190.4442, 7240.873
190.9263, 7593.250
191.4084, 7940.762
191.8905, 8286.596
192.3727, 8626.406
192.8548, 8975.496
193.3369, 9320.506
193.8190, 9682.207
194.3011, 10088.26
194.7832, 10550.24
195.2654, 11042.89
195.7475, 11505.89
196.2296, 11920.16
196.7117, 12346.48
197.1938, 12788.45
197.6759, 13246.29
198.1581, 13721.34
198.6402, 14214.98
199.1223, 14718.28
199.6044, 15214.31
200.0865, 15698.06
200.5686, 16186.28
201.0508, 16683.45
201.5329, 17198.52
202.0150, 17741.51
202.4971, 18274.48
202.9792, 18767.26
203.4613, 19236.57
203.9435, 19660.94
204.4256, 20090.38
204.9077, 20522.44
205.3898, 20938.46
205.8719, 21366.71
206.3540, 21792.29
206.8362, 22176.46
207.3183, 22524.90
207.8004, 22828.18
208.2825, 23051.24
208.7646, 23207.14
209.2467, 23277.42
209.7289, 23250.82
210.2110, 23136.67
210.6931, 22947.19
211.1752, 22688.07
211.6573, 22356.46
212.1395, 21987.74
212.6216, 21611.55
213.1037, 21180.21
213.5858, 20663.99
214.0679, 20068.20
214.5500, 19418.17
215.0322, 18733.92
215.5143, 18013.51
215.9964, 17282.26
216.4785, 16553.77
216.9606, 15798.72
217.4427, 14972.58
217.9249, 14101.73
218.4070, 13254.43
218.8891, 12485.65
219.3712, 11798.12
219.8533, 11116.92
220.3354, 10428.61
220.8176, 9758.600
221.2997, 9112.137
221.7818, 8489.822
222.2639, 7888.311
222.7460, 7306.854
223.2281, 6743.770
223.7103, 6234.271
224.1924, 5810.992
224.6745, 5409.533
225.1566, 5014.844
225.6387, 4632.453
226.1208, 4271.928
226.6030, 3940.547
227.0851, 3634.938
227.5672, 3340.707
228.0493, 3043.096
228.5314, 2778.977
229.0135, 2557.908
229.4957, 2370.521
229.9778, 2212.271
230.4599, 2082.100
230.9420, 1966.973
231.4241, 1831.027
231.9062, 1650.977
232.3884, 1491.723
232.8705, 1360.330
233.3526, 1250.734
233.8347, 1160.592
234.3168, 1088.887
234.7989, 1025.582
235.2811, 952.1094
235.7632, 857.3867
236.2453, 778.9102
236.7274, 730.4805
237.2095, 688.9258
237.6916, 637.5098
238.1738, 573.6719
238.6559, 507.2266
239.1380, 448.9531
239.6201, 398.8340
240.1022, 356.9863
240.5843, 352.5430
241.0665, 332.5996
241.5486, 254.8945
242.0307, 128.0801
242.5128, 3.855469
242.9949, 74.71289
243.4770, 107.5703
243.9592, 93.27930
244.4413, 69.06055
244.9234, 181.9297
245.4055, 144.0000
245.8876, 7.984375
246.3697, 170.5137
246.8519, 270.8457
247.3340, 316.3965
247.8161, 369.5566
248.2982, 453.2793
248.7803, 512.1855
249.2624, 511.0918
249.7446, 478.0430
250.2267, 461.6895
250.7088, 496.5488
251.1909, 555.7520
251.6730, 553.1328
252.1551, 444.9258
252.6373, 364.2910
253.1194, 376.5352
253.6015, 425.9180
254.0836, 453.0664
254.5657, 435.0176
255.0478, 393.3984
255.5300, 363.7480
256.0121, 351.9473
256.4942, 329.6699
256.9763, 282.5137
257.4584, 225.1250
257.9406, 162.7676
258.4227, 96.08984
258.9048, 36.24414
259.3869, 0.2265630
259.8690, 11.92383
260.3511, 32.83789
260.8333, 84.22266
261.3154, 133.4375
261.7975, 146.7480
262.2796, 126.5488
262.7617, 120.7539
263.2438, 179.1426
263.7260, 288.0820
264.2081, 364.5645
264.6902, 384.4062
265.1723, 394.6641
265.6544, 435.5234
266.1365, 497.4512
266.6187, 547.8125
267.1008, 558.4551
267.5829, 549.6328
268.0650, 566.3867
268.5471, 615.7129
269.0292, 671.2168
269.5114, 723.5879
269.9935, 768.9277
270.4756, 797.2734
270.9577, 794.3477
271.4398, 782.9727
271.9219, 793.0000
272.4041, 825.3223
272.8862, 848.9043
273.3683, 842.7754
273.8504, 820.3730
274.3325, 808.5898
274.8146, 811.8887
275.2968, 819.9336
275.7789, 828.7910
276.2610, 837.4297
276.7431, 842.4512
277.2252, 844.3594
277.7073, 839.3691
278.1895, 818.0703
278.6716, 776.2070
279.1537, 741.3320
279.6358, 725.2266
280.1179, 722.2363
280.6000, 725.3633
281.0822, 734.2637
281.5643, 741.6660
282.0464, 736.5176
282.5285, 717.3555
283.0106, 704.8750
283.4927, 708.1035
283.9749, 714.7305
284.4570, 705.6289
284.9391, 682.0645
285.4212, 675.1523
285.9033, 715.3906
286.3854, 801.9590
286.8676, 866.0723
287.3497, 903.7949
287.8318, 925.3906
288.3139, 917.2520
288.7960, 895.1562
289.2781, 903.3066
289.7603, 971.0840
290.2424, 1079.467
290.7245, 1146.672
291.2066, 1127.100
291.6887, 1125.742
292.1708, 1158.975
292.6530, 1218.639
293.1351, 1298.018
293.6172, 1394.389
294.0993, 1501.295
294.5814, 1606.516
295.0635, 1705.189
295.5457, 1812.680
296.0278, 1925.549
296.5099, 2048.176
296.9920, 2191.979
297.4741, 2353.244
297.9562, 2506.176
298.4384, 2618.109
298.9205, 2675.672
299.4026, 2788.744
299.8847, 2984.961
300.3668, 3199.146
300.8489, 3423.277
301.3310, 3653.504
301.8131, 3881.441
302.2953, 4106.342
302.7774, 4328.129
303.2595, 4575.762
303.7416, 4861.398
304.2237, 5138.523
304.7058, 5388.404
305.1880, 5637.875
305.6701, 5910.805
306.1522, 6214.289
306.6343, 6543.033
307.1164, 6890.717
307.5985, 7257.096
308.0807, 7646.504
308.5628, 8082.186
309.0449, 8518.420
309.5270, 8900.125
310.0091, 9241.639
310.4912, 9639.818
310.9734, 10206.72
311.4555, 10922.80
311.9376, 11585.04
312.4197, 12149.88
312.9018, 12706.37
313.3839, 13303.78
313.8661, 13935.68
314.3482, 14583.21
314.8303, 15235.78
315.3124, 15902.81
315.7945, 16607.07
316.2766, 17353.49
316.7588, 18102.86
317.2409, 18808.20
317.7230, 19503.19
318.2051, 20247.98
318.6872, 21067.10
319.1693, 21898.59
319.6515, 22692.79
320.1336, 23453.46
320.6157, 24218.57
321.0978, 25006.13
321.5799, 25786.36
322.0620, 26525.26
322.5442, 27223.77
323.0263, 27881.09
323.5084, 28528.39
323.9905, 29123.71
324.4726, 29615.40
324.9547, 29996.64
325.4369, 30283.39
325.9190, 30496.24
326.4011, 30628.33
326.8832, 30632.71
327.3653, 30485.84
327.8474, 30239.57
328.3296, 29918.69
328.8117, 29521.65
329.2938, 29040.37
329.7759, 28468.40
330.2580, 27806.88
330.7401, 27078.96
331.2223, 26230.83
331.7044, 25377.60
332.1865, 24533.54
332.6686, 23686.27
333.1507, 22813.65
333.6328, 21913.26
334.1150, 21009.45
334.5971, 20126.10
335.0792, 19246.79
335.5613, 18447.85
336.0434, 17751.25
336.5255, 17106.15
337.0077, 16493.44
337.4898, 15913.37
337.9719, 15372.72
338.4540, 14883.57
338.9361, 14442.00
339.4182, 14007.54
339.9004, 13544.79
340.3825, 13152.00
340.8646, 12870.17
341.3467, 12658.95
341.8288, 12466.22
342.3109, 12269.08
342.7931, 12095.12
343.2752, 11986.93
343.7573, 11948.53
344.2394, 11946.88
344.7215, 11974.91
345.2036, 12040.54
345.6858, 12154.20
346.1679, 12315.73
346.6500, 12498.15
347.1321, 12686.80
347.6142, 12883.05
348.0963, 13089.22
348.5785, 13302.21
349.0606, 13536.50
349.5427, 13796.54
350.0248, 14086.74
350.5069, 14427.65
350.9890, 14847.43
351.4712, 15301.61
351.9533, 15764.16
352.4354, 16233.96
352.9175, 16706.46
353.3996, 17179.09
353.8817, 17653.39
354.3639, 18135.51
354.8460, 18622.39
355.3281, 19116.93
355.8102, 19607.51
356.2923, 20110.98
356.7744, 20643.88
357.2566, 21211.36
357.7387, 21798.64
358.2208, 22395.38
358.7029, 23011.18
359.1850, 23589.44
359.6671, 24108.76
360.1493, 24616.50
360.6314, 25149.01
361.1135, 25686.21
361.5956, 26185.46
362.0777, 26624.79
362.5598, 27005.88
363.0420, 27337.75
363.5241, 27619.24
364.0062, 27845.18
364.4883, 28029.18
364.9704, 28156.78
365.4525, 28237.16
365.9347, 28263.22
366.4168, 28178.51
366.8989, 27904.90
367.3810, 27432.38
367.8631, 26913.25
368.3452, 26362.47
368.8274, 25744.29
369.3095, 25036.03
369.7916, 24249.93
370.2737, 23419.77
370.7558, 22554.94
371.2379, 21660.23
371.7201, 20746.77
372.2022, 19813.96
372.6843, 18863.25
373.1664, 17871.21
373.6485, 16883.86
374.1306, 15964.72
374.6128, 15122.45
375.0949, 14329.20
375.5770, 13576.52
376.0591, 12868.56
376.5412, 12224.93
377.0233, 11653.39
377.5055, 11113.28
377.9876, 10557.01
378.4697, 9983.699
378.9518, 9470.164
379.4339, 9052.305
379.9160, 8663.262
380.3982, 8270.578
380.8803, 7877.551
381.3624, 7507.238
381.8445, 7173.701
382.3266, 6864.250
382.8087, 6534.385
383.2909, 6154.814
383.7730, 5797.732
384.2551, 5453.469
384.7372, 5138.738
385.2193, 4878.227
385.7014, 4669.430
386.1836, 4472.799
386.6657, 4239.213
387.1478, 3965.016
387.6299, 3746.059
388.1120, 3623.098
388.5941, 3508.604
389.0763, 3379.789
389.5584, 3239.191
390.0405, 3091.535
390.5226, 2933.373
391.0047, 2780.121
391.4868, 2651.451
391.9690, 2548.691
392.4511, 2466.180
392.9332, 2420.311
393.4153, 2379.137
393.8974, 2311.697
394.3795, 2216.822
394.8617, 2120.889
395.3438, 2032.021
395.8259, 1951.859
396.3080, 1883.984
396.7901, 1829.344
397.2722, 1781.021
397.7544, 1738.031
398.2365, 1697.557
398.7186, 1645.123
399.2007, 1575.174
399.6828, 1500.863
400.1649, 1417.346
400.6471, 1335.281
401.1292, 1277.885
401.6113, 1252.457
402.0934, 1233.178
402.5755, 1178.164
403.0576, 1066.324
403.5398, 984.7969
404.0219, 976.1133
404.5040, 953.0293
404.9861, 850.9766
405.4682, 695.7012
405.9503, 557.0039
406.4325, 479.1426
406.9146, 449.9668
407.3967, 433.7305
407.8788, 450.2773
408.3609, 438.0605
408.8430, 356.2480
409.3252, 262.7363
409.8073, 206.7246
410.2894, 193.6387
410.7715, 185.2246
411.2536, 141.2656
411.7357, 71.40625
412.2179, 33.01172
412.7000, 43.84180
413.1821, 52.38281
413.6642, 7.882813
414.1463, 62.59863
414.6284, 103.2070
415.1106, 88.41211
415.5927, 61.48047
416.0748, 49.95508
416.5569, 51.65137
417.0390, 61.25098
417.5211, 77.04785
418.0033, 95.31836
418.4854, 112.3799
418.9675, 129.0049
419.4496, 145.1162
419.9317, 162.6221
420.4138, 177.6152
420.8960, 187.1064
421.3781, 191.8164
421.8602, 194.7998
422.3423, 198.5137
422.8244, 201.4775
423.3065, 196.6826
423.7887, 172.4121
424.2708, 159.4795
424.7529, 165.6885
425.2350, 181.4102
425.7171, 201.4990
426.1992, 223.2520
426.6814, 241.1309
427.1635, 248.9473
427.6456, 248.0400
428.1277, 249.9277
428.6098, 261.2588
429.0919, 261.7783
429.5741, 233.6035
430.0562, 190.2529
430.5383, 150.0889
431.0204, 115.7627
431.5025, 87.85645
431.9846, 68.71484
432.4668, 57.49902
432.9489, 51.81934
433.4310, 52.33398
433.9131, 53.58887
434.3952, 48.64941
434.8773, 37.26270
435.3595, 28.96777
435.8416, 28.76465
436.3237, 25.36426
436.8058, 9.161133
437.2879, 16.32520
437.7701, 39.28906
438.2522, 53.28320
438.7343, 62.11230
439.2164, 75.79492
439.6985, 103.8164
440.1806, 118.5107
440.6628, 105.1045
441.1449, 91.85645
441.6270, 98.32227
442.1091, 123.0146
442.5912, 151.8613
443.0733, 179.2061
443.5555, 201.6348
444.0376, 198.8594
444.5197, 155.0566
445.0018, 130.8340
445.4839, 177.5391
445.9660, 240.6270
446.4482, 264.5684
446.9303, 238.8623
447.4124, 203.3848
447.8945, 168.4316
448.3766, 143.2773
448.8587, 160.6680
449.3409, 228.7051
449.8230, 285.1396
450.3051, 271.8037
450.7872, 198.5322
451.2693, 169.5986
451.7514, 216.0293
452.2336, 265.8271
452.7157, 302.3691
453.1978, 326.2324
453.6799, 335.5039
454.1620, 330.6221
454.6441, 321.2832
455.1263, 321.6670
455.6084, 336.3271
456.0905, 337.3555
456.5726, 309.7861
457.0547, 283.1719
457.5368, 262.1240
458.0190, 248.9756
458.5011, 248.4355
458.9832, 264.2490
459.4653, 284.4971
459.9474, 291.9590
460.4295, 286.6826
460.9117, 278.2822
461.3938, 264.8867
461.8759, 253.7676
462.3580, 251.6143
462.8401, 257.2061
463.3222, 264.7334
463.8044, 274.0850
464.2865, 283.6855
464.7686, 295.7256
465.2507, 307.5596
465.7328, 307.2900
466.2149, 288.0977
466.6971, 260.4746
467.1792, 245.7051
467.6613, 251.9707
468.1434, 253.7295
468.6255, 241.2383
469.1076, 232.9092
469.5898, 248.5381
470.0719, 279.2549
470.5540, 298.0781
471.0361, 286.0986
471.5182, 255.4082
472.0003, 239.6924
472.4825, 243.3574
472.9646, 252.0303
473.4467, 281.2764
473.9288, 300.7080
474.4109, 279.9258
474.8930, 222.6035
475.3752, 172.7041
475.8573, 158.6064
476.3394, 166.6719
476.8215, 175.4482
477.3036, 184.2930
477.7857, 193.4326
478.2679, 204.5449
478.7500, 215.3047
479.2321, 219.9492
479.7142, 221.6338
480.1963, 211.5508
480.6784, 172.2109
481.1606, 131.5527
481.6427, 121.3340
482.1248, 138.2549
482.6069, 152.4961
483.0890, 140.7354
483.5711, 108.5674
484.0533, 87.56543
484.5354, 83.33203
485.0175, 82.86621
485.4996, 88.67676
485.9817, 94.12988
486.4638, 95.97559
486.9460, 93.31348
487.4281, 83.58984
487.9102, 58.34473
488.3923, 24.48340
488.8744, 4.677734
489.3565, 0.8388670
489.8387, 1.515625
490.3208, 9.916992
490.8029, 21.50879
491.2850, 31.43945
491.7671, 42.83691
492.2492, 44.30469
492.7314, 17.97852
493.2135, 13.01270
493.6956, 17.79590
494.1777, 3.352539
494.6598, 24.23340
495.1419, 24.54590
495.6241, 8.153320
496.1062, 1.114258
496.5883, 5.130859
497.0704, 7.020508
497.5525, 3.912109
498.0346, 15.42871
498.5168, 13.34961
498.9989, 1.500977
499.4810, 11.83398
499.9631, 1.122070
500.4452, 29.49121
500.9273, 44.37305
501.4095, 43.82520
501.8916, 38.82422
502.3737, 34.46191
502.8558, 27.10645
503.3379, 10.33496
503.8200, 20.76562
504.3022, 41.37305
504.7843, 40.39551
505.2664, 24.98438
505.7485, 4.151367
506.2306, 42.50879
506.7127, 72.05469
507.1949, 79.61914
507.6770, 69.08789
508.1591, 57.66992
508.6412, 30.22754
509.1233, 24.47949
509.6054, 63.43750
510.0876, 108.8076
510.5697, 130.2227
511.0518, 129.0459
511.5339, 129.2764
512.0161, 153.4551
512.4982, 188.3105
512.9803, 190.9053
513.4624, 153.8574
513.9445, 130.0684
514.4266, 143.5342
514.9088, 174.7637
515.3909, 198.6162
515.8730, 214.8486
516.3551, 229.5059
516.8372, 251.2275
517.3193, 266.9727
517.8015, 257.9990
518.2836, 230.2305
518.7657, 207.7109
519.2478, 203.1514
519.7299, 212.3086
520.2120, 226.6074
520.6942, 256.9404
521.1763, 271.3643
521.6584, 255.2012
522.1405, 238.5596
522.6226, 240.2979
523.1047, 254.9736
523.5869, 264.6416
524.0690, 256.5508
524.5511, 245.2842
525.0332, 260.9707
525.5153, 303.9111
525.9974, 332.7832
526.4796, 334.6562
526.9617, 323.7305
527.4438, 311.1230
527.9259, 297.5752
528.4080, 291.4248
528.8901, 297.0928
529.3723, 306.2236
529.8544, 315.2012
530.3365, 324.6025
530.8186, 336.1631
531.3007, 350.7588
531.7828, 364.6475
532.2650, 372.8711
532.7471, 374.4893
533.2292, 367.4346
533.7113, 338.3750
534.1934, 319.4473
534.6755, 329.2705
535.1577, 351.2705
535.6398, 360.9531
536.1219, 350.1299
536.6040, 338.1377
537.0861, 347.1074
537.5682, 369.4971
538.0504, 380.3848
538.5325, 375.2734
539.0146, 363.4756
539.4967, 352.4102
539.9788, 342.1074
540.4609, 328.3740
540.9431, 310.3838
541.4252, 288.6016
541.9073, 252.5371
542.3894, 220.8281
542.8715, 212.4775
543.3536, 227.7646
543.8358, 254.3018
544.3179, 284.7246
544.8000, 315.6904
545.2821, 331.8232
545.7642, 328.3145
546.2463, 322.1250
546.7285, 322.4473
547.2106, 318.4316
547.6926, 295.0195
548.1747, 254.0684
548.6569, 222.8965
549.1390, 220.0381
549.6211, 228.6670
550.1032, 235.4844
550.5853, 240.8359
551.0674, 238.0186
551.5496, 221.4854
552.0317, 202.1885
552.5138, 199.4473
552.9959, 222.0801
553.4780, 237.5576
553.9601, 247.7383
554.4423, 248.7178
554.9244, 230.7197
555.4065, 205.7539
555.8886, 190.2617
556.3707, 190.0879
556.8528, 201.4043
557.3350, 228.2100
557.8171, 267.0859
558.2992, 280.5762
558.7813, 256.6904
559.2634, 233.9678
559.7455, 243.1016
560.2277, 272.3018
560.7098, 282.6152
561.1919, 264.1621
561.6740, 242.6836
562.1561, 220.6309
562.6382, 204.0010
563.1204, 203.5791
563.6025, 216.8203
564.0846, 225.0713
564.5667, 212.4316
565.0488, 188.1904
565.5309, 194.3545
566.0131, 252.1582
566.4952, 286.2256
566.9773, 254.1465
567.4594, 219.1777
567.9415, 228.2178
568.4236, 272.2480
568.9058, 302.6582
569.3879, 289.1787
569.8700, 262.3926
570.3521, 250.1602
570.8342, 250.0879
571.3163, 258.7256
571.7985, 276.6455
572.2806, 288.5234
572.7627, 272.6260
573.2448, 223.7822
573.7269, 194.6836
574.2090, 198.3340
574.6912, 204.7676
575.1733, 203.9229
575.6554, 203.2256
576.1375, 216.0723
576.6196, 243.5439
577.1017, 265.2139
577.5839, 254.5850
578.0660, 223.4521
578.5481, 213.7109
579.0302, 228.1064
579.5123, 243.8682
579.9944, 250.1836
580.4766, 252.4463
580.9587, 263.6670
581.4408, 289.6475
581.9229, 299.8643
582.4050, 282.0312
582.8871, 254.5518
583.3693, 217.2197
583.8514, 181.5869
584.3335, 173.6025
584.8156, 205.5947
585.2977, 249.6416
585.7798, 256.1855
586.2620, 220.3008
586.7441, 207.3896
587.2262, 235.9941
587.7083, 262.2539
588.1904, 258.4756
588.6725, 236.7100
589.1547, 213.5459
589.6368, 186.3789
590.1189, 170.4648
590.6010, 182.8555
591.0831, 205.3232
591.5652, 211.4004
592.0474, 201.8438
592.5295, 199.9326
593.0116, 223.4229
593.4937, 258.4121
593.9758, 259.5371
594.4579, 208.2295
594.9401, 167.2725
595.4222, 131.5234
595.9043, 117.4922
596.3864, 150.5615
596.8685, 212.5859
597.3506, 257.7783
597.8328, 265.9922
598.3149, 256.4326
598.7970, 242.7646
599.2791, 226.5361
599.7612, 207.5918
600.2433, 185.2529
600.7255, 169.3945
601.2076, 168.7236
601.6897, 182.1816
602.1718, 201.0459
602.6539, 236.5664
603.1360, 262.0811
603.6182, 274.0557
604.1003, 279.0439
604.5824, 274.9883
605.0645, 264.2363
605.5466, 258.8506
606.0287, 268.1318
606.5109, 286.4561
606.9930, 305.2227
607.4751, 324.0869
607.9572, 340.5918
608.4393, 351.2354
608.9214, 369.1514
609.4036, 413.2598
609.8857, 485.3457
610.3678, 541.7803
610.8499, 568.9561
611.3320, 590.3887
611.8141, 607.4473
612.2963, 624.5439
612.7784, 652.2324
613.2605, 688.8350
613.7426, 714.4824
614.2247, 704.4365
614.7068, 677.0381
615.1890, 684.0469
615.6711, 728.0850
616.1532, 775.1787
616.6353, 818.1221
617.1174, 854.8662
617.5995, 880.4902
618.0817, 894.6377
618.5638, 914.0166
619.0459, 941.7275
619.5280, 971.9746
620.0101, 1004.695
620.4922, 1038.427
620.9744, 1073.033
621.4565, 1107.581
621.9386, 1137.762
622.4207, 1158.876
622.9028, 1172.963
623.3849, 1185.551
623.8671, 1195.191
624.3492, 1214.062
624.8313, 1249.460
625.3134, 1291.434
625.7955, 1331.953
626.2776, 1371.230
626.7598, 1396.735
627.2419, 1373.969
627.7240, 1371.824
628.2061, 1444.343
628.6882, 1551.727
629.1703, 1635.360
629.6525, 1681.779
630.1346, 1715.391
630.6167, 1760.430
631.0988, 1812.707
631.5809, 1848.360
632.0630, 1863.317
632.5452, 1878.810
633.0273, 1900.956
633.5094, 1926.726
633.9915, 1956.538
634.4736, 1989.790
634.9557, 2011.446
635.4379, 2008.772
635.9200, 2003.290
636.4021, 2000.463
636.8842, 2005.443
637.3663, 2032.078
637.8484, 2080.093
638.3306, 2124.365
638.8127, 2139.301
639.2948, 2128.809
639.7769, 2104.204
640.2590, 2043.632
640.7411, 2054.651
641.2233, 2261.609
641.7054, 2461.010
642.1875, 2405.856
642.6696, 2120.400
643.1517, 1902.107
643.6339, 1853.602
644.1160, 1841.953
644.5981, 1810.459
645.0802, 1762.850
645.5623, 1701.731
646.0444, 1630.523
646.5266, 1562.398
647.0087, 1507.641
647.4908, 1467.715
647.9729, 1460.469
648.4550, 1504.074
648.9371, 1506.549
649.4193, 1425.475
649.9014, 1315.022
650.3835, 1224.924
650.8656, 1152.542
651.3477, 1076.234
651.8298, 978.9062
652.3120, 890.8389
652.7941, 837.8311
653.2762, 796.9131
653.7583, 730.5391
654.2404, 638.4434
654.7225, 559.5576
655.2047, 529.8652
655.6868, 530.2324
656.1689, 493.1895
656.6510, 409.7773
657.1331, 344.4141
657.6152, 315.2119
658.0974, 300.9053
658.5795, 287.6094
659.0616, 274.4932
659.5437, 256.8955
660.0258, 243.6084
660.5079, 214.6143
660.9901, 136.5508
661.4722, 56.02344
661.9543, 31.74902
662.4364, 58.34668
662.9185, 82.49902
663.4006, 68.11816
663.8828, 31.99512
664.3649, 8.914063
664.8470, 0.8203130
665.3291, 5.205078
665.8112, 1.343750
666.2933, 4.158203
666.7755, 51.53320
667.2576, 125.1582
667.7397, 158.0049
668.2218, 126.8936
668.7039, 94.13965
669.1860, 61.35645
669.6682, 39.80176
670.1503, 49.77246
670.6324, 78.11816
671.1145, 87.88281
671.5966, 59.15820
672.0787, 16.54980
672.5609, 5.662109
673.0430, 10.56836
673.5251, 16.62109
674.0072, 24.35645
674.4893, 41.25684
674.9714, 71.43750
675.4536, 114.0898
675.9357, 168.2832
676.4178, 248.6152
676.8999, 309.1787
677.3820, 338.1211
677.8641, 357.9502
678.3463, 371.9062
678.8284, 387.2158
679.3105, 417.5879
679.7926, 467.2578
680.2747, 513.2432
680.7568, 513.6787
681.2390, 498.7539
681.7211, 553.7090
682.2032, 677.5117
682.6853, 789.7793
683.1674, 855.5400
683.6495, 895.5654
684.1317, 942.6133
684.6138, 999.7383
685.0959, 1049.455
685.5780, 1066.961
686.0601, 1105.184
686.5422, 1196.113
687.0244, 1307.114
687.5065, 1397.780
687.9886, 1463.337
688.4707, 1534.645
688.9528, 1642.539
689.4349, 1757.042
689.9171, 1839.172
690.3992, 1899.091
690.8813, 1965.272
691.3634, 2044.325
691.8455, 2129.510
692.3276, 2214.336
692.8098, 2302.146
693.2919, 2409.885
693.7740, 2551.068
694.2561, 2675.540
694.7382, 2770.227
695.2203, 2852.297
695.7025, 2926.247
696.1846, 2993.172
696.6667, 3063.083
697.1488, 3149.284
697.6309, 3228.392
698.1130, 3275.100
698.5952, 3312.028
699.0773, 3366.469
699.5594, 3440.867
700.0415, 3529.156
700.5236, 3630.384
701.0057, 3732.529
701.4879, 3809.800
701.9700, 3861.031
702.4521, 3902.531
702.9342, 3940.964
703.4163, 3958.871
703.8984, 3931.511
704.3806, 3882.101
704.8627, 3869.271
705.3448, 3908.842
705.8269, 3936.855
706.3090, 3934.091
706.7911, 3928.242
707.2733, 3939.539
707.7554, 3958.133
708.2375, 3964.577
708.7196, 3953.528
709.2017, 3937.824
709.6838, 3931.479
710.1660, 3929.352
710.6481, 3920.225
711.1302, 3903.687
711.6123, 3875.253
712.0944, 3831.895
712.5765, 3779.584
713.0587, 3726.718
713.5408, 3674.089
714.0229, 3612.157
714.5050, 3528.309
714.9871, 3451.310
715.4692, 3384.887
715.9514, 3328.604
716.4335, 3291.498
716.9156, 3266.317
717.3977, 3222.248
717.8798, 3131.220
718.3619, 3039.462
718.8441, 2990.197
719.3262, 2960.956
719.8083, 2916.734
720.2904, 2854.707
720.7725, 2786.933
721.2546, 2720.338
721.7368, 2652.211
722.2189, 2579.622
722.7010, 2504.304
723.1831, 2414.441
723.6652, 2300.975
724.1473, 2189.962
724.6295, 2092.466
725.1116, 2004.311
725.5937, 1924.693
726.0758, 1864.807
726.5579, 1792.572
727.0400, 1687.700
727.5222, 1582.853
728.0043, 1492.710
728.4864, 1413.966
728.9685, 1343.143
729.4506, 1281.045
729.9327, 1227.554
730.4149, 1187.496
730.8970, 1150.281
731.3791, 1091.683
731.8612, 1013.782
732.3433, 934.2236
732.8254, 856.9980
733.3076, 789.1035
733.7897, 738.7715
734.2718, 704.9258
734.7539, 670.4375
735.2360, 637.7207
735.7181, 598.3730
736.2003, 549.2842
736.6824, 495.5127
737.1645, 437.7744
737.6466, 378.1982
738.1287, 320.5703
738.6108, 262.7334
739.0930, 213.2822
739.5751, 182.8857
740.0572, 159.7100
740.5393, 131.8721
741.0214, 98.47168
741.5035, 59.74121
741.9857, 15.74316
742.4678, 25.94922
742.9499, 47.49414
743.4320, 52.00684
743.9141, 89.43848
744.3962, 169.1777
744.8784, 232.3262
745.3605, 251.9854
745.8426, 250.6787
746.3247, 257.6709
746.8068, 273.9805
747.2889, 288.5420
747.7711, 306.6328
748.2532, 316.1406
748.7353, 298.0215
749.2174, 282.0146
749.6995, 303.3271
750.1816, 354.0947
750.6638, 391.2627
751.1459, 388.2627
751.6280, 376.6777
752.1101, 395.7471
752.5922, 423.3359
753.0743, 408.1084
753.5565, 351.7129
754.0386, 306.4492
754.5207, 304.0098
755.0028, 324.3232
755.4849, 329.2139
755.9670, 317.2607
756.4492, 302.4033
756.9313, 283.9180
757.4134, 265.0977
757.8955, 251.5762
758.3776, 234.8145
758.8597, 195.9121
759.3419, 131.8711
759.8240, 83.07812
760.3061, 68.12891
760.7882, 50.34961
761.2703, 20.26953
761.7524, 22.27734
762.2346, 86.59375
762.7167, 165.7754
763.1988, 228.0957
763.6809, 242.9629
764.1630, 255.5547
764.6451, 326.2812
765.1273, 434.2578
765.6094, 532.6914
766.0915, 613.4297
766.5736, 674.0332
767.0557, 709.3750
767.5378, 739.7051
768.0200, 813.0391
768.5021, 937.3281
768.9842, 1054.115
769.4663, 1158.473
769.9484, 1262.977
770.4305, 1375.352
770.9127, 1489.223
771.3948, 1591.652
771.8769, 1679.732
772.3590, 1787.211
772.8411, 1924.896
773.3232, 2073.141
773.8054, 2230.699
774.2875, 2390.832
774.7696, 2544.604
775.2517, 2693.471
775.7338, 2847.623
776.2159, 3011.943
776.6981, 3185.316
777.1802, 3380.830
777.6623, 3580.990
778.1444, 3730.328
778.6265, 3831.127
779.1086, 3960.287
779.5908, 4161.893
780.0729, 4401.234
780.5550, 4606.439
781.0371, 4768.059
781.5192, 4994.980
782.0013, 5319.814
782.4835, 5623.182
782.9656, 5837.039
783.4477, 6028.006
783.9298, 6280.357
784.4119, 6594.393
784.8940, 6925.537
785.3762, 7321.939
785.8583, 7669.184
786.3404, 7861.141
786.8225, 8050.260
787.3046, 8398.811
787.7867, 8869.836
788.2689, 9297.863
788.7510, 9602.686
789.2331, 9888.822
789.7152, 10249.04
790.1973, 10649.38
790.6794, 11033.63
791.1616, 11407.16
791.6437, 11819.63
792.1258, 12296.24
792.6079, 12792.30
793.0900, 13240.64
793.5721, 13651.01
794.0543, 14124.19
794.5364, 14669.79
795.0185, 15232.87
795.5006, 15806.17
795.9827, 16374.87
796.4648, 16921.70
796.9470, 17450.72
797.4291, 17984.07
797.9112, 18483.79
798.3933, 19040.39
798.8754, 19677.76
799.3575, 20352.20
799.8397, 21048.15
800.3218, 21759.12
800.8039, 22488.77
801.2860, 23238.39
801.7681, 23982.52
802.2502, 24691.92
802.7324, 25402.88
803.2145, 26140.91
803.6966, 26910.70
804.1787, 27736.60
804.6608, 28612.40
805.1429, 29471.40
805.6251, 30235.41
806.1072, 30975.60
806.5893, 31855.34
807.0714, 32862.18
807.5535, 33887.89
808.0356, 34918.08
808.5178, 35911.45
808.9999, 36837.57
809.4820, 37732.26
809.9641, 38665.68
810.4462, 39650.30
810.9283, 40640.71
811.4105, 41639.40
811.8926, 42650.89
812.3747, 43690.45
812.8568, 44727.56
813.3389, 45709.34
813.8210, 46635.13
814.3032, 47597.95
814.7853, 48676.46
815.2674, 49706.70
815.7495, 50590.89
816.2316, 51433.47
816.7137, 52344.55
817.1959, 53306.39
817.6780, 54240.64
818.1601, 55119.72
818.6422, 55937.98
819.1243, 56686.53
819.6064, 57384.71
820.0886, 58045.91
820.5707, 58683.61
821.0528, 59348.03
821.5349, 60057.38
822.0170, 60697.71
822.4991, 61140.14
822.9813, 61417.64
823.4634, 61671.41
823.9455, 61904.21
824.4276, 62100.18
824.9097, 62270.04
825.3918, 62340.63
825.8740, 62232.20
826.3561, 62000.70
826.8382, 61843.57
827.3203, 61848.32
827.8024, 61725.21
828.2845, 61441.69
828.7667, 61066.88
829.2488, 60643.71
829.7309, 60134.47
830.2130, 59475.68
830.6951, 58664.52
831.1772, 57835.50
831.6594, 57013.18
832.1415, 56187.98
832.6236, 55382.79
833.1057, 54549.21
833.5878, 53625.23
834.0699, 52620.80
834.5521, 51589.33
835.0342, 50551.23
835.5163, 49507.85
835.9984, 48467.35
836.4805, 47412.63
836.9626, 46295.68
837.4448, 45134.01
837.9269, 43997.71
838.4090, 42911.73
838.8911, 41836.82
839.3732, 40729.15
839.8553, 39612.59
840.3375, 38570.33
840.8196, 37604.13
841.3017, 36616.87
841.7838, 35585.41
842.2659, 34550.29
842.7480, 33522.55
843.2302, 32522.12
843.7123, 31598.02
844.1944, 30794.84
844.6765, 29909.60
845.1586, 28869.77
845.6407, 27857.65
846.1229, 26930.21
846.6050, 26056.92
847.0871, 25203.19
847.5692, 24371.80
848.0513, 23604.27
848.5334, 22976.23
849.0156, 22312.32
849.4977, 21510.16
849.9798, 20703.31
850.4619, 19982.19
850.9440, 19336.27
851.4261, 18749.89
851.9083, 18219.96
852.3904, 17671.09
852.8725, 17010.40
853.3546, 16335.18
853.8367, 15739.80
854.3188, 15207.02
854.8010, 14696.96
855.2831, 14198.38
855.7652, 13717.42
856.2473, 13262.68
856.7294, 12822.06
857.2115, 12362.06
857.6937, 11897.07
858.1758, 11493.97
858.6579, 11157.47
859.1400, 10830.56
859.6221, 10486.68
860.1042, 10140.23
860.5864, 9803.154
861.0685, 9475.119
861.5506, 9167.988
862.0327, 8896.018
862.5148, 8581.551
862.9969, 8177.363
863.4791, 7784.992
863.9612, 7478.307
864.4433, 7240.193
864.9254, 7025.654
865.4075, 6855.748
865.8896, 6663.955
866.3718, 6414.020
866.8539, 6186.627
867.3360, 6032.057
867.8181, 5898.372
868.3002, 5726.848
868.7823, 5515.645
869.2645, 5307.087
869.7466, 5108.123
870.2287, 4922.441
870.7108, 4745.924
871.1929, 4585.974
871.6750, 4471.738
872.1572, 4378.844
872.6393, 4241.824
873.1214, 4034.877
873.6035, 3841.801
874.0856, 3738.808
874.5677, 3671.302
875.0499, 3586.093
875.5320, 3479.811
876.0141, 3339.412
876.4962, 3172.207
876.9783, 3031.808
877.4604, 2961.396
877.9426, 2920.693
878.4247, 2842.304
878.9068, 2736.617
879.3889, 2643.971
879.8710, 2563.987
880.3531, 2477.579
880.8353, 2381.200
881.3174, 2288.834
881.7995, 2216.277
882.2816, 2155.732
882.7637, 2063.322
883.2458, 1934.124
883.7280, 1823.285
884.2101, 1741.023
884.6922, 1671.325
885.1743, 1609.865
885.6564, 1553.263
886.1385, 1489.808
886.6207, 1413.354
887.1028, 1364.629
887.5849, 1364.756
888.0670, 1354.862
888.5491, 1325.768
889.0313, 1274.965
889.5134, 1187.146
889.9955, 1073.598
890.4776, 985.2900
890.9597, 934.1270
891.4418, 896.8125
891.9240, 876.8613
892.4061, 859.4766
892.8882, 844.0010
893.3703, 823.2266
893.8524, 783.0850
894.3345, 723.9619
894.8167, 673.8203
895.2988, 646.6445
895.7809, 628.0439
896.2630, 618.0791
896.7451, 607.0557
897.2272, 577.1953
897.7094, 537.7227
898.1915, 519.4023
898.6736, 534.0635
899.1557, 544.0215
899.6378, 509.2676
900.1199, 461.2041
900.6021, 434.7754
901.0842, 426.8672
901.5663, 432.3545
902.0484, 447.1396
902.5305, 463.2939
903.0126, 477.9824
903.4948, 480.6055
903.9769, 443.0664
904.4590, 382.7646
904.9411, 361.7695
905.4232, 376.9648
905.9053, 385.0420
906.3875, 372.1230
906.8696, 361.0439
907.3517, 375.5039
907.8338, 405.8115
908.3159, 421.8477
908.7980, 423.7051
909.2802, 415.6436
909.7623, 398.7861
910.2444, 365.4482
910.7265, 308.9473
911.2086, 245.3760
911.6907, 198.2754
912.1729, 167.2998
912.6550, 129.4863
913.1371, 78.74023
913.6192, 41.33301
914.1013, 30.38867
914.5834, 17.01172
915.0656, 22.03418
915.5477, 74.25293
916.0298, 110.0703
916.5119, 121.1787
916.9940, 148.3311
917.4761, 219.3701
917.9583, 266.3076
918.4404, 259.6338
918.9225, 235.5635
919.4046, 210.9570
919.8867, 192.1953
920.3688, 203.1768
920.8510, 268.9580
921.3331, 313.0566
921.8152, 311.6924
922.2973, 301.6631
922.7794, 293.1133
923.2615, 289.7100
923.7437, 297.8311
924.2258, 315.4424
924.7079, 325.8135
925.1900, 322.4512
925.6721, 314.3008
926.1542, 300.0664
926.6364, 286.8691
927.1185, 285.4316
927.6006, 286.7900
928.0827, 272.1885
928.5648, 239.2031
929.0469, 211.3389
929.5291, 207.4609
930.0112, 206.6416
930.4933, 187.0186
930.9754, 165.9648
931.4575, 173.2539
931.9396, 198.3965
932.4218, 206.7046
932.9039, 186.1201
933.3860, 152.0645
933.8681, 103.9023
934.3502, 60.57910
934.8323, 53.06396
935.3145, 66.90479
935.7966, 79.23096
936.2787, 81.95264
936.7608, 57.77686
937.2429, 4.640137
937.7250, 65.60205
938.2072, 64.17236
938.6893, 30.01953
939.1714, 35.22607
939.6535, 70.70703
940.1356, 91.98535
940.6177, 90.88184
941.0999, 98.01172
941.5820, 136.9023
942.0641, 186.3423
942.5462, 209.9014
943.0283, 209.8384
943.5104, 189.7710
943.9926, 152.9834
944.4747, 136.0933
944.9568, 150.4414
945.4389, 183.8794
945.9210, 227.5020
946.4031, 277.7227
946.8853, 331.2178
947.3674, 387.8740
947.8495, 401.6548
948.3316, 364.5610
948.8137, 346.2856
949.2958, 376.5898
949.7780, 421.5400
950.2601, 444.1265
950.7422, 448.0898
951.2243, 451.2720
951.7064, 451.9624
952.1885, 464.6147
952.6707, 495.4629
953.1528, 519.2700
953.6349, 519.4307
954.1170, 517.6758
954.5991, 546.7153
955.0812, 604.1880
955.5634, 635.7407
956.0455, 630.1357
956.5276, 634.3130
957.0097, 661.0483
957.4918, 681.8218
957.9739, 674.8311
958.4561, 660.0684
958.9382, 672.3027
959.4203, 714.2534
959.9024, 744.2441
960.3845, 759.3887
960.8666, 767.2896
961.3488, 761.9810
961.8309, 759.5977
962.3130, 771.9136
962.7951, 793.0225
963.2772, 810.6147
963.7593, 822.7544
964.2415, 840.3457
964.7236, 868.1323
965.2057, 894.8311
965.6878, 917.9653
966.1699, 939.5225
966.6520, 966.7319
967.1342, 991.7217
967.6163, 994.2598
968.0984, 965.2271
968.5805, 947.4458
969.0626, 943.5156
969.5447, 950.1929
970.0269, 976.2656
970.5090, 1003.583
970.9911, 1021.480
971.4732, 1029.141
971.9553, 1022.119
972.4374, 989.1016
972.9196, 980.3496
973.4017, 1019.207
973.8838, 1060.662
974.3659, 1100.913
974.8480, 1127.286
975.3301, 1117.674
975.8123, 1084.574
976.2944, 1068.347
976.7765, 1080.687
977.2586, 1094.786
977.7407, 1106.181
978.2228, 1114.182
978.7050, 1109.142
979.1871, 1104.079
979.6692, 1120.962
980.1513, 1152.019
980.6334, 1166.208
981.1155, 1154.602
981.5977, 1130.710
982.0798, 1082.002
982.5619, 1041.032
983.0440, 1030.666
983.5261, 1033.309
984.0082, 1032.438
984.4904, 1025.928
984.9725, 1013.994
985.4546, 994.5200
985.9367, 977.0781
986.4188, 969.1001
986.9009, 961.1733
987.3831, 942.6040
987.8652, 922.2725
988.3473, 917.8066
988.8294, 924.0527
989.3115, 910.7036
989.7936, 856.8120
990.2758, 816.1621
990.7579, 825.7847
991.2400, 843.5684
991.7221, 848.0703
992.2042, 841.8765
992.6863, 821.2373
993.1685, 790.9321
993.6506, 773.3804
994.1327, 783.1685
994.6148, 788.9595
995.0969, 772.4712
995.5790, 755.7051
996.0612, 751.3521
996.5433, 749.6577
997.0254, 739.4849
997.5075, 724.2954
997.9896, 719.1211
998.4717, 733.3472
998.9539, 741.9907
999.4360, 727.0298
999.9181, 712.3345
1000.400, 718.5537
1000.882, 729.6118
1001.364, 720.9668
1001.847, 694.9351
1002.329, 676.6343
1002.811, 677.1021
1003.293, 684.0942
1003.775, 701.3506
1004.257, 713.0288
1004.739, 702.8276
1005.221, 683.6665
1005.703, 670.2666
1006.186, 662.3613
1006.668, 653.7202
1007.150, 643.3677
1007.632, 633.9644
1008.114, 620.7852
1008.596, 613.8960
1009.078, 629.6396
1009.560, 649.0391
1010.043, 648.7417
1010.525, 630.4761
1011.007, 609.1509
1011.489, 586.8452
1011.971, 569.2183
1012.453, 559.4717
1012.935, 555.7061
1013.417, 557.1470
1013.899, 561.8638
1014.382, 572.7808
1014.864, 586.2710
1015.346, 590.0518
1015.828, 578.9399
1016.310, 563.8213
1016.792, 537.0039
1017.274, 522.7417
1017.756, 544.9536
1018.239, 577.0693
1018.721, 596.7983
1019.203, 601.3848
1019.685, 590.6030
1020.167, 561.2153
1020.649, 531.6948
1021.131, 558.6689
1021.613, 571.6279
1022.095, 571.3672
1022.578, 518.5015
1023.060, 533.7944
1023.542, 521.8291
1024.024, 508.7324
1024.506, 533.6812
1024.988, 488.7710
1025.470, 513.0791
1025.952, 509.2612
1026.435, 517.7524
1026.917, 468.9077
1027.399, 455.3867
1027.881, 439.7456
1028.363, 435.3003
1028.845, 445.8003
1029.327, 449.4180
1029.809, 440.1885
1030.292, 425.6597
1030.774, 398.3057
1031.256, 376.7451
1031.738, 379.0845
1032.220, 393.4048
1032.702, 398.1602
1033.184, 390.8188
1033.666, 382.2100
1034.148, 375.9927
1034.630, 365.7393
1035.113, 339.0020
1035.595, 320.1567
1036.077, 333.0640
1036.559, 356.5928
1037.041, 356.0391
1037.523, 330.2148
1038.005, 318.5273
1038.487, 335.5776
1038.970, 343.1069
1039.452, 333.9146
1039.934, 321.0742
1040.416, 305.2969
1040.898, 293.4302
1041.380, 295.7524
1041.862, 310.5044
1042.344, 320.0479
1042.826, 321.3042
1043.309, 324.9897
1043.791, 339.6401
1044.273, 340.5605
1044.755, 311.0879
1045.237, 274.5181
1045.719, 253.3052
1046.201, 245.3643
1046.683, 241.1816
1047.166, 242.3169
1047.648, 241.2993
1048.130, 237.7266
1048.612, 233.8984
1049.094, 231.6602
1049.576, 224.8438
1050.058, 203.4546
1050.540, 180.0303
1051.022, 194.3501
1051.505, 253.4077
1051.987, 279.4243
1052.469, 267.9849
1052.951, 246.9341
1053.433, 219.9023
1053.915, 200.2993
1054.397, 197.5801
1054.879, 205.1914
1055.361, 212.5547
1055.844, 219.3110
1056.326, 220.0879
1056.808, 214.9058
1057.290, 214.9697
1057.772, 222.4404
1058.254, 221.6626
1058.736, 203.4902
1059.218, 183.9102
1059.701, 186.1533
1060.183, 202.6211
1060.665, 208.7012
1061.147, 205.4790
1061.629, 195.4824
1062.111, 180.5820
1062.593, 172.4292
1063.075, 175.2549
1063.557, 181.6172
1064.040, 185.3984
1064.522, 186.1099
1065.004, 183.0986
1065.486, 176.1719
1065.968, 161.7192
1066.450, 142.9692
1066.932, 129.8066
1067.414, 125.7163
1067.896, 132.7378
1068.379, 155.3413
1068.861, 174.8828
1069.343, 165.3633
1069.825, 144.2695
1070.307, 132.0869
1070.789, 129.1841
1071.271, 139.8584
1071.753, 158.3203
1072.236, 159.8955
1072.718, 130.5117
1073.200, 105.1777
1073.682, 116.8115
1074.164, 134.1436
1074.646, 128.1504
1075.128, 115.1367
1075.610, 116.6543
1076.093, 129.6362
1076.575, 139.4351
1077.057, 142.2031
1077.539, 139.1128
1078.021, 123.8804
1078.503, 111.8828
1078.985, 111.0527
1079.467, 115.4341
1079.949, 125.7690
1080.432, 135.2202
1080.914, 132.9619
1081.396, 118.2095
1081.878, 103.3452
1082.360, 86.12939
1082.842, 75.83887
1083.324, 79.52441
1083.806, 84.51904
1084.288, 83.99170
1084.771, 82.59131
1085.253, 88.84326
1085.735, 99.72900
1086.217, 97.52686
1086.699, 71.18408
1087.181, 60.68018
1087.663, 72.10010
1088.145, 87.14355
1088.628, 109.2583
1089.110, 118.4297
1089.592, 93.66992
1090.074, 54.33643
1090.556, 43.31689
1091.038, 61.83252
1091.520, 61.47119
1092.002, 38.44727
1092.484, 22.83545
1092.967, 19.43555
1093.449, 29.80957
1093.931, 56.86035
1094.413, 82.30273
1094.895, 83.70459
1095.377, 70.46729
1095.859, 67.67822
1096.341, 74.56152
1096.823, 91.70459
1097.306, 115.2378
1097.788, 105.1606
1098.270, 51.25830
1098.752, 2.403809
1099.234, 1.319336
1099.716, 16.49316
1100.198, 21.40088
1100.680, 20.32324
1101.163, 25.05957
1101.645, 36.86328
1102.127, 63.64648
1102.609, 99.79541
1103.091, 118.1226
1103.573, 104.6255
1104.055, 87.13086
1104.537, 93.93311
1105.020, 102.0396
1105.502, 85.48389
1105.984, 61.42188
1106.466, 48.37012
1106.948, 47.01758
1107.430, 57.65479
1107.912, 78.68164
1108.394, 89.37646
1108.876, 71.25293
1109.359, 57.16309
1109.841, 67.88867
1110.323, 76.06299
1110.805, 58.35107
1111.287, 33.35596
1111.769, 23.36475
1112.251, 28.04541
1112.733, 38.46143
1113.215, 60.84180
1113.698, 71.39404
1114.180, 67.24023
1114.662, 54.83887
1115.144, 27.22656
1115.626, 3.302246
1116.108, 4.458008
1116.590, 0.1723630
1117.072, 9.231445
1117.555, 23.83838
1118.037, 44.51465
1118.519, 75.88525
1119.001, 83.87451
1119.483, 58.69092
1119.965, 44.07715
1120.447, 62.41748
1120.929, 82.74902
1121.411, 72.29883
1121.894, 42.37598
1122.376, 19.72217
1122.858, 4.127930
1123.340, 3.071289
1123.822, 4.062500
1124.304, 14.05225
1124.786, 33.78662
1125.268, 41.15527
1125.750, 24.29883
1126.233, 0.2124020
1126.715, 15.19092
1127.197, 23.35840
1127.679, 20.94434
1128.161, 16.20410
1128.643, 28.95312
1129.125, 49.79785
1129.607, 47.18213
1130.090, 15.53613
1130.572, 10.87695
1131.054, 11.81543
1131.536, 8.906738
1132.018, 20.77002
1132.500, 24.91309
1132.982, 5.337402
1133.464, 44.27783
1133.947, 62.64307
1134.429, 60.83936
1134.911, 50.16895
1135.393, 26.80566
1135.875, 12.53223
1136.357, 17.43848
1136.839, 19.20166
1137.321, 11.95605
1137.803, 3.812500
1138.286, 1.423340
1138.768, 3.951660
1139.250, 3.072266
1139.732, 0.3017580
1140.214, 3.922363
1140.696, 17.15527
1141.178, 16.67578
1141.660, 0.9252930
1142.142, 9.959473
1142.625, 1.513184
1143.107, 14.47559
1143.589, 32.27930
1144.071, 44.88623
1144.553, 36.89551
1145.035, 14.16357
1145.517, 12.19580
1145.999, 36.18359
1146.482, 33.33008
1146.964, 7.452637
1147.446, 12.33350
1147.928, 15.09326
1148.410, 9.785645
1148.892, 3.707520
1149.374, 13.05518
1149.856, 6.569824
1150.339, 9.022461
1150.821, 44.19629
1151.303, 74.38525
1151.785, 53.86182
1152.267, 7.092285
1152.749, 45.26855
1153.231, 39.14307
1153.713, 35.15674
1154.195, 48.73145
1154.677, 59.15039
1155.160, 59.75830
1155.642, 56.13818
1156.124, 50.08301
1156.606, 42.32471
1157.088, 31.94092
1157.570, 20.72412
1158.052, 25.40381
1158.534, 53.41602
1159.017, 59.58105
1159.499, 37.60840
1159.981, 17.86328
1160.463, 8.315430
1160.945, 10.32373
1161.427, 25.67871
1161.909, 41.53027
1162.391, 33.02832
1162.874, 9.718750
1163.356, 14.07520
1163.838, 37.63525
1164.320, 52.79346
1164.802, 57.46289
1165.284, 55.53711
1165.766, 52.53760
1166.248, 48.89062
1166.730, 42.94678
1167.213, 43.27734
1167.695, 64.95703
1168.177, 88.34277
1168.659, 102.0518
1169.141, 103.0586
1169.623, 76.89941
1170.105, 38.91504
1170.587, 21.01416
1171.069, 28.15283
1171.552, 33.07031
1172.034, 25.58887
1172.516, 24.09326
1172.998, 32.39893
1173.480, 44.62158
1173.962, 59.54883
1174.444, 64.52783
1174.926, 49.76172
1175.409, 43.14648
1175.891, 25.46191
1176.373, 5.704590
1176.855, 9.525391
1177.337, 14.52051
1177.819, 33.68799
1178.301, 42.76318
1178.783, 50.93555
1179.266, 61.20020
1179.748, 69.65723
1180.230, 71.43896
1180.712, 65.68359
1181.194, 57.77148
1181.676, 46.74463
1182.158, 24.52979
1182.640, 2.410156
1183.122, 11.61328
1183.604, 46.19141
1184.087, 65.30713
1184.569, 51.75635
1185.051, 34.57129
1185.533, 18.95068
1186.015, 9.922363
1186.497, 7.742676
1186.979, 12.97217
1187.461, 25.55664
1187.944, 49.62109
1188.426, 43.62158
1188.908, 14.07178
1189.390, 7.331543
1189.872, 31.84814
1190.354, 44.80078
1190.836, 55.91455
1191.318, 52.41846
1191.801, 24.64697
1192.283, 15.30420
1192.765, 63.76123
1193.247, 115.0498
1193.729, 92.39404
1194.211, 32.11865
1194.693, 9.873535
1195.175, 13.50293
1195.657, 14.35645
1196.140, 11.01758
1196.622, 7.494629
1197.104, 4.374512
1197.586, 0.0000000E+00
##END=



