##NAMES=Clintonite
##RRUFFID=R070196
##IDEAL CHEMISTRY=CaAlMg_2_(SiAl_3_)O_10_(OH)_2_
##LOCALITY=Crestmore, Riverside County, California, USA
##OWNER=RRUFF
##SOURCE=California Institute of Technology
##DESCRIPTION=Transparent green micaceous single crystal
##STATUS=The identification of this mineral is confirmed by single-crystal X-ray diffraction and chemical analysis.
##URL=rruff.info/R070196
##MEASURED CHEMISTRY=(Ca_0.97_[box]_0.03_)_Σ=1_(Al_0.90_Fe^3+^_0.10_)_Σ=1_Mg_2.00_(Si_1.18_Al_2.82_)_Σ=3_O_10_((OH)_1.88_O_0.12_)_Σ=2_; OH estimated by charge balance
152.5922, 0.0000000E+00
153.0743, 0.1066890
153.5565, 7.9102002E-02
154.0386, 2.627441
154.5207, 4.594727
155.0028, 39.04102
155.4849, 75.60083
155.9670, 92.20630
156.4492, 56.38086
156.9313, 24.94824
157.4134, 18.91919
157.8955, 44.60571
158.3776, 64.94922
158.8597, 65.16211
159.3419, 54.68652
159.8240, 46.71802
160.3061, 47.52441
160.7882, 50.09863
161.2703, 50.15430
161.7524, 45.15698
162.2346, 43.59546
162.7167, 50.19849
163.1988, 62.91187
163.6809, 77.13135
164.1630, 92.03271
164.6451, 107.0876
165.1273, 122.2812
165.6094, 138.9849
166.0915, 153.4150
166.5736, 162.7214
167.0557, 167.6465
167.5379, 171.1348
168.0200, 172.9570
168.5021, 174.8142
168.9842, 178.6155
169.4663, 186.5950
169.9484, 194.8928
170.4306, 198.8223
170.9127, 199.0938
171.3948, 201.8945
171.8769, 217.0959
172.3590, 236.6199
172.8411, 248.3174
173.3233, 240.6545
173.8054, 226.9746
174.2875, 221.0767
174.7696, 223.0032
175.2517, 228.9619
175.7338, 238.0215
176.2160, 248.7524
176.6981, 257.9739
177.1802, 265.4741
177.6623, 270.2964
178.1444, 268.3318
178.6265, 258.3743
179.1087, 250.4636
179.5908, 260.0684
180.0729, 282.5859
180.5550, 300.8655
181.0371, 303.9417
181.5192, 296.6885
182.0014, 289.0037
182.4835, 281.0195
182.9656, 274.4746
183.4477, 270.6501
183.9298, 269.7161
184.4119, 272.8718
184.8941, 283.6116
185.3762, 299.5471
185.8583, 311.7632
186.3404, 318.6272
186.8225, 322.7146
187.3046, 327.1904
187.7868, 332.0745
188.2689, 340.1211
188.7510, 359.0432
189.2331, 385.5386
189.7152, 398.0955
190.1973, 390.9304
190.6795, 369.9336
191.1616, 344.0452
191.6437, 312.2261
192.1258, 287.3569
192.6079, 285.9451
193.0900, 306.6440
193.5722, 318.3884
194.0543, 313.0012
194.5364, 294.6907
195.0185, 278.3081
195.5006, 263.8977
195.9827, 251.1555
196.4649, 239.4766
196.9470, 228.5657
197.4291, 221.3604
197.9112, 219.8796
198.3933, 223.0608
198.8754, 222.5312
199.3576, 216.7375
199.8397, 211.6404
200.3218, 216.5264
200.8039, 233.4907
201.2860, 245.9626
201.7681, 247.2549
202.2503, 238.1255
202.7324, 233.4067
203.2145, 232.0732
203.6966, 234.7058
204.1787, 245.2241
204.6608, 264.7781
205.1430, 283.5493
205.6251, 299.6052
206.1072, 315.1370
206.5893, 327.3926
207.0714, 329.6157
207.5535, 327.3794
208.0357, 335.5864
208.5178, 363.7891
208.9999, 396.7322
209.4820, 427.4753
209.9641, 451.8879
210.4462, 473.9565
210.9284, 497.7146
211.4105, 524.7917
211.8926, 559.3950
212.3747, 606.2190
212.8568, 647.9250
213.3389, 673.5825
213.8211, 674.2488
214.3032, 690.7402
214.7853, 727.7034
215.2674, 779.2041
215.7495, 829.5239
216.2316, 878.7341
216.7138, 926.8916
217.1959, 972.8401
217.6780, 1013.966
218.1601, 1062.005
218.6422, 1118.018
219.1243, 1180.600
219.6065, 1245.951
220.0886, 1315.832
220.5707, 1387.441
221.0528, 1456.994
221.5349, 1523.392
222.0170, 1590.141
222.4992, 1655.188
222.9813, 1720.479
223.4634, 1797.412
223.9455, 1889.491
224.4276, 1988.635
224.9097, 2089.466
225.3919, 2193.726
225.8740, 2300.882
226.3561, 2412.300
226.8382, 2526.043
227.3203, 2641.343
227.8024, 2761.019
228.2846, 2876.433
228.7667, 2982.895
229.2488, 3071.826
229.7309, 3167.555
230.2130, 3281.737
230.6951, 3407.969
231.1773, 3498.510
231.6594, 3543.886
232.1415, 3563.621
232.6236, 3571.371
233.1057, 3569.160
233.5878, 3551.771
234.0700, 3524.768
234.5521, 3486.096
235.0342, 3402.274
235.5163, 3255.648
235.9984, 3083.702
236.4805, 2914.238
236.9627, 2752.888
237.4448, 2586.759
237.9269, 2412.255
238.4090, 2229.938
238.8911, 2055.944
239.3732, 1889.361
239.8554, 1732.067
240.3375, 1586.005
240.8196, 1452.843
241.3017, 1327.907
241.7838, 1209.362
242.2659, 1097.718
242.7481, 989.3875
243.2302, 880.8352
243.7123, 779.1843
244.1944, 691.3926
244.6765, 621.3887
245.1586, 557.3469
245.6408, 496.5469
246.1229, 438.6626
246.6050, 392.2605
247.0871, 363.2009
247.5692, 339.5320
248.0513, 309.0369
248.5335, 264.5715
249.0156, 227.2947
249.4977, 203.2480
249.9798, 192.5625
250.4619, 179.7788
250.9440, 164.1741
251.4262, 147.1826
251.9083, 129.4646
252.3904, 108.2114
252.8725, 92.15771
253.3546, 85.09399
253.8367, 87.26807
254.3189, 83.19727
254.8010, 69.93042
255.2831, 53.80054
255.7652, 40.94067
256.2473, 31.94702
256.7295, 25.22290
257.2116, 21.68115
257.6937, 21.39478
258.1758, 16.94629
258.6579, 7.223389
259.1400, 5.324951
259.6222, 19.32544
260.1043, 37.14282
260.5864, 50.39111
261.0685, 57.97510
261.5506, 59.87573
262.0327, 51.81445
262.5149, 28.54785
262.9970, 2.793945
263.4791, 12.14136
263.9612, 14.83057
264.4433, 10.83984
264.9254, 1.075439
265.4076, 20.46021
265.8897, 33.84937
266.3718, 40.29370
266.8539, 42.42700
267.3360, 41.41284
267.8181, 35.18262
268.3003, 33.72827
268.7824, 41.49194
269.2645, 57.53516
269.7466, 66.68604
270.2287, 67.80688
270.7108, 64.35913
271.1930, 58.50562
271.6751, 49.31567
272.1572, 42.43506
272.6393, 40.02417
273.1214, 41.31958
273.6035, 40.03223
274.0857, 35.57275
274.5678, 29.99316
275.0499, 24.97583
275.5320, 20.62378
276.0141, 16.15308
276.4962, 9.747559
276.9784, 2.824951
277.4605, 6.271973
277.9426, 22.45288
278.4247, 40.37085
278.9068, 49.82886
279.3889, 50.46021
279.8711, 48.17651
280.3532, 44.02051
280.8353, 37.95679
281.3174, 27.16235
281.7995, 9.924805
282.2816, 2.537842
282.7638, 4.575439
283.2459, 30.84058
283.7280, 49.25049
284.2101, 53.86890
284.6922, 46.91138
285.1743, 31.16284
285.6565, 5.480957
286.1386, 16.55957
286.6207, 17.67798
287.1028, 0.8059080
287.5849, 3.141602
288.0670, 17.90210
288.5492, 49.92456
289.0313, 56.60327
289.5134, 37.29736
289.9955, 15.81055
290.4776, 11.07544
290.9597, 20.20361
291.4419, 29.64868
291.9240, 36.13403
292.4061, 42.80054
292.8882, 59.41797
293.3703, 85.11499
293.8524, 105.1448
294.3346, 105.7654
294.8167, 92.26831
295.2988, 80.55957
295.7809, 74.10425
296.2630, 69.00220
296.7451, 56.50903
297.2273, 38.29224
297.7094, 25.69800
298.1915, 31.85962
298.6736, 48.29004
299.1557, 56.57007
299.6378, 52.18677
300.1200, 43.80200
300.6021, 39.66455
301.0842, 39.81274
301.5663, 44.36938
302.0484, 57.59961
302.5305, 74.03027
303.0127, 85.34473
303.4948, 90.22925
303.9769, 91.41089
304.4590, 90.44824
304.9411, 87.80811
305.4232, 84.86963
305.9054, 80.34888
306.3875, 76.88770
306.8696, 76.00659
307.3517, 77.04004
307.8338, 84.67456
308.3159, 108.4265
308.7981, 140.9854
309.2802, 168.2708
309.7623, 178.2417
310.2444, 183.6262
310.7265, 194.2002
311.2086, 211.2148
311.6908, 231.0505
312.1729, 256.3472
312.6550, 281.7720
313.1371, 299.3892
313.6192, 294.4187
314.1013, 289.7976
314.5835, 300.3367
315.0656, 327.8762
315.5477, 354.7053
316.0298, 370.2236
316.5119, 381.2786
316.9940, 395.6208
317.4762, 417.9702
317.9583, 441.1609
318.4404, 461.6536
318.9225, 479.7805
319.4046, 501.6008
319.8867, 533.6240
320.3689, 569.5723
320.8510, 603.5996
321.3331, 622.7422
321.8152, 649.7180
322.2973, 693.4634
322.7794, 751.9709
323.2616, 806.8582
323.7437, 857.2148
324.2258, 902.9504
324.7079, 944.0051
325.1900, 978.9253
325.6721, 1011.562
326.1543, 1038.316
326.6364, 1060.499
327.1185, 1090.508
327.6006, 1122.813
328.0827, 1168.754
328.5648, 1234.443
329.0470, 1348.229
329.5291, 1442.231
330.0112, 1506.670
330.4933, 1551.197
330.9754, 1602.429
331.4576, 1661.189
331.9397, 1726.349
332.4218, 1799.388
332.9039, 1885.763
333.3860, 1966.390
333.8681, 2037.249
334.3503, 2103.206
334.8324, 2172.306
335.3145, 2244.406
335.7966, 2315.370
336.2787, 2384.611
336.7608, 2452.299
337.2430, 2518.982
337.7251, 2587.383
338.2072, 2648.990
338.6893, 2686.027
339.1714, 2691.762
339.6535, 2705.646
340.1357, 2743.227
340.6178, 2802.010
341.0999, 2846.814
341.5820, 2877.872
342.0641, 2896.510
342.5462, 2900.368
343.0284, 2889.610
343.5105, 2884.697
343.9926, 2894.882
344.4747, 2912.447
344.9568, 2910.778
345.4389, 2889.005
345.9211, 2859.366
346.4032, 2838.806
346.8853, 2821.532
347.3674, 2777.898
347.8495, 2692.338
348.3316, 2589.675
348.8138, 2519.381
349.2959, 2477.723
349.7780, 2431.283
350.2601, 2345.743
350.7422, 2240.055
351.2243, 2152.785
351.7065, 2092.312
352.1886, 2043.439
352.6707, 1992.452
353.1528, 1939.283
353.6349, 1884.958
354.1170, 1831.905
354.5992, 1776.105
355.0813, 1709.327
355.5634, 1627.894
356.0455, 1551.870
356.5276, 1499.777
357.0097, 1462.578
357.4919, 1425.354
357.9740, 1385.510
358.4561, 1340.032
358.9382, 1285.014
359.4203, 1219.979
359.9024, 1154.111
360.3846, 1086.042
360.8667, 1021.530
361.3488, 966.4277
361.8309, 929.3691
362.3130, 896.0781
362.7951, 864.9922
363.2773, 835.2656
363.7594, 798.7979
364.2415, 742.2710
364.7236, 685.5254
365.2057, 641.4263
365.6878, 626.2202
366.1700, 607.8433
366.6521, 578.7378
367.1342, 542.6074
367.6163, 514.5161
368.0984, 500.2803
368.5805, 490.1338
369.0627, 480.4307
369.5448, 470.7827
370.0269, 462.4878
370.5090, 456.4727
370.9911, 451.5181
371.4732, 445.2070
371.9554, 436.6406
372.4375, 428.2280
372.9196, 420.4009
373.4017, 412.8711
373.8838, 406.7622
374.3659, 399.0620
374.8481, 396.7153
375.3302, 410.4399
375.8123, 444.4238
376.2944, 477.2764
376.7765, 503.0664
377.2586, 523.2856
377.7408, 544.8325
378.2229, 566.0947
378.7050, 596.5742
379.1871, 648.8428
379.6692, 721.4814
380.1513, 794.8540
380.6335, 864.5566
381.1156, 932.9004
381.5977, 999.8872
382.0798, 1065.928
382.5619, 1140.678
383.0440, 1237.676
383.5262, 1348.941
384.0083, 1451.048
384.4904, 1539.103
384.9725, 1628.489
385.4546, 1737.170
385.9367, 1862.687
386.4189, 1996.775
386.9010, 2146.148
387.3831, 2297.956
387.8652, 2432.252
388.3473, 2546.013
388.8294, 2669.228
389.3116, 2824.556
389.7937, 2999.837
390.2758, 3180.074
390.7579, 3362.156
391.2400, 3543.469
391.7221, 3724.078
392.2043, 3902.714
392.6864, 4076.719
393.1685, 4245.142
393.6506, 4406.226
394.1327, 4560.491
394.6148, 4708.793
395.0970, 4849.075
395.5791, 4976.397
396.0612, 5095.348
396.5433, 5215.624
397.0254, 5371.080
397.5075, 5501.349
397.9897, 5579.827
398.4718, 5581.890
398.9539, 5584.215
399.4360, 5592.343
399.9181, 5599.086
400.4002, 5593.862
400.8824, 5570.035
401.3645, 5544.544
401.8466, 5527.938
402.3287, 5521.867
402.8108, 5478.250
403.2929, 5387.150
403.7751, 5274.372
404.2572, 5159.137
404.7393, 5038.632
405.2214, 4930.339
405.7035, 4846.825
406.1856, 4773.231
406.6678, 4660.152
407.1499, 4503.317
407.6320, 4333.332
408.1141, 4165.923
408.5962, 4000.600
409.0783, 3838.913
409.5605, 3680.428
410.0426, 3528.906
410.5247, 3396.332
411.0068, 3280.080
411.4889, 3158.369
411.9710, 3009.796
412.4532, 2852.649
412.9353, 2718.729
413.4174, 2609.840
413.8995, 2508.881
414.3816, 2398.846
414.8637, 2288.444
415.3459, 2187.791
415.8280, 2102.314
416.3101, 2024.396
416.7922, 1950.609
417.2743, 1881.917
417.7564, 1811.353
418.2386, 1729.948
418.7207, 1648.348
419.2028, 1576.744
419.6849, 1520.167
420.1670, 1463.998
420.6491, 1400.135
421.1313, 1332.860
421.6134, 1270.095
422.0955, 1208.990
422.5776, 1158.106
423.0597, 1122.056
423.5418, 1105.256
424.0240, 1081.838
424.5061, 1039.864
424.9882, 997.9004
425.4703, 973.3770
425.9524, 985.3130
426.4345, 983.0420
426.9167, 953.6792
427.3988, 902.5688
427.8809, 864.5391
428.3630, 843.5576
428.8451, 827.4116
429.3272, 809.9458
429.8094, 790.6465
430.2915, 774.4155
430.7736, 762.5718
431.2557, 752.3589
431.7378, 741.2095
432.2199, 729.3174
432.7021, 709.9990
433.1842, 675.8506
433.6663, 632.5684
434.1484, 600.4536
434.6305, 580.2695
435.1126, 561.5786
435.5948, 526.5005
436.0769, 484.8379
436.5590, 465.1353
437.0411, 488.0083
437.5232, 518.8970
438.0053, 514.6743
438.4875, 482.6030
438.9696, 451.9355
439.4517, 446.0610
439.9338, 446.4316
440.4159, 433.4170
440.8980, 399.9346
441.3802, 370.1501
441.8623, 363.9175
442.3444, 366.9832
442.8265, 359.0098
443.3086, 316.7610
443.7907, 278.3496
444.2729, 258.5774
444.7550, 258.2986
445.2371, 261.0352
445.7192, 271.4507
446.2013, 279.4529
446.6834, 278.1641
447.1656, 259.8135
447.6477, 243.5884
448.1298, 232.2324
448.6119, 222.9514
449.0940, 207.2573
449.5761, 177.2156
450.0583, 155.4766
450.5404, 154.9915
451.0225, 179.0391
451.5046, 187.9485
451.9867, 177.0339
452.4688, 160.8589
452.9510, 158.1201
453.4331, 169.3025
453.9152, 177.9678
454.3973, 180.4897
454.8794, 177.4414
455.3615, 167.3228
455.8437, 150.3535
456.3258, 136.9060
456.8079, 137.6577
457.2900, 146.6924
457.7721, 151.8445
458.2542, 151.7715
458.7364, 146.7517
459.2185, 130.7478
459.7006, 110.0605
460.1827, 98.44751
460.6648, 113.9426
461.1469, 131.6365
461.6291, 131.7244
462.1112, 114.4641
462.5933, 97.79028
463.0754, 86.74341
463.5575, 81.22876
464.0396, 81.94702
464.5218, 101.0239
465.0039, 110.2776
465.4860, 91.83423
465.9681, 59.18872
466.4502, 47.66187
466.9323, 85.56445
467.4145, 118.1519
467.8966, 129.3940
468.3787, 116.5012
468.8608, 95.76782
469.3429, 60.07324
469.8250, 24.53271
470.3072, 7.076172
470.7893, 14.10059
471.2714, 13.32764
471.7535, 4.044922
472.2356, 31.47021
472.7177, 43.74609
473.1999, 39.00635
473.6820, 36.33301
474.1641, 51.35156
474.6462, 79.33081
475.1284, 98.80518
475.6105, 108.0923
476.0926, 110.9670
476.5747, 110.4688
477.0568, 106.8535
477.5389, 100.4758
478.0211, 86.27490
478.5032, 73.39600
478.9853, 74.50977
479.4674, 87.32520
479.9495, 96.88110
480.4316, 91.91797
480.9138, 81.73291
481.3959, 73.29980
481.8780, 67.58813
482.3601, 64.42432
482.8422, 67.65161
483.3243, 72.56104
483.8065, 71.91699
484.2886, 62.06812
484.7707, 48.87012
485.2528, 31.89600
485.7349, 11.22949
486.2170, 5.708740
486.6992, 17.51367
487.1813, 27.09448
487.6634, 36.29004
488.1455, 45.17334
488.6276, 52.82739
489.1097, 57.10034
489.5919, 62.21924
490.0740, 80.29932
490.5561, 113.7310
491.0382, 139.4624
491.5203, 142.4299
492.0024, 129.3916
492.4846, 133.0710
492.9667, 154.2429
493.4488, 177.5491
493.9309, 185.5422
494.4130, 185.1196
494.8951, 194.3887
495.3773, 222.7078
495.8594, 250.6106
496.3415, 250.1531
496.8236, 233.0229
497.3057, 228.8984
497.7878, 270.2478
498.2700, 315.6694
498.7521, 331.5752
499.2342, 313.2776
499.7163, 309.5713
500.1984, 357.5574
500.6805, 416.9417
501.1627, 455.5981
501.6448, 451.4092
502.1269, 446.0188
502.6090, 444.2378
503.0911, 443.9419
503.5732, 438.8342
504.0554, 423.8491
504.5375, 411.9214
505.0196, 409.6211
505.5017, 418.4478
505.9838, 416.4424
506.4659, 399.5483
506.9481, 381.2151
507.4302, 375.7874
507.9123, 383.3052
508.3944, 393.7432
508.8765, 407.2478
509.3586, 419.6958
509.8408, 424.5063
510.3229, 421.7051
510.8050, 411.8296
511.2871, 384.0569
511.7692, 353.7144
512.2513, 348.5623
512.7335, 370.1965
513.2156, 391.4851
513.6977, 391.8750
514.1798, 381.6189
514.6619, 372.5806
515.1440, 368.9116
515.6262, 366.2537
516.1083, 361.1038
516.5904, 355.3894
517.0725, 354.7078
517.5546, 364.6860
518.0367, 376.4189
518.5189, 386.6125
519.0010, 394.4658
519.4831, 399.8296
519.9652, 399.0369
520.4473, 401.0884
520.9294, 415.2100
521.4116, 446.9783
521.8937, 470.8035
522.3758, 482.4585
522.8579, 485.3623
523.3400, 485.9556
523.8221, 483.7771
524.3043, 483.8875
524.7864, 488.0112
525.2685, 497.2317
525.7506, 516.3796
526.2327, 544.2876
526.7148, 569.1707
527.1970, 580.2644
527.6791, 584.2483
528.1612, 590.2339
528.6433, 598.6255
529.1254, 609.8066
529.6075, 624.4871
530.0897, 641.0461
530.5718, 658.7307
531.0539, 689.8708
531.5360, 712.7495
532.0181, 708.5430
532.5002, 674.2649
532.9824, 657.6541
533.4645, 679.0103
533.9466, 712.3538
534.4287, 742.2559
534.9108, 771.6597
535.3929, 792.9595
535.8751, 803.3477
536.3572, 808.4487
536.8393, 817.3245
537.3214, 829.9390
537.8035, 841.4121
538.2856, 850.7302
538.7678, 858.8503
539.2499, 869.3020
539.7320, 882.0249
540.2141, 894.4836
540.6962, 906.0781
541.1783, 915.3662
541.6605, 918.0674
542.1426, 912.3611
542.6247, 908.4351
543.1068, 917.5852
543.5889, 935.0945
544.0710, 952.3206
544.5532, 963.4961
545.0353, 974.9229
545.5174, 992.4268
545.9995, 1014.132
546.4816, 1029.415
546.9637, 1028.109
547.4459, 1025.289
547.9280, 1028.559
548.4101, 1039.586
548.8922, 1052.869
549.3743, 1075.027
549.8564, 1093.904
550.3386, 1096.960
550.8207, 1082.905
551.3028, 1055.272
551.7849, 1009.135
552.2670, 954.2913
552.7491, 920.5322
553.2313, 908.6399
553.7134, 896.5381
554.1955, 872.0942
554.6776, 838.4871
555.1597, 801.9653
555.6418, 762.8262
556.1240, 727.9087
556.6061, 709.5876
557.0882, 697.1282
557.5703, 674.3269
558.0524, 632.0105
558.5345, 588.9214
559.0167, 554.7046
559.4988, 527.5959
559.9809, 505.1135
560.4630, 492.8918
560.9451, 478.5874
561.4272, 456.6240
561.9094, 426.8704
562.3915, 400.4004
562.8736, 379.3083
563.3557, 359.2285
563.8378, 338.5303
564.3199, 318.4429
564.8021, 292.1711
565.2842, 257.9556
565.7663, 220.8203
566.2484, 185.8035
566.7305, 152.7532
567.2126, 130.7537
567.6948, 126.5300
568.1769, 130.0325
568.6590, 119.7493
569.1411, 98.42407
569.6232, 82.28687
570.1053, 90.08105
570.5875, 103.1362
571.0696, 99.13184
571.5517, 75.75708
572.0338, 51.61084
572.5159, 34.81958
572.9980, 22.89990
573.4802, 13.92139
573.9623, 10.01392
574.4444, 5.603271
574.9265, 2.617676
575.4086, 11.44678
575.8907, 13.80176
576.3729, 3.515381
576.8550, 2.854248
577.3371, 5.3710002E-03
577.8192, 11.08325
578.3013, 20.86353
578.7834, 29.29199
579.2656, 36.09106
579.7477, 40.95679
580.2298, 43.98975
580.7119, 44.62549
581.1940, 42.17798
581.6761, 40.98340
582.1583, 51.00391
582.6404, 65.51245
583.1225, 69.34082
583.6046, 48.18018
584.0867, 26.47046
584.5688, 26.00464
585.0510, 39.76147
585.5331, 48.12720
586.0152, 39.59058
586.4973, 27.71777
586.9794, 17.20435
587.4615, 8.122803
587.9437, 2.914795
588.4258, 3.996826
588.9079, 6.644043
589.3900, 8.356934
589.8721, 10.09277
590.3542, 7.711182
590.8364, 0.3803710
591.3185, 10.08130
591.8006, 24.89771
592.2827, 43.84888
592.7648, 48.07129
593.2469, 23.28125
593.7291, 11.45874
594.2112, 16.07520
594.6933, 4.703369
595.1754, 26.29663
595.6575, 27.97534
596.1396, 26.35669
596.6218, 41.63452
597.1039, 76.44092
597.5860, 103.9897
598.0681, 102.7803
598.5502, 93.34839
599.0323, 92.37720
599.5145, 113.3909
599.9966, 127.6204
600.4787, 131.2485
600.9608, 127.9390
601.4429, 121.8186
601.9250, 107.1414
602.4072, 103.9004
602.8893, 120.3206
603.3714, 151.0469
603.8535, 174.7849
604.3356, 191.9141
604.8177, 199.0471
605.2999, 186.8459
605.7820, 163.3018
606.2641, 153.0505
606.7462, 157.5073
607.2283, 162.5918
607.7104, 153.1284
608.1926, 138.5974
608.6747, 131.2034
609.1568, 136.0122
609.6389, 144.5796
610.1210, 152.1008
610.6031, 161.0752
611.0853, 175.4446
611.5674, 204.2583
612.0495, 229.1692
612.5316, 246.4607
613.0137, 256.8088
613.4958, 263.5259
613.9780, 266.2024
614.4601, 266.0110
614.9422, 261.9495
615.4243, 254.1985
615.9064, 249.6726
616.3885, 247.7253
616.8707, 252.9673
617.3528, 275.8496
617.8349, 309.0583
618.3170, 334.3975
618.7991, 346.5442
619.2813, 354.7646
619.7634, 365.9434
620.2455, 379.0684
620.7276, 392.6155
621.2097, 399.4670
621.6918, 413.1025
622.1740, 445.5815
622.6561, 491.8936
623.1382, 525.4834
623.6203, 529.5862
624.1024, 536.4182
624.5845, 557.3074
625.0667, 593.5286
625.5488, 630.2334
626.0309, 668.2917
626.5130, 705.1187
626.9951, 734.5588
627.4772, 758.2185
627.9594, 796.5627
628.4415, 853.7070
628.9236, 917.7502
629.4057, 966.1062
629.8878, 1009.911
630.3699, 1075.096
630.8521, 1187.061
631.3342, 1304.374
631.8163, 1392.830
632.2984, 1462.698
632.7805, 1540.353
633.2626, 1633.493
633.7448, 1736.827
634.2269, 1851.439
634.7090, 1977.820
635.1911, 2098.035
635.6732, 2201.640
636.1553, 2312.873
636.6375, 2443.104
637.1196, 2591.359
637.6017, 2764.490
638.0838, 2963.509
638.5659, 3179.083
639.0480, 3398.818
639.5302, 3623.857
640.0123, 3867.980
640.4944, 4139.824
640.9765, 4421.784
641.4586, 4700.719
641.9407, 4981.674
642.4229, 5280.808
642.9050, 5608.753
643.3871, 5947.320
643.8692, 6289.215
644.3513, 6634.439
644.8334, 6991.875
645.3156, 7371.481
645.7977, 7753.423
646.2798, 8133.936
646.7619, 8508.934
647.2440, 8894.336
647.7261, 9291.318
648.2083, 9689.961
648.6904, 10068.16
649.1725, 10428.79
649.6546, 10809.24
650.1367, 11214.71
650.6188, 11617.90
651.1010, 11984.51
651.5831, 12320.23
652.0652, 12640.65
652.5473, 12979.80
653.0294, 13264.54
653.5115, 13449.93
653.9937, 13547.78
654.4758, 13579.34
654.9579, 13585.12
655.4400, 13489.15
655.9221, 13252.53
656.4042, 12886.27
656.8864, 12466.37
657.3685, 11990.22
657.8506, 11465.21
658.3327, 10885.31
658.8148, 10251.10
659.2969, 9610.748
659.7791, 8955.321
660.2612, 8314.044
660.7433, 7712.919
661.2254, 7149.812
661.7075, 6624.191
662.1896, 6133.803
662.6718, 5689.717
663.1539, 5308.878
663.6360, 4975.992
664.1181, 4674.660
664.6002, 4411.789
665.0823, 4162.119
665.5645, 3916.326
666.0466, 3680.104
666.5287, 3465.240
667.0108, 3278.474
667.4929, 3104.760
667.9750, 2942.164
668.4572, 2790.409
668.9393, 2651.707
669.4214, 2525.985
669.9035, 2413.591
670.3856, 2317.556
670.8677, 2235.440
671.3499, 2166.754
671.8320, 2111.874
672.3141, 2053.240
672.7962, 1967.899
673.2783, 1878.011
673.7604, 1807.235
674.2426, 1765.019
674.7247, 1728.216
675.2068, 1696.365
675.6889, 1663.357
676.1710, 1620.897
676.6531, 1559.384
677.1353, 1505.142
677.6174, 1460.706
678.0995, 1423.417
678.5816, 1390.112
679.0637, 1360.970
679.5458, 1328.976
680.0280, 1287.250
680.5101, 1246.094
680.9922, 1231.281
681.4743, 1237.454
681.9564, 1236.729
682.4385, 1205.825
682.9207, 1166.048
683.4028, 1136.061
683.8849, 1115.767
684.3670, 1095.840
684.8491, 1074.556
685.3312, 1051.250
685.8134, 1024.466
686.2955, 991.7224
686.7776, 965.0239
687.2597, 947.5872
687.7418, 931.8398
688.2239, 908.9038
688.7061, 878.5479
689.1882, 859.7095
689.6703, 856.9646
690.1524, 860.1973
690.6345, 857.0522
691.1166, 849.0159
691.5988, 839.7300
692.0809, 830.6304
692.5630, 820.4851
693.0451, 809.1055
693.5272, 795.7896
694.0093, 779.0889
694.4915, 752.1736
694.9736, 728.1184
695.4557, 711.2173
695.9378, 700.1401
696.4199, 688.1616
696.9020, 674.7817
697.3842, 663.6138
697.8663, 658.0559
698.3484, 656.4907
698.8305, 644.9773
699.3126, 623.4875
699.7947, 606.7754
700.2769, 612.2483
700.7590, 626.4890
701.2411, 628.3723
701.7232, 615.5825
702.2053, 596.9026
702.6874, 570.1318
703.1696, 544.7205
703.6517, 529.9614
704.1338, 537.6597
704.6159, 537.0454
705.0980, 519.6521
705.5801, 498.1113
706.0623, 487.8215
706.5444, 493.2400
707.0265, 491.2126
707.5086, 478.3965
707.9907, 457.3333
708.4728, 425.9624
708.9550, 387.6318
709.4371, 362.5227
709.9192, 366.3198
710.4013, 376.5095
710.8834, 367.5146
711.3655, 345.4966
711.8477, 326.9875
712.3298, 322.7629
712.8119, 319.6614
713.2940, 311.5588
713.7761, 298.6809
714.2582, 288.4897
714.7404, 282.9219
715.2225, 276.8801
715.7046, 268.3049
716.1867, 257.3174
716.6688, 243.1428
717.1509, 225.3545
717.6331, 209.4949
718.1152, 201.5195
718.5973, 198.5186
719.0794, 195.2095
719.5615, 191.1494
720.0436, 185.2046
720.5258, 171.8569
721.0079, 158.7761
721.4900, 154.5896
721.9721, 171.7407
722.4542, 175.5361
722.9363, 147.6880
723.4185, 113.3032
723.9006, 97.25366
724.3827, 104.4866
724.8648, 115.0947
725.3469, 129.4490
725.8290, 141.6541
726.3112, 139.0688
726.7933, 124.3682
727.2754, 111.6279
727.7575, 106.6648
728.2396, 104.1951
728.7217, 100.9341
729.2039, 95.75562
729.6860, 86.01147
730.1681, 56.23145
730.6502, 36.44189
731.1323, 45.90137
731.6144, 78.51221
732.0966, 95.34058
732.5787, 89.79541
733.0608, 80.13696
733.5429, 72.10327
734.0250, 65.43433
734.5071, 58.55957
734.9893, 51.45068
735.4714, 44.94751
735.9535, 41.93213
736.4356, 39.00757
736.9177, 26.67676
737.3998, 5.312744
737.8820, 8.351807
738.3641, 3.235596
738.8462, 20.86768
739.3283, 30.56958
739.8104, 28.44604
740.2925, 26.08984
740.7747, 22.61914
741.2568, 20.91455
741.7389, 24.59985
742.2210, 35.52222
742.7031, 38.80200
743.1852, 32.56177
743.6674, 22.51025
744.1495, 13.22949
744.6316, 5.485840
745.1137, 2.416016
745.5958, 7.387207
746.0779, 9.141357
746.5601, 5.909424
747.0422, 27.90747
747.5243, 43.11523
748.0064, 42.21143
748.4885, 41.52710
748.9706, 43.24634
749.4528, 46.62842
749.9349, 51.10498
750.4170, 57.66602
750.8991, 61.44580
751.3812, 61.36670
751.8633, 57.82739
752.3455, 50.01025
752.8276, 38.87402
753.3097, 28.88599
753.7918, 19.71191
754.2739, 14.79370
754.7560, 20.85376
755.2382, 34.52344
755.7203, 44.45166
756.2024, 39.55518
756.6845, 37.58423
757.1666, 50.78906
757.6487, 75.40820
758.1309, 81.50220
758.6130, 63.24023
759.0951, 41.74854
759.5772, 26.12866
760.0593, 15.35913
760.5414, 3.795898
761.0236, 8.589111
761.5057, 19.31787
761.9878, 27.86914
762.4699, 33.12158
762.9520, 31.65210
763.4341, 23.25562
763.9163, 18.54199
764.3984, 23.72412
764.8805, 32.17700
765.3626, 39.85303
765.8447, 46.04590
766.3268, 54.83228
766.8090, 68.17212
767.2911, 80.10278
767.7732, 81.48315
768.2553, 74.64062
768.7374, 83.61157
769.2195, 111.1558
769.7017, 142.3286
770.1838, 166.9714
770.6659, 185.0342
771.1480, 193.8518
771.6301, 187.6819
772.1122, 189.9341
772.5944, 218.9963
773.0765, 255.1631
773.5586, 278.5310
774.0407, 279.5583
774.5228, 286.8906
775.0049, 300.1299
775.4871, 322.0659
775.9692, 363.0288
776.4513, 419.8706
776.9334, 461.4792
777.4155, 479.8818
777.8976, 486.7515
778.3798, 486.6790
778.8619, 486.0657
779.3440, 496.0190
779.8261, 530.5593
780.3082, 562.7231
780.7903, 583.9714
781.2725, 597.2170
781.7546, 607.6418
782.2367, 609.6587
782.7188, 622.2310
783.2009, 650.5442
783.6830, 688.0681
784.1652, 723.2007
784.6473, 755.5117
785.1294, 783.3616
785.6115, 803.0244
786.0936, 822.0139
786.5757, 851.7151
787.0579, 887.5417
787.5400, 918.6648
788.0221, 943.4548
788.5042, 960.6245
788.9863, 962.7583
789.4684, 956.7925
789.9506, 967.2227
790.4327, 1005.384
790.9148, 1027.769
791.3969, 1015.329
791.8790, 982.1716
792.3611, 968.5369
792.8433, 972.7266
793.3254, 983.0205
793.8075, 1000.114
794.2896, 1015.255
794.7717, 1017.414
795.2538, 1009.527
795.7360, 1003.414
796.2181, 1008.258
796.7002, 1010.911
797.1823, 1004.948
797.6644, 991.9604
798.1465, 985.7563
798.6287, 988.7341
799.1108, 989.2925
799.5929, 979.9297
800.0750, 964.6279
800.5571, 956.5615
801.0392, 955.4746
801.5214, 954.5210
802.0035, 949.5369
802.4856, 941.3521
802.9677, 926.2805
803.4498, 905.7949
803.9319, 899.4910
804.4141, 935.9580
804.8962, 958.6533
805.3783, 940.6160
805.8604, 884.8342
806.3425, 857.6389
806.8246, 862.4600
807.3068, 874.3831
807.7889, 879.0063
808.2710, 877.3101
808.7531, 869.4526
809.2352, 856.8462
809.7173, 849.2505
810.1995, 856.8931
810.6816, 868.6160
811.1637, 875.1560
811.6458, 875.4409
812.1279, 880.4033
812.6100, 894.9946
813.0922, 905.5098
813.5743, 903.5295
814.0564, 890.6357
814.5385, 882.9202
815.0206, 879.5754
815.5027, 876.7061
815.9849, 872.6543
816.4670, 870.4634
816.9491, 874.9446
817.4312, 885.7595
817.9133, 891.1982
818.3954, 882.2935
818.8776, 869.4927
819.3597, 856.5906
819.8418, 842.4028
820.3239, 839.4414
820.8060, 852.4268
821.2881, 864.6995
821.7703, 860.6624
822.2524, 845.5249
822.7345, 848.2046
823.2166, 868.9985
823.6987, 889.2903
824.1808, 895.1917
824.6630, 893.2437
825.1451, 888.2944
825.6272, 880.6003
826.1093, 873.3601
826.5914, 868.3442
827.0735, 862.8328
827.5557, 853.5454
828.0378, 839.2722
828.5199, 838.9863
829.0020, 854.9600
829.4841, 871.4907
829.9662, 877.0959
830.4484, 873.9390
830.9305, 863.8994
831.4126, 847.3828
831.8947, 832.9993
832.3768, 831.7322
832.8589, 830.4302
833.3411, 818.9749
833.8232, 793.7756
834.3053, 771.8489
834.7874, 752.0054
835.2695, 737.5442
835.7516, 731.6665
836.2338, 733.9417
836.7159, 739.6562
837.1980, 748.9373
837.6801, 754.3535
838.1622, 745.9409
838.6443, 733.0652
839.1265, 730.7073
839.6086, 740.6174
840.0907, 734.3547
840.5728, 681.8535
841.0549, 630.1179
841.5370, 605.6343
842.0192, 610.6768
842.5013, 599.8821
842.9834, 570.7876
843.4655, 537.3481
843.9476, 506.8323
844.4298, 479.8206
844.9119, 459.8140
845.3940, 446.0649
845.8762, 427.8955
846.3583, 388.3748
846.8404, 350.5808
847.3225, 334.2832
847.8046, 343.2063
848.2867, 336.2612
848.7689, 304.2778
849.2510, 270.6440
849.7331, 246.4756
850.2152, 230.6555
850.6973, 217.1875
851.1794, 205.9272
851.6616, 193.9009
852.1437, 180.5735
852.6258, 164.3499
853.1079, 140.5461
853.5900, 110.4248
854.0721, 85.42358
854.5543, 72.63647
855.0364, 62.50806
855.5185, 50.39087
856.0006, 37.27856
856.4827, 35.39307
856.9648, 47.64575
857.4470, 51.21436
857.9291, 26.14868
858.4112, 11.62524
858.8933, 26.84888
859.3754, 24.05640
859.8575, 21.88208
860.3397, 33.05566
860.8218, 44.47021
861.3039, 50.16235
861.7860, 50.01172
862.2681, 44.92603
862.7502, 27.80640
863.2324, 22.87646
863.7145, 43.22925
864.1966, 77.27002
864.6787, 93.85767
865.1608, 93.65283
865.6429, 81.51221
866.1251, 43.20874
866.6072, 8.720947
867.0893, 8.963379
867.5714, 31.12744
868.0535, 39.91309
868.5356, 17.49097
869.0178, 6.632324
869.4999, 26.66602
869.9820, 46.03271
870.4641, 73.66333
870.9462, 109.5435
871.4283, 143.8696
871.9105, 171.6567
872.3926, 200.5801
872.8747, 246.4810
873.3568, 300.0410
873.8389, 343.0881
874.3210, 351.1711
874.8032, 369.5427
875.2853, 408.4482
875.7674, 464.5396
876.2495, 536.1379
876.7316, 625.3325
877.2137, 720.8989
877.6959, 823.2974
878.1780, 925.6729
878.6601, 1014.377
879.1422, 1095.953
879.6243, 1184.887
880.1064, 1285.237
880.5886, 1393.133
881.0707, 1508.193
881.5528, 1629.493
882.0349, 1754.995
882.5170, 1882.174
882.9991, 2018.189
883.4813, 2165.678
883.9634, 2316.370
884.4455, 2466.101
884.9276, 2612.356
885.4097, 2736.415
885.8918, 2833.643
886.3740, 2939.646
886.8561, 3094.944
887.3382, 3261.107
887.8203, 3402.933
888.3024, 3508.275
888.7845, 3612.936
889.2667, 3713.864
889.7488, 3817.567
890.2309, 3936.213
890.7130, 4065.322
891.1951, 4161.518
891.6772, 4224.170
892.1594, 4270.706
892.6415, 4317.291
893.1236, 4351.742
893.6057, 4356.691
894.0878, 4331.744
894.5699, 4310.708
895.0521, 4324.054
895.5342, 4314.805
896.0163, 4259.074
896.4984, 4160.269
896.9805, 4051.272
897.4626, 3931.194
897.9448, 3813.315
898.4269, 3712.623
898.9090, 3614.983
899.3911, 3501.524
899.8732, 3375.652
900.3553, 3245.251
900.8375, 3105.683
901.3196, 2974.669
901.8017, 2860.683
902.2838, 2758.752
902.7659, 2652.440
903.2480, 2542.133
903.7302, 2430.859
904.2123, 2315.589
904.6944, 2208.531
905.1765, 2133.991
905.6586, 2078.028
906.1407, 2010.019
906.6229, 1901.656
907.1050, 1801.222
907.5871, 1726.859
908.0692, 1667.852
908.5513, 1610.991
909.0334, 1557.654
909.5156, 1499.862
909.9977, 1435.652
910.4798, 1371.330
910.9619, 1314.529
911.4440, 1263.355
911.9261, 1214.940
912.4083, 1168.534
912.8904, 1124.767
913.3725, 1082.762
913.8546, 1045.069
914.3367, 1014.392
914.8188, 993.0828
915.3010, 968.7581
915.7831, 941.4138
916.2652, 911.3301
916.7473, 871.5601
917.2294, 832.2590
917.7115, 821.2200
918.1937, 837.5032
918.6758, 849.2747
919.1579, 836.0042
919.6400, 815.4707
920.1221, 799.4360
920.6042, 788.1035
921.0864, 762.8718
921.5685, 715.4473
922.0506, 675.6440
922.5327, 660.9165
923.0148, 663.1636
923.4969, 664.7158
923.9791, 666.3994
924.4612, 666.0161
924.9433, 660.1160
925.4254, 650.6548
925.9075, 636.3508
926.3896, 621.7581
926.8718, 615.0930
927.3539, 619.8088
927.8360, 619.8191
928.3181, 611.0098
928.8002, 598.4514
929.2823, 588.3003
929.7645, 581.5708
930.2466, 582.8662
930.7287, 597.8821
931.2108, 609.4226
931.6929, 607.5378
932.1750, 597.0725
932.6572, 581.7817
933.1393, 552.8381
933.6214, 544.9771
934.1035, 565.7690
934.5856, 587.0005
935.0677, 576.3506
935.5499, 546.1165
936.0320, 532.4014
936.5141, 538.1858
936.9962, 540.0981
937.4783, 515.7996
937.9604, 489.4583
938.4426, 478.8972
938.9247, 484.9360
939.4068, 488.1377
939.8889, 489.9595
940.3710, 483.7827
940.8531, 461.0110
941.3353, 431.0071
941.8174, 420.0120
942.2995, 423.8914
942.7816, 426.6331
943.2637, 426.3198
943.7458, 417.9756
944.2280, 392.6318
944.7101, 357.9036
945.1922, 333.6443
945.6743, 322.9653
946.1564, 315.1084
946.6385, 308.7363
947.1207, 300.7756
947.6028, 284.0676
948.0849, 264.2737
948.5670, 253.6978
949.0491, 258.3389
949.5313, 263.8125
950.0134, 263.9058
950.4955, 261.7600
950.9776, 259.8203
951.4597, 256.8926
951.9418, 259.0845
952.4240, 268.3745
952.9061, 274.3237
953.3882, 261.2678
953.8703, 241.2812
954.3524, 240.4956
954.8345, 258.6052
955.3167, 270.2395
955.7988, 249.2666
956.2809, 232.6167
956.7630, 241.2061
957.2451, 270.2825
957.7272, 291.1543
958.2094, 303.9014
958.6915, 308.6084
959.1736, 299.8154
959.6557, 287.4417
960.1378, 290.0962
960.6199, 304.2017
961.1021, 319.6179
961.5842, 340.0327
962.0663, 348.1636
962.5484, 329.0061
963.0305, 303.4070
963.5126, 300.5344
963.9948, 322.1343
964.4769, 342.8750
964.9590, 359.8872
965.4411, 375.7295
965.9232, 397.7876
966.4053, 417.7871
966.8875, 422.8499
967.3696, 407.5601
967.8517, 398.6245
968.3338, 400.8760
968.8159, 411.3035
969.2980, 431.5295
969.7802, 460.5483
970.2623, 481.9473
970.7444, 495.7695
971.2265, 507.4978
971.7086, 520.3132
972.1907, 533.0867
972.6729, 542.4583
973.1550, 550.4480
973.6371, 564.5127
974.1192, 593.7273
974.6013, 616.4673
975.0834, 629.7581
975.5656, 633.6892
976.0477, 623.7966
976.5298, 603.5176
977.0119, 588.3948
977.4940, 581.5408
977.9761, 583.0181
978.4583, 600.5293
978.9404, 622.3127
979.4225, 636.7839
979.9046, 644.9700
980.3867, 637.4243
980.8688, 608.2358
981.3510, 579.6443
981.8331, 573.8101
982.3152, 580.8552
982.7973, 571.1113
983.2794, 546.2581
983.7615, 525.5264
984.2437, 530.0271
984.7258, 530.4292
985.2079, 505.2117
985.6900, 463.7446
986.1721, 439.2976
986.6542, 435.3394
987.1364, 426.8760
987.6185, 404.8203
988.1006, 379.3835
988.5827, 369.0984
989.0648, 364.9702
989.5469, 350.1250
990.0291, 311.1370
990.5112, 277.5215
990.9933, 257.6440
991.4754, 243.6831
991.9575, 232.3108
992.4396, 223.8950
992.9218, 202.4426
993.4039, 166.6187
993.8860, 133.8105
994.3681, 122.3271
994.8502, 117.3345
995.3323, 102.9358
995.8145, 79.30127
996.2966, 63.82349
996.7787, 66.25903
997.2608, 63.41797
997.7429, 46.79102
998.2250, 22.17285
998.7072, 0.6972660
999.1893, 16.28113
999.6714, 22.82983
1000.154, 11.58984
1000.636, 0.9448240
1001.118, 5.137451
1001.600, 4.251099
1002.082, 2.625488
1002.564, 1.349854
1003.046, 4.220459
1003.528, 16.21411
1004.010, 24.91003
1004.493, 15.60620
1004.975, 1.755005
1005.457, 5.400513
1005.939, 5.075073
1006.421, 14.64929
1006.903, 15.25586
1007.385, 14.95850
1007.867, 17.61169
1008.349, 22.03406
1008.832, 22.49243
1009.314, 18.89941
1009.796, 15.88940
1010.278, 14.87231
1010.760, 15.44080
1011.242, 18.23059
1011.724, 21.94836
1012.206, 24.65027
1012.689, 26.78027
1013.171, 25.56665
1013.653, 18.71301
1014.135, 12.20007
1014.617, 11.79688
1015.099, 16.51709
1015.581, 23.93970
1016.063, 33.46765
1016.545, 36.37817
1017.028, 16.26721
1017.510, 2.512573
1017.992, 2.8809000E-02
1018.474, 19.31812
1018.956, 25.84949
1019.438, 17.34180
1019.920, 4.210938
1020.402, 13.61279
1020.885, 28.42712
1021.367, 24.45032
1021.849, 9.370605
1022.331, 2.330322
1022.813, 5.989258
1023.295, 7.142944
1023.777, 6.561401
1024.259, 4.481445
1024.741, 1.626099
1025.224, 2.020264
1025.706, 13.10742
1026.188, 31.56323
1026.670, 44.74792
1027.152, 34.37439
1027.634, 22.63196
1028.116, 32.93884
1028.598, 60.13623
1029.080, 70.94714
1029.563, 54.76904
1030.045, 43.85120
1030.527, 46.56995
1031.009, 55.48621
1031.491, 58.63953
1031.973, 57.70276
1032.455, 56.36011
1032.937, 55.03723
1033.420, 54.97412
1033.902, 56.71960
1034.384, 60.01355
1034.866, 65.29834
1035.348, 72.79578
1035.830, 75.22192
1036.312, 72.31128
1036.794, 72.69812
1037.276, 87.74573
1037.759, 104.2532
1038.241, 106.2966
1038.723, 98.09009
1039.205, 93.53870
1039.687, 102.4626
1040.169, 101.4650
1040.651, 84.16431
1041.133, 61.70789
1041.615, 49.13501
1042.098, 45.39087
1042.580, 48.77271
1043.062, 59.49512
1043.544, 71.75562
1044.026, 91.45471
1044.508, 102.8474
1044.990, 90.58704
1045.472, 56.81982
1045.955, 47.62549
1046.437, 64.62244
1046.919, 80.14160
1047.401, 77.98779
1047.883, 71.05310
1048.365, 75.93481
1048.847, 87.12317
1049.329, 94.04785
1049.812, 90.94482
1050.294, 87.07910
1050.776, 81.37769
1051.258, 77.58911
1051.740, 81.24707
1052.222, 90.16541
1052.704, 96.47778
1053.186, 99.64905
1053.668, 101.8114
1054.151, 103.5581
1054.633, 105.2810
1055.115, 106.1157
1055.597, 107.0585
1056.079, 113.4615
1056.561, 125.9238
1057.043, 134.8704
1057.525, 138.6409
1058.007, 137.9329
1058.490, 126.8069
1058.972, 112.5551
1059.454, 105.9882
1059.936, 112.8942
1060.418, 119.5300
1060.900, 127.4773
1061.382, 129.6132
1061.864, 116.4381
1062.347, 95.65869
1062.829, 90.29919
1063.311, 97.97241
1063.793, 110.4442
1064.275, 136.9834
1064.757, 152.7916
1065.239, 138.6888
1065.721, 112.0040
1066.203, 100.6582
1066.686, 105.3218
1067.168, 116.6582
1067.650, 135.0824
1068.132, 146.3794
1068.614, 128.8848
1069.096, 103.3269
1069.578, 88.89941
1070.060, 88.70996
1070.542, 95.56873
1071.025, 115.5144
1071.507, 126.3132
1071.989, 115.0842
1072.471, 93.46875
1072.953, 85.60632
1073.435, 86.75537
1073.917, 85.32788
1074.399, 75.30481
1074.882, 68.25708
1075.364, 65.07874
1075.846, 66.02600
1076.328, 75.34607
1076.810, 93.03064
1077.292, 91.16943
1077.774, 70.49817
1078.256, 57.37561
1078.739, 82.60791
1079.221, 108.3047
1079.703, 100.8391
1080.185, 70.66711
1080.667, 60.52625
1081.149, 75.86987
1081.631, 92.17578
1082.113, 107.0911
1082.595, 115.8026
1083.078, 105.6555
1083.560, 87.43518
1084.042, 77.51636
1084.524, 78.99084
1085.006, 82.15283
1085.488, 88.93860
1085.970, 91.20361
1086.452, 82.61938
1086.934, 68.41882
1087.417, 66.90845
1087.899, 74.72632
1088.381, 79.85632
1088.863, 77.32263
1089.345, 71.54810
1089.827, 57.51746
1090.309, 46.07056
1090.791, 51.08423
1091.274, 75.11292
1091.756, 80.58789
1092.238, 66.36389
1092.720, 52.74902
1093.202, 59.24878
1093.684, 69.15979
1094.166, 67.23621
1094.648, 55.81177
1095.130, 45.88000
1095.613, 35.19751
1096.095, 35.28003
1096.577, 50.55701
1097.059, 70.04089
1097.541, 82.27063
1098.023, 87.03284
1098.505, 81.42847
1098.987, 63.49255
1099.470, 51.34863
1099.952, 54.79492
1100.434, 57.09436
1100.916, 50.16321
1101.398, 38.41980
1101.880, 38.80188
1102.362, 48.05322
1102.844, 52.57861
1103.327, 41.35852
1103.809, 35.64661
1104.291, 57.36646
1104.773, 80.90125
1105.255, 80.40930
1105.737, 52.23560
1106.219, 39.25952
1106.701, 41.56152
1107.183, 45.47046
1107.666, 41.43469
1108.148, 35.24377
1108.630, 30.84204
1109.112, 28.20129
1109.594, 26.58081
1110.076, 24.54089
1110.558, 29.02209
1111.040, 42.52112
1111.522, 55.87598
1112.005, 57.58728
1112.487, 54.15222
1112.969, 51.78931
1113.451, 50.03357
1113.933, 50.49927
1114.415, 58.33301
1114.897, 59.30127
1115.379, 45.13306
1115.862, 26.50232
1116.344, 33.77441
1116.826, 56.62073
1117.308, 63.72717
1117.790, 40.81287
1118.272, 21.50195
1118.754, 24.53271
1119.236, 31.47754
1119.719, 31.18640
1120.201, 24.37537
1120.683, 18.77441
1121.165, 14.40649
1121.647, 10.93909
1122.129, 5.183105
1122.611, 3.599854
1123.093, 15.96191
1123.575, 32.46594
1124.057, 36.88916
1124.540, 25.24646
1125.022, 24.05371
1125.504, 35.41370
1125.986, 46.84802
1126.468, 48.14404
1126.950, 44.17664
1127.432, 37.40417
1127.914, 29.19995
1128.397, 25.55249
1128.879, 29.54309
1129.361, 30.00989
1129.843, 24.11890
1130.325, 16.67517
1130.807, 12.61304
1131.289, 11.89429
1131.771, 15.57629
1132.254, 24.17407
1132.736, 30.75586
1133.218, 33.56409
1133.700, 35.24341
1134.182, 37.70605
1134.664, 38.44238
1135.146, 26.75720
1135.628, 8.074707
1136.110, 0.9415280
1136.593, 9.064331
1137.075, 16.93054
1137.557, 11.54053
1138.039, 4.729858
1138.521, 6.062866
1139.003, 13.45911
1139.485, 7.651123
1139.967, 8.410889
1140.449, 13.92139
1140.932, 15.46570
1141.414, 43.56909
1141.896, 49.01514
1142.378, 42.91125
1142.860, 39.26929
1143.342, 39.51941
1143.824, 33.30212
1144.306, 19.93579
1144.789, 11.07690
1145.271, 17.06860
1145.753, 30.12695
1146.235, 52.99243
1146.717, 77.67688
1147.199, 76.22791
1147.681, 40.04248
1148.163, 18.51831
1148.646, 20.87720
1149.128, 30.29602
1149.610, 28.26819
1150.092, 23.80444
1150.574, 29.48596
1151.056, 46.18921
1151.538, 54.84692
1152.020, 53.69653
1152.502, 46.00732
1152.984, 30.22424
1153.467, 13.45837
1153.949, 4.889404
1154.431, 3.655518
1154.913, 10.39282
1155.395, 28.97656
1155.877, 38.77014
1156.359, 32.35303
1156.841, 27.93359
1157.324, 37.21326
1157.806, 52.82117
1158.288, 53.40442
1158.770, 44.34155
1159.252, 40.32336
1159.734, 51.29224
1160.216, 59.74146
1160.698, 63.23718
1161.181, 62.16077
1161.663, 54.69189
1162.145, 42.53992
1162.627, 33.45264
1163.109, 27.72546
1163.591, 26.68127
1164.073, 39.24170
1164.555, 46.20264
1165.037, 36.39087
1165.520, 21.84180
1166.002, 18.29614
1166.484, 24.28503
1166.966, 21.02185
1167.448, 7.817993
1167.930, 0.6591800
1168.412, 16.15503
1168.894, 28.70325
1169.376, 11.49280
1169.859, 17.91150
1170.341, 19.86108
1170.823, 5.143311
1171.305, 27.30432
1171.787, 42.02283
1172.269, 50.54260
1172.751, 49.87781
1173.233, 46.56714
1173.716, 44.44653
1174.198, 43.96057
1174.680, 48.92175
1175.162, 59.89832
1175.644, 62.66113
1176.126, 51.35107
1176.608, 36.75830
1177.090, 23.26489
1177.573, 15.38782
1178.055, 21.63367
1178.537, 42.97766
1179.019, 51.78125
1179.501, 47.32776
1179.983, 36.19873
1180.465, 15.32043
1180.947, 1.128174
1181.429, 8.533325
1181.911, 30.04199
1182.394, 43.16101
1182.876, 44.57690
1183.358, 40.57483
1183.840, 29.75085
1184.322, 20.90662
1184.804, 21.60925
1185.286, 25.85278
1185.768, 26.53076
1186.251, 24.75354
1186.733, 22.43469
1187.215, 16.53699
1187.697, 18.92981
1188.179, 31.87769
1188.661, 45.32800
1189.143, 53.57971
1189.625, 55.13293
1190.108, 40.86743
1190.590, 17.22302
1191.072, 8.337891
1191.554, 32.34082
1192.036, 40.65601
1192.518, 23.54285
1193.000, 4.002930
1193.482, 13.12341
1193.964, 33.22461
1194.447, 37.49792
1194.929, 25.38379
1195.411, 9.232910
1195.893, 17.85706
1196.375, 28.26538
1196.857, 11.42578
1197.339, 12.60205
1197.821, 11.30176
1198.303, 4.970093
1198.786, 16.61145
1199.268, 21.80176
1199.750, 18.83960
1200.232, 2.223511
1200.714, 12.05066
1201.196, 19.55127
1201.678, 22.37732
1202.160, 24.23621
1202.643, 24.21118
1203.125, 17.84314
1203.607, 1.277832
1204.089, 0.4354250
1204.571, 26.82788
1205.053, 48.75220
1205.535, 48.75427
1206.017, 38.50891
1206.500, 43.31042
1206.982, 57.78345
1207.464, 70.87256
1207.946, 81.72961
1208.428, 84.30847
1208.910, 74.09033
1209.392, 63.76111
1209.874, 60.05005
1210.356, 61.02893
1210.839, 62.60083
1211.321, 64.51343
1211.803, 66.28235
1212.285, 67.84521
1212.767, 69.39600
1213.249, 72.02979
1213.731, 72.75854
1214.213, 68.70508
1214.695, 61.42261
1215.178, 52.71790
1215.660, 44.45471
1216.142, 42.22925
1216.624, 55.71765
1217.106, 64.10449
1217.588, 62.70728
1218.070, 59.44214
1218.552, 62.47339
1219.035, 68.40320
1219.517, 67.93237
1219.999, 62.18823
1220.481, 56.68909
1220.963, 50.49561
1221.445, 49.22668
1221.927, 55.49561
1222.409, 62.96448
1222.891, 66.26221
1223.374, 65.15710
1223.856, 54.58679
1224.338, 37.36450
1224.820, 30.31152
1225.302, 53.94897
1225.784, 65.92615
1226.266, 56.34631
1226.748, 42.24609
1227.230, 48.99927
1227.713, 64.86670
1228.195, 69.70923
1228.677, 63.52234
1229.159, 52.65369
1229.641, 31.26086
1230.123, 18.98547
1230.605, 20.67700
1231.087, 30.07483
1231.570, 42.35217
1232.052, 54.16284
1232.534, 59.02954
1233.016, 56.18896
1233.498, 51.14124
1233.980, 42.57568
1234.462, 37.24109
1234.944, 37.84509
1235.427, 40.18689
1235.909, 37.41309
1236.391, 32.36633
1236.873, 28.94165
1237.355, 27.74060
1237.837, 29.77747
1238.319, 37.06714
1238.801, 41.58191
1239.283, 40.67603
1239.766, 36.83667
1240.248, 31.65662
1240.730, 27.11096
1241.212, 25.60986
1241.694, 27.43604
1242.176, 37.47559
1242.658, 61.76904
1243.140, 72.68054
1243.622, 55.32983
1244.105, 29.62036
1244.587, 18.63550
1245.069, 19.18542
1245.551, 29.86865
1246.033, 54.47473
1246.515, 62.40869
1246.997, 49.50195
1247.479, 39.84595
1247.962, 46.69067
1248.444, 54.96130
1248.926, 46.13074
1249.408, 34.19873
1249.890, 27.06848
1250.372, 28.09326
1250.854, 26.79993
1251.336, 19.91907
1251.818, 16.53284
1252.301, 23.67639
1252.783, 32.13330
1253.265, 36.71985
1253.747, 35.02502
1254.229, 20.56433
1254.711, 10.78235
1255.193, 15.50806
1255.675, 6.723999
1256.157, 30.29932
1256.640, 46.30823
1257.122, 52.07019
1257.604, 35.08569
1258.086, 13.11194
1258.568, 9.751831
1259.050, 27.03333
1259.532, 31.35974
1260.014, 23.49731
1260.497, 16.40222
1260.979, 18.72156
1261.461, 22.26025
1261.943, 21.55078
1262.425, 20.46021
1262.907, 23.62231
1263.389, 30.92480
1263.871, 32.96118
1264.354, 30.86316
1264.836, 33.61658
1265.318, 55.44861
1265.800, 71.02502
1266.282, 64.69617
1266.764, 54.20544
1267.246, 57.48279
1267.728, 71.38635
1268.210, 77.01855
1268.693, 74.63904
1269.175, 68.33179
1269.657, 56.14282
1270.139, 45.40405
1270.621, 36.31445
1271.103, 30.71350
1271.585, 33.89453
1272.067, 41.33398
1272.549, 38.44934
1273.032, 26.78857
1273.514, 15.11230
1273.996, 1.601685
1274.478, 3.440186
1274.960, 2.135864
1275.442, 13.61743
1275.924, 34.19958
1276.406, 53.24841
1276.889, 45.51355
1277.371, 18.10437
1277.853, 0.3980710
1278.335, 2.139893
1278.817, 8.137207
1279.299, 13.24390
1279.781, 17.51990
1280.263, 21.21790
1280.745, 24.06299
1281.228, 25.87427
1281.710, 26.58679
1282.192, 25.92285
1282.674, 23.24390
1283.156, 22.47314
1283.638, 24.24182
1284.120, 25.20251
1284.602, 18.09595
1285.084, 13.15356
1285.567, 23.22498
1286.049, 41.10315
1286.531, 49.07593
1287.013, 46.86584
1287.495, 35.66492
1287.977, 14.23425
1288.459, 2.008301
1288.941, 13.44934
1289.424, 30.16650
1289.906, 47.46851
1290.388, 61.88538
1290.870, 70.16235
1291.352, 71.83411
1291.834, 60.41772
1292.316, 36.44434
1292.798, 15.43335
1293.281, 0.1015630
1293.763, 1.741333
1294.245, 17.94495
1294.727, 43.38586
1295.209, 54.91138
1295.691, 54.34619
1296.173, 41.80164
1296.655, 19.71753
1297.137, 6.537964
1297.620, 14.86707
1298.102, 25.48608
1298.584, 37.07849
1299.066, 42.58301
1299.548, 24.23853
1300.030, 6.8726003E-02
1300.512, 0.0000000E+00
##END=



