##NAMES=Clinohedrite
##RRUFFID=R120105
##IDEAL CHEMISTRY=CaZnSiO_4_&#183;H_2_O
##LOCALITY=Christmas mine, Christmas, Gila County, Arizona, USA
##OWNER=RRUFF
##SOURCE=Bob Jenkins
##DESCRIPTION=Transparent colorless prismatic crystals, associated with blue kinoite and colorless platy junitoite, R120100.
##STATUS=The identification of this mineral has been confirmed by single-crystal X-ray diffraction.
##URL=rruff.info/R120105
193.9810, 0.0000000E+00
194.4631, 0.3392330
194.9452, 3.402710
195.4273, 4.117920
195.9094, 0.2386470
196.3915, 1.585083
196.8737, 3.0884000E-02
197.3558, 3.879639
197.8379, 6.286743
198.3200, 7.059326
198.8021, 6.995728
199.2842, 6.337646
199.7664, 5.010376
200.2485, 4.675659
200.7306, 5.996704
201.2127, 8.615723
201.6948, 10.49902
202.1769, 11.44910
202.6591, 12.38660
203.1412, 14.32129
203.6233, 17.46387
204.1054, 20.13708
204.5875, 21.74524
205.0696, 22.46155
205.5518, 23.84253
206.0339, 25.80957
206.5160, 28.50232
206.9981, 32.24805
207.4802, 37.16638
207.9623, 42.11169
208.4445, 46.49854
208.9266, 50.41785
209.4087, 55.96680
209.8908, 63.44092
210.3729, 71.97961
210.8550, 80.66211
211.3372, 89.21155
211.8193, 98.45154
212.3014, 108.5282
212.7835, 119.3265
213.2656, 131.2260
213.7477, 144.1554
214.2299, 158.3097
214.7120, 173.6444
215.1941, 190.1901
215.6762, 208.1327
216.1583, 227.7628
216.6404, 248.8970
217.1226, 271.2367
217.6047, 295.2289
218.0868, 319.8839
218.5689, 345.4880
219.0510, 375.3976
219.5331, 398.9299
220.0153, 415.2726
220.4974, 425.1592
220.9795, 419.8737
221.4616, 394.6434
221.9437, 359.5153
222.4258, 325.3530
222.9080, 290.7283
223.3901, 260.5052
223.8722, 236.4528
224.3543, 218.4106
224.8364, 205.3162
225.3185, 198.3033
225.8007, 195.1991
226.2828, 193.2845
226.7649, 192.1571
227.2470, 192.9603
227.7291, 196.6005
228.2112, 203.7769
228.6934, 208.8600
229.1755, 212.3090
229.6576, 213.2841
230.1397, 210.3582
230.6218, 201.8842
231.1039, 192.4834
231.5861, 183.1140
232.0682, 173.5013
232.5503, 165.3215
233.0324, 159.1199
233.5145, 153.9873
233.9966, 148.6176
234.4788, 142.3492
234.9609, 137.1622
235.4430, 133.6696
235.9251, 132.0382
236.4072, 130.9843
236.8893, 130.8804
237.3715, 131.0148
237.8536, 130.5336
238.3357, 129.4216
238.8178, 127.6318
239.2999, 124.8541
239.7820, 120.8357
240.2642, 117.6283
240.7463, 115.2297
241.2284, 113.5734
241.7105, 112.3878
242.1926, 110.6722
242.6747, 111.1854
243.1569, 115.0326
243.6390, 122.6783
244.1211, 129.9775
244.6032, 137.1317
245.0853, 143.8281
245.5674, 149.5983
246.0496, 153.8351
246.5317, 158.3800
247.0138, 164.2688
247.4959, 172.1295
247.9780, 177.7358
248.4601, 180.0176
248.9423, 180.8990
249.4244, 182.9889
249.9065, 187.0469
250.3886, 191.1912
250.8707, 194.9690
251.3528, 198.4106
251.8350, 202.2234
252.3171, 206.9265
252.7992, 212.4607
253.2813, 218.7689
253.7634, 225.7113
254.2455, 233.5118
254.7277, 242.6771
255.2098, 253.2400
255.6919, 262.4231
256.1740, 270.1626
256.6561, 276.5293
257.1382, 281.7607
257.6204, 286.8259
258.1025, 288.4189
258.5846, 285.3970
259.0667, 277.9363
259.5488, 269.3362
260.0309, 258.9520
260.5131, 248.6135
260.9952, 240.1658
261.4773, 234.0826
261.9594, 228.4656
262.4415, 222.9863
262.9236, 217.6964
263.4058, 213.6616
263.8879, 211.7428
264.3700, 209.6249
264.8521, 205.8226
265.3342, 200.8674
265.8163, 192.4220
266.2985, 179.6003
266.7806, 163.0358
267.2627, 145.5634
267.7448, 126.7982
268.2269, 108.2982
268.7090, 90.82581
269.1912, 73.78406
269.6733, 59.37683
270.1554, 48.00732
270.6375, 39.23682
271.1196, 31.63843
271.6017, 25.38672
272.0839, 20.34497
272.5660, 16.72620
273.0481, 14.72742
273.5302, 12.21057
274.0123, 8.710571
274.4944, 4.902588
274.9766, 2.758179
275.4587, 2.551880
275.9408, 2.988647
276.4229, 3.302490
276.9050, 3.441772
277.3871, 3.789185
277.8693, 4.399048
278.3514, 5.144775
278.8335, 5.532837
279.3156, 5.455688
279.7977, 5.946045
280.2798, 7.805298
280.7620, 11.01318
281.2441, 13.85046
281.7262, 15.97278
282.2083, 18.15417
282.6904, 21.80151
283.1725, 26.94983
283.6547, 32.83618
284.1368, 39.33264
284.6189, 46.31885
285.1010, 53.23926
285.5831, 60.09851
286.0652, 66.82971
286.5474, 73.43677
287.0295, 79.91174
287.5116, 85.93762
287.9937, 91.57239
288.4758, 96.75891
288.9579, 101.0671
289.4401, 104.7340
289.9222, 106.7656
290.4043, 105.4219
290.8864, 101.0105
291.3685, 95.93188
291.8506, 91.10852
292.3328, 86.30066
292.8149, 80.93311
293.2970, 74.97778
293.7791, 68.54761
294.2612, 61.42676
294.7433, 53.84998
295.2255, 46.84241
295.7076, 40.80383
296.1897, 35.54651
296.6718, 31.17017
297.1539, 27.66089
297.6360, 23.93848
298.1182, 18.67822
298.6003, 12.49890
299.0824, 6.767700
299.5645, 1.541382
300.0466, 2.728149
300.5287, 5.112183
301.0109, 5.775513
301.4930, 5.899048
301.9751, 6.422729
302.4572, 6.953125
302.9393, 6.724243
303.4214, 5.215698
303.9036, 3.506836
304.3857, 2.850952
304.8678, 3.011475
305.3499, 3.117432
305.8320, 2.698853
306.3141, 1.895508
306.7963, 1.009766
307.2784, 0.2490230
307.7605, 1.124878
308.2426, 4.345581
308.7247, 8.698730
309.2068, 12.47888
309.6890, 13.97888
310.1711, 14.96655
310.6532, 16.82788
311.1353, 19.69080
311.6174, 23.35706
312.0995, 28.14001
312.5817, 33.50513
313.0638, 38.67456
313.5459, 43.36743
314.0280, 47.79712
314.5101, 52.82544
314.9922, 58.67346
315.4744, 62.18213
315.9565, 60.89429
316.4386, 56.76318
316.9207, 52.03577
317.4028, 47.90344
317.8849, 42.92444
318.3671, 35.78101
318.8492, 26.59485
319.3313, 18.66772
319.8134, 13.26965
320.2955, 9.462158
320.7776, 6.537720
321.2598, 4.138672
321.7419, 2.734619
322.2240, 2.943726
322.7061, 4.422974
323.1882, 5.475952
323.6703, 5.971191
324.1525, 5.784058
324.6346, 4.797729
325.1167, 2.001587
325.5988, 0.2299800
326.0809, 1.836914
326.5630, 2.734375
327.0452, 2.692993
327.5273, 0.1336670
328.0094, 2.343628
328.4915, 2.506470
328.9736, 1.030518
329.4557, 2.905884
329.9379, 1.923218
330.4200, 0.3420410
330.9021, 1.327515
331.3842, 0.2210690
331.8663, 1.124146
332.3484, 2.390015
332.8306, 3.680420
333.3127, 4.327393
333.7948, 4.307739
334.2769, 3.685425
334.7590, 2.460083
335.2411, 0.3162840
335.7233, 1.818970
336.2054, 3.903442
336.6875, 5.935791
337.1696, 7.016113
337.6517, 6.593872
338.1339, 6.336792
338.6160, 8.090820
339.0981, 12.63110
339.5802, 15.24182
340.0623, 14.50525
340.5444, 11.69409
341.0266, 11.23438
341.5087, 13.46423
341.9908, 16.27014
342.4729, 18.56824
342.9550, 20.30872
343.4371, 21.39087
343.9193, 21.74609
344.4014, 21.45776
344.8835, 20.15149
345.3656, 17.84338
345.8477, 16.44446
346.3298, 17.51733
346.8120, 20.46558
347.2941, 22.49170
347.7762, 23.47693
348.2583, 24.13831
348.7404, 25.45679
349.2225, 27.26233
349.7047, 28.77979
350.1868, 29.75513
350.6689, 30.23865
351.1510, 30.34827
351.6331, 30.06787
352.1152, 29.29346
352.5974, 26.97180
353.0795, 24.19434
353.5616, 23.13684
354.0437, 25.26953
354.5258, 28.20886
355.0079, 29.60413
355.4901, 29.70349
355.9722, 29.65991
356.4543, 30.10620
356.9364, 30.82446
357.4185, 31.56860
357.9006, 32.09290
358.3828, 32.80762
358.8649, 34.11816
359.3470, 35.93164
359.8291, 38.00000
360.3112, 40.25134
360.7933, 42.73523
361.2755, 45.54126
361.7576, 48.66980
362.2397, 52.06946
362.7218, 55.97278
363.2039, 59.98950
363.6860, 63.71301
364.1682, 66.42566
364.6503, 69.47656
365.1324, 73.28210
365.6145, 77.85791
366.0966, 82.51782
366.5787, 86.91882
367.0609, 91.52820
367.5430, 96.64832
368.0251, 101.2625
368.5072, 107.7366
368.9893, 117.7181
369.4714, 129.8611
369.9536, 139.4395
370.4357, 144.0438
370.9178, 148.6710
371.3999, 155.3309
371.8820, 165.1439
372.3641, 174.3593
372.8463, 183.4061
373.3284, 191.4412
373.8105, 197.2050
374.2926, 200.1182
374.7747, 202.3242
375.2568, 204.4926
375.7390, 206.4933
376.2211, 206.5890
376.7032, 204.8817
377.1853, 201.1824
377.6674, 194.5490
378.1495, 184.5858
378.6317, 175.7418
379.1138, 168.6455
379.5959, 162.9435
380.0780, 157.6156
380.5601, 152.7092
381.0422, 149.1241
381.5244, 147.7026
382.0065, 148.2855
382.4886, 149.6863
382.9707, 151.5934
383.4528, 154.4102
383.9349, 159.1080
384.4171, 165.6084
384.8992, 173.0173
385.3813, 181.2986
385.8634, 190.2955
386.3455, 199.7614
386.8276, 209.4480
387.3098, 220.2061
387.7919, 232.9919
388.2740, 247.6245
388.7561, 263.5879
389.2382, 280.9814
389.7203, 299.2059
390.2025, 317.5627
390.6846, 335.9993
391.1667, 354.9987
391.6488, 375.1753
392.1309, 395.5265
392.6130, 415.4644
393.0952, 434.9900
393.5773, 453.3210
394.0594, 470.4293
394.5415, 485.8729
395.0236, 498.8318
395.5057, 510.5291
395.9879, 518.4563
396.4700, 521.3732
396.9521, 518.9141
397.4342, 513.6431
397.9163, 506.1902
398.3984, 495.9570
398.8806, 482.3519
399.3627, 462.7516
399.8448, 442.5930
400.3269, 422.2637
400.8090, 401.7593
401.2911, 381.6515
401.7733, 361.8164
402.2554, 342.2229
402.7375, 322.8945
403.2196, 304.1809
403.7017, 284.6783
404.1838, 264.0664
404.6660, 243.0312
405.1481, 223.2272
405.6302, 204.5557
406.1123, 187.0983
406.5944, 170.8545
407.0765, 155.7758
407.5587, 142.1278
408.0408, 129.8746
408.5229, 118.8566
409.0050, 108.8512
409.4871, 99.89783
409.9692, 92.30615
410.4514, 86.45947
410.9335, 81.52478
411.4156, 75.46191
411.8977, 68.45093
412.3798, 62.15186
412.8619, 57.99487
413.3441, 55.34351
413.8262, 53.27417
414.3083, 51.92480
414.7904, 50.00928
415.2725, 45.75879
415.7546, 40.03955
416.2368, 34.55151
416.7189, 29.76843
417.2010, 25.80261
417.6831, 22.76404
418.1652, 20.65979
418.6473, 19.21704
419.1295, 19.10059
419.6116, 19.17578
420.0937, 18.33252
420.5758, 15.10999
421.0579, 12.66321
421.5400, 12.97998
422.0222, 14.85461
422.5043, 15.33838
422.9864, 11.94324
423.4685, 8.652222
423.9506, 7.293091
424.4327, 8.963135
424.9149, 9.263184
425.3970, 6.740234
425.8791, 3.512451
426.3612, 1.601440
426.8433, 1.122803
427.3254, 1.880493
427.8076, 4.715942
428.2897, 9.047241
428.7718, 10.30566
429.2539, 7.165161
429.7360, 3.523193
430.2181, 1.922485
430.7003, 2.759521
431.1824, 2.494507
431.6645, 0.5375980
432.1466, 1.768921
432.6287, 1.712524
433.1108, 0.7722170
433.5930, 2.749512
434.0751, 3.074707
434.5572, 2.081909
435.0393, 0.3363040
435.5214, 2.179199
436.0035, 3.984497
436.4857, 2.986328
436.9678, 0.2653810
437.4499, 1.563843
437.9320, 1.771118
438.4141, 1.194214
438.8962, 0.2033690
439.3784, 0.9289550
439.8605, 1.374146
440.3426, 0.2746580
440.8247, 1.405762
441.3068, 2.969604
441.7889, 4.330933
442.2711, 5.491821
442.7532, 7.147339
443.2353, 8.297729
443.7174, 7.905762
444.1995, 3.653198
444.6816, 5.7128999E-02
445.1638, 2.092041
445.6459, 2.588135
446.1280, 2.287720
446.6101, 3.9917000E-02
447.0922, 2.039307
447.5743, 2.519897
448.0565, 0.4796140
448.5386, 0.5678710
449.0207, 7.7758998E-02
449.5028, 1.069580
449.9849, 1.732788
450.4670, 1.794800
450.9492, 1.678345
451.4313, 1.385864
451.9134, 0.9930420
452.3955, 1.148682
452.8776, 2.131958
453.3597, 2.736694
453.8419, 1.881836
454.3240, 0.3814700
454.8061, 2.417480
455.2882, 4.172119
455.7703, 5.431519
456.2524, 5.549927
456.7346, 4.699463
457.2167, 4.082520
457.6988, 4.941162
458.1809, 6.045410
458.6630, 4.724976
459.1451, 1.170044
459.6273, 2.142944
460.1094, 2.702759
460.5915, 2.059082
461.0736, 2.307007
461.5557, 4.327637
462.0378, 6.417969
462.5200, 7.360718
463.0021, 7.623413
463.4842, 8.069702
463.9663, 8.886719
464.4484, 10.14429
464.9305, 12.25366
465.4127, 15.33289
465.8948, 17.43970
466.3769, 17.14722
466.8590, 16.35950
467.3411, 16.43359
467.8232, 16.79443
468.3054, 19.01318
468.7875, 24.46265
469.2696, 31.51392
469.7517, 35.93799
470.2338, 36.00488
470.7159, 36.57385
471.1981, 39.72754
471.6802, 45.61719
472.1623, 49.79858
472.6444, 51.79126
473.1265, 53.21155
473.6086, 55.57886
474.0908, 58.87439
474.5729, 62.33154
475.0550, 66.03796
475.5371, 69.44922
476.0192, 71.50964
476.5013, 72.28076
476.9835, 72.29028
477.4656, 71.61267
477.9477, 70.42883
478.4298, 69.23621
478.9119, 68.06958
479.3940, 66.06323
479.8762, 62.13367
480.3583, 57.07629
480.8404, 51.94409
481.3225, 47.09961
481.8046, 42.17468
482.2867, 36.51135
482.7689, 30.63257
483.2510, 25.83960
483.7331, 23.62708
484.2152, 21.68921
484.6973, 19.17590
485.1794, 16.06653
485.6616, 12.52002
486.1437, 7.215210
486.6258, 2.221558
487.1079, 0.9099120
487.5900, 1.800781
488.0721, 1.466187
488.5543, 0.7104490
489.0364, 3.822388
489.5185, 5.124023
490.0006, 4.015015
490.4827, 2.652832
490.9648, 2.049683
491.4470, 2.064453
491.9291, 1.675415
492.4112, 0.7156980
492.8933, 5.1270002E-03
493.3754, 0.5506590
493.8575, 2.146973
494.3397, 3.875732
494.8218, 5.724976
495.3039, 7.423828
495.7860, 8.178345
496.2681, 8.337769
496.7502, 9.078003
497.2324, 11.54407
497.7145, 14.60449
498.1966, 16.82031
498.6787, 18.13354
499.1608, 20.71924
499.6429, 27.27344
500.1251, 34.78809
500.6072, 40.70044
501.0893, 42.59326
501.5714, 45.20679
502.0535, 49.96460
502.5356, 56.08569
503.0178, 61.87573
503.4999, 67.68384
503.9820, 73.00293
504.4641, 77.71436
504.9462, 81.71484
505.4283, 85.79321
505.9105, 90.70654
506.3926, 94.49561
506.8747, 95.85229
507.3568, 94.70508
507.8389, 91.45459
508.3210, 85.61768
508.8032, 78.68262
509.2853, 73.07593
509.7674, 68.75269
510.2495, 65.19165
510.7316, 62.40894
511.2137, 60.07373
511.6959, 57.35059
512.1780, 54.25977
512.6601, 51.28662
513.1422, 48.81201
513.6243, 46.75073
514.1064, 45.10938
514.5886, 44.04419
515.0707, 43.06958
515.5528, 41.90601
516.0349, 40.55933
516.5170, 39.19385
516.9991, 36.49072
517.4813, 35.25854
517.9634, 37.66870
518.4455, 43.12695
518.9276, 46.55420
519.4097, 45.55835
519.8918, 43.96924
520.3740, 43.24219
520.8561, 43.57104
521.3382, 44.12256
521.8203, 45.12891
522.3024, 46.01636
522.7845, 45.94385
523.2667, 44.62305
523.7488, 43.84229
524.2309, 44.20068
524.7130, 45.04541
525.1951, 44.66187
525.6772, 43.07178
526.1594, 41.33521
526.6415, 40.49756
527.1236, 39.87964
527.6057, 37.54468
528.0878, 33.44019
528.5699, 29.59229
529.0521, 28.25342
529.5342, 28.05127
530.0163, 27.11035
530.4984, 24.52051
530.9805, 21.91895
531.4626, 20.20264
531.9448, 19.11719
532.4269, 18.16724
532.9090, 16.78198
533.3911, 15.87183
533.8732, 15.97876
534.3553, 17.13062
534.8375, 17.71948
535.3196, 17.19067
535.8017, 16.52051
536.2838, 16.25879
536.7659, 16.63428
537.2480, 16.61938
537.7302, 15.98267
538.2123, 15.21753
538.6944, 14.97656
539.1765, 15.26831
539.6586, 16.21216
540.1407, 18.05200
540.6229, 20.41016
541.1050, 22.44116
541.5871, 24.16772
542.0692, 25.49365
542.5513, 25.93066
543.0334, 26.18457
543.5156, 27.24878
543.9977, 29.21313
544.4798, 31.92041
544.9619, 35.21313
545.4440, 39.16235
545.9261, 43.88574
546.4083, 49.62964
546.8904, 55.74976
547.3725, 61.79321
547.8546, 67.95337
548.3367, 74.82031
548.8188, 82.53931
549.3010, 90.86328
549.7831, 100.3667
550.2652, 110.9834
550.7473, 118.8369
551.2294, 122.3491
551.7115, 125.7954
552.1937, 132.2070
552.6758, 142.0032
553.1579, 151.1001
553.6400, 159.3538
554.1221, 166.9966
554.6042, 174.5942
555.0864, 181.9783
555.5685, 187.8364
556.0506, 191.4192
556.5327, 193.6375
557.0148, 196.2092
557.4969, 198.6233
557.9791, 199.0144
558.4612, 195.8328
558.9433, 190.4502
559.4254, 183.4509
559.9075, 174.8267
560.3896, 166.4282
560.8718, 159.8049
561.3539, 153.2993
561.8360, 145.6523
562.3181, 135.1101
562.8002, 125.8311
563.2823, 118.0930
563.7645, 111.7444
564.2466, 106.8643
564.7287, 104.6465
565.2108, 101.2729
565.6929, 95.12891
566.1750, 87.28760
566.6572, 82.60962
567.1393, 81.41821
567.6214, 81.13599
568.1035, 80.35547
568.5856, 79.20068
569.0677, 78.12915
569.5499, 77.13037
570.0320, 76.34790
570.5141, 76.11157
570.9962, 76.13086
571.4783, 75.83032
571.9604, 74.49341
572.4426, 73.80591
572.9247, 76.09888
573.4068, 79.68115
573.8889, 81.47559
574.3710, 77.64185
574.8531, 74.73828
575.3353, 75.53760
575.8174, 79.73218
576.2995, 83.40820
576.7816, 86.31006
577.2637, 88.95752
577.7458, 91.43213
578.2280, 93.48853
578.7101, 96.93994
579.1922, 102.5059
579.6743, 107.8679
580.1564, 110.2764
580.6385, 109.8726
581.1207, 109.4946
581.6028, 109.8020
582.0849, 110.0103
582.5670, 109.3125
583.0491, 107.6426
583.5313, 104.5984
584.0134, 98.35059
584.4955, 91.55469
584.9776, 86.92236
585.4597, 84.24072
585.9418, 81.74438
586.4240, 79.24878
586.9061, 75.75464
587.3882, 70.15918
587.8703, 61.53687
588.3524, 55.27783
588.8345, 53.79004
589.3167, 53.27417
589.7988, 50.78613
590.2809, 45.29565
590.7630, 40.62915
591.2451, 37.29858
591.7272, 34.70020
592.2094, 31.40576
592.6915, 27.17651
593.1736, 24.51392
593.6557, 25.13379
594.1378, 27.37988
594.6199, 27.02686
595.1021, 24.33862
595.5842, 21.40601
596.0663, 19.33179
596.5484, 17.90503
597.0305, 17.03857
597.5126, 16.74561
597.9948, 16.32251
598.4769, 15.26611
598.9590, 13.98779
599.4411, 12.77661
599.9232, 10.98682
600.4053, 10.36108
600.8875, 12.64160
601.3696, 15.76123
601.8517, 16.73242
602.3338, 14.40015
602.8159, 12.16797
603.2980, 10.48657
603.7802, 9.412109
604.2623, 9.118408
604.7444, 9.583984
605.2265, 10.65210
605.7086, 13.22412
606.1907, 16.33643
606.6729, 16.13867
607.1550, 12.66797
607.6371, 8.883789
608.1192, 7.042236
608.6013, 6.431396
609.0834, 6.381348
609.5656, 6.922119
610.0477, 6.696289
610.5298, 3.715088
611.0119, 0.2255860
611.4940, 1.273193
611.9761, 2.216797
612.4583, 4.961670
612.9404, 6.109375
613.4225, 6.057861
613.9046, 5.525879
614.3867, 4.340820
614.8688, 3.282227
615.3510, 2.004639
615.8331, 0.6552730
616.3152, 1.535156
616.7973, 4.863770
617.2794, 8.094238
617.7615, 9.427002
618.2437, 9.231201
618.7258, 8.169189
619.2079, 6.149658
619.6900, 4.941406
620.1721, 7.258301
620.6542, 10.75586
621.1364, 12.44214
621.6185, 11.17651
622.1006, 9.111328
622.5827, 5.786377
623.0648, 2.702881
623.5469, 1.957520
624.0291, 7.798828
624.5112, 11.40649
624.9933, 10.84448
625.4754, 7.308594
625.9575, 4.723633
626.4396, 3.291748
626.9218, 2.241943
627.4039, 1.395264
627.8860, 0.7138670
628.3681, 0.2958980
628.8502, 1.669678
629.3323, 2.498535
629.8145, 1.779053
630.2966, 0.1674800
630.7787, 1.271240
631.2608, 2.451172
631.7429, 2.975098
632.2250, 0.9843750
632.7072, 1.135986
633.1893, 0.5300290
633.6714, 6.260498
634.1535, 11.04932
634.6356, 10.26538
635.1177, 6.542236
635.5999, 4.132813
636.0820, 3.878174
636.5641, 3.754150
637.0462, 3.572998
637.5283, 3.264893
638.0104, 2.504150
638.4926, 1.220703
638.9747, 3.4912001E-02
639.4568, 0.5485840
639.9389, 0.8254390
640.4210, 2.193604
640.9031, 4.548096
641.3853, 6.274902
641.8674, 5.309326
642.3495, 3.471191
642.8316, 3.408203
643.3137, 5.664063
643.7958, 6.946289
644.2780, 3.988037
644.7601, 0.2307130
645.2422, 1.181885
645.7243, 3.249023
646.2064, 5.424316
646.6885, 3.869873
647.1707, 0.5939940
647.6528, 1.966309
648.1349, 4.076416
648.6170, 4.354248
649.0991, 1.787109
649.5812, 2.008057
650.0634, 3.149414
650.5455, 1.775635
651.0276, 0.1437990
651.5097, 1.901855
651.9918, 3.582764
652.4739, 5.554443
652.9561, 7.734375
653.4382, 9.435303
653.9203, 9.863525
654.4024, 9.676514
654.8845, 9.404053
655.3666, 9.139648
655.8488, 8.149658
656.3309, 4.907471
656.8130, 1.954834
657.2951, 0.8261720
657.7772, 2.015625
658.2593, 3.965576
658.7415, 7.356934
659.2236, 10.41870
659.7057, 10.72925
660.1878, 8.349609
660.6699, 6.071045
661.1520, 4.185791
661.6342, 3.175781
662.1163, 4.772705
662.5984, 7.854980
663.0805, 9.428467
663.5626, 6.876465
664.0447, 3.820801
664.5269, 3.052979
665.0090, 3.847900
665.4911, 4.085449
665.9732, 1.622803
666.4553, 2.8564001E-02
666.9374, 0.9697270
667.4196, 4.409180
667.9017, 6.967041
668.3838, 8.649902
668.8659, 9.574951
669.3480, 9.792725
669.8301, 9.359375
670.3123, 8.143066
670.7944, 6.064941
671.2765, 3.809570
671.7586, 0.9968260
672.2407, 1.431641
672.7228, 0.7094730
673.2050, 4.036133
673.6871, 8.537109
674.1692, 9.335449
674.6513, 8.197510
675.1334, 7.119629
675.6155, 6.136475
676.0977, 5.891602
676.5798, 7.371094
677.0619, 9.375000
677.5440, 10.04077
678.0261, 8.600342
678.5082, 7.475098
678.9904, 7.095459
679.4725, 7.322998
679.9546, 7.857422
680.4367, 8.703857
680.9188, 9.762695
681.4009, 11.64014
681.8831, 13.29761
682.3652, 11.96021
682.8473, 8.276611
683.3294, 5.463379
683.8115, 6.058838
684.2936, 7.709229
684.7758, 9.009521
685.2579, 9.823975
685.7400, 9.899658
686.2221, 7.127930
686.7042, 5.248047
687.1863, 6.692139
687.6685, 12.91553
688.1506, 16.39331
688.6327, 16.29419
689.1148, 14.99585
689.5969, 14.33057
690.0790, 14.26855
690.5612, 14.82520
691.0433, 16.14624
691.5254, 17.90088
692.0075, 20.88403
692.4896, 23.65210
692.9717, 23.13452
693.4539, 16.67090
693.9360, 10.37988
694.4181, 8.090088
694.9002, 8.210205
695.3823, 8.269775
695.8644, 6.639404
696.3466, 6.451660
696.8287, 9.354004
697.3108, 13.71069
697.7929, 14.93140
698.2750, 12.28809
698.7571, 9.038330
699.2393, 6.027100
699.7214, 3.573975
700.2035, 2.186768
700.6856, 1.722412
701.1677, 1.773438
701.6498, 2.808838
702.1320, 4.234375
702.6141, 4.812256
703.0962, 4.505127
703.5783, 4.458496
704.0604, 6.262451
704.5425, 8.149414
705.0247, 8.935303
705.5068, 8.108887
705.9889, 7.483154
706.4710, 7.051758
706.9531, 6.722412
707.4352, 6.357666
707.9174, 6.116455
708.3995, 5.792480
708.8816, 5.508301
709.3637, 4.760254
709.8458, 2.158203
710.3279, 1.231445
710.8101, 2.478760
711.2922, 0.6179200
711.7743, 1.533203
712.2564, 1.618408
712.7385, 0.9113770
713.2206, 0.9694820
713.7028, 3.504883
714.1849, 5.056885
714.6670, 3.925293
715.1491, 1.859131
715.6312, 1.399902
716.1133, 3.275879
716.5955, 4.650879
717.0776, 4.958984
717.5597, 4.520020
718.0418, 3.619873
718.5239, 2.347412
719.0060, 1.937500
719.4882, 3.469727
719.9703, 5.406006
720.4524, 5.789307
720.9345, 4.923340
721.4166, 3.841309
721.8987, 2.249023
722.3809, 1.237549
722.8630, 1.937012
723.3451, 4.030518
723.8272, 4.708740
724.3093, 2.511963
724.7914, 1.037109
725.2736, 2.010986
725.7557, 5.093018
726.2378, 6.303467
726.7199, 5.493408
727.2020, 4.475098
727.6841, 4.417725
728.1663, 5.078857
728.6484, 6.273682
729.1305, 7.936523
729.6126, 8.662598
730.0947, 6.209961
730.5768, 3.388428
731.0590, 2.608154
731.5411, 4.376953
732.0232, 5.944336
732.5053, 6.797607
732.9874, 7.246582
733.4695, 7.264404
733.9517, 6.302002
734.4338, 7.042969
734.9159, 9.991699
735.3980, 13.15088
735.8801, 14.41235
736.3622, 14.05200
736.8444, 12.99438
737.3265, 11.22510
737.8086, 9.762451
738.2907, 9.795410
738.7728, 10.68457
739.2549, 11.65942
739.7371, 12.98975
740.2192, 13.64990
740.7013, 12.34253
741.1834, 10.64966
741.6655, 10.77808
742.1476, 13.68579
742.6298, 16.06299
743.1119, 17.40942
743.5940, 18.10986
744.0761, 18.74707
744.5582, 19.28784
745.0403, 19.98389
745.5225, 21.24268
746.0046, 22.34351
746.4867, 21.28833
746.9688, 19.03540
747.4509, 18.19873
747.9330, 22.98633
748.4152, 26.30542
748.8973, 24.01465
749.3794, 17.94580
749.8615, 14.27661
750.3436, 14.05371
750.8257, 14.82251
751.3079, 16.89941
751.7900, 19.25122
752.2721, 17.02515
752.7542, 10.38599
753.2363, 5.108887
753.7184, 4.651855
754.2006, 6.594238
754.6827, 7.762451
755.1648, 8.210205
755.6469, 8.004150
756.1290, 6.699463
756.6111, 5.272949
757.0933, 3.941406
757.5754, 2.718018
758.0575, 2.242432
758.5396, 2.453369
759.0217, 3.614746
759.5038, 6.338135
759.9860, 10.29102
760.4681, 12.14429
760.9502, 11.73218
761.4323, 10.72461
761.9144, 9.926514
762.3965, 9.314697
762.8787, 8.799561
763.3608, 8.390625
763.8429, 8.302002
764.3250, 8.310059
764.8071, 8.960205
765.2892, 11.11279
765.7714, 15.24365
766.2535, 17.60376
766.7356, 17.38794
767.2177, 16.23804
767.6998, 14.88110
768.1819, 13.21582
768.6641, 11.73633
769.1462, 10.60547
769.6283, 10.04199
770.1104, 10.48633
770.5925, 11.56421
771.0746, 12.52490
771.5568, 13.28076
772.0389, 14.24048
772.5210, 16.06226
773.0031, 17.89111
773.4852, 19.05029
773.9673, 19.26514
774.4495, 19.21313
774.9316, 18.49585
775.4137, 17.98535
775.8958, 18.68164
776.3779, 20.78711
776.8600, 21.21753
777.3422, 19.69702
777.8243, 17.67139
778.3064, 16.29248
778.7885, 15.55273
779.2706, 15.51562
779.7527, 16.28003
780.2349, 17.33228
780.7170, 18.95166
781.1991, 20.41040
781.6812, 21.03198
782.1633, 20.23755
782.6454, 19.54541
783.1276, 19.01611
783.6097, 18.53809
784.0918, 17.83008
784.5739, 16.87012
785.0560, 16.97119
785.5381, 18.49805
786.0203, 19.72607
786.5024, 18.19531
786.9845, 15.17993
787.4666, 12.66357
787.9487, 10.77979
788.4308, 10.39795
788.9130, 13.28223
789.3951, 17.12329
789.8772, 19.56665
790.3593, 19.83252
790.8414, 19.59521
791.3235, 18.49805
791.8057, 17.34302
792.2878, 17.42310
792.7699, 18.59448
793.2520, 18.54883
793.7341, 16.70972
794.2162, 14.67456
794.6984, 14.85669
795.1805, 15.77905
795.6626, 14.88672
796.1447, 10.37231
796.6268, 6.804199
797.1089, 6.539307
797.5911, 7.720703
798.0732, 8.215332
798.5553, 7.608887
799.0374, 7.481934
799.5195, 8.351318
800.0016, 8.991943
800.4838, 7.299561
800.9659, 3.791016
801.4480, 1.531250
801.9301, 1.398193
802.4122, 1.394287
802.8943, 1.300293
803.3765, 4.671631
803.8586, 5.990479
804.3407, 3.222656
804.8228, 0.8654790
805.3049, 0.2756350
805.7870, 0.2932130
806.2692, 0.2980960
806.7513, 1.799561
807.2334, 2.491211
807.7155, 2.027588
808.1976, 1.132080
808.6797, 0.9848630
809.1619, 1.149414
809.6440, 0.1018070
810.1261, 2.935303
810.6082, 5.497314
811.0903, 5.302246
811.5724, 3.833984
812.0546, 2.670654
812.5367, 1.963867
813.0188, 1.812012
813.5009, 2.528564
813.9830, 3.373291
814.4651, 3.412842
814.9473, 2.545166
815.4294, 2.115723
815.9115, 2.296387
816.3936, 2.606934
816.8757, 3.006348
817.3578, 3.010010
817.8400, 1.551758
818.3221, 2.051025
818.8042, 5.460205
819.2863, 6.830566
819.7684, 7.815674
820.2505, 10.06665
820.7327, 14.22900
821.2148, 18.19458
821.6969, 22.25781
822.1790, 25.46362
822.6611, 26.29395
823.1432, 25.11255
823.6254, 24.25732
824.1075, 23.97827
824.5896, 23.87378
825.0717, 23.09912
825.5538, 22.55713
826.0359, 23.72437
826.5181, 27.85815
827.0002, 30.25293
827.4823, 27.97559
827.9644, 25.22388
828.4465, 24.81543
828.9286, 27.33472
829.4108, 29.65405
829.8929, 31.75830
830.3750, 33.91064
830.8571, 36.01123
831.3392, 38.43066
831.8214, 42.44653
832.3035, 48.22510
832.7856, 53.31836
833.2677, 54.36719
833.7498, 55.31665
834.2319, 59.50513
834.7141, 68.42310
835.1962, 75.52661
835.6783, 79.88574
836.1604, 83.84155
836.6425, 88.89746
837.1246, 94.94482
837.6068, 100.2349
838.0889, 104.7388
838.5710, 110.3994
839.0531, 120.4976
839.5352, 131.4500
840.0173, 138.5466
840.4995, 141.6553
840.9816, 146.4033
841.4637, 155.8755
841.9458, 166.2932
842.4279, 175.8000
842.9100, 184.4321
843.3922, 194.6846
843.8743, 206.5715
844.3564, 219.8572
844.8385, 234.5881
845.3206, 250.5955
845.8027, 267.2170
846.2849, 284.5459
846.7670, 302.8237
847.2491, 322.5002
847.7312, 342.9028
848.2133, 363.4602
848.6954, 384.4282
849.1776, 406.9004
849.6597, 431.5803
850.1418, 456.9880
850.6239, 483.0767
851.1060, 509.1572
851.5881, 533.6665
852.0703, 556.2219
852.5524, 573.5261
853.0345, 585.9121
853.5166, 590.2180
853.9987, 581.9390
854.4808, 563.2998
854.9630, 539.9155
855.4451, 510.7900
855.9272, 480.2068
856.4093, 447.8130
856.8914, 415.2466
857.3735, 383.9990
857.8557, 353.6343
858.3378, 328.8286
858.8199, 311.1868
859.3020, 298.3792
859.7841, 288.0574
860.2662, 279.9397
860.7484, 273.5706
861.2305, 268.9358
861.7126, 265.8137
862.1947, 263.9634
862.6768, 264.0969
863.1589, 267.1814
863.6411, 274.6565
864.1232, 280.8892
864.6053, 285.0369
865.0874, 288.5464
865.5695, 294.3982
866.0516, 301.2678
866.5338, 304.8748
867.0159, 304.1250
867.4980, 301.7205
867.9801, 299.7942
868.4622, 296.8442
868.9443, 291.6270
869.4265, 283.9941
869.9086, 273.5596
870.3907, 259.3826
870.8728, 243.8962
871.3549, 229.0110
871.8370, 214.6296
872.3192, 200.2087
872.8013, 185.5703
873.2834, 172.0693
873.7655, 160.6191
874.2476, 150.8633
874.7297, 143.1326
875.2119, 137.4451
875.6940, 130.7065
876.1761, 120.0510
876.6582, 110.4241
877.1403, 104.1553
877.6224, 100.9893
878.1046, 97.26025
878.5867, 92.91064
879.0688, 87.82788
879.5509, 81.09839
880.0330, 74.30591
880.5151, 70.24023
880.9973, 68.26489
881.4794, 65.84253
881.9615, 60.89355
882.4436, 56.47559
882.9257, 53.95825
883.4078, 52.90405
883.8900, 52.14624
884.3721, 51.90601
884.8542, 50.38232
885.3363, 46.26538
885.8184, 41.87451
886.3005, 41.56519
886.7827, 44.12158
887.2648, 46.69116
887.7469, 48.61304
888.2290, 49.85791
888.7111, 50.30176
889.1932, 50.06006
889.6754, 49.21851
890.1575, 47.18604
890.6396, 46.26929
891.1217, 46.92603
891.6038, 48.10229
892.0859, 48.38086
892.5681, 48.10962
893.0502, 48.42896
893.5323, 49.60278
894.0144, 50.78882
894.4965, 51.42847
894.9786, 51.79712
895.4608, 52.09424
895.9429, 52.28296
896.4250, 52.64722
896.9071, 53.42163
897.3892, 53.84448
897.8713, 53.21167
898.3535, 51.70728
898.8356, 50.57788
899.3177, 49.79053
899.7998, 48.74243
900.2819, 46.54321
900.7640, 44.32886
901.2462, 43.14917
901.7283, 42.92554
902.2104, 42.25732
902.6925, 40.94751
903.1746, 39.33179
903.6567, 37.30713
904.1389, 35.17310
904.6210, 34.08716
905.1031, 33.90112
905.5852, 33.17554
906.0673, 30.56543
906.5494, 28.20264
907.0316, 28.42529
907.5137, 30.15039
907.9958, 31.47778
908.4779, 31.75635
908.9600, 31.79053
909.4421, 31.68140
909.9243, 31.31812
910.4064, 30.31836
910.8885, 28.75195
911.3706, 27.97803
911.8527, 28.35864
912.3348, 28.58936
912.8170, 27.53760
913.2991, 25.59399
913.7812, 22.68188
914.2633, 17.96338
914.7454, 16.10303
915.2275, 20.19067
915.7097, 24.39526
916.1918, 24.91284
916.6739, 21.83276
917.1560, 21.27124
917.6381, 23.25732
918.1202, 24.83813
918.6024, 22.71094
919.0845, 19.97632
919.5666, 20.84204
920.0487, 24.55151
920.5308, 26.34766
921.0129, 21.99194
921.4951, 19.03516
921.9772, 20.11035
922.4593, 23.53979
922.9414, 24.07373
923.4235, 21.74365
923.9056, 19.44116
924.3878, 18.03955
924.8699, 17.14771
925.3520, 16.91309
925.8341, 16.69214
926.3162, 15.40869
926.7983, 10.55078
927.2805, 8.190430
927.7626, 10.83496
928.2447, 14.30078
928.7268, 13.89233
929.2089, 9.625488
929.6910, 6.894043
930.1732, 6.237793
930.6553, 5.943848
931.1374, 4.166260
931.6195, 2.103760
932.1016, 1.062256
932.5837, 1.229736
933.0659, 1.866943
933.5480, 4.032471
934.0301, 5.027344
934.5122, 3.126221
934.9943, 1.057373
935.4764, 2.804688
935.9586, 2.226563
936.4407, 1.113037
936.9228, 1.1475000E-02
937.4049, 0.7897950
937.8870, 0.8752440
938.3691, 0.4489750
938.8513, 7.0799999E-03
939.3334, 0.1208500
939.8155, 0.4013670
940.2976, 1.896484
940.7797, 3.786621
941.2618, 5.120361
941.7440, 5.899658
942.2261, 6.901123
942.7082, 8.425049
943.1903, 9.118652
943.6724, 7.023438
944.1545, 3.836914
944.6367, 1.381348
945.1188, 0.2880860
945.6009, 1.234863
946.0830, 3.748535
946.5651, 5.858154
947.0472, 6.521729
947.5294, 5.903320
948.0115, 5.578125
948.4936, 5.517090
948.9757, 5.715576
949.4578, 6.754395
949.9399, 7.572021
950.4221, 6.907715
950.9042, 5.311523
951.3863, 4.928467
951.8684, 6.649170
952.3505, 8.653564
952.8326, 11.20117
953.3148, 13.30444
953.7969, 12.08667
954.2790, 8.563721
954.7611, 7.050781
955.2432, 8.865479
955.7253, 12.01440
956.2075, 15.95337
956.6896, 19.94849
957.1717, 23.14844
957.6538, 24.88916
958.1359, 27.50464
958.6180, 30.92578
959.1002, 35.23511
959.5823, 41.32056
960.0644, 48.19019
960.5465, 52.26562
961.0286, 53.85449
961.5107, 55.78418
961.9929, 60.04541
962.4750, 64.71875
962.9571, 69.27539
963.4392, 73.44141
963.9213, 76.48535
964.4034, 78.25415
964.8856, 79.63940
965.3677, 81.26001
965.8498, 81.76440
966.3319, 77.76929
966.8140, 71.26001
967.2961, 66.65625
967.7783, 65.97925
968.2604, 64.88745
968.7425, 61.60718
969.2246, 57.31152
969.7067, 52.74463
970.1888, 47.89453
970.6710, 43.23950
971.1531, 38.74878
971.6352, 34.94775
972.1173, 32.72510
972.5994, 31.16553
973.0815, 28.85791
973.5637, 25.96265
974.0458, 23.69458
974.5279, 22.69116
975.0100, 22.12305
975.4921, 21.96143
975.9742, 21.98877
976.4564, 21.89380
976.9385, 21.65723
977.4206, 20.11572
977.9027, 16.38989
978.3848, 13.35522
978.8669, 14.62769
979.3491, 17.86084
979.8312, 20.40405
980.3133, 21.84180
980.7954, 21.16113
981.2775, 16.72681
981.7596, 13.43677
982.2418, 15.16089
982.7239, 20.77319
983.2060, 25.23096
983.6881, 28.51562
984.1702, 31.29028
984.6523, 32.80078
985.1345, 34.98096
985.6166, 39.43726
986.0987, 45.55835
986.5808, 50.98511
987.0629, 55.72168
987.5450, 59.56055
988.0272, 62.16284
988.5093, 64.58936
988.9914, 69.30688
989.4735, 74.87134
989.9556, 78.00269
990.4377, 77.50854
990.9199, 76.91870
991.4020, 77.64136
991.8841, 78.73486
992.3662, 79.72339
992.8483, 80.60938
993.3304, 80.85962
993.8126, 80.70923
994.2947, 79.40112
994.7768, 75.19922
995.2589, 70.20752
995.7410, 67.18140
996.2231, 65.57153
996.7053, 63.60498
997.1874, 59.93604
997.6695, 57.11768
998.1516, 55.65308
998.6337, 54.70996
999.1158, 53.21606
999.5980, 51.16870
1000.080, 48.47559
1000.562, 45.06372
1001.044, 41.39404
1001.526, 37.25513
1002.009, 33.55176
1002.491, 31.23804
1002.973, 30.43726
1003.455, 29.64551
1003.937, 28.79858
1004.419, 27.79956
1004.901, 26.56299
1005.383, 25.31934
1005.865, 23.55591
1006.348, 21.76001
1006.830, 21.27271
1007.312, 24.41162
1007.794, 26.85596
1008.276, 26.54907
1008.758, 25.16968
1009.240, 24.57227
1009.722, 24.92920
1010.205, 23.73242
1010.687, 20.59546
1011.169, 17.87183
1011.651, 18.18091
1012.133, 19.62109
1012.615, 20.39453
1013.097, 20.35620
1013.579, 19.59888
1014.061, 17.49731
1014.544, 15.84619
1015.026, 15.35547
1015.508, 15.50537
1015.990, 14.94800
1016.472, 13.82520
1016.954, 12.77222
1017.436, 12.12866
1017.918, 11.25830
1018.401, 9.039063
1018.883, 6.867676
1019.365, 6.164307
1019.847, 7.195801
1020.329, 8.710449
1020.811, 10.92725
1021.293, 12.53149
1021.775, 11.98071
1022.257, 10.56543
1022.740, 10.38110
1023.222, 11.15210
1023.704, 11.70093
1024.186, 11.15894
1024.668, 10.92432
1025.150, 11.45239
1025.632, 12.22119
1026.114, 12.23462
1026.596, 11.59424
1027.079, 11.30933
1027.561, 11.56396
1028.043, 11.90796
1028.525, 12.17993
1029.007, 12.24097
1029.489, 11.98633
1029.971, 11.41333
1030.453, 10.52759
1030.936, 9.244873
1031.418, 7.922119
1031.900, 6.350586
1032.382, 5.219727
1032.864, 6.652832
1033.346, 9.567139
1033.828, 11.35449
1034.310, 10.23486
1034.792, 9.210938
1035.275, 9.975098
1035.757, 10.26636
1036.239, 7.218994
1036.721, 0.8732910
1037.203, 1.417480
1037.685, 0.6044920
1038.167, 2.492676
1038.649, 8.6669996E-02
1039.132, 2.973877
1039.614, 3.800537
1040.096, 2.599365
1040.578, 1.210693
1041.060, 0.4836430
1041.542, 1.597900
1042.024, 1.704834
1042.506, 1.666260
1042.989, 3.304199
1043.471, 5.616211
1043.953, 6.285889
1044.435, 4.512207
1044.917, 3.120605
1045.399, 3.373047
1045.881, 4.122559
1046.363, 5.153076
1046.845, 6.273682
1047.328, 5.328125
1047.810, 2.491943
1048.292, 0.7287600
1048.774, 2.339600
1049.256, 4.301270
1049.738, 4.349609
1050.220, 3.117676
1050.702, 1.459229
1051.184, 1.432129
1051.667, 2.413818
1052.149, 1.084473
1052.631, 0.9899900
1053.113, 3.071533
1053.595, 4.658936
1054.077, 4.223877
1054.559, 2.087646
1055.041, 0.7409670
1055.523, 2.176025
1056.006, 3.387695
1056.488, 3.678223
1056.970, 3.214600
1057.452, 2.053711
1057.934, 0.3303220
1058.416, 0.7321780
1058.898, 0.7509770
1059.380, 0.9465330
1059.863, 2.964111
1060.345, 5.064209
1060.827, 6.004395
1061.309, 5.744385
1061.791, 3.136963
1062.273, 2.534668
1062.755, 7.039307
1063.237, 8.387207
1063.719, 7.620117
1064.202, 5.100098
1064.684, 1.948730
1065.166, 0.3657230
1065.648, 2.091553
1066.130, 3.584961
1066.612, 4.385742
1067.094, 4.997314
1067.576, 6.068359
1068.059, 7.375488
1068.541, 7.153076
1069.023, 5.625488
1069.505, 4.759033
1069.987, 6.517578
1070.469, 8.403809
1070.951, 9.397949
1071.433, 9.495850
1071.916, 8.405029
1072.398, 5.906738
1072.880, 4.115479
1073.362, 3.282715
1073.844, 3.510010
1074.326, 6.051270
1074.808, 8.987793
1075.290, 10.14868
1075.772, 9.338867
1076.255, 8.526611
1076.737, 7.480713
1077.219, 7.545410
1077.701, 9.683838
1078.183, 12.41382
1078.665, 12.38354
1079.147, 10.69604
1079.629, 10.02197
1080.111, 11.51294
1080.594, 12.64258
1081.076, 11.21777
1081.558, 10.44556
1082.040, 12.69336
1082.522, 17.49243
1083.004, 20.15723
1083.486, 20.79028
1083.968, 20.36035
1084.450, 18.21338
1084.933, 16.46167
1085.415, 17.49536
1085.897, 19.35425
1086.379, 18.57007
1086.861, 13.76929
1087.343, 12.19238
1087.825, 14.61401
1088.307, 17.36865
1088.790, 17.55908
1089.272, 16.08472
1089.754, 12.87231
1090.236, 8.660645
1090.718, 7.203369
1091.200, 10.86816
1091.682, 14.36133
1092.164, 17.16943
1092.646, 18.72095
1093.129, 17.32739
1093.611, 14.11328
1094.093, 11.64136
1094.575, 10.22754
1095.057, 9.709717
1095.539, 10.71338
1096.021, 12.41016
1096.503, 14.92749
1096.986, 17.43823
1097.468, 16.78711
1097.950, 13.51196
1098.432, 11.16406
1098.914, 10.94702
1099.396, 11.72559
1099.878, 14.07227
1100.360, 16.07251
1100.843, 15.52783
1101.325, 12.04980
1101.807, 9.890381
1102.289, 9.115234
1102.771, 8.815918
1103.253, 8.419189
1103.735, 8.341309
1104.217, 9.592041
1104.699, 11.40161
1105.182, 12.29492
1105.664, 11.27661
1106.146, 10.69849
1106.628, 11.03296
1107.110, 10.96948
1107.592, 8.286133
1108.074, 4.746826
1108.556, 4.385254
1109.038, 6.654297
1109.521, 8.516113
1110.003, 8.732178
1110.485, 8.776611
1110.967, 8.970215
1111.449, 8.966797
1111.931, 7.688965
1112.413, 5.660645
1112.895, 5.891602
1113.377, 8.849121
1113.860, 11.19702
1114.342, 10.67749
1114.824, 9.166504
1115.306, 7.171875
1115.788, 5.124268
1116.270, 4.795654
1116.752, 6.211182
1117.234, 7.093018
1117.717, 6.558594
1118.199, 6.087891
1118.681, 7.625000
1119.163, 9.583984
1119.645, 10.49414
1120.127, 10.32617
1120.609, 9.506348
1121.091, 7.644287
1121.573, 7.544922
1122.056, 11.94604
1122.538, 16.10547
1123.020, 12.04321
1123.502, 4.427002
1123.984, 0.5568850
1124.466, 4.427490
1124.948, 6.375000
1125.430, 5.724854
1125.913, 4.665527
1126.395, 4.870605
1126.877, 5.645020
1127.359, 5.275146
1127.841, 4.141113
1128.323, 3.223633
1128.805, 1.902588
1129.287, 2.535400
1129.770, 6.634277
1130.252, 10.75781
1130.734, 10.71094
1131.216, 7.807617
1131.698, 7.834473
1132.180, 10.51392
1132.662, 12.33350
1133.144, 10.35791
1133.626, 8.234375
1134.109, 7.006348
1134.591, 6.545898
1135.073, 6.805420
1135.555, 7.724121
1136.037, 8.930664
1136.519, 10.40894
1137.001, 11.29321
1137.483, 10.52563
1137.965, 9.461182
1138.448, 9.567871
1138.930, 10.08179
1139.412, 7.854492
1139.894, 2.669678
1140.376, 0.2561040
1140.858, 0.4104000
1141.340, 2.406006
1141.822, 4.342041
1142.304, 6.104004
1142.787, 7.434326
1143.269, 8.322754
1143.751, 9.814453
1144.233, 11.99878
1144.715, 14.10791
1145.197, 16.02026
1145.679, 17.21240
1146.161, 16.71240
1146.644, 15.15845
1147.126, 13.08838
1147.608, 10.05103
1148.090, 9.180664
1148.572, 11.28955
1149.054, 13.01465
1149.536, 12.11084
1150.018, 10.55933
1150.500, 12.70532
1150.983, 16.67749
1151.465, 18.75488
1151.947, 17.61670
1152.429, 14.85547
1152.911, 9.767822
1153.393, 5.050293
1153.875, 2.412598
1154.357, 1.609863
1154.840, 2.851074
1155.322, 5.423828
1155.804, 7.015869
1156.286, 6.120117
1156.768, 4.885498
1157.250, 2.972412
1157.732, 1.815918
1158.214, 3.472656
1158.697, 7.047852
1159.179, 8.546143
1159.661, 8.144287
1160.143, 7.500977
1160.625, 7.303711
1161.107, 7.140869
1161.589, 6.700928
1162.071, 6.557129
1162.553, 8.158203
1163.036, 10.91821
1163.518, 10.83789
1164.000, 7.794922
1164.482, 4.806885
1164.964, 3.403564
1165.446, 2.898438
1165.928, 3.496582
1166.410, 4.512451
1166.892, 4.591309
1167.375, 3.828613
1167.857, 3.418945
1168.339, 3.532227
1168.821, 3.736572
1169.303, 3.183838
1169.785, 3.117676
1170.267, 4.894287
1170.749, 7.672119
1171.231, 8.955078
1171.714, 8.735840
1172.196, 9.197510
1172.678, 10.95825
1173.160, 12.20654
1173.642, 10.49146
1174.124, 8.371582
1174.606, 8.289551
1175.088, 9.841797
1175.571, 10.37354
1176.053, 9.852295
1176.535, 9.102295
1177.017, 8.021973
1177.499, 7.971680
1177.981, 12.36719
1178.463, 16.95215
1178.945, 16.59717
1179.427, 11.14648
1179.910, 9.091797
1180.392, 10.80371
1180.874, 12.18848
1181.356, 11.45068
1181.838, 9.585938
1182.320, 7.090332
1182.802, 4.738770
1183.284, 3.438232
1183.767, 3.338135
1184.249, 3.948242
1184.731, 5.458984
1185.213, 6.445557
1185.695, 5.858398
1186.177, 5.046387
1186.659, 6.571533
1187.141, 8.479736
1187.624, 7.543457
1188.106, 2.170166
1188.588, 0.9750980
1189.070, 1.546143
1189.552, 1.578613
1190.034, 2.360840
1190.516, 3.068359
1190.998, 2.347412
1191.480, 0.9252930
1191.963, 9.1063999E-02
1192.445, 0.3764650
1192.927, 0.5024410
1193.409, 0.5244140
1193.891, 0.3010250
1194.373, 0.1074220
1194.855, 0.8605960
1195.337, 2.434814
1195.819, 4.439697
1196.302, 6.036621
1196.784, 7.082275
1197.266, 7.619141
1197.748, 7.523438
1198.230, 7.403320
1198.712, 7.690430
1199.194, 8.313721
1199.676, 9.835449
1200.158, 11.60913
1200.641, 11.72852
1201.123, 9.131348
1201.605, 6.646484
1202.087, 4.139160
1202.569, 3.025146
1203.051, 6.409912
1203.533, 10.71411
1204.015, 10.06250
1204.498, 6.046875
1204.980, 4.982178
1205.462, 9.672607
1205.944, 12.46533
1206.426, 12.48218
1206.908, 11.47876
1207.390, 10.86182
1207.872, 10.46704
1208.354, 9.931641
1208.837, 9.364746
1209.319, 9.495850
1209.801, 11.01270
1210.283, 11.37280
1210.765, 10.01001
1211.247, 8.396729
1211.729, 7.604004
1212.211, 7.751709
1212.694, 10.42627
1213.176, 14.68188
1213.658, 14.22339
1214.140, 6.007324
1214.622, 1.511475
1215.104, 2.927734
1215.586, 6.236328
1216.068, 8.637207
1216.551, 9.455322
1217.033, 6.688965
1217.515, 1.028564
1217.997, 1.616211
1218.479, 8.4229000E-02
1218.961, 0.9636230
1219.443, 0.1525880
1219.925, 1.040527
1220.407, 1.828613
1220.890, 5.552002
1221.372, 6.543701
1221.854, 4.807861
1222.336, 3.735107
1222.818, 3.513916
1223.300, 3.539063
1223.782, 3.618164
1224.264, 4.202148
1224.746, 6.909912
1225.229, 9.575928
1225.711, 9.552490
1226.193, 6.909424
1226.675, 5.226563
1227.157, 4.749023
1227.639, 4.104492
1228.121, 2.958008
1228.603, 1.875244
1229.085, 0.7558590
1229.568, 0.5485840
1230.050, 3.016357
1230.532, 7.719482
1231.014, 9.987549
1231.496, 9.589355
1231.978, 8.679932
1232.460, 7.651855
1232.942, 6.679932
1233.425, 5.680908
1233.907, 5.013916
1234.389, 5.416016
1234.871, 6.553223
1235.353, 6.129395
1235.835, 4.071777
1236.317, 2.631592
1236.799, 2.533447
1237.281, 2.261963
1237.764, 0.4777830
1238.246, 3.028320
1238.728, 2.869141
1239.210, 0.6601560
1239.692, 1.283203
1240.174, 2.947998
1240.656, 4.078613
1241.138, 4.481201
1241.621, 5.038330
1242.103, 6.744873
1242.585, 8.488281
1243.067, 9.643311
1243.549, 10.13574
1244.031, 9.320313
1244.513, 7.385986
1244.995, 6.170654
1245.478, 5.923828
1245.960, 6.157715
1246.442, 6.978516
1246.924, 7.932129
1247.406, 8.609375
1247.888, 9.038086
1248.370, 10.27783
1248.852, 11.79565
1249.334, 10.75586
1249.817, 5.991699
1250.299, 2.513916
1250.781, 4.638428
1251.263, 6.296143
1251.745, 4.607422
1252.227, 1.347900
1252.709, 0.9550780
1253.191, 2.628174
1253.673, 4.219971
1254.156, 5.398926
1254.638, 5.611572
1255.120, 3.304199
1255.602, 2.132080
1256.084, 3.624512
1256.566, 6.468262
1257.048, 8.257080
1257.530, 9.323486
1258.012, 10.43408
1258.495, 11.77222
1258.977, 12.27954
1259.459, 11.37256
1259.941, 10.53662
1260.423, 9.916748
1260.905, 10.14624
1261.387, 12.74585
1261.869, 16.20752
1262.352, 18.23096
1262.834, 18.41968
1263.316, 17.48315
1263.798, 15.25415
1264.280, 12.88672
1264.762, 10.65674
1265.244, 8.733643
1265.726, 6.884033
1266.208, 5.730225
1266.691, 6.387939
1267.173, 8.888672
1267.655, 10.32788
1268.137, 10.57568
1268.619, 11.00342
1269.101, 12.16943
1269.583, 12.66943
1270.065, 9.959961
1270.548, 6.355957
1271.030, 6.159424
1271.512, 8.024414
1271.994, 7.729248
1272.476, 5.343262
1272.958, 3.600830
1273.440, 3.116943
1273.922, 3.479980
1274.405, 5.614502
1274.887, 7.284912
1275.369, 6.910889
1275.851, 5.305908
1276.333, 4.524902
1276.815, 4.528564
1277.297, 5.458496
1277.779, 7.451904
1278.261, 8.394775
1278.744, 5.795410
1279.226, 3.511475
1279.708, 2.679443
1280.190, 3.164307
1280.672, 5.340088
1281.154, 8.450684
1281.636, 10.77222
1282.118, 12.05737
1282.600, 12.19727
1283.083, 10.48218
1283.565, 8.806885
1284.047, 7.691162
1284.529, 6.597900
1285.011, 4.037842
1285.493, 1.403320
1285.975, 1.518311
1286.457, 4.379395
1286.939, 5.473633
1287.422, 3.949219
1287.904, 2.601318
1288.386, 1.983643
1288.868, 1.676514
1289.350, 0.8386230
1289.832, 0.3811040
1290.314, 1.753906
1290.796, 4.423828
1291.279, 5.417969
1291.761, 4.429932
1292.243, 4.612549
1292.725, 6.445068
1293.207, 8.322998
1293.689, 9.549316
1294.171, 9.594971
1294.653, 7.677002
1295.135, 4.764648
1295.618, 2.111572
1296.100, 0.1486820
1296.582, 0.7517090
1297.064, 4.987793
1297.546, 8.593750
1298.028, 8.817383
1298.510, 7.452148
1298.992, 4.124268
1299.475, 0.1325680
1299.957, 6.3721001E-02
1300.439, 2.254150
1300.921, 4.870850
1301.403, 4.202881
1301.885, 0.0000000E+00
##END=



