##NAMES=Clinocervantite
##RRUFFID=R070385
##IDEAL CHEMISTRY=Sb^3+^Sb^5+^O_4_
##LOCALITY=Le Cetine di Cotorniano Mine (Le Cetine Mine; Cetine Mine; Rosia), Chiusdino, Siena Province, Tuscany, Italy
##OWNER=RRUFF
##SOURCE=Michael Scott
##DESCRIPTION=White acicular crystals in vug associated with valentinite, tripuhyite, R070383, and rosiaite, R070384. Co-type specimen
##STATUS=The identification of this mineral is confirmed by single-crystal X-ray diffraction and chemical analysis.
##URL=rruff.info/R070385
##MEASURED CHEMISTRY=Sb^3+^_1.00_(Sb^5+^_0.99_As^5+^_0.01_)_Î£=1_O_4_; Sb^5+^ and Sb^3+^ splitted by charge balance
74.26385, 0.0000000E+00
74.74597, 0.3611760
75.22809, 3.1005999E-02
75.71021, 0.2554020
76.19232, 0.9126590
76.67444, 2.924042
77.15656, 6.222893
77.63867, 9.180359
78.12079, 10.80918
78.60291, 11.49116
79.08502, 12.49724
79.56714, 14.36616
80.04926, 17.19808
80.53137, 20.97166
81.01349, 26.37730
81.49561, 31.38057
81.97772, 33.80643
82.45984, 33.56046
82.94196, 34.07632
83.42407, 38.59341
83.90619, 44.69885
84.38831, 48.73668
84.87042, 49.02642
85.35254, 47.90285
85.83466, 48.27449
86.31677, 50.13746
86.79889, 53.18851
87.28101, 57.66174
87.76312, 62.40404
88.24524, 66.53120
88.72736, 69.53938
89.20947, 71.16976
89.69159, 71.43416
90.17371, 69.68592
90.65582, 68.44402
91.13794, 68.88985
91.62006, 70.30907
92.10217, 71.50163
92.58429, 72.72709
93.06641, 76.16040
93.54852, 78.87679
94.03064, 83.94566
94.51276, 90.29359
94.99487, 92.94623
95.47699, 98.98673
95.95911, 106.6273
96.44122, 112.0051
96.92334, 115.9849
97.40546, 120.0333
97.88757, 125.8385
98.36969, 133.0982
98.85181, 138.2387
99.33392, 139.8640
99.81604, 138.9884
100.2982, 136.4213
100.7803, 131.7579
101.2624, 125.7983
101.7445, 118.1398
102.2266, 110.4870
102.7087, 104.3552
103.1909, 100.1076
103.6730, 96.94324
104.1551, 93.64590
104.6372, 90.41480
105.1193, 86.49580
105.6014, 81.53807
106.0836, 75.91854
106.5657, 69.97630
107.0478, 63.71086
107.5299, 57.51621
108.0120, 52.23440
108.4941, 47.90078
108.9763, 43.88266
109.4584, 40.86211
109.9405, 38.08960
110.4226, 33.04675
110.9047, 23.48717
111.3868, 12.94664
111.8690, 7.679710
112.3511, 9.217209
112.8332, 10.91706
113.3153, 7.399929
113.7974, 0.5973360
114.2795, 5.953625
114.7617, 3.134785
115.2438, 1.731522
115.7259, 0.7600750
116.2080, 8.335030
116.6901, 18.98383
117.1722, 24.46173
117.6544, 24.16115
118.1365, 23.57829
118.6186, 24.78220
119.1007, 26.67256
119.5828, 28.26182
120.0649, 29.12117
120.5471, 30.12224
121.0292, 33.16931
121.5113, 39.67039
121.9934, 44.14467
122.4755, 44.53263
122.9576, 42.45746
123.4398, 38.98392
123.9219, 34.25637
124.4040, 28.99958
124.8861, 25.28347
125.3682, 24.71428
125.8503, 22.71908
126.3325, 17.86307
126.8146, 11.38989
127.2967, 4.866104
127.7788, 0.6534730
128.2609, 6.066742
128.7430, 14.62317
129.2252, 27.84530
129.7073, 42.81201
130.1894, 59.16560
130.6715, 76.76138
131.1536, 95.22457
131.6357, 114.2881
132.1179, 135.4982
132.6000, 158.6519
133.0821, 186.5587
133.5642, 213.6660
134.0463, 239.5935
134.5284, 263.8823
135.0106, 285.8376
135.4927, 304.6803
135.9748, 320.5722
136.4569, 336.9002
136.9390, 349.8552
137.4211, 366.9350
137.9033, 392.2275
138.3854, 423.7074
138.8675, 457.0614
139.3496, 489.4081
139.8317, 520.7934
140.3138, 550.2166
140.7960, 566.9982
141.2781, 592.0582
141.7602, 634.4603
142.2423, 693.2263
142.7244, 762.7759
143.2065, 840.1461
143.6887, 925.4609
144.1708, 1014.506
144.6529, 1105.479
145.1350, 1200.733
145.6171, 1307.352
146.0992, 1422.705
146.5814, 1532.958
147.0635, 1631.694
147.5456, 1715.194
148.0277, 1764.022
148.5098, 1776.663
148.9919, 1757.034
149.4741, 1702.966
149.9562, 1615.021
150.4383, 1506.758
150.9204, 1382.396
151.4025, 1243.563
151.8846, 1109.487
152.3668, 974.8861
152.8489, 849.4526
153.3310, 741.4362
153.8131, 651.8085
154.2952, 575.6624
154.7773, 512.3078
155.2595, 460.1742
155.7416, 413.1357
156.2237, 370.5791
156.7058, 332.5602
157.1879, 298.9099
157.6700, 269.5458
158.1522, 245.4039
158.6343, 230.2928
159.1164, 221.4135
159.5985, 212.5518
160.0806, 200.1453
160.5627, 187.6660
161.0449, 180.9127
161.5270, 181.1753
162.0091, 182.8934
162.4912, 181.1648
162.9733, 178.0101
163.4554, 177.4814
163.9376, 181.9980
164.4197, 189.6899
164.9018, 196.6341
165.3839, 201.7137
165.8660, 209.2056
166.3481, 223.5910
166.8303, 241.9444
167.3124, 259.4939
167.7945, 272.7611
168.2766, 284.5081
168.7587, 301.4841
169.2408, 326.0920
169.7230, 350.5845
170.2051, 365.8367
170.6872, 379.1469
171.1693, 402.4575
171.6514, 442.8740
172.1335, 495.9472
172.6157, 548.5869
173.0978, 593.0574
173.5799, 654.2622
174.0620, 747.3940
174.5441, 861.0720
175.0262, 978.8364
175.5084, 1092.725
175.9905, 1206.546
176.4726, 1333.576
176.9547, 1480.954
177.4368, 1629.009
177.9189, 1773.029
178.4010, 1912.169
178.8832, 2044.293
179.3653, 2168.915
179.8474, 2287.053
180.3295, 2401.604
180.8116, 2506.177
181.2937, 2619.655
181.7759, 2749.085
182.2580, 2889.144
182.7401, 3030.682
183.2222, 3166.869
183.7043, 3305.542
184.1864, 3468.785
184.6686, 3656.351
185.1507, 3870.837
185.6328, 4099.572
186.1149, 4352.960
186.5970, 4640.488
187.0791, 4964.474
187.5613, 5331.084
188.0434, 5760.189
188.5255, 6225.288
189.0076, 6809.723
189.4897, 7546.263
189.9718, 8376.323
190.4540, 9272.176
190.9361, 10223.58
191.4182, 11181.62
191.9003, 12049.09
192.3824, 12930.29
192.8645, 13504.82
193.3467, 13714.37
193.8288, 13658.01
194.3109, 13387.42
194.7930, 12919.83
195.2751, 12341.09
195.7572, 11829.82
196.2394, 11367.21
196.7215, 11014.41
197.2036, 10755.48
197.6857, 10597.87
198.1678, 10555.08
198.6499, 10630.10
199.1321, 10804.72
199.6142, 11048.48
200.0963, 11371.07
200.5784, 11754.40
201.0605, 12147.20
201.5426, 12615.87
202.0248, 13208.71
202.5069, 13941.33
202.9890, 14787.06
203.4711, 15697.74
203.9532, 16632.05
204.4353, 17735.87
204.9175, 19034.17
205.3996, 20460.70
205.8817, 22059.70
206.3638, 23801.99
206.8459, 25503.24
207.3280, 26991.12
207.8102, 28429.04
208.2923, 29145.75
208.7744, 29135.08
209.2565, 28521.17
209.7386, 27234.83
210.2207, 25341.45
210.7029, 23075.50
211.1850, 20640.51
211.6671, 17942.11
212.1492, 15478.73
212.6313, 13218.74
213.1134, 11209.27
213.5956, 9510.539
214.0777, 8111.745
214.5598, 6949.216
215.0419, 5977.679
215.5240, 5213.859
216.0061, 4556.107
216.4883, 4033.724
216.9704, 3585.011
217.4525, 3199.153
217.9346, 2869.207
218.4167, 2584.970
218.8988, 2340.405
219.3810, 2135.980
219.8631, 1954.981
220.3452, 1808.087
220.8273, 1675.916
221.3094, 1557.510
221.7915, 1450.185
222.2737, 1349.864
222.7558, 1254.245
223.2379, 1163.005
223.7200, 1081.152
224.2021, 1015.990
224.6842, 952.8394
225.1664, 886.2286
225.6485, 819.9631
226.1306, 760.5970
226.6127, 713.2203
227.0948, 674.9368
227.5770, 633.5325
228.0591, 582.5718
228.5412, 536.5844
229.0233, 498.4213
229.5054, 466.1266
229.9875, 437.6842
230.4697, 412.2043
230.9518, 389.5667
231.4339, 369.4549
231.9160, 353.2267
232.3981, 337.2119
232.8802, 320.6885
233.3624, 304.1611
233.8445, 287.1525
234.3266, 269.8875
234.8087, 254.1094
235.2908, 243.2271
235.7729, 240.1422
236.2551, 235.0271
236.7372, 223.6061
237.2193, 212.0875
237.7014, 204.1353
238.1835, 200.6184
238.6656, 199.8392
239.1478, 200.1152
239.6299, 201.8162
240.1120, 205.7152
240.5941, 214.4089
241.0762, 222.4435
241.5583, 227.1326
242.0405, 229.0779
242.5226, 229.0674
243.0047, 225.9784
243.4868, 218.5876
243.9689, 218.7628
244.4510, 236.8441
244.9332, 253.2964
245.4153, 258.9760
245.8974, 256.8210
246.3795, 255.4999
246.8616, 261.5544
247.3437, 273.8157
247.8259, 284.0663
248.3080, 293.4877
248.7901, 299.3962
249.2722, 296.7593
249.7543, 290.9260
250.2364, 289.9385
250.7186, 297.2937
251.2007, 313.7983
251.6828, 343.0370
252.1649, 390.4803
252.6470, 440.2499
253.1291, 493.9676
253.6113, 544.3655
254.0934, 585.8093
254.5755, 618.0447
255.0576, 633.8010
255.5397, 618.1285
256.0219, 564.7241
256.5040, 503.6172
256.9861, 435.1297
257.4682, 366.8138
257.9503, 303.2553
258.4324, 245.5138
258.9146, 192.4639
259.3967, 139.6888
259.8788, 86.50708
260.3609, 48.67780
260.8430, 37.83810
261.3251, 36.38129
261.8073, 31.94489
262.2894, 24.11588
262.7715, 17.07568
263.2536, 13.13278
263.7357, 12.28790
264.2178, 15.39084
264.7000, 25.76328
265.1821, 35.04630
265.6642, 36.05847
266.1463, 30.88614
266.6284, 26.31070
267.1105, 24.14584
267.5927, 24.98053
268.0748, 31.92596
268.5569, 47.46573
269.0390, 61.00427
269.5211, 62.61798
270.0032, 57.45139
270.4854, 53.69733
270.9675, 52.77527
271.4496, 54.69202
271.9317, 59.73001
272.4138, 67.94992
272.8959, 78.32980
273.3781, 90.86331
273.8602, 105.0543
274.3423, 120.5735
274.8244, 140.2830
275.3065, 156.8514
275.7886, 163.0150
276.2708, 160.7095
276.7529, 159.4659
277.2350, 163.6855
277.7171, 169.0475
278.1992, 168.4211
278.6813, 161.4085
279.1635, 152.8212
279.6456, 146.3855
280.1277, 139.0081
280.6098, 124.2368
281.0919, 99.93588
281.5740, 73.00333
282.0562, 51.09204
282.5383, 34.40320
283.0204, 17.24164
283.5025, 4.195526
283.9846, 24.17130
284.4667, 37.18057
284.9489, 42.86093
285.4310, 44.71371
285.9131, 45.42679
286.3952, 45.37228
286.8773, 45.61307
287.3594, 46.15152
287.8416, 46.23932
288.3237, 46.34625
288.8058, 46.46533
289.2879, 45.47784
289.7700, 42.41544
290.2521, 37.33411
290.7343, 32.23227
291.2164, 25.49945
291.6985, 21.89392
292.1806, 23.55817
292.6627, 27.85052
293.1448, 32.24573
293.6270, 35.63623
294.1091, 37.08710
294.5912, 34.85455
295.0733, 26.94464
295.5554, 19.13617
296.0375, 8.705322
296.5197, 0.1015630
297.0018, 0.5323180
297.4839, 6.318054
297.9660, 12.19443
298.4481, 6.933197
298.9302, 12.58194
299.4124, 22.89755
299.8945, 14.60733
300.3766, 6.920441
300.8587, 7.096680
301.3408, 12.72217
301.8229, 17.96329
302.3050, 18.87668
302.7871, 16.39203
303.2693, 14.63950
303.7514, 12.53531
304.2335, 13.10858
304.7156, 20.06360
305.1977, 28.40350
305.6798, 31.53952
306.1620, 26.83633
306.6441, 20.19400
307.1262, 22.28656
307.6083, 36.04376
308.0904, 47.60196
308.5725, 51.23679
309.0547, 54.21945
309.5368, 60.69617
310.0189, 71.07855
310.5010, 83.22650
310.9831, 95.36407
311.4652, 107.6047
311.9474, 121.3455
312.4295, 138.3746
312.9116, 154.3298
313.3937, 167.2608
313.8758, 177.2884
314.3579, 184.5170
314.8401, 191.1072
315.3222, 194.0164
315.8043, 184.6453
316.2864, 160.2702
316.7685, 139.7487
317.2506, 136.1003
317.7328, 142.1607
318.2149, 146.1620
318.6970, 146.1888
319.1791, 144.9626
319.6612, 145.2627
320.1433, 146.2971
320.6255, 144.1503
321.1076, 136.7556
321.5897, 126.8004
322.0718, 118.7481
322.5539, 113.2159
323.0360, 105.9331
323.5182, 94.49789
324.0003, 81.11182
324.4824, 67.53052
324.9645, 54.02365
325.4466, 43.30493
325.9287, 38.39078
326.4109, 39.98328
326.8930, 41.41672
327.3751, 42.77728
327.8572, 43.91287
328.3393, 44.82846
328.8214, 45.45966
329.3036, 45.48254
329.7857, 44.57236
330.2678, 43.13593
330.7499, 43.07651
331.2320, 49.58292
331.7141, 50.99115
332.1963, 40.80705
332.6784, 27.33987
333.1605, 19.37726
333.6426, 19.61377
334.1247, 24.93111
334.6068, 31.29637
335.0890, 40.16582
335.5711, 45.93266
336.0532, 46.92053
336.5353, 46.68945
337.0174, 47.37421
337.4995, 48.55815
337.9817, 48.01242
338.4638, 42.97630
338.9459, 34.48013
339.4280, 32.31599
339.9101, 41.82936
340.3922, 49.93663
340.8744, 53.87279
341.3565, 53.90973
341.8386, 48.67670
342.3207, 37.09869
342.8028, 24.97314
343.2849, 22.63333
343.7671, 32.19183
344.2492, 36.78253
344.7313, 27.16467
345.2134, 15.22089
345.6955, 11.58646
346.1776, 16.52213
346.6598, 20.41995
347.1419, 14.31940
347.6240, 2.778778
348.1061, 0.3953550
348.5882, 8.624146
349.0703, 18.32639
349.5525, 18.59348
350.0346, 11.65439
350.5167, 4.313904
350.9988, 3.145508
351.4809, 9.875214
351.9630, 14.68814
352.4452, 17.71112
352.9273, 20.71014
353.4094, 25.33475
353.8915, 29.66183
354.3736, 28.35132
354.8557, 18.91263
355.3379, 12.02383
355.8200, 10.52451
356.3021, 11.78986
356.7842, 13.74341
357.2663, 16.68631
357.7484, 19.18832
358.2306, 19.52118
358.7127, 16.93396
359.1948, 13.82425
359.6769, 9.258392
360.1590, 5.406708
360.6411, 4.512848
361.1233, 5.097504
361.6054, 3.628326
362.0875, 2.400909
362.5696, 11.44498
363.0517, 16.86359
363.5338, 16.76642
364.0160, 15.21637
364.4981, 9.017883
364.9802, 4.039398
365.4623, 6.258423
365.9444, 16.18936
366.4265, 28.34622
366.9087, 36.28198
367.3908, 39.72714
367.8729, 44.61316
368.3550, 52.51968
368.8371, 60.31226
369.3192, 66.24414
369.8014, 70.87579
370.2835, 75.45126
370.7656, 79.84164
371.2477, 85.09744
371.7298, 93.09946
372.2119, 103.9702
372.6941, 116.3040
373.1762, 130.1928
373.6583, 144.8212
374.1404, 159.0296
374.6225, 172.8570
375.1046, 185.9614
375.5868, 198.6078
376.0689, 210.2314
376.5510, 218.6259
377.0331, 222.8672
377.5152, 227.4719
377.9973, 236.5847
378.4795, 250.6694
378.9616, 268.9029
379.4437, 289.1007
379.9258, 315.3676
380.4079, 350.2250
380.8900, 393.1371
381.3722, 441.6773
381.8543, 494.4292
382.3364, 552.1654
382.8185, 618.4106
383.3006, 690.6521
383.7827, 775.5383
384.2649, 872.0079
384.7470, 981.5962
385.2291, 1111.158
385.7112, 1258.540
386.1933, 1409.892
386.6754, 1549.613
387.1576, 1676.019
387.6397, 1812.335
388.1218, 1964.741
388.6039, 2121.922
389.0860, 2278.473
389.5681, 2437.350
390.0503, 2602.169
390.5324, 2776.922
391.0145, 2955.698
391.4966, 3127.938
391.9787, 3290.877
392.4608, 3469.428
392.9430, 3667.553
393.4251, 3887.034
393.9072, 4122.985
394.3893, 4376.392
394.8714, 4654.432
395.3535, 4959.733
395.8357, 5291.723
396.3178, 5656.850
396.7999, 6055.924
397.2820, 6470.658
397.7641, 6903.130
398.2462, 7339.336
398.7284, 7724.244
399.2105, 8082.248
399.6926, 8360.206
400.1747, 8559.672
400.6568, 8659.538
401.1389, 8626.274
401.6211, 8448.127
402.1032, 8137.871
402.5853, 7702.667
403.0674, 7101.184
403.5495, 6496.871
404.0316, 5857.277
404.5138, 5239.877
404.9959, 4663.408
405.4780, 4131.123
405.9601, 3648.984
406.4422, 3221.208
406.9243, 2845.283
407.4065, 2521.928
407.8886, 2262.193
408.3707, 2035.189
408.8528, 1839.865
409.3349, 1666.948
409.8170, 1510.210
410.2992, 1368.613
410.7813, 1243.468
411.2634, 1139.049
411.7455, 1052.859
412.2276, 976.0921
412.7097, 909.5246
413.1919, 851.4148
413.6740, 803.3286
414.1561, 762.3467
414.6382, 725.2640
415.1203, 692.6399
415.6024, 661.9293
416.0846, 631.8730
416.5667, 602.5402
417.0488, 572.7352
417.5309, 541.3693
418.0130, 512.5481
418.4951, 493.1600
418.9773, 486.5375
419.4594, 478.5704
419.9415, 466.0732
420.4236, 454.4261
420.9057, 446.7315
421.3878, 443.1027
421.8700, 443.4019
422.3521, 448.1245
422.8342, 455.4160
423.3163, 456.9030
423.7984, 445.8540
424.2805, 439.5456
424.7627, 443.3380
425.2448, 449.7187
425.7269, 452.1651
426.2090, 450.0142
426.6911, 447.6694
427.1732, 449.5394
427.6554, 455.2858
428.1375, 460.0677
428.6196, 461.4395
429.1017, 466.6364
429.5838, 483.0754
430.0659, 504.6645
430.5481, 521.9703
431.0302, 530.9930
431.5123, 539.2020
431.9944, 552.2309
432.4765, 569.4901
432.9586, 589.5890
433.4408, 612.9182
433.9229, 636.4425
434.4050, 656.2874
434.8871, 671.9041
435.3692, 688.4489
435.8513, 711.8685
436.3335, 731.0878
436.8156, 739.8932
437.2977, 738.9456
437.7798, 729.8383
438.2619, 712.9092
438.7440, 691.4142
439.2262, 673.9475
439.7083, 664.7242
440.1904, 652.0519
440.6725, 632.3718
441.1546, 612.2189
441.6367, 595.4386
442.1189, 582.5515
442.6010, 572.0568
443.0831, 562.5906
443.5652, 554.4575
444.0473, 548.6509
444.5294, 544.0554
445.0116, 546.2114
445.4937, 558.6898
445.9758, 578.6224
446.4579, 604.1036
446.9400, 634.9346
447.4221, 670.3504
447.9043, 714.7922
448.3864, 762.5823
448.8685, 799.2423
449.3506, 822.1897
449.8327, 845.4547
450.3148, 879.9073
450.7970, 925.1873
451.2791, 972.4189
451.7612, 1027.367
452.2433, 1077.725
452.7254, 1118.090
453.2076, 1152.074
453.6897, 1183.218
454.1718, 1212.673
454.6539, 1241.271
455.1360, 1269.341
455.6181, 1295.420
456.1003, 1332.770
456.5824, 1388.297
457.0645, 1447.833
457.5466, 1511.485
458.0287, 1575.016
458.5108, 1631.232
458.9930, 1676.356
459.4751, 1718.779
459.9572, 1773.317
460.4393, 1839.831
460.9214, 1897.620
461.4035, 1945.077
461.8857, 1979.339
462.3678, 2000.726
462.8499, 2008.722
463.3320, 1997.151
463.8141, 1960.652
464.2962, 1907.614
464.7784, 1841.103
465.2605, 1763.820
465.7426, 1685.679
466.2247, 1611.958
466.7068, 1535.788
467.1889, 1444.429
467.6711, 1326.343
468.1532, 1215.021
468.6353, 1110.148
469.1174, 1013.002
469.5995, 925.6879
470.0816, 847.3957
470.5638, 777.2844
471.0459, 714.7345
471.5280, 659.0811
472.0101, 607.1125
472.4922, 558.3691
472.9743, 512.6885
473.4565, 470.8152
473.9386, 432.4116
474.4207, 398.1727
474.9028, 367.6201
475.3849, 339.2834
475.8670, 313.3497
476.3492, 289.2936
476.8313, 265.0552
477.3134, 240.6876
477.7955, 221.2376
478.2776, 210.3210
478.7597, 204.9275
479.2419, 197.6393
479.7240, 186.5845
480.2061, 178.7278
480.6882, 180.5726
481.1703, 182.7247
481.6524, 175.4625
482.1346, 159.1550
482.6167, 140.9785
483.0988, 125.7976
483.5809, 113.6435
484.0630, 104.5183
484.5451, 100.0070
485.0273, 96.40451
485.5094, 93.59464
485.9915, 90.49243
486.4736, 87.09604
486.9557, 83.17441
487.4378, 77.46518
487.9200, 66.68600
488.4021, 53.33311
488.8842, 46.36507
489.3663, 47.12256
489.8484, 46.87833
490.3305, 40.26164
490.8127, 30.34341
491.2948, 23.90102
491.7769, 22.41437
492.2590, 20.02846
492.7411, 12.10913
493.2232, 3.797256
493.7054, 2.118912
494.1875, 6.929031
494.6696, 12.13170
495.1517, 13.04103
495.6338, 10.38066
496.1159, 8.860474
496.5981, 10.03749
497.0802, 10.18069
497.5623, 10.12099
498.0444, 8.126724
498.5265, 0.8056490
499.0086, 10.99022
499.4908, 20.79185
499.9729, 23.29370
500.4550, 19.54996
500.9371, 12.31247
501.4192, 0.2574620
501.9013, 9.691528
502.3835, 13.74861
502.8656, 14.31862
503.3477, 15.67918
503.8298, 18.53336
504.3119, 19.48643
504.7940, 15.35806
505.2762, 9.791183
505.7583, 7.706924
506.2404, 8.920639
506.7225, 8.928711
507.2046, 4.293076
507.6867, 3.448380
508.1689, 7.436996
508.6510, 3.660248
509.1331, 1.961700
509.6152, 3.381485
510.0973, 6.547623
510.5794, 12.17940
511.0616, 19.00935
511.5437, 22.62946
512.0258, 18.40443
512.5079, 10.10768
512.9901, 9.371857
513.4722, 17.68094
513.9543, 24.48109
514.4364, 26.36092
514.9185, 24.75920
515.4006, 20.82198
515.8828, 14.17401
516.3649, 9.884659
516.8470, 11.91733
517.3291, 15.06366
517.8112, 14.23105
518.2933, 10.05782
518.7755, 6.632401
519.2576, 6.232346
519.7397, 6.866425
520.2218, 4.643616
520.7039, 3.445877
521.1860, 7.817917
521.6682, 7.281738
522.1503, 4.826019
522.6324, 0.8564910
523.1145, 3.697464
523.5966, 7.317520
524.0787, 9.658493
524.5609, 9.746429
525.0430, 4.236450
525.5251, 6.837402
526.0072, 13.94821
526.4893, 13.49081
526.9714, 10.59953
527.4536, 11.58194
527.9357, 15.75224
528.4178, 16.18222
528.8999, 5.835754
529.3820, 2.512680
529.8641, 2.229614
530.3463, 13.75105
530.8284, 18.36755
531.3105, 11.61375
531.7926, 2.264740
532.2747, 3.440887
532.7568, 18.02902
533.2390, 25.07875
533.7211, 17.71321
534.2032, 10.44240
534.6853, 6.951019
535.1674, 6.439880
535.6495, 8.161713
536.1317, 12.15541
536.6138, 15.97383
537.0959, 17.05623
537.5780, 16.12083
538.0601, 15.25023
538.5422, 14.60017
539.0244, 14.82849
539.5065, 17.05386
539.9886, 20.51033
540.4707, 21.40913
540.9528, 18.49936
541.4349, 15.06894
541.9171, 9.543823
542.3992, 5.229172
542.8813, 6.740829
543.3634, 13.39799
543.8455, 19.40732
544.3276, 19.80569
544.8098, 16.17831
545.2919, 15.83725
545.7740, 20.42636
546.2561, 23.75597
546.7382, 21.57481
547.2203, 19.61266
547.7025, 23.47371
548.1846, 32.69836
548.6666, 40.25558
549.1487, 43.95170
549.6309, 43.80222
550.1130, 36.62769
550.5951, 24.74806
551.0772, 18.46601
551.5593, 22.27165
552.0414, 31.38163
552.5236, 38.50258
553.0057, 44.17464
553.4878, 45.83952
553.9699, 39.42985
554.4520, 33.96025
554.9341, 33.11895
555.4163, 35.58033
555.8984, 39.57168
556.3805, 44.52840
556.8626, 48.38327
557.3447, 47.81692
557.8268, 43.79472
558.3090, 42.81874
558.7911, 46.84477
559.2732, 50.07125
559.7553, 48.03203
560.2374, 41.82222
560.7195, 35.48708
561.2017, 28.09334
561.6838, 22.23247
562.1659, 17.61393
562.6480, 15.60145
563.1301, 18.75748
563.6122, 26.46221
564.0944, 35.21830
564.5765, 42.98813
565.0586, 49.03622
565.5407, 49.84212
566.0228, 42.58215
566.5049, 37.33649
566.9871, 39.41533
567.4692, 40.71718
567.9513, 33.40190
568.4334, 19.63229
568.9155, 10.75807
569.3976, 16.57154
569.8798, 25.75434
570.3619, 25.24670
570.8440, 17.61377
571.3261, 12.91866
571.8082, 14.69590
572.2903, 18.78503
572.7725, 20.33302
573.2546, 19.42101
573.7367, 16.87823
574.2188, 8.499367
574.7009, 2.862076
575.1830, 5.556694
575.6652, 10.54613
576.1473, 10.05947
576.6294, 2.710411
577.1115, 4.958252
577.5936, 6.372154
578.0757, 3.130821
578.5579, 0.8752140
579.0400, 0.2615360
579.5221, 0.2649380
580.0042, 1.456406
580.4863, 2.732574
580.9684, 2.946236
581.4506, 1.564621
581.9327, 1.719490
582.4148, 5.769989
582.8969, 10.33864
583.3790, 13.37071
583.8611, 14.59638
584.3433, 15.02512
584.8254, 15.10768
585.3075, 14.88501
585.7896, 13.91595
586.2717, 11.94594
586.7538, 12.40587
587.2360, 16.50817
587.7181, 21.15436
588.2002, 23.85375
588.6823, 25.46319
589.1644, 28.19451
589.6465, 33.12679
590.1287, 36.25887
590.6108, 32.86382
591.0929, 27.97074
591.5750, 29.38005
592.0571, 36.76140
592.5392, 43.56003
593.0214, 45.34761
593.5035, 44.33449
593.9856, 47.48520
594.4677, 57.12116
594.9498, 65.08241
595.4319, 70.03887
595.9141, 73.68979
596.3962, 76.15984
596.8783, 77.98403
597.3604, 80.41231
597.8425, 84.34051
598.3246, 88.07595
598.8068, 89.67770
599.2889, 89.90086
599.7710, 90.42499
600.2531, 91.56340
600.7352, 94.15404
601.2173, 99.37995
601.6995, 106.4969
602.1816, 110.4501
602.6637, 109.2750
603.1458, 107.3703
603.6279, 103.0287
604.1100, 99.74372
604.5922, 102.0028
605.0743, 108.2176
605.5564, 111.3981
606.0385, 105.9151
606.5206, 97.37556
607.0027, 94.35382
607.4849, 96.25061
607.9670, 98.55198
608.4491, 100.3731
608.9312, 101.3980
609.4133, 101.2949
609.8954, 100.0281
610.3776, 99.01975
610.8597, 97.79575
611.3418, 97.39989
611.8239, 96.85207
612.3060, 98.01517
612.7881, 104.3305
613.2703, 115.0152
613.7524, 124.0597
614.2345, 125.1001
614.7166, 122.8002
615.1987, 130.8912
615.6808, 150.0661
616.1630, 163.0901
616.6451, 162.1024
617.1272, 158.3555
617.6093, 165.1046
618.0914, 182.6351
618.5735, 197.9621
619.0557, 210.7214
619.5378, 221.0239
620.0199, 225.8466
620.5020, 229.7140
620.9841, 238.7865
621.4662, 253.8331
621.9484, 270.5559
622.4305, 285.3671
622.9126, 298.9540
623.3947, 312.5184
623.8768, 325.9289
624.3589, 339.3769
624.8411, 353.4122
625.3232, 366.8767
625.8053, 378.6281
626.2874, 388.7443
626.7695, 395.9047
627.2516, 397.1974
627.7338, 398.9158
628.2159, 404.9354
628.6980, 413.0417
629.1801, 420.8117
629.6622, 427.2805
630.1443, 430.9702
630.6265, 430.4015
631.1086, 425.6905
631.5907, 416.6998
632.0728, 402.2440
632.5549, 387.9866
633.0370, 374.6288
633.5192, 363.2215
634.0013, 356.5838
634.4834, 354.3709
634.9655, 347.4374
635.4476, 331.3103
635.9297, 314.1782
636.4119, 299.5898
636.8940, 286.8032
637.3761, 273.9529
637.8582, 260.9452
638.3403, 250.7568
638.8224, 247.0890
639.3046, 248.5870
639.7867, 247.3827
640.2688, 242.9629
640.7509, 238.9935
641.2330, 234.8074
641.7151, 233.6867
642.1973, 238.9870
642.6794, 250.6858
643.1615, 265.8322
643.6436, 285.5268
644.1257, 306.6724
644.6078, 327.9665
645.0900, 349.4927
645.5721, 370.2675
646.0542, 390.6437
646.5363, 414.2121
647.0184, 445.2924
647.5005, 481.5721
647.9827, 510.8678
648.4648, 529.9822
648.9469, 554.2083
649.4290, 588.0697
649.9111, 627.7076
650.3932, 670.1614
650.8754, 715.2689
651.3575, 763.5551
651.8396, 813.8896
652.3217, 869.0046
652.8038, 931.4185
653.2859, 999.1147
653.7681, 1069.357
654.2502, 1141.628
654.7323, 1218.669
655.2144, 1306.677
655.6965, 1395.729
656.1786, 1452.531
656.6608, 1475.937
657.1429, 1473.684
657.6250, 1445.915
658.1071, 1395.123
658.5892, 1316.916
659.0714, 1215.743
659.5535, 1110.906
660.0356, 991.9893
660.5177, 884.3163
660.9998, 799.6990
661.4819, 728.5935
661.9641, 660.4591
662.4462, 594.9717
662.9283, 537.6768
663.4104, 493.1938
663.8925, 456.5152
664.3746, 416.0814
664.8568, 371.6369
665.3389, 332.2356
665.8210, 300.1365
666.3031, 270.7073
666.7852, 239.6344
667.2673, 208.5091
667.7495, 183.4300
668.2316, 168.1375
668.7137, 152.8583
669.1958, 132.9923
669.6779, 114.7234
670.1600, 103.8887
670.6422, 98.82047
671.1243, 94.20304
671.6064, 87.50202
672.0885, 79.17251
672.5706, 68.63974
673.0527, 56.52528
673.5349, 47.57526
674.0170, 42.41928
674.4991, 39.15573
674.9812, 36.67891
675.4633, 35.31716
675.9454, 36.29502
676.4276, 42.45834
676.9097, 44.65566
677.3918, 40.53311
677.8739, 34.54959
678.3560, 28.84544
678.8381, 22.98439
679.3203, 14.84338
679.8024, 3.775379
680.2845, 4.850468
680.7666, 4.117867
681.2487, 2.412563
681.7308, 6.483643
682.2130, 7.819889
682.6951, 8.479969
683.1772, 9.320873
683.6593, 9.965614
684.1414, 9.728409
684.6235, 8.328835
685.1057, 7.547871
685.5878, 9.027931
686.0699, 9.124729
686.5520, 5.202644
687.0341, 0.5371210
687.5162, 0.9893260
687.9984, 0.8370290
688.4805, 2.340435
688.9626, 0.8755460
689.4447, 1.546021
689.9268, 2.958138
690.4089, 3.415047
690.8911, 2.633862
691.3732, 0.6022450
691.8553, 0.6226840
692.3374, 1.384460
692.8195, 6.032967
693.3016, 7.803955
693.7838, 4.866074
694.2659, 3.129993
694.7480, 4.948593
695.2301, 7.151043
695.7122, 8.062847
696.1943, 7.588257
696.6765, 5.431149
697.1586, 1.216743
697.6407, 5.456505
698.1228, 0.1243860
698.6049, 7.722977
699.0870, 8.130852
699.5692, 1.547237
700.0513, 4.126476
700.5334, 3.845638
701.0155, 0.8609850
701.4976, 2.265652
701.9797, 8.414536
702.4619, 13.52404
702.9440, 17.28443
703.4261, 18.66114
703.9082, 14.91787
704.3903, 9.291561
704.8724, 10.37764
705.3546, 22.28781
705.8367, 28.86788
706.3188, 22.79086
706.8009, 15.46794
707.2830, 12.04871
707.7651, 12.63694
708.2473, 18.54463
708.7294, 29.75979
709.2115, 38.41286
709.6936, 33.46130
710.1757, 20.75370
710.6578, 15.85666
711.1400, 18.77204
711.6221, 23.69080
712.1042, 28.93046
712.5863, 33.17488
713.0684, 33.90126
713.5505, 30.71850
714.0327, 32.79365
714.5148, 50.68563
714.9969, 59.17600
715.4790, 45.14611
715.9611, 27.63558
716.4432, 22.20348
716.9254, 28.00100
717.4075, 34.97671
717.8896, 40.33533
718.3717, 44.18970
718.8538, 46.06182
719.3359, 45.78571
719.8181, 42.27929
720.3002, 36.28096
720.7823, 30.95184
721.2644, 28.35903
721.7465, 27.90854
722.2286, 28.24178
722.7108, 29.34466
723.1929, 31.39218
723.6750, 34.69316
724.1571, 38.60724
724.6392, 43.19210
725.1213, 47.60641
725.6035, 49.41824
726.0856, 47.08123
726.5677, 47.58493
727.0498, 54.67757
727.5319, 62.41746
728.0140, 67.64780
728.4962, 71.00301
728.9783, 73.77876
729.4604, 76.35268
729.9425, 78.42028
730.4246, 79.15424
730.9067, 79.39770
731.3889, 81.01330
731.8710, 83.94801
732.3531, 88.13431
732.8352, 93.86159
733.3173, 98.86490
733.7994, 100.6410
734.2816, 99.45156
734.7637, 98.81150
735.2458, 98.91972
735.7279, 99.25130
736.2100, 100.6626
736.6921, 101.4298
737.1743, 99.75074
737.6564, 96.58978
738.1385, 94.48083
738.6206, 94.93215
739.1027, 95.72483
739.5848, 96.43633
740.0670, 95.85808
740.5491, 91.42291
741.0312, 84.30762
741.5133, 78.78499
741.9954, 76.91479
742.4775, 75.88142
742.9597, 70.42188
743.4418, 61.18707
743.9239, 58.49051
744.4060, 64.16389
744.8881, 66.47945
745.3702, 59.20173
745.8524, 49.03075
746.3345, 45.34991
746.8166, 49.14781
747.2987, 49.90823
747.7808, 46.55598
748.2629, 41.76479
748.7451, 33.97517
749.2272, 26.80479
749.7093, 24.42959
750.1914, 25.72863
750.6735, 25.00277
751.1556, 18.81261
751.6378, 12.17701
752.1199, 8.055776
752.6020, 6.746914
753.0841, 11.85611
753.5662, 22.17206
754.0483, 27.43227
754.5305, 21.15530
755.0126, 10.37760
755.4947, 9.071680
755.9768, 18.67530
756.4589, 23.25401
756.9410, 22.12456
757.4232, 18.90766
757.9053, 13.31097
758.3874, 6.966612
758.8695, 2.244516
759.3516, 0.9120800
759.8337, 2.171318
760.3159, 0.5172180
760.7980, 1.827147
761.2801, 5.719834
761.7622, 8.779718
762.2443, 7.160151
762.7264, 1.732466
763.2086, 1.536538
763.6907, 1.846003
764.1728, 6.855272
764.6549, 7.970850
765.1370, 6.138214
765.6191, 2.855762
766.1013, 1.305262
766.5834, 3.703308
767.0655, 2.501794
767.5476, 0.5190250
768.0297, 1.136941
768.5118, 1.409734
768.9940, 1.636411
769.4761, 1.275154
769.9582, 4.997191
770.4403, 9.808587
770.9224, 14.00997
771.4045, 14.51904
771.8867, 10.95026
772.3688, 9.074539
772.8509, 11.22327
773.3330, 13.16847
773.8151, 14.47005
774.2972, 13.96556
774.7794, 8.934738
775.2615, 0.5509570
775.7436, 5.795799
776.2257, 7.191325
776.7078, 5.273445
777.1899, 0.4027860
777.6721, 6.030032
778.1542, 11.16674
778.6363, 14.55181
779.1184, 16.20494
779.6005, 16.13251
780.0826, 14.28057
780.5648, 9.501813
781.0469, 1.021063
781.5290, 1.792092
782.0111, 3.548649
782.4932, 7.835878
782.9753, 6.575849
783.4575, 3.532458
783.9396, 3.262441
784.4217, 5.774009
784.9038, 9.703714
785.3859, 19.09429
785.8680, 24.57677
786.3502, 20.01968
786.8323, 13.38450
787.3144, 11.13921
787.7965, 13.18085
788.2786, 16.79547
788.7607, 21.58019
789.2429, 25.18733
789.7250, 24.87599
790.2071, 22.52728
790.6892, 20.55135
791.1713, 19.38219
791.6534, 19.20266
792.1356, 20.09204
792.6177, 23.10226
793.0998, 31.10256
793.5819, 43.14809
794.0640, 47.73835
794.5461, 43.20037
795.0283, 41.01340
795.5104, 45.43039
795.9925, 51.48505
796.4746, 54.39173
796.9567, 54.44855
797.4388, 54.78429
797.9210, 53.23348
798.4031, 55.15285
798.8852, 64.93315
799.3673, 74.12420
799.8494, 76.00686
800.3315, 74.34157
800.8137, 77.62920
801.2958, 88.89390
801.7779, 97.14805
802.2600, 92.41334
802.7421, 86.21211
803.2242, 88.92809
803.7064, 98.06952
804.1885, 108.6825
804.6706, 119.1461
805.1527, 129.2831
805.6348, 138.9846
806.1169, 148.2243
806.5991, 156.4833
807.0812, 164.0199
807.5633, 172.8690
808.0454, 183.5154
808.5275, 194.0567
809.0096, 203.5964
809.4918, 210.8493
809.9739, 211.0576
810.4560, 199.8836
810.9381, 198.0421
811.4202, 211.1918
811.9023, 224.4701
812.3845, 233.6797
812.8666, 239.1567
813.3487, 239.9606
813.8308, 236.1893
814.3129, 233.7596
814.7950, 236.0077
815.2772, 236.5661
815.7593, 233.4113
816.2414, 227.5240
816.7235, 219.5131
817.2056, 209.5199
817.6877, 197.0197
818.1699, 181.0150
818.6520, 167.1152
819.1341, 161.4616
819.6162, 159.9609
820.0983, 158.1569
820.5804, 154.6938
821.0626, 145.1202
821.5447, 128.4696
822.0268, 112.5532
822.5089, 106.6875
822.9910, 108.3677
823.4731, 107.4658
823.9553, 103.8696
824.4374, 96.14999
824.9195, 82.79459
825.4016, 71.50773
825.8837, 68.81018
826.3658, 71.90165
826.8480, 71.90621
827.3301, 68.29296
827.8122, 64.67789
828.2943, 60.31305
828.7764, 56.86311
829.2585, 56.41702
829.7407, 56.31177
830.2228, 52.49950
830.7049, 44.81181
831.1870, 39.65230
831.6691, 40.52108
832.1512, 41.80161
832.6334, 41.73842
833.1155, 40.37098
833.5976, 36.76784
834.0797, 31.92856
834.5618, 28.18522
835.0439, 27.08211
835.5261, 25.91330
836.0082, 20.91719
836.4903, 15.12987
836.9724, 13.74747
837.4545, 16.06507
837.9366, 19.01389
838.4188, 21.81252
838.9009, 23.69213
839.3830, 23.51589
839.8651, 22.05689
840.3472, 20.96115
840.8293, 20.23023
841.3115, 18.54891
841.7936, 15.26069
842.2757, 13.50556
842.7578, 16.27695
843.2399, 20.86800
843.7220, 20.07752
844.2042, 11.47290
844.6863, 5.563838
845.1684, 2.640091
845.6505, 1.984915
846.1326, 4.189119
846.6147, 8.003800
847.0969, 13.74430
847.5790, 20.88410
848.0611, 23.55297
848.5432, 17.61736
849.0253, 11.66339
849.5074, 7.906345
849.9896, 5.040289
850.4717, 1.677839
850.9538, 1.552042
851.4359, 3.105364
851.9180, 2.494860
852.4001, 0.6097600
852.8823, 3.268293
853.3644, 7.061888
853.8465, 7.857893
854.3286, 7.085093
854.8107, 8.591430
855.2928, 12.67491
855.7750, 15.28756
856.2571, 12.99452
856.7392, 8.919632
857.2213, 9.251615
857.7034, 12.73989
858.1855, 13.60496
858.6677, 11.35480
859.1498, 8.278027
859.6319, 5.215021
860.1140, 3.388519
860.5961, 4.998167
861.0782, 9.844288
861.5604, 12.79261
862.0425, 13.65158
862.5246, 12.06146
863.0067, 6.268488
863.4888, 1.861713
863.9709, 4.703047
864.4531, 12.00779
864.9352, 13.38908
865.4173, 3.744425
865.8994, 1.148130
866.3815, 1.434195
866.8636, 5.279001
867.3458, 9.881092
867.8279, 13.57762
868.3100, 14.34965
868.7921, 12.20116
869.2742, 9.147919
869.7563, 3.018696
870.2385, 0.4647810
870.7206, 2.499865
871.2027, 7.720716
871.6848, 12.63742
872.1669, 16.42807
872.6490, 18.27653
873.1312, 17.89342
873.6133, 15.97409
874.0954, 11.54953
874.5775, 7.065573
875.0596, 5.415274
875.5417, 5.787098
876.0239, 6.526194
876.5060, 7.237305
876.9881, 8.086720
877.4702, 9.134468
877.9523, 10.58695
878.4344, 13.31623
878.9166, 16.72561
879.3987, 18.33353
879.8808, 18.10885
880.3629, 18.08437
880.8450, 19.15022
881.3271, 19.55914
881.8093, 17.20763
882.2914, 12.36706
882.7735, 5.544203
883.2556, 4.353729
883.7377, 6.928421
884.2198, 1.570833
884.7020, 10.86869
885.1841, 14.53423
885.6662, 14.41489
886.1483, 14.49596
886.6304, 14.99703
887.1125, 14.60928
887.5947, 11.81334
888.0768, 10.63388
888.5589, 14.51896
889.0410, 18.31959
889.5231, 16.50511
890.0052, 10.56544
890.4874, 7.488842
890.9695, 10.94196
891.4516, 11.48724
891.9337, 4.191298
892.4158, 2.362568
892.8979, 2.393536
893.3801, 0.3944170
893.8622, 0.1256750
894.3443, 3.627274
894.8264, 5.226936
895.3085, 0.3262060
895.7906, 4.736065
896.2728, 6.262606
896.7549, 6.510736
897.2370, 7.641195
897.7191, 9.627478
898.2012, 12.08764
898.6833, 14.75791
899.1655, 15.93202
899.6476, 12.79291
900.1297, 8.479136
900.6118, 6.838137
901.0939, 7.057270
901.5760, 7.637020
902.0582, 8.077751
902.5403, 7.606148
903.0224, 5.526741
903.5045, 3.581963
903.9866, 5.503115
904.4688, 9.474512
904.9509, 8.965532
905.4330, 4.425751
905.9151, 1.053673
906.3972, 0.5367200
906.8793, 2.084049
907.3615, 5.432064
907.8436, 9.436014
908.3257, 9.681282
908.8078, 6.044838
909.2899, 5.097649
909.7720, 8.222342
910.2542, 9.447424
910.7363, 5.017475
911.2184, 0.4741710
911.7005, 8.1013002E-02
912.1826, 6.132545
912.6647, 11.28171
913.1469, 15.86783
913.6290, 17.75683
914.1111, 15.01097
914.5932, 12.16516
915.0753, 12.56060
915.5574, 14.62296
916.0396, 14.51579
916.5217, 11.20552
917.0038, 9.661802
917.4859, 13.00426
917.9680, 13.68092
918.4501, 6.010544
918.9323, 1.558163
919.4144, 1.646881
919.8965, 4.026794
920.3786, 9.411037
920.8607, 14.67276
921.3428, 16.46424
921.8250, 12.09092
922.3071, 8.382023
922.7892, 9.615337
923.2713, 12.48187
923.7534, 12.64665
924.2355, 10.33654
924.7177, 9.166088
925.1998, 11.55214
925.6819, 12.80384
926.1640, 8.763908
926.6461, 5.205166
927.1282, 8.634441
927.6104, 15.10660
928.0925, 16.61423
928.5746, 12.01153
929.0567, 8.667999
929.5388, 12.29916
930.0209, 16.81742
930.5031, 17.09062
930.9852, 16.03246
931.4673, 18.03169
931.9494, 21.99417
932.4315, 23.48545
932.9136, 20.94732
933.3958, 17.92019
933.8779, 17.77966
934.3600, 18.59393
934.8421, 17.60573
935.3242, 15.75580
935.8063, 15.17871
936.2885, 15.92688
936.7706, 16.76813
937.2527, 17.10869
937.7348, 16.34308
938.2169, 12.58749
938.6990, 7.629539
939.1812, 5.413269
939.6633, 5.795639
940.1454, 8.320702
940.6275, 12.57726
941.1096, 15.93566
941.5917, 16.97304
942.0739, 16.60236
942.5560, 14.01075
943.0381, 9.878246
943.5202, 7.998627
944.0023, 8.405724
944.4844, 9.570934
944.9666, 11.05403
945.4487, 11.91896
945.9308, 11.04125
946.4129, 9.579628
946.8950, 11.97841
947.3771, 18.20099
947.8593, 18.12832
948.3414, 10.42902
948.8235, 4.321911
949.3056, 3.437748
949.7877, 5.124844
950.2698, 6.597916
950.7520, 7.868004
951.2341, 7.892548
951.7162, 6.119003
952.1983, 5.114258
952.6804, 5.400265
953.1625, 6.875805
953.6447, 9.736237
954.1268, 11.64014
954.6089, 8.734612
955.0910, 1.447006
955.5731, 0.6720280
956.0552, 4.559605
956.5374, 8.160290
957.0195, 8.221863
957.5016, 8.287006
957.9837, 10.42023
958.4658, 13.57464
958.9479, 16.24275
959.4301, 18.49881
959.9122, 19.28519
960.3943, 18.22462
960.8764, 16.43052
961.3585, 13.92542
961.8406, 10.86601
962.3228, 6.295280
962.8049, 1.767467
963.2870, 0.7537120
963.7691, 4.272259
964.2512, 5.804871
964.7333, 3.150509
965.2155, 1.771206
965.6976, 3.869682
966.1797, 6.235744
966.6618, 6.996307
967.1439, 6.483467
967.6260, 5.081615
968.1082, 1.971317
968.5903, 1.305004
969.0724, 7.053463
969.5545, 10.15112
970.0366, 5.446308
970.5187, 0.1501050
971.0009, 1.255306
971.4830, 0.9669650
971.9651, 3.125111
972.4472, 4.978310
972.9293, 6.516167
973.4114, 8.310707
973.8936, 9.079235
974.3757, 7.082737
974.8578, 4.945793
975.3399, 5.851341
975.8220, 8.547791
976.3041, 8.795666
976.7863, 5.216209
977.2684, 1.078911
977.7505, 7.580650
978.2326, 10.78138
978.7147, 3.301353
979.1968, 19.23407
979.6790, 20.06920
980.1611, 8.904190
980.6432, 0.6304860
981.1253, 1.004055
981.6074, 1.391968
982.0895, 2.092896
982.5717, 1.980602
983.0538, 0.7845500
983.5359, 3.751133
984.0180, 3.380344
984.5001, 0.6134220
984.9822, 0.2105830
985.4644, 4.556808
985.9465, 7.882576
986.4286, 7.217293
986.9107, 5.967331
987.3928, 6.067516
987.8749, 6.735199
988.3571, 7.050392
988.8392, 6.938511
989.3213, 6.587933
989.8034, 5.790459
990.2855, 5.547482
990.7676, 6.919724
991.2498, 8.269642
991.7319, 7.724133
992.2140, 7.088146
992.6961, 9.418892
993.1782, 14.01904
993.6603, 16.72393
994.1425, 15.80315
994.6246, 13.88149
995.1067, 12.03933
995.5888, 9.673355
996.0709, 5.300251
996.5530, 0.8653370
997.0352, 1.161076
997.5173, 0.8096500
997.9994, 0.3443370
998.4815, 2.034592
998.9636, 3.614223
999.4457, 4.308559
999.9279, 5.307281
1000.410, 7.792702
1000.892, 10.83875
1001.374, 13.76455
1001.856, 16.11010
1002.338, 16.74928
1002.821, 15.09441
1003.303, 12.32814
1003.785, 7.635559
1004.267, 3.499466
1004.749, 0.6854100
1005.231, 6.4011000E-02
1005.713, 4.283989
1006.195, 11.83366
1006.677, 16.56066
1007.160, 15.86600
1007.642, 14.05516
1008.124, 12.97541
1008.606, 11.51490
1009.088, 8.372463
1009.570, 4.809368
1010.052, 1.511814
1010.534, 0.7600980
1011.017, 0.2590070
1011.499, 6.420975
1011.981, 11.59634
1012.463, 13.93039
1012.945, 13.61473
1013.427, 7.929527
1013.909, 1.791664
1014.391, 1.298279
1014.873, 5.220165
1015.356, 7.452431
1015.838, 5.817417
1016.320, 4.674019
1016.802, 5.120655
1017.284, 7.154705
1017.766, 12.90347
1018.248, 18.55204
1018.730, 19.44215
1019.213, 16.87865
1019.695, 15.72528
1020.177, 17.35281
1020.659, 19.10768
1021.141, 21.67126
1021.623, 22.28385
1022.105, 17.47648
1022.587, 12.00411
1023.069, 10.18982
1023.552, 11.39683
1024.034, 13.58068
1024.516, 16.84567
1024.998, 17.96792
1025.480, 14.87293
1025.962, 11.14946
1026.444, 6.461983
1026.926, 3.302952
1027.409, 4.332455
1027.891, 8.172405
1028.373, 12.39511
1028.855, 17.01860
1029.337, 20.41191
1029.819, 22.72702
1030.301, 22.98755
1030.783, 19.27896
1031.266, 15.08772
1031.748, 11.29674
1032.230, 9.249344
1032.712, 12.25904
1033.194, 21.13609
1033.676, 26.53701
1034.158, 25.36887
1034.640, 23.77279
1035.122, 22.14325
1035.604, 20.50092
1036.087, 20.10626
1036.569, 20.62097
1037.051, 18.65606
1037.533, 14.00737
1038.015, 13.68034
1038.497, 23.62464
1038.979, 28.17487
1039.461, 21.96777
1039.944, 16.16103
1040.426, 17.08465
1040.908, 19.78495
1041.390, 16.94390
1041.872, 9.494255
1042.354, 8.311092
1042.836, 18.50404
1043.318, 23.15575
1043.800, 19.01508
1044.283, 14.79245
1044.765, 13.93039
1045.247, 13.84638
1045.729, 11.09996
1046.211, 7.004471
1046.693, 8.379314
1047.175, 18.22685
1047.657, 23.11635
1048.140, 21.07089
1048.622, 19.61979
1049.104, 21.76989
1049.586, 23.22417
1050.068, 19.92913
1050.550, 13.80858
1051.032, 9.882679
1051.514, 8.198147
1051.996, 8.886791
1052.479, 12.40205
1052.961, 15.27953
1053.443, 16.79516
1053.925, 17.04087
1054.407, 15.94522
1054.889, 13.93352
1055.371, 11.46140
1055.853, 8.812187
1056.335, 9.831211
1056.818, 14.46667
1057.300, 15.45755
1057.782, 11.50872
1058.264, 9.151127
1058.746, 11.97187
1059.228, 16.08111
1059.710, 16.40036
1060.192, 13.79445
1060.675, 10.77649
1061.157, 7.495354
1061.639, 3.841927
1062.121, 0.3769990
1062.603, 2.861244
1063.085, 13.14902
1063.567, 20.81656
1064.049, 14.10620
1064.531, 1.830921
1065.014, 0.7459640
1065.496, 6.626858
1065.978, 9.677525
1066.460, 9.786964
1066.942, 9.705677
1067.424, 10.18008
1067.906, 10.26971
1068.388, 9.083324
1068.870, 8.222698
1069.353, 9.289379
1069.835, 11.79480
1070.317, 17.14965
1070.799, 22.62292
1071.281, 22.15098
1071.763, 16.00538
1072.245, 9.957882
1072.727, 6.645714
1073.210, 4.503223
1073.692, 2.049965
1074.174, 0.6069790
1074.656, 1.513756
1075.138, 3.892258
1075.620, 7.695644
1076.102, 11.78871
1076.584, 13.67550
1077.067, 12.65985
1077.549, 10.89971
1078.031, 6.816956
1078.513, 5.522224
1078.995, 12.55409
1079.477, 20.06450
1079.959, 22.61726
1080.441, 21.12992
1080.923, 16.44888
1081.406, 9.075077
1081.888, 4.987278
1082.370, 8.686970
1082.852, 10.46996
1083.334, 7.976162
1083.816, 4.358028
1084.298, 0.8736920
1084.780, 5.150803
1085.262, 5.316303
1085.745, 1.955135
1086.227, 1.954872
1086.709, 7.939610
1087.191, 10.56397
1087.673, 8.302891
1088.155, 5.706493
1088.637, 3.408714
1089.119, 2.170097
1089.602, 2.975571
1090.084, 4.939789
1090.566, 5.833931
1091.048, 5.549057
1091.530, 8.325333
1092.012, 15.38360
1092.494, 17.16401
1092.976, 11.13533
1093.458, 5.548759
1093.941, 4.715446
1094.423, 6.035507
1094.905, 6.107639
1095.387, 5.402515
1095.869, 5.711384
1096.351, 6.888885
1096.833, 7.613670
1097.315, 8.054794
1097.797, 10.03000
1098.280, 14.04313
1098.762, 14.89454
1099.244, 7.595215
1099.726, 1.654980
1100.208, 3.436592
1100.690, 0.1922260
1101.172, 5.220192
1101.654, 10.82359
1102.137, 10.91681
1102.619, 6.436470
1103.101, 4.913544
1103.583, 10.76553
1104.065, 15.46891
1104.547, 8.526669
1105.029, 0.9223670
1105.511, 4.349365
1105.994, 11.74446
1106.476, 15.00594
1106.958, 14.62756
1107.440, 13.82422
1107.922, 13.29552
1108.404, 11.69618
1108.886, 6.311878
1109.368, 2.846519
1109.850, 4.689877
1110.333, 7.590012
1110.815, 9.791626
1111.297, 11.24189
1111.779, 12.04509
1112.261, 12.19611
1112.743, 11.31174
1113.225, 7.424831
1113.707, 7.330532
1114.189, 14.56345
1114.672, 20.33531
1115.154, 23.32060
1115.636, 23.33192
1116.118, 18.87472
1116.600, 12.67457
1117.082, 10.00394
1117.564, 10.88597
1118.046, 11.59174
1118.529, 12.20380
1119.011, 12.09985
1119.493, 11.10808
1119.975, 9.717461
1120.457, 7.952927
1120.939, 7.509544
1121.421, 10.54440
1121.903, 15.11009
1122.385, 15.30581
1122.868, 12.33245
1123.350, 12.85220
1123.832, 16.39503
1124.314, 19.48240
1124.796, 21.06733
1125.278, 20.15384
1125.760, 16.05780
1126.242, 11.36175
1126.724, 9.240334
1127.207, 8.057976
1127.689, 5.029133
1128.171, 1.687370
1128.653, 0.3797680
1129.135, 0.3177110
1129.617, 4.548145
1130.099, 14.14491
1130.581, 20.82162
1131.064, 19.27253
1131.546, 16.54828
1132.028, 16.04057
1132.510, 15.94167
1132.992, 15.18810
1133.474, 14.00950
1133.956, 11.56677
1134.438, 8.956352
1134.921, 10.84748
1135.403, 20.53733
1135.885, 25.27266
1136.367, 19.52625
1136.849, 15.42684
1137.331, 15.31965
1137.813, 16.99094
1138.295, 20.58199
1138.777, 23.54554
1139.260, 21.81342
1139.742, 15.89060
1140.224, 10.19440
1140.706, 4.274059
1141.188, 2.589943
1141.670, 5.936769
1142.152, 6.824594
1142.634, 2.399178
1143.116, 0.1295110
1143.599, 5.405029
1144.081, 13.31237
1144.563, 13.31561
1145.045, 7.871859
1145.527, 3.054268
1146.009, 0.4234100
1146.491, 0.5264660
1146.973, 4.951475
1147.456, 7.732716
1147.938, 6.971107
1148.420, 4.819435
1148.902, 2.314095
1149.384, 1.9402999E-02
1149.866, 2.456280
1150.348, 3.644115
1150.830, 1.396921
1151.313, 2.713243
1151.795, 7.386166
1152.277, 11.65901
1152.759, 13.13554
1153.241, 10.77073
1153.723, 7.421410
1154.205, 1.275433
1154.687, 2.360315
1155.169, 0.2258380
1155.651, 3.466099
1156.134, 3.639210
1156.616, 2.613949
1157.098, 2.989653
1157.580, 4.564375
1158.062, 7.051166
1158.544, 12.16726
1159.026, 10.58748
1159.508, 0.1073170
1159.991, 4.980999
1160.473, 1.165577
1160.955, 7.469734
1161.437, 5.870226
1161.919, 0.9769720
1162.401, 0.3794850
1162.883, 2.948302
1163.365, 5.700328
1163.848, 8.327601
1164.330, 10.47760
1164.812, 11.39059
1165.294, 7.219119
1165.776, 2.373251
1166.258, 9.196172
1166.740, 7.520727
1167.222, 2.089881
1167.704, 6.600882
1168.187, 13.82371
1168.669, 14.55981
1169.151, 11.80734
1169.633, 7.945413
1170.115, 4.444212
1170.597, 4.462543
1171.079, 9.161160
1171.561, 12.09466
1172.043, 11.55788
1172.526, 10.16847
1173.008, 5.784213
1173.490, 4.615749
1173.972, 11.91163
1174.454, 19.82109
1174.936, 19.39915
1175.418, 13.61235
1175.900, 13.04145
1176.383, 18.23487
1176.865, 20.33245
1177.347, 19.24787
1177.829, 19.19292
1178.311, 21.03621
1178.793, 24.88540
1179.275, 30.94239
1179.757, 35.65907
1180.240, 34.97406
1180.722, 31.56412
1181.204, 28.34099
1181.686, 26.73665
1182.168, 30.67866
1182.650, 37.63661
1183.132, 42.18039
1183.614, 43.99463
1184.096, 45.31539
1184.578, 46.45186
1185.061, 48.53042
1185.543, 54.32854
1186.025, 58.02911
1186.507, 53.37819
1186.989, 50.01222
1187.471, 57.87016
1187.953, 68.93412
1188.435, 69.88889
1188.918, 63.11235
1189.400, 64.11065
1189.882, 76.77097
1190.364, 83.69714
1190.846, 83.96116
1191.328, 84.30546
1191.810, 85.79149
1192.292, 88.96081
1192.775, 94.03168
1193.257, 100.1790
1193.739, 106.7650
1194.221, 112.8899
1194.703, 116.3313
1195.185, 117.7118
1195.667, 119.2144
1196.149, 121.1809
1196.631, 126.5787
1197.114, 134.6741
1197.596, 141.3360
1198.078, 144.9197
1198.560, 145.9912
1199.042, 142.9649
1199.524, 140.5839
1200.006, 140.2197
1200.488, 140.5547
1200.970, 140.1924
1201.453, 139.5917
1201.935, 138.5513
1202.417, 138.4390
1202.899, 137.8760
1203.381, 134.5199
1203.863, 132.8927
1204.345, 133.7309
1204.827, 134.5134
1205.310, 134.7394
1205.792, 133.7986
1206.274, 131.0754
1206.756, 121.9999
1207.238, 129.0302
1207.720, 131.2981
1208.202, 129.0561
1208.684, 108.8180
1209.167, 111.8024
1209.649, 105.4734
1210.131, 98.75636
1210.613, 105.0021
1211.095, 87.35348
1211.577, 93.37896
1212.059, 89.94360
1212.541, 90.82537
1213.023, 82.32899
1213.505, 76.71793
1213.988, 68.79944
1214.470, 62.65374
1214.952, 58.22246
1215.434, 60.57139
1215.916, 66.71595
1216.398, 65.03806
1216.880, 53.60537
1217.362, 46.32116
1217.845, 43.96575
1218.327, 42.69104
1218.809, 42.26977
1219.291, 40.62116
1219.773, 36.81696
1220.255, 32.53127
1220.737, 29.05851
1221.219, 26.45698
1221.702, 25.39762
1222.184, 24.94173
1222.666, 23.19134
1223.148, 20.49923
1223.630, 17.65138
1224.112, 14.67040
1224.594, 10.42223
1225.076, 5.022926
1225.558, 2.965107
1226.041, 8.240997
1226.523, 13.06714
1227.005, 15.69062
1227.487, 16.23637
1227.969, 14.08528
1228.451, 10.41893
1228.933, 4.009750
1229.415, 1.321674
1229.897, 2.120960
1230.380, 13.10040
1230.862, 17.51078
1231.344, 15.14211
1231.826, 10.57006
1232.308, 4.323059
1232.790, 1.336998
1233.272, 2.679955
1233.754, 4.488007
1234.237, 6.812210
1234.719, 7.781898
1235.201, 3.383629
1235.683, 0.2371670
1236.165, 5.725952
1236.647, 5.797775
1237.129, 0.0000000E+00
##END=



