##NAMES=Clinohedrite
##RRUFFID=R120105
##IDEAL CHEMISTRY=CaZnSiO_4_&#183;H_2_O
##LOCALITY=Christmas mine, Christmas, Gila County, Arizona, USA
##OWNER=RRUFF
##SOURCE=Bob Jenkins
##DESCRIPTION=Transparent colorless prismatic crystals, associated with blue kinoite and colorless platy junitoite, R120100.
##STATUS=The identification of this mineral has been confirmed by single-crystal X-ray diffraction.
##URL=rruff.info/R120105
103.7346, 0.0000000E+00
104.2167, 4.097900
104.6988, 12.29730
105.1810, 21.81036
105.6631, 29.38440
106.1452, 31.55835
106.6273, 30.63501
107.1094, 32.79565
107.5915, 27.87143
108.0737, 19.47754
108.5558, 11.91965
109.0379, 6.102417
109.5200, 1.960419
110.0021, 0.6882630
110.4842, 2.103180
110.9664, 0.3432310
111.4485, 5.143524
111.9306, 13.57697
112.4127, 25.78433
112.8948, 40.67462
113.3769, 55.72775
113.8591, 68.05542
114.3412, 76.93915
114.8233, 84.22626
115.3054, 91.32336
115.7875, 96.44409
116.2696, 97.81628
116.7517, 94.78326
117.2339, 88.00690
117.7160, 78.27298
118.1981, 64.34573
118.6802, 51.15454
119.1623, 39.50430
119.6444, 29.46982
120.1266, 21.44565
120.6087, 15.83060
121.0908, 12.76584
121.5729, 11.90210
122.0550, 13.50766
122.5371, 16.63626
123.0193, 20.49582
123.5014, 25.03479
123.9835, 29.88989
124.4656, 36.09717
124.9477, 42.29028
125.4298, 46.88919
125.9120, 48.72122
126.3941, 49.19553
126.8762, 51.66647
127.3583, 56.40652
127.8404, 63.27539
128.3225, 72.17630
128.8047, 82.75665
129.2868, 94.74878
129.7689, 108.2651
130.2510, 123.1192
130.7331, 136.5620
131.2152, 152.5697
131.6974, 164.0444
132.1795, 170.1425
132.6616, 170.3299
133.1437, 164.2847
133.6258, 151.8744
134.1079, 131.5185
134.5901, 112.2121
135.0722, 92.04510
135.5543, 73.34579
136.0364, 57.88748
136.5185, 46.24701
137.0006, 37.56665
137.4828, 31.32990
137.9649, 27.98962
138.4470, 25.30841
138.9291, 23.64917
139.4112, 22.59952
139.8933, 21.42026
140.3755, 19.82394
140.8576, 18.63565
141.3397, 18.98572
141.8218, 20.67429
142.3039, 23.22784
142.7860, 26.98318
143.2681, 31.57904
143.7503, 35.95306
144.2324, 40.10056
144.7145, 43.40701
145.1966, 45.53308
145.6787, 46.48138
146.1608, 46.72946
146.6430, 46.16400
147.1251, 44.60895
147.6072, 44.20285
148.0893, 45.72415
148.5714, 48.34659
149.0535, 51.55426
149.5357, 55.32172
150.0178, 60.18854
150.4999, 67.00980
150.9820, 76.55853
151.4641, 86.65994
151.9462, 98.05475
152.4284, 109.2738
152.9105, 120.1442
153.3926, 130.4413
153.8747, 138.7662
154.3568, 141.5208
154.8389, 136.4367
155.3211, 127.3903
155.8032, 112.5562
156.2853, 94.54062
156.7674, 75.86371
157.2495, 57.61496
157.7316, 40.29483
158.2138, 26.34332
158.6959, 16.49258
159.1780, 8.536346
159.6601, 2.410065
160.1422, 2.126343
160.6243, 5.480804
161.1065, 7.693207
161.5886, 7.970398
162.0707, 8.255035
162.5528, 8.700409
163.0349, 9.024567
163.5170, 9.088715
163.9991, 8.894562
164.4813, 8.454651
164.9634, 7.768494
165.4455, 6.786285
165.9276, 5.548676
166.4097, 4.072937
166.8918, 2.332550
167.3740, 0.1927800
167.8561, 2.389771
168.3382, 4.934845
168.8203, 7.324951
169.3024, 9.702148
169.7845, 12.14087
170.2667, 14.46045
170.7488, 16.93430
171.2309, 20.26898
171.7130, 24.60034
172.1951, 29.66953
172.6772, 35.66006
173.1594, 42.14743
173.6415, 48.62231
174.1236, 54.88232
174.6057, 60.85962
175.0878, 66.04855
175.5699, 70.16315
176.0521, 73.68933
176.5342, 76.61575
177.0163, 79.07593
177.4984, 81.22250
177.9805, 83.17145
178.4626, 84.93414
178.9448, 86.39447
179.4269, 89.45477
179.9090, 90.42703
180.3911, 87.99603
180.8732, 82.44153
181.3553, 74.58023
181.8375, 64.82071
182.3196, 52.82516
182.8017, 42.42670
183.2838, 33.25818
183.7659, 25.53107
184.2480, 19.64804
184.7301, 15.46802
185.2123, 12.38547
185.6944, 9.982330
186.1765, 8.374420
186.6586, 6.755554
187.1407, 4.711731
187.6228, 2.955505
188.1050, 2.153030
188.5871, 2.353317
189.0692, 2.875610
189.5513, 3.101746
190.0334, 3.033646
190.5155, 3.028564
190.9977, 3.144058
191.4798, 3.334717
191.9619, 3.484543
192.4440, 3.539932
192.9261, 3.790283
193.4082, 4.837387
193.8904, 6.406082
194.3725, 7.543594
194.8546, 7.567993
195.3367, 7.068726
195.8188, 7.197205
196.3009, 8.128967
196.7831, 9.530914
197.2652, 11.26802
197.7473, 13.25505
198.2294, 15.26263
198.7115, 17.08582
199.1936, 18.83566
199.6758, 20.94641
200.1579, 23.61458
200.6400, 26.44572
201.1221, 29.18582
201.6042, 31.87630
202.0863, 34.60220
202.5685, 37.44353
203.0506, 40.38870
203.5327, 43.24254
204.0148, 45.75969
204.4969, 48.42863
204.9790, 51.30103
205.4612, 54.44122
205.9433, 57.99164
206.4254, 62.11858
206.9075, 66.85576
207.3896, 71.55737
207.8717, 75.54951
208.3539, 80.12988
208.8360, 85.74963
209.3181, 92.33305
209.8002, 99.53568
210.2823, 107.0244
210.7644, 114.6664
211.2466, 123.4509
211.7287, 132.7538
212.2108, 143.5858
212.6929, 155.9991
213.1750, 170.2441
213.6571, 186.9318
214.1393, 206.5954
214.6214, 229.3614
215.1035, 255.1316
215.5856, 282.4113
216.0677, 313.1213
216.5498, 349.0459
217.0320, 389.6137
217.5141, 433.7323
217.9962, 481.6133
218.4783, 534.5579
218.9604, 574.0229
219.4425, 606.7690
219.9247, 623.1448
220.4068, 614.3588
220.8889, 581.5522
221.3710, 534.6422
221.8531, 478.9529
222.3352, 414.0156
222.8174, 357.4913
223.2995, 310.5987
223.7816, 270.9441
224.2637, 238.1140
224.7458, 211.7680
225.2279, 189.4939
225.7100, 169.7131
226.1922, 152.6785
226.6743, 138.1116
227.1564, 126.7513
227.6385, 117.4203
228.1206, 109.3513
228.6027, 102.5179
229.0849, 96.81424
229.5670, 92.78384
230.0491, 89.91737
230.5312, 86.74373
231.0133, 82.74101
231.4954, 78.48869
231.9776, 74.56094
232.4597, 70.95114
232.9418, 67.72543
233.4239, 65.31979
233.9060, 63.25197
234.3881, 60.71353
234.8703, 57.01468
235.3524, 53.17223
235.8345, 50.66876
236.3166, 49.75002
236.7987, 49.09744
237.2808, 47.99710
237.7630, 46.78738
238.2451, 45.82037
238.7272, 45.17212
239.2093, 44.85938
239.6914, 44.78586
240.1735, 44.74821
240.6557, 45.64647
241.1378, 48.06215
241.6199, 51.38626
242.1020, 55.17300
242.5841, 59.29065
243.0662, 63.74875
243.5484, 68.69354
244.0305, 74.44006
244.5126, 79.79175
244.9947, 84.81633
245.4768, 89.14044
245.9589, 92.28177
246.4410, 94.06250
246.9232, 94.98393
247.4053, 95.92429
247.8874, 97.03700
248.3695, 97.75409
248.8516, 97.72481
249.3337, 97.46516
249.8159, 97.24911
250.2980, 97.17789
250.7801, 97.39581
251.2622, 98.25703
251.7443, 100.2206
252.2264, 101.7789
252.7086, 102.9136
253.1907, 103.5835
253.6728, 103.4654
254.1549, 102.5924
254.6370, 101.6926
255.1191, 102.0919
255.6013, 105.0941
256.0834, 106.5126
256.5655, 106.0794
257.0476, 104.5335
257.5297, 102.1324
258.0118, 99.03433
258.4940, 95.49335
258.9761, 91.82968
259.4582, 88.01961
259.9403, 84.12321
260.4224, 79.66101
260.9045, 75.43800
261.3867, 71.86499
261.8688, 69.02005
262.3509, 66.90283
262.8330, 65.59619
263.3151, 65.48247
263.7972, 64.77625
264.2794, 63.83160
264.7615, 62.15250
265.2436, 59.15921
265.7257, 55.04509
266.2078, 50.63129
266.6899, 46.70670
267.1721, 43.36472
267.6542, 40.01891
268.1363, 36.25040
268.6184, 32.84528
269.1005, 30.29417
269.5826, 28.51721
270.0648, 27.10541
270.5469, 25.74060
271.0290, 24.41780
271.5111, 23.28813
271.9932, 22.04996
272.4753, 21.23206
272.9575, 21.29842
273.4396, 22.02255
273.9217, 22.79837
274.4038, 23.23073
274.8859, 23.33388
275.3680, 23.38152
275.8501, 23.37039
276.3322, 23.32216
276.8144, 23.22079
277.2965, 23.09155
277.7786, 22.97034
278.2607, 22.86104
278.7428, 22.78778
279.2249, 22.88112
279.7071, 23.03821
280.1892, 23.40785
280.6713, 23.93449
281.1534, 24.70851
281.6355, 25.91222
282.1176, 27.64182
282.5998, 29.82201
283.0819, 32.26620
283.5640, 34.98091
284.0461, 37.82614
284.5282, 40.66110
285.0103, 43.63200
285.4925, 47.03073
285.9746, 50.99152
286.4567, 55.18568
286.9388, 59.14619
287.4209, 62.90044
287.9030, 66.42215
288.3852, 69.91675
288.8673, 73.06850
289.3494, 75.41843
289.8315, 76.85355
290.3136, 77.70772
290.7957, 78.38159
291.2779, 78.90515
291.7600, 78.90100
292.2421, 78.16165
292.7242, 76.96352
293.2063, 75.56180
293.6884, 73.98552
294.1706, 72.18195
294.6527, 70.13135
295.1348, 67.78799
295.6169, 65.00473
296.0990, 61.46460
296.5811, 57.71219
297.0633, 54.13664
297.5454, 50.76328
298.0275, 47.40063
298.5096, 43.81635
298.9917, 40.15054
299.4738, 37.06502
299.9560, 35.11980
300.4381, 33.26222
300.9202, 30.71375
301.4023, 27.64288
301.8844, 24.79671
302.3665, 22.53996
302.8487, 20.80486
303.3308, 19.28343
303.8129, 17.92580
304.2950, 16.80748
304.7771, 16.09941
305.2592, 15.66507
305.7414, 15.11699
306.2235, 14.25624
306.7056, 13.31682
307.1877, 12.71761
307.6698, 12.37508
308.1519, 12.47386
308.6341, 13.35980
309.1162, 14.66916
309.5983, 15.71835
310.0804, 16.27916
310.5625, 16.77815
311.0446, 17.75064
311.5268, 19.17006
312.0089, 20.93521
312.4910, 23.28221
312.9731, 25.84682
313.4552, 28.42679
313.9373, 31.01291
314.4195, 33.01941
314.9016, 33.91464
315.3837, 33.66254
315.8658, 32.57903
316.3479, 30.44119
316.8300, 27.64980
317.3121, 24.18831
317.7943, 20.14223
318.2764, 16.45413
318.7585, 13.75244
319.2406, 11.97952
319.7227, 10.41626
320.2048, 9.316650
320.6870, 8.161224
321.1691, 6.471619
321.6512, 4.442963
322.1333, 2.740753
322.6154, 1.708771
323.0975, 1.176727
323.5797, 0.7335820
324.0618, 0.3504030
324.5439, 8.4853999E-02
325.0260, 7.7591002E-02
325.5081, 0.1847840
325.9902, 0.1289670
326.4724, 0.1838070
326.9545, 0.6627200
327.4366, 1.241287
327.9187, 1.983200
328.4008, 2.482040
328.8829, 2.478867
329.3651, 2.276474
329.8472, 2.205887
330.3293, 2.324646
330.8114, 2.562759
331.2935, 2.909149
331.7756, 3.373138
332.2578, 3.625656
332.7399, 3.487518
333.2220, 3.261734
333.7041, 3.170609
334.1862, 3.210770
334.6683, 3.263153
335.1505, 3.254288
335.6326, 3.183533
336.1147, 3.065521
336.5968, 2.963654
337.0789, 2.757309
337.5610, 2.288193
338.0432, 1.670731
338.5253, 1.161835
339.0074, 0.8690030
339.4895, 0.7797390
339.9716, 0.9180450
340.4537, 1.557175
340.9359, 1.899994
341.4180, 1.605362
341.9001, 1.000031
342.3822, 0.5216060
342.8643, 0.2959590
343.3464, 0.1124730
343.8286, 0.3469090
344.3107, 1.263321
344.7928, 1.911072
345.2749, 2.008850
345.7570, 2.025406
346.2391, 2.373840
346.7213, 3.052856
347.2034, 3.754272
347.6855, 4.229874
348.1676, 4.475113
348.6497, 4.405884
349.1318, 3.528656
349.6140, 2.885101
350.0961, 3.245590
350.5782, 4.205673
351.0603, 4.737106
351.5424, 4.181931
352.0245, 2.870956
352.5067, 2.227371
352.9888, 2.954895
353.4709, 3.475616
353.9530, 3.344360
354.4351, 3.008316
354.9172, 3.037582
355.3994, 3.623138
355.8815, 4.461380
356.3636, 5.053757
356.8457, 5.361771
357.3278, 5.450531
357.8099, 4.945633
358.2920, 4.517441
358.7741, 4.744965
359.2563, 5.592178
359.7384, 6.509491
360.2205, 6.917526
360.7026, 6.714554
361.1847, 6.998535
361.6668, 8.262344
362.1490, 9.467300
362.6311, 10.22475
363.1132, 10.67343
363.5953, 11.08278
364.0774, 11.60344
364.5595, 12.25305
365.0417, 13.10890
365.5238, 14.22157
366.0059, 15.50250
366.4880, 16.97240
366.9701, 18.57076
367.4522, 20.25810
367.9344, 22.01257
368.4165, 23.81569
368.8986, 25.63921
369.3807, 27.45920
369.8628, 29.36455
370.3449, 31.17970
370.8271, 33.22095
371.3092, 35.82384
371.7913, 38.88182
372.2734, 41.98723
372.7555, 44.83160
373.2376, 47.41370
373.7198, 49.64326
374.2019, 51.57300
374.6840, 53.05000
375.1661, 54.17064
375.6482, 54.79405
376.1303, 54.65843
376.6125, 53.56581
377.0946, 51.82002
377.5767, 49.97899
378.0588, 47.86864
378.5409, 46.18066
379.0230, 45.06476
379.5052, 44.44975
379.9873, 44.36179
380.4694, 44.80101
380.9515, 45.63222
381.4336, 46.72975
381.9157, 48.09959
382.3979, 49.78337
382.8800, 51.62624
383.3621, 54.03630
383.8442, 57.29210
384.3263, 61.26050
384.8084, 65.55510
385.2906, 69.89383
385.7727, 74.38586
386.2548, 79.33087
386.7369, 84.78513
387.2190, 90.56372
387.7011, 96.24658
388.1833, 102.3084
388.6654, 109.5901
389.1475, 118.5060
389.6296, 128.1832
390.1117, 138.0053
390.5938, 148.0468
391.0760, 158.1862
391.5581, 168.3488
392.0402, 178.6044
392.5223, 189.2852
393.0044, 200.4822
393.4865, 211.0438
393.9687, 220.8868
394.4508, 229.7044
394.9329, 237.0445
395.4150, 242.9451
395.8971, 247.0292
396.3792, 248.7925
396.8614, 248.1920
397.3435, 246.4645
397.8256, 243.8125
398.3077, 239.8438
398.7898, 233.9362
399.2719, 226.4689
399.7540, 218.6396
400.2361, 211.0463
400.7183, 203.4111
401.2004, 195.0462
401.6825, 185.9557
402.1646, 176.3165
402.6467, 165.9818
403.1288, 155.1524
403.6110, 143.8375
404.0931, 132.1558
404.5752, 120.7439
405.0573, 110.3583
405.5394, 101.2120
406.0215, 92.52864
406.5037, 84.04251
406.9858, 76.22699
407.4679, 69.44350
407.9500, 63.51031
408.4321, 57.91286
408.9142, 52.24452
409.3964, 46.67760
409.8785, 41.92184
410.3606, 38.45157
410.8427, 35.28432
411.3248, 32.36098
411.8069, 29.67531
412.2891, 27.24385
412.7712, 25.06322
413.2533, 23.08029
413.7354, 21.24467
414.2175, 19.57388
414.6996, 17.93898
415.1818, 16.30560
415.6639, 14.74683
416.1460, 13.26784
416.6281, 11.88707
417.1102, 10.65143
417.5923, 9.557220
418.0745, 8.637817
418.5566, 8.020905
419.0387, 7.830444
419.5208, 7.682114
420.0029, 7.661057
420.4850, 7.522263
420.9672, 6.937485
421.4493, 5.816238
421.9314, 4.636414
422.4135, 3.842407
422.8956, 3.428940
423.3777, 3.286804
423.8599, 3.612976
424.3420, 3.915222
424.8241, 3.812683
425.3062, 3.378082
425.7883, 2.862427
426.2704, 2.250687
426.7526, 1.672028
427.2347, 1.358383
427.7168, 1.321396
428.1989, 1.318848
428.6810, 1.192368
429.1631, 1.041840
429.6453, 1.112610
430.1274, 1.576553
430.6095, 1.869064
431.0916, 1.503265
431.5737, 0.8069760
432.0558, 0.4445190
432.5380, 0.5871890
433.0201, 0.9512790
433.5022, 1.281723
433.9843, 1.591965
434.4664, 1.673660
434.9485, 1.264648
435.4307, 0.8456270
435.9128, 0.7730410
436.3949, 0.9659880
436.8770, 1.145386
437.3591, 1.154022
437.8412, 1.007187
438.3234, 0.7615810
438.8055, 0.2239530
439.2876, 0.1631620
439.7697, 0.2820280
440.2518, 0.2850340
440.7339, 0.3407750
441.2160, 0.4673000
441.6982, 0.5158230
442.1803, 0.2712250
442.6624, 0.3502960
443.1445, 0.6594390
443.6266, 0.3142090
444.1087, 8.3919996E-03
444.5909, 3.8361002E-02
445.0730, 0.2355650
445.5551, 0.2654720
446.0372, 6.5963998E-02
446.5193, 0.5337370
447.0014, 0.5503390
447.4836, 0.1640010
447.9657, 0.4914550
448.4478, 0.3126070
448.9299, 1.174728
449.4120, 1.363922
449.8941, 0.8750000
450.3763, 0.2652740
450.8584, 0.1004030
451.3405, 0.2458650
451.8226, 0.2108150
452.3047, 0.1098020
452.7868, 0.3459470
453.2690, 0.1963350
453.7511, 0.1557920
454.2332, 0.4881900
454.7153, 0.8153840
455.1974, 0.9912870
455.6795, 0.7903290
456.1617, 0.3045960
456.6438, 7.2006002E-02
457.1259, 0.2305300
457.6080, 0.2392580
458.0901, 0.1695400
458.5722, 2.8122000E-02
459.0544, 0.1996920
459.5365, 0.6514280
460.0186, 1.094849
460.5007, 1.248230
460.9828, 1.164429
461.4649, 1.209351
461.9471, 1.650314
462.4292, 2.348938
462.9113, 2.729660
463.3934, 2.574051
463.8755, 2.411591
464.3576, 2.020996
464.8398, 1.800537
465.3219, 2.260361
465.8040, 3.444977
466.2861, 4.908890
466.7682, 6.234039
467.2503, 7.476883
467.7325, 8.098450
468.2146, 7.422638
468.6967, 6.836319
469.1788, 6.629349
469.6609, 6.767776
470.1430, 7.215652
470.6252, 7.967331
471.1073, 8.860779
471.5894, 9.617722
472.0715, 10.21809
472.5536, 10.76778
473.0357, 11.18787
473.5179, 11.64137
474.0000, 12.21545
474.4821, 12.90425
474.9642, 13.67899
475.4463, 14.70195
475.9284, 15.73254
476.4106, 16.20370
476.8927, 16.05040
477.3748, 15.73975
477.8569, 15.52522
478.3390, 15.24190
478.8211, 14.66621
479.3033, 13.77950
479.7854, 12.63965
480.2675, 11.02936
480.7496, 9.243637
481.2317, 7.819244
481.7138, 6.855377
482.1959, 6.160339
482.6780, 5.596100
483.1602, 5.166107
483.6423, 4.768112
484.1244, 4.558868
484.6065, 4.211655
485.0886, 3.490479
485.5707, 2.561447
486.0529, 1.673889
486.5350, 0.9178310
487.0171, 0.3281710
487.4992, 4.2880001E-03
487.9813, 6.0943998E-02
488.4634, 5.6759999E-03
488.9456, 0.3594970
489.4277, 0.6591030
489.9098, 0.6550750
490.3919, 0.4165190
490.8740, 0.1443480
491.3561, 4.4082999E-02
491.8383, 0.1445620
492.3204, 9.2545003E-02
492.8025, 0.2861940
493.2846, 0.3479160
493.7667, 0.4413600
494.2488, 1.323868
494.7310, 1.776886
495.2131, 1.783142
495.6952, 1.687592
496.1773, 1.537369
496.6594, 1.465698
497.1415, 1.968185
497.6237, 3.186920
498.1058, 4.442459
498.5879, 5.321228
499.0700, 6.014969
499.5521, 6.888290
500.0342, 7.983475
500.5164, 9.285629
500.9985, 10.92044
501.4806, 12.67328
501.9627, 14.20628
502.4448, 15.46315
502.9269, 16.57974
503.4091, 17.64680
503.8912, 18.65233
504.3733, 19.63507
504.8554, 20.79074
505.3375, 21.80795
505.8196, 22.65968
506.3018, 23.17693
506.7839, 23.11617
507.2660, 22.44920
507.7481, 21.41492
508.2302, 20.28903
508.7123, 18.99112
509.1945, 17.79465
509.6766, 16.53766
510.1587, 15.52361
510.6408, 15.05350
511.1229, 14.91539
511.6050, 14.65852
512.0872, 14.01053
512.5693, 13.21765
513.0514, 12.75478
513.5335, 12.66525
514.0156, 12.53615
514.4977, 12.20477
514.9799, 11.87012
515.4620, 11.67368
515.9441, 11.62038
516.4262, 11.70338
516.9083, 12.09142
517.3904, 12.50803
517.8726, 12.48486
518.3547, 12.05995
518.8368, 11.81174
519.3189, 12.00243
519.8010, 12.54901
520.2831, 13.36252
520.7653, 14.67924
521.2474, 15.54205
521.7295, 15.76584
522.2116, 15.48718
522.6937, 14.60454
523.1758, 13.26534
523.6580, 11.95911
524.1401, 11.03455
524.6222, 10.45348
525.1043, 10.02087
525.5864, 10.08502
526.0685, 9.789063
526.5507, 8.735733
527.0328, 7.536896
527.5149, 6.665192
527.9970, 6.184723
528.4791, 5.912567
528.9612, 5.780518
529.4434, 5.733215
529.9255, 5.366806
530.4076, 4.485367
530.8897, 3.745651
531.3718, 3.539795
531.8539, 3.571060
532.3361, 3.561142
532.8182, 3.469330
533.3003, 3.340073
533.7824, 3.210358
534.2645, 3.062363
534.7466, 2.782181
535.2288, 2.332367
535.7109, 2.059784
536.1930, 2.250107
536.6751, 2.854797
537.1572, 3.493042
537.6393, 4.247131
538.1215, 4.933563
538.6036, 5.542282
539.0857, 6.038376
539.5678, 6.286774
540.0499, 6.302292
540.5320, 6.383636
541.0142, 6.865768
541.4963, 7.762436
541.9784, 8.560120
542.4604, 8.883438
542.9426, 9.564407
543.4247, 10.95074
543.9068, 12.68932
544.3889, 14.38500
544.8710, 15.92917
545.3531, 17.47333
545.8353, 19.14499
546.3174, 20.92969
546.7995, 22.74782
547.2816, 24.45227
547.7637, 26.48410
548.2458, 29.37312
548.7280, 32.71843
549.2101, 35.90938
549.6922, 38.72644
550.1743, 41.60262
550.6564, 44.84741
551.1385, 48.33946
551.6207, 52.02354
552.1028, 55.88759
552.5849, 59.51260
553.0670, 62.42055
553.5491, 64.61755
554.0313, 67.18877
554.5134, 71.07669
554.9955, 74.16270
555.4776, 75.72275
555.9597, 76.24446
556.4418, 76.31252
556.9240, 76.10034
557.4061, 75.40085
557.8882, 73.83348
558.3703, 71.42220
558.8524, 68.88608
559.3345, 66.31766
559.8167, 63.49455
560.2988, 60.14775
560.7809, 56.62148
561.2630, 53.30075
561.7451, 50.29768
562.2272, 47.42711
562.7094, 44.49513
563.1915, 41.57114
563.6736, 38.87531
564.1557, 36.38837
564.6378, 34.09468
565.1199, 31.96437
565.6021, 30.03194
566.0842, 28.34450
566.5663, 26.98914
567.0484, 25.69083
567.5305, 24.28842
568.0126, 22.94081
568.4948, 21.89813
568.9769, 21.17328
569.4590, 20.44414
569.9411, 19.38620
570.4232, 18.05162
570.9053, 17.15131
571.3875, 17.06232
571.8696, 16.86214
572.3517, 16.33519
572.8338, 15.71480
573.3159, 15.05537
573.7980, 14.45543
574.2802, 14.23586
574.7623, 14.88255
575.2444, 16.17664
575.7265, 17.13695
576.2086, 17.68250
576.6907, 18.14700
577.1729, 18.70660
577.6550, 19.26892
578.1371, 19.57803
578.6192, 19.48495
579.1013, 19.63129
579.5834, 20.60670
580.0656, 21.75290
580.5477, 22.31706
581.0298, 22.27354
581.5119, 21.93973
581.9940, 21.47481
582.4761, 20.92076
582.9583, 20.28780
583.4404, 19.63872
583.9225, 18.83989
584.4046, 17.78667
584.8867, 16.62207
585.3688, 15.28448
585.8510, 13.90065
586.3331, 12.81207
586.8152, 12.27748
587.2973, 12.06763
587.7794, 11.65126
588.2615, 10.98622
588.7437, 10.42369
589.2258, 10.22694
589.7079, 9.949951
590.1900, 9.102142
590.6721, 7.802353
591.1542, 6.621887
591.6364, 5.740845
592.1185, 5.045731
592.6006, 4.479599
593.0827, 4.019470
593.5648, 3.559860
594.0469, 3.052795
594.5291, 2.678604
595.0112, 2.729126
595.4933, 3.358429
595.9754, 3.718140
596.4575, 3.782349
596.9396, 3.643387
597.4218, 3.155640
597.9039, 2.553329
598.3860, 2.155014
598.8681, 2.062820
599.3502, 2.058548
599.8323, 1.816772
600.3145, 1.352554
600.7966, 1.202591
601.2787, 1.624313
601.7608, 1.852829
602.2429, 0.9588930
602.7250, 0.2577970
603.2072, 0.4266050
603.6893, 0.9896550
604.1714, 2.325882
604.6535, 2.619690
605.1356, 2.377716
605.6177, 2.411591
606.0999, 2.775726
606.5820, 2.789368
607.0641, 1.854919
607.5462, 0.2944640
608.0283, 0.4253080
608.5104, 0.5903170
608.9926, 1.198044
609.4747, 1.060944
609.9568, 0.7171480
610.4389, 0.4909060
610.9210, 0.4401860
611.4031, 0.4778440
611.8853, 0.5605320
612.3674, 0.6223750
612.8495, 0.6158450
613.3316, 0.5471040
613.8137, 0.3396300
614.2958, 0.4015960
614.7780, 0.7898250
615.2601, 0.7037200
615.7422, 3.646240
616.2243, 5.212738
616.7064, 3.789429
617.1885, 1.853241
617.6707, 0.7637330
618.1528, 0.3504940
618.6349, 0.3307800
619.1170, 0.5976870
619.5991, 0.8341370
620.0812, 0.6093290
620.5634, 0.1382750
621.0455, 0.4224700
621.5276, 0.3868410
622.0097, 0.8869930
622.4918, 0.5209960
622.9739, 0.1318210
623.4561, 0.4874880
623.9382, 0.4330600
624.4203, 0.2288360
624.9023, 7.4459999E-03
625.3845, 0.2387080
625.8666, 0.3654330
626.3487, 0.3854220
626.8308, 0.2755130
627.3129, 6.1707001E-02
627.7950, 0.4527280
628.2772, 0.5258640
628.7593, 0.2100980
629.2414, 6.5770000E-03
629.7235, 0.2339020
630.2056, 0.3405150
630.6877, 0.4450840
631.1699, 1.674133
631.6520, 2.128952
632.1341, 1.249252
632.6162, 6.9381997E-02
633.0983, 0.1170650
633.5804, 1.535156
634.0626, 2.175293
634.5447, 0.9380040
635.0268, 0.2353520
635.5089, 0.3617400
635.9910, 6.1264001E-02
636.4731, 0.2929690
636.9553, 0.1519780
637.4374, 0.1506810
637.9195, 0.7144620
638.4016, 1.258163
638.8837, 1.065506
639.3658, 9.7855002E-02
639.8480, 0.6811520
640.3301, 0.6036070
640.8122, 6.7474000E-02
641.2943, 0.4610290
641.7764, 0.4556430
642.2585, 0.3444670
642.7407, 9.9074997E-02
643.2228, 0.2350460
643.7049, 0.7891850
644.1870, 1.391525
644.6691, 1.630386
645.1512, 1.246384
645.6334, 0.6269070
646.1155, 0.4609220
646.5976, 0.7372740
647.0797, 0.7272030
647.5618, 0.1602480
648.0439, 0.3448640
648.5261, 0.2441250
649.0082, 0.2870940
649.4903, 0.7380220
649.9724, 1.172195
650.4545, 1.369949
650.9366, 1.065399
651.4188, 0.5761570
651.9009, 0.2750850
652.3830, 0.1958770
652.8651, 0.1541750
653.3472, 2.3800000E-03
653.8293, 0.1935270
654.3115, 9.6832000E-02
654.7936, 0.4089970
655.2757, 0.9106450
655.7578, 1.499680
656.2399, 1.930328
656.7220, 2.004822
657.2042, 1.800507
657.6863, 1.550278
658.1684, 1.282028
658.6505, 1.096390
659.1326, 1.175125
659.6147, 1.413620
660.0969, 1.506958
660.5790, 1.377502
661.0611, 1.110168
661.5432, 0.7377010
662.0253, 0.2883450
662.5074, 0.1455380
662.9896, 0.5549930
663.4717, 0.9161070
663.9538, 1.177002
664.4359, 1.380600
664.9180, 1.588821
665.4001, 1.781174
665.8823, 1.862869
666.3644, 1.830399
666.8465, 1.634705
667.3286, 1.070557
667.8107, 0.1611180
668.2928, 0.4316860
668.7750, 0.5977630
669.2571, 0.3475650
669.7392, 0.6163940
670.2213, 2.142975
670.7034, 2.772507
671.1855, 1.547836
671.6677, 0.5718540
672.1498, 0.7886200
672.6319, 1.394272
673.1140, 1.533035
673.5961, 1.109421
674.0782, 0.6890260
674.5604, 0.7063290
675.0425, 1.037842
675.5246, 1.298798
676.0067, 1.491562
676.4888, 1.593597
676.9709, 1.547592
677.4531, 1.471542
677.9352, 1.434769
678.4173, 1.435562
678.8994, 1.497711
679.3815, 1.890686
679.8636, 2.074524
680.3458, 1.411484
680.8279, 0.4581300
681.3100, 0.1952970
681.7921, 0.7500310
682.2742, 1.395981
682.7563, 1.528458
683.2385, 1.243790
683.7206, 1.052277
684.2027, 0.9760890
684.6848, 0.9416500
685.1669, 0.8673710
685.6490, 0.8694000
686.1312, 1.082718
686.6133, 1.483383
687.0954, 1.950180
687.5775, 2.563614
688.0596, 2.945465
688.5417, 2.641205
689.0239, 1.879059
689.5060, 1.165955
689.9881, 0.5984190
690.4702, 0.2470400
690.9523, 0.2121280
691.4344, 0.4507140
691.9166, 0.6257320
692.3987, 0.6050420
692.8808, 0.7106780
693.3629, 1.174515
693.8450, 1.623901
694.3271, 1.821625
694.8093, 1.772049
695.2914, 1.486191
695.7735, 0.8680420
696.2556, 0.2748410
696.7377, 0.2843930
697.2198, 0.7537080
697.7020, 0.8734280
698.1841, 0.4790040
698.6662, 0.2289120
699.1483, 0.6929020
699.6304, 1.613846
700.1125, 1.908356
700.5947, 0.8375700
701.0768, 0.2929080
701.5589, 0.8162230
702.0410, 1.367142
702.5231, 1.180313
703.0052, 0.5362090
703.4874, 0.1705020
703.9695, 0.4262850
704.4516, 0.8277890
704.9337, 0.6503750
705.4158, 6.6359997E-02
705.8979, 7.4799999E-04
706.3801, 0.6511990
706.8622, 1.385300
707.3442, 1.887299
707.8264, 2.129761
708.3085, 1.988022
708.7906, 1.202667
709.2727, 0.7042080
709.7548, 0.7171630
710.2369, 0.8682100
710.7191, 1.058243
711.2012, 1.187073
711.6833, 1.068710
712.1654, 0.6633000
712.6475, 0.2835850
713.1296, 0.3070830
713.6118, 0.6555630
714.0939, 0.9100950
714.5760, 1.057388
715.0581, 1.103760
715.5402, 1.029434
716.0223, 0.8787840
716.5045, 0.6309050
716.9866, 0.1798550
717.4687, 0.2456210
717.9508, 1.767517
718.4329, 2.880783
718.9150, 2.180222
719.3972, 0.6829830
719.8793, 9.9959999E-02
720.3614, 0.2029720
720.8435, 0.8760680
721.3256, 1.290222
721.8077, 1.469452
722.2899, 1.423325
722.7720, 1.093658
723.2541, 1.082764
723.7362, 1.843582
724.2183, 2.601089
724.7004, 2.245575
725.1826, 0.8049010
725.6647, 4.7882002E-02
726.1468, 2.0584000E-02
726.6289, 0.3679660
727.1110, 1.055832
727.5931, 1.784927
728.0753, 2.117386
728.5574, 2.042679
729.0395, 1.856613
729.5216, 1.735321
730.0037, 1.724564
730.4858, 1.968094
730.9680, 2.474533
731.4501, 2.888947
731.9322, 3.123581
732.4143, 3.307251
732.8964, 3.626892
733.3785, 3.989639
733.8607, 3.948959
734.3428, 3.076157
734.8249, 2.463013
735.3070, 2.500290
735.7891, 2.742401
736.2712, 2.873840
736.7534, 2.877075
737.2355, 2.841141
737.7176, 2.810272
738.1997, 2.812088
738.6818, 2.942108
739.1639, 3.185867
739.6461, 3.273010
740.1282, 3.080475
740.6103, 2.895264
741.0924, 2.814651
741.5745, 2.893402
742.0566, 3.344467
742.5388, 4.376968
743.0209, 5.039520
743.5030, 5.107834
743.9851, 4.996796
744.4672, 4.767960
744.9493, 4.492691
745.4315, 4.255325
745.9136, 4.136871
746.3957, 4.283173
746.8778, 4.993713
747.3599, 5.981674
747.8420, 6.413101
748.3242, 6.292313
748.8063, 6.058655
749.2884, 5.847626
749.7705, 5.564926
750.2526, 5.035080
750.7347, 4.254013
751.2169, 3.981812
751.6990, 4.768021
752.1811, 5.249084
752.6632, 4.853241
753.1453, 4.200790
753.6274, 3.820633
754.1096, 3.794617
754.5917, 3.990891
755.0738, 4.386459
755.5559, 4.810715
756.0380, 5.078064
756.5201, 5.193970
757.0023, 5.062271
757.4844, 4.624573
757.9665, 4.291977
758.4486, 4.377029
758.9307, 4.801529
759.4128, 5.285797
759.8950, 6.111542
760.3771, 6.466888
760.8592, 5.845352
761.3413, 5.312210
761.8234, 5.566422
762.3055, 6.180176
762.7877, 6.424515
763.2698, 6.085373
763.7519, 5.616165
764.2340, 5.349976
764.7161, 5.170883
765.1982, 4.788559
765.6804, 4.281006
766.1625, 4.220200
766.6446, 4.856201
767.1267, 5.582779
767.6088, 5.563904
768.0909, 4.761429
768.5731, 4.221802
769.0552, 4.074692
769.5373, 3.977905
770.0194, 3.898575
770.5015, 3.802246
770.9836, 3.685516
771.4658, 3.537155
771.9479, 3.299850
772.4300, 2.865707
772.9121, 2.454407
773.3942, 2.091995
773.8763, 1.908310
774.3585, 2.243271
774.8406, 3.036835
775.3227, 3.785187
775.8048, 4.175034
776.2869, 4.251373
776.7690, 4.023590
777.2512, 3.369705
777.7333, 3.242493
778.2154, 4.023193
778.6975, 4.789490
779.1796, 4.987610
779.6617, 4.875107
780.1439, 4.903427
780.6260, 5.145859
781.1081, 5.220963
781.5902, 4.770233
782.0723, 4.390106
782.5544, 4.603699
783.0366, 5.099411
783.5187, 5.339188
784.0008, 5.200470
784.4829, 4.913864
784.9650, 4.619064
785.4471, 4.375610
785.9293, 4.440872
786.4114, 4.821075
786.8935, 5.038895
787.3756, 4.941269
787.8577, 4.761200
788.3398, 4.726669
788.8220, 4.807556
789.3040, 4.742325
789.7861, 4.506500
790.2682, 4.169266
790.7504, 3.538391
791.2325, 2.991058
791.7146, 2.964188
792.1967, 3.172958
792.6788, 2.902069
793.1609, 1.827820
793.6431, 0.8437500
794.1252, 0.9406740
794.6073, 1.574402
795.0894, 1.739197
795.5715, 1.424942
796.0536, 0.9045410
796.5358, 0.2502900
797.0179, 0.1207280
797.5000, 0.5194850
797.9821, 2.257935
798.4642, 2.873169
798.9464, 1.682281
799.4285, 0.6092830
799.9106, 0.2558900
800.3927, 8.8500999E-02
800.8748, 0.3403020
801.3569, 0.9498750
801.8391, 1.273117
802.3212, 0.9447330
802.8033, 0.6606140
803.2854, 0.9596560
803.7675, 1.387085
804.2496, 1.347107
804.7318, 0.8948060
805.2139, 0.4631200
805.6960, 0.2878270
806.1781, 0.2439580
806.6602, 9.1034003E-02
807.1423, 0.1476440
807.6245, 7.2417997E-02
808.1066, 0.4116670
808.5887, 0.8070680
809.0708, 0.8992770
809.5529, 0.7803650
810.0350, 0.5306400
810.5172, 9.5550999E-02
810.9993, 8.6304002E-02
811.4814, 0.2196500
811.9635, 0.4770200
812.4456, 0.4836730
812.9277, 0.4180150
813.4099, 0.4996950
813.8920, 0.6891330
814.3741, 0.7326200
814.8562, 0.4679870
815.3383, 8.7585002E-02
815.8204, 0.2143710
816.3026, 0.4762420
816.7847, 0.8189090
817.2668, 1.235870
817.7489, 1.543167
818.2310, 1.625549
818.7131, 1.591324
819.1953, 1.593536
819.6774, 1.567154
820.1595, 2.051788
820.6416, 3.455917
821.1237, 4.602997
821.6058, 4.837280
822.0880, 4.744858
822.5701, 4.952637
823.0522, 5.459900
823.5343, 5.980042
824.0164, 6.386917
824.4985, 6.876633
824.9807, 7.604309
825.4628, 8.418198
825.9449, 9.109604
826.4270, 9.707840
826.9091, 10.40790
827.3912, 11.32329
827.8734, 12.38835
828.3555, 13.52657
828.8376, 14.73726
829.3197, 16.06979
829.8018, 17.52168
830.2839, 18.83643
830.7661, 19.85307
831.2482, 20.73773
831.7303, 21.74481
832.2124, 22.84010
832.6945, 24.27831
833.1766, 26.16380
833.6588, 28.23558
834.1409, 30.65953
834.6230, 33.03867
835.1051, 35.04027
835.5872, 36.70004
836.0693, 38.31613
836.5515, 39.89412
837.0336, 41.57642
837.5157, 43.75180
837.9978, 45.87679
838.4799, 47.14009
838.9620, 47.74411
839.4442, 48.51283
839.9263, 49.83267
840.4084, 51.48633
840.8905, 53.19034
841.3726, 54.95789
841.8547, 56.77832
842.3369, 58.61790
842.8190, 60.87732
843.3011, 63.66429
843.7832, 66.95706
844.2653, 70.65340
844.7474, 74.76874
845.2296, 79.77718
845.7117, 86.11252
846.1938, 92.69633
846.6759, 98.95410
847.1580, 105.8905
847.6401, 114.0956
848.1223, 123.5040
848.6044, 134.0629
849.0865, 145.9893
849.5686, 158.0042
850.0507, 170.0677
850.5328, 181.4264
851.0150, 191.8162
851.4971, 200.8619
851.9792, 208.2644
852.4613, 213.7356
852.9434, 216.2384
853.4255, 214.6036
853.9077, 209.2604
854.3898, 201.0431
854.8719, 189.9366
855.3540, 178.2886
855.8361, 166.4173
856.3182, 154.6967
856.8004, 143.3490
857.2825, 132.5005
857.7646, 122.4522
858.2467, 112.8434
858.7288, 104.9029
859.2109, 98.78813
859.6931, 94.09634
860.1752, 91.24536
860.6573, 89.46387
861.1394, 87.85059
861.6215, 86.29483
862.1036, 85.13498
862.5858, 84.50711
863.0679, 84.34439
863.5500, 84.71565
864.0321, 85.43344
864.5142, 86.50797
864.9963, 87.73633
865.4785, 88.42609
865.9606, 88.15060
866.4427, 87.21298
866.9248, 86.05157
867.4069, 84.66118
867.8890, 82.97066
868.3712, 80.99255
868.8533, 78.54395
869.3354, 75.49908
869.8175, 71.95590
870.2996, 67.99298
870.7817, 63.60030
871.2639, 59.67728
871.7459, 56.40730
872.2280, 53.27441
872.7101, 50.23087
873.1923, 47.34219
873.6744, 44.73460
874.1565, 42.28757
874.6386, 39.62741
875.1207, 36.52493
875.6028, 33.79341
876.0850, 32.04329
876.5671, 30.47079
877.0492, 28.20331
877.5313, 25.82028
878.0134, 24.56273
878.4955, 24.54770
878.9777, 24.40381
879.4598, 22.93448
879.9419, 20.90865
880.4240, 19.50569
880.9061, 18.61746
881.3882, 17.95735
881.8704, 17.46640
882.3525, 16.88965
882.8346, 16.01964
883.3167, 15.10933
883.7988, 14.71573
884.2809, 14.91953
884.7631, 15.15558
885.2452, 15.49593
885.7273, 15.69485
886.2094, 15.70689
886.6915, 15.49689
887.1736, 14.76321
887.6558, 13.59071
888.1379, 13.27061
888.6200, 14.54073
889.1021, 15.67166
889.5842, 16.34341
890.0663, 16.81036
890.5485, 17.21252
891.0306, 17.55353
891.5127, 17.79771
891.9948, 17.93703
892.4769, 18.01268
892.9590, 17.98494
893.4412, 17.96350
893.9233, 18.16893
894.4054, 18.44366
894.8875, 18.42604
895.3696, 18.06604
895.8517, 17.59378
896.3339, 17.16635
896.8160, 16.78477
897.2981, 16.53181
897.7802, 16.36972
898.2623, 15.84256
898.7444, 14.87544
899.2266, 13.98045
899.7087, 13.41455
900.1908, 12.98059
900.6729, 12.36156
901.1550, 11.53789
901.6371, 10.99149
902.1193, 11.08452
902.6014, 10.76762
903.0835, 9.328186
903.5656, 7.928299
904.0477, 7.458282
904.5298, 7.621918
905.0120, 7.708237
905.4941, 7.753815
905.9762, 7.406067
906.4583, 5.965363
906.9404, 4.761459
907.4225, 4.861298
907.9047, 5.559738
908.3868, 5.859360
908.8689, 5.617828
909.3510, 5.349426
909.8331, 5.493408
910.3152, 5.518494
910.7974, 4.598450
911.2795, 3.287781
911.7616, 2.618530
912.2437, 2.625839
912.7258, 2.895111
913.2079, 3.230728
913.6901, 3.471542
914.1722, 3.238846
914.6543, 2.707611
915.1364, 3.137131
915.6185, 4.583710
916.1006, 5.215286
916.5828, 4.422607
917.0649, 3.437485
917.5470, 3.315033
918.0291, 3.772156
918.5112, 3.730789
918.9933, 2.805084
919.4755, 2.384171
919.9576, 2.813354
920.4397, 3.259064
920.9218, 3.383331
921.4039, 3.370178
921.8860, 3.367096
922.3682, 3.384933
922.8503, 3.541931
923.3324, 4.062134
923.8145, 4.442307
924.2966, 4.458145
924.7787, 4.354675
925.2609, 4.279129
925.7430, 4.248505
926.2251, 4.267548
926.7072, 4.338638
927.1893, 4.391632
927.6714, 4.354767
928.1536, 4.298386
928.6357, 4.407974
929.1178, 4.510132
929.5999, 4.219421
930.0820, 3.527130
930.5641, 2.746643
931.0463, 2.050629
931.5284, 1.523575
932.0105, 1.468063
932.4926, 1.709229
932.9747, 1.456039
933.4568, 0.6959990
933.9390, 0.1070710
934.4211, 0.7973630
934.9032, 1.233261
935.3853, 1.180161
935.8674, 0.7847900
936.3495, 1.024994
936.8317, 2.172333
937.3138, 2.711411
937.7959, 2.205963
938.2780, 1.685257
938.7601, 1.830475
939.2422, 2.209930
939.7244, 2.020203
940.2065, 1.146637
940.6886, 0.3923800
941.1707, 0.3220830
941.6528, 0.8142240
942.1349, 0.7188110
942.6171, 0.6852870
943.0992, 1.293808
943.5813, 2.334335
944.0634, 3.229340
944.5455, 3.872681
945.0276, 4.356598
945.5098, 4.510468
945.9919, 4.737701
946.4740, 5.457687
946.9561, 6.329575
947.4382, 6.835815
947.9203, 6.968597
948.4025, 7.145294
948.8846, 7.593948
949.3667, 8.149429
949.8488, 8.714111
950.3309, 9.250778
950.8130, 9.545074
951.2952, 9.760925
951.7773, 10.58022
952.2594, 12.16615
952.7415, 13.62260
953.2236, 13.99098
953.7057, 13.75279
954.1878, 14.04640
954.6699, 14.81836
955.1520, 15.82198
955.6342, 17.02455
956.1163, 17.85669
956.5984, 17.91714
957.0805, 18.01082
957.5626, 19.50307
958.0447, 22.37724
958.5269, 24.99779
959.0090, 27.34862
959.4911, 29.53885
959.9732, 31.50256
960.4553, 33.51115
960.9374, 35.76492
961.4196, 38.19344
961.9017, 40.67017
962.3838, 43.52533
962.8659, 45.39339
963.3480, 45.87682
963.8301, 45.88272
964.3123, 45.56715
964.7944, 44.95605
965.2765, 44.17981
965.7586, 43.14311
966.2407, 41.42035
966.7228, 38.72273
967.2050, 35.81357
967.6871, 32.57367
968.1692, 29.46507
968.6513, 26.81921
969.1334, 24.43951
969.6155, 22.04878
970.0977, 19.63191
970.5798, 17.41525
971.0619, 15.42151
971.5440, 13.79559
972.0261, 12.87440
972.5082, 12.17560
972.9904, 11.13641
973.4725, 9.901520
973.9546, 8.873703
974.4367, 8.180008
974.9188, 7.711670
975.4009, 7.367142
975.8831, 7.222351
976.3652, 7.663773
976.8473, 8.287933
977.3294, 7.970078
977.8115, 6.843552
978.2936, 6.232513
978.7758, 6.762085
979.2579, 7.831604
979.7400, 8.815369
980.2221, 9.701187
980.7042, 10.46861
981.1863, 11.13481
981.6685, 11.66095
982.1506, 12.03976
982.6327, 12.57704
983.1148, 13.48541
983.5969, 14.70175
984.0790, 16.10519
984.5612, 17.70451
985.0433, 19.35373
985.5254, 21.02946
986.0075, 22.72081
986.4896, 24.43777
986.9717, 26.20804
987.4539, 28.03064
987.9360, 29.92413
988.4181, 32.03705
988.9002, 34.59804
989.3823, 36.38181
989.8644, 36.94708
990.3466, 37.73676
990.8287, 39.43365
991.3108, 41.31561
991.7929, 42.73851
992.2750, 43.72021
992.7571, 44.48888
993.2393, 45.27742
993.7214, 45.48340
994.2035, 44.67317
994.6856, 43.75604
995.1677, 43.29344
995.6498, 42.84666
996.1320, 41.93393
996.6141, 40.49178
997.0962, 38.61230
997.5783, 35.68021
998.0604, 33.50409
998.5425, 33.11696
999.0247, 32.97629
999.5068, 32.29555
999.9889, 31.15404
1000.471, 29.64043
1000.953, 27.83882
1001.435, 26.17963
1001.917, 24.75336
1002.399, 23.52957
1002.882, 22.78084
1003.364, 22.07765
1003.846, 20.88177
1004.328, 19.44463
1004.810, 18.38139
1005.292, 17.79080
1005.774, 17.01930
1006.256, 15.30328
1006.739, 13.70543
1007.221, 13.59891
1007.703, 14.01151
1008.185, 13.51222
1008.667, 12.24338
1009.149, 10.98479
1009.631, 10.04445
1010.113, 9.437805
1010.595, 9.368774
1011.078, 9.433670
1011.560, 8.983597
1012.042, 8.205887
1012.524, 7.449188
1013.006, 6.796509
1013.488, 6.442627
1013.970, 6.457779
1014.452, 6.371368
1014.935, 5.503235
1015.417, 4.248489
1015.899, 3.660217
1016.381, 3.612396
1016.863, 3.548676
1017.345, 3.385483
1017.827, 3.214828
1018.309, 3.083252
1018.791, 2.992447
1019.274, 2.957016
1019.756, 2.961288
1020.238, 2.906387
1020.720, 2.795288
1021.202, 2.807159
1021.684, 2.990280
1022.166, 2.984589
1022.648, 2.553574
1023.130, 1.960449
1023.613, 1.605469
1024.095, 1.484451
1024.577, 1.599899
1025.059, 1.999786
1025.541, 2.206497
1026.023, 2.110550
1026.505, 1.865204
1026.987, 1.480774
1027.469, 1.196106
1027.952, 1.545258
1028.434, 2.579239
1028.916, 2.979828
1029.398, 2.573944
1029.880, 2.098846
1030.362, 1.579941
1030.844, 1.303162
1031.326, 1.573761
1031.809, 2.079865
1032.291, 2.160355
1032.773, 1.743423
1033.255, 1.527100
1033.737, 1.576553
1034.219, 1.709167
1034.701, 2.045181
1035.183, 2.216934
1035.666, 1.909180
1036.148, 1.309982
1036.630, 0.7266540
1037.112, 3.3875000E-02
1037.594, 8.0275998E-02
1038.076, 1.739136
1038.558, 2.732483
1039.040, 2.304947
1039.522, 1.481888
1040.005, 0.7207790
1040.487, 8.8013001E-02
1040.969, 0.2365880
1041.451, 0.1687770
1041.933, 0.2514340
1042.415, 0.8021700
1042.897, 1.075241
1043.379, 0.6204530
1043.861, 0.1516880
1044.344, 0.2135930
1044.826, 0.5629120
1045.308, 0.7431030
1045.790, 0.7298740
1046.272, 0.4904940
1046.754, 0.4554600
1047.236, 0.9729310
1047.718, 0.4200590
1048.201, 0.2827150
1048.683, 0.5583340
1049.165, 0.5253300
1049.647, 0.4475400
1050.129, 0.3513030
1050.611, 0.2023320
1051.093, 0.2017670
1051.575, 0.4043270
1052.057, 1.8021001E-02
1052.540, 0.4493260
1053.022, 0.5054930
1053.504, 0.2278290
1053.986, 0.3837280
1054.468, 1.344971
1054.950, 1.925079
1055.432, 1.672943
1055.914, 1.363251
1056.396, 1.255859
1056.879, 1.189514
1057.361, 1.113464
1057.843, 0.9625400
1058.325, 0.5121770
1058.807, 0.2459260
1059.289, 0.5420530
1059.771, 0.1407780
1060.253, 0.9432070
1060.736, 1.756805
1061.218, 2.345169
1061.700, 2.382858
1062.182, 2.152390
1062.664, 2.220825
1063.146, 2.628250
1063.628, 2.641296
1064.110, 1.577621
1064.593, 0.6671750
1065.075, 0.4130550
1065.557, 0.4977110
1066.039, 0.8697360
1066.521, 1.321960
1067.003, 1.534836
1067.485, 1.503677
1067.967, 1.553040
1068.449, 1.922836
1068.932, 2.208282
1069.414, 2.068512
1069.896, 1.936127
1070.378, 2.337128
1070.860, 2.845703
1071.342, 2.632996
1071.824, 1.790405
1072.306, 1.508408
1072.788, 2.486160
1073.271, 3.439331
1073.753, 3.845581
1074.235, 3.933716
1074.717, 3.615952
1075.199, 3.243210
1075.681, 3.433746
1076.163, 4.042816
1076.645, 4.094147
1077.127, 3.004105
1077.610, 2.156326
1078.092, 2.309204
1078.574, 2.792175
1079.056, 3.376022
1079.538, 3.875748
1080.020, 4.113190
1080.502, 4.093048
1080.984, 3.850967
1081.467, 3.309250
1081.949, 3.002747
1082.431, 3.514893
1082.913, 3.934067
1083.395, 3.465302
1083.877, 2.799240
1084.359, 2.792343
1084.841, 3.238739
1085.323, 3.328506
1085.806, 2.793945
1086.288, 2.467773
1086.770, 2.905975
1087.252, 3.385345
1087.734, 3.477982
1088.216, 3.486328
1088.698, 3.809341
1089.180, 4.247116
1089.662, 4.300781
1090.145, 3.867966
1090.627, 3.424149
1091.109, 2.972748
1091.591, 2.776443
1092.073, 3.012894
1092.555, 3.484314
1093.037, 4.335297
1093.519, 5.170029
1094.002, 5.363373
1094.484, 4.846817
1094.966, 4.026291
1095.448, 2.564362
1095.930, 1.575043
1096.412, 1.323761
1096.894, 1.728775
1097.376, 3.552521
1097.859, 5.501007
1098.341, 5.597275
1098.823, 3.982346
1099.305, 2.897202
1099.787, 3.204529
1100.269, 3.264130
1100.751, 2.325897
1101.233, 1.531906
1101.715, 1.542725
1102.198, 1.842804
1102.680, 1.922379
1103.162, 1.809692
1103.644, 1.759781
1104.126, 1.931549
1104.608, 1.856903
1105.090, 1.001541
1105.572, 0.3618010
1106.054, 0.2782750
1106.537, 0.5073850
1107.019, 1.193848
1107.501, 1.979492
1107.983, 1.886414
1108.465, 0.5799260
1108.947, 2.9114000E-02
1109.429, 0.8227540
1109.911, 1.466125
1110.394, 1.351624
1110.876, 1.174896
1111.358, 1.476379
1111.840, 1.957169
1112.322, 2.013077
1112.804, 1.592987
1113.286, 1.431046
1113.768, 1.770004
1114.250, 1.965576
1114.733, 2.063812
1115.215, 1.884140
1115.697, 1.128418
1116.179, 0.2515720
1116.661, 0.2509160
1117.143, 0.4005430
1117.625, 0.4191890
1118.107, 0.3083800
1118.589, 0.1499940
1119.072, 1.8600000E-02
1119.554, 0.3267670
1120.036, 1.008759
1120.518, 1.520523
1121.000, 1.310242
1121.482, 0.6327210
1121.964, 0.2189030
1122.446, 6.6650003E-02
1122.929, 0.1952820
1123.411, 0.8111270
1123.893, 0.9800870
1124.375, 0.3129120
1124.857, 0.2566830
1125.339, 8.0719002E-02
1125.821, 0.4151610
1126.303, 0.4506380
1126.786, 7.3775999E-02
1127.268, 0.3404240
1127.750, 1.396347
1128.232, 1.650177
1128.714, 0.7767940
1129.196, 2.0630000E-02
1129.678, 0.2036590
1130.160, 5.1270001E-02
1130.642, 0.1604610
1131.125, 0.3962860
1131.607, 0.5480800
1132.089, 0.6155240
1132.571, 0.4931640
1133.053, 0.1873630
1133.535, 0.2172390
1134.017, 0.7404940
1134.499, 1.140198
1134.981, 0.9011080
1135.464, 0.4313510
1135.946, 0.5571750
1136.428, 1.083206
1136.910, 1.203094
1137.392, 0.9987180
1137.874, 0.9197540
1138.356, 1.040176
1138.838, 1.207108
1139.321, 1.342270
1139.803, 1.506012
1140.285, 1.810974
1140.767, 2.152374
1141.249, 2.381470
1141.731, 2.479156
1142.213, 2.191956
1142.695, 1.742203
1143.177, 2.099121
1143.660, 3.412888
1144.142, 4.235809
1144.624, 3.314728
1145.106, 2.053680
1145.588, 1.994095
1146.070, 2.390121
1146.552, 2.328506
1147.034, 1.984818
1147.516, 1.743698
1147.999, 1.684113
1148.481, 1.792053
1148.963, 2.106339
1149.445, 2.292526
1149.927, 1.968948
1150.409, 1.636398
1150.891, 1.618195
1151.373, 1.811646
1151.856, 2.214935
1152.338, 2.690292
1152.820, 3.020935
1153.302, 3.156387
1153.784, 3.011658
1154.266, 2.214371
1154.748, 1.635361
1155.230, 1.590958
1155.713, 1.814880
1156.195, 2.272308
1156.677, 2.824753
1157.159, 3.412155
1157.641, 3.977142
1158.123, 4.195068
1158.605, 4.004837
1159.087, 3.539627
1159.569, 2.452774
1160.052, 1.590607
1160.534, 1.119156
1161.016, 1.009338
1161.498, 1.514679
1161.980, 2.209229
1162.462, 2.023163
1162.944, 0.7841490
1163.426, 0.5330350
1163.908, 1.736328
1164.391, 2.606873
1164.873, 2.879700
1165.355, 2.840500
1165.837, 2.469040
1166.319, 2.236374
1166.801, 2.927094
1167.283, 4.205811
1167.765, 4.476242
1168.247, 3.688904
1168.730, 3.374512
1169.212, 3.617737
1169.694, 3.582565
1170.176, 3.032990
1170.658, 2.501434
1171.140, 2.344360
1171.622, 2.509720
1172.104, 3.016220
1172.587, 3.732834
1173.069, 4.353546
1173.551, 4.798889
1174.033, 4.569305
1174.515, 3.741409
1174.997, 3.062088
1175.479, 2.821396
1175.961, 2.713577
1176.443, 2.484818
1176.926, 2.245087
1177.408, 2.158966
1177.890, 2.134720
1178.372, 1.912491
1178.854, 1.689163
1179.336, 1.922867
1179.818, 2.597382
1180.300, 3.370743
1180.782, 4.165756
1181.265, 4.553513
1181.747, 3.959198
1182.229, 3.233887
1182.711, 2.805862
1183.193, 2.634079
1183.675, 2.867386
1184.157, 3.201614
1184.639, 3.043945
1185.122, 2.347321
1185.604, 1.798660
1186.086, 1.614197
1186.568, 1.496613
1187.050, 1.229523
1187.532, 1.142105
1188.014, 1.663254
1188.496, 2.196136
1188.979, 2.061035
1189.461, 1.534775
1189.943, 1.468643
1190.425, 2.000732
1190.907, 2.120728
1191.389, 1.561966
1191.871, 1.454926
1192.353, 2.053528
1192.835, 2.601700
1193.318, 2.768326
1193.800, 2.690414
1194.282, 2.459702
1194.764, 2.199478
1195.246, 2.533844
1195.728, 3.422501
1196.210, 3.770218
1196.692, 3.537720
1197.174, 2.970383
1197.657, 2.162750
1198.139, 1.530228
1198.621, 1.326035
1199.103, 1.539627
1199.585, 2.511261
1200.067, 3.580856
1200.549, 3.103012
1201.031, 1.860275
1201.514, 1.695419
1201.996, 2.388168
1202.478, 2.587845
1202.960, 2.012421
1203.442, 1.663010
1203.924, 2.270462
1204.406, 2.824936
1204.888, 2.380310
1205.370, 1.763687
1205.853, 1.643250
1206.335, 1.767746
1206.817, 1.814362
1207.299, 1.803589
1207.781, 1.933411
1208.263, 2.259888
1208.745, 2.397202
1209.227, 2.134598
1209.709, 1.846573
1210.192, 1.516205
1210.674, 1.290405
1211.156, 1.280930
1211.638, 1.368866
1212.120, 1.396286
1212.602, 1.440552
1213.084, 1.816406
1213.566, 2.702011
1214.049, 2.978622
1214.531, 2.450745
1215.013, 2.144958
1215.495, 2.351257
1215.977, 2.246567
1216.459, 1.310196
1216.941, 0.3108370
1217.423, 0.2058870
1217.906, 0.7567750
1218.388, 1.276505
1218.870, 1.779236
1219.352, 2.527298
1219.834, 3.364105
1220.316, 3.309479
1220.798, 2.273804
1221.280, 1.236740
1221.762, 0.7253880
1222.245, 0.4179080
1222.727, 0.1872410
1223.209, 0.5802000
1223.691, 7.5882003E-02
1224.173, 1.103851
1224.655, 1.748001
1225.137, 1.986359
1225.619, 1.826630
1226.101, 1.372940
1226.584, 1.107742
1227.066, 1.305008
1227.548, 1.474640
1228.030, 1.492722
1228.512, 1.410034
1228.994, 1.254196
1229.476, 1.001236
1229.958, 0.5134120
1230.441, 2.4582000E-02
1230.923, 0.3043370
1231.405, 0.3298030
1231.887, 0.1967930
1232.369, 0.1670380
1232.851, 0.4611510
1233.333, 0.6596680
1233.815, 0.8449550
1234.297, 1.061127
1234.780, 1.143326
1235.262, 0.9276580
1235.744, 0.6946720
1236.226, 1.024750
1236.708, 1.714279
1237.190, 1.872360
1237.672, 1.605637
1238.154, 1.338364
1238.636, 1.123672
1239.119, 0.9149930
1239.601, 0.7105410
1240.083, 0.6092990
1240.565, 0.6983340
1241.047, 0.7884830
1241.529, 0.6534120
1242.011, 0.4790650
1242.493, 0.4985960
1242.975, 0.5410460
1243.458, 0.1924740
1243.940, 0.2307430
1244.422, 0.1656650
1244.904, 1.421661
1245.386, 2.063110
1245.868, 1.255569
1246.350, 0.6560210
1246.832, 0.6486050
1247.315, 0.7505190
1247.797, 1.006760
1248.279, 1.035828
1248.761, 0.2811580
1249.243, 0.5917210
1249.725, 0.2734070
1250.207, 1.140045
1250.689, 2.017532
1251.172, 2.350479
1251.654, 2.250107
1252.136, 1.687744
1252.618, 1.235840
1253.100, 1.055283
1253.582, 1.086365
1254.064, 1.310532
1254.546, 1.552216
1255.028, 1.157486
1255.510, 0.4607540
1255.993, 3.2715000E-02
1256.475, 0.1505280
1256.957, 0.1389160
1257.439, 6.1035000E-02
1257.921, 0.5941930
1258.403, 1.504791
1258.885, 2.032928
1259.367, 1.703262
1259.850, 1.399582
1260.332, 1.644028
1260.814, 1.880081
1261.296, 1.797516
1261.778, 1.587860
1262.260, 1.269882
1262.742, 1.018753
1263.224, 1.122528
1263.707, 1.533310
1264.189, 1.739899
1264.671, 1.916412
1265.153, 1.891357
1265.635, 1.531158
1266.117, 1.315445
1266.599, 1.341873
1267.081, 1.067017
1267.563, 0.8565060
1268.046, 0.7231290
1268.528, 1.079498
1269.010, 1.562210
1269.492, 1.053421
1269.974, 0.1114650
1270.456, 0.4239810
1270.938, 1.604919
1271.420, 2.176590
1271.902, 1.858383
1272.385, 1.323288
1272.867, 0.8565670
1273.349, 0.6504820
1273.831, 1.055374
1274.313, 1.476563
1274.795, 1.652985
1275.277, 1.614410
1275.759, 1.299301
1276.242, 0.8790890
1276.724, 0.4935910
1277.206, 0.1283110
1277.688, 0.2321930
1278.170, 0.8669890
1278.652, 0.9911040
1279.134, 0.3707430
1279.616, 0.1233060
1280.099, 0.4284970
1280.581, 0.7086940
1281.063, 0.7382970
1281.545, 0.6304020
1282.027, 0.3342290
1282.509, 3.0838000E-02
1282.991, 5.4469998E-03
1283.473, 8.3801001E-02
1283.955, 0.0000000E+00
##END=



