##NAMES=Clinohumite
##RRUFFID=R060559
##IDEAL CHEMISTRY=Mg_9_(SiO_4_)_4_F_2_
##LOCALITY=Tadjikistan
##OWNER=RRUFF
##SOURCE=Gemological Institute of America
##DESCRIPTION=Yellowish-brown fragment
##STATUS=The identification of this mineral has been confirmed by X-ray diffraction and chemical analysis
##URL=rruff.info/R060559
##MEASURED CHEMISTRY=(Mg_8.51_Ti_0.24_[box]_0.24_Fe_0.01_)_Σ=9_(Si_1.00_O_4_)_4_(F_1.30_(OH)_0.70_)_Σ=2_ ; OH by difference and stoichiometry
93.97052, 0.0000000E+00
94.45264, 3.969360
94.93475, 3.282593
95.41687, 1.973389
95.89898, 1.991638
96.38110, 3.376343
96.86321, 5.721130
97.34533, 7.367554
97.82745, 6.017700
98.30956, 4.473572
98.79168, 3.422363
99.27380, 3.943176
99.75591, 4.312500
100.2380, 4.049744
100.7201, 3.467285
101.2023, 3.351196
101.6844, 3.877441
102.1665, 3.670044
102.6486, 2.780029
103.1307, 1.819397
103.6128, 0.9390870
104.0950, 0.1582640
104.5771, 0.2154540
105.0592, 0.3905030
105.5413, 1.337708
106.0234, 2.931152
106.5055, 5.807861
106.9877, 9.485962
107.4698, 13.42255
107.9519, 19.03186
108.4340, 23.60675
108.9161, 26.31268
109.3982, 26.96753
109.8804, 25.56720
110.3625, 21.67310
110.8446, 14.43219
111.3267, 9.460876
111.8088, 7.742004
112.2909, 7.051331
112.7731, 6.933472
113.2552, 7.254944
113.7373, 7.538269
114.2194, 7.346069
114.7015, 5.719360
115.1836, 5.317627
115.6658, 6.924011
116.1479, 9.437195
116.6300, 11.90985
117.1121, 13.79974
117.5942, 14.88953
118.0763, 14.18573
118.5584, 10.63995
119.0406, 8.240845
119.5227, 8.632141
120.0048, 11.41791
120.4869, 15.17444
120.9690, 19.57520
121.4511, 24.34839
121.9333, 28.41156
122.4154, 31.12939
122.8975, 33.64185
123.3796, 35.61090
123.8617, 37.20776
124.3438, 38.20770
124.8260, 39.12878
125.3081, 39.41962
125.7902, 38.02496
126.2723, 34.14001
126.7544, 29.07281
127.2365, 25.77869
127.7187, 24.96246
128.2008, 24.83813
128.6829, 25.00348
129.1650, 25.38531
129.6471, 25.97156
130.1292, 26.85785
130.6114, 27.97729
131.0935, 28.24988
131.5756, 26.64636
132.0577, 25.12186
132.5398, 24.41852
133.0219, 24.24963
133.5041, 23.80438
133.9862, 22.29233
134.4683, 19.42746
134.9504, 17.56836
135.4325, 17.09760
135.9146, 17.03708
136.3968, 17.04364
136.8789, 17.00043
137.3610, 16.66037
137.8431, 15.57916
138.3252, 13.45328
138.8073, 12.35245
139.2895, 13.08701
139.7716, 14.63776
140.2537, 15.93304
140.7358, 16.80081
141.2179, 17.12787
141.7000, 16.66855
142.1821, 15.53256
142.6643, 14.03494
143.1464, 12.15378
143.6285, 9.970673
144.1106, 7.732300
144.5927, 5.305328
145.0748, 3.071808
145.5570, 1.316162
146.0391, 2.5878999E-02
146.5212, 1.051788
147.0033, 2.034729
147.4854, 2.893738
147.9675, 3.816620
148.4497, 5.179688
148.9318, 6.413788
149.4139, 7.061584
149.8960, 7.054932
150.3781, 6.881531
150.8602, 7.328308
151.3424, 8.872131
151.8245, 7.363342
152.3066, 5.219940
152.7887, 2.962128
153.2708, 1.059509
153.7529, 0.3426510
154.2351, 1.522644
154.7172, 3.162292
155.1993, 5.940552
155.6814, 8.437103
156.1635, 10.69272
156.6456, 12.60941
157.1278, 14.06567
157.6099, 15.00156
158.0920, 15.49048
158.5741, 15.78662
159.0562, 15.48178
159.5383, 15.47409
160.0205, 16.00809
160.5026, 16.98843
160.9847, 18.29855
161.4668, 20.01105
161.9489, 21.90042
162.4310, 23.10385
162.9131, 23.19440
163.3953, 23.14273
163.8774, 23.47766
164.3595, 24.18094
164.8416, 25.03220
165.3237, 25.96475
165.8058, 26.94647
166.2880, 27.90158
166.7701, 28.76691
167.2522, 29.62793
167.7343, 30.57065
168.2164, 31.58432
168.6985, 32.64862
169.1807, 33.81586
169.6628, 35.03973
170.1449, 36.28415
170.6270, 37.61597
171.1091, 38.92300
171.5912, 39.97665
172.0734, 40.88474
172.5555, 41.23486
173.0376, 40.93365
173.5197, 40.14011
174.0018, 38.92056
174.4839, 37.08765
174.9661, 34.87277
175.4482, 33.79510
175.9303, 34.92752
176.4124, 36.04282
176.8945, 36.59567
177.3766, 36.73483
177.8588, 36.74414
178.3409, 36.79126
178.8230, 36.87643
179.3051, 37.03973
179.7872, 37.38455
180.2693, 37.67380
180.7515, 37.82455
181.2336, 37.86172
181.7157, 37.85165
182.1978, 37.84128
182.6799, 37.82843
183.1620, 37.85486
183.6441, 38.05664
184.1263, 38.14441
184.6084, 37.76501
185.0905, 37.03397
185.5726, 36.52612
186.0547, 36.82104
186.5368, 38.07153
187.0190, 38.98755
187.5011, 39.82419
187.9832, 40.17953
188.4653, 39.61142
188.9474, 38.09595
189.4296, 36.17923
189.9117, 34.32553
190.3938, 32.54852
190.8759, 30.76605
191.3580, 28.85342
191.8401, 26.98270
192.3223, 25.27686
192.8044, 23.72781
193.2865, 22.52237
193.7686, 22.02847
194.2507, 22.06339
194.7328, 22.18500
195.2150, 22.27939
195.6971, 22.35464
196.1792, 22.34711
196.6613, 22.09082
197.1434, 22.19455
197.6255, 23.33762
198.1077, 25.18604
198.5898, 26.89304
199.0719, 27.88550
199.5540, 28.34143
200.0361, 29.02618
200.5182, 29.97519
201.0004, 31.15610
201.4825, 32.34970
201.9646, 33.67731
202.4467, 35.44971
202.9288, 38.23654
203.4109, 41.92792
203.8930, 44.53513
204.3752, 45.19431
204.8573, 45.57956
205.3394, 46.37924
205.8215, 47.43555
206.3036, 48.25513
206.7857, 48.38419
207.2679, 47.81332
207.7500, 47.55261
208.2321, 47.66486
208.7142, 48.03891
209.1963, 48.41949
209.6784, 49.12589
210.1606, 50.60718
210.6427, 53.39529
211.1248, 57.68484
211.6069, 61.08679
212.0890, 63.78864
212.5711, 65.50269
213.0533, 66.17471
213.5354, 65.72998
214.0175, 64.07874
214.4996, 61.10690
214.9817, 56.70557
215.4638, 51.44501
215.9460, 44.30249
216.4281, 37.37762
216.9102, 31.77115
217.3923, 27.42447
217.8744, 23.44427
218.3565, 18.95709
218.8387, 13.82315
219.3208, 10.01450
219.8029, 8.217712
220.2850, 6.991425
220.7671, 5.397583
221.2492, 3.441406
221.7314, 1.795410
222.2135, 1.112396
222.6956, 1.480774
223.1777, 1.621704
223.6598, 1.207031
224.1419, 0.8064580
224.6240, 0.8903810
225.1062, 1.469910
225.5883, 2.161530
226.0704, 2.594116
226.5525, 2.849609
227.0346, 3.499451
227.5167, 4.606110
227.9989, 6.106537
228.4810, 8.060059
228.9631, 10.47827
229.4452, 12.93845
229.9273, 15.10779
230.4094, 17.06506
230.8916, 19.05054
231.3737, 21.22260
231.8558, 23.35898
232.3379, 25.19250
232.8200, 26.69739
233.3021, 28.06067
233.7843, 29.24927
234.2664, 30.41260
234.7485, 31.80237
235.2306, 33.56799
235.7127, 35.51053
236.1948, 37.41568
236.6770, 39.31979
237.1591, 41.08206
237.6412, 42.71234
238.1233, 44.14490
238.6054, 45.24832
239.0875, 45.89990
239.5697, 46.32404
240.0518, 47.01636
240.5339, 48.26196
241.0160, 48.84518
241.4981, 47.79266
241.9802, 46.09320
242.4624, 44.62659
242.9445, 43.70419
243.4266, 43.09518
243.9087, 42.43927
244.3908, 41.75409
244.8729, 40.97763
245.3550, 39.76666
245.8372, 38.62308
246.3193, 37.99722
246.8014, 38.04456
247.2835, 38.55789
247.7656, 39.14731
248.2477, 39.62030
248.7299, 40.67770
249.2120, 42.76434
249.6941, 45.20062
250.1762, 47.51193
250.6583, 49.55365
251.1404, 51.42398
251.6226, 53.24277
252.1047, 54.78415
252.5868, 56.81409
253.0689, 59.81497
253.5510, 62.97849
254.0331, 65.71875
254.5153, 67.89514
254.9974, 69.83276
255.4795, 72.09912
255.9616, 75.08008
256.4437, 77.52197
256.9258, 79.36230
257.4080, 80.80402
257.8901, 81.96585
258.3722, 82.87238
258.8543, 83.51031
259.3364, 83.83423
259.8185, 83.70926
260.3007, 83.59265
260.7828, 83.64865
261.2649, 83.58948
261.7470, 83.32245
262.2291, 82.79095
262.7112, 81.90448
263.1934, 80.54590
263.6755, 78.64960
264.1576, 76.44327
264.6397, 74.14441
265.1218, 71.44025
265.6039, 67.90866
266.0861, 63.71063
266.5682, 59.51285
267.0503, 56.00067
267.5324, 53.33807
268.0145, 50.37247
268.4966, 46.81573
268.9788, 43.28220
269.4609, 40.18790
269.9430, 37.43835
270.4251, 34.59146
270.9072, 31.23120
271.3893, 27.34564
271.8715, 23.95709
272.3536, 20.96402
272.8357, 18.44537
273.3178, 16.65247
273.7999, 15.39853
274.2820, 14.18863
274.7642, 12.64294
275.2463, 10.83164
275.7284, 9.707550
276.2105, 9.636383
276.6926, 9.669281
277.1747, 9.330811
277.6568, 8.847168
278.1389, 8.822937
278.6211, 9.671814
279.1032, 11.11639
279.5853, 11.90027
280.0674, 11.55560
280.5495, 11.29742
281.0316, 11.50174
281.5138, 12.00296
281.9959, 12.48856
282.4780, 12.81113
282.9601, 13.05039
283.4422, 13.36664
283.9243, 13.55832
284.4065, 14.10413
284.8886, 15.08942
285.3707, 16.47946
285.8528, 18.50235
286.3349, 21.35385
286.8170, 24.14407
287.2992, 25.14392
287.7813, 23.69489
288.2634, 22.75891
288.7455, 23.00223
289.2276, 23.97882
289.7097, 25.18430
290.1919, 26.50757
290.6740, 28.00586
291.1561, 29.85898
291.6382, 32.13754
292.1203, 34.14346
292.6024, 35.57297
293.0846, 36.83133
293.5667, 38.47177
294.0488, 40.55435
294.5309, 42.36456
295.0130, 43.18179
295.4951, 42.95676
295.9773, 42.70432
296.4594, 42.12503
296.9415, 41.76749
297.4236, 42.36655
297.9057, 43.82788
298.3878, 44.95877
298.8700, 44.77750
299.3521, 43.49475
299.8342, 42.76651
300.3163, 42.67126
300.7984, 43.04279
301.2805, 43.91342
301.7627, 45.21576
302.2448, 46.69470
302.7269, 48.32040
303.2090, 49.96140
303.6911, 51.24908
304.1732, 52.02917
304.6554, 52.76520
305.1375, 53.98334
305.6196, 55.34280
306.1017, 55.97424
306.5838, 55.56378
307.0659, 54.24588
307.5481, 52.10571
308.0302, 48.99829
308.5123, 45.90692
308.9944, 43.28030
309.4765, 40.85312
309.9586, 38.13504
310.4408, 34.95901
310.9229, 31.70068
311.4050, 28.79248
311.8871, 26.17224
312.3692, 24.15686
312.8513, 23.28455
313.3335, 22.83173
313.8156, 21.76392
314.2977, 19.90488
314.7798, 18.20395
315.2619, 17.50537
315.7440, 17.81259
316.2262, 18.59033
316.7083, 20.34286
317.1904, 22.16461
317.6725, 23.10535
318.1546, 23.21790
318.6367, 23.56699
319.1188, 25.00488
319.6010, 27.25748
320.0831, 28.91681
320.5652, 29.73221
321.0473, 30.23718
321.5294, 30.70361
322.0115, 31.09952
322.4937, 31.35779
322.9758, 31.53189
323.4579, 31.43643
323.9400, 30.55020
324.4221, 28.51431
324.9042, 26.61768
325.3864, 25.48694
325.8685, 24.77927
326.3506, 23.87509
326.8327, 22.60199
327.3148, 20.99124
327.7969, 18.92484
328.2791, 16.26932
328.7612, 14.00208
329.2433, 12.43359
329.7254, 11.29614
330.2075, 10.43927
330.6896, 9.837433
331.1718, 9.075439
331.6539, 7.639404
332.1360, 5.464935
332.6181, 3.584473
333.1002, 1.851074
333.5823, 0.5479430
334.0645, 9.9365003E-02
334.5466, 0.4078670
335.0287, 0.7448120
335.5108, 0.5854490
335.9929, 2.3529001E-02
336.4750, 0.4695430
336.9572, 0.3086240
337.4393, 0.4604800
337.9214, 1.731750
338.4035, 3.653229
338.8856, 4.986176
339.3677, 5.069824
339.8499, 4.357727
340.3320, 4.151489
340.8141, 4.911469
341.2962, 5.311584
341.7783, 4.928467
342.2604, 4.153229
342.7426, 3.402771
343.2247, 2.776459
343.7068, 2.262848
344.1889, 1.932404
344.6710, 2.008850
345.1531, 1.612457
345.6353, 0.1851810
346.1174, 1.366028
346.5995, 2.237274
347.0816, 2.419678
347.5637, 2.566864
348.0458, 3.337585
348.5280, 4.780487
349.0101, 5.440033
349.4922, 4.949432
349.9743, 4.283203
350.4564, 3.470490
350.9385, 2.715118
351.4207, 2.579712
351.9028, 3.505066
352.3849, 5.159851
352.8670, 6.038727
353.3491, 5.179932
353.8312, 4.746094
354.3134, 5.225769
354.7955, 6.182648
355.2776, 7.249023
355.7597, 8.275879
356.2418, 9.047119
356.7239, 9.156342
357.2061, 8.111603
357.6882, 7.381012
358.1703, 7.082397
358.6524, 6.972534
359.1345, 6.886536
359.6166, 6.811249
360.0987, 6.851807
360.5808, 7.134369
361.0630, 7.698792
361.5451, 8.101013
362.0272, 7.977692
362.5093, 8.074860
362.9914, 8.870819
363.4735, 10.05594
363.9557, 11.00540
364.4378, 11.32181
364.9199, 11.17429
365.4020, 11.26505
365.8841, 11.48090
366.3662, 12.15250
366.8484, 13.89670
367.3305, 15.79810
367.8126, 16.82947
368.2947, 16.70380
368.7768, 16.14886
369.2589, 16.35098
369.7411, 17.71045
370.2232, 18.74036
370.7053, 19.07553
371.1874, 19.35577
371.6695, 19.88339
372.1516, 20.67715
372.6338, 21.62299
373.1159, 22.66461
373.5980, 23.79346
374.0801, 24.79282
374.5622, 25.63812
375.0443, 26.36322
375.5265, 26.90167
376.0086, 27.35318
376.4907, 27.88760
376.9728, 28.61844
377.4549, 29.40656
377.9370, 29.90283
378.4192, 29.97208
378.9013, 30.13403
379.3834, 31.30292
379.8655, 32.15848
380.3476, 31.35718
380.8297, 28.65640
381.3119, 25.55811
381.7940, 23.80615
382.2761, 23.35629
382.7582, 22.03989
383.2403, 18.77405
383.7224, 15.54614
384.2046, 13.76904
384.6867, 13.17075
385.1688, 12.66806
385.6509, 11.62170
386.1330, 10.29254
386.6151, 9.277252
387.0973, 8.635010
387.5794, 8.106171
388.0615, 7.655701
388.5436, 7.188629
389.0257, 6.478149
389.5078, 5.192963
389.9900, 4.179810
390.4721, 4.595215
390.9542, 6.198730
391.4363, 6.995117
391.9184, 5.918427
392.4005, 4.265808
392.8827, 4.002136
393.3648, 5.238892
393.8469, 6.147614
394.3290, 5.665497
394.8111, 4.532806
395.2932, 3.996582
395.7754, 4.249847
396.2575, 4.453033
396.7396, 3.826385
397.2217, 2.493469
397.7038, 1.511383
398.1859, 0.9200740
398.6681, 0.6054080
399.1501, 0.7431640
399.6323, 1.209564
400.1144, 1.459991
400.5965, 1.170654
401.0786, 0.5418400
401.5607, 0.1773380
402.0428, 0.2256770
402.5250, 0.1949770
403.0071, 5.3893998E-02
403.4892, 0.3441470
403.9713, 0.5472720
404.4534, 0.6360780
404.9355, 0.6486820
405.4177, 0.5989690
405.8998, 0.4239200
406.3819, 0.5332340
406.8640, 1.446014
407.3461, 2.114166
407.8282, 1.892883
408.3104, 0.9923100
408.7925, 6.8049999E-03
409.2746, 0.7027890
409.7567, 1.197571
410.2388, 1.764496
410.7209, 2.484833
411.2031, 3.176697
411.6852, 3.836700
412.1673, 4.456329
412.6494, 5.024902
413.1315, 5.541473
413.6136, 6.023224
414.0958, 6.530029
414.5779, 7.141510
415.0600, 7.458038
415.5421, 7.005798
416.0242, 6.696716
416.5063, 7.019867
416.9885, 7.784027
417.4706, 8.456116
417.9527, 8.624817
418.4348, 8.520844
418.9169, 9.004944
419.3990, 10.40469
419.8812, 11.66632
420.3633, 12.30005
420.8454, 12.74176
421.3275, 13.42697
421.8096, 14.46640
422.2917, 15.50928
422.7739, 16.07535
423.2560, 16.19977
423.7381, 16.67288
424.2202, 17.72079
424.7023, 19.00217
425.1844, 20.31430
425.6666, 21.63458
426.1487, 22.88940
426.6308, 23.95599
427.1129, 24.98193
427.5950, 26.10172
428.0771, 27.30701
428.5593, 28.87320
429.0414, 31.07318
429.5235, 33.68585
430.0056, 36.19812
430.4877, 38.70175
430.9698, 40.90338
431.4520, 42.64911
431.9341, 43.98682
432.4162, 44.94748
432.8983, 45.50415
433.3804, 45.92294
433.8625, 46.59985
434.3447, 47.61728
434.8268, 47.98895
435.3089, 47.41135
435.7910, 46.40823
436.2731, 45.28555
436.7552, 44.03674
437.2374, 42.47238
437.7195, 40.41998
438.2016, 38.10086
438.6837, 36.40170
439.1658, 35.72595
439.6479, 35.16815
440.1301, 34.74088
440.6122, 34.36548
441.0943, 33.91721
441.5764, 33.40765
442.0585, 33.04022
442.5406, 33.10306
443.0227, 33.69348
443.5049, 33.94763
443.9870, 33.43839
444.4691, 33.09116
444.9512, 33.16788
445.4333, 33.51074
445.9154, 34.02142
446.3976, 34.72635
446.8797, 35.42892
447.3618, 35.42026
447.8439, 34.30450
448.3260, 33.33530
448.8081, 33.01843
449.2903, 32.83463
449.7724, 32.49094
450.2545, 31.87247
450.7366, 30.92386
451.2187, 29.42978
451.7008, 27.56522
452.1830, 26.21872
452.6651, 25.58130
453.1472, 25.07343
453.6293, 24.07529
454.1114, 23.10669
454.5935, 23.04160
455.0757, 24.46375
455.5578, 25.90298
456.0399, 26.05383
456.5220, 25.10559
457.0041, 24.07156
457.4862, 23.23013
457.9684, 22.61588
458.4505, 22.24612
458.9326, 22.07278
459.4147, 21.95999
459.8968, 22.17523
460.3789, 22.30573
460.8611, 21.59665
461.3432, 20.21957
461.8253, 19.49979
462.3074, 20.47995
462.7895, 22.59000
463.2716, 23.36481
463.7538, 21.89780
464.2359, 20.37698
464.7180, 18.73941
465.2001, 17.26703
465.6822, 16.41217
466.1643, 16.22241
466.6465, 16.21591
467.1286, 15.79227
467.6107, 14.83456
468.0928, 14.37463
468.5749, 14.94989
469.0570, 15.44736
469.5392, 15.50732
470.0213, 15.31021
470.5034, 15.10861
470.9855, 15.00519
471.4676, 15.03952
471.9497, 15.38254
472.4319, 16.18240
472.9140, 16.63895
473.3961, 16.31253
473.8782, 15.88257
474.3603, 15.72897
474.8424, 15.82452
475.3246, 15.95105
475.8067, 16.09656
476.2888, 16.14832
476.7709, 15.69977
477.2530, 14.62256
477.7351, 13.87817
478.2173, 14.00070
478.6994, 14.70728
479.1815, 15.60562
479.6636, 16.81583
480.1457, 17.71570
480.6278, 17.78815
481.1100, 17.38858
481.5920, 17.18747
482.0742, 17.30927
482.5563, 17.41550
483.0384, 17.13614
483.5205, 16.48981
484.0026, 16.23087
484.4847, 16.64658
484.9669, 17.10956
485.4490, 17.47620
485.9311, 17.69281
486.4132, 17.68619
486.8953, 17.42950
487.3774, 16.95056
487.8596, 16.28552
488.3417, 15.35391
488.8238, 14.43372
489.3059, 13.39651
489.7880, 12.49298
490.2701, 12.02597
490.7523, 11.79077
491.2344, 11.30438
491.7165, 10.24225
492.1986, 8.845642
492.6807, 7.762787
493.1628, 7.040131
493.6450, 6.514191
494.1271, 6.388580
494.6092, 6.284912
495.0913, 5.966431
495.5734, 5.417633
496.0555, 4.736115
496.5377, 3.819092
497.0198, 2.838287
497.5019, 2.358032
497.9840, 2.499420
498.4661, 2.608124
498.9482, 2.225067
499.4304, 1.615875
499.9125, 1.341949
500.3946, 1.638184
500.8767, 1.760223
501.3588, 1.029388
501.8409, 4.3609999E-02
502.3231, 0.4198910
502.8052, 0.1233520
503.2873, 0.7056880
503.7694, 0.4112240
504.2515, 0.8036800
504.7336, 1.416412
505.2158, 0.7835390
505.6979, 0.3373410
506.1800, 0.8923340
506.6621, 1.870605
507.1442, 2.345062
507.6263, 1.991608
508.1085, 1.224548
508.5906, 0.6401060
509.0727, 0.2156070
509.5548, 6.0120001E-02
510.0369, 0.2479250
510.5190, 0.6354370
511.0012, 1.365570
511.4833, 2.233765
511.9654, 2.917206
512.4475, 3.282990
512.9296, 3.296875
513.4117, 2.687622
513.8939, 1.296448
514.3760, 0.5098570
514.8581, 0.9820560
515.3402, 1.815826
515.8223, 2.262421
516.3044, 2.366577
516.7866, 2.488983
517.2687, 2.983398
517.7508, 3.462006
518.2329, 3.311218
518.7150, 2.573364
519.1971, 1.937378
519.6793, 1.795868
520.1614, 1.867706
520.6435, 1.442200
521.1256, 0.2521670
521.6077, 0.5595400
522.0898, 0.3484500
522.5720, 4.6999999E-03
523.0541, 0.2924800
523.5362, 1.238434
524.0183, 2.436096
524.5004, 3.656097
524.9825, 4.805481
525.4647, 5.388733
525.9468, 4.709320
526.4289, 4.451080
526.9110, 5.107819
527.3931, 5.979248
527.8752, 6.427094
528.3574, 6.429718
528.8395, 6.484100
529.3216, 7.093536
529.8037, 8.144470
530.2858, 8.890228
530.7679, 9.108276
531.2501, 9.535004
531.7322, 10.85391
532.2143, 12.36707
532.6964, 13.25687
533.1785, 13.30020
533.6606, 13.43326
534.1428, 14.46875
534.6249, 15.99228
535.1070, 17.01550
535.5891, 17.36780
536.0712, 17.85840
536.5533, 19.26129
537.0355, 21.33734
537.5176, 22.58084
537.9997, 22.23495
538.4818, 22.06613
538.9639, 22.59991
539.4460, 23.57306
539.9282, 24.74591
540.4103, 26.02695
540.8924, 27.30411
541.3745, 28.45248
541.8566, 29.46930
542.3387, 30.45688
542.8209, 31.39822
543.3029, 32.32104
543.7850, 33.31982
544.2672, 34.25766
544.7493, 34.78580
545.2314, 34.85864
545.7135, 35.21127
546.1956, 36.92163
546.6777, 39.84329
547.1599, 42.09833
547.6420, 43.32446
548.1241, 44.43738
548.6062, 46.09357
549.0883, 47.99225
549.5704, 49.73926
550.0526, 51.48685
550.5347, 52.59634
551.0168, 52.56747
551.4989, 51.63181
551.9810, 50.26346
552.4631, 48.56119
552.9453, 46.37610
553.4274, 43.48056
553.9095, 39.85812
554.3916, 36.46802
554.8737, 33.35431
555.3558, 30.38098
555.8380, 27.40460
556.3201, 24.57751
556.8022, 22.05167
557.2843, 19.88025
557.7664, 18.19321
558.2485, 17.21402
558.7307, 16.97055
559.2128, 16.64130
559.6949, 15.80206
560.1770, 15.45923
560.6591, 16.45029
561.1412, 17.90158
561.6234, 18.61594
562.1055, 18.17184
562.5876, 17.67740
563.0697, 18.26166
563.5518, 19.62427
564.0339, 20.71634
564.5161, 21.36417
564.9982, 21.93668
565.4803, 22.66809
565.9624, 23.61041
566.4445, 24.80243
566.9266, 26.50034
567.4088, 28.03873
567.8909, 29.11444
568.3730, 29.90671
568.8551, 30.53500
569.3372, 31.06357
569.8193, 31.74387
570.3015, 32.84323
570.7836, 34.35837
571.2657, 35.74704
571.7478, 36.79288
572.2299, 38.08020
572.7120, 39.54105
573.1942, 41.25253
573.6763, 43.33224
574.1584, 45.82193
574.6405, 48.65530
575.1226, 51.92358
575.6047, 55.48950
576.0869, 58.77734
576.5690, 61.73773
577.0511, 64.80048
577.5332, 68.20432
578.0153, 71.71375
578.4974, 74.92343
578.9796, 77.73380
579.4617, 80.73026
579.9438, 84.23969
580.4259, 87.98383
580.9080, 91.75049
581.3901, 95.47934
581.8723, 99.04611
582.3544, 102.3178
582.8365, 105.4740
583.3186, 109.1473
583.8007, 113.8727
584.2828, 118.3402
584.7650, 122.6668
585.2471, 126.6508
585.7292, 130.1479
586.2113, 133.1873
586.6934, 135.8755
587.1755, 138.2466
587.6577, 140.3706
588.1398, 142.4139
588.6219, 144.4127
589.1040, 146.0622
589.5861, 147.0475
590.0682, 147.9198
590.5504, 149.6081
591.0325, 151.8531
591.5146, 152.8601
591.9967, 151.7090
592.4788, 149.4168
592.9609, 146.4219
593.4431, 142.9810
593.9252, 139.7220
594.4073, 136.8705
594.8894, 134.4174
595.3715, 132.3843
595.8536, 130.8947
596.3358, 129.2504
596.8179, 127.1922
597.3000, 125.2931
597.7821, 123.2734
598.2642, 121.7089
598.7463, 121.4651
599.2285, 122.8186
599.7106, 125.0482
600.1927, 127.3600
600.6748, 129.7644
601.1569, 132.4152
601.6390, 135.3470
602.1212, 138.4411
602.6033, 141.4609
603.0854, 144.6543
603.5675, 148.4297
604.0496, 153.0005
604.5317, 157.6999
605.0139, 162.3956
605.4960, 166.9491
605.9781, 171.3091
606.4602, 175.3953
606.9423, 178.7218
607.4244, 180.8803
607.9066, 182.0340
608.3887, 182.9477
608.8708, 184.8194
609.3529, 184.5990
609.8350, 181.5681
610.3171, 176.9961
610.7993, 171.6365
611.2814, 165.5625
611.7635, 158.4960
612.2456, 150.0464
612.7277, 140.8401
613.2098, 132.1085
613.6920, 123.8328
614.1741, 115.5495
614.6562, 106.9669
615.1383, 98.53137
615.6204, 90.46243
616.1025, 82.78082
616.5847, 75.92468
617.0668, 70.12802
617.5489, 65.02887
618.0310, 60.47882
618.5131, 56.45505
618.9952, 52.98972
619.4774, 50.07227
619.9595, 47.42697
620.4416, 44.78687
620.9237, 42.16193
621.4058, 39.22369
621.8879, 35.03882
622.3701, 31.73627
622.8522, 30.36520
623.3343, 29.72687
623.8164, 28.54788
624.2985, 26.62939
624.7806, 24.80011
625.2628, 23.99872
625.7448, 23.74576
626.2269, 22.61789
626.7090, 20.50388
627.1912, 18.70563
627.6733, 17.93594
628.1554, 17.67581
628.6375, 16.83948
629.1196, 15.20932
629.6017, 14.11478
630.0839, 14.27563
630.5660, 14.57025
631.0481, 14.15424
631.5302, 13.21524
632.0123, 12.28955
632.4944, 11.63888
632.9766, 11.28308
633.4587, 11.38034
633.9408, 12.12634
634.4229, 12.24243
634.9050, 11.20224
635.3871, 10.19180
635.8693, 9.731842
636.3514, 9.635040
636.8335, 9.686951
637.3156, 9.929108
637.7977, 10.02545
638.2798, 9.521698
638.7620, 8.691162
639.2441, 8.163086
639.7262, 8.036072
640.2083, 7.925446
640.6904, 7.511780
641.1725, 6.915497
641.6547, 6.633423
642.1368, 7.057709
642.6189, 7.276489
643.1010, 7.160309
643.5831, 6.967896
644.0652, 6.965332
644.5474, 7.055328
645.0295, 6.801727
645.5116, 5.862671
645.9937, 4.837006
646.4758, 4.883453
646.9579, 5.972717
647.4401, 6.746033
647.9222, 7.064148
648.4043, 7.031067
648.8864, 6.391083
649.3685, 5.414825
649.8506, 5.046814
650.3328, 5.819794
650.8149, 6.506958
651.2970, 6.495941
651.7791, 6.311005
652.2612, 6.451050
652.7433, 6.942474
653.2255, 7.668335
653.7076, 8.613617
654.1897, 9.628479
654.6718, 10.03915
655.1539, 9.374390
655.6360, 9.131439
656.1182, 10.21472
656.6003, 11.28116
657.0824, 11.29199
657.5645, 10.59985
658.0466, 10.46393
658.5287, 11.67819
659.0109, 13.22800
659.4930, 14.10498
659.9751, 14.34354
660.4572, 14.34888
660.9393, 14.31494
661.4214, 14.40005
661.9036, 14.67340
662.3857, 15.09857
662.8678, 15.65198
663.3499, 16.49664
663.8320, 17.25275
664.3141, 17.99927
664.7963, 18.72620
665.2784, 19.20267
665.7605, 19.43860
666.2426, 19.84433
666.7247, 20.90930
667.2068, 22.07092
667.6890, 22.04938
668.1711, 20.83755
668.6532, 19.83325
669.1353, 19.44852
669.6174, 19.33786
670.0995, 19.05273
670.5817, 18.65469
671.0638, 18.84909
671.5459, 20.30066
672.0280, 21.51669
672.5101, 22.15918
672.9922, 22.23901
673.4744, 21.53299
673.9565, 20.22702
674.4386, 19.13821
674.9207, 18.94873
675.4028, 19.33170
675.8849, 19.14035
676.3671, 18.17651
676.8492, 17.52704
677.3313, 17.56863
677.8134, 17.80469
678.2955, 17.96768
678.7776, 18.00983
679.2598, 17.72397
679.7419, 16.69305
680.2240, 15.79883
680.7061, 15.80151
681.1882, 16.18396
681.6703, 15.97406
682.1525, 15.09610
682.6346, 14.47952
683.1167, 14.98276
683.5988, 16.26208
684.0809, 16.56329
684.5630, 15.34048
685.0452, 14.33322
685.5273, 13.86105
686.0094, 13.58984
686.4915, 13.44617
686.9736, 13.35056
687.4557, 13.08688
687.9379, 12.40375
688.4200, 11.82715
688.9021, 12.06128
689.3842, 12.71872
689.8663, 12.83002
690.3484, 12.23129
690.8306, 11.49533
691.3127, 11.06204
691.7948, 10.87344
692.2769, 10.64563
692.7590, 10.46353
693.2411, 10.10220
693.7233, 9.641388
694.2054, 8.936707
694.6875, 7.534088
695.1696, 5.836121
695.6517, 4.886658
696.1339, 5.322113
696.6160, 6.095062
697.0981, 5.908905
697.5802, 5.076874
698.0623, 4.801361
698.5444, 5.294800
699.0266, 5.819641
699.5087, 5.887482
699.9908, 5.568298
700.4729, 5.113708
700.9550, 4.543488
701.4371, 3.785583
701.9193, 2.459625
702.4014, 1.294525
702.8835, 0.7207640
703.3656, 0.6575010
703.8477, 0.9553830
704.3298, 1.594299
704.8120, 2.183777
705.2941, 2.120880
705.7762, 1.544281
706.2583, 1.160126
706.7404, 1.062836
707.2225, 0.9981380
707.7046, 0.9120180
708.1867, 0.6973570
708.6688, 3.0499999E-04
709.1509, 1.528900
709.6331, 2.640594
710.1152, 3.015472
710.5973, 3.184601
711.0794, 3.511688
711.5615, 3.847656
712.0436, 3.791077
712.5258, 3.208221
713.0079, 2.638885
713.4900, 2.761017
713.9721, 3.448212
714.4542, 3.960419
714.9363, 4.222717
715.4185, 4.770020
715.9006, 6.151672
716.3827, 7.629120
716.8648, 7.696503
717.3469, 5.992401
717.8290, 5.226593
718.3112, 6.493195
718.7933, 7.823944
719.2754, 8.321838
719.7575, 8.232880
720.2396, 7.784027
720.7217, 7.134552
721.2039, 6.795685
721.6860, 7.550629
722.1681, 8.959534
722.6502, 9.088745
723.1323, 7.736023
723.6144, 6.799103
724.0966, 7.106384
724.5787, 7.717896
725.0608, 7.389648
725.5429, 6.144318
726.0250, 5.599487
726.5071, 6.569183
726.9893, 7.363220
727.4714, 7.388580
727.9535, 6.903473
728.4356, 6.224701
728.9177, 5.378296
729.3998, 4.175385
729.8820, 2.448608
730.3641, 0.3643800
730.8462, 1.797058
731.3283, 4.032623
731.8104, 6.023224
732.2925, 7.552673
732.7747, 9.194397
733.2568, 11.41376
733.7389, 14.15060
734.2210, 17.02414
734.7031, 19.95911
735.1852, 23.10791
735.6674, 26.69696
736.1495, 30.36923
736.6316, 33.59009
737.1137, 36.65964
737.5958, 40.45114
738.0779, 45.47412
738.5601, 51.18134
739.0422, 56.95490
739.5243, 62.74164
740.0064, 68.22940
740.4885, 73.36670
740.9706, 78.25272
741.4528, 82.93262
741.9349, 87.36392
742.4170, 91.46255
742.8991, 95.28940
743.3812, 98.67526
743.8633, 101.9015
744.3455, 104.3892
744.8276, 105.8728
745.3097, 106.4031
745.7918, 105.9062
746.2739, 104.4365
746.7560, 102.6155
747.2382, 101.1318
747.7203, 99.73834
748.2024, 97.55133
748.6845, 94.54510
749.1666, 91.70990
749.6487, 89.47382
750.1309, 87.30374
750.6130, 84.56619
751.0951, 81.23297
751.5772, 77.74985
752.0593, 73.98654
752.5414, 70.21677
753.0236, 66.54718
753.5057, 62.83588
753.9878, 58.93130
754.4699, 54.88696
754.9520, 50.87521
755.4341, 46.95898
755.9163, 43.15414
756.3984, 39.59949
756.8805, 36.19995
757.3626, 32.51593
757.8447, 28.44202
758.3268, 24.34775
758.8090, 20.42227
759.2911, 16.73138
759.7732, 13.46951
760.2553, 10.67694
760.7374, 8.301544
761.2195, 6.430725
761.7017, 4.951355
762.1838, 4.119598
762.6659, 3.549774
763.1480, 2.501190
763.6301, 0.7239690
764.1122, 0.7902830
764.5944, 1.238373
765.0765, 0.9796140
765.5586, 0.4911500
766.0407, 0.1824340
766.5228, 0.7933040
767.0049, 1.171906
767.4871, 1.893402
767.9692, 3.675537
768.4513, 6.562531
768.9334, 10.34491
769.4155, 15.62555
769.8976, 20.87756
770.3798, 25.06543
770.8619, 29.71097
771.3440, 35.98608
771.8261, 43.73285
772.3082, 51.97336
772.7903, 60.16098
773.2725, 69.02710
773.7546, 78.86212
774.2367, 89.68427
774.7188, 101.7613
775.2009, 115.1298
775.6830, 129.1699
776.1652, 143.4120
776.6473, 158.2618
777.1294, 174.5713
777.6115, 192.3722
778.0936, 212.0587
778.5757, 234.1282
779.0579, 257.2819
779.5400, 280.5793
780.0221, 304.4846
780.5042, 329.7856
780.9863, 357.1393
781.4684, 384.2558
781.9506, 411.5773
782.4327, 437.3299
782.9148, 461.0801
783.3969, 482.4903
783.8790, 501.2992
784.3611, 517.1884
784.8433, 529.2333
785.3254, 537.0942
785.8075, 540.2354
786.2896, 536.8227
786.7717, 526.8572
787.2538, 510.8755
787.7360, 488.4915
788.2181, 461.6130
788.7002, 431.5253
789.1823, 398.4113
789.6644, 364.9267
790.1465, 329.3882
790.6286, 295.7340
791.1107, 264.3148
791.5928, 234.8174
792.0750, 206.0872
792.5571, 179.2061
793.0392, 156.2748
793.5213, 138.2781
794.0034, 123.0489
794.4855, 108.7842
794.9677, 95.93707
795.4498, 85.64417
795.9319, 77.77448
796.4140, 71.36279
796.8961, 65.95636
797.3782, 62.04706
797.8604, 60.38336
798.3425, 61.01440
798.8246, 62.66144
799.3067, 65.19324
799.7888, 68.98480
800.2709, 74.34326
800.7531, 80.84967
801.2352, 88.22510
801.7173, 96.48450
802.1994, 105.6321
802.6815, 115.6607
803.1636, 126.5731
803.6458, 138.6854
804.1279, 151.3833
804.6100, 164.1096
805.0921, 176.6768
805.5742, 189.2203
806.0563, 201.7543
806.5385, 213.7455
807.0206, 224.3704
807.5027, 233.6566
807.9848, 241.6519
808.4669, 248.4540
808.9490, 253.6158
809.4312, 256.7472
809.9133, 258.3761
810.3954, 259.2886
810.8775, 259.5392
811.3596, 258.4694
811.8417, 254.9058
812.3239, 251.5474
812.8060, 248.9142
813.2881, 246.9728
813.7702, 245.5239
814.2523, 244.7018
814.7344, 245.0459
815.2166, 246.9219
815.6987, 249.8467
816.1808, 252.9478
816.6629, 256.7913
817.1450, 262.5839
817.6271, 270.4636
818.1093, 280.1754
818.5914, 291.6019
819.0735, 304.5852
819.5556, 318.8040
820.0377, 334.2324
820.5198, 351.1213
821.0020, 369.4660
821.4841, 389.4989
821.9662, 410.3676
822.4483, 433.6555
822.9304, 460.6752
823.4125, 491.4767
823.8947, 525.8040
824.3768, 563.8899
824.8589, 604.9583
825.3410, 648.6885
825.8231, 695.4498
826.3052, 746.2952
826.7874, 800.5439
827.2695, 855.9570
827.7516, 911.8090
828.2337, 967.1098
828.7158, 1021.290
829.1979, 1073.907
829.6801, 1124.891
830.1622, 1174.018
830.6443, 1213.890
831.1264, 1240.849
831.6085, 1255.909
832.0906, 1261.150
832.5728, 1257.100
833.0549, 1239.253
833.5370, 1202.107
834.0191, 1158.823
834.5012, 1110.147
834.9833, 1059.058
835.4655, 1005.454
835.9476, 950.8837
836.4297, 900.5933
836.9118, 854.3750
837.3939, 815.7722
837.8760, 787.7961
838.3582, 767.5903
838.8403, 751.7726
839.3224, 740.2992
839.8045, 734.9332
840.2866, 736.6093
840.7687, 743.8462
841.2509, 754.7961
841.7330, 769.3912
842.2151, 788.3554
842.6972, 811.9261
843.1793, 835.8920
843.6614, 858.5997
844.1436, 880.6951
844.6257, 903.4471
845.1078, 926.8032
845.5899, 945.6912
846.0720, 962.0626
846.5541, 970.6115
847.0363, 969.7406
847.5184, 962.1877
848.0005, 948.8945
848.4826, 930.4703
848.9647, 907.0974
849.4468, 877.8250
849.9290, 847.9525
850.4111, 819.3641
850.8932, 792.3292
851.3753, 765.9928
851.8574, 741.4151
852.3395, 720.6835
852.8217, 704.6124
853.3038, 692.7026
853.7859, 684.3152
854.2680, 680.1608
854.7501, 682.9598
855.2322, 692.7040
855.7144, 706.0395
856.1965, 721.8149
856.6786, 743.0444
857.1607, 772.0969
857.6428, 808.0342
858.1249, 848.2677
858.6071, 893.0958
859.0892, 941.4338
859.5713, 995.8290
860.0534, 1050.607
860.5355, 1107.991
861.0176, 1162.505
861.4998, 1210.386
861.9819, 1250.545
862.4640, 1275.357
862.9461, 1283.542
863.4282, 1273.833
863.9103, 1242.149
864.3925, 1193.765
864.8746, 1132.869
865.3567, 1062.256
865.8388, 988.5465
866.3209, 915.2695
866.8030, 843.0695
867.2852, 772.0456
867.7673, 703.2765
868.2494, 641.9756
868.7315, 588.6512
869.2136, 540.5599
869.6957, 496.5742
870.1779, 456.6213
870.6600, 421.0183
871.1421, 389.6945
871.6242, 362.4910
872.1063, 340.7854
872.5884, 320.7735
873.0705, 301.4877
873.5526, 284.2922
874.0347, 270.4568
874.5168, 259.3874
874.9990, 249.3823
875.4811, 240.3135
875.9632, 232.1352
876.4453, 225.4540
876.9274, 219.1241
877.4095, 212.6414
877.8917, 205.7842
878.3738, 198.1063
878.8559, 189.6345
879.3380, 181.1867
879.8201, 173.7491
880.3022, 166.2859
880.7844, 156.8318
881.2665, 145.8256
881.7486, 134.8574
882.2307, 124.1995
882.7128, 113.7784
883.1949, 103.5966
883.6771, 93.66571
884.1592, 83.83160
884.6413, 73.87299
885.1234, 65.68878
885.6055, 59.95325
886.0876, 54.27267
886.5698, 47.45212
887.0519, 40.62933
887.5340, 34.99371
888.0161, 30.51508
888.4982, 26.37637
888.9803, 23.06857
889.4625, 19.43048
889.9446, 14.48645
890.4267, 9.820251
890.9088, 6.812561
891.3909, 4.849701
891.8730, 2.582153
892.3552, 0.4235840
892.8373, 3.231323
893.3194, 4.958710
893.8015, 6.374054
894.2836, 8.282074
894.7657, 10.50845
895.2479, 12.92294
895.7300, 15.29993
896.2121, 16.65277
896.6942, 16.07266
897.1763, 14.58157
897.6584, 14.37912
898.1406, 15.29224
898.6227, 15.41675
899.1048, 14.49255
899.5869, 14.02036
900.0690, 14.91422
900.5511, 16.04126
901.0333, 15.64520
901.5154, 13.64288
901.9975, 12.00162
902.4796, 10.92197
902.9617, 9.823914
903.4438, 8.748688
903.9260, 7.467346
904.4081, 5.594910
904.8902, 3.423950
905.3723, 1.815857
905.8544, 1.258545
906.3365, 0.1244200
906.8187, 2.246124
907.3008, 5.021606
907.7829, 7.835052
908.2650, 10.65948
908.7471, 13.46091
909.2292, 16.26544
909.7114, 19.26443
910.1935, 22.46317
910.6756, 26.04706
911.1577, 30.60147
911.6398, 35.52924
912.1219, 39.69547
912.6041, 43.06500
913.0862, 46.37738
913.5683, 49.98309
914.0504, 53.02927
914.5325, 54.25192
915.0146, 53.89926
915.4968, 53.47098
915.9789, 52.98953
916.4610, 51.63690
916.9431, 49.03726
917.4252, 46.23566
917.9073, 44.08850
918.3895, 42.39221
918.8716, 40.33420
919.3537, 37.43640
919.8358, 35.35056
920.3179, 34.55151
920.8000, 33.87650
921.2822, 32.49362
921.7643, 31.24518
922.2464, 31.21518
922.7285, 32.36157
923.2106, 33.42053
923.6927, 33.99173
924.1749, 34.75797
924.6570, 35.68784
925.1391, 37.08295
925.6212, 39.08862
926.1033, 41.76712
926.5854, 45.22733
927.0676, 49.50900
927.5497, 54.36038
928.0318, 59.66611
928.5139, 65.40726
928.9960, 71.51181
929.4781, 78.11844
929.9603, 85.66907
930.4424, 94.13654
930.9245, 102.9624
931.4066, 111.8616
931.8887, 120.5014
932.3708, 129.1819
932.8530, 137.1140
933.3351, 141.2512
933.8172, 141.4141
934.2993, 137.4261
934.7814, 129.1066
935.2635, 118.1572
935.7457, 106.0734
936.2278, 93.06671
936.7099, 80.48456
937.1920, 68.11478
937.6741, 56.76242
938.1563, 46.16595
938.6384, 37.41022
939.1205, 31.39444
939.6026, 27.18073
940.0847, 23.07922
940.5668, 18.96783
941.0490, 15.83786
941.5311, 14.27982
942.0132, 12.80753
942.4953, 10.97879
942.9774, 9.333771
943.4595, 8.148193
943.9417, 7.440552
944.4238, 7.347321
944.9059, 8.066223
945.3880, 8.826477
945.8701, 9.475220
946.3522, 9.888733
946.8344, 9.630188
947.3165, 9.300049
947.7986, 9.910675
948.2807, 11.39005
948.7628, 12.51257
949.2449, 12.30099
949.7271, 12.32938
950.2092, 14.43390
950.6913, 17.41586
951.1734, 19.60944
951.6555, 21.09796
952.1376, 22.57889
952.6198, 24.28156
953.1019, 25.92651
953.5840, 27.20074
954.0661, 28.40475
954.5482, 30.15494
955.0303, 32.51492
955.5124, 35.60773
955.9945, 39.42331
956.4766, 43.53897
956.9587, 47.77640
957.4409, 52.22418
957.9230, 56.92545
958.4051, 61.90018
958.8872, 67.34683
959.3693, 73.42874
959.8514, 79.86414
960.3336, 86.46271
960.8157, 93.54059
961.2978, 101.1736
961.7799, 109.4921
962.2620, 119.0186
962.7441, 130.5761
963.2263, 140.7974
963.7084, 148.6239
964.1905, 156.3965
964.6726, 164.9744
965.1547, 173.5967
965.6368, 181.6816
966.1190, 189.2216
966.6011, 196.2925
967.0832, 202.9342
967.5653, 209.0955
968.0474, 216.0346
968.5295, 221.1240
969.0117, 223.2925
969.4938, 222.4333
969.9759, 218.4840
970.4580, 211.4785
970.9401, 201.5529
971.4222, 187.8896
971.9044, 172.7921
972.3865, 156.7961
972.8686, 140.8099
973.3507, 125.3582
973.8328, 110.9402
974.3149, 98.52383
974.7971, 88.33072
975.2792, 79.22519
975.7613, 70.37964
976.2434, 62.14883
976.7255, 54.78314
977.2076, 48.47763
977.6898, 43.92929
978.1719, 40.89243
978.6540, 38.03470
979.1361, 34.70145
979.6182, 31.49307
980.1003, 29.33890
980.5825, 27.83087
981.0646, 25.52814
981.5467, 22.57150
982.0288, 20.13235
982.5109, 18.45215
982.9930, 16.79694
983.4752, 14.67484
983.9573, 12.42346
984.4394, 10.76566
984.9215, 8.935638
985.4036, 7.162415
985.8857, 5.964417
986.3679, 4.194702
986.8500, 3.184418
987.3321, 2.480774
987.8142, 1.734161
988.2963, 0.9955140
988.7784, 0.4230960
989.2606, 1.6632000E-02
989.7427, 0.2101750
990.2248, 0.2041320
990.7069, 0.1094970
991.1890, 0.2118840
991.6711, 0.3946840
992.1533, 7.3729999E-02
992.6354, 1.032471
993.1175, 1.513306
993.5996, 1.395325
994.0817, 1.015686
994.5638, 0.1214900
995.0460, 0.9235530
995.5281, 0.6352230
996.0102, 3.5675000E-02
996.4923, 3.7108999E-02
996.9744, 0.5785220
997.4565, 0.8645940
997.9387, 0.4285580
998.4208, 0.2462160
998.9029, 0.9516600
999.3850, 1.517975
999.8671, 0.9914860
1000.349, 5.3893998E-02
1000.831, 0.1389470
1001.313, 0.4758610
1001.796, 0.7892150
1002.278, 6.5857001E-02
1002.760, 0.5435490
1003.242, 0.4389950
1003.724, 4.6234000E-02
1004.206, 0.9273070
1004.688, 1.815186
1005.170, 1.989685
1005.653, 1.374573
1006.135, 0.7843930
1006.617, 0.6020810
1007.099, 0.7325440
1007.581, 1.543060
1008.063, 2.433411
1008.545, 2.294769
1009.027, 1.365723
1009.509, 0.6050420
1009.992, 0.3586120
1010.474, 0.3656310
1010.956, 0.3644410
1011.438, 0.5192870
1011.920, 1.381561
1012.402, 2.523163
1012.884, 2.816132
1013.366, 2.299316
1013.849, 1.773895
1014.331, 1.598297
1014.813, 1.773804
1015.295, 2.536713
1015.777, 3.455811
1016.259, 3.235626
1016.741, 2.169952
1017.223, 1.641113
1017.705, 1.817932
1018.188, 2.133667
1018.670, 2.309174
1019.152, 2.350220
1019.634, 2.252808
1020.116, 2.042511
1020.598, 1.723907
1021.080, 1.316772
1021.562, 1.199493
1022.044, 1.418213
1022.527, 1.758759
1023.009, 2.144836
1023.491, 2.485779
1023.973, 2.603210
1024.455, 2.510406
1024.937, 2.376221
1025.419, 2.180878
1025.901, 2.148376
1026.384, 2.332458
1026.866, 2.638306
1027.348, 3.061218
1027.830, 3.466278
1028.312, 3.592590
1028.794, 3.428741
1029.276, 3.114471
1029.758, 2.429474
1030.240, 2.453461
1030.723, 3.675568
1031.205, 4.971985
1031.687, 5.640015
1032.169, 5.865295
1032.651, 6.005035
1033.133, 6.047638
1033.615, 6.110748
1034.097, 6.102905
1034.579, 6.299683
1035.062, 6.867676
1035.544, 7.486755
1036.026, 7.996185
1036.508, 8.375305
1036.990, 8.568420
1037.472, 8.571716
1037.954, 8.601501
1038.436, 8.584564
1038.919, 8.615723
1039.401, 8.870697
1039.883, 9.001343
1040.365, 8.368286
1040.847, 7.581451
1041.329, 8.162842
1041.811, 10.60120
1042.293, 11.64853
1042.776, 9.979279
1043.258, 8.716980
1043.740, 8.694977
1044.222, 9.026855
1044.704, 9.221954
1045.186, 9.305267
1045.668, 9.356384
1046.150, 9.396210
1046.632, 9.277344
1047.115, 8.886200
1047.597, 8.484375
1048.079, 8.054108
1048.561, 7.694794
1049.043, 7.575775
1049.525, 7.529266
1050.007, 7.145325
1050.489, 6.287811
1050.971, 5.781464
1051.454, 6.113495
1051.936, 6.473724
1052.418, 6.865845
1052.900, 6.982849
1053.382, 6.460602
1053.864, 5.567230
1054.346, 4.698975
1054.828, 3.908997
1055.311, 3.649109
1055.793, 4.688110
1056.275, 5.373535
1056.757, 4.719482
1057.239, 3.952759
1057.721, 4.122101
1058.203, 4.750610
1058.685, 4.991821
1059.167, 4.734863
1059.650, 4.211121
1060.132, 3.038239
1060.614, 2.191498
1061.096, 2.553864
1061.578, 2.941589
1062.060, 2.078674
1062.542, 0.7620240
1063.024, 0.5039670
1063.506, 1.458710
1063.989, 2.233765
1064.471, 2.184204
1064.953, 2.095490
1065.435, 2.382874
1065.917, 2.671143
1066.399, 2.760956
1066.881, 2.592621
1067.363, 1.884216
1067.846, 0.7603150
1068.328, 0.3101500
1068.810, 1.450531
1069.292, 2.351074
1069.774, 2.034637
1070.256, 1.396851
1070.738, 0.9789730
1071.220, 0.7270510
1071.703, 0.3959350
1072.185, 3.4485001E-02
1072.667, 0.1726680
1073.149, 1.436310
1073.631, 2.276154
1074.113, 1.444244
1074.595, 0.4627990
1075.077, 0.6310730
1075.559, 1.215973
1076.042, 1.149963
1076.524, 0.4236450
1077.006, 0.2816470
1077.488, 0.7609860
1077.970, 1.119385
1078.452, 1.549255
1078.934, 1.719299
1079.416, 1.267609
1079.898, 0.5189210
1080.380, 0.2367860
1080.863, 0.8990170
1081.345, 1.318146
1081.827, 1.425323
1082.309, 1.383942
1082.791, 1.062592
1083.273, 0.8497010
1083.755, 1.212006
1084.237, 1.631409
1084.720, 1.383606
1085.202, 0.7231450
1085.684, 0.5256650
1086.166, 1.075867
1086.648, 1.503143
1087.130, 1.311554
1087.612, 1.059875
1088.094, 0.9536740
1088.577, 1.014679
1089.059, 1.502472
1089.541, 2.081390
1090.023, 1.911926
1090.505, 0.8196410
1090.987, 0.2027280
1091.469, 1.126160
1091.951, 1.912445
1092.433, 1.768921
1092.916, 1.292053
1093.398, 0.9161680
1093.880, 0.5635990
1094.362, 7.6843001E-02
1094.844, 0.9957580
1095.326, 1.535553
1095.808, 1.443390
1096.290, 1.003845
1096.772, 0.3009950
1097.255, 1.268219
1097.737, 0.7724300
1098.219, 0.3025210
1098.701, 0.7493590
1099.183, 0.5318300
1099.665, 0.3490910
1100.147, 0.3130490
1100.629, 0.4297790
1101.112, 1.184845
1101.594, 1.522522
1102.076, 0.5659180
1102.558, 0.7959290
1103.040, 1.868591
1103.522, 2.494476
1104.004, 2.277802
1104.486, 0.6887820
1104.969, 0.2248230
1105.451, 0.4131160
1105.933, 1.112732
1106.415, 1.246521
1106.897, 1.341003
1107.379, 2.121887
1107.861, 3.140320
1108.343, 3.128723
1108.825, 1.704468
1109.307, 0.9488220
1109.790, 1.815826
1110.272, 2.261505
1110.754, 1.392883
1111.236, 0.5054020
1111.718, 0.3746030
1112.200, 0.7269290
1112.682, 1.238098
1113.164, 1.936737
1113.647, 2.121979
1114.129, 1.147980
1114.611, 0.7435000
1115.093, 1.701904
1115.575, 2.303223
1116.057, 1.320404
1116.539, 8.5693002E-02
1117.021, 0.2880250
1117.504, 1.685822
1117.986, 2.482422
1118.468, 2.485443
1118.950, 2.335144
1119.432, 2.009735
1119.914, 1.537659
1120.396, 0.6943660
1120.878, 9.8328002E-02
1121.360, 0.3723450
1121.843, 1.237396
1122.325, 1.897217
1122.807, 2.360687
1123.289, 2.581879
1123.771, 2.601532
1124.253, 2.173676
1124.735, 1.059784
1125.217, 3.2531999E-02
1125.699, 0.4622800
1126.182, 0.4703060
1126.664, 5.0629001E-02
1127.146, 1.039886
1127.628, 1.310547
1128.110, 0.7649230
1128.592, 0.3093870
1129.074, 3.4972999E-02
1129.556, 9.2041001E-02
1130.039, 0.6080320
1130.521, 1.278625
1131.003, 1.683472
1131.485, 1.872620
1131.967, 1.829010
1132.449, 1.576965
1132.931, 1.604950
1133.413, 1.952087
1133.896, 2.321228
1134.378, 2.619751
1134.860, 2.796661
1135.342, 2.812531
1135.824, 2.599670
1136.306, 1.734619
1136.788, 1.945038
1137.270, 0.7176210
1137.752, 1.892151
1138.234, 2.564606
1138.717, 2.514465
1139.199, 2.592010
1139.681, 3.234253
1140.163, 3.891846
1140.645, 4.016418
1141.127, 3.690582
1141.609, 2.661804
1142.091, 1.465454
1142.574, 1.603455
1143.056, 2.724854
1143.538, 3.029572
1144.020, 2.080627
1144.502, 1.380554
1144.984, 2.091553
1145.466, 3.238800
1145.948, 4.125305
1146.431, 4.621948
1146.913, 4.193695
1147.395, 3.341248
1147.877, 2.929749
1148.359, 3.027222
1148.841, 3.186676
1149.323, 3.233978
1149.805, 3.269775
1150.287, 3.398651
1150.770, 3.481445
1151.252, 3.395996
1151.734, 3.231140
1152.216, 2.904053
1152.698, 2.593994
1153.180, 2.928192
1153.662, 4.058868
1154.144, 4.640808
1154.626, 3.613647
1155.109, 2.848938
1155.591, 3.358673
1156.073, 3.877197
1156.555, 3.324310
1157.037, 2.545166
1157.519, 2.865448
1158.001, 4.101135
1158.483, 4.499542
1158.966, 3.353027
1159.448, 2.464386
1159.930, 2.136261
1160.412, 1.943939
1160.894, 1.620636
1161.376, 1.518890
1161.858, 1.987610
1162.340, 2.808533
1162.822, 3.591309
1163.305, 4.426208
1163.787, 4.562988
1164.269, 3.732330
1164.751, 2.994202
1165.233, 2.468567
1165.715, 2.072998
1166.197, 1.718689
1166.679, 1.613983
1167.161, 2.096649
1167.644, 2.986084
1168.126, 3.563660
1168.608, 3.842682
1169.090, 4.013824
1169.572, 4.093567
1170.054, 3.725220
1170.536, 2.800232
1171.018, 1.921692
1171.500, 1.473511
1171.983, 1.518127
1172.465, 2.461823
1172.947, 3.883392
1173.429, 4.276123
1173.911, 3.874451
1174.393, 3.495148
1174.875, 3.282654
1175.357, 3.261719
1175.840, 3.411194
1176.322, 3.387238
1176.804, 2.781067
1177.286, 2.153442
1177.768, 2.271240
1178.250, 2.758636
1178.732, 3.235199
1179.214, 3.585632
1179.697, 3.616516
1180.179, 3.338440
1180.661, 2.902435
1181.143, 2.345947
1181.625, 1.826508
1182.107, 1.275299
1182.589, 0.9885560
1183.071, 1.128754
1183.553, 1.625214
1184.036, 2.777496
1184.518, 4.142120
1185.000, 5.010956
1185.482, 5.246979
1185.964, 4.742828
1186.446, 2.854736
1186.928, 1.235443
1187.410, 0.1364440
1187.892, 0.8029480
1188.375, 7.1625002E-02
1188.857, 1.220734
1189.339, 1.505127
1189.821, 1.139008
1190.303, 0.6285400
1190.785, 0.1781010
1191.267, 2.6854999E-02
1191.749, 1.604553
1192.232, 2.450989
1192.714, 1.925140
1193.196, 1.286865
1193.678, 1.165649
1194.160, 1.203461
1194.642, 0.9221800
1195.124, 1.151855
1195.606, 0.6991880
1196.089, 1.515076
1196.571, 2.019989
1197.053, 2.168488
1197.535, 1.906219
1198.017, 1.252441
1198.499, 0.8085940
1198.981, 0.9627380
1199.463, 1.293823
1199.945, 1.200439
1200.427, 0.9251100
1200.910, 0.8620000
1201.392, 1.031219
1201.874, 1.845215
1202.356, 2.885468
1202.838, 2.613861
1203.320, 0.8720090
1203.802, 0.2600400
1204.284, 0.6138310
1204.767, 1.857574
1205.249, 2.459961
1205.731, 2.670197
1206.213, 2.506470
1206.695, 2.206329
1207.177, 2.013123
1207.659, 1.926575
1208.141, 1.705566
1208.624, 1.246582
1209.106, 1.690063
1209.588, 4.433807
1210.070, 6.411346
1210.552, 6.893372
1211.034, 6.589264
1211.516, 5.367249
1211.998, 3.942291
1212.480, 3.046967
1212.963, 2.530518
1213.445, 1.781006
1213.927, 0.6675720
1214.409, 0.1770940
1214.891, 0.4528500
1215.373, 0.8426510
1215.855, 1.184540
1216.337, 1.417053
1216.819, 1.495117
1217.302, 1.445038
1217.784, 1.266205
1218.266, 1.043274
1218.748, 1.076324
1219.230, 1.306122
1219.712, 1.498413
1220.194, 1.592712
1220.676, 1.233063
1221.159, 0.4479980
1221.641, 0.1002500
1222.123, 5.3528000E-02
1222.605, 0.3290410
1223.087, 1.196442
1223.569, 1.841888
1224.051, 1.000824
1224.533, 0.2122500
1225.016, 0.3328250
1225.498, 0.3511960
1225.980, 1.139191
1226.462, 1.841034
1226.944, 2.406097
1227.426, 2.839630
1227.908, 3.047119
1228.390, 3.027496
1228.872, 2.692902
1229.354, 1.517395
1229.837, 0.4903260
1230.319, 0.4000850
1230.801, 0.9882810
1231.283, 1.900024
1231.765, 3.115417
1232.247, 3.771149
1232.729, 3.844147
1233.211, 3.335052
1233.694, 1.944977
1234.176, 1.062927
1234.658, 1.159180
1235.140, 1.692383
1235.622, 2.336700
1236.104, 2.923798
1236.586, 3.068848
1237.068, 2.986206
1237.551, 2.856323
1238.033, 2.630524
1238.515, 2.265564
1238.997, 1.786743
1239.479, 1.179749
1239.961, 0.5188600
1240.443, 0.3222050
1240.925, 1.022186
1241.407, 1.766174
1241.890, 1.643127
1242.372, 1.897369
1242.854, 1.320251
1243.336, 1.418854
1243.818, 0.8888550
1244.300, 7.6568998E-02
1244.782, 0.1862790
1245.264, 0.2748110
1245.746, 0.7005310
1246.229, 0.9696960
1246.711, 1.069153
1247.193, 0.9822690
1247.675, 0.7353820
1248.157, 5.4629999E-03
1248.639, 0.4653320
1249.121, 2.6366999E-02
1249.603, 0.9300840
1250.085, 1.237305
1250.568, 1.003876
1251.050, 0.8191830
1251.532, 0.6524050
1252.014, 0.9227600
1252.496, 1.685089
1252.978, 2.232697
1253.460, 2.318115
1253.942, 2.182068
1254.425, 1.975128
1254.907, 1.769775
1255.389, 1.871490
1255.871, 2.172028
1256.353, 2.282623
1256.835, 2.239868
1257.317, 2.010986
1257.799, 1.707550
1258.281, 1.486359
1258.764, 1.460724
1259.246, 2.186859
1259.728, 4.391296
1260.210, 5.478363
1260.692, 2.552582
1261.174, 0.4537960
1261.656, 2.937439
1262.138, 5.632874
1262.620, 4.609985
1263.103, 1.880615
1263.585, 0.8365780
1264.067, 1.285309
1264.549, 1.549255
1265.031, 1.506134
1265.513, 1.408173
1265.995, 1.088196
1266.477, 1.148987
1266.960, 1.636444
1267.442, 2.105225
1267.924, 2.047577
1268.406, 1.619385
1268.888, 1.003937
1269.370, 0.3540040
1269.852, 0.1224670
1270.334, 0.2836000
1270.817, 0.7171940
1271.299, 2.213226
1271.781, 2.072083
1272.263, 0.4725040
1272.745, 0.3963930
1273.227, 0.2926330
1273.709, 1.166534
1274.191, 1.467743
1274.673, 1.612915
1275.156, 1.851105
1275.638, 1.987366
1276.120, 1.609222
1276.602, 1.290527
1277.084, 1.978821
1277.566, 3.046570
1278.048, 2.975067
1278.530, 1.932587
1279.012, 0.9084170
1279.495, 0.5800780
1279.977, 0.7629090
1280.459, 1.587250
1280.941, 2.044983
1281.423, 1.729462
1281.905, 1.432922
1282.387, 1.832886
1282.869, 1.357056
1283.352, 1.861603
1283.834, 0.8583370
1284.316, 0.2142640
1284.798, 0.0000000E+00
##END=



