##NAMES=Clintonite
##RRUFFID=R070229
##IDEAL CHEMISTRY=CaAlMg_2_(SiAl_3_)O_10_(OH)_2_
##LOCALITY=Amity, Warwick Township, Orange County, New York, USA
##OWNER=RRUFF
##SOURCE=Michael Scott
##DESCRIPTION=Brown micaceous plates in dolomite. Polytype 1M, variety called seybertite
##STATUS=The identification of this mineral has been confirmed by X-ray diffraction and chemical analysis
##URL=rruff.info/R070229
##MEASURED CHEMISTRY=(Ca_0.98_Na_0.02_)_Σ=1_(Al_0.68_Mg_0.20_Fe^3+^_0.11_Ti_0.01_)_Σ=1_Mg_2.00_(Si_1.34_Al_2.66_)_Σ=4_O_10_((OH)_1.87_O_0.13_)_Σ=2_; OH estimated by charge balance
195.7475, 0.0000000E+00
196.2296, 7.970581
196.7117, 19.03516
197.1938, 22.71436
197.6759, 24.82153
198.1581, 31.45300
198.6402, 44.68909
199.1223, 60.32617
199.6044, 70.45300
200.0865, 69.72754
200.5686, 75.67810
201.0508, 90.56250
201.5329, 109.6228
202.0150, 131.4388
202.4971, 155.0562
202.9792, 177.3594
203.4613, 193.5537
203.9435, 203.4514
204.4256, 212.1505
204.9077, 219.8776
205.3898, 224.5273
205.8719, 226.3844
206.3540, 221.1659
206.8362, 211.9578
207.3183, 200.3679
207.8004, 184.3459
208.2825, 168.8291
208.7646, 159.6633
209.2467, 148.7047
209.7289, 128.7736
210.2110, 100.9552
210.6931, 72.95300
211.1752, 54.39856
211.6573, 48.17651
212.1395, 39.91479
212.6216, 24.09070
213.1037, 10.06287
213.5858, 3.196411
214.0679, 3.104736
214.5500, 5.542725
215.0322, 5.744263
215.5143, 2.444824
215.9964, 5.961060
216.4785, 24.77051
216.9606, 42.48987
217.4427, 51.30005
217.9249, 53.28333
218.4070, 55.81970
218.8891, 65.82422
219.3712, 83.67163
219.8533, 100.4689
220.3354, 118.8887
220.8176, 132.8622
221.2997, 137.3298
221.7818, 137.3027
222.2639, 142.2328
222.7460, 155.7795
223.2281, 176.8401
223.7103, 202.0052
224.1924, 227.5380
224.6745, 255.0468
225.1566, 286.7845
225.6387, 325.3610
226.1208, 366.3894
226.6030, 404.6376
227.0851, 441.1292
227.5672, 475.1609
228.0493, 495.9324
228.5314, 515.0546
229.0135, 538.2306
229.4957, 564.0410
229.9778, 590.7850
230.4599, 618.5879
230.9420, 643.7383
231.4241, 657.8678
231.9062, 656.0770
232.3884, 651.7521
232.8705, 648.5413
233.3526, 643.5106
233.8347, 634.1058
234.3168, 619.5151
234.7989, 599.9247
235.2811, 574.5447
235.7632, 540.4678
236.2453, 507.1718
236.7274, 472.6420
237.2095, 440.6726
237.6916, 415.0123
238.1738, 395.7174
238.6559, 378.4075
239.1380, 356.8713
239.6201, 329.3730
240.1022, 303.5277
240.5843, 279.4991
241.0665, 257.1489
241.5486, 236.2596
242.0307, 217.0156
242.5128, 199.7928
242.9949, 184.5449
243.4770, 171.1910
243.9592, 161.8712
244.4413, 163.3821
244.9234, 162.4492
245.4055, 153.1427
245.8876, 136.6862
246.3697, 117.2819
246.8519, 96.75439
247.3340, 75.28369
247.8161, 56.05237
248.2982, 36.79834
248.7803, 23.53125
249.2624, 22.61853
249.7446, 27.65308
250.2267, 28.18726
250.7088, 11.87281
251.1909, 16.74837
251.6730, 18.59167
252.1551, 17.57631
252.6373, 4.544187
253.1194, 7.484994
253.6015, 4.303390
254.0836, 1.061514
254.5657, 6.819203
255.0478, -3.441156
255.5300, 2.574727
256.0121, 2.371902
256.4942, 5.305262
256.9763, 2.077183
257.4584, 1.012563
257.9406, 6.509393
258.4227, 8.682176
258.9048, 5.517676
259.3869, 9.831448
259.8690, 1.338319
260.3511, 4.456951
260.8333, 12.69892
261.3154, 10.84892
261.7975, 16.27362
262.2796, 17.95935
262.7617, 25.42883
263.2438, 35.22192
263.7260, 46.46936
264.2081, 53.21582
264.6902, 51.28076
265.1723, 50.38586
265.6544, 60.28223
266.1365, 77.58521
266.6187, 90.79553
267.1008, 89.18213
267.5829, 80.76929
268.0650, 84.39246
268.5471, 104.1255
269.0292, 123.9215
269.5114, 130.2445
269.9935, 129.1906
270.4756, 130.8024
270.9577, 137.8918
271.4398, 148.4436
271.9219, 162.7330
272.4041, 181.0677
272.8862, 193.9813
273.3683, 193.4255
273.8504, 185.8588
274.3325, 184.2947
274.8146, 192.0372
275.2968, 200.5309
275.7789, 205.5682
276.2610, 206.9816
276.7431, 203.4769
277.2252, 193.1936
277.7073, 179.6071
278.1895, 167.7140
278.6716, 156.8065
279.1537, 149.6041
279.6358, 151.3015
280.1179, 156.4319
280.6000, 154.4457
281.0822, 142.2338
281.5643, 127.6515
282.0464, 120.6595
282.5285, 122.1075
283.0106, 120.7260
283.4927, 113.9271
283.9749, 104.5883
284.4570, 93.87219
284.9391, 82.32410
285.4212, 73.13062
285.9033, 69.69836
286.3854, 71.94019
286.8676, 70.95422
287.3497, 64.10352
287.8318, 56.91125
288.3139, 51.28113
288.7960, 47.39783
289.2781, 46.04663
289.7603, 48.22620
290.2424, 52.33081
290.7245, 51.38977
291.2066, 42.06848
291.6887, 32.23401
292.1708, 21.52319
292.6530, 11.46777
293.1351, 3.066650
293.6172, 3.241821
294.0993, 5.700317
294.5814, 0.6694340
295.0635, 18.84680
295.5457, 32.73608
296.0278, 37.44922
296.5099, 39.47656
296.9920, 42.17407
297.4741, 46.57605
297.9562, 53.17676
298.4384, 62.86218
298.9205, 76.24854
299.4026, 88.53906
299.8847, 97.04883
300.3668, 107.1334
300.8489, 121.6289
301.3311, 139.2406
301.8131, 157.3320
302.2953, 174.6323
302.7774, 190.6215
303.2595, 202.4430
303.7416, 207.4117
304.2237, 211.7739
304.7058, 216.0452
305.1880, 220.6715
305.6701, 225.1951
306.1522, 229.2336
306.6343, 235.4866
307.1164, 250.7709
307.5985, 279.1062
308.0807, 301.9225
308.5628, 311.6486
309.0449, 316.5421
309.5270, 320.4980
310.0091, 324.3674
310.4912, 328.0948
310.9734, 332.7532
311.4555, 338.4075
311.9376, 341.6873
312.4197, 342.1949
312.9018, 338.7942
313.3839, 329.0576
313.8661, 315.5425
314.3482, 304.7288
314.8303, 301.0277
315.3124, 301.7837
315.7945, 303.2557
316.2766, 305.7734
316.7588, 304.0862
317.2409, 293.2365
317.7230, 278.1681
318.2051, 265.4546
318.6872, 253.8594
319.1693, 247.9397
319.6515, 252.8412
320.1336, 266.6439
320.6157, 282.7616
321.0978, 301.0900
321.5799, 317.2684
322.0620, 322.9849
322.5442, 316.9860
323.0263, 311.1923
323.5084, 307.6273
323.9905, 306.8823
324.4726, 310.0999
324.9547, 317.4100
325.4369, 326.9265
325.9190, 338.3306
326.4011, 352.0435
326.8832, 357.7563
327.3653, 346.3170
327.8474, 335.4758
328.3296, 337.1733
328.8117, 348.2614
329.2938, 357.8888
329.7759, 359.5693
330.2580, 355.2217
330.7401, 353.3643
331.2223, 352.7313
331.7044, 356.2295
332.1865, 366.4352
332.6686, 379.9110
333.1507, 391.9237
333.6328, 401.3508
334.1150, 412.6171
334.5971, 434.2888
335.0792, 475.4346
335.5613, 501.6140
336.0434, 505.6871
336.5255, 503.0503
337.0077, 495.7974
337.4898, 487.9264
337.9719, 487.6487
338.4540, 503.5450
338.9361, 533.1327
339.4182, 554.1710
339.9004, 562.3707
340.3825, 567.6790
340.8646, 573.2383
341.3467, 577.9462
341.8288, 578.9191
342.3109, 574.0287
342.7931, 570.1133
343.2752, 580.4728
343.7573, 608.1627
344.2394, 628.5330
344.7215, 631.1294
345.2036, 627.6118
345.6858, 628.1240
346.1679, 632.9943
346.6500, 634.7832
347.1321, 626.0619
347.6142, 610.7468
348.0963, 600.2045
348.5785, 596.7996
349.0606, 594.0784
349.5427, 586.7137
350.0248, 575.9321
350.5069, 565.1853
350.9890, 552.7426
351.4712, 542.3390
351.9533, 540.7231
352.4354, 545.5455
352.9175, 543.0430
353.3996, 524.7372
353.8817, 497.2914
354.3639, 478.2859
354.8460, 469.4435
355.3281, 463.1656
355.8102, 461.4763
356.2923, 459.8677
356.7744, 451.9742
357.2566, 436.6790
357.7387, 419.1561
358.2208, 404.8569
358.7029, 393.8790
359.1850, 386.0475
359.6671, 388.3767
360.1493, 386.5371
360.6314, 369.8639
361.1135, 344.1357
361.5956, 322.9342
362.0777, 314.7032
362.5598, 315.0112
363.0420, 307.1083
363.5241, 283.0804
364.0062, 263.4666
364.4883, 252.0188
364.9704, 244.6093
365.4525, 238.1813
365.9347, 231.9530
366.4168, 226.3303
366.8989, 222.7477
367.3810, 221.5050
367.8631, 216.8655
368.3452, 207.4203
368.8274, 195.6702
369.3095, 179.2903
369.7916, 161.6649
370.2737, 151.2125
370.7558, 155.6724
371.2379, 166.4087
371.7201, 166.6942
372.2022, 154.8961
372.6843, 148.5994
373.1664, 158.4347
373.6485, 176.2974
374.1306, 190.5581
374.6128, 201.5818
375.0949, 206.4670
375.5770, 197.1353
376.0591, 181.6250
376.5412, 176.9033
377.0233, 187.0486
377.5055, 203.2505
377.9876, 217.6769
378.4697, 230.0941
378.9518, 240.3904
379.4339, 246.6799
379.9160, 252.4977
380.3982, 260.7493
380.8803, 270.3204
381.3624, 277.3383
381.8445, 279.3793
382.3266, 278.6064
382.8087, 281.7183
383.2909, 295.7551
383.7730, 304.3470
384.2551, 303.3485
384.7372, 299.3804
385.2193, 297.8995
385.7014, 299.6616
386.1836, 301.7692
386.6657, 300.9318
387.1478, 296.9321
387.6299, 294.5349
388.1120, 293.6282
388.5941, 294.6016
389.0763, 296.1060
389.5584, 300.2167
390.0405, 311.4001
390.5226, 333.3547
391.0047, 355.7679
391.4868, 360.0535
391.9690, 344.0769
392.4511, 334.2983
392.9332, 340.7815
393.4153, 352.4664
393.8974, 359.8127
394.3795, 362.8534
394.8617, 363.7593
395.3438, 362.3588
395.8259, 359.9324
396.3080, 359.5726
396.7901, 361.8228
397.2722, 360.7858
397.7544, 350.5925
398.2365, 333.4994
398.7186, 321.8989
399.2007, 316.9696
399.6828, 316.1260
400.1649, 321.2057
400.6471, 329.0846
401.1292, 334.3457
401.6113, 335.2123
402.0934, 334.3087
402.5755, 336.1604
403.0576, 344.5138
403.5398, 343.4689
404.0219, 325.3519
404.5040, 306.3038
404.9861, 295.0411
405.4682, 289.8483
405.9503, 284.7410
406.4325, 275.8683
406.9146, 264.4124
407.3967, 255.0404
407.8788, 249.8633
408.3609, 242.3829
408.8430, 230.3398
409.3252, 216.3269
409.8073, 201.2484
410.2894, 185.5680
410.7715, 171.7140
411.2536, 161.4066
411.7357, 154.6014
412.2179, 152.4818
412.7000, 157.3086
413.1821, 161.5887
413.6642, 156.4161
414.1463, 147.2297
414.6284, 145.8694
415.1106, 161.0916
415.5927, 176.6792
416.0748, 179.1531
416.5569, 172.1193
417.0390, 167.0317
417.5211, 168.2944
418.0033, 171.8616
418.4854, 170.3571
418.9675, 160.3391
419.4496, 156.4738
419.9317, 165.0245
420.4138, 175.0953
420.8960, 181.3285
421.3781, 183.0121
421.8602, 179.8167
422.3423, 171.2433
422.8244, 157.9711
423.3065, 143.1711
423.7887, 124.2129
424.2708, 108.5680
424.7529, 98.36255
425.2350, 91.48352
425.7171, 85.76819
426.1992, 80.85669
426.6814, 78.05347
427.1635, 79.78406
427.6456, 85.43604
428.1277, 86.82227
428.6098, 81.34631
429.0919, 76.84985
429.5741, 79.29602
430.0562, 84.65320
430.5383, 86.37915
431.0204, 81.42249
431.5025, 76.72974
431.9846, 80.77612
432.4668, 90.57471
432.9489, 93.28015
433.4310, 84.16284
433.9131, 72.13269
434.3952, 68.62231
434.8773, 75.03748
435.3595, 74.53479
435.8416, 60.76160
436.3237, 44.75806
436.8058, 30.70569
437.2879, 19.96106
437.7701, 15.39001
438.2522, 18.89270
438.7343, 26.67859
439.2164, 29.13098
439.6985, 23.85645
440.1806, 17.19604
440.6628, 6.797485
441.1449, 2.783081
441.6270, 8.624512
442.1091, 10.82349
442.5912, 11.11438
443.0733, 10.33484
443.5555, 8.806641
444.0376, 7.808472
444.5197, 7.524414
445.0018, 7.232788
445.4839, 4.573486
445.9660, 2.942261
446.4482, 7.572632
446.9303, 20.25000
447.4124, 29.82446
447.8945, 25.36023
448.3766, 13.75549
448.8587, 10.87842
449.3409, 19.43591
449.8230, 27.95215
450.3051, 27.05627
450.7872, 17.68860
451.2693, 11.00879
451.7514, 9.738159
452.2336, 7.772461
452.7157, 1.235474
453.1978, 6.514160
453.6799, 10.19775
454.1620, 8.480103
454.6441, 4.785156
455.1263, 3.041992
455.6084, 2.840210
456.0905, 6.913818
456.5726, 21.85669
457.0547, 34.37585
457.5368, 40.18201
458.0190, 40.93213
458.5011, 39.42505
458.9832, 36.69678
459.4653, 32.76318
459.9474, 26.74133
460.4295, 18.59949
460.9117, 12.46191
461.3938, 8.695190
461.8759, 7.844849
462.3580, 12.66223
462.8401, 21.63599
463.3222, 26.36926
463.8044, 21.08398
464.2865, 13.35889
464.7686, 9.217407
465.2507, 8.409180
465.7328, 9.407227
466.2149, 11.61938
466.6971, 15.08191
467.1792, 20.01758
467.6613, 28.05176
468.1434, 34.07202
468.6255, 39.99219
469.1076, 42.32458
469.5898, 36.13257
470.0719, 24.21082
470.5540, 13.81848
471.0361, 9.188232
471.5182, 9.944702
472.0003, 16.59851
472.4825, 33.69104
472.9646, 44.16339
473.4467, 40.58771
473.9288, 31.68732
474.4109, 20.70667
474.8930, 8.644287
475.3752, 0.9423830
475.8573, 5.438904
476.3394, 6.395813
476.8215, 5.455017
477.3036, 2.635803
477.7857, 1.441895
478.2679, 4.191223
478.7500, 9.206299
479.2321, 12.83795
479.7142, 16.19904
480.1963, 15.86493
480.6784, 5.675598
481.1606, 4.799316
481.6427, 5.819519
482.1248, 2.301880
482.6069, 12.87811
483.0890, 21.56921
483.5711, 27.88312
484.0533, 28.93005
484.5354, 20.88116
485.0175, 13.70184
485.4996, 9.160767
485.9817, 5.695313
486.4638, 2.843384
486.9460, 0.1650390
487.4281, 3.976074
487.9102, 14.12817
488.3923, 26.59247
488.8744, 27.48090
489.3565, 14.04785
489.8387, 4.607300
490.3208, 10.28894
490.8029, 25.02155
491.2850, 35.27167
491.7671, 39.20447
492.2492, 44.08984
492.7314, 56.12408
493.2135, 68.24268
493.6956, 69.55341
494.1777, 60.75214
494.6598, 54.95081
495.1419, 63.36078
495.6241, 82.51440
496.1062, 89.60303
496.5883, 68.97058
497.0704, 58.20697
497.5525, 67.52271
498.0346, 83.14532
498.5168, 95.43365
498.9989, 102.3620
499.4810, 104.9136
499.9631, 101.8219
500.4452, 95.19153
500.9273, 92.94775
501.4095, 95.54944
501.8916, 101.0095
502.3737, 111.7397
502.8558, 122.8453
503.3379, 126.8484
503.8200, 122.5895
504.3022, 115.2860
504.7843, 103.8218
505.2664, 91.68988
505.7485, 83.52313
506.2306, 79.75226
506.7127, 78.39331
507.1949, 77.96667
507.6770, 78.59351
508.1591, 81.62128
508.6412, 92.55573
509.1233, 98.32526
509.6054, 91.67926
510.0876, 84.63263
510.5697, 87.20587
511.0518, 98.53210
511.5339, 110.5920
512.0161, 118.8430
512.4982, 122.9472
512.9803, 120.4044
513.4624, 109.7926
513.9445, 101.2805
514.4266, 98.65656
514.9088, 99.74585
515.3909, 102.2549
515.8730, 106.4424
516.3551, 108.8187
516.8372, 108.1154
517.3193, 105.3820
517.8015, 100.3552
518.2836, 93.87408
518.7657, 88.77527
519.2478, 86.66571
519.7299, 86.46417
520.2120, 85.76105
520.6942, 85.24725
521.1763, 83.01324
521.6584, 74.69153
522.1405, 68.57922
522.6226, 70.94543
523.1047, 79.23956
523.5869, 86.48273
524.0690, 88.93024
524.5511, 89.00519
525.0332, 90.64624
525.5153, 93.70831
525.9974, 95.53662
526.4796, 94.59772
526.9617, 93.49091
527.4438, 95.36121
527.9259, 99.89612
528.4080, 104.4651
528.8901, 109.4553
529.3723, 113.4815
529.8544, 114.4592
530.3365, 114.2421
530.8186, 116.4502
531.3007, 122.3287
531.7828, 130.4793
532.2650, 140.0984
532.7471, 152.2863
533.2292, 155.3467
533.7113, 141.0679
534.1934, 128.2772
534.6755, 120.4427
535.1577, 118.7858
535.6398, 126.2327
536.1219, 144.7841
536.6040, 160.5640
537.0861, 157.5699
537.5682, 141.7336
538.0504, 130.7531
538.5325, 127.3853
539.0146, 129.7542
539.4967, 138.1196
539.9788, 149.9363
540.4609, 155.1447
540.9431, 147.2150
541.4252, 142.9703
541.9073, 150.9404
542.3894, 161.9229
542.8715, 165.4299
543.3536, 161.3359
543.8358, 157.9551
544.3179, 162.5637
544.8000, 172.0552
545.2821, 171.7770
545.7642, 156.0975
546.2463, 147.1781
546.7285, 157.4138
547.2106, 170.5493
547.6927, 174.7241
548.1748, 170.6094
548.6569, 164.5201
549.1390, 156.6368
549.6211, 149.0287
550.1032, 142.9651
550.5853, 139.0778
551.0674, 141.1578
551.5496, 151.6064
552.0317, 164.1561
552.5138, 168.5163
552.9959, 162.0571
553.4780, 156.1218
553.9601, 147.6940
554.4423, 142.8686
554.9244, 147.3622
555.4065, 156.0565
555.8886, 161.9409
556.3707, 162.5463
556.8528, 157.3698
557.3350, 143.1618
557.8171, 121.3324
558.2992, 102.9424
558.7813, 88.53851
559.2634, 79.15613
559.7455, 77.19409
560.2277, 80.80243
560.7098, 83.52881
561.1919, 85.85303
561.6740, 86.37646
562.1561, 84.65540
562.6382, 80.92303
563.1204, 74.88696
563.6025, 66.89575
564.0846, 57.61133
564.5667, 46.64563
565.0488, 36.14288
565.5309, 35.72913
566.0131, 51.48236
566.4952, 61.95050
566.9773, 59.97736
567.4594, 54.25842
567.9415, 48.77777
568.4236, 44.03534
568.9058, 40.71375
569.3879, 39.06281
569.8700, 38.97394
570.3521, 41.05096
570.8342, 44.66901
571.3163, 48.07678
571.7985, 50.85602
572.2806, 52.15027
572.7627, 51.00665
573.2448, 47.41510
573.7269, 41.29834
574.2090, 28.62006
574.6912, 18.27441
575.1733, 12.79102
575.6554, 10.63171
576.1375, 11.13123
576.6196, 13.68677
577.1017, 15.12018
577.5839, 10.04333
578.0660, 1.560852
578.5481, 1.375732
579.0302, 10.60345
579.5123, 20.02136
579.9944, 26.95795
580.4766, 30.29449
580.9587, 26.40833
581.4408, 13.31909
581.9229, 2.777466
582.4050, 3.488770
582.8871, 6.779236
583.3693, 6.547424
583.8514, 4.184265
584.3335, 2.347412
584.8156, 2.260498
585.2977, 2.875549
585.7798, 2.681885
586.2620, 1.677368
586.7441, 0.4298100
587.2262, 5.216858
587.7083, 8.544983
588.1904, 7.283203
588.6725, 3.234680
589.1547, 1.460938
589.6368, 8.225891
590.1189, 11.13019
590.6010, 2.420349
591.0831, 9.108948
591.5652, 10.38458
592.0474, 1.957214
592.5295, 4.885681
593.0116, 2.251465
593.4937, 6.048279
593.9758, 7.673279
594.4579, 1.706848
594.9401, 7.466980
595.4222, 4.710815
595.9043, 1.395996
596.3864, 2.480408
596.8685, 6.137329
597.3506, 7.347107
597.8328, 3.938904
598.3149, 1.876465
598.7970, 11.37952
599.2791, 21.47705
599.7612, 22.56146
600.2433, 12.75226
600.7255, 1.369995
601.2076, 4.210327
601.6897, 4.299133
602.1718, 1.392883
602.6539, 5.986816
603.1360, 14.53723
603.6182, 27.95947
604.1003, 39.33844
604.5824, 42.57397
605.0645, 38.60339
605.5466, 33.06586
606.0287, 28.67017
606.5109, 25.14917
606.9930, 21.66718
607.4751, 18.44537
607.9572, 17.04700
608.4393, 17.62616
608.9214, 21.34241
609.4036, 31.20630
609.8857, 47.23657
610.3678, 53.99933
610.8499, 43.82037
611.3320, 35.02319
611.8141, 32.56451
612.2963, 33.03058
612.7784, 32.88641
613.2605, 31.80347
613.7426, 31.86401
614.2247, 35.34528
614.7068, 40.49719
615.1890, 42.92670
615.6711, 42.54401
616.1532, 41.05219
616.6353, 37.87451
617.1174, 35.71802
617.5995, 38.98425
618.0817, 47.81549
618.5638, 52.03625
619.0459, 45.42419
619.5280, 40.88397
620.0101, 45.94928
620.4922, 54.62042
620.9744, 57.45807
621.4565, 53.85516
621.9386, 53.49811
622.4207, 67.28156
622.9028, 90.35980
623.3849, 102.4357
623.8671, 101.5056
624.3492, 101.1884
624.8313, 105.5363
625.3134, 112.2671
625.7955, 119.8098
626.2776, 128.1003
626.7598, 133.2130
627.2419, 131.1979
627.7240, 129.5461
628.2061, 130.7924
628.6882, 135.2836
629.1703, 145.8490
629.6525, 161.7342
630.1346, 174.2148
630.6167, 172.3087
631.0988, 160.0149
631.5809, 161.4939
632.0630, 181.0358
632.5452, 197.1094
633.0273, 199.1575
633.5094, 199.0568
633.9915, 210.4281
634.4736, 232.6797
634.9557, 256.2250
635.4379, 283.6152
635.9200, 306.6522
636.4021, 315.5435
636.8842, 319.5833
637.3663, 333.6215
637.8484, 360.5686
638.3306, 391.1677
638.8127, 415.5317
639.2948, 435.5085
639.7769, 463.1101
640.2590, 501.1287
640.7411, 536.2070
641.2233, 559.7184
641.7054, 583.7978
642.1875, 623.1615
642.6696, 676.3398
643.1517, 725.6747
643.6339, 762.4922
644.1160, 800.1492
644.5981, 847.1343
645.0802, 899.3361
645.5623, 949.9424
646.0444, 997.5366
646.5266, 1044.695
647.0087, 1092.045
647.4908, 1141.197
647.9729, 1204.832
648.4550, 1289.211
648.9371, 1363.451
649.4193, 1408.048
649.9014, 1451.802
650.3835, 1530.031
650.8656, 1636.837
651.3477, 1728.543
651.8298, 1789.605
652.3120, 1843.262
652.7941, 1899.982
653.2762, 1956.757
653.7583, 2009.880
654.2404, 2057.661
654.7225, 2098.033
655.2047, 2129.664
655.6868, 2153.099
656.1689, 2169.331
656.6510, 2178.875
657.1331, 2177.154
657.6152, 2163.663
658.0974, 2138.038
658.5795, 2099.337
659.0616, 2047.943
659.5437, 1984.619
660.0258, 1900.017
660.5079, 1815.184
660.9901, 1742.362
661.4722, 1669.538
661.9543, 1580.089
662.4364, 1476.330
662.9185, 1373.588
663.4006, 1281.279
663.8828, 1198.383
664.3649, 1124.076
664.8470, 1058.624
665.3291, 992.2450
665.8112, 920.4925
666.2933, 854.0225
666.7755, 802.3076
667.2576, 762.7296
667.7397, 722.0647
668.2218, 681.4110
668.7039, 638.2151
669.1860, 586.4630
669.6682, 536.8001
670.1503, 495.5692
670.6324, 463.7296
671.1145, 442.7764
671.5966, 433.4647
672.0787, 426.6310
672.5609, 407.5464
673.0430, 379.2319
673.5251, 361.8193
674.0072, 359.3254
674.4893, 354.4775
674.9714, 335.8358
675.4536, 308.7937
675.9357, 287.4125
676.4178, 273.0522
676.8999, 261.7898
677.3820, 254.7673
677.8641, 248.5507
678.3463, 242.6367
678.8284, 236.6326
679.3105, 229.5961
679.7926, 221.3848
680.2747, 214.3724
680.7568, 210.1714
681.2390, 207.1079
681.7211, 203.8264
682.2032, 200.6395
682.6853, 196.3593
683.1674, 190.6938
683.6495, 182.8981
684.1317, 171.4596
684.6138, 155.6432
685.0959, 140.2380
685.5780, 117.7391
686.0601, 104.6157
686.5422, 112.5578
687.0244, 127.1356
687.5065, 133.7150
687.9886, 130.5435
688.4707, 124.5384
688.9528, 119.2466
689.4349, 113.4104
689.9171, 105.5427
690.3992, 96.05884
690.8813, 84.28235
691.3634, 70.11768
691.8455, 60.24133
692.3276, 62.85284
692.8098, 75.88770
693.2919, 80.15051
693.7740, 71.57983
694.2561, 61.70129
694.7382, 44.69293
695.2203, 34.37799
695.7025, 46.16724
696.1846, 73.53064
696.6667, 91.65204
697.1488, 90.49146
697.6309, 84.73297
698.1130, 81.53247
698.5952, 78.73358
699.0773, 72.61896
699.5594, 63.69775
700.0415, 55.60760
700.5236, 50.35699
701.0057, 48.19617
701.4879, 51.37299
701.9700, 60.45697
702.4521, 63.21997
702.9342, 55.81775
703.4163, 48.25635
703.8984, 46.68719
704.3806, 48.78516
704.8627, 48.45422
705.3448, 43.54865
705.8269, 42.50037
706.3090, 50.28748
706.7911, 58.41010
707.2733, 63.84857
707.7554, 65.80707
708.2375, 60.98615
708.7196, 48.44366
709.2017, 36.57330
709.6838, 35.39801
710.1660, 41.00433
710.6481, 43.27844
711.1302, 42.19116
711.6123, 39.43573
712.0944, 35.19092
712.5765, 31.36157
713.0587, 30.74902
713.5408, 33.63617
714.0229, 33.66345
714.5050, 29.21924
714.9871, 24.02448
715.4692, 15.38593
715.9514, 8.776672
716.4335, 10.29095
716.9156, 18.43604
717.3977, 25.22046
717.8798, 27.05267
718.3619, 27.00140
718.8441, 26.70154
719.3262, 26.49786
719.8083, 26.97894
720.2904, 28.20532
720.7725, 30.12714
721.2546, 32.86115
721.7368, 35.61438
722.2189, 36.39874
722.7010, 35.01404
723.1831, 33.28729
723.6652, 32.46875
724.1473, 28.95557
724.6295, 17.58154
725.1116, 3.420410
725.5937, 2.783569
726.0758, 1.594055
726.5579, 4.990662
727.0400, 6.896606
727.5222, 5.661438
728.0043, 3.999573
728.4864, 15.86316
728.9685, 19.09796
729.4506, 11.38373
729.9327, 1.604919
730.4149, 2.763855
730.8970, 3.255554
731.3791, 2.665894
731.8612, 1.154236
732.3433, 0.5459590
732.8254, 1.584167
733.3076, 2.066101
733.7897, 0.8414310
734.2718, 6.612244
734.7539, 8.226624
735.2360, 2.262146
735.7181, 2.143616
736.2003, 5.231445
736.6824, 5.387939
737.1645, 2.115723
737.6466, 13.21521
738.1287, 16.69434
738.6108, 7.034973
739.0930, 4.371033
739.5751, 13.91290
740.0572, 19.93005
740.5393, 18.24799
741.0214, 11.03467
741.5035, 5.303589
741.9857, 4.381348
742.4678, 5.967834
742.9499, 7.438904
743.4320, 8.700928
743.9141, 7.938477
744.3962, 4.476685
744.8784, 2.849121
745.3605, 5.820190
745.8426, 9.926941
746.3247, 10.42242
746.8068, 6.895203
747.2889, 3.381226
747.7711, 0.8014530
748.2532, 4.137634
748.7353, 5.839661
749.2174, 6.888367
749.6995, 9.623535
750.1816, 12.84314
750.6638, 11.21252
751.1459, 0.1304320
751.6280, 12.73138
752.1101, 20.38684
752.5922, 23.20465
753.0743, 19.12976
753.5565, 9.329773
754.0386, 0.9612430
754.5207, 1.872253
755.0028, 0.1266480
755.4849, 6.304077
755.9670, 18.74799
756.4492, 21.98767
756.9313, 11.33899
757.4134, 2.811951
757.8955, 5.418030
758.3776, 12.35620
758.8597, 11.66467
759.3419, 2.006775
759.8240, 0.4728390
760.3061, 11.92505
760.7882, 24.04303
761.2703, 32.77051
761.7524, 36.68097
762.2346, 31.86005
762.7167, 20.18781
763.1988, 11.13965
763.6809, 11.79376
764.1630, 14.34131
764.6451, 7.687805
765.1273, 3.752136
765.6094, 8.807251
766.0915, 6.215759
766.5736, 0.4388430
767.0557, 6.188538
767.5378, 12.43085
768.0200, 15.36407
768.5021, 14.46039
768.9842, 13.28101
769.4663, 11.60315
769.9484, 10.10797
770.4305, 7.276917
770.9127, 6.060364
771.3948, 11.77496
771.8769, 25.03876
772.3590, 36.09174
772.8411, 45.62830
773.3232, 50.53497
773.8054, 45.08136
774.2875, 37.38745
774.7696, 37.24408
775.2517, 43.99744
775.7338, 48.77130
776.2159, 45.73340
776.6981, 40.80493
777.1802, 41.37445
777.6623, 44.93970
778.1444, 46.12207
778.6265, 44.23254
779.1086, 39.22473
779.5908, 30.63831
780.0729, 22.15765
780.5550, 21.49341
781.0371, 29.66632
781.5192, 35.35699
782.0013, 37.73590
782.4835, 39.95013
782.9656, 43.85077
783.4477, 47.41602
783.9298, 46.81134
784.4119, 41.71448
784.8940, 42.60950
785.3762, 56.64062
785.8583, 67.84479
786.3404, 72.16357
786.8225, 71.32019
787.3046, 62.73083
787.7867, 50.73853
788.2689, 47.98242
788.7510, 63.30859
789.2331, 77.99658
789.7152, 71.42609
790.1973, 56.50366
790.6794, 52.69440
791.1616, 60.56250
791.6437, 76.50470
792.1258, 98.78802
792.6079, 117.9059
793.0900, 119.3545
793.5721, 105.0193
794.0543, 95.41113
794.5364, 90.58295
795.0185, 90.73529
795.5006, 98.04926
795.9827, 104.4630
796.4648, 100.6128
796.9470, 87.99335
797.4291, 83.92975
797.9112, 99.69427
798.3933, 107.8584
798.8754, 99.10638
799.3575, 90.51624
799.8397, 94.51752
800.3218, 104.9875
800.8039, 109.0740
801.2860, 102.9990
801.7681, 96.62018
802.2502, 94.82715
802.7324, 95.66132
803.2145, 99.64941
803.6966, 103.8663
804.1787, 101.2317
804.6608, 90.49097
805.1429, 79.98346
805.6251, 76.82416
806.1072, 78.79956
806.5893, 80.86969
807.0714, 83.37549
807.5535, 89.85345
808.0356, 100.8939
808.5178, 109.9030
808.9999, 112.3760
809.4820, 109.9188
809.9641, 106.9282
810.4462, 103.0798
810.9283, 98.42950
811.4105, 90.67523
811.8926, 85.77740
812.3747, 86.41638
812.8568, 91.00793
813.3389, 98.88007
813.8210, 109.8026
814.3032, 117.3828
814.7853, 118.7408
815.2674, 119.0541
815.7495, 118.7709
816.2316, 119.2541
816.7137, 123.8603
817.1959, 130.2499
817.6780, 130.7323
818.1601, 121.0372
818.6422, 111.5763
819.1243, 113.6743
819.6064, 120.4067
820.0886, 119.8417
820.5707, 113.7881
821.0528, 112.9880
821.5349, 120.8481
822.0170, 126.1369
822.4991, 113.7225
822.9813, 89.49707
823.4634, 82.11450
823.9455, 92.91528
824.4276, 102.8427
824.9097, 108.0320
825.3918, 110.3145
825.8740, 110.8544
826.3561, 109.9195
826.8382, 108.2169
827.3203, 104.2639
827.8024, 102.9957
828.2845, 106.3490
828.7667, 110.0441
829.2488, 113.5569
829.7309, 115.9902
830.2130, 114.5812
830.6951, 109.3190
831.1772, 109.4647
831.6594, 124.4755
832.1415, 136.4608
832.6236, 135.8983
833.1057, 129.8917
833.5878, 125.2478
834.0699, 122.1188
834.5521, 117.4931
835.0342, 109.7428
835.5163, 101.8055
835.9984, 95.55341
836.4805, 91.30933
836.9626, 89.89844
837.4448, 90.99274
837.9269, 94.48486
838.4090, 100.0361
838.8911, 103.1540
839.3732, 97.76495
839.8553, 87.28119
840.3375, 86.02698
840.8196, 94.28687
841.3017, 96.45636
841.7838, 89.02460
842.2659, 78.34753
842.7480, 66.87976
843.2302, 57.50464
843.7123, 58.52545
844.1944, 75.49548
844.6765, 84.09265
845.1586, 79.02142
845.6407, 73.46747
846.1229, 73.15442
846.6050, 73.43152
847.0871, 68.44080
847.5692, 58.81079
848.0513, 53.05865
848.5334, 57.14856
849.0156, 58.69977
849.4977, 53.61908
849.9798, 45.42511
850.4619, 34.14502
850.9440, 22.53931
851.4261, 15.75110
851.9083, 15.41150
852.3904, 18.32861
852.8725, 25.15515
853.3546, 31.87695
853.8367, 34.54309
854.3188, 33.74347
854.8010, 30.29138
855.2831, 24.83228
855.7652, 18.99158
856.2473, 13.55292
856.7294, 9.654175
857.2115, 11.04169
857.6937, 15.94824
858.1758, 16.26007
858.6579, 11.27014
859.1400, 3.979065
859.6221, 4.525330
860.1042, 12.81824
860.5864, 19.56256
861.0685, 24.54944
861.5506, 21.58582
862.0327, 7.283630
862.5148, 1.440125
862.9969, 0.6917110
863.4791, 6.334473
863.9612, 11.84344
864.4433, 15.74603
864.9254, 12.01282
865.4075, 8.203613
865.8896, 17.53979
866.3718, 5.446289
866.8539, 4.419067
867.3360, 4.842468
867.8181, 1.861328
868.3002, 15.30743
868.7823, 34.57520
869.2645, 50.67902
869.7466, 58.82220
870.2287, 66.56781
870.7108, 79.42139
871.1929, 90.85883
871.6750, 92.33234
872.1572, 88.02875
872.6393, 87.60651
873.1214, 94.22760
873.6035, 106.3266
874.0856, 127.1553
874.5677, 149.2850
875.0499, 162.7934
875.5320, 171.6841
876.0141, 184.3786
876.4962, 202.3843
876.9783, 222.8221
877.4604, 244.1102
877.9426, 265.2143
878.4247, 283.0301
878.9068, 299.1115
879.3889, 321.4708
879.8710, 349.6200
880.3531, 370.9190
880.8353, 379.7224
881.3174, 386.1918
881.7995, 402.5233
882.2816, 427.1407
882.7637, 450.4158
883.2458, 472.2446
883.7280, 492.3671
884.2101, 509.5006
884.6922, 528.9517
885.1743, 555.2206
885.6564, 584.3544
886.1385, 606.7399
886.6207, 618.2554
887.1028, 642.1944
887.5849, 693.4302
888.0670, 732.8301
888.5491, 743.0187
889.0313, 743.5430
889.5134, 749.4693
889.9955, 760.0963
890.4776, 772.3932
890.9597, 788.3621
891.4418, 801.8965
891.9240, 818.5309
892.4061, 825.6760
892.8882, 809.0363
893.3703, 783.0394
893.8524, 767.3323
894.3345, 764.0879
894.8167, 762.0276
895.2988, 760.7612
895.7809, 754.6076
896.2630, 735.9200
896.7451, 714.3353
897.2272, 702.1078
897.7094, 695.4550
898.1915, 681.7262
898.6736, 656.3541
899.1557, 630.3870
899.6378, 615.0534
900.1199, 602.6599
900.6021, 580.9963
901.0842, 554.7756
901.5663, 535.8057
902.0484, 524.3900
902.5305, 509.1460
903.0126, 482.4143
903.4948, 452.4865
903.9769, 430.6962
904.4590, 415.8665
904.9411, 407.4994
905.4232, 403.9839
905.9053, 394.0645
906.3875, 374.1447
906.8696, 351.6732
907.3517, 333.6462
907.8338, 318.7970
908.3159, 301.8891
908.7980, 282.8901
909.2802, 269.8461
909.7623, 263.9232
910.2444, 262.6420
910.7265, 266.3649
911.2086, 269.3002
911.6907, 262.1696
912.1729, 245.1491
912.6550, 233.4373
913.1371, 229.9148
913.6192, 222.1252
914.1013, 205.8558
914.5834, 188.8185
915.0656, 175.0616
915.5477, 164.7733
916.0298, 158.7580
916.5119, 158.8948
916.9940, 156.1691
917.4761, 147.1016
917.9583, 139.2216
918.4404, 134.5185
918.9225, 131.6457
919.4046, 132.0787
919.8867, 134.6909
920.3688, 132.3669
920.8510, 120.5299
921.3331, 110.9282
921.8152, 110.1047
922.2973, 106.3232
922.7794, 87.56281
923.2615, 68.30823
923.7437, 67.37439
924.2258, 83.35382
924.7079, 94.18439
925.1900, 91.52753
925.6721, 86.70062
926.1542, 82.21588
926.6364, 78.58069
927.1185, 76.86279
927.6006, 76.05090
928.0827, 73.89868
928.5648, 70.17340
929.0469, 68.05676
929.5291, 72.21899
930.0112, 75.28394
930.4933, 68.20654
930.9754, 59.24414
931.4575, 61.50781
931.9396, 71.12231
932.4218, 73.64612
932.9039, 63.96771
933.3860, 52.76959
933.8681, 49.75830
934.3502, 49.99524
934.8323, 47.22675
935.3145, 42.80432
935.7966, 40.06854
936.2787, 38.96912
936.7608, 35.84424
937.2429, 28.50293
937.7250, 22.79706
938.2072, 29.03662
938.6893, 40.93799
939.1714, 44.04498
939.6535, 39.54919
940.1356, 31.59229
940.6177, 21.86224
941.0999, 15.98669
941.5820, 18.32690
942.0641, 24.60040
942.5462, 27.80023
943.0283, 28.13153
943.5104, 25.95160
943.9926, 21.52252
944.4747, 18.07513
944.9568, 16.63721
945.4389, 14.87427
945.9210, 10.29065
946.4031, 4.800781
946.8853, 4.438354
947.3674, 9.171448
947.8495, 12.03595
948.3316, 12.40961
948.8137, 13.02637
949.2958, 14.95410
949.7780, 17.59174
950.2601, 20.71564
950.7422, 23.65039
951.2243, 21.85413
951.7064, 13.96887
952.1885, 10.98059
952.6707, 15.98407
953.1528, 17.55829
953.6349, 8.587158
954.1170, 2.514343
954.5991, 3.822815
955.0812, 4.032959
955.5634, 8.416138
956.0455, 9.323486
956.5276, 5.961182
957.0097, 5.871338
957.4918, 13.10773
957.9739, 5.724609
958.4561, 7.231995
958.9382, 10.02539
959.4203, 1.631958
959.9024, 0.1348880
960.3845, 9.633728
960.8666, 13.83496
961.3488, 5.164978
961.8309, 2.405640
962.3130, 2.260315
962.7951, 12.33191
963.2772, 13.75281
963.7593, 3.918213
964.2415, 0.5330810
964.7236, 4.625916
965.2057, 9.055786
965.6878, 10.25702
966.1699, 10.92883
966.6520, 13.74634
967.1342, 17.09143
967.6163, 16.83429
968.0984, 11.58081
968.5805, 7.984741
969.0626, 7.377258
969.5447, 7.808167
970.0269, 9.157776
970.5090, 9.114380
970.9911, 3.970398
971.4732, 2.826355
971.9553, 1.348267
972.4374, 13.03943
972.9196, 22.42407
973.4017, 22.22894
973.8838, 19.82642
974.3659, 14.46387
974.8480, 10.53931
975.3301, 12.27002
975.8123, 18.16760
976.2944, 24.92975
976.7765, 33.48663
977.2586, 38.32922
977.7407, 34.23340
978.2228, 30.79974
978.7050, 33.54480
979.1871, 37.95459
979.6692, 38.42053
980.1513, 36.36658
980.6334, 38.59814
981.1155, 49.10443
981.5977, 55.96436
982.0798, 48.40308
982.5619, 44.64734
983.0440, 61.26898
983.5261, 81.50201
984.0082, 85.95172
984.4904, 76.15363
984.9725, 65.06726
985.4546, 54.14978
985.9367, 48.14838
986.4188, 51.85980
986.9009, 57.42383
987.3831, 62.21356
987.8652, 65.24902
988.3473, 63.32324
988.8294, 57.75427
989.3115, 55.96790
989.7936, 62.18616
990.2758, 66.37854
990.7579, 61.56342
991.2400, 56.55420
991.7221, 59.31726
992.2042, 63.78687
992.6863, 60.69141
993.1685, 50.95654
993.6506, 44.04749
994.1327, 43.05701
994.6148, 45.33948
995.0969, 52.99597
995.5790, 60.06360
996.0612, 63.71204
996.5433, 63.54010
997.0254, 57.09656
997.5075, 46.29602
997.9896, 39.38580
998.4717, 40.68848
998.9539, 41.59473
999.4360, 34.98370
999.9181, 29.92072
1000.400, 36.18512
1000.882, 45.56769
1001.364, 46.27368
1001.847, 39.22693
1002.329, 34.78448
1002.811, 37.58624
1003.293, 39.92230
1003.775, 37.11633
1004.257, 33.74359
1004.739, 34.30688
1005.221, 35.29114
1005.703, 31.13495
1006.186, 22.80975
1006.668, 16.48743
1007.150, 14.90027
1007.632, 13.30963
1008.114, 7.328857
1008.596, 3.097046
1009.078, 6.962585
1009.560, 13.28107
1010.043, 15.35425
1010.525, 13.15558
1011.007, 9.660522
1011.489, 4.884277
1011.971, 2.083862
1012.453, 4.383911
1012.935, 7.209534
1013.417, 7.822327
1013.899, 7.235352
1014.382, 6.940491
1014.864, 6.522034
1015.346, 4.118958
1015.828, 0.4743040
1016.310, 4.722412
1016.792, 10.92987
1017.274, 12.91443
1017.756, 1.538086
1018.239, 11.61481
1018.721, 12.99957
1019.203, 5.647644
1019.685, 1.878845
1020.167, 5.376526
1020.649, 8.736389
1021.131, 9.978271
1021.613, 10.04620
1022.095, 7.038696
1022.578, 5.049927
1023.060, 9.557129
1023.542, 17.81427
1024.024, 22.43500
1024.506, 21.71063
1024.988, 19.68042
1025.470, 18.36005
1025.952, 14.63562
1026.435, 2.546448
1026.917, 7.959656
1027.399, 6.699524
1027.881, 1.665710
1028.363, 6.630188
1028.845, 6.576477
1029.327, 5.362305
1029.809, 3.549255
1030.292, 1.135559
1030.774, 3.043762
1031.256, 6.743408
1031.738, 9.366394
1032.220, 10.07440
1032.702, 6.387268
1033.184, 2.413513
1033.666, 7.488342
1034.148, 3.552795
1034.630, 2.271606
1035.113, 7.788635
1035.595, 13.96155
1036.077, 17.18359
1036.559, 19.01465
1037.041, 23.15393
1037.523, 29.91199
1038.005, 29.78851
1038.487, 15.15491
1038.970, 5.893127
1039.452, 7.116699
1039.934, 8.658508
1040.416, 5.416809
1040.898, 0.8455810
1041.380, 1.226685
1041.862, 0.8676150
1042.344, 1.342285
1042.826, 6.908203
1043.309, 11.23309
1043.791, 15.38501
1044.273, 15.50220
1044.755, 7.194580
1045.237, 1.441284
1045.719, 1.745544
1046.201, 4.493225
1046.683, 8.750488
1047.166, 9.937805
1047.648, 13.35217
1048.130, 21.69012
1048.612, 23.61108
1049.094, 13.10944
1049.576, 1.864014
1050.058, 0.1496580
1050.540, 4.245361
1051.022, 7.368286
1051.505, 8.879761
1051.987, 13.40314
1052.469, 21.89899
1052.951, 26.68549
1053.433, 25.49133
1053.915, 22.86127
1054.397, 21.78046
1054.879, 21.26263
1055.361, 19.37842
1055.844, 16.27588
1056.326, 13.05359
1056.808, 9.704590
1057.290, 10.43744
1057.772, 16.01685
1058.254, 20.87805
1058.736, 21.96094
1059.218, 22.76331
1059.701, 28.99677
1060.183, 37.72455
1060.665, 37.53595
1061.147, 30.37091
1061.629, 27.53699
1062.111, 29.60815
1062.593, 28.74945
1063.075, 22.17609
1063.557, 18.53931
1064.040, 27.98090
1064.522, 41.84991
1065.004, 43.68262
1065.486, 37.67725
1065.968, 33.66022
1066.450, 31.57501
1066.932, 27.66559
1067.414, 21.28290
1067.896, 15.72180
1068.379, 13.18256
1068.861, 12.63739
1069.343, 12.86432
1069.825, 14.37610
1070.307, 20.59680
1070.789, 27.65637
1071.271, 26.39981
1071.753, 17.65396
1072.236, 11.73425
1072.718, 13.77423
1073.200, 15.51566
1073.682, 7.234924
1074.164, 0.2821960
1074.646, 3.242462
1075.128, 12.05103
1075.610, 21.43790
1076.093, 29.22122
1076.575, 33.15784
1077.057, 32.61511
1077.539, 31.70676
1078.021, 33.00772
1078.503, 33.50244
1078.985, 31.38165
1079.467, 28.37366
1079.949, 25.37527
1080.432, 22.62036
1080.914, 20.03024
1081.396, 17.67139
1081.878, 16.91528
1082.360, 18.65637
1082.842, 21.01727
1083.324, 26.00674
1083.806, 28.81354
1084.288, 24.83881
1084.771, 18.72556
1085.253, 17.26169
1085.735, 19.84354
1086.217, 20.97037
1086.699, 20.54987
1087.181, 18.33740
1087.663, 12.16739
1088.145, 8.603149
1088.628, 9.639008
1089.110, 12.91476
1089.592, 17.99567
1090.074, 22.85556
1090.556, 22.86731
1091.038, 18.13800
1091.520, 13.24994
1092.002, 7.824280
1092.484, 3.752380
1092.967, 1.321625
1093.449, 1.888306
1093.931, 6.777130
1094.413, 11.41483
1094.895, 9.375275
1095.377, 3.078094
1095.859, 1.448181
1096.341, 4.045074
1096.823, 7.703613
1097.306, 12.24298
1097.788, 17.75305
1098.270, 24.04739
1098.752, 26.69809
1099.234, 21.77029
1099.716, 13.39429
1100.198, 5.772186
1100.680, 0.3243710
1101.163, 1.898560
1101.645, 7.503235
1102.127, 9.332520
1102.609, 6.644348
1103.091, 2.726746
1103.573, 0.6576230
1104.055, 1.206879
1104.537, 5.338104
1105.020, 12.20807
1105.502, 12.60468
1105.984, 10.18817
1106.466, 8.934418
1106.948, 8.886292
1107.430, 9.150696
1107.912, 9.463531
1108.394, 9.048218
1108.876, 4.325317
1109.359, 3.230865
1109.841, 13.56458
1110.323, 23.00742
1110.805, 21.94202
1111.287, 17.11334
1111.769, 16.62747
1112.251, 20.36768
1112.733, 25.02789
1113.215, 32.18268
1113.698, 35.51715
1114.180, 31.67294
1114.662, 29.12051
1115.144, 30.98788
1115.626, 32.81439
1116.108, 30.67422
1116.590, 27.48312
1117.072, 29.26523
1117.555, 36.06256
1118.037, 38.67673
1118.519, 36.16232
1119.001, 35.13535
1119.483, 36.82150
1119.965, 36.92886
1120.447, 33.61490
1120.929, 28.02960
1121.411, 20.78119
1121.894, 13.60355
1122.376, 12.05118
1122.858, 14.90509
1123.340, 16.02805
1123.822, 15.29855
1124.304, 13.31931
1124.786, 10.45862
1125.268, 7.913910
1125.750, 6.308868
1126.233, 6.213104
1126.715, 8.839783
1127.197, 12.94690
1127.679, 18.39948
1128.161, 22.87213
1128.643, 23.62082
1129.125, 22.05118
1129.607, 22.21896
1130.090, 24.24905
1130.572, 27.77679
1131.054, 37.18210
1131.536, 41.57007
1132.018, 27.93167
1132.500, 15.48315
1132.982, 18.76550
1133.464, 29.27350
1133.947, 39.80762
1134.429, 47.68872
1134.911, 45.93362
1135.393, 29.67307
1135.875, 17.72046
1136.357, 11.11569
1136.839, 10.04440
1137.321, 19.64450
1137.803, 27.23126
1138.286, 24.12341
1138.768, 16.55338
1139.250, 13.60300
1139.732, 14.80685
1140.214, 15.66867
1140.696, 16.06461
1141.178, 17.29175
1141.660, 19.55746
1142.142, 21.55618
1142.625, 22.95657
1143.107, 22.45065
1143.589, 18.86566
1144.071, 13.52701
1144.553, 7.316742
1145.035, 1.687683
1145.517, 1.965851
1145.999, 6.560150
1146.482, 11.40137
1146.964, 15.33746
1147.446, 17.42105
1147.928, 17.42166
1148.410, 16.53922
1148.892, 15.66815
1149.374, 14.24014
1149.856, 9.909515
1150.339, 6.504089
1150.821, 10.47845
1151.303, 16.40744
1151.785, 13.39224
1152.267, 3.793365
1152.749, 3.929779
1153.231, 22.66791
1153.713, 31.31912
1154.195, 12.26135
1154.677, 2.200287
1155.160, 0.1800230
1155.642, 7.020142
1156.124, 15.49548
1156.606, 22.18521
1157.088, 21.20947
1157.570, 13.65063
1158.052, 12.76608
1158.534, 20.92535
1159.017, 24.65381
1159.499, 22.60709
1159.981, 20.23126
1160.463, 19.12030
1160.945, 17.73804
1161.427, 14.63184
1161.909, 12.26578
1162.391, 17.06219
1162.874, 25.11835
1163.356, 22.02887
1163.838, 11.61478
1164.320, 4.425568
1164.802, 2.324677
1165.284, 8.077728
1165.766, 21.24301
1166.248, 30.44406
1166.730, 26.60583
1167.213, 20.19720
1167.695, 20.50705
1168.177, 21.42194
1168.659, 14.74908
1169.141, 7.458801
1169.623, 9.051086
1170.105, 17.91989
1170.587, 27.69305
1171.069, 37.82669
1171.552, 43.98526
1172.034, 44.95013
1172.516, 42.57141
1172.998, 34.01453
1173.480, 26.78497
1173.962, 25.18726
1174.444, 24.69733
1174.926, 20.29547
1175.409, 13.42139
1175.891, 8.908783
1176.373, 6.777496
1176.855, 7.743439
1177.337, 11.95493
1177.819, 11.67175
1178.301, 5.610443
1178.783, 1.191589
1179.266, 1.909821
1179.748, 4.301758
1180.230, 4.984741
1180.712, 4.595123
1181.194, 3.021454
1181.676, 1.835663
1182.158, 4.757477
1182.640, 9.851410
1183.122, 14.03058
1183.604, 15.92343
1184.087, 12.20496
1184.569, 0.3706670
1185.051, 6.893585
1185.533, 2.692444
1186.015, 9.233582
1186.497, 1.257233
1186.979, 11.70111
1187.461, 8.288177
1187.944, 0.9786380
1188.426, 3.353516
1188.908, 0.4925840
1189.390, 3.417755
1189.872, 14.82498
1190.354, 22.82663
1190.836, 27.73685
1191.318, 27.00131
1191.801, 19.11429
1192.283, 12.26190
1192.765, 11.27197
1193.247, 12.16345
1193.729, 9.904694
1194.211, 5.892853
1194.693, 2.393646
1195.175, 0.2996830
1195.657, 3.603241
1196.140, 10.01666
1196.622, 12.45956
1197.104, 10.35608
1197.586, 8.436493
1198.068, 8.744720
1198.550, 10.01016
1199.032, 12.32166
1199.514, 14.24274
1199.996, 15.27463
1200.479, 15.97400
1200.961, 16.11841
1201.443, 16.58215
1201.925, 20.53976
1202.407, 26.61859
1202.889, 24.15964
1203.371, 8.112854
1203.853, 0.2720950
1204.336, 0.1901250
1204.818, 5.608398
1205.300, 17.26126
1205.782, 23.76508
1206.264, 18.09198
1206.746, 10.67252
1207.228, 14.36328
1207.710, 24.54425
1208.193, 30.96991
1208.675, 33.90051
1209.157, 33.80853
1209.639, 30.88873
1210.121, 22.78339
1210.603, 11.91962
1211.085, 9.887939
1211.567, 21.41000
1212.049, 31.29648
1212.531, 29.49158
1213.014, 24.49664
1213.496, 19.21268
1213.978, 14.29163
1214.460, 7.662262
1214.942, 2.565704
1215.424, 8.591461
1215.906, 18.65347
1216.388, 22.92981
1216.871, 17.21490
1217.353, 13.21198
1217.835, 11.25241
1218.317, 8.925262
1218.799, 5.768097
1219.281, 2.548889
1219.763, 0.7919620
1220.245, 0.1622010
1220.728, 8.725037
1221.210, 20.08118
1221.692, 23.60275
1222.174, 22.26617
1222.656, 21.69711
1223.138, 21.36044
1223.620, 17.79773
1224.102, 13.15796
1224.584, 16.73108
1225.067, 30.00479
1225.549, 39.62668
1226.031, 39.47260
1226.513, 35.79208
1226.995, 26.21533
1227.477, 19.29642
1227.959, 21.35269
1228.441, 24.73273
1228.923, 23.03818
1229.406, 19.60571
1229.888, 20.62613
1230.370, 25.68216
1230.852, 27.02036
1231.334, 24.52835
1231.816, 20.24933
1232.298, 13.97836
1232.780, 10.60196
1233.263, 10.32709
1233.745, 10.53458
1234.227, 9.777679
1234.709, 8.053711
1235.191, 4.267700
1235.673, 0.7247310
1236.155, 0.8237920
1236.637, 3.9032001E-02
1237.120, 5.831909
1237.602, 12.88373
1238.084, 14.93198
1238.566, 12.35580
1239.048, 9.319305
1239.530, 6.009857
1240.012, 4.281128
1240.494, 3.319916
1240.976, 5.218445
1241.458, 10.84763
1241.941, 12.82480
1242.423, 7.105408
1242.905, 0.8432010
1243.387, 2.2186000E-02
1243.869, 0.0000000E+00
##END=



