##NAMES=Clinobarylite
##RRUFFID=R060606
##IDEAL CHEMISTRY=BaBe_2_Si_2_O_7_
##LOCALITY=Hackmann Valley, Yukspor Mountain, Khibiny, Kola, Russia
##OWNER=RRUFF
##SOURCE=Michael Scott
##DESCRIPTION=Radiating group of colorless flattened bladed crystals on white microcline.
##STATUS=The identification of this mineral is confirmed by single-crystal X-ray diffraction and chemical analysis.
##URL=rruff.info/R060606
##MEASURED CHEMISTRY=Ba_1.00_Be_2.00_Si_2.00_O_7_ ; trace amounts of Ti; BeO estimated by difference
187.7134, 0.0000000E+00
188.1956, 0.1717990
188.6777, 0.1618040
189.1598, 6.1179999E-02
189.6419, 0.7649080
190.1240, 2.186607
190.6061, 4.299934
191.0883, 6.717407
191.5704, 9.168709
192.0525, 11.67377
192.5346, 14.41248
193.0167, 17.49164
193.4988, 20.67667
193.9810, 22.97675
194.4631, 24.20148
194.9452, 25.50298
195.4273, 27.57496
195.9094, 30.38351
196.3915, 32.82908
196.8737, 34.48938
197.3558, 35.70999
197.8379, 37.82076
198.3200, 40.89978
198.8021, 44.43755
199.2842, 47.97947
199.7664, 51.53218
200.2485, 55.23526
200.7306, 59.05111
201.2127, 63.04100
201.6948, 67.65348
202.1769, 72.91644
202.6591, 78.66577
203.1412, 84.90032
203.6233, 91.77898
204.1054, 98.24750
204.5875, 104.4501
205.0696, 110.2164
205.5518, 113.4974
206.0339, 113.8072
206.5160, 112.8291
206.9981, 112.0267
207.4802, 111.2716
207.9623, 111.2702
208.4445, 112.3087
208.9266, 114.3196
209.4087, 116.8418
209.8908, 120.2391
210.3729, 123.6919
210.8550, 126.6811
211.3372, 129.3030
211.8193, 129.3951
212.3014, 126.2125
212.7835, 119.4829
213.2656, 111.0874
213.7477, 100.4856
214.2299, 88.86199
214.7120, 77.63004
215.1941, 66.22794
215.6762, 56.25756
216.1583, 47.98312
216.6404, 41.37778
217.1226, 35.66918
217.6047, 30.87617
218.0868, 26.65984
218.5689, 22.86939
219.0510, 19.61206
219.5331, 16.85487
220.0153, 14.61720
220.4974, 12.93147
220.9795, 11.29945
221.4616, 9.637558
221.9437, 8.100189
222.4258, 6.884804
222.9080, 6.145714
223.3901, 5.410385
223.8722, 4.537819
224.3543, 3.480080
224.8364, 2.607643
225.3185, 1.903618
225.8007, 1.404259
226.2828, 1.206352
226.7649, 1.539406
227.2470, 1.711838
227.7291, 1.471046
228.2112, 0.7279740
228.6934, 0.2372890
229.1755, 8.7761000E-02
229.6576, 0.1090930
230.1397, 9.2522003E-02
230.6218, 3.4720998E-02
231.1039, 5.2666001E-02
231.5861, 0.1524200
232.0682, 0.2517170
232.5503, 0.4730830
233.0324, 0.9534000
233.5145, 1.437256
233.9966, 1.568001
234.4788, 1.086815
234.9609, 0.7168810
235.4430, 0.7184070
235.9251, 1.191017
236.4072, 1.297287
236.8893, 0.8115690
237.3715, 0.1466290
237.8536, 0.1651150
238.3357, 8.0261000E-02
238.8178, 0.3191600
239.2999, 0.3908310
239.7820, 0.2604290
240.2642, 0.2460710
240.7463, 0.4067760
241.2284, 0.6369550
241.7105, 0.8095170
242.1926, 0.9151310
242.6747, 0.9863130
243.1569, 1.059715
243.6390, 1.160133
244.1211, 1.030479
244.6032, 0.4753720
245.0853, 0.1370160
245.5674, 0.3428420
246.0496, 9.2834003E-02
246.5317, 0.4648210
247.0138, 0.6524890
247.4959, 0.6663210
247.9780, 0.3961030
248.4601, 0.3300090
248.9423, 1.172195
249.4244, 1.735321
249.9065, 1.843727
250.3886, 2.023712
250.8707, 2.403252
251.3528, 2.987396
251.8350, 3.574272
252.3171, 4.122536
252.7992, 4.709587
253.2813, 5.433418
253.7634, 6.371101
254.2455, 7.261452
254.7277, 8.058952
255.2098, 8.765282
255.6919, 9.380424
256.1740, 9.885483
256.6561, 10.31988
257.1382, 10.71834
257.6204, 11.10352
258.1025, 11.39822
258.5846, 11.55811
259.0667, 11.59192
259.5488, 11.67953
260.0309, 11.84229
260.5131, 12.02657
260.9952, 12.14516
261.4773, 12.09266
261.9594, 12.28548
262.4415, 12.85830
262.9236, 13.77252
263.4058, 14.56123
263.8879, 15.17953
264.3700, 15.76426
264.8521, 16.41110
265.3342, 17.07576
265.8163, 17.93690
266.2985, 19.03484
266.7806, 20.34189
267.2627, 21.77396
267.7448, 23.38042
268.2269, 24.98705
268.7090, 26.40660
269.1912, 27.55660
269.6733, 28.99651
270.1554, 31.01715
270.6375, 33.33236
271.1196, 34.85239
271.6017, 35.71220
272.0839, 35.41021
272.5660, 33.35502
273.0481, 29.28419
273.5302, 25.09077
274.0123, 20.71089
274.4944, 16.43788
274.9766, 13.06339
275.4587, 10.64659
275.9408, 8.907761
276.4229, 7.832825
276.9050, 7.454445
277.3871, 7.270920
277.8693, 7.314865
278.3514, 7.458733
278.8335, 7.330780
279.3156, 6.851501
279.7977, 6.566193
280.2798, 6.897812
280.7620, 7.847450
281.2441, 8.548058
281.7262, 8.904892
282.2083, 9.093109
282.6904, 9.470436
283.1725, 10.09269
283.6547, 10.62421
284.1368, 10.84781
284.6189, 10.78315
285.1010, 10.71404
285.5831, 10.68832
286.0652, 10.59647
286.5474, 10.20583
287.0295, 9.518639
287.5116, 8.825272
287.9937, 8.261612
288.4758, 7.787132
288.9579, 7.206543
289.4401, 6.495522
289.9222, 5.776329
290.4043, 5.185394
290.8864, 4.707550
291.3685, 4.282158
291.8506, 3.944672
292.3328, 3.714745
292.8149, 3.542671
293.2970, 3.391182
293.7791, 3.184296
294.2612, 2.918037
294.7433, 2.654213
295.2255, 2.486755
295.7076, 2.393074
296.1897, 2.372650
296.6718, 2.535614
297.1539, 2.886345
297.6360, 3.261292
298.1182, 3.459877
298.6003, 3.544456
299.0824, 3.694740
299.5645, 3.945602
300.0466, 4.315598
300.5287, 4.942757
301.0109, 5.777077
301.4930, 6.486107
301.9751, 6.859573
302.4572, 6.979950
302.9393, 6.912766
303.4214, 6.586876
303.9036, 6.120148
304.3857, 5.684555
304.8678, 5.259209
305.3499, 4.724884
305.8320, 3.876610
306.3141, 2.974228
306.7963, 2.250656
307.2784, 1.696953
307.7605, 1.422691
308.2426, 1.647041
308.7247, 2.229950
309.2068, 2.836113
309.6890, 3.412292
310.1711, 3.868195
310.6532, 4.017128
311.1353, 3.749710
311.6174, 3.646606
312.0995, 4.275024
312.5817, 5.283783
313.0638, 6.114052
313.5459, 6.375420
314.0280, 6.517044
314.5101, 6.816910
314.9922, 7.301079
315.4744, 7.801575
315.9565, 8.165222
316.4386, 8.526924
316.9207, 9.034134
317.4028, 9.862167
317.8849, 10.73383
318.3671, 11.50361
318.8492, 12.18607
319.3313, 12.97144
319.8134, 13.83856
320.2955, 14.88372
320.7776, 16.17083
321.2598, 17.91985
321.7419, 19.70221
322.2240, 21.31038
322.7061, 22.82108
323.1882, 24.64082
323.6703, 27.28181
324.1525, 29.96117
324.6346, 32.23028
325.1167, 34.03012
325.5988, 35.46446
326.0809, 36.61189
326.5630, 37.40835
327.0452, 37.67738
327.5273, 37.52178
328.0094, 36.73387
328.4915, 35.19555
328.9736, 32.69882
329.4557, 29.95019
329.9379, 26.79401
330.4200, 23.42135
330.9021, 20.15748
331.3842, 16.72718
331.8663, 13.73578
332.3484, 11.38930
332.8306, 9.810753
333.3127, 8.321976
333.7948, 6.877274
334.2769, 5.557823
334.7590, 4.465851
335.2411, 3.605270
335.7233, 2.953514
336.2054, 2.563499
336.6875, 2.415154
337.1696, 2.220970
337.6517, 1.976997
338.1339, 1.698929
338.6160, 1.417236
339.0981, 1.150078
339.5802, 0.7491840
340.0623, 8.4220998E-02
340.5444, 0.6790010
341.0266, 0.8590240
341.5087, 0.3440320
341.9908, 0.1966170
342.4729, 0.3176190
342.9550, 1.9278999E-02
343.4371, 0.2775270
343.9193, 0.5638810
344.4014, 0.7891620
344.8835, 0.8295360
345.3656, 0.6861420
345.8477, 0.5073090
346.3298, 0.3629680
346.8120, 0.2418370
347.2941, 7.1175002E-02
347.7762, 0.1789170
348.2583, 0.3697740
348.7404, 0.2355040
349.2225, 0.1301420
349.7047, 0.3572160
350.1868, 0.4017490
350.6689, 0.1963960
351.1510, 0.4726790
351.6331, 1.577057
352.1152, 2.759262
352.5974, 3.685097
353.0795, 4.529892
353.5616, 5.565727
354.0437, 6.749870
354.5258, 8.213509
355.0079, 10.35039
355.4901, 13.01402
355.9722, 15.58562
356.4543, 17.66698
356.9364, 19.46751
357.4185, 21.23146
357.9006, 23.02197
358.3828, 24.71921
358.8649, 26.21962
359.3470, 27.58461
359.8291, 28.95131
360.3112, 30.33321
360.7933, 31.76775
361.2755, 33.30507
361.7576, 34.96039
362.2397, 36.63028
362.7218, 37.96143
363.2039, 39.39675
363.6860, 41.43093
364.1682, 44.21014
364.6503, 47.61620
365.1324, 51.56352
365.6145, 56.07401
366.0966, 61.12997
366.5787, 66.48730
367.0609, 72.53899
367.5430, 79.53659
368.0251, 87.90440
368.5072, 96.81644
368.9893, 106.2492
369.4714, 116.1390
369.9536, 126.0649
370.4357, 136.2815
370.9178, 146.3250
371.3999, 156.3345
371.8820, 168.0146
372.3641, 175.5487
372.8463, 179.0702
373.3284, 178.2964
373.8105, 172.4560
374.2926, 160.3722
374.7747, 145.6559
375.2568, 128.3473
375.7390, 108.3265
376.2211, 90.55789
376.7032, 74.74017
377.1853, 61.42693
377.6674, 51.06263
378.1495, 43.80116
378.6317, 37.93380
379.1138, 33.22680
379.5959, 29.58672
380.0780, 26.66608
380.5601, 24.50086
381.0422, 22.84082
381.5244, 21.64396
382.0065, 20.84340
382.4886, 20.11137
382.9707, 19.38393
383.4528, 18.79028
383.9349, 18.48195
384.4171, 18.45702
384.8992, 18.68430
385.3813, 19.16365
385.8634, 19.87950
386.3455, 20.79317
386.8276, 21.89684
387.3098, 23.28329
387.7919, 25.10760
388.2740, 27.28111
388.7561, 29.64488
389.2382, 32.43775
389.7203, 35.13687
390.2025, 37.25139
390.6846, 38.83827
391.1667, 40.22247
391.6488, 42.36452
392.1309, 43.93076
392.6130, 43.74118
393.0952, 41.25510
393.5773, 37.70639
394.0594, 32.93149
394.5415, 27.52546
395.0236, 22.59200
395.5057, 18.43864
395.9879, 14.84644
396.4700, 11.74694
396.9521, 9.141212
397.4342, 6.985046
397.9163, 5.291710
398.3984, 3.982368
398.8806, 3.054886
399.3627, 2.862091
399.8448, 2.741531
400.3269, 2.678993
400.8090, 2.626076
401.2911, 2.287560
401.7733, 1.341507
402.2554, 0.4914020
402.7375, 0.1691970
403.2196, 0.7244720
403.7017, 0.9617460
404.1838, 0.7690580
404.6660, 0.3209230
405.1481, 4.8186999E-02
405.6302, 0.3161770
406.1123, 0.5978780
406.5944, 0.9686050
407.0765, 1.435555
407.5587, 1.789406
408.0408, 2.031319
408.5229, 2.102501
409.0050, 1.832802
409.4871, 1.279404
409.9692, 0.9241490
410.4514, 0.9857710
410.9335, 1.174644
411.4156, 0.7508320
411.8977, 0.2225040
412.3798, 1.059380
412.8619, 1.126862
413.3441, 0.7608570
413.8262, 0.6383740
414.3083, 0.8722000
414.7904, 1.164017
415.2725, 1.148491
415.7546, 0.9782410
416.2368, 0.9701080
416.7189, 1.459976
417.2010, 2.030136
417.6831, 2.317474
418.1652, 2.331139
418.6473, 2.372673
419.1295, 2.491760
419.6116, 2.768196
420.0937, 3.270340
420.5758, 4.044472
421.0579, 5.009041
421.5400, 6.237923
422.0222, 7.645157
422.5043, 9.054726
422.9864, 10.27416
423.4685, 11.60439
423.9506, 13.16241
424.4327, 14.95026
424.9149, 16.96769
425.3970, 19.33578
425.8791, 21.85519
426.3612, 24.36347
426.8433, 26.82236
427.3254, 29.32067
427.8076, 31.99665
428.2897, 34.77876
428.7718, 37.09296
429.2539, 39.11969
429.7360, 40.26546
430.2181, 40.03504
430.7003, 38.28071
431.1824, 36.02422
431.6645, 33.14951
432.1466, 30.06696
432.6287, 27.41402
433.1108, 25.21156
433.5930, 23.50563
434.0751, 22.35339
434.5572, 21.71154
435.0393, 21.53620
435.5214, 21.83608
436.0035, 22.28297
436.4857, 22.64414
436.9678, 22.92552
437.4499, 23.16484
437.9320, 23.40841
438.4141, 23.53459
438.8962, 23.19375
439.3784, 22.58604
439.8605, 22.29955
440.3426, 22.79943
440.8247, 23.65986
441.3068, 24.58186
441.7889, 25.53697
442.2711, 26.47430
442.7532, 27.23847
443.2353, 28.02153
443.7174, 29.02299
444.1995, 30.74316
444.6816, 32.22015
445.1638, 33.27201
445.6459, 33.88312
446.1280, 34.04836
446.6101, 33.72324
447.0922, 32.98663
447.5743, 31.81583
448.0565, 30.05334
448.5386, 28.28605
449.0207, 26.44035
449.5028, 24.64629
449.9849, 23.09322
450.4670, 21.76477
450.9492, 20.67970
451.4313, 19.81723
451.9134, 19.19730
452.3955, 19.02808
452.8776, 19.35312
453.3597, 19.98447
453.8419, 20.84060
454.3240, 21.91182
454.8061, 23.09855
455.2882, 24.38475
455.7703, 25.77723
456.2524, 27.21566
456.7346, 28.73990
457.2167, 30.47140
457.6988, 32.80933
458.1809, 35.26036
458.6630, 37.35966
459.1451, 39.03738
459.6273, 39.47545
460.1094, 37.68836
460.5915, 34.39977
461.0736, 30.37560
461.5557, 25.27662
462.0378, 20.51039
462.5200, 16.89697
463.0021, 14.24544
463.4842, 12.26260
463.9663, 11.03566
464.4484, 10.25632
464.9305, 9.931442
465.4127, 10.08666
465.8948, 10.17205
466.3769, 9.967041
466.8590, 9.753639
467.3411, 9.736458
467.8232, 9.914986
468.3054, 10.25955
468.7875, 10.82581
469.2696, 11.56615
469.7517, 12.31058
470.2338, 13.05888
470.7159, 13.71190
471.1981, 14.18404
471.6802, 14.46091
472.1623, 14.98510
472.6444, 15.85048
473.1265, 16.69007
473.6086, 17.07549
474.0908, 17.01404
474.5729, 17.01110
475.0550, 17.23942
475.5371, 17.44079
476.0192, 17.12447
476.5013, 16.31817
476.9835, 15.27407
477.4656, 13.97511
477.9477, 12.57514
478.4298, 11.33988
478.9119, 10.28609
479.3940, 9.291504
479.8762, 8.153954
480.3583, 7.051750
480.8404, 6.226936
481.3225, 5.873795
481.8046, 5.628448
482.2867, 5.305206
482.7689, 4.949036
483.2510, 4.673248
483.7331, 4.573639
484.2152, 4.529663
484.6973, 4.512634
485.1794, 4.540245
485.6616, 4.437012
486.1437, 3.988792
486.6258, 3.545532
487.1079, 3.360603
487.5900, 3.500160
488.0721, 3.710861
488.5543, 3.986542
489.0364, 4.349007
489.5185, 4.762314
490.0006, 5.175308
490.4827, 5.759079
490.9648, 6.635529
491.4470, 7.788452
491.9291, 8.828438
492.4112, 9.738312
492.8933, 10.59541
493.3754, 11.57767
493.8575, 12.60986
494.3397, 13.32582
494.8218, 13.60861
495.3039, 13.60868
495.7860, 13.39959
496.2681, 13.05606
496.7502, 12.81590
497.2324, 12.86986
497.7145, 13.01154
498.1966, 12.98301
498.6787, 12.78400
499.1608, 12.83954
499.6429, 13.57793
500.1251, 14.52591
500.6072, 15.28409
501.0893, 15.53191
501.5714, 15.92435
502.0535, 16.55552
502.5356, 17.41734
503.0178, 18.51204
503.4999, 20.13839
503.9820, 21.69689
504.4641, 22.93789
504.9462, 23.83408
505.4283, 25.10757
505.9105, 26.76495
506.3926, 28.78603
506.8747, 31.21105
507.3568, 34.07795
507.8389, 37.04453
508.3210, 40.05518
508.8032, 43.10948
509.2853, 46.12966
509.7674, 49.12832
510.2495, 52.32876
510.7316, 56.12756
511.2137, 60.08594
511.6959, 63.35431
512.1780, 65.91580
512.6601, 67.93757
513.1422, 69.42680
513.6243, 70.48219
514.1064, 71.40272
514.5886, 72.49161
515.0707, 72.52294
515.5528, 70.74944
516.0349, 67.44254
516.5170, 62.97383
516.9991, 56.64442
517.4813, 50.00674
517.9634, 43.31131
518.4455, 36.63519
518.9276, 30.45619
519.4097, 24.58021
519.8918, 19.50215
520.3740, 15.51634
520.8561, 12.73643
521.3382, 10.60358
521.8203, 9.174881
522.3024, 8.324860
522.7845, 8.138573
523.2667, 8.862083
523.7488, 8.780525
524.2309, 7.311729
524.7130, 5.066788
525.1951, 3.492897
525.6772, 2.576622
526.1594, 1.993576
526.6415, 1.701332
527.1236, 1.576355
527.6057, 1.316269
528.0878, 0.9276280
528.5699, 0.6321870
529.0521, 0.5668640
529.5342, 0.6122740
530.0163, 0.6568830
530.4984, 0.7366410
530.9805, 0.7496870
531.4626, 0.4957580
531.9448, 0.1234050
532.4269, 6.2743999E-02
532.9090, 0.3178560
533.3911, 0.6163710
533.8732, 0.5410610
534.3553, 7.0641004E-02
534.8375, 0.2015760
535.3196, 0.1569750
535.8017, 8.6139999E-03
536.2838, 0.1145480
536.7659, 0.2152020
537.2480, 0.2383120
537.7302, 0.1717910
538.2123, 9.8953001E-02
538.6944, 0.1520460
539.1765, 0.3369670
539.6586, 0.4303590
540.1407, 0.3696210
540.6229, 0.2038730
541.1050, 6.5990002E-03
541.5871, 0.2088550
542.0692, 0.3741680
542.5513, 0.3976820
543.0334, 0.3632130
543.5156, 0.4412840
543.9977, 0.6505970
544.4798, 0.7624740
544.9619, 0.5085680
545.4440, 0.1142270
545.9261, 0.1543270
546.4083, 4.5891002E-02
546.8904, 7.5610001E-03
547.3725, 0.9817050
547.8546, 2.349144
548.3367, 3.006233
548.8188, 1.986832
549.3010, 1.084618
549.7831, 0.8090740
550.2652, 1.148239
550.7473, 1.247467
551.2294, 1.019798
551.7115, 0.6990050
552.1937, 0.4170070
552.6758, 0.1772000
553.1579, 6.0401998E-02
553.6400, 0.3165130
554.1221, 0.5136180
554.6042, 0.4881970
555.0864, 0.2813870
555.5685, 0.1652910
556.0506, 0.2817760
556.5327, 0.4523770
557.0148, 0.3885960
557.4969, 0.1485600
557.9791, 5.1704001E-02
558.4612, 1.9234000E-02
558.9433, 5.9135001E-02
559.4254, 2.3375999E-02
559.9075, 0.1387410
560.3896, 0.3033980
560.8718, 0.3737340
561.3539, 0.4539790
561.8360, 0.6308750
562.3181, 1.122070
562.8002, 1.394424
563.2823, 1.271873
563.7645, 0.9859920
564.2466, 0.8811800
564.7287, 0.9868320
565.2108, 1.221794
565.6929, 1.621880
566.1750, 2.129936
566.6572, 2.499092
567.1393, 2.715820
567.6214, 2.872070
568.1035, 2.961868
568.5856, 3.028061
569.0677, 3.279327
569.5499, 3.729767
570.0320, 4.200989
570.5141, 4.469711
570.9962, 4.655945
571.4783, 4.960129
571.9604, 5.468666
572.4426, 6.032852
572.9247, 6.666801
573.4068, 7.277367
573.8889, 7.712318
574.3710, 7.812790
574.8531, 7.834564
575.3353, 7.934883
575.8174, 8.088463
576.2995, 7.922813
576.7816, 7.289322
577.2637, 6.509193
577.7458, 5.689423
578.2280, 4.815636
578.7101, 3.984833
579.1922, 3.171700
579.6743, 2.456207
580.1564, 1.957687
580.6385, 1.666344
581.1207, 1.352898
581.6028, 0.9368210
582.0849, 0.5809020
582.5670, 0.5901180
583.0491, 0.8777310
583.5313, 1.166946
584.0134, 1.529732
584.4955, 1.686584
584.9776, 1.160278
585.4597, 9.6015997E-02
585.9418, 0.6911930
586.4240, 0.5533290
586.9061, 0.2283020
587.3882, 0.1771850
587.8703, 0.5579380
588.3524, 0.7889180
588.8345, 0.7005460
589.3167, 0.5018160
589.7988, 0.3424990
590.2809, 0.2093960
590.7630, 0.1450580
591.2451, 0.1492000
591.7272, 0.2268070
592.2094, 0.4666820
592.6915, 0.8964390
593.1736, 1.087669
593.6557, 0.7647550
594.1378, 0.1961290
594.6199, 8.8538997E-02
595.1021, 0.3870470
595.5842, 0.6314240
596.0663, 0.4067990
596.5484, 2.4704000E-02
597.0305, 0.1132280
597.5126, 3.5812002E-02
597.9948, 0.1205900
598.4769, 8.7158002E-02
598.9590, 0.4221570
599.4411, 0.7444380
599.9232, 1.060768
600.4053, 1.330223
600.8875, 1.569351
601.3696, 1.744118
601.8517, 1.799713
602.3338, 1.703697
602.8159, 1.579552
603.2980, 1.396034
603.7802, 1.213188
604.2623, 1.304214
604.7444, 1.710159
605.2265, 2.157173
605.7086, 2.495796
606.1907, 2.744392
606.6729, 2.958145
607.1550, 3.136024
607.6371, 3.321709
608.1192, 3.598793
608.6013, 3.884361
609.0834, 4.060791
609.5656, 4.097359
610.0477, 4.078094
610.5298, 3.943306
611.0119, 3.812675
611.4940, 3.825966
611.9761, 4.323074
612.4583, 4.623894
612.9404, 4.500092
613.4225, 4.143707
613.9046, 3.992592
614.3867, 4.201454
614.8688, 4.289627
615.3510, 4.056145
615.8331, 3.581459
616.3152, 3.409927
616.7973, 3.563316
617.2794, 3.762215
617.7615, 3.855942
618.2437, 3.842468
618.7258, 3.672447
619.2079, 3.332184
619.6900, 3.056442
620.1721, 3.153557
620.6542, 3.385040
621.1364, 3.443176
621.6185, 3.194893
622.1006, 2.908714
622.5827, 2.578484
623.0648, 2.321198
623.5469, 2.298698
624.0291, 2.803391
624.5112, 3.237511
624.9933, 3.575134
625.4754, 3.784927
625.9575, 3.698257
626.4396, 3.178261
626.9218, 2.768456
627.4039, 2.705246
627.8860, 2.933960
628.3681, 3.131020
628.8502, 3.294884
629.3323, 3.463387
629.8145, 3.782951
630.2966, 4.095810
630.7787, 4.021484
631.2608, 3.492615
631.7429, 2.997177
632.2250, 2.921204
632.7072, 3.059792
633.1893, 3.201508
633.6714, 3.343117
634.1535, 3.396683
634.6356, 3.293335
635.1177, 3.098694
635.5999, 2.912102
636.0820, 2.671097
636.5641, 2.547272
637.0462, 2.598213
637.5283, 2.777916
638.0104, 2.927498
638.4926, 3.038414
638.9747, 3.192230
639.4568, 3.494766
639.9389, 3.858902
640.4210, 3.970886
640.9031, 3.844910
641.3853, 3.641548
641.8674, 3.343636
642.3495, 3.101341
642.8316, 3.195274
643.3137, 3.688141
643.7958, 3.946693
644.2780, 3.520401
644.7601, 2.910751
645.2422, 2.531204
645.7243, 2.562904
646.2064, 2.607979
646.6885, 2.758209
647.1707, 2.877182
647.6528, 2.709427
648.1349, 2.080109
648.6170, 1.737701
649.0991, 1.902740
649.5812, 2.333130
650.0634, 2.453133
650.5455, 2.271317
651.0276, 2.068649
651.5097, 2.031929
651.9918, 2.077538
652.4739, 2.038887
652.9561, 1.893188
653.4382, 1.657532
653.9203, 1.143784
654.4024, 0.7531970
654.8845, 0.8407360
655.3666, 1.479485
655.8488, 1.904915
656.3309, 1.762215
656.8130, 1.518234
657.2951, 1.457741
657.7772, 1.664238
658.2593, 1.810982
658.7415, 1.844612
659.2236, 1.904877
659.7057, 2.231483
660.1878, 2.813515
660.6699, 3.135803
661.1520, 3.008163
661.6342, 2.822090
662.1163, 3.137909
662.5984, 3.841507
663.0805, 4.634163
663.5626, 5.424454
664.0447, 6.230263
664.5269, 7.107239
665.0090, 8.009987
665.4911, 8.832283
665.9732, 9.283615
666.4553, 9.901833
666.9374, 10.86942
667.4196, 12.18147
667.9017, 13.75390
668.3838, 15.55659
668.8659, 17.70412
669.3480, 20.29748
669.8301, 23.33481
670.3123, 26.62566
670.7944, 30.19534
671.2765, 33.92943
671.7586, 37.71275
672.2407, 41.64330
672.7228, 45.86916
673.2050, 50.45319
673.6871, 55.29916
674.1692, 60.47707
674.6513, 65.88773
675.1334, 71.36137
675.6155, 77.05388
676.0977, 82.61479
676.5798, 87.21732
677.0619, 91.81431
677.5440, 97.75500
678.0261, 105.1916
678.5082, 113.5285
678.9904, 122.7604
679.4725, 132.7517
679.9546, 143.4756
680.4367, 154.7580
680.9188, 166.8130
681.4009, 179.8253
681.8831, 193.4765
682.3652, 207.1144
682.8473, 220.7750
683.3294, 233.9583
683.8115, 247.0955
684.2936, 259.2395
684.7758, 270.6286
685.2579, 281.1270
685.7400, 288.3955
686.2221, 292.7613
686.7042, 292.6562
687.1863, 287.2547
687.6685, 275.8711
688.1506, 261.7752
688.6327, 244.2086
689.1148, 224.9955
689.5969, 205.1570
690.0790, 184.6567
690.5612, 165.3456
691.0433, 147.3596
691.5254, 130.9947
692.0075, 117.3055
692.4896, 105.7424
692.9717, 95.45414
693.4539, 86.35486
693.9360, 78.21719
694.4181, 71.23217
694.9002, 65.13585
695.3823, 59.49501
695.8644, 54.07762
696.3466, 49.43446
696.8287, 45.93320
697.3108, 43.14841
697.7929, 40.02358
698.2750, 36.38988
698.7571, 33.10355
699.2393, 30.45860
699.7214, 28.31697
700.2035, 26.40945
700.6856, 24.70599
701.1677, 23.06072
701.6498, 21.34325
702.1320, 19.67554
702.6141, 18.24091
703.0962, 17.01660
703.5783, 15.79934
704.0604, 14.29188
704.5425, 12.87180
705.0247, 11.82363
705.5068, 11.26398
705.9889, 10.54109
706.4710, 9.505943
706.9531, 8.492035
707.4352, 7.714783
707.9174, 7.187103
708.3995, 6.809952
708.8816, 6.610062
709.3637, 6.428131
709.8458, 6.154472
710.3279, 5.767723
710.8101, 5.139435
711.2922, 4.179703
711.7743, 3.315231
712.2564, 2.940338
712.7385, 2.822517
713.2206, 2.684937
713.7028, 2.446518
714.1849, 2.198975
714.6670, 1.892120
715.1491, 1.615463
715.6312, 1.512878
716.1133, 1.673996
716.5955, 1.758049
717.0776, 1.695465
717.5597, 1.536720
718.0418, 1.373016
718.5239, 1.204414
719.0060, 1.052399
719.4882, 0.9195790
719.9703, 0.8107680
720.4524, 0.6688390
720.9345, 0.5469060
721.4166, 0.6004330
721.8987, 1.180153
722.3809, 1.687935
722.8630, 1.717468
723.3451, 1.339661
723.8272, 1.248940
724.3093, 1.777191
724.7914, 2.131874
725.2736, 1.904449
725.7557, 1.173996
726.2378, 1.036255
726.7199, 1.557526
727.2020, 2.133369
727.6841, 2.272423
728.1663, 2.147514
728.6484, 2.252693
729.1305, 2.608040
729.6126, 2.860413
730.0947, 2.768112
730.5768, 2.486610
731.0590, 2.038849
731.5411, 1.318130
732.0232, 0.8853610
732.5053, 1.106407
732.9874, 1.452332
733.4695, 1.599808
733.9517, 1.471825
734.4338, 1.438126
734.9159, 1.540398
735.3980, 1.616776
735.8801, 1.409386
736.3622, 1.009987
736.8444, 0.8268510
737.3265, 0.9519040
737.8086, 1.156265
738.2907, 1.231026
738.7728, 1.253799
739.2549, 1.325455
739.7371, 1.491615
740.2192, 1.680290
740.7013, 1.900131
741.1834, 2.120300
741.6655, 2.299431
742.1476, 2.406555
742.6298, 2.522423
743.1119, 2.602699
743.5940, 2.764000
744.0761, 3.404991
744.5582, 4.438614
745.0403, 4.994675
745.5225, 4.632896
746.0046, 3.986801
746.4867, 3.845383
746.9688, 4.016396
747.4509, 4.089294
747.9330, 3.828957
748.4152, 3.507057
748.8973, 3.203369
749.3794, 2.917229
749.8615, 2.657845
750.3436, 2.489098
750.8257, 2.224373
751.3079, 1.792290
751.7900, 1.244164
752.2721, 0.7647320
752.7542, 0.3526760
753.2363, 4.3110000E-03
753.7184, 0.3495180
754.2006, 0.6139220
754.6827, 0.6009900
755.1648, 0.3834080
755.6469, 0.2651440
756.1290, 0.5860440
756.6111, 0.8810120
757.0933, 0.9067080
757.5754, 0.6581880
758.0575, 0.2890400
758.5396, 0.4254990
759.0217, 0.8969350
759.5038, 0.8314360
759.9860, 0.2832640
760.4681, 0.1709900
760.9502, 0.5366520
761.4323, 0.7159350
761.9144, 0.5690840
762.3965, 0.2193980
762.8787, 0.1821670
763.3608, 0.6106110
763.8429, 0.8855900
764.3250, 0.7466660
764.8071, 0.5293730
765.2892, 0.4841460
765.7714, 0.6632770
766.2535, 0.7460020
766.7356, 0.6993100
767.2177, 0.5831600
767.6998, 0.3768160
768.1819, 6.1569002E-02
768.6641, 2.6260000E-02
769.1462, 0.1380620
769.6283, 0.3582840
770.1104, 0.4315870
770.5925, 0.4569550
771.0746, 0.6507950
771.5568, 1.040863
772.0389, 1.422577
772.5210, 1.813232
773.0031, 2.036880
773.4852, 1.890221
773.9673, 1.116989
774.4495, 0.7263340
774.9316, 0.9404450
775.4137, 1.324753
775.8958, 1.576477
776.3779, 1.689522
776.8600, 1.776176
777.3422, 1.861069
777.8243, 1.820862
778.3064, 1.278214
778.7885, 0.5843890
779.2706, 0.5344090
779.7527, 1.382072
780.2349, 2.056854
780.7170, 1.771088
781.1991, 1.126923
781.6812, 0.6176680
782.1633, 0.3316500
782.6454, 0.2159270
783.1276, 0.4149930
783.6097, 0.6117400
784.0918, 0.3959580
784.5739, 0.2310410
785.0560, 0.4713520
785.5381, 0.2112350
786.0203, 0.1594770
786.5024, 0.2309570
786.9845, 9.8517999E-02
787.4666, 0.1077800
787.9487, 0.4243470
788.4308, 0.6008220
788.9130, 0.4163740
789.3951, 7.4409001E-02
789.8772, 0.1886060
790.3593, 0.3164220
790.8414, 0.4581380
791.3235, 0.5887530
791.8057, 0.8025820
792.2878, 1.280731
792.7699, 1.980614
793.2520, 2.383499
793.7341, 2.360924
794.2162, 2.247185
794.6984, 2.436279
795.1805, 2.748489
795.6626, 2.826065
796.1447, 2.428810
796.6268, 2.211197
797.1089, 2.723633
797.5911, 3.386284
798.0732, 3.497940
798.5553, 2.676514
799.0374, 2.227104
799.5195, 2.330994
800.0016, 2.621094
800.4838, 2.576408
800.9659, 2.267731
801.4480, 2.131973
801.9301, 2.266266
802.4122, 2.502815
802.8943, 2.843697
803.3765, 3.133751
803.8586, 3.152374
804.3407, 2.651047
804.8228, 2.229958
805.3049, 2.010544
805.7870, 1.926437
806.2692, 1.938759
806.7513, 2.082153
807.2334, 2.184967
807.7155, 2.231865
808.1976, 2.277420
808.6797, 2.379951
809.1619, 2.555603
809.6440, 2.913879
810.1261, 3.553596
810.6082, 4.066650
811.0903, 4.109100
811.5724, 3.870827
812.0546, 3.560059
812.5367, 3.188087
813.0188, 2.845413
813.5009, 2.532318
813.9830, 2.261299
814.4651, 2.063713
814.9473, 1.930748
815.4294, 1.756386
815.9115, 1.548843
816.3936, 1.414436
816.8757, 1.567947
817.3578, 1.858162
817.8400, 1.994850
818.3221, 1.865425
818.8042, 1.665314
819.2863, 1.447662
819.7684, 1.279945
820.2505, 1.231529
820.7327, 1.398361
821.2148, 1.415123
821.6969, 1.211823
822.1790, 0.9798510
822.6611, 0.9762040
823.1432, 1.148674
823.6254, 1.128235
824.1075, 0.8505170
824.5896, 0.5986330
825.0717, 0.7102740
825.5538, 0.9551320
826.0359, 1.067947
826.5181, 0.9744030
827.0002, 0.8483810
827.4823, 0.6953430
827.9644, 0.5455930
828.4465, 0.4015730
828.9286, 0.2397990
829.4108, 0.2392270
829.8929, 0.4308240
830.3750, 0.6587070
830.8571, 0.6390000
831.3392, 0.5797810
831.8214, 1.135452
832.3035, 2.399078
832.7856, 3.263779
833.2677, 2.669685
833.7498, 1.653328
834.2319, 0.9510730
834.7141, 0.6879120
835.1962, 0.6151500
835.6783, 0.8289870
836.1604, 1.065483
836.6425, 1.170952
837.1246, 1.146072
837.6068, 0.9337690
838.0889, 0.5317080
838.5710, 0.2649770
839.0531, 0.5273440
839.5352, 0.9688190
840.0173, 1.261017
840.4995, 1.377129
840.9816, 1.294899
841.4637, 0.6695790
841.9458, 0.1760480
842.4279, 0.1394040
842.9100, 0.5571750
843.3922, 0.8210750
843.8743, 0.9195710
844.3564, 0.9311830
844.8385, 0.9019620
845.3206, 0.8127440
845.8027, 0.5523220
846.2849, 0.1722870
846.7670, 5.2749999E-02
847.2491, 0.2543490
847.7312, 0.5523680
848.2133, 0.4993060
848.6954, 0.1154170
849.1776, 0.2606350
849.6597, 0.7552410
850.1418, 0.9456560
850.6239, 0.5558010
851.1060, 0.1741410
851.5881, 0.3525770
852.0703, 4.6394002E-02
852.5524, 0.1841130
853.0345, 9.1484003E-02
853.5166, 0.4253230
853.9987, 0.3449400
854.4808, 2.4110000E-03
854.9630, 0.2420120
855.4451, 0.1744380
855.9272, 9.4048001E-02
856.4093, 4.1931000E-02
856.8914, 2.6230000E-02
857.3735, 9.0897001E-02
857.8557, 0.2503970
858.3378, 0.3168490
858.8199, 0.2256470
859.3020, 4.9736001E-02
859.7841, 0.1707840
860.2662, 0.3855440
860.7484, 0.4801180
861.2305, 0.3384250
861.7126, 0.1884610
862.1947, 8.1321999E-02
862.6768, 3.2265000E-02
863.1589, 8.7821998E-02
863.6411, 0.3822860
864.1232, 0.3426360
864.6053, 0.2025450
865.0874, 0.8037640
865.5695, 0.8062520
866.0516, 0.3742450
866.5338, 2.1820001E-03
867.0159, 0.2345890
867.4980, 0.3346860
867.9801, 0.1469420
868.4622, 8.8913001E-02
868.9443, 0.1107560
869.4265, 0.3287730
869.9086, 0.4519880
870.3907, 0.1247250
870.8728, 0.3104250
871.3549, 0.6468810
871.8370, 0.8694610
872.3192, 0.6845780
872.8013, 6.8916000E-02
873.2834, 0.4460530
873.7655, 0.3138430
874.2476, 6.4521998E-02
874.7297, 0.3370210
875.2119, 0.4720610
875.6940, 0.4502640
876.1761, 0.1756360
876.6582, 0.1685410
877.1403, 0.5553970
877.6224, 0.9698790
878.1046, 1.220444
878.5867, 1.308029
879.0688, 1.218742
879.5509, 0.7561570
880.0330, 0.2233120
880.5151, 0.1364970
880.9973, 0.3848570
881.4794, 0.5335010
881.9615, 0.2518540
882.4436, 6.5460000E-03
882.9257, 8.4220998E-02
883.4078, 4.3499999E-04
883.8900, 0.2472080
884.3721, 0.7136540
884.8542, 1.011749
885.3363, 0.9655080
885.8184, 0.7933580
886.3005, 0.8846590
886.7827, 1.158615
887.2648, 1.426506
887.7469, 1.688278
888.2290, 1.838112
888.7111, 1.651306
889.1932, 1.382957
889.6754, 1.430748
890.1575, 1.946251
890.6396, 2.369919
891.1217, 2.665085
891.6038, 2.836830
892.0859, 2.778664
892.5681, 2.600861
893.0502, 2.722397
893.5323, 3.266098
894.0144, 3.722115
894.4965, 3.627518
894.9786, 3.357986
895.4608, 3.233932
895.9429, 3.331268
896.4250, 3.385094
896.9071, 3.374458
897.3892, 3.414200
897.8713, 3.632431
898.3535, 3.979630
898.8356, 4.128830
899.3177, 4.086533
899.7998, 4.008766
900.2819, 4.132011
900.7640, 4.209747
901.2462, 3.860016
901.7283, 3.155861
902.2104, 2.943542
902.6925, 3.590347
903.1746, 4.249008
903.6567, 4.700577
904.1389, 4.967773
904.6210, 5.179924
905.1031, 5.350098
905.5852, 5.319771
906.0673, 4.772591
906.5494, 4.333580
907.0316, 4.713768
907.5137, 5.552872
907.9958, 6.256958
908.4779, 6.686623
908.9600, 7.026802
909.4421, 7.159393
909.9243, 7.256165
910.4064, 7.602570
910.8885, 8.213531
911.3706, 8.762489
911.8527, 9.165627
912.3348, 9.674118
912.8170, 10.67850
913.2991, 11.87012
913.7812, 12.88027
914.2633, 13.61713
914.7454, 14.28880
915.2275, 14.88646
915.7097, 15.46235
916.1918, 15.96043
916.6739, 16.39960
917.1560, 17.52766
917.6381, 19.33888
918.1202, 21.11596
918.6024, 22.25791
919.0845, 23.17826
919.5666, 24.22970
920.0487, 25.43544
920.5308, 26.88004
921.0129, 28.82148
921.4951, 30.72780
921.9772, 32.41055
922.4593, 33.98317
922.9414, 35.82506
923.4235, 37.95396
923.9056, 40.23993
924.3878, 42.71392
924.8699, 45.12156
925.3520, 47.01941
925.8341, 48.74696
926.3162, 50.87083
926.7983, 53.61168
927.2805, 56.73103
927.7626, 60.57368
928.2447, 64.41601
928.7268, 67.42519
929.2089, 69.58235
929.6910, 71.75259
930.1732, 74.02544
930.6553, 76.11474
931.1374, 78.04862
931.6195, 79.39915
932.1016, 79.65705
932.5837, 78.73118
933.0659, 77.17392
933.5480, 74.93354
934.0301, 72.29562
934.5122, 69.31566
934.9943, 65.99690
935.4764, 62.42809
935.9586, 58.58370
936.4407, 55.16383
936.9228, 52.29489
937.4049, 50.12907
937.8870, 49.00829
938.3691, 48.68263
938.8513, 48.60400
939.3334, 48.24600
939.8155, 48.68264
940.2976, 50.09949
940.7797, 52.28503
941.2618, 54.89261
941.7440, 57.93394
942.2261, 61.54068
942.7082, 65.77779
943.1903, 70.56516
943.6724, 76.02158
944.1545, 81.80631
944.6367, 87.55618
945.1188, 93.04486
945.6009, 99.07114
946.0830, 105.7492
946.5651, 112.8093
947.0472, 119.9682
947.5294, 127.3849
948.0115, 135.6491
948.4936, 144.7554
948.9757, 154.3522
949.4578, 163.9309
949.9399, 174.1616
950.4221, 185.6173
950.9042, 198.2292
951.3863, 211.5261
951.8684, 226.4470
952.3505, 240.3775
952.8326, 252.9342
953.3148, 264.1988
953.7969, 275.2919
954.2790, 285.4376
954.7611, 291.1862
955.2432, 291.4431
955.7253, 287.8725
956.2075, 281.5852
956.6896, 272.0730
957.1717, 258.2354
957.6538, 238.5721
958.1359, 219.2175
958.6180, 199.9522
959.1002, 181.4217
959.5823, 163.9074
960.0644, 147.4160
960.5465, 132.1784
961.0286, 118.2269
961.5107, 106.0840
961.9929, 96.08484
962.4750, 87.69933
962.9571, 80.96475
963.4392, 75.67130
963.9213, 70.84169
964.4034, 66.55386
964.8856, 62.40902
965.3677, 58.26849
965.8498, 54.35599
966.3319, 50.93479
966.8140, 47.95351
967.2961, 45.53433
967.7783, 43.99543
968.2604, 42.26005
968.7425, 39.42061
969.2246, 36.53178
969.7067, 34.40483
970.1888, 33.17027
970.6710, 32.09239
971.1531, 31.19984
971.6352, 30.24221
972.1173, 28.92351
972.5994, 27.49281
973.0815, 26.25745
973.5637, 25.20826
974.0458, 24.19395
974.5279, 23.04022
975.0100, 22.12866
975.4921, 21.61243
975.9742, 21.27464
976.4564, 20.70603
976.9385, 19.90187
977.4206, 18.72305
977.9027, 17.01488
978.3848, 15.34657
978.8669, 14.37231
979.3491, 13.70387
979.8312, 12.79745
980.3133, 11.32287
980.7954, 10.26395
981.2775, 9.750099
981.7596, 9.455589
982.2418, 9.209824
982.7239, 8.986282
983.2060, 8.617783
983.6881, 8.118896
984.1702, 7.637085
984.6523, 7.205307
985.1345, 6.870766
985.6166, 6.712738
986.0987, 6.676636
986.5808, 6.510132
987.0629, 6.045395
987.5450, 6.065697
988.0272, 6.896156
988.5093, 7.859772
988.9914, 7.876190
989.4735, 7.265633
989.9556, 6.639587
990.4377, 6.105034
990.9199, 5.680573
991.4020, 5.448204
991.8841, 5.271378
992.3662, 5.066948
992.8483, 4.839272
993.3304, 4.545151
993.8126, 4.177704
994.2947, 3.860535
994.7768, 3.686295
995.2589, 3.593063
995.7410, 3.586205
996.2231, 3.598442
996.7053, 3.439690
997.1874, 2.753654
997.6695, 2.312431
998.1516, 2.285454
998.6337, 2.466995
999.1158, 2.614929
999.5980, 2.708130
1000.080, 2.559242
1000.562, 2.114227
1001.044, 1.665215
1001.526, 1.407150
1002.009, 1.257927
1002.491, 1.156227
1002.973, 1.096436
1003.455, 1.128136
1003.937, 1.302399
1004.419, 1.405045
1004.901, 1.290306
1005.383, 1.083549
1005.865, 1.053741
1006.348, 1.161331
1006.830, 1.292427
1007.312, 1.481949
1007.794, 1.581749
1008.276, 1.459816
1008.758, 1.278229
1009.240, 1.198799
1009.722, 1.225677
1010.205, 1.366341
1010.687, 1.647583
1011.169, 1.792732
1011.651, 1.432663
1012.133, 0.8942180
1012.615, 0.4511180
1013.097, 0.1384960
1013.579, 9.4948001E-02
1014.061, 0.6478200
1014.544, 0.9447940
1015.026, 0.6668090
1015.508, 4.7378998E-02
1015.990, 0.4634930
1016.472, 0.8319170
1016.954, 0.8656080
1017.436, 0.3360980
1017.918, 0.1037600
1018.401, 7.7293001E-02
1018.883, 0.4721220
1019.365, 0.6501690
1019.847, 0.5150760
1020.329, 0.6306380
1020.811, 1.059517
1021.293, 1.393532
1021.775, 1.239258
1022.257, 0.8604890
1022.740, 0.6747130
1023.222, 0.6371540
1023.704, 0.5501400
1024.186, 0.1430050
1024.668, 3.9733998E-02
1025.150, 0.2261890
1025.632, 0.6580120
1026.114, 0.7758940
1026.596, 0.6086650
1027.079, 0.4450000
1027.561, 0.3424380
1028.043, 0.1481700
1028.525, 0.5060730
1029.007, 1.130730
1029.489, 1.220116
1029.971, 0.7000050
1030.453, 0.3978730
1030.936, 0.3906330
1031.418, 0.3306270
1031.900, 1.9797999E-02
1032.382, 0.4156570
1032.864, 0.3078840
1033.346, 0.1406710
1033.828, 0.5485380
1034.310, 0.8494800
1034.792, 0.9817810
1035.275, 0.8564070
1035.757, 0.6222990
1036.239, 0.3228530
1036.721, 3.9398000E-02
1037.203, 6.7261003E-02
1037.685, 0.6549380
1038.167, 1.154671
1038.649, 1.010460
1039.132, 0.7251210
1039.614, 0.6546330
1040.096, 0.8035510
1040.578, 1.109650
1041.060, 1.749435
1041.542, 2.031197
1042.024, 1.736588
1042.506, 1.234894
1042.989, 1.017334
1043.471, 1.023674
1043.953, 1.159340
1044.435, 1.435600
1044.917, 1.658676
1045.399, 1.742424
1045.881, 1.764236
1046.363, 1.777679
1046.845, 1.768562
1047.328, 1.521347
1047.810, 1.061737
1048.292, 0.8682170
1048.774, 1.353760
1049.256, 1.921150
1049.738, 2.127037
1050.220, 2.088783
1050.702, 1.980629
1051.184, 1.770424
1051.667, 1.609711
1052.149, 1.481010
1052.631, 1.466835
1053.113, 1.708008
1053.595, 2.085617
1054.077, 2.262550
1054.559, 2.299271
1055.041, 2.673096
1055.523, 4.435638
1056.006, 5.453178
1056.488, 4.904648
1056.970, 3.529922
1057.452, 2.746803
1057.934, 2.520256
1058.416, 2.571922
1058.898, 2.883888
1059.380, 3.242043
1059.863, 3.501457
1060.345, 3.705574
1060.827, 3.885239
1061.309, 4.043404
1061.791, 4.168015
1062.273, 4.262253
1062.755, 4.289742
1063.237, 4.162445
1063.719, 4.053345
1064.202, 4.300728
1064.684, 4.751244
1065.166, 5.109467
1065.648, 5.171791
1066.130, 5.347977
1066.612, 5.778488
1067.094, 6.184921
1067.576, 6.247833
1068.059, 6.066772
1068.541, 6.313095
1069.023, 6.930939
1069.505, 7.391251
1069.987, 7.262672
1070.469, 7.015205
1070.951, 6.825378
1071.433, 6.707214
1071.916, 6.703857
1072.398, 6.832512
1072.880, 6.889679
1073.362, 6.823097
1073.844, 6.822350
1074.326, 7.292259
1074.808, 7.842171
1075.290, 8.006943
1075.772, 7.728317
1076.255, 7.628204
1076.737, 7.829002
1077.219, 7.984032
1077.701, 8.011078
1078.183, 7.910210
1078.665, 7.599297
1079.147, 7.184486
1079.629, 6.960953
1080.111, 7.111526
1080.594, 7.152496
1081.076, 6.690178
1081.558, 6.277397
1082.040, 6.307281
1082.522, 6.707161
1083.004, 6.845085
1083.486, 6.729820
1083.968, 6.570580
1084.450, 6.501778
1084.933, 6.426094
1085.415, 6.182610
1085.897, 5.937378
1086.379, 5.986366
1086.861, 6.475761
1087.343, 6.568169
1087.825, 6.183525
1088.307, 5.695488
1088.790, 5.428665
1089.272, 5.246811
1089.754, 4.916214
1090.236, 4.467178
1090.718, 4.239105
1091.200, 4.558189
1091.682, 4.619461
1092.164, 4.223763
1092.646, 3.679657
1093.129, 3.257904
1093.611, 2.961555
1094.093, 2.974190
1094.575, 3.367363
1095.057, 3.519211
1095.539, 2.775978
1096.021, 2.125427
1096.503, 2.056328
1096.986, 2.389954
1097.468, 2.430351
1097.950, 2.211601
1098.432, 2.041809
1098.914, 2.075768
1099.396, 2.031876
1099.878, 1.532280
1100.360, 0.9715880
1100.843, 0.7933040
1101.325, 1.082359
1101.807, 1.081772
1102.289, 0.7435230
1102.771, 0.4259340
1103.253, 0.3413470
1103.735, 0.4218220
1104.217, 0.7392580
1104.699, 1.104439
1105.182, 1.161392
1105.664, 0.5042720
1106.146, 0.2398760
1106.628, 0.5129240
1107.110, 0.8703230
1107.592, 0.8291630
1108.074, 0.6073760
1108.556, 0.6848750
1109.038, 1.024567
1109.521, 1.323181
1110.003, 1.546692
1110.485, 1.544365
1110.967, 1.125648
1111.449, 0.6745000
1111.931, 0.9119110
1112.413, 1.650352
1112.895, 1.972206
1113.377, 1.765823
1113.860, 1.608368
1114.342, 1.964111
1114.824, 2.352036
1115.306, 2.511612
1115.788, 2.494156
1116.270, 2.428757
1116.752, 2.318138
1117.234, 2.267380
1117.717, 2.286621
1118.199, 2.443909
1118.681, 2.926636
1119.163, 3.486992
1119.645, 3.900337
1120.127, 4.152039
1120.609, 4.266655
1121.091, 4.202667
1121.573, 4.273849
1122.056, 4.733437
1122.538, 5.197258
1123.020, 5.105186
1123.502, 4.711365
1123.984, 4.409157
1124.466, 4.309616
1124.948, 4.288536
1125.430, 4.427544
1125.913, 4.490768
1126.395, 4.268105
1126.877, 3.884735
1127.359, 3.533676
1127.841, 3.262405
1128.323, 3.203758
1128.805, 3.729500
1129.287, 3.998672
1129.770, 3.814377
1130.252, 3.493843
1130.734, 3.350235
1131.216, 3.333374
1131.698, 3.207512
1132.180, 2.984665
1132.662, 2.831291
1133.144, 2.864639
1133.626, 2.952759
1134.109, 3.116356
1134.591, 3.250473
1135.073, 3.112968
1135.555, 2.742867
1136.037, 2.692429
1136.519, 3.035057
1137.001, 3.324005
1137.483, 3.108719
1137.965, 2.862244
1138.448, 2.976028
1138.930, 3.298874
1139.412, 3.333023
1139.894, 3.067253
1140.376, 2.797264
1140.858, 2.579643
1141.340, 2.406960
1141.822, 2.301865
1142.304, 2.217888
1142.787, 2.119637
1143.269, 2.002701
1143.751, 1.811180
1144.233, 1.508423
1144.715, 1.352638
1145.197, 1.467667
1145.679, 1.679909
1146.161, 1.848518
1146.644, 1.937668
1147.126, 1.887001
1147.608, 1.642136
1148.090, 1.432640
1148.572, 1.327408
1149.054, 1.031197
1149.536, 0.2206800
1150.018, 0.6571500
1150.500, 0.7777860
1150.983, 0.3813860
1151.465, 6.9854997E-02
1151.947, 0.5740200
1152.429, 0.8345870
1152.911, 0.7341540
1153.393, 0.6172330
1153.875, 0.7841950
1154.357, 1.090317
1154.840, 1.137955
1155.322, 0.9803160
1155.804, 0.7857740
1156.286, 0.5564650
1156.768, 0.3955990
1157.250, 0.3690030
1157.732, 0.3314740
1158.214, 7.3357001E-02
1158.697, 0.3154140
1159.179, 0.3647230
1159.661, 0.1288220
1160.143, 1.4641000E-02
1160.625, 0.2929530
1161.107, 0.5032500
1161.589, 0.4205930
1162.071, 0.1955570
1162.553, 3.3379000E-02
1163.036, 0.2473600
1163.518, 0.2533870
1164.000, 5.8166999E-02
1164.482, 4.1279998E-03
1164.964, 0.6163250
1165.446, 1.061356
1165.928, 0.7900160
1166.410, 0.1848750
1166.892, 5.5840001E-02
1167.375, 4.2952999E-02
1167.857, 0.1560750
1168.339, 0.2584760
1168.821, 0.3147960
1169.303, 0.3157960
1169.785, 0.2833940
1170.267, 0.1882780
1170.749, 7.3105000E-02
1171.231, 6.3271001E-02
1171.714, 0.1570430
1172.196, 0.2949070
1172.678, 0.4700850
1173.160, 0.6376570
1173.642, 0.8139950
1174.124, 0.9223940
1174.606, 0.8406910
1175.088, 0.6178510
1175.571, 0.5621410
1176.053, 0.6871640
1176.535, 0.6924440
1177.017, 0.4561230
1177.499, 0.2110140
1177.981, 0.1832660
1178.463, 0.2521590
1178.945, 0.3153310
1179.427, 0.3644030
1179.910, 0.4205090
1180.392, 0.4952930
1180.874, 0.4274290
1181.356, 5.1849000E-02
1181.838, 0.2531050
1182.320, 9.8021999E-02
1182.802, 0.6462250
1183.284, 0.7856750
1183.767, 0.3764270
1184.249, 0.3481060
1184.731, 0.7667690
1185.213, 1.120857
1185.695, 1.154938
1186.177, 1.032890
1186.659, 0.8630450
1187.141, 0.6923140
1187.624, 0.5913700
1188.106, 0.5930250
1188.588, 0.5607300
1189.070, 0.4831620
1189.552, 0.4464340
1190.034, 0.5465160
1190.516, 0.6653140
1190.998, 0.6609730
1191.480, 0.5681150
1191.963, 0.4291840
1192.445, 0.1559370
1192.927, 0.1152880
1193.409, 0.3473050
1193.891, 0.6160890
1194.373, 0.8046260
1194.855, 0.9021450
1195.337, 0.8054580
1195.819, 0.6192630
1196.302, 0.5915450
1196.784, 0.9412770
1197.266, 0.9723740
1197.748, 0.5860140
1198.230, 0.2470780
1198.712, 0.3527450
1199.194, 0.7114330
1199.676, 1.272568
1200.158, 1.858315
1200.641, 1.951126
1201.123, 1.172729
1201.605, 0.6271060
1202.087, 0.3826680
1202.569, 0.3335040
1203.051, 0.4888840
1203.533, 0.7114790
1204.015, 0.7972640
1204.498, 0.7875440
1204.980, 0.8690950
1205.462, 1.224670
1205.944, 1.242630
1206.426, 0.7845690
1206.908, 0.3243180
1207.390, 0.3122480
1207.872, 0.5413210
1208.354, 0.9243470
1208.837, 1.439301
1209.319, 1.900627
1209.801, 2.395462
1210.283, 2.448540
1210.765, 1.913422
1211.247, 1.274216
1211.729, 0.9277800
1212.211, 0.8418660
1212.694, 1.128426
1213.176, 1.691544
1213.658, 1.966309
1214.140, 1.867188
1214.622, 1.580330
1215.104, 1.065102
1215.586, 0.6669010
1216.068, 0.9713440
1216.551, 1.440651
1217.033, 1.391075
1217.515, 0.8872220
1217.997, 0.6451340
1218.479, 0.7856520
1218.961, 0.7864760
1219.443, 0.5498960
1219.925, 0.2849880
1220.407, 0.2016750
1220.890, 0.2104340
1221.372, 0.2109990
1221.854, 0.2059480
1222.336, 0.2943500
1222.818, 0.4952390
1223.300, 0.7973710
1223.782, 1.271614
1224.264, 1.551193
1224.746, 0.9105220
1225.229, 6.9220997E-02
1225.711, 0.2945180
1226.193, 0.1203310
1226.675, 0.3431700
1227.157, 1.207848
1227.639, 1.724388
1228.121, 1.705833
1228.603, 1.429108
1229.085, 0.9784010
1229.568, 0.5771480
1230.050, 0.4926990
1230.532, 0.7037890
1231.014, 0.8061830
1231.496, 0.7763440
1231.978, 0.9075090
1232.460, 1.327301
1232.942, 1.622765
1233.425, 1.250740
1233.907, 0.6987150
1234.389, 0.3346940
1234.871, 0.1792830
1235.353, 0.2901990
1235.835, 0.6822200
1236.317, 1.051926
1236.799, 1.357864
1237.281, 1.445755
1237.764, 0.9158860
1238.246, 0.3471450
1238.728, 0.2533870
1239.210, 0.5288470
1239.692, 0.8051680
1240.174, 1.110275
1240.656, 1.130440
1241.138, 0.7464750
1241.621, 0.3272860
1242.103, 0.1041640
1242.585, 8.1249997E-03
1243.067, 9.3262002E-02
1243.549, 0.1197200
1244.031, 0.1313320
1244.513, 0.6078340
1244.995, 0.8498380
1245.478, 0.6960980
1245.960, 0.5940170
1246.442, 1.023941
1246.924, 1.347534
1247.406, 1.134201
1247.888, 0.6208040
1248.370, 0.6160960
1248.852, 0.9760510
1249.334, 1.065231
1249.817, 0.6977010
1250.299, 0.3949050
1250.781, 0.5236210
1251.263, 0.6515430
1251.745, 0.5474170
1252.227, 0.3714520
1252.709, 0.6326680
1253.191, 1.161751
1253.673, 1.425476
1254.156, 1.282753
1254.638, 1.157234
1255.120, 1.299507
1255.602, 1.294868
1256.084, 0.8878560
1256.566, 0.4030990
1257.048, 0.5767060
1257.530, 1.141769
1258.012, 1.570450
1258.495, 1.768921
1258.977, 1.859352
1259.459, 1.860374
1259.941, 1.778549
1260.423, 1.593193
1260.905, 1.370804
1261.387, 1.088470
1261.869, 0.8986820
1262.352, 1.141289
1262.834, 1.906410
1263.316, 2.187126
1263.798, 1.803688
1264.280, 1.350906
1264.762, 1.076027
1265.244, 0.9698940
1265.726, 1.292099
1266.208, 1.659836
1266.691, 1.556435
1267.173, 0.9526670
1267.655, 0.6912990
1268.137, 0.8128360
1268.619, 0.9342880
1269.101, 0.9778750
1269.583, 0.9485860
1270.065, 0.6890720
1270.548, 0.4799800
1271.030, 0.7155760
1271.512, 1.249695
1271.994, 1.407227
1272.476, 1.188751
1272.958, 1.061043
1273.440, 1.215050
1273.922, 1.358017
1274.405, 1.365181
1274.887, 1.216858
1275.369, 0.8192370
1275.851, 0.3163220
1276.333, 0.1285250
1276.815, 0.2043000
1277.297, 0.2435070
1277.779, 0.1862720
1278.261, 0.2266690
1278.744, 0.6036530
1279.226, 0.9341280
1279.708, 1.128311
1280.190, 1.137039
1280.672, 0.6512760
1281.154, 5.5222001E-02
1281.636, 0.2216490
1282.118, 0.2543260
1282.600, 0.7479020
1283.083, 1.257919
1283.565, 1.413246
1284.047, 1.028709
1284.529, 0.4863200
1285.011, 0.3349990
1285.493, 0.3853070
1285.975, 0.3258210
1286.457, 0.1462170
1286.939, 0.1645130
1287.422, 0.5156250
1287.904, 0.6378860
1288.386, 0.3717730
1288.868, 9.7274996E-02
1289.350, 0.2465290
1289.832, 0.5714950
1290.314, 0.8403930
1290.796, 1.053932
1291.279, 1.303871
1291.761, 1.577385
1292.243, 1.451141
1292.725, 1.012032
1293.207, 0.6518940
1293.689, 0.9346080
1294.171, 1.254135
1294.653, 1.166321
1295.135, 0.8605880
1295.618, 0.4727940
1296.100, 6.2164001E-02
1296.582, 3.4187000E-02
1297.064, 0.2004930
1297.546, 0.4195480
1298.028, 0.3477250
1298.510, 0.2427060
1298.992, 0.1817320
1299.475, 3.1288002E-02
1299.957, 1.7867999E-02
1300.439, 3.5309002E-02
1300.921, 3.1631000E-02
1301.403, 1.4786000E-02
1301.885, 0.0000000E+00
##END=



