##NAMES=Coalingite
##RRUFFID=R110196
##IDEAL CHEMISTRY=Mg_10_Fe^3+^_2_CO_3_(OH)_24_&#183;2H_2_O
##LOCALITY=San Benito County, California (about 35 miles NW of Coalinga), USA
##OWNER=RRUFF
##SOURCE=James Shigley
##DESCRIPTION=Golden-reddish-brown flakes
##STATUS=The identification of this mineral has been confirmed by single-crystal X-ray diffraction.
##URL=rruff.info/R110196
113.7809, 0.0000000E+00
114.2630, 0.5491940
114.7451, 0.2498780
115.2272, 0.3986820
115.7094, 2.259521
116.1915, 4.217407
116.6736, 6.682861
117.1557, 8.697388
117.6378, 9.545288
118.1199, 9.469971
118.6021, 9.340576
119.0842, 9.767700
119.5663, 10.81836
120.0484, 12.70618
120.5305, 15.63159
121.0126, 19.18384
121.4948, 23.14819
121.9769, 27.53003
122.4590, 32.02820
122.9411, 36.80188
123.4232, 41.62512
123.9053, 45.21387
124.3875, 46.19336
124.8696, 45.52051
125.3517, 45.76306
125.8338, 47.07751
126.3159, 49.70520
126.7980, 54.22534
127.2802, 60.26038
127.7623, 65.98608
128.2444, 69.90198
128.7265, 71.88318
129.2086, 73.73145
129.6907, 76.57031
130.1729, 78.47168
130.6550, 78.44495
131.1371, 76.41321
131.6192, 72.98547
132.1013, 68.81934
132.5834, 62.54211
133.0656, 58.19922
133.5477, 56.97522
134.0298, 56.62268
134.5119, 55.29492
134.9940, 52.72925
135.4761, 49.63989
135.9583, 47.31482
136.4404, 45.83044
136.9225, 45.33875
137.4046, 46.20935
137.8867, 47.81885
138.3688, 49.98804
138.8510, 53.21411
139.3331, 56.71289
139.8152, 56.83618
140.2973, 51.84790
140.7794, 46.76990
141.2615, 43.87830
141.7437, 42.96362
142.2258, 42.47253
142.7079, 42.04810
143.1900, 40.96924
143.6721, 38.75378
144.1542, 37.40613
144.6364, 37.56555
145.1185, 39.41479
145.6006, 43.42664
146.0827, 46.20508
146.5648, 44.24670
147.0469, 40.40186
147.5291, 37.38281
148.0112, 36.39612
148.4933, 36.87744
148.9754, 37.16626
149.4575, 37.80579
149.9396, 38.31067
150.4218, 39.06055
150.9039, 39.80493
151.3860, 39.43127
151.8681, 37.63220
152.3502, 34.46484
152.8323, 31.70178
153.3145, 29.22241
153.7966, 28.30237
154.2787, 30.79797
154.7608, 34.98352
155.2429, 37.37683
155.7250, 35.02417
156.2072, 27.45923
156.6893, 22.95691
157.1714, 23.20544
157.6535, 24.17102
158.1356, 24.70935
158.6177, 24.62329
159.0999, 23.66589
159.5820, 21.21741
160.0641, 16.87842
160.5462, 14.36670
161.0283, 14.16406
161.5104, 15.32507
161.9926, 18.22644
162.4747, 22.83618
162.9568, 26.17175
163.4389, 24.13855
163.9210, 17.10291
164.4031, 11.41504
164.8853, 8.814941
165.3674, 7.919556
165.8495, 6.707275
166.3316, 4.632080
166.8137, 2.992065
167.2958, 3.542358
167.7780, 5.750244
168.2601, 7.608032
168.7422, 8.400269
169.2243, 8.161255
169.7064, 6.777466
170.1885, 3.413086
170.6707, 8.2764000E-02
171.1528, 2.848877
171.6349, 4.026245
172.1170, 4.313110
172.5991, 2.742676
173.0812, 0.8902590
173.5634, 2.143677
174.0455, 2.554688
174.5276, 7.142822
175.0097, 9.107910
175.4918, 8.448853
175.9739, 6.523071
176.4561, 4.539673
176.9382, 2.225342
177.4203, 0.8558350
177.9024, 1.015198
178.3845, 1.550476
178.8666, 2.039124
179.3488, 2.328430
179.8309, 2.377808
180.3130, 2.078430
180.7951, 1.258362
181.2772, 0.4364620
181.7593, 0.6660770
182.2415, 1.602844
182.7236, 2.136475
183.2057, 2.188232
183.6878, 1.673828
184.1699, 0.3555300
184.6520, 2.834900
185.1342, 4.550903
185.6163, 3.677185
186.0984, 1.732544
186.5805, 0.3548580
187.0626, 4.4677999E-02
187.5447, 0.1287840
188.0269, 0.7185670
188.5090, 2.949524
188.9911, 4.205322
189.4732, 2.620178
189.9553, 8.2824998E-02
190.4374, 0.4125980
190.9196, 3.371033
191.4017, 8.131958
191.8838, 8.880310
192.3659, 5.422058
192.8480, 2.289124
193.3301, 1.690186
193.8123, 3.126343
194.2944, 4.807251
194.7765, 6.435791
195.2586, 7.989014
195.7407, 9.741272
196.2228, 11.70856
196.7050, 12.90778
197.1871, 12.16132
197.6692, 9.576233
198.1513, 7.553467
198.6334, 6.891724
199.1155, 6.714233
199.5977, 6.267944
200.0798, 5.551758
200.5619, 5.277893
201.0440, 6.481995
201.5261, 9.514221
202.0082, 11.74750
202.4904, 12.53790
202.9725, 12.64795
203.4546, 11.92633
203.9367, 10.57123
204.4188, 9.532654
204.9009, 10.39148
205.3831, 14.33667
205.8652, 16.45551
206.3473, 15.50519
206.8294, 13.68646
207.3115, 11.85852
207.7936, 10.34570
208.2758, 9.327637
208.7579, 9.085388
209.2400, 9.801880
209.7221, 10.98907
210.2042, 12.43945
210.6863, 14.38251
211.1685, 17.48297
211.6506, 21.65198
212.1327, 25.68854
212.6148, 27.80017
213.0969, 26.85565
213.5790, 26.07202
214.0612, 24.88971
214.5433, 24.15961
215.0254, 24.80859
215.5075, 26.98181
215.9896, 29.76874
216.4717, 31.92218
216.9539, 33.30054
217.4360, 34.18481
217.9181, 34.02228
218.4002, 33.63318
218.8823, 33.98889
219.3644, 35.33832
219.8466, 36.88898
220.3287, 37.43896
220.8108, 36.72821
221.2929, 36.48889
221.7750, 37.02069
222.2571, 38.08398
222.7393, 39.60400
223.2214, 41.66089
223.7035, 43.67029
224.1856, 44.58911
224.6677, 44.50000
225.1498, 45.02289
225.6320, 47.15875
226.1141, 50.03046
226.5962, 52.15210
227.0783, 53.15527
227.5604, 53.75488
228.0425, 54.47864
228.5247, 55.25415
229.0068, 56.15753
229.4889, 57.41907
229.9710, 58.98145
230.4531, 60.82080
230.9352, 63.23938
231.4174, 65.41760
231.8995, 66.45306
232.3816, 66.54358
232.8637, 66.48779
233.3458, 66.90216
233.8279, 67.66412
234.3101, 68.16632
234.7922, 68.47827
235.2743, 68.31018
235.7564, 67.34711
236.2385, 65.78577
236.7206, 64.02576
237.2028, 62.10797
237.6849, 60.19293
238.1670, 59.03418
238.6491, 59.55127
239.1312, 59.49762
239.6133, 57.35541
240.0955, 54.15747
240.5776, 51.65790
241.0597, 50.97064
241.5418, 51.77612
242.0239, 52.59729
242.5060, 53.28491
242.9882, 53.93011
243.4703, 55.02728
243.9524, 56.24329
244.4345, 56.84808
244.9166, 56.22235
245.3987, 54.76263
245.8809, 54.61444
246.3630, 57.47192
246.8451, 59.43201
247.3272, 59.00879
247.8093, 57.36493
248.2914, 56.20935
248.7736, 56.60596
249.2557, 58.05115
249.7378, 58.66675
250.2199, 57.13342
250.7020, 56.30817
251.1841, 57.05200
251.6663, 58.60309
252.1484, 60.10175
252.6305, 61.14484
253.1126, 61.74365
253.5947, 61.93817
254.0768, 60.54797
254.5590, 60.23431
255.0411, 61.74268
255.5232, 64.12952
256.0053, 66.49042
256.4874, 68.44287
256.9695, 70.04260
257.4517, 71.40906
257.9338, 72.78003
258.4159, 73.55884
258.8980, 72.70569
259.3801, 71.73456
259.8622, 72.58307
260.3444, 75.86407
260.8265, 80.06470
261.3086, 82.30719
261.7907, 80.71320
262.2728, 80.00653
262.7549, 81.34424
263.2371, 83.09644
263.7192, 82.95898
264.2013, 80.40759
264.6834, 77.90527
265.1655, 79.49451
265.6476, 88.33447
266.1298, 93.44476
266.6119, 91.34589
267.0940, 87.27740
267.5761, 86.23572
268.0582, 89.16620
268.5403, 93.57697
269.0225, 96.88531
269.5046, 98.98260
269.9867, 99.43134
270.4688, 96.62616
270.9509, 93.22656
271.4330, 91.14990
271.9152, 90.69641
272.3973, 91.94257
272.8794, 95.74146
273.3615, 102.2819
273.8436, 105.8121
274.3257, 103.8389
274.8079, 100.5480
275.2900, 99.07648
275.7721, 99.55573
276.2542, 100.7101
276.7363, 101.8599
277.2184, 102.9581
277.7006, 103.6095
278.1827, 103.4948
278.6648, 103.1682
279.1469, 103.0336
279.6290, 103.0709
280.1111, 102.9978
280.5933, 102.5330
281.0754, 101.9386
281.5575, 102.0551
282.0396, 103.7789
282.5217, 104.9924
283.0038, 104.0558
283.4860, 101.3835
283.9681, 98.85522
284.4502, 97.44397
284.9323, 96.57501
285.4144, 94.98694
285.8965, 92.40924
286.3787, 89.85956
286.8608, 87.83105
287.3429, 86.28125
287.8250, 85.12415
288.3071, 84.60413
288.7892, 84.08447
289.2714, 82.50885
289.7535, 79.74628
290.2356, 77.18011
290.7177, 75.70782
291.1998, 74.93060
291.6819, 73.71484
292.1641, 71.68427
292.6462, 69.40430
293.1283, 67.64240
293.6104, 66.31799
294.0925, 64.56537
294.5746, 61.01776
295.0568, 57.00360
295.5389, 55.74023
296.0210, 58.50183
296.5031, 61.31146
296.9852, 59.78931
297.4673, 55.41687
297.9495, 52.14960
298.4316, 52.40210
298.9137, 54.06403
299.3958, 53.61115
299.8779, 50.45593
300.3600, 47.70667
300.8422, 48.63190
301.3243, 51.17676
301.8064, 51.76764
302.2885, 48.33801
302.7706, 43.91876
303.2527, 42.34003
303.7349, 43.82452
304.2170, 44.89062
304.6991, 43.41058
305.1812, 40.75116
305.6633, 38.82147
306.1454, 38.08435
306.6276, 37.87897
307.1097, 37.95605
307.5918, 37.97339
308.0739, 36.60492
308.5560, 31.95166
309.0381, 27.11810
309.5203, 25.99786
310.0024, 29.04144
310.4845, 32.03491
310.9666, 31.77332
311.4487, 28.89935
311.9308, 26.56317
312.4130, 25.43652
312.8951, 24.94147
313.3772, 24.64203
313.8593, 24.49982
314.3414, 24.29797
314.8235, 24.05859
315.3057, 23.67310
315.7878, 22.79108
316.2699, 21.24872
316.7520, 19.54041
317.2341, 17.92657
317.7162, 16.43024
318.1984, 15.11871
318.6805, 13.88782
319.1626, 12.92712
319.6447, 12.79858
320.1268, 13.75458
320.6089, 14.29193
321.0911, 13.12988
321.5732, 11.12183
322.0553, 9.368164
322.5374, 8.022034
323.0195, 7.083557
323.5016, 6.949463
323.9838, 7.630310
324.4659, 7.446167
324.9480, 5.131165
325.4301, 2.036987
325.9122, 0.4166260
326.3943, 2.297363
326.8765, 2.903381
327.3586, 0.5905760
327.8407, 3.906799
328.3228, 6.245056
328.8049, 4.529175
329.2870, 1.561401
329.7692, 0.2817380
330.2513, 0.5459590
330.7334, 0.8543700
331.2155, 0.4714970
331.6976, 0.3798830
332.1797, 1.338074
332.6619, 2.578186
333.1440, 3.324341
333.6261, 2.424927
334.1082, 0.5010380
334.5903, 1.007263
335.0724, 1.532471
335.5546, 1.475403
336.0367, 1.387695
336.5188, 1.307495
337.0009, 0.8165890
337.4830, 0.7285160
337.9651, 2.724731
338.4473, 4.074951
338.9294, 4.683899
339.4115, 4.583496
339.8936, 3.271729
340.3757, 0.9696660
340.8578, 0.5853270
341.3400, 0.3499760
341.8221, 0.6128540
342.3042, 0.6430660
342.7863, 0.4431760
343.2684, 2.017578
343.7505, 4.103699
344.2327, 6.136841
344.7148, 6.883484
345.1969, 5.901978
345.6790, 4.753662
346.1611, 5.379456
346.6432, 7.198730
347.1254, 8.040161
347.6075, 6.802124
348.0896, 4.855408
348.5717, 3.925110
349.0538, 4.202515
349.5359, 4.654907
350.0181, 4.170410
350.5002, 3.096252
350.9823, 3.135193
351.4644, 5.667297
351.9465, 8.304138
352.4286, 9.460388
352.9108, 9.323364
353.3929, 8.695129
353.8750, 7.787842
354.3571, 6.771729
354.8392, 6.110901
355.3214, 6.007751
355.8035, 5.775574
356.2856, 5.083008
356.7677, 4.108398
357.2498, 2.987122
357.7319, 1.661133
358.2141, 0.7460940
358.6962, 1.409485
359.1783, 4.052917
359.6604, 5.701721
360.1425, 5.642395
360.6246, 4.686646
361.1068, 3.190552
361.5889, 1.305420
362.0710, 3.3752002E-02
362.5531, 0.1653440
363.0352, 1.859558
363.5173, 2.445801
363.9995, 0.2139890
364.4816, 1.777222
364.9637, 1.361389
365.4458, 7.360840
365.9279, 11.11829
366.4100, 9.658264
366.8922, 4.922729
367.3743, 3.314758
367.8564, 7.730530
368.3385, 10.93573
368.8206, 11.19934
369.3027, 10.12317
369.7849, 9.399963
370.2670, 9.530090
370.7491, 10.24927
371.2312, 11.36786
371.7133, 13.54987
372.1954, 13.84045
372.6776, 10.14520
373.1597, 6.461304
373.6418, 5.598206
374.1239, 7.222412
374.6060, 8.927979
375.0881, 8.661682
375.5703, 6.536438
376.0524, 6.356995
376.5345, 10.28156
377.0166, 13.63824
377.4987, 15.06268
377.9808, 15.35962
378.4630, 15.87958
378.9451, 17.25006
379.4272, 18.86981
379.9093, 19.20703
380.3914, 16.82538
380.8735, 15.57037
381.3557, 16.21973
381.8378, 17.45764
382.3199, 18.49884
382.8020, 19.13336
383.2841, 19.33136
383.7662, 18.68658
384.2484, 16.70734
384.7305, 17.09473
385.2126, 22.85699
385.6947, 28.29462
386.1768, 31.74908
386.6589, 33.47076
387.1411, 34.10400
387.6232, 33.80731
388.1053, 33.07837
388.5874, 33.88568
389.0695, 37.52496
389.5516, 40.21771
390.0338, 40.92596
390.5159, 40.51581
390.9980, 39.72974
391.4801, 38.84094
391.9622, 37.72449
392.4443, 36.30334
392.9265, 34.64795
393.4086, 31.92828
393.8907, 27.16498
394.3728, 22.09973
394.8549, 17.51898
395.3370, 13.46515
395.8192, 9.906128
396.3013, 6.819824
396.7834, 4.272217
397.2655, 2.475037
397.7476, 1.587036
398.2297, 1.297791
398.7119, 2.189087
399.1940, 3.230103
399.6761, 2.846680
400.1582, 0.1123660
400.6403, 2.887207
401.1224, 3.663513
401.6046, 2.395935
402.0867, 2.147278
402.5688, 4.944885
403.0509, 7.848022
403.5330, 6.860413
404.0151, 1.896667
404.4973, 2.288818
404.9794, 3.232422
405.4615, 2.161743
405.9436, 0.8653560
406.4257, 0.5534060
406.9078, 1.305786
407.3900, 0.3182980
407.8721, 2.019836
408.3542, 3.578247
408.8363, 3.889648
409.3184, 3.697876
409.8005, 3.220215
410.2827, 2.570007
410.7648, 2.078918
411.2469, 1.838806
411.7290, 1.945496
412.2111, 2.759888
412.6932, 4.668152
413.1754, 6.221497
413.6575, 6.914978
414.1396, 7.248779
414.6217, 7.625793
415.1038, 8.209900
415.5859, 9.411255
416.0681, 11.92047
416.5502, 16.10199
417.0323, 17.58490
417.5144, 13.18323
417.9965, 9.850037
418.4786, 11.78662
418.9608, 16.69153
419.4429, 19.61609
419.9250, 17.88177
420.4071, 13.58258
420.8892, 12.38220
421.3713, 16.65637
421.8535, 20.36298
422.3356, 24.03833
422.8177, 27.03284
423.2998, 27.91034
423.7819, 26.70923
424.2640, 25.08990
424.7462, 24.79272
425.2283, 25.84796
425.7104, 27.91382
426.1925, 32.41956
426.6746, 36.15057
427.1567, 38.02911
427.6389, 38.68707
428.1210, 39.01727
428.6031, 39.36981
429.0852, 39.92407
429.5673, 41.01282
430.0494, 42.63324
430.5316, 44.79700
431.0137, 47.43945
431.4958, 50.71606
431.9779, 55.61993
432.4600, 61.88763
432.9421, 66.76447
433.4243, 66.97577
433.9064, 63.80286
434.3885, 63.00421
434.8706, 65.57190
435.3527, 68.82599
435.8348, 71.45276
436.3170, 73.53882
436.7991, 75.04321
437.2812, 75.27289
437.7633, 75.86365
438.2454, 78.85706
438.7275, 83.87714
439.2097, 88.18256
439.6918, 90.59674
440.1739, 92.21271
440.6560, 94.75415
441.1381, 98.31415
441.6202, 101.4996
442.1024, 104.1813
442.5845, 106.1459
443.0666, 106.8151
443.5487, 106.2390
444.0308, 105.5889
444.5129, 105.8044
444.9951, 106.7510
445.4772, 107.1093
445.9593, 106.6116
446.4414, 105.9404
446.9235, 105.5197
447.4056, 104.9924
447.8878, 103.7996
448.3699, 101.7554
448.8520, 99.09497
449.3341, 96.07111
449.8162, 92.31433
450.2983, 89.31799
450.7805, 87.30646
451.2626, 85.72717
451.7447, 84.79871
452.2268, 84.07874
452.7089, 82.56738
453.1910, 79.54120
453.6732, 75.34741
454.1553, 71.43243
454.6374, 67.76721
455.1195, 64.41791
455.6016, 62.23511
456.0837, 59.83649
456.5659, 55.36877
457.0480, 48.75531
457.5301, 42.79767
458.0122, 41.22253
458.4943, 43.81458
458.9764, 43.84839
459.4586, 39.80615
459.9407, 35.35608
460.4228, 32.26703
460.9049, 29.96429
461.3870, 27.72626
461.8691, 25.54749
462.3513, 23.31958
462.8334, 20.67889
463.3155, 17.60071
463.7976, 14.75696
464.2797, 12.21173
464.7618, 10.17218
465.2440, 9.084229
465.7261, 8.994141
466.2082, 8.907104
466.6903, 8.689453
467.1724, 8.151794
467.6545, 6.777039
468.1367, 4.602600
468.6188, 2.780823
469.1009, 2.285461
469.5830, 2.747314
470.0651, 2.217102
470.5472, 0.7199100
471.0294, 2.744324
471.5115, 2.329590
471.9936, 0.8231810
472.4757, 6.3721001E-02
472.9578, 9.7534001E-02
473.4399, 0.5727540
473.9221, 0.4198610
474.4042, 0.5997310
474.8863, 0.8264770
475.3684, 0.6381840
475.8505, 1.850525
476.3326, 2.059692
476.8148, 1.529785
477.2969, 0.5985720
477.7790, 0.5976560
478.2611, 1.635742
478.7432, 1.472717
479.2253, 0.3958740
479.7075, 2.024170
480.1896, 3.867859
480.6717, 4.847107
481.1538, 3.509766
481.6359, 0.4723510
482.1180, 1.701111
482.6002, 0.4357910
483.0823, 2.681335
483.5644, 2.733704
484.0465, 1.218689
484.5286, 4.805542
485.0107, 5.921021
485.4929, 5.698853
485.9750, 5.211243
486.4571, 4.386536
486.9392, 4.214966
487.4213, 6.046997
487.9034, 8.859863
488.3856, 10.08032
488.8677, 9.120850
489.3498, 8.079346
489.8319, 8.866455
490.3140, 11.36102
490.7961, 13.22870
491.2783, 13.42517
491.7604, 14.11786
492.2425, 16.86951
492.7246, 20.71216
493.2067, 23.77203
493.6888, 25.38293
494.1710, 26.36365
494.6531, 27.90991
495.1352, 30.10217
495.6173, 32.67737
496.0994, 36.35199
496.5815, 39.66241
497.0637, 41.07263
497.5458, 41.60767
498.0279, 43.59442
498.5100, 48.44824
498.9921, 55.01624
499.4742, 60.62231
499.9564, 65.37091
500.4385, 68.79895
500.9206, 68.41583
501.4027, 68.63501
501.8848, 72.27032
502.3669, 79.23804
502.8491, 87.65942
503.3312, 97.17584
503.8133, 107.0049
504.2954, 114.6437
504.7775, 119.5797
505.2596, 124.6101
505.7418, 130.7655
506.2239, 137.9030
506.7060, 145.9684
507.1881, 155.2123
507.6702, 164.2561
508.1523, 171.9722
508.6345, 179.1843
509.1166, 187.2077
509.5987, 196.2698
510.0808, 206.0100
510.5629, 216.2222
511.0450, 226.8642
511.5272, 237.8177
512.0093, 248.7370
512.4914, 260.3770
512.9735, 273.6618
513.4556, 287.5369
513.9377, 300.8511
514.4199, 313.1780
514.9020, 324.7882
515.3841, 335.7863
515.8662, 346.0468
516.3483, 356.4584
516.8304, 366.7393
517.3126, 377.4718
517.7947, 389.8461
518.2768, 402.4364
518.7589, 412.9965
519.2410, 420.5699
519.7231, 426.8427
520.2053, 434.7986
520.6874, 444.7103
521.1695, 451.8901
521.6516, 454.4421
522.1337, 455.6637
522.6158, 458.3164
523.0980, 461.6119
523.5801, 463.2452
524.0622, 461.9984
524.5443, 459.1466
525.0264, 455.9376
525.5085, 452.2902
525.9907, 448.0258
526.4728, 443.2626
526.9549, 437.3984
527.4370, 429.3121
527.9191, 418.6838
528.4012, 407.6138
528.8834, 395.3564
529.3655, 383.5316
529.8476, 374.1268
530.3297, 366.1113
530.8118, 356.3240
531.2939, 342.8896
531.7761, 327.7263
532.2582, 315.9144
532.7403, 310.7445
533.2224, 302.7993
533.7045, 289.8986
534.1866, 276.3441
534.6688, 264.0413
535.1509, 253.3003
535.6330, 244.1896
536.1151, 237.2284
536.5972, 231.2848
537.0793, 222.7055
537.5615, 210.5263
538.0436, 199.7090
538.5257, 192.9457
539.0078, 187.4528
539.4899, 180.7715
539.9720, 172.7758
540.4542, 164.8621
540.9363, 157.7292
541.4184, 151.0717
541.9005, 144.2761
542.3826, 137.2903
542.8647, 130.9752
543.3469, 125.8908
543.8290, 121.6022
544.3111, 116.9865
544.7932, 112.0294
545.2753, 106.8845
545.7574, 100.7574
546.2396, 94.98730
546.7217, 91.17798
547.2038, 88.99231
547.6859, 86.61230
548.1680, 82.67200
548.6501, 77.63971
549.1323, 73.58301
549.6144, 70.76508
550.0965, 68.57288
550.5786, 67.41553
551.0607, 66.38690
551.5428, 64.92529
552.0250, 62.95880
552.5071, 60.62708
552.9892, 57.87042
553.4713, 54.87030
553.9534, 52.09894
554.4355, 49.57507
554.9177, 47.18634
555.3998, 44.74841
555.8819, 42.53583
556.3640, 40.94421
556.8461, 40.00537
557.3282, 39.10840
557.8104, 37.93414
558.2925, 36.70386
558.7746, 35.81519
559.2567, 35.20642
559.7388, 34.36017
560.2209, 32.94250
560.7031, 31.07825
561.1852, 29.16162
561.6673, 26.90918
562.1494, 24.98102
562.6315, 23.29987
563.1136, 22.01471
563.5958, 21.42865
564.0779, 21.37183
564.5600, 21.39270
565.0421, 21.23218
565.5242, 20.73059
566.0063, 19.48700
566.4885, 17.12482
566.9706, 15.18384
567.4527, 14.20038
567.9348, 13.65302
568.4169, 13.46967
568.8990, 13.53229
569.3812, 13.17560
569.8633, 11.51959
570.3454, 9.518860
570.8275, 8.781372
571.3096, 9.260925
571.7917, 9.547424
572.2739, 8.586060
572.7560, 7.041504
573.2381, 6.021301
573.7202, 5.665955
574.2023, 5.252991
574.6844, 4.314331
575.1666, 3.837036
575.6487, 4.813232
576.1308, 6.645386
576.6129, 7.860962
577.0950, 7.651306
577.5771, 6.428589
578.0593, 4.829285
578.5414, 2.205200
579.0235, 1.044800
579.5056, 3.490662
579.9877, 5.829834
580.4698, 5.629028
580.9520, 3.826355
581.4341, 2.935181
581.9162, 4.311951
582.3983, 6.695374
582.8804, 8.971191
583.3625, 10.98389
583.8447, 10.77417
584.3268, 6.964844
584.8089, 2.828674
585.2910, 2.122498
585.7731, 4.538696
586.2552, 6.389771
586.7374, 7.827759
587.2195, 8.186707
587.7016, 5.751221
588.1837, 2.315979
588.6658, 1.217957
589.1479, 3.395752
589.6301, 6.880432
590.1122, 9.422302
590.5943, 11.04407
591.0764, 11.49854
591.5585, 8.946411
592.0406, 7.279846
592.5228, 8.485352
593.0049, 10.58978
593.4870, 10.73834
593.9691, 8.276245
594.4512, 6.219116
594.9333, 8.535278
595.4155, 13.87024
595.8976, 15.95721
596.3797, 13.87537
596.8618, 11.15186
597.3439, 9.609131
597.8260, 8.925476
598.3082, 8.145081
598.7903, 6.931946
599.2724, 6.405396
599.7545, 7.919067
600.2366, 9.705078
600.7188, 9.289307
601.2009, 6.991699
601.6830, 5.700867
602.1651, 7.764343
602.6472, 11.83575
603.1293, 12.48669
603.6115, 6.550171
604.0936, 3.043213
604.5757, 4.373535
605.0578, 6.465637
605.5399, 7.039551
606.0220, 6.170227
606.5042, 4.846191
606.9863, 3.427063
607.4684, 2.180603
607.9505, 1.387939
608.4326, 1.059082
608.9147, 1.789978
609.3969, 4.253479
609.8790, 6.904053
610.3611, 8.014343
610.8432, 7.705566
611.3253, 7.156250
611.8074, 6.747681
612.2896, 5.855835
612.7717, 3.112671
613.2538, 5.0048999E-02
613.7359, 0.8009640
614.2180, 1.563416
614.7001, 4.688477
615.1823, 5.769897
615.6644, 4.696106
616.1465, 3.829529
616.6286, 2.975159
617.1107, 2.635132
617.5928, 3.430847
618.0750, 4.484375
618.5571, 4.742249
619.0392, 4.045044
619.5213, 3.454285
620.0034, 4.376953
620.4855, 5.837463
620.9677, 5.215210
621.4498, 2.330872
621.9319, 7.8979000E-02
622.4140, 0.5710450
622.8961, 0.1266480
623.3782, 0.4544070
623.8604, 0.1398930
624.3425, 0.3632810
624.8246, 2.190857
625.3067, 3.772583
625.7888, 3.225159
626.2709, 1.429199
626.7531, 0.9635620
627.2352, 3.142761
627.7173, 6.006348
628.1994, 5.402588
628.6815, 0.2493900
629.1636, 2.300903
629.6458, 7.9956003E-02
630.1279, 2.521667
630.6100, 3.660400
631.0921, 3.570068
631.5742, 2.463745
632.0563, 8.3010001E-03
632.5385, 2.275391
633.0206, 3.499268
633.5027, 3.722107
633.9848, 2.686829
634.4669, 0.3994750
634.9490, 1.767273
635.4312, 2.942871
635.9133, 3.121826
636.3954, 2.242798
636.8775, 1.608582
637.3596, 3.910461
637.8417, 3.327881
638.3239, 2.116943
638.8060, 1.806885
639.2881, 2.347534
639.7702, 3.000793
640.2523, 3.403564
640.7344, 3.474487
641.2166, 2.963806
641.6987, 1.849182
642.1808, 0.6084590
642.6629, 0.9388430
643.1450, 2.150879
643.6271, 2.125671
644.1093, 1.215576
644.5914, 0.7001340
645.0735, 0.9285280
645.5556, 1.389038
646.0377, 2.180176
646.5198, 2.922302
647.0020, 2.895203
647.4841, 2.062500
647.9662, 1.135498
648.4483, 0.6459960
648.9304, 0.6731570
649.4125, 1.966797
649.8947, 5.956726
650.3768, 8.484680
650.8589, 7.840576
651.3410, 6.355957
651.8231, 5.516235
652.3052, 5.342773
652.7874, 5.183105
653.2695, 4.740356
653.7516, 4.118042
654.2337, 3.349670
654.7158, 2.490967
655.1979, 1.750671
655.6801, 1.153748
656.1622, 0.9391480
656.6443, 1.579834
657.1264, 3.184082
657.6085, 3.496948
658.0906, 0.6774900
658.5728, 0.9446410
659.0549, 0.6011960
659.5370, 3.261169
660.0191, 5.001526
660.5012, 5.490051
660.9833, 5.527771
661.4655, 5.795288
661.9476, 6.079041
662.4297, 5.458557
662.9118, 3.723511
663.3939, 2.849670
663.8760, 3.721741
664.3582, 5.381348
664.8403, 6.755310
665.3224, 7.871155
665.8045, 9.105164
666.2866, 11.17725
666.7687, 12.69580
667.2509, 12.53802
667.7330, 11.41705
668.2151, 10.42615
668.6972, 9.880432
669.1793, 9.545471
669.6614, 9.066406
670.1436, 8.521973
670.6257, 9.208374
671.1078, 12.13678
671.5899, 14.18414
672.0720, 13.88367
672.5541, 12.84418
673.0363, 11.94092
673.5184, 11.34106
674.0005, 11.69366
674.4826, 14.33301
674.9647, 17.20337
675.4468, 17.70709
675.9290, 16.71637
676.4111, 17.24255
676.8932, 20.23364
677.3753, 23.38049
677.8574, 23.79926
678.3395, 21.34546
678.8217, 19.92859
679.3038, 19.88489
679.7859, 20.50781
680.2680, 22.14453
680.7501, 24.13629
681.2322, 25.73785
681.7144, 26.99377
682.1965, 28.48010
682.6786, 30.92529
683.1607, 33.42975
683.6428, 34.11383
684.1249, 33.25580
684.6071, 33.33173
685.0892, 35.21350
685.5713, 37.86774
686.0534, 40.15662
686.5355, 41.98657
687.0176, 44.01813
687.4998, 47.24719
687.9819, 49.97382
688.4640, 52.26190
688.9461, 53.46307
689.4282, 52.31970
689.9103, 49.08362
690.3925, 45.86578
690.8746, 44.45093
691.3567, 44.29266
691.8388, 44.34186
692.3209, 44.72211
692.8030, 44.06940
693.2852, 41.43628
693.7673, 38.59778
694.2494, 37.77765
694.7315, 38.59473
695.2136, 37.71112
695.6957, 33.96582
696.1779, 30.19928
696.6600, 27.02429
697.1421, 24.38721
697.6242, 22.43872
698.1063, 21.08533
698.5884, 19.85431
699.0706, 18.42432
699.5527, 16.89252
700.0348, 15.24737
700.5169, 13.33160
700.9990, 12.41089
701.4811, 13.18036
701.9633, 14.27838
702.4454, 14.52930
702.9275, 14.20428
703.4096, 14.08112
703.8917, 14.46216
704.3738, 14.80048
704.8560, 14.70813
705.3381, 14.50171
705.8202, 14.74597
706.3023, 15.35852
706.7844, 15.60089
707.2665, 14.95911
707.7487, 13.77557
708.2308, 12.98334
708.7129, 12.71936
709.1950, 12.08221
709.6771, 10.58069
710.1592, 9.240112
710.6414, 8.772156
711.1235, 8.916260
711.6056, 9.127380
712.0877, 9.421997
712.5698, 9.529968
713.0519, 9.197021
713.5341, 8.642761
714.0162, 8.335022
714.4983, 8.209412
714.9804, 7.589478
715.4625, 6.006287
715.9446, 4.039429
716.4268, 3.436401
716.9089, 4.999207
717.3910, 5.312561
717.8731, 2.928894
718.3552, 0.9953610
718.8373, 1.218079
719.3195, 2.666443
719.8016, 4.149048
720.2837, 5.555298
720.7658, 6.588745
721.2479, 7.282349
721.7300, 7.464783
722.2122, 6.586670
722.6943, 4.950378
723.1764, 3.520874
723.6585, 2.716431
724.1406, 2.544006
724.6227, 3.204407
725.1049, 4.900818
725.5870, 5.439880
726.0691, 4.013550
726.5512, 2.722656
727.0333, 2.311890
727.5154, 2.354126
727.9976, 2.594849
728.4797, 2.993958
728.9618, 3.117615
729.4439, 2.441895
729.9260, 1.767456
730.4081, 1.780701
730.8903, 2.213135
731.3724, 2.700012
731.8545, 3.205078
732.3366, 3.289185
732.8187, 2.277893
733.3008, 0.3650510
733.7830, 6.9579999E-03
734.2651, 2.076660
734.7472, 3.730957
735.2293, 4.284912
735.7114, 4.213684
736.1935, 3.543579
736.6757, 2.465881
737.1578, 1.740662
737.6399, 2.081787
738.1220, 2.210999
738.6041, 0.6713260
739.0862, 1.393188
739.5684, 2.045288
740.0505, 1.106934
740.5326, 0.3863530
741.0147, 1.781860
741.4968, 2.916565
741.9789, 3.111206
742.4611, 1.860596
742.9432, 1.612610
743.4253, 3.783752
743.9074, 5.479797
744.3895, 4.303711
744.8716, 1.745300
745.3538, 0.7191160
745.8359, 2.222412
746.3180, 3.457703
746.8001, 2.355286
747.2822, 0.9609380
747.7643, 1.985474
748.2465, 4.694336
748.7286, 6.174072
749.2107, 5.094177
749.6928, 2.981445
750.1749, 2.148987
750.6570, 2.672791
751.1392, 2.876038
751.6213, 2.713257
752.1034, 2.313477
752.5855, 1.351379
753.0676, 0.4395140
753.5497, 0.4044190
754.0319, 1.276489
754.5140, 2.119690
754.9961, 2.961914
755.4782, 3.446045
755.9603, 2.764954
756.4424, 1.817993
756.9246, 2.387817
757.4067, 4.570862
757.8888, 6.330933
758.3709, 5.810303
758.8530, 3.653076
759.3351, 1.776794
759.8173, 6.9701999E-02
760.2994, 0.2266240
760.7815, 1.774170
761.2636, 4.155090
761.7457, 5.374084
762.2278, 5.589966
762.7100, 5.682373
763.1921, 5.680298
763.6742, 5.542908
764.1563, 5.281677
764.6384, 4.872009
765.1205, 4.328186
765.6027, 3.613525
766.0848, 2.507141
766.5669, 0.8665770
767.0490, 0.6115110
767.5311, 0.7897340
768.0132, 6.9397002E-02
768.4954, 0.4912110
768.9775, 0.3495480
769.4596, 2.4475001E-02
769.9417, 0.4920040
770.4238, 0.8025510
770.9059, 1.5381000E-02
771.3881, 2.628418
771.8702, 3.575806
772.3523, 0.9351200
772.8344, 1.028992
773.3165, 0.4660640
773.7986, 1.312622
774.2808, 3.116455
774.7629, 4.592834
775.2450, 5.433777
775.7271, 5.155762
776.2092, 4.377869
776.6913, 4.006775
777.1735, 3.961609
777.6556, 3.968994
778.1377, 3.972717
778.6198, 3.655212
779.1019, 2.635254
779.5840, 1.144958
780.0662, 0.3912960
780.5483, 0.6196900
781.0304, 1.129517
781.5125, 1.839905
781.9946, 2.851501
782.4767, 4.929749
782.9589, 7.170898
783.4410, 7.686951
783.9231, 5.690796
784.4052, 3.669373
784.8873, 3.503723
785.3694, 3.875671
785.8516, 3.140747
786.3337, 1.457703
786.8158, 0.4915770
787.2979, 2.416382
787.7800, 3.632446
788.2621, 3.023743
788.7443, 0.6632080
789.2264, 1.025818
789.7085, 1.884888
790.1906, 2.498657
790.6727, 2.937561
791.1548, 3.285461
791.6370, 3.618774
792.1191, 3.960327
792.6012, 4.308289
793.0833, 4.864319
793.5654, 5.173462
794.0475, 4.732483
794.5297, 4.187622
795.0118, 4.292419
795.4939, 4.953125
795.9760, 5.499695
796.4581, 5.526001
796.9402, 5.393860
797.4224, 6.317871
797.9045, 8.013550
798.3866, 7.216064
798.8687, 3.179138
799.3508, 0.6235960
799.8329, 2.396790
800.3151, 6.393311
800.7972, 8.817749
801.2793, 9.455566
801.7614, 9.343506
802.2435, 8.054321
802.7256, 6.619995
803.2078, 4.710754
803.6899, 3.215515
804.1720, 3.218384
804.6541, 4.667175
805.1362, 6.371338
805.6183, 7.796082
806.1005, 9.078308
806.5826, 10.62177
807.0647, 12.07208
807.5468, 12.46594
808.0289, 11.72430
808.5110, 10.65973
808.9932, 9.766357
809.4753, 9.209473
809.9574, 9.689270
810.4395, 11.75726
810.9216, 12.23456
811.4037, 9.868591
811.8859, 7.734497
812.3680, 8.082275
812.8501, 9.248962
813.3322, 8.509949
813.8143, 5.341125
814.2964, 3.346497
814.7786, 3.918274
815.2607, 5.271057
815.7428, 6.347778
816.2249, 7.563416
816.7070, 10.12183
817.1891, 13.83325
817.6713, 16.52765
818.1534, 16.30048
818.6355, 14.39471
819.1176, 12.98785
819.5997, 12.04547
820.0818, 11.17786
820.5640, 10.23865
821.0461, 10.15820
821.5282, 11.86053
822.0103, 14.60632
822.4924, 16.18042
822.9745, 16.52844
823.4567, 15.82025
823.9388, 12.32599
824.4209, 9.761047
824.9030, 10.34998
825.3851, 12.13025
825.8672, 12.42584
826.3494, 10.85962
826.8315, 9.605652
827.3136, 9.781860
827.7957, 10.58118
828.2778, 11.63647
828.7599, 12.76929
829.2421, 13.79773
829.7242, 14.57648
830.2063, 14.50146
830.6884, 12.91632
831.1705, 10.63287
831.6526, 9.444397
832.1348, 9.351563
832.6169, 10.07605
833.0990, 11.72577
833.5811, 13.81744
834.0632, 16.54333
834.5453, 19.17090
835.0275, 20.03784
835.5096, 18.54938
835.9917, 16.96191
836.4738, 14.53607
836.9559, 12.88470
837.4380, 12.93842
837.9202, 13.86151
838.4023, 14.93347
838.8844, 15.94342
839.3665, 16.61035
839.8486, 16.71216
840.3307, 16.51715
840.8129, 16.26904
841.2950, 15.90674
841.7771, 15.25250
842.2592, 14.34277
842.7413, 13.60248
843.2234, 13.45404
843.7056, 13.41833
844.1877, 12.17645
844.6698, 9.389038
845.1519, 8.468140
845.6340, 10.22229
846.1161, 12.13562
846.5983, 13.33234
847.0804, 13.87994
847.5625, 13.75586
848.0446, 12.87573
848.5267, 12.82349
849.0089, 14.29108
849.4910, 15.48975
849.9731, 15.57233
850.4552, 15.55890
850.9373, 16.91748
851.4194, 18.98981
851.9016, 19.42719
852.3837, 16.86658
852.8658, 13.71698
853.3479, 11.91919
853.8300, 11.09448
854.3121, 11.03302
854.7943, 11.40527
855.2764, 10.59943
855.7585, 7.903564
856.2406, 5.513977
856.7227, 6.651672
857.2048, 10.94556
857.6870, 13.55231
858.1691, 14.15692
858.6512, 14.20758
859.1333, 13.88678
859.6154, 13.36652
860.0975, 12.52789
860.5797, 11.56793
861.0618, 11.54187
861.5439, 12.84961
862.0260, 14.39459
862.5081, 16.98370
862.9902, 18.85999
863.4724, 18.51227
863.9545, 16.92630
864.4366, 15.63077
864.9187, 15.01099
865.4008, 14.86639
865.8829, 15.59146
866.3651, 16.29526
866.8472, 15.69220
867.3293, 14.28922
867.8114, 13.36081
868.2935, 13.14407
868.7756, 13.03162
869.2578, 12.59573
869.7399, 11.83121
870.2220, 10.47794
870.7041, 8.463989
871.1862, 7.625305
871.6683, 8.498932
872.1505, 9.032532
872.6326, 7.701233
873.1147, 5.984589
873.5968, 6.619507
874.0789, 10.30682
874.5610, 12.53915
875.0432, 12.67319
875.5253, 12.26044
876.0074, 11.30591
876.4895, 10.21719
876.9716, 9.198700
877.4537, 8.333069
877.9359, 7.759155
878.4180, 7.532928
878.9001, 7.577026
879.3822, 8.488129
879.8643, 9.178833
880.3464, 7.759369
880.8286, 5.076538
881.3107, 3.635925
881.7928, 4.316315
882.2749, 5.892609
882.7570, 7.347656
883.2391, 8.532898
883.7213, 8.850555
884.2034, 8.347321
884.6855, 7.762604
885.1676, 7.263580
885.6497, 6.656097
886.1318, 5.625854
886.6140, 4.545288
887.0961, 4.840210
887.5782, 7.553070
888.0603, 8.916779
888.5424, 7.947388
889.0245, 6.953186
889.5067, 7.333496
889.9888, 7.886230
890.4709, 6.846680
890.9530, 4.174347
891.4351, 2.599640
891.9172, 3.488495
892.3994, 4.564087
892.8815, 5.297089
893.3636, 5.486084
893.8457, 4.530487
894.3278, 2.889587
894.8099, 1.868011
895.2921, 2.068146
895.7742, 2.604309
896.2563, 2.911255
896.7384, 2.861084
897.2205, 1.673462
897.7026, 0.1469730
898.1848, 0.1798400
898.6669, 2.216553
899.1490, 4.331207
899.6311, 3.372498
900.1132, 0.2630920
900.5953, 1.733734
901.0775, 2.608826
901.5596, 2.331024
902.0417, 0.4374690
902.5238, 1.085663
903.0059, 0.7984620
903.4880, 0.3351140
903.9702, 0.1855470
904.4523, 1.912109
904.9344, 2.571075
905.4165, 0.2157590
905.8986, 1.513306
906.3807, 1.312408
906.8629, 0.5646970
907.3450, 0.4533390
907.8271, 0.8714290
908.3092, 1.120453
908.7913, 0.9183960
909.2734, 0.3746340
909.7556, 0.8304750
910.2377, 2.044434
910.7198, 2.609711
911.2019, 2.785034
911.6840, 3.242401
912.1661, 4.142578
912.6483, 4.813110
913.1304, 4.268433
913.6125, 3.431854
914.0946, 3.852356
914.5767, 5.220123
915.0588, 7.266418
915.5410, 9.741882
916.0231, 10.72549
916.5052, 8.814331
916.9873, 5.789307
917.4694, 5.442627
917.9515, 7.926849
918.4337, 8.579407
918.9158, 6.801178
919.3979, 5.932220
919.8800, 7.465210
920.3621, 9.595306
920.8442, 10.22147
921.3264, 9.613007
921.8085, 10.48538
922.2906, 15.54849
922.7727, 17.49854
923.2548, 12.49649
923.7369, 8.326630
924.2191, 9.898529
924.7012, 14.05264
925.1833, 15.82898
925.6654, 14.61832
926.1475, 13.53049
926.6296, 13.97073
927.1118, 14.04031
927.5939, 11.84561
928.0760, 9.522614
928.5581, 9.832062
929.0402, 12.25232
929.5223, 14.26764
930.0045, 14.82300
930.4866, 14.39868
930.9687, 12.34189
931.4508, 10.20721
931.9329, 11.34644
932.4150, 14.59250
932.8972, 15.80756
933.3793, 13.98178
933.8614, 11.51111
934.3435, 10.42471
934.8256, 10.25565
935.3077, 9.811371
935.7899, 9.148254
936.2720, 9.363922
936.7541, 10.71896
937.2362, 11.02866
937.7183, 8.881653
938.2004, 6.198669
938.6826, 5.932373
939.1647, 8.140320
939.6468, 10.30737
940.1289, 12.92227
940.6110, 14.28864
941.0931, 13.74777
941.5753, 12.30203
942.0574, 10.11569
942.5395, 7.644257
943.0216, 6.101318
943.5037, 5.729279
943.9858, 5.568665
944.4680, 5.325073
944.9501, 5.554565
945.4322, 7.276581
945.9143, 8.987823
946.3964, 8.796814
946.8785, 7.032532
947.3607, 5.928650
947.8428, 6.721008
948.3249, 7.192566
948.8070, 5.318329
949.2891, 3.288361
949.7712, 3.408600
950.2534, 4.930145
950.7355, 6.286926
951.2176, 6.981567
951.6997, 7.055420
952.1818, 6.156525
952.6639, 5.143097
953.1461, 5.508728
953.6282, 6.592896
954.1103, 6.735077
954.5924, 5.891571
955.0745, 5.217407
955.5566, 5.280182
956.0388, 5.305603
956.5209, 3.976715
957.0030, 1.697449
957.4851, 0.6517940
957.9672, 0.8304140
958.4493, 1.187927
958.9315, 1.599579
959.4136, 2.003571
959.8957, 2.450836
960.3778, 2.729065
960.8599, 2.353180
961.3420, 1.015778
961.8242, 0.5386350
962.3063, 1.253082
962.7884, 2.077087
963.2705, 2.999237
963.7526, 3.331848
964.2347, 2.091766
964.7169, 0.2913510
965.1990, 0.9334720
965.6811, 2.251892
966.1632, 3.909515
966.6453, 3.156219
967.1274, 1.962494
967.6096, 0.8041990
968.0917, 0.1686400
968.5738, 0.6706240
969.0559, 0.7184750
969.5380, 0.8477480
970.0201, 1.480103
970.5023, 1.826904
970.9844, 1.724030
971.4665, 1.133087
971.9486, 0.4875180
972.4307, 2.464630
972.9128, 3.427399
973.3950, 3.035919
973.8771, 2.511719
974.3592, 2.729523
974.8413, 2.971344
975.3234, 2.421051
975.8055, 1.590393
976.2877, 1.337555
976.7698, 1.630981
977.2519, 1.682556
977.7340, 1.203949
978.2161, 0.5671690
978.6982, 6.0669001E-02
979.1804, 0.4455260
979.6625, 6.3781999E-02
980.1446, 1.214050
980.6267, 2.299438
981.1088, 3.086853
981.5909, 3.140045
982.0731, 2.088013
982.5552, 0.5403140
983.0373, 0.5691530
983.5194, 1.211395
984.0015, 1.102509
984.4836, 0.2375490
984.9658, 0.8589170
985.4479, 2.053253
985.9300, 3.228851
986.4121, 4.392242
986.8942, 5.276154
987.3763, 4.508698
987.8585, 1.538696
988.3406, 0.8304440
988.8227, 3.388306
989.3048, 5.515076
989.7869, 5.637177
990.2690, 4.747070
990.7512, 3.845123
991.2333, 2.968842
991.7154, 2.667816
992.1975, 3.326721
992.6796, 3.724121
993.1617, 3.384644
993.6439, 3.322937
994.1260, 4.297668
994.6081, 5.667114
995.0902, 6.504517
995.5723, 6.793243
996.0544, 7.108582
996.5366, 8.061005
997.0187, 8.200439
997.5008, 6.472626
997.9829, 4.707062
998.4650, 3.876862
998.9471, 3.821075
999.4293, 4.446960
999.9114, 5.799866
1000.393, 6.436157
1000.876, 5.508606
1001.358, 4.357574
1001.840, 3.216705
1002.322, 2.373749
1002.804, 1.958282
1003.286, 2.063049
1003.768, 3.002533
1004.250, 4.916656
1004.733, 6.613251
1005.215, 7.718292
1005.697, 8.083038
1006.179, 6.842621
1006.661, 5.269623
1007.143, 5.301483
1007.625, 6.587769
1008.107, 7.260895
1008.589, 6.507721
1009.072, 5.456390
1009.554, 4.885284
1010.036, 4.672668
1010.518, 4.672546
1011.000, 4.917938
1011.482, 5.543060
1011.964, 6.509521
1012.446, 7.671326
1012.929, 9.005951
1013.411, 10.02155
1013.893, 10.05145
1014.375, 9.383575
1014.857, 8.317261
1015.339, 7.059509
1015.821, 6.347900
1016.303, 6.311279
1016.785, 6.428375
1017.268, 6.301270
1017.750, 6.387299
1018.232, 7.972229
1018.714, 10.41412
1019.196, 10.81271
1019.678, 9.294525
1020.160, 7.586273
1020.642, 6.152985
1021.125, 5.845551
1021.607, 7.530182
1022.089, 10.08536
1022.571, 10.84195
1023.053, 9.911377
1023.535, 8.944366
1024.017, 7.865540
1024.499, 7.785553
1024.981, 9.244415
1025.464, 10.32877
1025.946, 9.178101
1026.428, 6.474487
1026.910, 4.337402
1027.392, 2.778473
1027.874, 1.526550
1028.356, 0.4907230
1028.838, 0.4173890
1029.321, 1.852356
1029.803, 3.644989
1030.285, 4.560455
1030.767, 4.756134
1031.249, 4.972870
1031.731, 5.207550
1032.213, 5.596741
1032.695, 6.681427
1033.177, 6.349152
1033.660, 2.238495
1034.142, 1.138245
1034.624, 1.956146
1035.106, 9.903778
1035.588, 12.18869
1036.070, 4.874390
1036.552, 1.437988
1037.034, 4.242432
1037.516, 7.370209
1037.999, 8.846466
1038.481, 9.340515
1038.963, 9.254456
1039.445, 8.738342
1039.927, 8.946075
1040.409, 10.01929
1040.891, 11.55643
1041.373, 14.32706
1041.855, 16.59225
1042.338, 17.60510
1042.820, 17.90503
1043.302, 17.68484
1043.784, 17.10330
1044.266, 17.36929
1044.748, 19.25790
1045.230, 20.73621
1045.712, 21.63245
1046.195, 22.18658
1046.677, 22.12384
1047.159, 22.03262
1047.641, 22.68866
1048.123, 23.96414
1048.605, 24.84778
1049.087, 25.01801
1049.569, 25.17926
1050.052, 25.59332
1050.534, 25.82803
1051.016, 25.13882
1051.498, 24.54623
1051.980, 25.13083
1052.462, 26.88904
1052.944, 29.40250
1053.426, 33.73236
1053.908, 36.50870
1054.391, 36.14786
1054.873, 35.00604
1055.355, 33.29758
1055.837, 32.12125
1056.319, 33.30173
1056.801, 36.38995
1057.283, 38.00015
1057.765, 36.45187
1058.248, 35.12512
1058.730, 35.61990
1059.212, 35.85727
1059.694, 34.52103
1060.176, 32.40625
1060.658, 30.41949
1061.140, 28.58975
1061.622, 26.43826
1062.104, 23.45483
1062.587, 21.30078
1063.069, 21.52667
1063.551, 21.54520
1064.033, 19.44177
1064.515, 16.66132
1064.997, 14.92297
1065.479, 14.16122
1065.961, 13.37848
1066.443, 12.35956
1066.926, 11.03577
1067.408, 8.508301
1067.890, 6.670929
1068.372, 7.280334
1068.854, 8.822052
1069.336, 9.642792
1069.818, 9.631134
1070.300, 9.046112
1070.782, 7.814911
1071.265, 6.898285
1071.747, 6.814056
1072.229, 7.207153
1072.711, 8.597931
1073.193, 9.866089
1073.675, 9.222626
1074.157, 7.419373
1074.639, 7.083527
1075.122, 9.251373
1075.604, 10.47238
1076.086, 7.844513
1076.568, 5.398132
1077.050, 6.172882
1077.532, 7.775818
1078.014, 7.515106
1078.496, 5.931793
1078.979, 5.029572
1079.461, 5.345795
1079.943, 5.777985
1080.425, 5.495331
1080.907, 5.608704
1081.389, 8.073059
1081.871, 10.07224
1082.353, 7.694580
1082.835, 3.058228
1083.318, 1.177765
1083.800, 3.163910
1084.282, 5.341766
1084.764, 6.134125
1085.246, 6.729095
1085.728, 8.305023
1086.210, 9.400940
1086.692, 8.331146
1087.175, 6.085754
1087.657, 4.318237
1088.139, 3.221771
1088.621, 2.320404
1089.103, 1.628571
1089.585, 0.9283450
1090.067, 0.6244200
1090.549, 1.496979
1091.031, 0.4110720
1091.514, 3.304840
1091.996, 4.195618
1092.478, 3.013458
1092.960, 2.099426
1093.442, 2.199982
1093.924, 2.775055
1094.406, 4.140106
1094.888, 5.314484
1095.370, 5.932129
1095.853, 5.854797
1096.335, 4.652771
1096.817, 2.614868
1097.299, 0.8684390
1097.781, 0.5986020
1098.263, 0.6134030
1098.745, 3.078033
1099.227, 6.029694
1099.709, 5.446289
1100.192, 3.467438
1100.674, 2.009430
1101.156, 1.275330
1101.638, 1.287720
1102.120, 2.380157
1102.602, 2.937286
1103.084, 1.060455
1103.566, 0.5001530
1104.049, 4.479645
1104.531, 8.822510
1105.013, 9.439758
1105.495, 7.713593
1105.977, 7.619843
1106.459, 10.07281
1106.941, 11.08646
1107.423, 8.602478
1107.906, 6.554901
1108.388, 6.474823
1108.870, 6.665070
1109.352, 5.818207
1109.834, 4.563446
1110.316, 4.209534
1110.798, 4.895538
1111.280, 5.004913
1111.762, 3.173523
1112.245, 2.621521
1112.727, 6.189789
1113.209, 8.318695
1113.691, 4.049866
1114.173, 1.724945
1114.655, 2.148041
1115.137, 2.292633
1115.619, 4.691254
1116.102, 3.928741
1116.584, 3.057007
1117.066, 1.704956
1117.548, 0.8677060
1118.030, 1.368011
1118.512, 1.994507
1118.994, 1.410217
1119.476, 6.3780001E-03
1119.958, 0.6485290
1120.441, 0.5367130
1120.923, 0.4159850
1121.405, 3.159027
1121.887, 4.535187
1122.369, 3.085297
1122.851, 1.260925
1123.333, 0.6710510
1123.815, 1.166473
1124.297, 2.754395
1124.780, 1.877594
1125.262, 5.767670
1125.744, 1.716339
1126.226, 0.7183530
1126.708, 0.1087040
1127.190, 0.6621400
1127.672, 0.1730350
1128.154, 1.294647
1128.636, 0.6007080
1129.119, 0.8789670
1129.601, 0.3599240
1130.083, 0.9992980
1130.565, 1.683411
1131.047, 4.918671
1131.529, 7.345123
1132.011, 7.597290
1132.493, 6.560852
1132.976, 4.905548
1133.458, 3.111572
1133.940, 2.832031
1134.422, 3.893311
1134.904, 4.012817
1135.386, 3.135040
1135.868, 2.121887
1136.350, 1.229980
1136.833, 1.025665
1137.315, 2.005615
1137.797, 3.255402
1138.279, 3.040222
1138.761, 1.850189
1139.243, 1.189178
1139.725, 1.098755
1140.207, 2.127167
1140.689, 4.051208
1141.172, 4.813751
1141.654, 3.461639
1142.136, 1.796875
1142.618, 1.999054
1143.100, 2.843292
1143.582, 2.088043
1144.064, 0.4721070
1144.546, 0.9442750
1145.029, 1.729523
1145.511, 0.5734860
1145.993, 2.533142
1146.475, 4.604218
1146.957, 3.092316
1147.439, 1.090820
1147.921, 1.759094
1148.403, 3.497101
1148.885, 5.221741
1149.368, 6.322632
1149.850, 5.725677
1150.332, 3.725922
1150.814, 1.760284
1151.296, 0.2034610
1151.778, 0.1757510
1152.260, 4.834869
1152.742, 8.372070
1153.224, 5.029663
1153.707, 1.9530000E-03
1154.189, 0.7907710
1154.671, 1.328705
1155.153, 1.890991
1155.635, 4.6569999E-02
1156.117, 0.7333070
1156.599, 2.012207
1157.081, 4.832672
1157.563, 7.041840
1158.046, 8.504852
1158.528, 9.168396
1159.010, 9.105591
1159.492, 8.028717
1159.974, 6.147583
1160.456, 5.037964
1160.938, 5.091125
1161.420, 5.382446
1161.903, 5.982178
1162.385, 6.703217
1162.867, 7.835022
1163.349, 8.685120
1163.831, 8.776703
1164.313, 8.148804
1164.795, 6.764404
1165.277, 4.436279
1165.760, 2.865326
1166.242, 2.069122
1166.724, 2.117188
1167.206, 3.393158
1167.688, 4.254913
1168.170, 3.676697
1168.652, 2.744476
1169.134, 2.819763
1169.616, 3.813507
1170.099, 5.746887
1170.581, 8.665894
1171.063, 9.202942
1171.545, 7.139221
1172.027, 5.348816
1172.509, 4.830719
1172.991, 5.161407
1173.473, 5.851715
1173.956, 6.450714
1174.438, 6.050293
1174.920, 4.954987
1175.402, 4.023804
1175.884, 3.331238
1176.366, 3.234772
1176.848, 3.623932
1177.330, 3.687317
1177.813, 3.086670
1178.295, 2.656219
1178.777, 3.449127
1179.259, 4.303680
1179.741, 2.987640
1180.223, 1.390900
1180.705, 2.939087
1181.187, 6.198212
1181.669, 7.751587
1182.151, 7.146362
1182.634, 6.238403
1183.116, 5.939911
1183.598, 5.315155
1184.080, 2.558380
1184.562, 0.5906680
1185.044, 2.346436
1185.526, 5.452393
1186.008, 8.017365
1186.490, 9.702484
1186.973, 9.772095
1187.455, 8.052765
1187.937, 7.101532
1188.419, 7.876099
1188.901, 8.652924
1189.383, 9.445435
1189.865, 9.763428
1190.347, 8.619720
1190.830, 7.472748
1191.312, 8.455383
1191.794, 10.83008
1192.276, 10.79764
1192.758, 7.281769
1193.240, 4.885986
1193.722, 3.632751
1194.204, 3.657593
1194.687, 5.436890
1195.169, 7.043823
1195.651, 7.157257
1196.133, 6.728577
1196.615, 7.547333
1197.097, 9.116699
1197.579, 7.667267
1198.061, 3.458282
1198.543, 2.132507
1199.026, 3.983643
1199.508, 4.806335
1199.990, 3.273804
1200.472, 2.655670
1200.954, 5.855194
1201.436, 10.00473
1201.918, 10.04318
1202.400, 7.763397
1202.883, 6.518280
1203.365, 6.173065
1203.847, 5.735107
1204.329, 5.230377
1204.811, 5.758942
1205.293, 7.674530
1205.775, 9.289917
1206.257, 9.142822
1206.740, 8.526520
1207.222, 8.188080
1207.704, 8.003265
1208.186, 7.855225
1208.668, 7.846619
1209.150, 7.836365
1209.632, 7.913086
1210.114, 8.697266
1210.596, 10.97406
1211.078, 11.64993
1211.561, 8.601715
1212.043, 5.868561
1212.525, 5.314636
1213.007, 4.925293
1213.489, 3.074493
1213.971, 0.7810670
1214.453, 0.3761900
1214.935, 0.4400940
1215.417, 1.105530
1215.900, 5.089752
1216.382, 7.494843
1216.864, 7.937012
1217.346, 7.190216
1217.828, 5.102325
1218.310, 4.165558
1218.792, 6.520050
1219.274, 10.17914
1219.757, 11.56372
1220.239, 10.99985
1220.721, 9.549255
1221.203, 7.558563
1221.685, 6.882416
1222.167, 7.564850
1222.649, 8.662445
1223.131, 9.716553
1223.614, 9.771057
1224.096, 7.859924
1224.578, 5.398102
1225.060, 3.146393
1225.542, 1.925354
1226.024, 3.941833
1226.506, 6.936523
1226.988, 6.916016
1227.470, 4.631805
1227.953, 3.923828
1228.435, 5.987152
1228.917, 7.230560
1229.399, 5.306396
1229.881, 3.777893
1230.363, 4.385345
1230.845, 5.045135
1231.327, 4.225983
1231.810, 3.037537
1232.292, 2.997742
1232.774, 3.763947
1233.256, 3.792084
1233.738, 2.699127
1234.220, 2.803650
1234.702, 4.641724
1235.184, 5.802765
1235.667, 5.689697
1236.149, 5.890198
1236.631, 7.323608
1237.113, 8.967957
1237.595, 9.709015
1238.077, 9.519165
1238.559, 7.770477
1239.041, 4.992188
1239.523, 4.516235
1240.005, 5.708374
1240.488, 4.164337
1240.970, 0.2901610
1241.452, 2.495361
1241.934, 9.9854000E-02
1242.416, 3.284393
1242.898, 2.856140
1243.380, 1.557953
1243.862, 2.484344
1244.344, 3.788727
1244.827, 2.761993
1245.309, 0.9044800
1245.791, 1.105286
1246.273, 3.378845
1246.755, 5.642914
1247.237, 7.579529
1247.719, 8.755615
1248.201, 9.302307
1248.684, 8.767731
1249.166, 5.409424
1249.648, 2.825256
1250.130, 3.748047
1250.612, 5.766327
1251.094, 5.529205
1251.576, 3.347046
1252.058, 2.043304
1252.541, 1.687500
1253.023, 1.971130
1253.505, 2.984863
1253.987, 3.321655
1254.469, 2.639069
1254.951, 2.034607
1255.433, 2.129944
1255.915, 2.505615
1256.397, 2.762817
1256.880, 2.883057
1257.362, 3.125580
1257.844, 3.129547
1258.326, 1.080902
1258.808, 1.440521
1259.290, 0.5855710
1259.772, 6.541840
1260.254, 9.401855
1260.737, 5.872498
1261.219, 2.749176
1261.701, 4.957214
1262.183, 6.663940
1262.665, 3.475098
1263.147, 0.4131470
1263.629, 1.632141
1264.111, 5.077454
1264.594, 5.180237
1265.076, 2.420410
1265.558, 0.4530330
1266.040, 0.9151920
1266.522, 0.1483760
1267.004, 3.699768
1267.486, 5.689301
1267.968, 4.273468
1268.450, 4.157074
1268.932, 7.960358
1269.415, 11.32034
1269.897, 8.888702
1270.379, 3.600494
1270.861, 2.930206
1271.343, 5.445404
1271.825, 6.972229
1272.307, 6.965668
1272.789, 7.857697
1273.271, 9.226990
1273.754, 10.10535
1274.236, 10.23627
1274.718, 8.958740
1275.200, 5.136688
1275.682, 2.090576
1276.164, 2.660950
1276.646, 4.755188
1277.128, 4.715912
1277.611, 3.645142
1278.093, 2.760223
1278.575, 2.059387
1279.057, 1.173340
1279.539, 0.1129460
1280.021, 3.7323002E-02
1280.503, 2.206360
1280.985, 3.240662
1281.468, 2.638947
1281.950, 2.088348
1282.432, 2.194153
1282.914, 2.185699
1283.396, 2.843719
1283.878, 3.278900
1284.360, 2.441254
1284.842, 0.8534550
1285.324, 0.0000000E+00
##END=



