##NAMES=Collinsite
##RRUFFID=R140626
##IDEAL CHEMISTRY=Ca_2_Mg(PO_4_)_2_&#183;2H_2_O
##LOCALITY=Near Milgun Station, Meekatharra Shire, Western Australia, Australia
##OWNER=RRUFF
##SOURCE=Rock Currier
##DESCRIPTION=Colorless bladed to prismatic crystals with pointy ends. Associated with gordonite (R130671), montgomeryite (R140625), and hydroxylapatite (R140987).
##STATUS=The identification of this mineral is confirmed by single-crystal X-ray diffraction and chemical analysis.
##URL=rruff.info/R140626
##MEASURED CHEMISTRY=Ca_2.01_Mg_1.06_(P_1.00_O_4_)_2_Â·2H_2_O trace Mn, Fe
91.71167, 0.0000000E+00
92.19379, 1.436066
92.67590, 6.187820
93.15802, 10.20392
93.64014, 9.800293
94.12225, 6.228149
94.60437, 3.074539
95.08649, 0.9838560
95.56860, 0.1353610
96.05072, 0.1185300
96.53284, 1.804413
97.01495, 3.775070
97.49707, 4.475555
97.97919, 3.949783
98.46130, 4.392838
98.94342, 6.194458
99.42554, 9.345673
99.90765, 15.63560
100.3898, 23.49031
100.8719, 32.42918
101.3540, 40.81010
101.8361, 49.11482
102.3182, 55.66183
102.8004, 60.33533
103.2825, 63.76279
103.7646, 63.14389
104.2467, 57.95786
104.7288, 49.31798
105.2109, 39.30867
105.6931, 25.91573
106.1752, 13.92249
106.6573, 5.241684
107.1394, 0.5390170
107.6215, 2.188873
108.1036, 2.279922
108.5858, 0.2386020
109.0679, 1.313690
109.5500, 1.681244
110.0321, 2.194107
110.5142, 3.540878
110.9963, 6.539352
111.4785, 9.289078
111.9606, 11.30170
112.4427, 12.62419
112.9248, 14.50398
113.4069, 17.45760
113.8890, 20.84276
114.3712, 24.17941
114.8533, 27.15265
115.3354, 30.24051
115.8175, 33.56750
116.2996, 37.18733
116.7817, 41.01602
117.2639, 45.10611
117.7460, 49.40192
118.2281, 53.83253
118.7102, 58.33580
119.1923, 63.00134
119.6744, 67.64642
120.1566, 72.07561
120.6387, 77.34053
121.1208, 83.47922
121.6029, 90.86194
122.0850, 100.2159
122.5671, 110.6614
123.0493, 123.7975
123.5314, 141.2240
124.0135, 163.2452
124.4956, 189.5761
124.9777, 219.4840
125.4598, 253.1990
125.9420, 291.2207
126.4241, 339.1061
126.9062, 391.1895
127.3883, 440.3643
127.8704, 492.6325
128.3525, 529.8296
128.8347, 518.8892
129.3168, 460.8756
129.7989, 385.8836
130.2810, 307.9752
130.7631, 230.5988
131.2452, 167.4191
131.7274, 123.9032
132.2095, 95.99548
132.6916, 74.29549
133.1737, 58.99588
133.6558, 47.83572
134.1379, 38.72870
134.6201, 31.66600
135.1022, 26.06178
135.5843, 21.94916
136.0664, 19.22774
136.5485, 17.42720
137.0306, 16.67657
137.5128, 16.53716
137.9949, 16.45027
138.4770, 16.36124
138.9591, 16.61385
139.4412, 17.46263
139.9233, 18.96533
140.4055, 20.09859
140.8876, 20.79323
141.3697, 21.18370
141.8518, 21.47322
142.3339, 21.61797
142.8160, 21.74568
143.2982, 21.80879
143.7803, 21.57692
144.2624, 22.04428
144.7445, 23.43776
145.2266, 25.46826
145.7087, 27.33102
146.1909, 28.50378
146.6730, 30.21371
147.1551, 32.99112
147.6372, 37.21463
148.1193, 41.82300
148.6014, 46.75693
149.0836, 52.06030
149.5657, 58.16304
150.0478, 64.00047
150.5299, 71.24109
151.0120, 80.69627
151.4941, 92.95491
151.9763, 106.5746
152.4584, 121.7949
152.9405, 138.4709
153.4226, 156.1596
153.9047, 178.0406
154.3868, 198.8407
154.8690, 215.6884
155.3511, 235.4074
155.8332, 243.5559
156.3153, 234.9695
156.7974, 210.9996
157.2795, 182.6824
157.7617, 145.9527
158.2438, 109.1255
158.7259, 78.20247
159.2080, 55.99390
159.6901, 38.46800
160.1722, 25.29688
160.6544, 16.33475
161.1365, 9.372757
161.6186, 4.318909
162.1007, 0.6584780
162.5828, 2.202759
163.0649, 4.063965
163.5471, 5.438889
164.0292, 6.418732
164.5113, 7.009933
164.9934, 7.617264
165.4755, 9.068741
165.9576, 10.51914
166.4398, 10.92291
166.9219, 9.295349
167.4040, 7.052216
167.8861, 5.305878
168.3682, 4.157516
168.8503, 2.472137
169.3325, 0.7508090
169.8146, 4.981857
170.2967, 9.305649
170.7788, 13.69395
171.2609, 17.85068
171.7430, 21.37447
172.2252, 24.21854
172.7073, 26.84494
173.1894, 29.33522
173.6715, 31.89186
174.1536, 34.86009
174.6357, 38.46370
175.1179, 42.59920
175.6000, 47.14076
176.0821, 52.01794
176.5642, 57.38416
177.0463, 63.42546
177.5284, 70.10638
178.0106, 77.20448
178.4927, 83.85559
178.9748, 91.04642
179.4569, 100.1664
179.9390, 111.3918
180.4211, 124.6928
180.9033, 139.4207
181.3854, 156.0826
181.8675, 176.5168
182.3496, 201.4724
182.8317, 230.9325
183.3138, 266.3240
183.7960, 307.5906
184.2781, 354.4881
184.7602, 406.2319
185.2423, 463.1551
185.7244, 523.8095
186.2065, 599.4911
186.6887, 681.0724
187.1708, 738.6396
187.6529, 772.1190
188.1350, 773.8221
188.6171, 717.7938
189.0992, 604.8127
189.5814, 483.1082
190.0635, 376.6890
190.5456, 284.7712
191.0277, 212.6771
191.5098, 162.5973
191.9919, 128.9006
192.4741, 103.3369
192.9562, 86.13965
193.4383, 73.56049
193.9204, 64.16331
194.4025, 57.84062
194.8846, 52.85072
195.3668, 49.22145
195.8489, 46.56224
196.3310, 44.14301
196.8131, 42.02299
197.2952, 39.70003
197.7773, 36.58324
198.2595, 32.65030
198.7416, 29.17934
199.2237, 26.28558
199.7058, 24.00900
200.1879, 22.55617
200.6700, 21.97179
201.1522, 21.96794
201.6343, 22.20227
202.1164, 22.59218
202.5985, 24.12103
203.0806, 26.98299
203.5627, 30.99890
204.0449, 35.72563
204.5270, 41.31801
205.0091, 47.10820
205.4912, 52.56889
205.9733, 57.58824
206.4554, 62.95041
206.9376, 68.80669
207.4197, 75.03296
207.9018, 81.35497
208.3839, 87.70990
208.8660, 94.35355
209.3481, 101.2589
209.8303, 108.3092
210.3124, 116.2559
210.7945, 125.0459
211.2766, 134.7909
211.7587, 146.3132
212.2408, 159.7722
212.7230, 174.7657
213.2051, 190.8463
213.6872, 207.3734
214.1693, 227.2040
214.6514, 250.0678
215.1335, 276.4941
215.6157, 307.5745
216.0978, 343.2962
216.5799, 384.1665
217.0620, 430.8050
217.5441, 483.3826
218.0262, 541.9705
218.5084, 607.8203
218.9905, 680.5558
219.4726, 756.4418
219.9547, 842.9137
220.4368, 921.7120
220.9189, 983.1574
221.4011, 1033.294
221.8832, 1050.779
222.3653, 1028.570
222.8474, 972.5535
223.3295, 906.1948
223.8116, 828.8177
224.2938, 744.6799
224.7759, 654.4237
225.2580, 552.1271
225.7401, 459.6062
226.2222, 376.9051
226.7043, 305.0015
227.1865, 244.8414
227.6686, 199.3306
228.1507, 162.6398
228.6328, 132.6389
229.1149, 110.8838
229.5970, 92.35458
230.0792, 77.30904
230.5613, 65.31155
231.0434, 55.29810
231.5255, 47.89232
232.0076, 41.72121
232.4897, 36.14934
232.9719, 31.03535
233.4540, 26.87274
233.9361, 23.75378
234.4182, 21.57951
234.9003, 20.00938
235.3824, 19.33015
235.8646, 18.84375
236.3467, 18.13443
236.8288, 16.76141
237.3109, 16.15848
237.7930, 16.51854
238.2751, 17.64339
238.7573, 18.91417
239.2394, 20.22093
239.7215, 21.82707
240.2036, 23.84767
240.6857, 26.25754
241.1678, 29.12863
241.6500, 32.45935
242.1321, 36.22986
242.6142, 40.46594
243.0963, 45.11363
243.5784, 50.28494
244.0605, 55.86230
244.5427, 61.46164
245.0248, 68.55481
245.5069, 77.43979
245.9890, 87.74255
246.4711, 98.45651
246.9532, 109.4703
247.4354, 121.2447
247.9175, 133.8081
248.3996, 147.1837
248.8817, 161.5712
249.3638, 177.4230
249.8459, 194.0406
250.3281, 210.4247
250.8102, 227.7600
251.2923, 242.8833
251.7744, 255.0643
252.2565, 264.3412
252.7386, 270.1772
253.2208, 272.7878
253.7029, 271.8400
254.1850, 266.4283
254.6671, 255.0263
255.1492, 241.9765
255.6313, 228.2349
256.1135, 213.5696
256.5956, 199.8499
257.0777, 186.6793
257.5598, 174.8919
258.0419, 165.7334
258.5240, 159.6506
259.0062, 155.4524
259.4883, 153.0697
259.9704, 152.6207
260.4525, 152.9081
260.9346, 154.5618
261.4167, 156.1709
261.8989, 156.4230
262.3810, 155.8648
262.8631, 152.4805
263.3452, 145.6815
263.8273, 135.3702
264.3094, 122.8953
264.7916, 107.0019
265.2737, 90.66022
265.7558, 76.44629
266.2379, 64.72466
266.7200, 54.27527
267.2021, 44.80879
267.6843, 36.37021
268.1664, 28.94075
268.6485, 22.48306
269.1306, 17.12486
269.6127, 13.24879
270.0948, 11.14940
270.5770, 9.236252
271.0591, 7.246307
271.5412, 5.261002
272.0233, 3.662476
272.5054, 2.548691
272.9875, 1.618561
273.4697, 0.6862790
273.9518, 0.2586520
274.4339, 1.250122
274.9160, 2.431396
275.3981, 3.577179
275.8802, 3.909821
276.3624, 3.262421
276.8445, 2.425003
277.3266, 1.938553
277.8087, 1.840851
278.2908, 1.498627
278.7729, 0.8404240
279.2551, 6.8709999E-02
279.7372, 1.079468
280.2193, 2.197815
280.7014, 3.412994
281.1835, 4.793777
281.6656, 6.336227
282.1478, 7.636093
282.6299, 8.524475
283.1120, 9.472076
283.5941, 11.48149
284.0762, 14.62094
284.5583, 17.60583
285.0405, 19.75984
285.5226, 21.17924
286.0047, 22.70901
286.4868, 24.32474
286.9689, 26.14742
287.4510, 28.32594
287.9332, 30.85811
288.4153, 33.72878
288.8974, 36.88820
289.3795, 40.34880
289.8616, 44.10611
290.3438, 48.17363
290.8259, 52.44250
291.3080, 56.67114
291.7901, 60.92531
292.2722, 65.77791
292.7543, 71.56168
293.2365, 77.98636
293.7186, 84.33356
294.2007, 90.59238
294.6828, 96.94260
295.1649, 103.8971
295.6470, 111.0753
296.1292, 117.5807
296.6113, 123.4336
297.0934, 128.1225
297.5755, 130.8615
298.0576, 131.6894
298.5397, 130.9738
299.0219, 129.2367
299.5040, 126.1291
299.9861, 120.8122
300.4682, 112.7986
300.9503, 103.1866
301.4324, 92.46097
301.9146, 81.02702
302.3967, 70.08707
302.8788, 60.40062
303.3609, 51.67430
303.8430, 43.58051
304.3251, 36.01407
304.8073, 29.37996
305.2894, 24.17477
305.7715, 20.20215
306.2536, 16.83954
306.7357, 13.89378
307.2178, 11.29190
307.7000, 9.036926
308.1821, 7.169342
308.6642, 5.493591
309.1463, 3.842529
309.6284, 2.287552
310.1105, 0.9160160
310.5927, 0.2606810
311.0748, 1.213974
311.5569, 1.879074
312.0390, 2.245712
312.5211, 2.510391
313.0032, 2.970108
313.4854, 3.336853
313.9675, 3.309921
314.4496, 2.426773
314.9317, 1.415833
315.4138, 0.6385040
315.8959, 4.5395002E-02
316.3781, 0.6620030
316.8602, 1.782867
317.3423, 2.969910
317.8244, 3.920593
318.3065, 4.045044
318.7886, 4.670792
319.2708, 6.543488
319.7529, 9.292221
320.2350, 11.88103
320.7171, 13.83212
321.1992, 15.64612
321.6813, 17.46939
322.1635, 19.03461
322.6456, 21.26151
323.1277, 24.39294
323.6098, 28.28061
324.0919, 32.69534
324.5740, 37.43307
325.0562, 42.79034
325.5383, 48.66327
326.0204, 54.78241
326.5025, 62.51782
326.9846, 72.82957
327.4667, 84.42546
327.9489, 96.05753
328.4310, 107.0504
328.9131, 118.8529
329.3952, 132.0923
329.8773, 146.8188
330.3594, 161.1780
330.8416, 176.4907
331.3237, 190.1760
331.8058, 200.6176
332.2879, 209.4642
332.7700, 212.1367
333.2521, 207.7442
333.7343, 196.8732
334.2164, 181.6405
334.6985, 159.8686
335.1806, 137.3884
335.6627, 116.9700
336.1448, 98.74100
336.6270, 82.76547
337.1091, 69.24605
337.5912, 58.00224
338.0733, 48.67743
338.5554, 41.60037
339.0375, 35.67221
339.5197, 30.53705
340.0018, 26.24733
340.4839, 22.64107
340.9660, 19.87767
341.4481, 17.59912
341.9302, 15.43402
342.4124, 13.35265
342.8945, 11.51776
343.3766, 9.967102
343.8587, 8.694031
344.3408, 7.640656
344.8229, 6.832260
345.3051, 6.109650
345.7872, 5.339905
346.2693, 4.534119
346.7514, 3.730408
347.2335, 2.938751
347.7156, 2.165436
348.1978, 1.325272
348.6799, 0.4479830
349.1620, 0.1079560
349.6441, 0.3208620
350.1262, 1.226944
350.6083, 1.279404
351.0905, 0.1568150
351.5726, 1.233826
352.0547, 1.901413
352.5368, 1.979355
353.0189, 1.870453
353.5010, 1.646667
353.9832, 1.410004
354.4653, 1.297409
354.9474, 1.318375
355.4295, 1.375000
355.9116, 1.408081
356.3937, 1.425507
356.8759, 1.437973
357.3580, 1.580338
357.8401, 1.612900
358.3222, 1.141479
358.8043, 0.2912140
359.2864, 0.1626130
359.7686, 0.7745510
360.2507, 1.981598
360.7328, 2.440735
361.2149, 1.483032
361.6970, 0.5131530
362.1791, 1.4664000E-02
362.6613, 8.5677996E-02
363.1434, 4.2389002E-02
363.6255, 0.8309020
364.1076, 1.451309
364.5897, 1.409149
365.0718, 0.3900760
365.5540, 0.3789370
366.0361, 0.5314790
366.5182, 0.3718870
367.0003, 0.2660520
367.4824, 0.2212370
367.9645, 0.2710110
368.4467, 0.5023350
368.9288, 0.9098050
369.4109, 1.032135
369.8930, 0.5731350
370.3751, 8.7387003E-02
370.8572, 5.6503002E-02
371.3394, 0.3660580
371.8215, 0.7906950
372.3036, 1.248367
372.7857, 1.726852
373.2678, 2.172455
373.7499, 2.595612
374.2321, 2.927002
374.7142, 3.084061
375.1963, 2.989243
375.6784, 3.041733
376.1605, 3.238388
376.6426, 3.584869
377.1248, 4.160858
377.6069, 5.040588
378.0890, 5.721527
378.5711, 5.909302
379.0532, 5.716125
379.5353, 5.984573
380.0175, 6.771530
380.4996, 7.751465
380.9817, 8.643646
381.4638, 9.455627
381.9459, 10.30946
382.4280, 11.27927
382.9102, 12.22340
383.3923, 12.75829
383.8744, 12.92697
384.3565, 13.13635
384.8386, 13.69224
385.3207, 14.46582
385.8029, 15.19958
386.2850, 15.88275
386.7671, 16.48187
387.2492, 16.94579
387.7313, 17.30376
388.2134, 17.61356
388.6956, 17.74388
389.1777, 17.93782
389.6598, 18.52147
390.1419, 19.47148
390.6240, 20.34146
391.1061, 20.85846
391.5883, 21.16643
392.0704, 21.36613
392.5525, 21.00639
393.0346, 21.20970
393.5167, 22.94199
393.9988, 25.69826
394.4810, 28.07185
394.9631, 29.03021
395.4452, 29.90840
395.9273, 31.44879
396.4094, 33.99857
396.8915, 36.36971
397.3737, 37.89090
397.8558, 39.26505
398.3379, 41.35791
398.8200, 45.15991
399.3021, 48.71846
399.7842, 51.48712
400.2664, 53.46652
400.7485, 55.90184
401.2306, 58.66934
401.7127, 61.97472
402.1948, 66.02411
402.6769, 71.28323
403.1591, 76.20718
403.6412, 80.37209
404.1233, 84.29031
404.6054, 89.41147
405.0875, 95.89140
405.5696, 102.9669
406.0518, 110.4503
406.5339, 118.3347
407.0160, 125.9372
407.4981, 133.0432
407.9802, 140.4973
408.4623, 149.3336
408.9445, 159.5327
409.4266, 169.9203
409.9087, 180.1120
410.3908, 190.4861
410.8729, 201.5091
411.3550, 213.2669
411.8372, 226.2556
412.3193, 241.4838
412.8014, 258.2727
413.2835, 274.8636
413.7656, 290.8271
414.2477, 307.8437
414.7299, 327.5460
415.2120, 349.6526
415.6941, 372.9394
416.1762, 397.4649
416.6583, 422.8770
417.1404, 449.1384
417.6226, 476.3142
418.1047, 503.0122
418.5868, 529.1050
419.0689, 554.3830
419.5510, 579.1331
420.0331, 604.8340
420.5153, 627.7038
420.9974, 646.4676
421.4795, 661.1286
421.9616, 670.9579
422.4437, 676.4216
422.9258, 676.7875
423.4080, 671.1824
423.8901, 658.3867
424.3722, 643.6821
424.8543, 626.9623
425.3364, 608.7756
425.8185, 589.6240
426.3007, 567.5928
426.7828, 547.0641
427.2649, 528.3203
427.7470, 511.5076
428.2291, 497.2071
428.7112, 485.5568
429.1934, 476.4261
429.6755, 469.7151
430.1576, 465.6810
430.6397, 463.0504
431.1218, 462.0629
431.6039, 462.0033
432.0861, 462.0927
432.5682, 462.3917
433.0503, 461.8859
433.5324, 461.0152
434.0145, 458.9382
434.4966, 452.6300
434.9788, 442.0642
435.4609, 428.3336
435.9430, 411.3073
436.4251, 391.6250
436.9072, 371.0830
437.3893, 349.6428
437.8715, 328.0032
438.3536, 306.3571
438.8357, 285.0719
439.3178, 265.1736
439.7999, 246.9638
440.2820, 230.4523
440.7642, 216.0553
441.2463, 203.6654
441.7284, 192.5365
442.2105, 181.9488
442.6926, 172.3760
443.1747, 164.2835
443.6569, 158.5276
444.1390, 153.4367
444.6211, 148.4385
445.1032, 143.7119
445.5853, 139.9223
446.0674, 137.7839
446.5496, 136.0804
447.0317, 134.2807
447.5138, 132.0591
447.9959, 130.7436
448.4780, 130.3990
448.9601, 130.8650
449.4423, 132.0667
449.9244, 134.4049
450.4065, 136.7109
450.8886, 138.6277
451.3707, 140.4101
451.8528, 143.4272
452.3350, 148.1550
452.8171, 152.5917
453.2992, 155.7511
453.7813, 157.6396
454.2634, 158.8791
454.7455, 159.4613
455.2277, 159.4975
455.7098, 159.6866
456.1919, 159.7186
456.6740, 157.5502
457.1561, 152.1308
457.6382, 144.5516
458.1204, 136.5399
458.6025, 128.0400
459.0846, 119.3120
459.5667, 109.8578
460.0488, 100.4755
460.5309, 92.26541
461.0131, 85.57800
461.4952, 79.32117
461.9773, 72.47136
462.4594, 65.63634
462.9415, 59.66235
463.4236, 55.49045
463.9058, 51.86513
464.3879, 48.27052
464.8700, 44.74567
465.3521, 41.47375
465.8342, 38.39316
466.3163, 35.62523
466.7985, 33.24500
467.2806, 31.49364
467.7627, 29.70143
468.2448, 27.68381
468.7269, 25.70796
469.2090, 24.16071
469.6912, 23.30562
470.1733, 22.37277
470.6554, 21.19067
471.1375, 19.77626
471.6196, 18.22861
472.1017, 16.43236
472.5839, 14.82062
473.0660, 13.73822
473.5481, 13.19620
474.0302, 12.57082
474.5123, 11.79616
474.9944, 10.98242
475.4766, 10.30914
475.9587, 9.756958
476.4408, 9.184082
476.9229, 8.488556
477.4050, 7.775650
477.8871, 7.204834
478.3693, 6.776367
478.8514, 6.479416
479.3335, 6.361679
479.8156, 6.348816
480.2977, 6.404709
480.7798, 6.598801
481.2620, 6.592697
481.7441, 5.983383
482.2262, 5.090759
482.7083, 4.388077
483.1904, 3.883560
483.6725, 3.732056
484.1547, 4.336746
484.6368, 5.589951
485.1189, 6.130127
485.6010, 4.937531
486.0831, 3.631058
486.5652, 3.065323
487.0474, 3.743423
487.5295, 4.072647
488.0116, 3.953323
488.4937, 3.554871
488.9758, 3.078934
489.4579, 2.476013
489.9401, 1.935791
490.4222, 1.462875
490.9043, 1.091034
491.3864, 1.023819
491.8685, 1.304993
492.3506, 1.589279
492.8328, 1.668045
493.3149, 1.556488
493.7970, 1.287537
494.2791, 0.8395840
494.7612, 0.3585210
495.2433, 4.7164999E-02
495.7255, 0.3598020
496.2076, 0.5361790
496.6897, 0.4718020
497.1718, 0.3484040
497.6539, 0.3041530
498.1360, 0.3396910
498.6182, 0.4607700
499.1003, 0.9114690
499.5824, 1.283096
500.0645, 1.200790
500.5466, 0.4897610
501.0287, 5.5542000E-02
501.5109, 9.2574999E-02
501.9930, 9.8038003E-02
502.4751, 0.2375490
502.9572, 0.1311800
503.4393, 0.1714480
503.9214, 0.4967800
504.4036, 1.005173
504.8857, 1.363770
505.3678, 1.619263
505.8499, 1.639603
506.3320, 1.258896
506.8141, 0.4220430
507.2963, 1.8005000E-02
507.7784, 0.1103520
508.2605, 0.4538880
508.7426, 0.9359130
509.2247, 1.528854
509.7068, 1.767975
510.1890, 1.486023
510.6711, 0.9689330
511.1532, 0.6598360
511.6353, 0.5349120
512.1174, 0.4818420
512.5995, 0.5545350
513.0817, 0.6067810
513.5638, 0.3185420
514.0459, 0.2853240
514.5280, 0.6197360
515.0101, 1.9943001E-02
515.4922, 0.9313200
515.9744, 1.432556
516.4565, 1.197327
516.9386, 0.9124150
517.4207, 0.7374570
517.9028, 0.6643680
518.3849, 0.6816100
518.8671, 1.147354
519.3492, 1.305084
519.8313, 0.7566680
520.3134, 0.4088900
520.7955, 0.8827820
521.2776, 0.2530210
521.7598, 0.4648280
522.2419, 0.7301480
522.7240, 0.5130000
523.2061, 4.3715999E-02
523.6882, 1.067688
524.1703, 2.161804
524.6525, 2.796768
525.1346, 2.997574
525.6167, 3.066818
526.0988, 3.028107
526.5809, 2.974716
527.0630, 3.102264
527.5452, 3.385559
528.0273, 3.674988
528.5094, 3.828842
528.9915, 3.970932
529.4736, 4.275131
529.9557, 4.760681
530.4379, 5.228256
530.9200, 5.529144
531.4021, 5.769684
531.8842, 6.040329
532.3663, 6.160233
532.8484, 6.597107
533.3306, 7.845642
533.8127, 9.462158
534.2948, 10.46951
534.7769, 10.06273
535.2590, 9.903549
535.7411, 10.49678
536.2233, 11.80865
536.7054, 12.61890
537.1875, 12.52081
537.6696, 12.70256
538.1517, 14.14966
538.6339, 16.97986
539.1160, 19.34598
539.5981, 21.11057
540.0802, 22.48869
540.5623, 23.44608
541.0444, 24.16197
541.5266, 25.72427
542.0087, 28.79817
542.4908, 32.50308
542.9729, 35.54684
543.4550, 38.05724
543.9371, 40.65001
544.4193, 43.39731
544.9014, 46.58278
545.3835, 50.67036
545.8656, 55.74699
546.3477, 60.60904
546.8298, 64.41025
547.3120, 68.05034
547.7941, 72.22998
548.2762, 77.14948
548.7583, 82.53635
549.2404, 88.43784
549.7225, 94.76849
550.2047, 101.3971
550.6868, 108.2879
551.1689, 115.5724
551.6510, 123.2200
552.1331, 131.2522
552.6152, 139.6297
553.0974, 148.3661
553.5795, 157.3698
554.0616, 166.9123
554.5437, 176.8134
555.0258, 185.8281
555.5079, 193.8602
555.9901, 201.4443
556.4722, 210.3759
556.9543, 219.2400
557.4364, 225.1073
557.9185, 226.8682
558.4006, 225.9073
558.8828, 223.4372
559.3649, 219.0435
559.8470, 211.7931
560.3291, 199.7480
560.8112, 186.1729
561.2933, 171.7607
561.7755, 156.5460
562.2576, 142.3674
562.7397, 129.8033
563.2218, 118.2889
563.7039, 107.4665
564.1860, 97.04742
564.6682, 88.20107
565.1503, 81.09406
565.6324, 75.15424
566.1145, 69.83591
566.5966, 65.10733
567.0787, 60.84596
567.5609, 57.12952
568.0430, 53.82512
568.5251, 50.55112
569.0072, 47.33781
569.4893, 44.73451
569.9714, 43.31392
570.4536, 42.51685
570.9357, 41.53082
571.4178, 40.38306
571.8999, 39.42622
572.3820, 38.72588
572.8641, 38.36633
573.3463, 38.48639
573.8284, 39.41086
574.3105, 40.14009
574.7926, 40.05360
575.2747, 39.70506
575.7568, 39.79395
576.2390, 40.52242
576.7211, 41.47144
577.2032, 42.78525
577.6853, 44.34286
578.1674, 45.39977
578.6495, 45.53271
579.1317, 46.21910
579.6138, 48.20978
580.0959, 51.34959
580.5780, 54.20222
581.0601, 56.77728
581.5422, 59.42520
582.0244, 62.32326
582.5065, 65.56686
582.9886, 69.33252
583.4707, 73.71660
583.9528, 78.53217
584.4349, 83.74268
584.9171, 89.25647
585.3992, 94.93085
585.8813, 100.2888
586.3634, 106.2874
586.8455, 113.3926
587.3276, 121.4440
587.8098, 129.7563
588.2919, 138.2485
588.7740, 146.9310
589.2561, 155.7419
589.7382, 164.6774
590.2203, 174.0058
590.7025, 183.3538
591.1846, 193.5997
591.6667, 205.3055
592.1488, 218.5448
592.6309, 232.6855
593.1130, 247.8029
593.5952, 263.7489
594.0773, 280.1276
594.5594, 297.2036
595.0415, 315.6762
595.5236, 336.1131
596.0057, 357.6482
596.4879, 379.1392
596.9700, 400.8217
597.4521, 423.0406
597.9342, 448.5803
598.4163, 472.4430
598.8984, 493.2083
599.3806, 510.5630
599.8627, 521.5832
600.3448, 525.2954
600.8269, 522.6161
601.3090, 513.3444
601.7911, 495.7013
602.2733, 477.9127
602.7554, 459.8887
603.2375, 442.0284
603.7196, 425.0125
604.2017, 408.7538
604.6838, 393.0370
605.1660, 378.1307
605.6481, 362.6438
606.1302, 344.5645
606.6123, 324.1498
607.0944, 302.5201
607.5765, 279.2157
608.0587, 255.4845
608.5408, 231.7420
609.0229, 208.5205
609.5050, 186.8396
609.9871, 167.0782
610.4692, 149.4292
610.9514, 134.4476
611.4335, 122.0964
611.9156, 110.4724
612.3977, 98.79010
612.8798, 88.04901
613.3619, 78.98471
613.8441, 71.94647
614.3262, 65.55692
614.8083, 59.93565
615.2904, 54.82060
615.7725, 49.79854
616.2546, 44.76918
616.7368, 40.63585
617.2189, 37.74564
617.7010, 35.54819
618.1831, 33.08325
618.6652, 30.44542
619.1473, 27.99269
619.6295, 25.96208
620.1116, 24.10904
620.5937, 22.17267
621.0758, 20.22179
621.5579, 18.52763
622.0400, 17.42430
622.5222, 16.49077
623.0043, 15.45572
623.4864, 14.23175
623.9685, 13.27232
624.4506, 12.77896
624.9327, 12.42575
625.4149, 12.03647
625.8970, 11.68864
626.3791, 11.01122
626.8612, 9.797989
627.3433, 8.580276
627.8254, 8.265076
628.3076, 8.801361
628.7897, 9.093521
629.2718, 8.827835
629.7539, 8.252365
630.2360, 7.721268
630.7181, 7.212097
631.2003, 6.653595
631.6824, 5.945206
632.1645, 5.219925
632.6466, 4.536743
633.1287, 3.912643
633.6108, 3.463318
634.0930, 3.343552
634.5751, 3.305740
635.0572, 3.260101
635.5393, 3.224106
636.0214, 3.030579
636.5035, 2.566071
636.9857, 2.080765
637.4678, 1.763382
637.9499, 1.627640
638.4320, 1.577881
638.9141, 1.634399
639.3962, 1.700531
639.8784, 1.669373
640.3605, 1.541428
640.8426, 1.290100
641.3247, 0.8220670
641.8068, 0.3915560
642.2889, 0.3417360
642.7711, 0.5403750
643.2532, 0.6844480
643.7353, 0.6488040
644.2174, 0.5205380
644.6995, 0.2572480
645.1816, 9.9578999E-02
645.6638, 0.2966920
646.1459, 0.1092680
646.6280, 5.3238001E-02
647.1101, 5.5190999E-02
647.5922, 0.1112370
648.0743, 0.3484040
648.5565, 0.7147370
649.0386, 1.003204
649.5207, 1.014465
650.0028, 0.7812960
650.4849, 0.5803830
650.9670, 0.4464870
651.4492, 0.2593080
651.9313, 0.2463840
652.4134, 0.8710780
652.8955, 1.226379
653.3776, 1.178009
653.8597, 0.9458310
654.3419, 0.4827730
654.8240, 2.7176000E-02
655.3061, 0.2948300
655.7882, 0.1563420
656.2703, 0.4073790
656.7524, 0.1866910
657.2346, 0.3752750
657.7167, 0.9794770
658.1988, 1.836273
658.6809, 2.222626
659.1630, 1.687607
659.6451, 0.4620060
660.1273, 4.3365002E-02
660.6094, 0.1966710
661.0915, 0.6108400
661.5736, 0.9816440
662.0557, 1.216476
662.5378, 0.9998470
663.0200, 0.3227540
663.5021, 0.2316440
663.9842, 4.6936002E-02
664.4663, 0.3405300
664.9484, 0.4042210
665.4305, 6.5628000E-02
665.9127, 0.5081790
666.3948, 0.9335480
666.8769, 1.188614
667.3590, 1.092712
667.8411, 0.3113250
668.3232, 8.5266002E-02
668.8054, 0.1234280
669.2875, 0.5997470
669.7696, 0.7427220
670.2517, 0.5456090
670.7338, 0.3436280
671.2159, 0.2707820
671.6981, 0.1978450
672.1802, 0.2678990
672.6623, 0.9681090
673.1444, 1.347076
673.6265, 0.8151860
674.1086, 9.2987001E-02
674.5908, 0.3717960
675.0729, 0.5703130
675.5550, 0.5703580
676.0371, 8.8104002E-02
676.5192, 0.3086700
677.0013, 0.3067630
677.4835, 0.1496120
677.9656, 0.3879090
678.4477, 0.3023380
678.9298, 0.1954650
679.4119, 0.2741700
679.8940, 0.5410310
680.3762, 0.8376310
680.8583, 1.156296
681.3404, 1.533234
681.8225, 2.131897
682.3046, 2.798187
682.7867, 3.214661
683.2689, 3.278107
683.7510, 3.194260
684.2331, 3.010071
684.7152, 2.799667
685.1973, 2.660629
685.6794, 2.661163
686.1616, 2.687393
686.6437, 2.771805
687.1258, 2.857941
687.6079, 2.800385
688.0900, 2.453461
688.5721, 2.352753
689.0543, 2.683472
689.5364, 3.305405
690.0185, 3.922836
690.5006, 4.520660
690.9827, 4.821960
691.4648, 4.441498
691.9470, 3.804001
692.4291, 3.516602
692.9112, 3.558609
693.3933, 3.814835
693.8754, 4.491699
694.3575, 5.152985
694.8397, 5.505692
695.3218, 5.512039
695.8039, 5.447159
696.2860, 5.175140
696.7681, 5.019241
697.2502, 5.189117
697.7324, 5.788101
698.2145, 6.166580
698.6966, 6.238998
699.1787, 6.336075
699.6608, 7.033081
700.1429, 8.105301
700.6251, 8.323044
701.1072, 7.397675
701.5893, 6.334259
702.0714, 6.042923
702.5535, 6.278870
703.0356, 6.712875
703.5178, 7.407974
703.9999, 8.006790
704.4820, 8.270416
704.9641, 8.366287
705.4462, 8.578491
705.9283, 9.213089
706.4105, 9.446671
706.8926, 8.939041
707.3747, 8.131500
707.8568, 8.166855
708.3389, 9.118103
708.8210, 9.889481
709.3032, 10.01401
709.7853, 9.834854
710.2674, 10.06131
710.7495, 10.60310
711.2316, 11.07124
711.7137, 11.07103
712.1959, 11.06572
712.6780, 11.53329
713.1601, 12.37735
713.6422, 12.91626
714.1243, 12.38092
714.6064, 12.04041
715.0886, 12.49731
715.5707, 13.77068
716.0528, 14.58202
716.5349, 14.86743
717.0170, 15.04214
717.4991, 15.36960
717.9813, 15.78436
718.4634, 16.15115
718.9455, 16.45018
719.4276, 16.74232
719.9097, 16.95372
720.3918, 17.28259
720.8740, 18.06943
721.3561, 19.43185
721.8382, 20.66011
722.3203, 21.31540
722.8024, 21.76044
723.2845, 22.34641
723.7667, 23.32477
724.2488, 23.93152
724.7309, 23.88922
725.2130, 23.78719
725.6951, 24.37895
726.1772, 25.70700
726.6594, 26.98534
727.1415, 28.03024
727.6236, 29.01758
728.1057, 30.46857
728.5878, 32.09714
729.0699, 33.10602
729.5521, 32.80051
730.0342, 32.43449
730.5163, 33.07530
730.9984, 34.22263
731.4805, 34.99464
731.9626, 34.64523
732.4448, 34.52010
732.9269, 35.05045
733.4090, 35.91724
733.8911, 36.20140
734.3732, 35.77408
734.8553, 35.23872
735.3375, 34.90405
735.8196, 34.50717
736.3017, 33.10588
736.7838, 30.88707
737.2659, 29.06789
737.7480, 28.43866
738.2302, 28.43921
738.7123, 28.91316
739.1944, 29.68802
739.6765, 29.91287
740.1586, 29.10104
740.6407, 27.70035
741.1229, 25.60591
741.6050, 22.87802
742.0871, 20.97057
742.5692, 20.04015
743.0513, 19.68013
743.5334, 19.82231
744.0156, 20.32610
744.4977, 20.29388
744.9798, 19.68092
745.4619, 18.85422
745.9440, 17.92618
746.4261, 17.09511
746.9083, 16.62238
747.3904, 16.45694
747.8725, 16.29527
748.3546, 15.92758
748.8367, 15.59821
749.3188, 15.53879
749.8010, 15.93530
750.2831, 16.00685
750.7652, 15.58521
751.2473, 14.98904
751.7294, 14.42175
752.2115, 13.89452
752.6937, 13.67970
753.1758, 13.87794
753.6579, 14.02284
754.1400, 13.37112
754.6221, 12.35620
755.1042, 11.73430
755.5864, 11.69885
756.0685, 11.73659
756.5506, 11.61482
757.0327, 11.45461
757.5148, 11.36194
757.9969, 11.62532
758.4791, 11.45953
758.9612, 10.53380
759.4433, 9.542023
759.9254, 9.500732
760.4075, 10.47112
760.8896, 10.98343
761.3718, 10.70372
761.8539, 10.22055
762.3360, 10.42668
762.8181, 10.99303
763.3002, 11.21452
763.7823, 10.69507
764.2645, 10.15063
764.7466, 10.12163
765.2287, 10.26915
765.7108, 10.06378
766.1929, 8.688995
766.6750, 8.064499
767.1572, 8.757584
767.6393, 9.963638
768.1214, 10.08369
768.6035, 9.036621
769.0856, 8.121140
769.5677, 7.643814
770.0499, 7.480179
770.5320, 7.625900
771.0141, 7.932465
771.4962, 8.019455
771.9783, 7.428513
772.4604, 6.884766
772.9426, 6.761536
773.4247, 6.962875
773.9068, 7.292389
774.3889, 8.229004
774.8710, 8.529953
775.3531, 7.738876
775.8353, 6.285797
776.3174, 5.383987
776.7995, 5.056702
777.2816, 4.952255
777.7637, 5.012085
778.2458, 5.149841
778.7280, 5.310272
779.2101, 5.439896
779.6922, 5.360016
780.1743, 4.592743
780.6564, 3.982315
781.1385, 4.180374
781.6207, 4.959137
782.1028, 5.275497
782.5849, 4.870209
783.0670, 4.290100
783.5491, 3.472000
784.0313, 2.633560
784.5134, 2.925415
784.9955, 4.373749
785.4776, 5.314484
785.9597, 4.540070
786.4418, 3.105209
786.9240, 2.713791
787.4061, 3.137863
787.8882, 3.553177
788.3703, 3.479355
788.8524, 3.350494
789.3345, 3.420776
789.8167, 3.654099
790.2988, 3.701462
790.7809, 3.509598
791.2630, 3.228653
791.7451, 2.892776
792.2272, 2.514343
792.7094, 2.059280
793.1915, 1.540451
793.6736, 1.226318
794.1557, 1.477722
794.6378, 1.894531
795.1199, 2.040802
795.6021, 1.910263
796.0842, 1.514374
796.5663, 0.3633580
797.0484, 0.5804140
797.5305, 0.7822570
798.0126, 0.3253330
798.4948, 0.1539610
798.9769, 0.8238980
799.4590, 1.060867
799.9411, 0.3770140
800.4232, 0.8898770
800.9053, 1.462677
801.3875, 1.364349
801.8696, 0.8314510
802.3517, 0.7024990
802.8338, 2.104141
803.3159, 1.912415
803.7980, 0.4084010
804.2802, 0.6497040
804.7623, 0.3825990
805.2444, 0.1079100
805.7265, 0.5160220
806.2086, 0.8194890
806.6907, 0.7543790
807.1729, 0.1894230
807.6550, 0.1843570
808.1371, 7.1425997E-02
808.6192, 0.7064210
809.1013, 1.182114
809.5834, 1.470779
810.0656, 1.412827
810.5477, 0.5361940
811.0298, 0.3930510
811.5119, 0.9053500
811.9940, 0.9978790
812.4761, 0.8143770
812.9583, 1.7014001E-02
813.4404, 0.5951540
813.9225, 0.7206270
814.4046, 0.4529270
814.8867, 0.3670810
815.3688, 0.4682460
815.8510, 0.6212770
816.3331, 0.8199310
816.8152, 1.001923
817.2973, 1.010239
817.7794, 0.8848720
818.2615, 0.8281710
818.7437, 0.9472500
819.2258, 1.176453
819.7079, 1.610489
820.1900, 2.168045
820.6721, 2.350174
821.1542, 1.879913
821.6364, 1.692429
822.1185, 2.307404
822.6006, 3.342636
823.0827, 3.391403
823.5648, 2.571075
824.0469, 1.852203
824.5291, 1.687057
825.0112, 1.826538
825.4933, 2.278214
825.9754, 2.926239
826.4575, 3.408981
826.9396, 3.215042
827.4218, 3.321320
827.9039, 4.205704
828.3860, 5.544571
828.8681, 6.188370
829.3502, 6.060028
829.8323, 5.687149
830.3145, 5.083313
830.7966, 4.535187
831.2787, 4.653488
831.7608, 5.304367
832.2429, 6.062775
832.7250, 7.017807
833.2072, 7.749954
833.6893, 7.873505
834.1714, 7.606384
834.6535, 7.524414
835.1356, 7.608490
835.6177, 8.003632
836.0999, 8.867752
836.5820, 9.948700
837.0641, 10.61777
837.5462, 10.93117
838.0283, 11.48761
838.5104, 12.52145
838.9926, 13.78773
839.4747, 15.31758
839.9568, 16.79376
840.4389, 17.70984
840.9210, 17.12837
841.4031, 16.95532
841.8853, 17.63727
842.3674, 18.88455
842.8495, 20.40947
843.3316, 22.26100
843.8137, 24.24701
844.2958, 26.44759
844.7780, 28.41743
845.2601, 29.34428
845.7422, 29.60023
846.2243, 30.02286
846.7064, 30.77950
847.1885, 31.72699
847.6707, 32.96629
848.1528, 34.33832
848.6349, 35.63728
849.1170, 36.78909
849.5991, 37.88889
850.0812, 38.97641
850.5634, 40.01251
851.0455, 40.96533
851.5276, 41.82307
852.0097, 42.52435
852.4918, 43.03015
852.9739, 43.66727
853.4561, 45.11731
853.9382, 46.66037
854.4203, 47.45834
854.9024, 47.23828
855.3845, 46.63013
855.8666, 45.61719
856.3488, 44.43811
856.8309, 43.16656
857.3130, 41.70554
857.7951, 40.77060
858.2772, 40.41483
858.7593, 39.84271
859.2415, 38.17487
859.7236, 35.94412
860.2057, 34.03165
860.6878, 32.46695
861.1699, 30.84247
861.6520, 29.01566
862.1342, 26.94760
862.6163, 24.47388
863.0984, 21.58295
863.5805, 19.65289
864.0626, 19.02469
864.5447, 18.36099
865.0269, 16.73407
865.5090, 14.48431
865.9911, 12.92993
866.4732, 12.00223
866.9553, 11.09442
867.4374, 9.640900
867.9196, 8.238007
868.4017, 7.334717
868.8838, 6.858734
869.3659, 6.412109
869.8480, 6.133484
870.3301, 5.630463
870.8123, 4.660553
871.2944, 3.464417
871.7765, 3.087555
872.2586, 3.424347
872.7407, 3.513153
873.2228, 2.871185
873.7050, 1.860809
874.1871, 0.4989620
874.6692, 0.9122920
875.1513, 1.730438
875.6334, 1.313751
876.1155, 0.8046260
876.5977, 0.4281920
877.0798, 5.7495002E-02
877.5619, 0.7075810
878.0440, 1.946259
878.5261, 2.380096
879.0082, 1.561066
879.4904, 0.3768620
879.9725, 6.2683001E-02
880.4546, 3.0640000E-02
880.9367, 3.3661000E-02
881.4188, 0.4248050
881.9009, 0.3981320
882.3831, 0.8398440
882.8652, 2.342560
883.3473, 3.070648
883.8294, 2.731323
884.3115, 2.861176
884.7936, 3.643829
885.2758, 4.416229
885.7579, 4.375000
886.2400, 3.838074
886.7221, 3.504181
887.2042, 3.462952
887.6863, 3.542755
888.1685, 3.787170
888.6506, 4.010376
889.1327, 4.084381
889.6148, 4.000061
890.0969, 3.755463
890.5790, 3.280640
891.0612, 2.810303
891.5433, 2.522430
892.0254, 2.342865
892.5075, 2.010376
892.9896, 1.529785
893.4717, 0.9735720
893.9539, 0.3074340
894.4360, 0.3543090
894.9181, 0.9653320
895.4002, 1.512329
895.8823, 1.927521
896.3644, 2.226074
896.8466, 2.335510
897.3287, 2.111359
897.8108, 1.778442
898.2929, 2.085632
898.7750, 2.905426
899.2571, 3.424011
899.7393, 3.163818
900.2214, 2.737701
900.7035, 2.683685
901.1856, 2.813965
901.6677, 2.820313
902.1498, 2.321075
902.6320, 2.186890
903.1141, 2.726746
903.5962, 3.350281
904.0783, 3.113892
904.5604, 2.098907
905.0425, 1.484009
905.5247, 1.497925
906.0068, 1.555817
906.4889, 0.9070740
906.9710, 9.7259998E-02
907.4531, 0.1696470
907.9352, 0.4629210
908.4174, 0.6471250
908.8995, 0.1204530
909.3816, 1.011139
909.8637, 1.460663
910.3458, 1.479889
910.8279, 1.846436
911.3101, 2.562836
911.7922, 3.437866
912.2743, 4.370422
912.7564, 5.359436
913.2385, 6.404541
913.7206, 7.503662
914.2028, 8.651245
914.6849, 9.848602
915.1670, 11.09402
915.6491, 12.39899
916.1312, 13.75082
916.6133, 15.04483
917.0955, 16.28632
917.5776, 17.73441
918.0597, 19.51300
918.5418, 21.53149
919.0239, 23.77939
919.5060, 26.17770
919.9882, 28.53256
920.4703, 30.51202
920.9524, 32.84222
921.4345, 35.72253
921.9166, 38.89032
922.3987, 42.12906
922.8809, 45.47745
923.3630, 48.18738
923.8451, 50.04391
924.3272, 52.11633
924.8093, 55.70926
925.2914, 60.11273
925.7736, 64.40109
926.2557, 68.47498
926.7378, 72.33737
927.2199, 75.40128
927.7020, 78.77499
928.1841, 83.02661
928.6663, 88.14371
929.1484, 93.66104
929.6305, 99.62595
930.1126, 105.9856
930.5947, 112.5223
931.0768, 119.6592
931.5590, 127.6764
932.0411, 136.7317
932.5232, 146.8888
933.0053, 158.1906
933.4874, 170.9949
933.9695, 185.2691
934.4517, 201.0670
934.9338, 218.7352
935.4159, 238.1217
935.8980, 260.0372
936.3801, 283.3994
936.8622, 311.6199
937.3444, 346.3533
937.8265, 388.8189
938.3086, 441.3706
938.7907, 503.8581
939.2728, 577.5909
939.7549, 665.3087
940.2371, 760.5318
940.7192, 860.9366
941.2013, 966.2089
941.6834, 1072.720
942.1655, 1179.622
942.6476, 1293.652
943.1298, 1412.010
943.6119, 1544.302
944.0940, 1697.433
944.5761, 1873.871
945.0582, 2085.377
945.5403, 2324.003
946.0225, 2613.524
946.5046, 2961.232
946.9867, 3364.774
947.4688, 3821.470
947.9509, 4327.698
948.4330, 4907.015
948.9152, 5561.306
949.3973, 6302.497
949.8794, 7232.575
950.3615, 8237.131
950.8436, 9116.607
951.3257, 10145.02
951.8079, 10525.96
952.2900, 10125.59
952.7721, 9197.783
953.2542, 7877.637
953.7363, 6239.886
954.2184, 4834.860
954.7006, 3720.384
955.1827, 2846.552
955.6648, 2230.035
956.1469, 1777.220
956.6290, 1429.272
957.1111, 1186.165
957.5933, 986.5640
958.0754, 833.4603
958.5575, 709.3971
959.0396, 611.2473
959.5217, 535.2971
960.0038, 469.2105
960.4860, 412.6341
960.9681, 363.6278
961.4502, 323.3686
961.9323, 288.7488
962.4144, 259.9612
962.8965, 235.5585
963.3787, 212.8734
963.8608, 191.1374
964.3429, 172.2206
964.8250, 156.5844
965.3071, 142.8269
965.7892, 128.9379
966.2714, 115.6288
966.7535, 104.7202
967.2356, 96.83340
967.7177, 89.64670
968.1998, 81.82999
968.6819, 74.42590
969.1641, 68.32883
969.6462, 63.52289
970.1283, 59.03345
970.6104, 54.78275
971.0925, 50.95450
971.5746, 47.63345
972.0568, 44.76138
972.5389, 42.05948
973.0210, 39.65588
973.5031, 38.06195
973.9852, 38.20636
974.4673, 38.33710
974.9495, 37.89749
975.4316, 37.17249
975.9137, 36.61328
976.3958, 36.22418
976.8779, 35.95743
977.3600, 35.76099
977.8422, 35.92023
978.3243, 36.55203
978.8064, 37.81631
979.2885, 40.10876
979.7706, 43.77887
980.2527, 46.99710
980.7349, 49.13379
981.2170, 51.24438
981.6991, 53.96869
982.1812, 57.16223
982.6633, 59.77283
983.1454, 61.81229
983.6276, 63.11792
984.1097, 63.25833
984.5918, 62.81232
985.0739, 62.47012
985.5560, 62.00635
986.0381, 60.49945
986.5203, 57.28665
987.0024, 54.12552
987.4845, 50.96729
987.9666, 48.49402
988.4487, 48.19629
988.9308, 49.40436
989.4130, 49.89911
989.8951, 49.14285
990.3772, 48.77646
990.8593, 49.52957
991.3414, 51.20663
991.8235, 53.95679
992.3057, 57.84848
992.7878, 61.05615
993.2699, 63.33936
993.7520, 66.30960
994.2341, 71.21909
994.7162, 77.16113
995.1984, 82.32547
995.6805, 87.08090
996.1626, 92.44806
996.6447, 98.34158
997.1268, 105.7092
997.6089, 114.8875
998.0911, 125.4599
998.5732, 136.5580
999.0553, 148.2148
999.5374, 162.0164
1000.020, 177.9964
1000.502, 195.4892
1000.984, 213.0610
1001.466, 232.0777
1001.948, 253.8217
1002.430, 278.3052
1002.912, 305.4052
1003.394, 334.0786
1003.876, 366.4557
1004.359, 403.2337
1004.841, 444.5102
1005.323, 488.6919
1005.805, 536.6985
1006.287, 590.4628
1006.769, 650.9899
1007.251, 718.5993
1007.733, 795.5879
1008.216, 878.6140
1008.698, 961.7012
1009.180, 1046.880
1009.662, 1129.031
1010.144, 1209.648
1010.626, 1277.881
1011.108, 1328.426
1011.590, 1355.146
1012.072, 1346.625
1012.555, 1302.675
1013.037, 1235.387
1013.519, 1134.183
1014.001, 1026.219
1014.483, 916.0057
1014.965, 806.1823
1015.447, 705.0839
1015.929, 612.4603
1016.411, 530.4457
1016.894, 460.4000
1017.376, 399.9528
1017.858, 349.7633
1018.340, 307.4597
1018.822, 271.1182
1019.304, 241.3073
1019.786, 214.3497
1020.268, 190.2107
1020.751, 169.0234
1021.233, 151.5330
1021.715, 136.8706
1022.197, 123.0080
1022.679, 109.9655
1023.161, 98.50876
1023.643, 89.69470
1024.125, 81.81229
1024.607, 74.15225
1025.090, 66.93921
1025.572, 60.79227
1026.054, 55.70984
1026.536, 51.11487
1027.018, 46.84793
1027.500, 42.94943
1027.982, 39.64499
1028.464, 36.63217
1028.947, 33.57349
1029.429, 30.43985
1029.911, 27.20935
1030.393, 23.66907
1030.875, 20.38873
1031.357, 17.58954
1031.839, 15.32858
1032.321, 14.15121
1032.803, 13.81949
1033.286, 13.25845
1033.768, 11.72183
1034.250, 10.10785
1034.732, 8.683014
1035.214, 7.464142
1035.696, 6.460999
1036.178, 5.646118
1036.660, 5.267212
1037.143, 5.432281
1037.625, 5.351440
1038.107, 3.849976
1038.589, 1.925049
1039.071, 0.9152530
1039.553, 0.8475340
1040.035, 0.6512760
1040.517, 0.2207030
1041.000, 0.7082520
1041.482, 0.2799680
1041.964, 0.4917910
1042.446, 4.8889000E-02
1042.928, 1.306183
1043.410, 2.306915
1043.892, 2.493713
1044.374, 2.523651
1044.856, 2.651093
1045.339, 2.888000
1045.821, 3.311768
1046.303, 3.996552
1046.785, 4.249542
1047.267, 4.047791
1047.749, 3.615997
1048.231, 2.884094
1048.713, 2.162750
1049.195, 1.958679
1049.677, 2.105988
1050.160, 2.124207
1050.642, 1.504822
1051.124, 1.340454
1051.606, 1.994019
1052.088, 2.781097
1052.570, 2.589844
1053.052, 1.721222
1053.534, 1.412689
1054.017, 1.825287
1054.499, 2.265839
1054.981, 2.441437
1055.463, 2.378754
1055.945, 2.019135
1056.427, 1.421539
1056.909, 0.8259280
1057.391, 0.2128300
1057.874, 0.2069090
1058.356, 0.3454590
1058.838, 0.3017880
1059.320, 0.1881100
1059.802, 0.6237490
1060.284, 0.2216490
1060.766, 1.836060
1061.248, 3.162598
1061.730, 3.423309
1062.213, 3.452209
1062.695, 3.925995
1063.177, 4.638611
1063.659, 4.782867
1064.141, 4.456390
1064.623, 4.132324
1065.105, 3.874207
1065.587, 3.858704
1066.070, 4.250519
1066.552, 4.873413
1067.034, 5.426697
1067.516, 5.891388
1067.998, 6.803650
1068.480, 8.244965
1068.962, 9.853546
1069.444, 11.76556
1069.927, 13.34970
1070.409, 13.86795
1070.891, 13.26388
1071.373, 12.89786
1071.855, 12.76724
1072.337, 12.99737
1072.819, 13.62347
1073.301, 14.64313
1073.783, 16.37814
1074.266, 18.45337
1074.748, 19.98672
1075.230, 20.32727
1075.712, 21.29953
1076.194, 23.93396
1076.676, 26.72781
1077.158, 28.74274
1077.640, 30.07999
1078.122, 31.79547
1078.604, 33.89114
1079.087, 36.38577
1079.569, 39.26413
1080.051, 42.56812
1080.533, 46.49640
1081.015, 50.77728
1081.497, 54.86978
1081.979, 58.47977
1082.461, 62.90326
1082.944, 68.16296
1083.426, 74.58017
1083.908, 82.42215
1084.390, 91.54272
1084.872, 101.5203
1085.354, 112.4877
1085.836, 125.4745
1086.318, 139.7280
1086.801, 157.9022
1087.283, 180.9230
1087.765, 207.7710
1088.247, 236.8558
1088.729, 268.3518
1089.211, 302.2820
1089.693, 338.9958
1090.175, 377.3338
1090.657, 415.6213
1091.140, 456.6920
1091.622, 501.2491
1092.104, 549.6478
1092.586, 603.7399
1093.068, 664.0464
1093.550, 733.1719
1094.032, 809.8282
1094.514, 900.2625
1094.997, 1007.809
1095.479, 1132.735
1095.961, 1276.870
1096.443, 1441.152
1096.925, 1624.041
1097.407, 1829.908
1097.889, 2031.712
1098.371, 2240.932
1098.854, 2409.244
1099.336, 2484.298
1099.818, 2464.138
1100.300, 2344.264
1100.782, 2070.285
1101.264, 1783.168
1101.746, 1489.427
1102.228, 1214.334
1102.710, 991.7241
1103.193, 816.6215
1103.675, 674.9189
1104.157, 565.7411
1104.639, 477.0558
1105.121, 409.7742
1105.603, 355.2004
1106.085, 310.2726
1106.567, 273.7007
1107.049, 243.0997
1107.531, 217.8152
1108.014, 196.0045
1108.496, 176.9902
1108.978, 160.4645
1109.460, 146.8059
1109.942, 134.9898
1110.424, 124.5240
1110.906, 115.3157
1111.388, 106.5906
1111.871, 98.29343
1112.353, 90.57339
1112.835, 83.41196
1113.317, 77.05933
1113.799, 72.18719
1114.281, 68.30734
1114.763, 64.52008
1115.245, 60.67227
1115.728, 57.06271
1116.210, 53.67001
1116.692, 50.50620
1117.174, 47.72366
1117.656, 45.11172
1118.138, 42.16919
1118.620, 39.12228
1119.102, 36.59271
1119.584, 35.01733
1120.067, 33.69897
1120.549, 32.67627
1121.031, 31.64459
1121.513, 30.12729
1121.995, 28.23480
1122.477, 26.30087
1122.959, 24.34708
1123.441, 22.73944
1123.924, 22.01694
1124.406, 21.30664
1124.888, 20.15283
1125.370, 18.77097
1125.852, 17.82416
1126.334, 17.26276
1126.816, 16.54538
1127.298, 15.56403
1127.781, 14.36002
1128.263, 12.57632
1128.745, 10.89484
1129.227, 9.955811
1129.709, 9.719025
1130.191, 9.482574
1130.673, 9.250671
1131.155, 8.913666
1131.637, 8.375397
1132.120, 7.798615
1132.602, 7.317291
1133.084, 6.916412
1133.566, 6.612274
1134.048, 6.485504
1134.530, 6.148407
1135.012, 5.583984
1135.494, 4.853943
1135.976, 3.684692
1136.458, 2.572418
1136.941, 2.551880
1137.423, 3.226715
1137.905, 3.628906
1138.387, 3.183746
1138.869, 2.937897
1139.351, 3.035828
1139.833, 3.137360
1140.315, 2.745026
1140.798, 2.149841
1141.280, 2.129944
1141.762, 2.624695
1142.244, 3.054749
1142.726, 3.239136
1143.208, 3.263641
1143.690, 3.233124
1144.172, 2.973785
1144.655, 1.960083
1145.137, 0.4712830
1145.619, 0.4475100
1146.101, 0.6570130
1146.583, 0.4482730
1147.065, 0.5502010
1147.547, 1.355408
1148.029, 1.524445
1148.511, 1.197540
1148.994, 0.5585940
1149.476, 0.3085020
1149.958, 0.5706790
1150.440, 7.1654998E-02
1150.922, 0.7766110
1151.404, 0.8377380
1151.886, 0.8085940
1152.368, 1.246063
1152.851, 2.046692
1153.333, 1.913910
1153.815, 0.8360290
1154.297, 0.5122990
1154.779, 1.997284
1155.261, 3.504974
1155.743, 3.171021
1156.225, 2.057739
1156.708, 1.355103
1157.190, 1.155060
1157.672, 1.136505
1158.154, 1.328522
1158.636, 1.466980
1159.118, 1.393677
1159.600, 1.211517
1160.082, 0.9497680
1160.564, 0.6907960
1161.047, 0.5910640
1161.529, 0.7928770
1162.011, 0.8610230
1162.493, 0.7689820
1162.975, 0.6636050
1163.457, 0.7628780
1163.939, 0.8450620
1164.421, 0.4237370
1164.903, 0.2866210
1165.385, 0.6193240
1165.868, 0.1870420
1166.350, 0.1754460
1166.832, 0.3901980
1167.314, 0.5506900
1167.796, 0.8177190
1168.278, 1.061249
1168.760, 1.045929
1169.242, 0.7794190
1169.725, 0.4021300
1170.207, 0.3749080
1170.689, 0.6841430
1171.171, 0.1868900
1171.653, 0.4570620
1172.135, 0.1056210
1172.617, 0.7088620
1173.099, 0.6603090
1173.582, 0.3859860
1174.064, 1.394135
1174.546, 2.035553
1175.028, 2.437744
1175.510, 2.634308
1175.992, 2.624573
1176.474, 2.203918
1176.956, 1.587646
1177.438, 1.483246
1177.921, 2.084869
1178.403, 2.648041
1178.885, 2.506805
1179.367, 2.712677
1179.849, 4.041901
1180.331, 5.826385
1180.813, 5.653900
1181.295, 4.101410
1181.778, 3.165680
1182.260, 3.473328
1182.742, 3.777313
1183.224, 3.293549
1183.706, 3.082001
1184.188, 4.043457
1184.670, 5.811859
1185.152, 5.867157
1185.635, 4.467712
1186.117, 3.376129
1186.599, 3.422485
1187.081, 3.786835
1187.563, 4.177185
1188.045, 4.660034
1188.527, 5.383392
1189.009, 6.289185
1189.491, 6.325897
1189.974, 5.712189
1190.456, 6.090424
1190.938, 9.733826
1191.420, 12.63235
1191.902, 12.17215
1192.384, 10.30429
1192.866, 9.015717
1193.348, 8.323029
1193.830, 7.039093
1194.313, 5.252899
1194.795, 4.151031
1195.277, 4.873016
1195.759, 5.992279
1196.241, 7.010406
1196.723, 7.799713
1197.205, 8.156921
1197.687, 8.072876
1198.169, 8.081329
1198.652, 8.196930
1199.134, 8.164734
1199.616, 7.613892
1200.098, 7.077454
1200.580, 6.806091
1201.062, 6.798615
1201.544, 7.132538
1202.026, 7.826050
1202.509, 8.098663
1202.991, 7.871552
1203.473, 8.090424
1203.955, 10.58344
1204.437, 12.63888
1204.919, 11.66815
1205.401, 9.205383
1205.883, 8.868134
1206.365, 10.68762
1206.848, 11.56952
1207.330, 11.07098
1207.812, 10.18701
1208.294, 9.075592
1208.776, 8.428925
1209.258, 9.244934
1209.740, 10.91324
1210.222, 11.55576
1210.705, 11.13007
1211.187, 10.47839
1211.669, 9.708038
1212.151, 9.131165
1212.633, 9.322906
1213.115, 9.526062
1213.597, 9.120453
1214.079, 8.259705
1214.562, 7.396393
1215.044, 6.533447
1215.526, 5.831635
1216.008, 5.302368
1216.490, 5.056580
1216.972, 5.537048
1217.454, 6.003754
1217.936, 5.758698
1218.418, 4.983734
1218.901, 4.689606
1219.383, 4.842499
1219.865, 4.724823
1220.347, 4.003204
1220.829, 3.475739
1221.311, 4.154114
1221.793, 4.881470
1222.275, 4.668549
1222.757, 3.690948
1223.240, 3.475281
1223.722, 3.945648
1224.204, 3.783875
1224.686, 2.238007
1225.168, 0.9161070
1225.650, 1.199615
1226.132, 1.870605
1226.614, 2.026001
1227.096, 1.695770
1227.579, 0.9644780
1228.061, 8.9782998E-02
1228.543, 0.7557680
1229.025, 0.6384280
1229.507, 0.3107300
1229.989, 0.1127010
1230.471, 0.3911740
1230.953, 0.2757260
1231.436, 0.1429440
1231.918, 7.6233000E-02
1232.400, 0.4226380
1232.882, 1.003143
1233.364, 1.670441
1233.846, 2.111176
1234.328, 2.210938
1234.810, 1.978149
1235.292, 1.204376
1235.775, 5.2673001E-02
1236.257, 0.1080930
1236.739, 0.5356140
1237.221, 0.9877010
1237.703, 0.7950440
1238.185, 0.3551030
1238.667, 0.6531370
1239.149, 1.360687
1239.632, 0.8429870
1240.114, 0.5678410
1240.596, 0.8825070
1241.078, 0.2810060
1241.560, 0.4728700
1242.042, 1.591309
1242.524, 1.953186
1243.006, 0.9386900
1243.489, 0.4116520
1243.971, 1.483215
1244.453, 2.211517
1244.935, 2.128204
1245.417, 1.398285
1245.899, 0.8177190
1246.381, 0.7805790
1246.863, 0.8631900
1247.345, 1.131866
1247.828, 1.250366
1248.310, 0.6588130
1248.792, 0.2190860
1249.274, 0.1981510
1249.756, 0.5567320
1250.238, 1.424408
1250.720, 2.550812
1251.202, 3.177246
1251.684, 3.182648
1252.167, 2.865570
1252.649, 2.201843
1253.131, 1.533600
1253.613, 1.734406
1254.095, 2.519226
1254.577, 2.930908
1255.059, 2.195465
1255.541, 2.211304
1256.023, 3.335815
1256.506, 4.302063
1256.988, 3.654144
1257.470, 2.410492
1257.952, 2.051788
1258.434, 2.324341
1258.916, 2.358856
1259.398, 1.903259
1259.880, 1.651215
1260.363, 1.648865
1260.845, 1.827301
1261.327, 2.475494
1261.809, 2.982971
1262.291, 2.362671
1262.773, 1.152527
1263.255, 0.8608090
1263.737, 1.799469
1264.219, 2.330780
1264.702, 2.327057
1265.184, 2.137024
1265.666, 2.045166
1266.148, 1.918365
1266.630, 0.9418950
1267.112, 0.2735600
1267.594, 1.7456001E-02
1268.076, 1.800568
1268.559, 2.808533
1269.041, 2.828400
1269.523, 2.768951
1270.005, 3.539673
1270.487, 4.089050
1270.969, 3.539673
1271.451, 3.024841
1271.933, 3.075073
1272.416, 3.291168
1272.898, 3.025818
1273.380, 2.121613
1273.862, 1.581055
1274.344, 2.576965
1274.826, 3.423920
1275.308, 3.518555
1275.790, 3.014038
1276.272, 2.578186
1276.755, 2.116791
1277.237, 1.735077
1277.719, 1.458160
1278.201, 1.445435
1278.683, 1.618591
1279.165, 2.433716
1279.647, 4.459351
1280.129, 6.181763
1280.611, 5.589417
1281.094, 3.625885
1281.576, 2.002167
1282.058, 0.9093930
1282.540, 0.6492000
1283.022, 2.059204
1283.504, 2.973907
1283.986, 3.052582
1284.468, 2.684814
1284.950, 1.646088
1285.433, 1.110107
1285.915, 1.220856
1286.397, 1.861938
1286.879, 2.604584
1287.361, 3.652435
1287.843, 3.656677
1288.325, 2.335236
1288.807, 1.181000
1289.290, 1.779144
1289.772, 2.764038
1290.254, 3.202667
1290.736, 3.063873
1291.218, 2.163635
1291.700, 0.3378910
1292.182, 1.1169000E-02
1292.664, 1.300903
1293.146, 2.504578
1293.629, 2.042725
1294.111, 1.239136
1294.593, 0.5561830
1295.075, 0.2312010
1295.557, 0.9554140
1296.039, 2.516663
1296.521, 2.761963
1297.003, 1.677551
1297.486, 0.6679380
1297.968, 0.8358760
1298.450, 1.160828
1298.932, 1.602814
1299.414, 1.876495
1299.896, 1.156769
1300.378, 1.7852999E-02
1300.860, 3.5583001E-02
1301.343, 0.6569210
1301.825, 0.0000000E+00
##END=



