##NAMES=Collinsite
##RRUFFID=R060140
##IDEAL CHEMISTRY=Ca_2_Mg(PO_4_)_2_&#183;2H_2_O
##LOCALITY=Big Fish River, Yukon Territory, Canada
##OWNER=RRUFF
##SOURCE=Mark Mauthner
##DESCRIPTION=Platy, colorless fragment
##STATUS=The identification of this mineral has been confirmed by X-ray diffraction and chemical analysis
##URL=rruff.info/R060140
##MEASURED CHEMISTRY=darker phase:Ca_2.00_(Mg_0.63_Fe^2+^_0.34_Mn_0.03_)_Σ=1_(P_1.00_O_4_)_2_·2H_2_O ; lighter phase: Ca_2.00_(Mg_0.58_Fe^2+^_0.38_Mn_0.04_)_Σ=1_(P_1.00_O_4_)_2_·2H_2_O
135.8980, 0.0000000E+00
136.3801, 0.3745610
136.8622, 0.3669510
137.3443, 0.1348950
137.8264, 7.5610001E-03
138.3086, 0.1108090
138.7907, 0.2147370
139.2728, 0.2527280
139.7549, 2.9600000E-02
140.2370, 2.1309000E-02
140.7191, 0.2483390
141.2013, 0.6814480
141.6834, 1.036785
142.1655, 1.180670
142.6476, 1.231098
143.1297, 1.464647
143.6118, 1.820164
144.0939, 2.294725
144.5761, 2.931503
145.0582, 3.709896
145.5403, 4.526876
146.0224, 5.309999
146.5045, 6.101667
146.9866, 6.979441
147.4688, 7.715569
147.9509, 8.730392
148.4330, 10.65171
148.9151, 13.72230
149.3972, 17.04029
149.8793, 20.38459
150.3615, 23.60894
150.8436, 26.82634
151.3257, 30.34043
151.8078, 33.81648
152.2899, 36.61219
152.7720, 39.26629
153.2542, 40.07708
153.7363, 38.17199
154.2184, 34.40575
154.7005, 29.96115
155.1826, 25.40729
155.6647, 20.78402
156.1469, 16.59372
156.6290, 12.81524
157.1111, 9.603920
157.5932, 7.089088
158.0753, 5.176355
158.5574, 3.722149
159.0396, 2.640135
159.5217, 1.972176
160.0038, 1.318876
160.4859, 0.5311950
160.9680, 0.1213130
161.4501, 0.4959280
161.9323, 0.6074600
162.4144, 0.5700240
162.8965, 0.4956380
163.3786, 0.3833750
163.8607, 0.2076950
164.3428, 3.5319999E-03
164.8250, 0.2881430
165.3071, 0.7263110
165.7892, 1.319605
166.2713, 1.907953
166.7534, 2.276192
167.2355, 2.384390
167.7177, 2.558588
168.1998, 2.841238
168.6819, 3.206379
169.1640, 3.604506
169.6461, 4.011028
170.1282, 4.503380
170.6104, 5.180994
171.0925, 6.016701
171.5746, 6.981462
172.0567, 8.124851
172.5388, 9.393524
173.0209, 10.58863
173.5031, 11.51538
173.9852, 12.60785
174.4673, 14.19028
174.9494, 16.23808
175.4315, 18.59520
175.9136, 21.13866
176.3958, 23.87553
176.8779, 26.87173
177.3600, 29.77435
177.8421, 33.33944
178.3242, 37.79038
178.8063, 43.21828
179.2885, 49.76772
179.7706, 57.46597
180.2527, 66.15459
180.7348, 76.89655
181.2169, 90.18726
181.6990, 105.1773
182.1812, 122.6430
182.6633, 142.2360
183.1454, 161.5264
183.6275, 177.8969
184.1096, 193.9302
184.5917, 200.1606
185.0738, 195.3547
185.5560, 183.8716
186.0381, 166.7727
186.5202, 145.0586
187.0023, 121.5342
187.4844, 101.0030
187.9665, 83.94117
188.4487, 69.74126
188.9308, 58.80153
189.4129, 50.44564
189.8950, 44.42842
190.3771, 40.66766
190.8592, 38.51387
191.3414, 36.85282
191.8235, 35.92556
192.3056, 35.04881
192.7877, 34.48916
193.2698, 33.85505
193.7519, 32.59306
194.2341, 30.45152
194.7162, 27.71681
195.1983, 24.84067
195.6804, 21.73601
196.1625, 18.78893
196.6446, 16.04789
197.1268, 13.54098
197.6089, 11.30715
198.0910, 9.342720
198.5731, 7.721340
199.0552, 6.555573
199.5373, 5.885696
200.0195, 5.297173
200.5016, 4.509035
200.9837, 3.581762
201.4658, 2.844782
201.9479, 2.458042
202.4300, 2.251621
202.9122, 2.027534
203.3943, 1.778439
203.8764, 1.532106
204.3585, 1.270342
204.8406, 0.9932480
205.3227, 0.8530430
205.8048, 0.9443240
206.2870, 1.157057
206.7691, 1.443293
207.2512, 1.794884
207.7333, 2.148132
208.2154, 2.415369
208.6975, 2.572929
209.1797, 2.788443
209.6618, 2.992359
210.1439, 3.333496
210.6260, 3.907827
211.1081, 4.730379
211.5902, 5.748934
212.0724, 6.894978
212.5545, 8.139009
213.0366, 9.595287
213.5187, 11.15517
214.0008, 12.97636
214.4829, 15.19831
214.9651, 17.82861
215.4472, 20.77067
215.9293, 23.90117
216.4114, 27.30423
216.8935, 30.74482
217.3756, 34.82405
217.8578, 38.54646
218.3399, 41.39082
218.8220, 43.14847
219.3041, 43.82755
219.7862, 43.41422
220.2683, 41.64880
220.7505, 39.10646
221.2326, 35.43663
221.7147, 31.30493
222.1968, 27.02742
222.6789, 22.74147
223.1610, 18.67020
223.6432, 15.15546
224.1253, 12.40063
224.6074, 9.918777
225.0895, 7.633335
225.5716, 5.650229
226.0537, 4.142389
226.5358, 3.133671
227.0180, 2.404287
227.5001, 1.652594
227.9822, 0.8270530
228.4643, 0.1784650
228.9464, 0.1934510
229.4285, 0.4188080
229.9107, 0.6311910
230.3928, 0.8614200
230.8749, 1.050243
231.3570, 1.118395
231.8391, 1.066280
232.3212, 0.9204690
232.8034, 0.6040080
233.2855, 0.2258700
233.7676, 6.1941002E-02
234.2497, 0.2208210
234.7318, 0.3576830
235.2139, 0.5865550
235.6961, 0.8968320
236.1782, 1.262844
236.6603, 1.638237
237.1424, 2.077372
237.6245, 2.682959
238.1066, 3.495722
238.5888, 4.394320
239.0709, 5.262457
239.5530, 6.119677
240.0351, 7.069798
240.5172, 8.185892
240.9993, 9.411484
241.4815, 10.59053
241.9636, 11.64265
242.4457, 12.85781
242.9278, 14.55347
243.4099, 16.56231
243.8920, 18.55890
244.3742, 20.36545
244.8563, 22.06811
245.3384, 23.88591
245.8205, 25.88570
246.3026, 27.84274
246.7847, 29.67254
247.2668, 31.37300
247.7490, 32.94236
248.2311, 34.47858
248.7132, 35.83220
249.1953, 36.64974
249.6774, 36.84948
250.1595, 36.62136
250.6417, 36.05139
251.1238, 35.17183
251.6059, 33.97002
252.0880, 32.37015
252.5701, 30.53158
253.0522, 28.82884
253.5344, 27.31845
254.0165, 25.85991
254.4986, 24.34544
254.9807, 22.87427
255.4628, 21.55038
255.9449, 20.43046
256.4271, 19.46407
256.9092, 18.50779
257.3913, 17.45887
257.8734, 16.64552
258.3555, 16.29335
258.8376, 16.08322
259.3198, 15.71698
259.8019, 15.07930
260.2840, 14.26437
260.7661, 13.47414
261.2482, 12.78016
261.7303, 11.96357
262.2125, 10.88875
262.6946, 9.759146
263.1767, 8.749249
263.6588, 7.908026
264.1409, 7.169889
264.6230, 6.409927
265.1052, 5.590958
265.5873, 4.825165
266.0694, 4.032459
266.5515, 3.339008
267.0336, 2.901899
267.5157, 2.729849
267.9979, 2.638498
268.4800, 2.331657
268.9621, 1.605007
269.4442, 1.118870
269.9263, 0.9771040
270.4084, 0.9483050
270.8906, 0.8645360
271.3727, 0.7154290
271.8548, 0.6340080
272.3369, 0.8178960
272.8190, 1.440376
273.3011, 1.732252
273.7833, 1.397276
274.2654, 1.045364
274.7475, 1.026430
275.2296, 1.342178
275.7117, 1.781996
276.1938, 2.138477
276.6760, 2.387094
277.1581, 2.710354
277.6402, 3.143738
278.1223, 3.600830
278.6044, 4.005518
279.0865, 4.390282
279.5686, 4.879471
280.0508, 5.601889
280.5329, 6.566385
281.0150, 7.263054
281.4971, 7.410410
281.9792, 7.633366
282.4613, 8.182779
282.9435, 8.995983
283.4256, 9.895388
283.9077, 10.76999
284.3898, 11.63041
284.8719, 12.52555
285.3540, 13.31763
285.8362, 14.29163
286.3183, 15.58666
286.8004, 17.10778
287.2825, 18.63210
287.7646, 20.02691
288.2467, 21.44114
288.7289, 23.46639
289.2110, 26.63305
289.6931, 29.69824
290.1752, 32.42665
290.6573, 34.95575
291.1394, 37.44044
291.6216, 39.93536
292.1037, 42.40416
292.5858, 44.82635
293.0679, 47.30120
293.5500, 49.50245
294.0321, 51.50457
294.5143, 53.16746
294.9964, 54.48219
295.4785, 55.45203
295.9606, 55.70917
296.4427, 54.65717
296.9248, 51.86395
297.4070, 48.77121
297.8891, 45.17581
298.3712, 41.47789
298.8533, 38.03401
299.3354, 34.89990
299.8175, 31.83886
300.2997, 28.57368
300.7818, 25.03906
301.2639, 21.91189
301.7460, 19.28953
302.2281, 17.03834
302.7102, 15.11839
303.1924, 13.50611
303.6745, 12.05019
304.1566, 10.60313
304.6387, 9.169008
305.1208, 7.955421
305.6029, 7.110695
306.0851, 6.399073
306.5672, 5.709379
307.0493, 5.060148
307.5314, 4.526451
308.0135, 4.166855
308.4956, 3.923582
308.9778, 3.597157
309.4599, 3.113379
309.9420, 2.681557
310.4241, 2.363373
310.9062, 2.141737
311.3883, 2.003252
311.8705, 1.952722
312.3526, 1.962626
312.8347, 1.978456
313.3168, 2.019883
313.7989, 2.025750
314.2810, 1.916180
314.7632, 1.787767
315.2453, 1.783741
315.7274, 1.946776
316.2095, 2.176975
316.6916, 2.331473
317.1737, 2.375491
317.6559, 2.507196
318.1380, 2.756917
318.6201, 3.092390
319.1022, 3.484847
319.5843, 3.931694
320.0664, 4.448383
320.5485, 5.078068
321.0306, 5.829212
321.5128, 6.457990
321.9949, 6.667043
322.4770, 7.007466
322.9591, 7.872461
323.4412, 9.212757
323.9233, 10.73372
324.4055, 12.25179
324.8876, 13.78330
325.3697, 15.35395
325.8518, 16.92443
326.3339, 18.57165
326.8160, 20.58660
327.2982, 22.69864
327.7803, 24.33517
328.2624, 25.21524
328.7445, 25.49954
329.2266, 25.60393
329.7087, 25.78655
330.1909, 25.38571
330.6730, 24.10191
331.1551, 22.22682
331.6372, 20.00959
332.1193, 17.51556
332.6014, 15.00820
333.0836, 12.84858
333.5657, 11.12795
334.0478, 9.565610
334.5299, 8.128849
335.0120, 6.873178
335.4941, 5.875220
335.9763, 5.135244
336.4584, 4.531094
336.9405, 3.964753
337.4226, 3.436739
337.9047, 2.946725
338.3868, 2.486488
338.8690, 2.061073
339.3511, 1.640706
339.8332, 1.249922
340.3153, 0.9712210
340.7974, 0.8667020
341.2795, 0.9091850
341.7617, 0.9313980
342.2438, 0.9779420
342.7259, 0.9566570
343.2080, 0.8161200
343.6901, 0.6020210
344.1722, 0.3689150
344.6544, 0.1387380
345.1365, 7.0285998E-02
345.6186, 0.2191230
346.1007, 0.2866000
346.5828, 0.3158630
347.0649, 0.2661450
347.5471, 0.2014160
348.0292, 0.1801460
348.5113, 0.2119100
348.9934, 0.2669610
349.4755, 0.3128310
349.9576, 0.3556980
350.4398, 0.3587330
350.9219, 0.3049920
351.4040, 0.2340590
351.8861, 0.1246280
352.3682, 9.0049999E-03
352.8503, 1.6682999E-02
353.3325, 0.1401980
353.8146, 0.4581170
354.2967, 0.5920540
354.7788, 0.2872640
355.2609, 8.9993998E-02
355.7430, 0.2039240
356.2252, 0.4715250
356.7073, 0.6748290
357.1894, 0.7102420
357.6715, 0.6173650
358.1536, 0.4862000
358.6357, 0.2013960
359.1179, 6.3827999E-02
359.5999, 0.1529900
360.0821, 0.3361920
360.5642, 0.5832710
361.0463, 0.8510520
361.5284, 0.9881510
362.0105, 0.7445480
362.4926, 7.4436001E-02
362.9748, 0.5126720
363.4569, 0.2802020
363.9390, 3.4361001E-02
364.4211, 0.2499370
364.9032, 0.3373990
365.3853, 0.2867330
365.8675, 5.8157001E-02
366.3496, 0.3136340
366.8317, 0.4852940
367.3138, 0.2439360
367.7959, 6.5112002E-02
368.2780, 4.6337001E-02
368.7602, 0.1470410
369.2423, 0.3435320
369.7244, 0.6306540
370.2065, 0.9284200
370.6886, 1.064328
371.1707, 0.9652910
371.6529, 0.8852610
372.1350, 0.8390620
372.6171, 0.8364340
373.0992, 0.8942180
373.5813, 1.010446
374.0634, 1.156841
374.5456, 1.307638
375.0277, 1.462415
375.5098, 1.630182
375.9919, 1.882195
376.4740, 2.062056
376.9561, 2.020391
377.4383, 1.854051
377.9204, 1.788444
378.4025, 1.988481
378.8846, 2.356931
379.3667, 2.622545
379.8488, 2.757386
380.3310, 2.859834
380.8131, 2.969707
381.2952, 3.068539
381.7773, 3.110348
382.2594, 3.061627
382.7415, 3.056813
383.2237, 3.292631
383.7058, 3.767473
384.1879, 4.157709
384.6700, 4.339216
385.1521, 4.455507
385.6342, 4.631599
386.1164, 4.865727
386.5985, 5.126818
387.0806, 5.422582
387.5627, 5.728548
388.0448, 5.977121
388.5269, 6.145122
389.0091, 6.312859
389.4912, 6.533157
389.9733, 6.798632
390.4554, 7.100221
390.9375, 7.412055
391.4196, 7.781544
391.9018, 8.313445
392.3839, 8.984047
392.8660, 9.540102
393.3481, 9.816051
393.8302, 9.964895
394.3123, 10.28012
394.7945, 10.77208
395.2766, 11.36502
395.7587, 11.99826
396.2408, 12.72043
396.7229, 13.69142
397.2050, 14.98683
397.6872, 16.22848
398.1693, 16.92219
398.6514, 16.99914
399.1335, 17.41983
399.6156, 18.45610
400.0977, 19.66762
400.5798, 20.74217
401.0620, 21.70168
401.5441, 22.73405
402.0262, 23.96142
402.5083, 25.34788
402.9904, 26.68449
403.4725, 27.86541
403.9547, 29.14280
404.4368, 30.52911
404.9189, 32.06000
405.4010, 33.75368
405.8831, 35.60855
406.3652, 37.65962
406.8474, 39.98307
407.3295, 42.68754
407.8116, 45.32336
408.2937, 47.74956
408.7758, 50.23492
409.2579, 52.81663
409.7401, 55.58686
410.2222, 58.74543
410.7043, 62.49617
411.1864, 66.75757
411.6685, 71.01096
412.1506, 74.98371
412.6328, 79.35566
413.1149, 84.30686
413.5970, 89.62949
414.0791, 95.18018
414.5612, 100.9040
415.0433, 106.6947
415.5255, 112.3835
416.0076, 117.9982
416.4897, 123.5283
416.9718, 129.5529
417.4539, 134.9262
417.9360, 139.0596
418.4182, 142.0271
418.9003, 144.1788
419.3824, 145.8134
419.8645, 146.8828
420.3466, 147.1089
420.8287, 146.3448
421.3109, 144.8521
421.7930, 142.5189
422.2751, 139.6587
422.7572, 136.5637
423.2393, 133.2911
423.7214, 129.9768
424.2036, 126.5414
424.6857, 123.0109
425.1678, 120.2283
425.6499, 118.5346
426.1320, 117.5036
426.6141, 116.7224
427.0963, 116.1849
427.5784, 115.8640
428.0605, 115.8839
428.5426, 116.0593
429.0247, 116.1515
429.5068, 116.1548
429.9890, 116.0160
430.4711, 115.8750
430.9532, 115.4825
431.4353, 114.2849
431.9174, 112.2077
432.3995, 109.4278
432.8817, 105.9601
433.3638, 101.8745
433.8459, 97.13440
434.3280, 91.67495
434.8101, 86.02316
435.2922, 80.92343
435.7744, 76.53461
436.2565, 72.14185
436.7386, 67.54999
437.2207, 63.08199
437.7028, 58.89114
438.1849, 55.03336
438.6671, 51.62945
439.1492, 48.79106
439.6313, 46.44145
440.1134, 44.20551
440.5955, 41.76746
441.0776, 39.84171
441.5598, 38.79321
442.0418, 38.15522
442.5240, 37.43420
443.0061, 36.51886
443.4882, 35.67966
443.9703, 35.28718
444.4524, 35.40109
444.9345, 35.64706
445.4167, 36.06902
445.8988, 36.58457
446.3809, 37.08458
446.8630, 37.67208
447.3451, 38.55151
447.8272, 39.84459
448.3094, 41.42643
448.7915, 43.02277
449.2736, 44.61290
449.7557, 46.31799
450.2378, 48.25140
450.7199, 50.23386
451.2021, 52.19142
451.6842, 54.10767
452.1663, 55.91442
452.6484, 57.71569
453.1305, 59.39485
453.6126, 60.36021
454.0948, 60.46760
454.5769, 60.10275
455.0590, 59.53991
455.5411, 58.69070
456.0232, 57.29862
456.5053, 55.22986
456.9875, 52.72699
457.4696, 49.80446
457.9517, 46.53613
458.4338, 43.28701
458.9159, 40.12476
459.3980, 37.13342
459.8802, 34.48484
460.3623, 32.19322
460.8444, 29.89392
461.3265, 27.38534
461.8086, 24.95880
462.2907, 22.85829
462.7729, 21.07872
463.2550, 19.52055
463.7371, 18.13365
464.2192, 16.91673
464.7013, 15.77360
465.1834, 14.70480
465.6656, 13.68672
466.1477, 12.66156
466.6298, 11.70669
467.1119, 10.94467
467.5940, 10.38220
468.0761, 9.880033
468.5583, 9.266562
469.0404, 8.508724
469.5225, 7.821609
470.0046, 7.205507
470.4867, 6.662758
470.9688, 6.240641
471.4510, 5.888776
471.9331, 5.509288
472.4152, 5.052651
472.8973, 4.594537
473.3794, 4.285508
473.8615, 4.154120
474.3437, 4.054008
474.8258, 4.083348
475.3079, 4.030837
475.7900, 3.672091
476.2721, 3.068668
476.7542, 2.561831
477.2364, 2.443147
477.7185, 2.553100
478.2006, 2.520115
478.6827, 2.322126
479.1648, 2.103465
479.6469, 1.905933
480.1291, 1.751076
480.6112, 1.676876
481.0933, 1.707109
481.5754, 1.756105
482.0575, 1.838604
482.5396, 1.897265
483.0217, 1.790538
483.5038, 1.483425
483.9860, 1.154364
484.4681, 0.9776980
484.9502, 0.9619610
485.4323, 0.9021520
485.9144, 0.7438960
486.3965, 0.6022290
486.8787, 0.5520670
487.3608, 0.5473390
487.8429, 0.4937390
488.3250, 0.3533320
488.8071, 0.1811820
489.2892, 7.8823999E-02
489.7714, 8.2884997E-02
490.2535, 6.6085003E-02
490.7356, 3.7103001E-02
491.2177, 9.7239003E-02
491.6998, 1.0874000E-02
492.1819, 0.1744340
492.6641, 0.3393210
493.1462, 0.4099800
493.6283, 0.4055520
494.1104, 0.3773040
494.5925, 0.3189770
495.0746, 0.2541800
495.5568, 0.1511300
496.0389, 7.0407003E-02
496.5210, 8.2195997E-02
497.0031, 0.1804870
497.4852, 0.2555590
497.9673, 0.1735760
498.4495, 1.3515000E-02
498.9316, 3.9538000E-02
499.4137, 0.3156820
499.8958, 0.5132260
500.3779, 0.3763500
500.8600, 5.3959999E-02
501.3422, 0.1379550
501.8243, 0.1420940
502.3064, 0.1072410
502.7885, 8.0569997E-02
503.2706, 7.2019003E-02
503.7527, 0.1250720
504.2349, 0.2505560
504.7170, 0.3380080
505.1991, 0.2504420
505.6812, 2.8059000E-02
506.1633, 0.1208040
506.6454, 0.1518130
507.1276, 0.3890600
507.6097, 0.4153330
508.0918, 0.3194640
508.5739, 0.2431960
509.0560, 0.2395740
509.5381, 0.2676220
510.0203, 0.2630160
510.5024, 0.2177960
510.9845, 0.1670660
511.4666, 7.1094997E-02
511.9487, 9.1979997E-03
512.4308, 1.7616000E-02
512.9130, 8.2901999E-02
513.3951, 0.1963110
513.8772, 0.3777630
514.3593, 0.5322820
514.8414, 0.4266980
515.3235, 6.2730000E-03
515.8057, 0.2527150
516.2878, 0.1469940
516.7699, 6.4067997E-02
517.2520, 0.1576800
517.7341, 0.1475860
518.2162, 0.1509450
518.6984, 0.2773670
519.1805, 0.4098720
519.6626, 0.3540870
520.1447, 0.1248420
520.6268, 3.8619999E-02
521.1089, 3.0890000E-03
521.5911, 0.1434970
522.0732, 0.1976960
522.5553, 0.1344200
523.0374, 7.4538998E-02
523.5195, 4.6438001E-02
524.0016, 2.3991000E-02
524.4838, 1.3821000E-02
524.9659, 6.8457998E-02
525.4480, 0.1368130
525.9301, 0.2204520
526.4122, 0.3102010
526.8943, 0.3595130
527.3765, 0.3589430
527.8586, 0.3263720
528.3407, 0.1720150
528.8228, 5.0760001E-02
529.3049, 0.1148980
529.7870, 0.3617840
530.2692, 0.6525280
530.7513, 0.8867440
531.2334, 1.062314
531.7155, 1.151289
532.1976, 1.102846
532.6797, 1.086209
533.1619, 1.233121
533.6440, 1.418431
534.1261, 1.494018
534.6082, 1.420870
535.0903, 1.379627
535.5724, 1.538588
536.0546, 1.802812
536.5367, 1.971474
537.0188, 2.017628
537.5009, 1.998092
537.9830, 1.919346
538.4651, 1.809920
538.9473, 1.819314
539.4294, 1.977163
539.9115, 2.203629
540.3936, 2.571121
540.8757, 2.951622
541.3578, 3.145871
541.8400, 3.135728
542.3221, 3.114923
542.8042, 3.281903
543.2863, 3.639326
543.7684, 4.022459
544.2505, 4.491840
544.7326, 4.909772
545.2147, 5.184020
545.6968, 5.426294
546.1790, 5.756009
546.6611, 6.203103
547.1432, 6.715023
547.6253, 7.223304
548.1074, 7.736095
548.5895, 8.319015
549.0717, 8.962306
549.5538, 9.700168
550.0359, 10.56137
550.5180, 11.52498
551.0001, 12.57963
551.4822, 13.71169
551.9644, 14.95466
552.4465, 16.37894
552.9286, 17.92428
553.4107, 19.52376
553.8928, 21.16866
554.3749, 22.69061
554.8571, 23.92327
555.3392, 24.87546
555.8213, 25.78948
556.3034, 26.89125
556.7855, 27.68934
557.2676, 28.16850
557.7498, 28.22738
558.2319, 27.66123
558.7140, 26.46620
559.1961, 24.94265
559.6782, 23.38077
560.1603, 21.79011
560.6425, 20.27298
561.1246, 18.86042
561.6067, 17.49305
562.0888, 16.09924
562.5709, 14.75303
563.0530, 13.53582
563.5352, 12.47818
564.0173, 11.52959
564.4994, 10.63167
564.9815, 9.801768
565.4636, 9.153553
565.9457, 8.725194
566.4279, 8.363012
566.9100, 7.977739
567.3921, 7.570374
567.8742, 7.148038
568.3563, 6.623094
568.8384, 6.234989
569.3206, 6.152170
569.8027, 6.208717
570.2848, 6.207216
570.7669, 6.114063
571.2490, 5.988566
571.7311, 5.873513
572.2133, 5.774201
572.6954, 5.751023
573.1775, 5.874211
573.6596, 6.005897
574.1417, 6.145340
574.6238, 6.262671
575.1060, 6.327641
575.5881, 6.351568
576.0702, 6.381380
576.5523, 6.419585
577.0344, 6.489637
577.5165, 6.723094
577.9987, 7.174164
578.4808, 7.601745
578.9629, 7.852725
579.4450, 8.030315
579.9271, 8.277365
580.4092, 8.600108
580.8914, 9.023513
581.3735, 9.625210
581.8556, 10.28625
582.3377, 10.87054
582.8198, 11.38149
583.3019, 11.89851
583.7841, 12.45520
584.2662, 13.07682
584.7483, 13.83339
585.2304, 14.77615
585.7125, 15.78566
586.1946, 16.84056
586.6768, 17.98922
587.1589, 19.26801
587.6410, 20.65038
588.1231, 22.04512
588.6052, 23.35768
589.0873, 24.76486
589.5695, 26.62984
590.0516, 28.98846
590.5337, 31.61543
591.0158, 34.51502
591.4979, 37.65335
591.9800, 40.89706
592.4622, 44.30492
592.9443, 48.05896
593.4264, 52.18392
593.9085, 56.71819
594.3906, 61.90717
594.8727, 67.48692
595.3549, 72.93450
