##NAMES=Columbite-(Fe)
##RRUFFID=R050348
##IDEAL CHEMISTRY=Fe^2+^Nb_2_O_6_
##LOCALITY=Lord Hill mine, Stoneham, Oxford County, Maine, USA
##OWNER=RRUFF
##SOURCE=California Institute of Technology
##DESCRIPTION=Black fragment
##STATUS=The identification of this mineral has been confirmed by X-ray diffraction and chemical analysis
##URL=rruff.info/R050348
##MEASURED CHEMISTRY=(Fe^2+^_0.69_Mn^2+^_0.30_Ti_0.01_)(Nb_0.89_Ta_0.10_Ti_0.01_)_2_O_6_
95.41614, 0.0000000E+00
95.89825, 0.1665040
96.38037, 0.9953310
96.86249, 2.150131
97.34460, 2.979721
97.82672, 3.855957
98.30884, 4.219788
98.79095, 4.125702
99.27307, 4.220947
99.75519, 4.402344
100.2373, 3.794067
100.7194, 3.655823
101.2015, 3.275009
101.6837, 2.439499
102.1658, 1.525345
102.6479, 0.6401820
103.1300, 0.2762300
103.6121, 0.7324680
104.0942, 8.2291000E-02
104.5764, 1.566635
105.0585, 2.832336
105.5406, 3.448273
106.0227, 3.600983
106.5048, 3.823837
106.9869, 3.990311
107.4691, 4.338303
107.9512, 5.094620
108.4333, 6.116470
108.9154, 7.056107
109.3975, 7.536575
109.8796, 7.428741
110.3618, 7.666824
110.8439, 8.408493
111.3260, 9.352188
111.8081, 10.43068
112.2902, 11.60806
112.7723, 12.83464
113.2544, 14.01570
113.7366, 14.94888
114.2187, 16.27112
114.7008, 18.43654
115.1829, 20.73012
115.6650, 22.35025
116.1471, 23.00540
116.6293, 23.22935
117.1114, 24.35013
117.5935, 26.93663
118.0756, 29.20689
118.5577, 30.62143
119.0398, 31.40025
119.5220, 32.02933
120.0041, 32.59625
120.4862, 33.27243
120.9683, 34.36908
121.4504, 36.06979
121.9325, 37.87151
122.4147, 39.44214
122.8968, 40.76306
123.3789, 41.91557
123.8610, 42.83606
124.3431, 43.64679
124.8252, 44.54126
125.3074, 45.64902
125.7895, 47.01248
126.2716, 48.19785
126.7537, 49.01404
127.2358, 49.84962
127.7179, 50.99449
128.2001, 52.22514
128.6822, 53.22575
129.1643, 53.37896
129.6464, 53.01370
130.1285, 52.93201
130.6107, 53.22598
131.0928, 53.72028
131.5749, 54.72995
132.0570, 56.07444
132.5391, 57.21782
133.0212, 57.18356
133.5034, 55.92803
133.9855, 54.98543
134.4676, 54.60760
134.9497, 54.24583
135.4318, 53.82047
135.9139, 53.32542
136.3960, 52.49475
136.8782, 51.04736
137.3603, 48.63663
137.8424, 45.87741
138.3245, 42.33525
138.8066, 38.69725
139.2887, 35.97824
139.7709, 34.56300
140.2530, 33.41869
140.7351, 31.12363
141.2172, 27.80045
141.6993, 24.54950
142.1814, 21.82631
142.6636, 19.52218
143.1457, 17.41855
143.6278, 15.45680
144.1099, 13.77154
144.5920, 12.48302
145.0741, 11.58890
145.5563, 10.76286
146.0384, 9.636703
146.5205, 8.142731
147.0026, 6.949638
147.4847, 6.696846
147.9668, 6.441841
148.4490, 5.499359
148.9311, 3.777885
149.4132, 1.901154
149.8953, 0.8653720
150.3774, 1.145935
150.8595, 1.335251
151.3417, 1.129753
151.8238, 0.9019320
152.3059, 1.043404
152.7880, 1.682159
153.2701, 2.641136
153.7522, 3.096970
154.2344, 2.671799
154.7165, 2.091583
155.1986, 1.067070
155.6807, 2.0339999E-02
156.1628, 0.6540220
156.6449, 0.5497740
157.1271, 0.1022190
157.6092, 0.5526890
158.0913, 0.5625530
158.5734, 0.6889500
159.0555, 1.398216
159.5376, 2.391609
160.0198, 2.800224
160.5019, 1.931969
160.9840, 0.1936040
161.4661, 0.7342000
161.9482, 0.1953810
162.4303, 0.5505220
162.9125, 0.5746540
163.3946, 9.2850000E-02
163.8767, 0.6394350
164.3588, 0.4881670
164.8409, 7.8400001E-02
165.3230, 0.5930250
165.8052, 1.027885
166.2873, 1.336227
166.7694, 1.470383
167.2515, 1.445503
167.7336, 1.179626
168.2157, 0.2725450
168.6979, 0.7936400
169.1800, 1.415375
169.6621, 1.233841
170.1442, 0.5156170
170.6263, 2.2171000E-02
171.1084, 0.4301760
171.5906, 0.5295180
172.0727, 7.8285001E-02
172.5548, 0.6285550
173.0369, 1.190002
173.5190, 1.356712
174.0011, 1.165619
174.4833, 0.9230730
174.9654, 0.5257870
175.4475, 0.1792300
175.9296, 0.1388090
176.4117, 0.3723070
176.8938, 0.3994060
177.3760, 8.7334000E-02
177.8581, 0.5826260
178.3402, 0.8446810
178.8223, 0.4043050
179.3044, 0.1031720
179.7865, 0.5000380
180.2687, 0.7772900
180.7508, 0.9924550
181.2329, 1.202522
181.7150, 1.413391
182.1971, 1.452461
182.6792, 1.100471
183.1614, 0.7832180
183.6435, 0.7851410
184.1256, 1.100777
184.6077, 1.475159
185.0898, 1.645103
185.5719, 1.604172
186.0541, 1.839035
186.5362, 2.892136
187.0183, 3.916748
187.5004, 3.800110
187.9825, 2.351089
188.4646, 1.106377
188.9468, 1.903618
189.4289, 4.231735
189.9110, 6.054176
190.3931, 6.779869
190.8752, 6.774460
191.3573, 6.458855
191.8395, 5.687462
192.3216, 5.103928
192.8037, 5.348076
193.2858, 6.154762
193.7679, 6.969528
194.2500, 7.623390
194.7322, 8.102722
195.2143, 8.334190
195.6964, 8.156036
196.1785, 7.972618
196.6606, 7.958359
197.1427, 8.100342
197.6249, 8.379051
198.1070, 8.837257
198.5891, 9.450157
199.0712, 9.963547
199.5533, 10.27431
200.0354, 10.59239
200.5176, 11.10373
200.9997, 11.69347
201.4818, 12.09871
201.9639, 12.05925
202.4460, 11.56040
202.9281, 11.22646
203.4103, 11.16391
203.8924, 11.18709
204.3745, 11.29646
204.8566, 11.45604
205.3387, 11.61184
205.8208, 11.73084
206.3030, 11.82395
206.7851, 11.73161
207.2672, 11.32603
207.7493, 10.87354
208.2314, 10.47003
208.7135, 10.12365
209.1957, 9.815178
209.6778, 9.534363
210.1599, 9.291977
210.6420, 9.031113
211.1241, 8.869202
211.6062, 8.592133
212.0884, 7.968468
212.5705, 7.067245
213.0526, 6.217873
213.5347, 5.715080
214.0168, 5.597595
214.4989, 5.434738
214.9811, 5.237785
215.4632, 5.021011
215.9453, 4.787376
216.4274, 4.544388
216.9095, 4.338577
217.3916, 4.238228
217.8737, 4.230789
218.3559, 4.063103
218.8380, 3.433350
219.3201, 2.775528
219.8022, 2.660652
220.2843, 3.113701
220.7664, 3.623222
221.2486, 3.779030
221.7307, 3.624290
222.2128, 3.473030
222.6949, 3.403397
223.1770, 3.342422
223.6591, 3.205223
224.1413, 2.969368
224.6234, 2.784164
225.1055, 2.668800
225.5876, 2.686325
226.0697, 3.019257
226.5518, 4.041107
227.0340, 5.182915
227.5161, 5.508034
227.9982, 4.810318
228.4803, 4.147331
228.9624, 4.096535
229.4445, 4.431160
229.9267, 4.944756
230.4088, 5.695885
230.8909, 6.419388
231.3730, 6.478584
231.8551, 5.516197
232.3372, 4.889908
232.8194, 5.532242
233.3015, 6.690048
233.7836, 7.486320
234.2657, 7.520035
234.7478, 7.039467
235.2299, 6.532158
235.7121, 5.779137
236.1942, 5.396706
236.6763, 5.742851
237.1584, 6.461632
237.6405, 7.218208
238.1227, 7.900352
238.6048, 8.463631
239.0869, 8.747414
239.5690, 8.444069
240.0511, 8.410194
240.5332, 9.084702
241.0154, 9.939400
241.4975, 10.39251
241.9796, 10.19125
242.4617, 9.637993
242.9438, 9.518074
243.4259, 10.26071
243.9081, 10.76799
244.3902, 10.69969
244.8723, 10.47334
245.3544, 10.55866
245.8365, 11.12399
246.3186, 11.86275
246.8008, 12.04684
247.2829, 10.92303
247.7650, 10.34937
248.2471, 10.73550
248.7292, 11.49055
249.2113, 12.16560
249.6935, 12.58578
250.1756, 12.72654
250.6577, 12.50628
251.1398, 11.18005
251.6219, 10.61546
252.1040, 11.49453
252.5862, 12.73743
253.0683, 13.36338
253.5504, 13.09498
254.0325, 12.36332
254.5146, 11.85542
254.9967, 11.67017
255.4789, 11.57739
255.9610, 11.51137
256.4431, 11.57289
256.9252, 11.91800
257.4073, 12.56788
257.8894, 13.30806
258.3716, 13.85482
258.8537, 14.13155
259.3358, 14.37297
259.8179, 14.53490
260.3000, 14.68774
260.7821, 14.92789
261.2643, 15.26381
261.7464, 15.55785
262.2285, 15.61394
262.7106, 15.33550
263.1927, 15.37344
263.6748, 16.05293
264.1570, 16.85738
264.6391, 17.37781
265.1212, 17.56444
265.6033, 17.53462
266.0854, 17.37202
266.5675, 17.07282
267.0497, 16.89265
267.5318, 17.02312
268.0139, 17.15253
268.4960, 16.98786
268.9781, 16.52312
269.4602, 16.04487
269.9424, 15.74734
270.4245, 15.61864
270.9066, 15.51508
271.3887, 15.38982
271.8708, 15.32360
272.3529, 15.40310
272.8351, 15.64477
273.3172, 15.90099
273.7993, 16.07791
274.2814, 16.18710
274.7635, 16.30725
275.2456, 16.49310
275.7278, 16.61626
276.2099, 16.52430
276.6920, 16.24329
277.1741, 16.03724
277.6562, 16.15118
278.1383, 16.32426
278.6205, 15.99455
279.1026, 14.85928
279.5847, 13.88580
280.0668, 13.91483
280.5489, 14.77607
281.0310, 15.33227
281.5132, 14.96969
281.9953, 14.33876
282.4774, 14.50610
282.9595, 15.65623
283.4416, 16.52130
283.9237, 16.08670
284.4059, 14.66649
284.8880, 13.57634
285.3701, 13.20211
285.8522, 13.08810
286.3343, 12.81966
286.8164, 12.42005
287.2986, 11.96906
287.7807, 11.43031
288.2628, 10.86130
288.7449, 10.48573
289.2270, 10.41997
289.7091, 10.39796
290.1913, 10.15329
290.6734, 9.750435
291.1555, 9.417816
291.6376, 9.326622
292.1197, 9.377350
292.6018, 9.337700
293.0840, 9.194885
293.5661, 8.964302
294.0482, 8.558601
294.5303, 8.083954
295.0124, 7.744576
295.4945, 7.723793
295.9767, 7.832298
296.4588, 7.734680
296.9409, 7.395851
297.4230, 6.968880
297.9051, 6.233269
298.3872, 5.541321
298.8694, 5.427139
299.3515, 6.270943
299.8336, 7.352043
300.3157, 7.618546
300.7978, 6.914063
301.2799, 6.346596
301.7621, 6.563110
302.2442, 6.995354
302.7263, 7.181740
303.2084, 7.041573
303.6905, 6.638885
304.1726, 5.888741
304.6548, 4.767029
305.1369, 3.929375
305.6190, 3.676598
306.1011, 3.666733
306.5832, 3.638176
307.0653, 3.574997
307.5475, 3.586761
308.0296, 3.908974
308.5117, 4.488419
308.9938, 4.642403
309.4759, 4.014572
309.9580, 3.241760
310.4402, 2.675598
310.9223, 2.320724
311.4044, 2.163834
311.8865, 2.331314
312.3686, 2.723976
312.8507, 2.895401
313.3329, 2.755035
313.8150, 2.527817
314.2971, 2.308266
314.7792, 2.099037
315.2613, 1.899002
315.7434, 1.678825
316.2256, 1.484650
316.7077, 1.431763
317.1898, 1.563278
317.6719, 1.714821
318.1540, 1.755257
318.6361, 1.797638
319.1183, 2.050362
319.6004, 2.686195
320.0825, 3.240913
320.5646, 2.932632
321.0467, 1.590782
321.5288, 0.4717790
322.0110, 2.8937999E-02
322.4931, 0.1242220
322.9752, 0.2145770
323.4573, 1.006813
323.9394, 1.687393
324.4215, 1.602127
324.9037, 0.7708360
325.3858, 0.1421810
325.8679, 4.9980000E-02
326.3500, 3.8054999E-02
326.8321, 0.3491210
327.3142, 1.028801
327.7964, 1.458473
328.2785, 0.9543460
328.7606, 0.2019270
329.2427, 0.5500870
329.7248, 0.4184950
330.2069, 1.459946
330.6891, 1.807373
331.1712, 1.670364
331.6533, 1.480980
332.1354, 1.488464
332.6175, 1.537323
333.0996, 1.260429
333.5818, 0.5461650
334.0639, 0.1380540
334.5460, 0.6473460
335.0281, 0.9628070
335.5102, 0.9724730
335.9923, 0.5376660
336.4745, 4.3251000E-02
336.9566, 6.2030000E-03
337.4387, 0.4198300
337.9208, 0.7704160
338.4029, 0.7829900
338.8850, 0.7006450
339.3671, 0.8150330
339.8492, 1.169762
340.3314, 1.420326
340.8135, 1.226234
341.2956, 0.6615520
341.7777, 0.1670300
342.2598, 0.2951200
342.7419, 0.4811250
343.2241, 4.8070000E-03
343.7062, 0.9854130
344.1883, 1.717110
344.6704, 1.583031
345.1525, 0.9737240
345.6346, 0.7946090
346.1168, 1.219589
346.5989, 1.661003
347.0810, 1.592430
347.5631, 1.252991
348.0452, 1.055367
348.5273, 1.180069
349.0095, 1.422203
349.4916, 1.530258
349.9737, 1.499557
350.4558, 1.553833
350.9379, 1.930367
351.4200, 2.367554
351.9022, 2.380844
352.3843, 1.741913
352.8664, 1.257111
353.3485, 1.676064
353.8306, 2.751556
354.3127, 3.480209
354.7949, 3.509140
355.2770, 3.224297
355.7591, 3.058540
356.2412, 3.001572
356.7233, 3.079170
357.2054, 3.426414
357.6876, 3.874138
358.1697, 4.070625
358.6518, 3.920792
359.1339, 3.891579
359.6160, 4.550880
360.0981, 5.741180
360.5803, 6.576759
361.0624, 6.736473
361.5445, 6.663574
362.0266, 6.609726
362.5087, 6.602890
362.9908, 6.814705
363.4730, 7.436165
363.9551, 8.288010
364.4372, 8.821785
364.9193, 8.898834
365.4014, 8.919899
365.8835, 9.069588
366.3657, 9.276077
366.8478, 9.328209
367.3299, 9.107948
367.8120, 8.912888
368.2941, 9.293884
368.7762, 10.40921
369.2584, 11.34774
369.7405, 11.86850
370.2226, 12.23762
370.7047, 12.63802
371.1868, 13.09607
371.6689, 13.67235
372.1511, 14.47078
372.6332, 15.50240
373.1153, 16.17299
373.5974, 16.00655
374.0795, 15.98724
374.5616, 16.77359
375.0438, 18.10379
375.5259, 19.26764
376.0080, 19.85376
376.4901, 20.03809
376.9722, 20.43685
377.4543, 21.21634
377.9365, 21.99024
378.4186, 22.77485
378.9007, 23.51399
379.3828, 24.10472
379.8649, 24.52465
380.3470, 24.90927
380.8292, 25.49819
381.3113, 26.48893
381.7934, 27.00957
382.2755, 26.40404
382.7576, 25.94929
383.2397, 26.52657
383.7219, 27.96561
384.2040, 29.52065
384.6861, 30.59695
385.1682, 31.18810
385.6503, 31.56229
386.1324, 31.58382
386.6146, 31.70862
387.0967, 31.98497
387.5788, 32.28964
388.0609, 32.48671
388.5430, 32.58808
389.0251, 32.63282
389.5073, 32.59841
389.9894, 32.32417
390.4715, 32.29316
390.9536, 32.87408
391.4357, 33.48199
391.9178, 33.74101
392.4000, 33.57945
392.8821, 33.15403
393.3642, 32.52937
393.8463, 31.68721
394.3284, 31.16402
394.8105, 31.27125
395.2927, 31.39159
395.7748, 31.43272
396.2569, 31.30626
396.7390, 30.84948
397.2211, 29.91410
397.7032, 28.71377
398.1854, 27.73904
398.6675, 27.04236
399.1496, 26.48296
399.6317, 26.22313
400.1138, 25.93027
400.5959, 25.37413
401.0781, 24.55686
401.5602, 23.61181
402.0423, 22.51290
402.5244, 21.30160
403.0065, 20.52840
403.4886, 20.58966
403.9708, 20.62407
404.4529, 19.85241
404.9350, 18.55565
405.4171, 17.53720
405.8992, 17.52950
406.3813, 17.80519
406.8635, 17.05844
407.3456, 15.16610
407.8277, 13.36858
408.3098, 12.33855
408.7919, 11.74210
409.2740, 10.93583
409.7562, 9.694504
410.2383, 8.736504
410.7204, 8.705231
411.2025, 9.313530
411.6846, 9.773392
412.1667, 9.952324
412.6489, 9.748306
413.1310, 8.763176
413.6131, 7.012711
414.0952, 5.781403
414.5773, 5.480377
415.0594, 5.662354
415.5416, 6.195488
416.0237, 6.963020
416.5058, 7.290749
416.9879, 6.621452
417.4700, 5.178772
417.9521, 4.199883
418.4343, 3.902390
418.9164, 3.717651
419.3985, 3.475334
419.8806, 3.256302
420.3627, 3.261772
420.8448, 3.551140
421.3270, 3.828690
421.8091, 3.612267
422.2912, 2.582611
422.7733, 1.989479
423.2554, 2.208366
423.7375, 2.501511
424.2197, 2.391006
424.7018, 1.949005
425.1839, 1.569847
425.6660, 1.568329
426.1481, 1.846100
426.6302, 1.705482
427.1124, 0.4530870
427.5945, 0.3613820
428.0766, 0.3766020
428.5587, 3.7941001E-02
429.0408, 0.6049580
429.5229, 1.208595
430.0051, 1.712608
430.4872, 1.879074
430.9693, 1.604439
431.4514, 1.426254
431.9335, 1.526794
432.4156, 1.573883
432.8978, 1.409363
433.3799, 1.079483
433.8620, 0.6919170
434.3441, 0.2301640
434.8262, 0.1744460
435.3083, 3.3668999E-02
435.7905, 0.9269560
436.2726, 1.669365
436.7547, 1.574242
437.2368, 1.224625
437.7189, 1.157791
438.2010, 1.490952
438.6832, 1.836113
439.1653, 1.880386
439.6474, 1.654472
440.1295, 1.294289
440.6116, 0.7559590
441.0938, 0.2107850
441.5759, 0.2662200
442.0580, 0.6483690
442.5401, 0.7981340
443.0222, 0.4294740
443.5043, 1.9661000E-02
443.9865, 9.1859996E-03
444.4686, 0.4000550
444.9507, 0.6090770
445.4328, 0.2380910
445.9149, 0.4029160
446.3970, 0.5510480
446.8792, 7.4799999E-04
447.3613, 0.3596420
447.8434, 8.3426997E-02
448.3255, 0.4181590
448.8076, 0.5991520
449.2897, 0.3804170
449.7719, 0.1092220
450.2540, 0.1240840
450.7361, 0.4443970
451.2182, 0.6499790
451.7003, 0.7775190
452.1824, 0.7729420
452.6646, 0.5413740
453.1467, 0.1804430
453.6288, 0.2035900
454.1109, 0.5657500
454.5930, 0.7994840
455.0751, 0.6476360
455.5573, 0.3068850
456.0394, 0.8197480
456.5215, 0.5871200
457.0036, 0.2472310
457.4857, 0.1441730
457.9678, 0.2833100
458.4500, 0.5108720
458.9321, 0.7171860
459.4142, 0.9104310
459.8963, 1.141365
460.3784, 1.412651
460.8605, 1.719147
461.3427, 2.287247
461.8248, 2.768944
462.3069, 2.742165
462.7890, 2.103561
463.2711, 1.319557
463.7532, 0.8209610
464.2354, 0.5980680
464.7175, 0.6003950
465.1996, 0.9774700
465.6817, 1.333229
466.1638, 1.266563
466.6459, 0.9571380
467.1281, 0.8737110
467.6102, 1.342674
468.0923, 1.947922
468.5744, 2.258255
469.0565, 2.290405
469.5386, 2.164848
470.0208, 1.847260
470.5029, 1.498596
470.9850, 1.441162
471.4671, 1.719101
471.9492, 1.952629
472.4313, 2.024620
472.9135, 2.018379
473.3956, 1.962334
473.8777, 1.885178
474.3598, 1.966515
474.8419, 2.411575
475.3240, 3.144501
475.8062, 3.390236
476.2883, 2.637665
476.7704, 2.098343
477.2525, 2.151192
477.7346, 2.488503
478.2167, 2.789879
478.6989, 2.950813
479.1810, 2.969498
479.6631, 2.791092
480.1452, 2.310509
480.6273, 2.184731
481.1094, 3.029091
481.5916, 3.596069
482.0737, 3.272163
482.5558, 2.422440
483.0379, 1.647636
483.5200, 1.206215
484.0021, 1.116844
484.4843, 1.532242
484.9664, 2.619133
485.4485, 3.440269
485.9306, 3.868179
486.4127, 3.946449
486.8948, 3.498184
487.3770, 2.630936
487.8591, 1.891693
488.3412, 1.590988
488.8233, 1.627609
489.3054, 1.953384
489.7875, 2.625069
490.2697, 2.968132
490.7518, 2.391243
491.2339, 1.400383
491.7160, 1.020432
492.1981, 1.404381
492.6802, 1.947823
493.1624, 2.640640
493.6445, 3.259705
494.1266, 3.340073
494.6087, 2.821045
495.0908, 2.313675
495.5729, 2.383965
496.0551, 3.025848
496.5372, 3.497047
497.0193, 3.604225
497.5014, 3.791229
497.9835, 4.324364
498.4656, 4.974869
498.9478, 5.417084
499.4299, 5.537987
499.9120, 5.465691
500.3941, 5.412254
500.8762, 5.448792
501.3583, 5.319244
501.8405, 4.828278
502.3226, 4.335037
502.8047, 3.735550
503.2868, 3.292198
503.7689, 3.511810
504.2510, 4.735649
504.7331, 6.319229
505.2152, 6.971939
505.6974, 6.529228
506.1795, 6.322769
506.6616, 6.820740
507.1437, 7.451141
507.6258, 7.768692
508.1079, 7.823502
508.5901, 7.949432
509.0722, 8.314766
509.5543, 8.803665
510.0364, 9.295555
510.5185, 9.785423
511.0006, 10.16345
511.4828, 10.39709
511.9649, 10.47960
512.4470, 10.29625
512.9291, 9.639114
513.4113, 9.519211
513.8934, 10.77182
514.3755, 12.30371
514.8576, 12.86881
515.3397, 12.44582
515.8218, 11.88502
516.3040, 11.80354
516.7861, 12.12913
517.2682, 12.43665
517.7503, 12.68416
518.2324, 12.97601
518.7145, 13.45446
519.1967, 13.90756
519.6788, 14.11562
520.1609, 14.07914
520.6430, 13.94732
521.1251, 13.83678
521.6072, 13.74955
522.0894, 13.86379
522.5715, 14.39693
523.0536, 14.82251
523.5357, 14.88949
524.0178, 14.75879
524.4999, 14.61866
524.9821, 14.53335
525.4642, 14.51794
525.9463, 14.62474
526.4284, 14.82101
526.9105, 14.97199
527.3926, 15.06753
527.8748, 15.03023
528.3569, 14.76299
528.8390, 14.31474
529.3211, 13.85526
529.8032, 13.36295
530.2853, 12.90456
530.7675, 12.48624
531.2496, 12.14064
531.7317, 12.04012
532.2138, 12.24127
532.6959, 12.30902
533.1780, 11.61629
533.6602, 9.922325
534.1423, 8.980995
534.6244, 9.340302
535.1065, 9.715797
535.5886, 9.560944
536.0707, 9.134583
536.5529, 8.915062
537.0350, 9.077126
537.5171, 9.319000
537.9992, 9.140694
538.4813, 8.457710
538.9634, 7.794670
539.4456, 7.036690
539.9277, 6.461914
540.4098, 6.343742
540.8919, 6.481705
541.3740, 6.468613
541.8561, 6.085213
542.3383, 5.584999
542.8204, 5.459595
543.3025, 5.617188
543.7846, 4.964539
544.2667, 2.746628
544.7488, 0.6052550
545.2310, 0.7956160
545.7131, 3.015816
546.1952, 4.536530
546.6773, 4.623398
547.1594, 4.192787
547.6415, 3.596169
548.1237, 2.964981
548.6058, 2.577545
549.0879, 2.555298
549.5700, 2.698883
550.0521, 2.679085
550.5342, 2.426338
551.0164, 2.221573
551.4985, 2.160492
551.9806, 2.045258
552.4627, 1.698448
552.9448, 1.247925
553.4269, 0.9044720
553.9091, 0.7616960
554.3912, 0.8348620
554.8733, 1.277023
555.3554, 2.203392
555.8375, 2.692062
556.3196, 2.341454
556.8018, 1.842072
557.2839, 1.711212
557.7660, 1.798676
558.2481, 1.656052
558.7302, 0.8983760
559.2123, 0.1161800
559.6945, 2.3419999E-03
560.1766, 0.4189680
560.6587, 0.7539830
561.1408, 0.8183900
561.6229, 0.7520980
562.1050, 0.7070390
562.5872, 0.6822430
563.0693, 0.7177730
563.5514, 0.9750820
564.0335, 1.130898
564.5156, 1.011108
564.9977, 0.6745070
565.4799, 0.1595380
565.9620, 0.5075990
566.4441, 1.111855
566.9262, 1.287407
567.4083, 0.9339450
567.8904, 0.5591960
568.3726, 0.1545790
568.8547, 0.2644650
569.3368, 0.8196410
569.8189, 1.353439
570.3010, 1.585258
570.7831, 1.383736
571.2653, 1.012657
571.7474, 0.7623290
572.2295, 0.6197590
572.7116, 0.4407500
573.1937, 0.1435850
573.6758, 4.1847002E-02
574.1580, 0.1470030
574.6401, 0.6232990
575.1222, 1.050056
575.6043, 1.629646
576.0864, 1.888672
576.5685, 1.301758
577.0507, 0.3213810
577.5328, 0.3019030
578.0149, 0.3834530
578.4970, 0.1871340
578.9791, 4.7233999E-02
579.4612, 0.3307110
579.9434, 0.3748860
580.4255, 0.2160720
580.9076, 0.5804670
581.3897, 0.3870160
581.8718, 1.9760000E-02
582.3539, 0.2649770
582.8361, 0.2649840
583.3182, 0.1872250
583.8003, 8.1626996E-02
584.2824, 6.1799999E-04
584.7645, 0.4693980
585.2466, 1.838196
585.7288, 2.761925
586.2108, 2.156555
586.6929, 0.8984070
587.1750, 0.2560350
587.6572, 0.4173130
588.1393, 0.7503200
588.6214, 1.108826
589.1035, 1.402573
589.5856, 1.470268
590.0677, 1.318779
590.5499, 1.121300
591.0320, 0.9749760
591.5141, 0.8880460
591.9962, 0.8962860
592.4783, 1.194412
592.9604, 1.309685
593.4426, 0.9189150
593.9247, 0.6076350
594.4068, 0.9479600
594.8889, 1.765282
595.3710, 2.378784
595.8531, 2.291481
596.3353, 1.838737
596.8174, 1.918434
597.2995, 2.694000
597.7816, 3.005661
598.2637, 2.052940
598.7458, 1.151665
599.2280, 1.740158
599.7101, 3.489128
600.1922, 4.580208
600.6743, 3.954483
601.1564, 2.874802
601.6385, 2.291031
602.1207, 2.116608
602.6028, 2.081863
603.0849, 2.100197
603.5670, 2.211067
604.0491, 2.496269
604.5313, 3.018051
605.0134, 3.316528
605.4955, 3.257545
605.9776, 3.161835
606.4597, 3.115967
606.9418, 3.098358
607.4240, 3.025330
607.9061, 2.890388
608.3882, 2.868492
608.8703, 3.318169
609.3524, 4.172470
609.8345, 4.436615
610.3167, 3.814995
610.7988, 3.321793
611.2809, 3.778084
611.7630, 4.516121
612.2451, 4.510040
612.7272, 3.476547
613.2094, 2.728027
613.6915, 3.194420
614.1736, 4.097878
614.6557, 4.458809
615.1378, 4.243546
615.6199, 3.808014
616.1021, 3.307899
616.5842, 2.860752
617.0663, 2.844257
617.5484, 3.697041
618.0305, 4.270020
618.5126, 4.394588
618.9948, 4.419643
619.4769, 4.494740
619.9590, 4.634705
620.4411, 4.861702
620.9232, 5.222527
621.4053, 5.526073
621.8875, 5.347706
622.3696, 4.707222
622.8517, 4.479244
623.3338, 4.923645
623.8159, 5.555267
624.2980, 6.157158
624.7802, 6.691521
625.2623, 6.914341
625.7444, 6.443111
626.2265, 6.089329
626.7086, 6.309952
627.1907, 6.784843
627.6729, 7.166611
628.1550, 7.376598
628.6371, 7.348465
629.1192, 6.975761
629.6013, 6.304882
630.0834, 5.799324
630.5656, 5.340645
631.0477, 5.278370
631.5298, 6.031044
632.0119, 6.868984
632.4940, 7.277096
632.9761, 7.230465
633.4583, 6.954247
633.9404, 6.432087
634.4225, 5.879639
634.9046, 5.743439
635.3867, 5.971535
635.8688, 5.981880
636.3510, 5.470592
636.8331, 4.904396
637.3152, 4.923626
637.7973, 5.606701
638.2794, 6.147453
638.7615, 6.666729
639.2437, 6.963276
639.7258, 6.756218
640.2079, 6.288261
640.6900, 5.981491
641.1721, 5.955406
641.6542, 6.035690
642.1364, 6.072742
642.6185, 6.086555
643.1006, 5.895100
643.5827, 5.269451
644.0648, 4.779823
644.5469, 4.770493
645.0291, 4.942265
645.5112, 5.097031
645.9933, 5.222813
646.4754, 5.246319
646.9575, 4.956928
647.4396, 4.643368
647.9218, 4.780800
648.4039, 5.230846
648.8860, 5.307060
649.3681, 4.702415
649.8502, 3.906006
650.3323, 3.663952
650.8145, 4.125908
651.2966, 4.357311
651.7787, 4.219707
652.2608, 4.067299
652.7429, 4.017006
653.2250, 3.953064
653.7072, 3.662613
654.1893, 3.111530
654.6714, 2.737282
655.1535, 3.223984
655.6356, 4.178177
656.1177, 4.181999
656.5999, 3.057785
657.0820, 2.272320
657.5641, 2.672131
658.0462, 3.629810
658.5283, 3.953773
659.0104, 3.539791
659.4926, 3.191658
659.9747, 3.074657
660.4568, 3.066441
660.9389, 2.966457
661.4210, 2.773308
661.9031, 2.741539
662.3853, 2.988590
662.8674, 3.309311
663.3495, 3.391144
663.8316, 3.213154
664.3137, 3.140999
664.7958, 3.289246
665.2780, 3.333546
665.7601, 2.950169
666.2422, 2.471020
666.7243, 2.380146
667.2064, 2.799232
667.6885, 2.995983
668.1707, 2.173115
668.6528, 1.143032
669.1349, 1.074425
669.6170, 1.774582
670.0991, 2.146568
670.5812, 1.657845
671.0634, 0.7925420
671.5455, 0.4020420
672.0276, 0.6659660
672.5097, 0.9002990
672.9918, 0.9259680
673.4739, 1.035179
673.9561, 1.438950
674.4382, 1.950027
674.9203, 2.324574
675.4024, 2.500061
675.8845, 2.578094
676.3666, 2.699093
676.8488, 2.765118
677.3309, 2.423744
677.8130, 1.684818
678.2951, 1.200104
678.7772, 1.332184
679.2593, 1.782341
679.7415, 1.993675
680.2236, 1.877831
680.7057, 1.721066
681.1878, 1.573597
681.6699, 1.343647
682.1520, 0.8622700
682.6342, 0.3176040
683.1163, 3.5613999E-02
683.5984, 0.1175650
684.0805, 3.2554999E-02
684.5626, 0.5138280
685.0447, 1.213924
685.5269, 1.473598
686.0090, 1.195080
686.4911, 1.020496
686.9732, 1.306602
687.4553, 1.774292
687.9374, 1.948792
688.4196, 1.804680
688.9017, 1.734177
689.3838, 1.800560
689.8659, 1.923401
690.3480, 2.231323
690.8301, 2.522217
691.3123, 2.397507
691.7944, 1.755119
692.2765, 0.9494780
692.7586, 0.3159560
693.2407, 0.1267400
693.7228, 0.1572650
694.2050, 0.4010540
694.6871, 0.9269560
695.1692, 1.323082
695.6513, 1.491531
696.1334, 1.175095
696.6155, 0.3810500
697.0977, 5.8295999E-02
697.5798, 0.3931120
698.0619, 1.009720
698.5440, 1.389084
699.0261, 1.505211
699.5082, 1.206131
699.9904, 0.4941330
700.4725, 0.1376040
700.9546, 0.1090700
701.4367, 0.5238650
701.9188, 0.9159700
702.4009, 1.018959
702.8831, 0.9733280
703.3652, 0.6241680
703.8473, 0.2813420
704.3294, 0.2192990
704.8115, 0.4035260
705.2936, 0.5457230
705.7758, 0.5424350
706.2579, 0.4437330
706.7400, 0.1951070
707.2221, 0.1016460
707.7042, 0.1794970
708.1863, 1.2169000E-02
708.6685, 0.2081150
709.1506, 0.1269380
709.6327, 0.1509020
710.1148, 4.3442000E-02
710.5969, 1.306908
711.0790, 1.935547
711.5612, 1.105682
712.0433, 0.1393740
712.5254, 0.1477580
713.0075, 0.1463170
713.4896, 0.5783000
713.9717, 1.103043
714.4539, 1.475189
714.9360, 1.301376
715.4181, 0.8454060
715.9002, 0.8466720
716.3823, 1.381439
716.8644, 1.560936
717.3466, 0.6165540
717.8287, 1.007370
718.3108, 1.639679
718.7929, 0.6093750
719.2750, 0.1523060
719.7571, 0.4720840
720.2393, 0.6443560
720.7214, 0.7367550
721.2035, 0.8019710
721.6856, 0.9250340
722.1677, 1.143738
722.6498, 1.365372
723.1320, 1.681625
723.6141, 1.893715
724.0962, 1.369270
724.5783, 0.1442490
725.0604, 0.7029420
725.5425, 0.5456390
726.0247, 0.1900100
726.5068, 0.6370160
726.9889, 0.7463530
727.4710, 0.7935410
727.9531, 0.9343720
728.4352, 0.8065260
728.9174, 6.9176003E-02
729.3995, 1.124138
729.8816, 1.559242
730.3637, 1.224648
730.8458, 0.7610240
731.3279, 0.5761800
731.8101, 0.5484850
732.2922, 0.4994130
732.7743, 0.4394070
733.2564, 0.4909740
733.7385, 0.7318420
734.2206, 0.8439790
734.7028, 0.3221130
735.1849, 0.9233090
735.6670, 1.434380
736.1491, 0.4067080
736.6312, 0.3292240
737.1133, 0.4811170
737.5955, 0.2293550
738.0776, 0.5307770
738.5597, 1.616226
739.0418, 2.267311
739.5239, 1.927750
740.0060, 1.169632
740.4882, 0.5306470
740.9703, 2.2972001E-02
741.4524, 0.2906570
741.9345, 0.3867720
742.4166, 0.2981340
742.8987, 4.5944002E-02
743.3809, 0.3241500
743.8630, 0.6892780
744.3451, 1.314735
744.8272, 1.451462
745.3093, 0.5526810
745.7914, 0.3239900
746.2736, 0.6569670
746.7557, 0.5356370
747.2378, 0.1798170
747.7199, 0.3875960
748.2020, 0.9795070
748.6841, 1.709290
749.1663, 2.263618
749.6484, 1.779884
750.1305, 0.3996660
750.6126, 0.4212040
751.0947, 0.1293260
751.5768, 1.247993
752.0590, 1.424919
752.5411, 0.3474810
753.0232, 0.2749710
753.5053, 0.2861560
753.9874, 5.1933002E-02
754.4695, 0.5863420
754.9517, 1.205231
755.4338, 1.327499
755.9159, 0.9116290
756.3980, 0.4895400
756.8801, 0.2777100
757.3622, 0.2018660
757.8444, 0.2091520
758.3265, 0.2595370
758.8086, 0.3570710
759.2907, 0.5142520
759.7728, 0.6377410
760.2549, 0.6357190
760.7371, 0.5337830
761.2192, 0.4676440
761.7013, 0.3519740
762.1834, 0.5105740
762.6655, 1.400772
763.1476, 2.174614
763.6298, 2.108322
764.1119, 1.485748
764.5940, 1.129433
765.0761, 1.371933
765.5582, 1.555420
766.0403, 1.205986
766.5225, 0.7521440
767.0046, 0.6726300
767.4867, 0.9357300
767.9688, 1.320160
768.4509, 1.713882
768.9330, 2.041206
769.4152, 2.196213
769.8973, 2.163673
770.3794, 2.058617
770.8615, 1.901779
771.3436, 1.722137
771.8257, 1.494240
772.3079, 1.264343
772.7900, 1.106819
773.2721, 1.027344
773.7542, 0.9438630
774.2363, 0.7141490
774.7184, 0.6206130
775.2006, 0.9365310
775.6827, 1.345245
776.1648, 1.513382
776.6469, 1.496849
777.1290, 1.525162
777.6111, 1.781258
778.0933, 2.142517
778.5754, 2.386932
779.0575, 2.510887
779.5396, 2.315697
780.0217, 1.652802
780.5038, 1.070663
780.9860, 1.028198
781.4681, 1.404831
781.9502, 1.680595
782.4323, 1.928116
782.9144, 1.919655
783.3965, 1.225632
783.8787, 0.7952880
784.3608, 1.436432
784.8429, 2.597893
785.3250, 3.279343
785.8071, 3.165474
786.2892, 2.721611
786.7714, 2.088165
787.2535, 1.457382
787.7356, 1.390160
788.2177, 1.857399
788.6998, 2.321152
789.1819, 2.580757
789.6641, 2.645638
790.1462, 2.497894
790.6283, 2.139488
791.1104, 1.962181
791.5925, 1.980949
792.0746, 2.145927
792.5568, 2.758224
793.0389, 3.277451
793.5210, 3.144615
794.0031, 2.574448
794.4852, 2.317261
794.9673, 2.671623
795.4495, 3.262085
795.9316, 4.141594
796.4137, 4.933235
796.8958, 4.997620
797.3779, 4.458153
797.8600, 4.019402
798.3422, 4.046005
798.8243, 4.328697
799.3064, 4.564140
799.7885, 4.759178
800.2706, 4.770065
800.7527, 4.456657
801.2349, 4.418205
801.7170, 5.132034
802.1991, 6.024376
802.6812, 6.209572
803.1633, 5.686668
803.6454, 5.404167
804.1276, 5.634224
804.6097, 5.898628
805.0918, 5.923759
805.5739, 5.960953
806.0560, 6.385666
806.5381, 7.115440
807.0203, 7.663094
807.5024, 7.680405
807.9845, 7.584137
808.4666, 8.069817
808.9487, 8.957375
809.4308, 9.416458
809.9130, 9.345352
810.3951, 9.279480
810.8772, 9.519196
811.3593, 9.958084
811.8414, 10.38872
812.3235, 10.82294
812.8057, 11.19685
813.2878, 11.38746
813.7699, 11.67321
814.2520, 12.33257
814.7341, 12.98743
815.2162, 13.13522
815.6984, 12.80537
816.1805, 12.68844
816.6626, 13.25774
817.1447, 13.93992
817.6268, 14.38494
818.1089, 14.63219
818.5911, 14.61304
819.0732, 14.41530
819.5553, 14.46875
820.0374, 15.08240
820.5195, 15.96516
821.0016, 16.48521
821.4838, 16.62902
821.9659, 16.94886
822.4480, 17.58669
822.9301, 18.04397
823.4122, 17.97904
823.8943, 17.66267
824.3765, 17.57499
824.8586, 17.76923
825.3407, 17.91049
825.8228, 17.78886
826.3049, 17.85412
826.7870, 18.49876
827.2692, 19.24862
827.7513, 19.53667
828.2334, 19.39418
828.7155, 19.33530
829.1976, 19.69158
829.6797, 20.14510
830.1619, 20.28697
830.6440, 20.26194
831.1261, 20.41603
831.6082, 20.78351
832.0903, 21.22672
832.5724, 21.67078
833.0546, 22.12855
833.5367, 22.62101
834.0188, 23.14661
834.5009, 23.74551
834.9830, 24.55027
835.4651, 25.14953
835.9473, 25.13240
836.4294, 25.03978
836.9115, 25.50081
837.3936, 26.49098
837.8757, 27.48827
838.3578, 28.51710
838.8400, 29.41117
839.3221, 30.04638
839.8042, 30.56798
840.2863, 31.08002
840.7684, 31.61816
841.2505, 32.19825
841.7327, 32.81985
842.2148, 33.55853
842.6969, 34.50121
843.1790, 35.63247
843.6611, 37.02702
844.1432, 38.65211
844.6254, 39.96320
845.1075, 40.66754
845.5896, 41.39014
846.0717, 43.06531
846.5538, 45.69190
847.0359, 47.66148
847.5181, 48.55252
848.0002, 49.58521
848.4823, 50.92061
848.9644, 52.55332
849.4465, 54.70206
849.9286, 57.15279
850.4108, 59.20408
850.8929, 60.33327
851.3750, 61.88271
851.8571, 64.56858
852.3392, 67.66946
852.8214, 70.69093
853.3035, 73.64339
853.7856, 76.65703
854.2677, 79.76594
854.7498, 82.89389
855.2319, 85.91161
855.7141, 88.90284
856.1962, 92.18711
856.6783, 95.71187
857.1604, 99.09835
857.6425, 102.2164
858.1246, 105.2837
858.6068, 108.4077
859.0889, 111.6370
859.5710, 115.3152
860.0531, 119.8134
860.5352, 123.8568
861.0173, 127.0413
861.4995, 130.1575
861.9816, 133.7375
862.4637, 137.4417
862.9458, 140.7943
863.4279, 143.7169
863.9100, 146.4509
864.3922, 149.1608
864.8743, 151.5883
865.3564, 153.4265
865.8385, 155.0264
866.3206, 157.0616
866.8027, 159.3368
867.2849, 160.7090
867.7670, 160.3316
868.2491, 159.4189
868.7312, 159.7135
869.2133, 160.7238
869.6954, 161.2870
870.1776, 161.2354
870.6597, 159.8199
871.1418, 156.6150
871.6239, 152.6001
872.1060, 149.0711
872.5881, 146.0331
873.0703, 143.1644
873.5524, 140.7659
874.0345, 137.7766
874.5166, 133.6935
874.9987, 129.2128
875.4808, 124.8354
875.9630, 120.4933
876.4451, 115.9419
876.9272, 111.0403
877.4093, 106.1648
877.8914, 101.3671
878.3735, 96.64254
878.8557, 91.94720
879.3378, 87.29474
879.8199, 82.73775
880.3020, 78.24848
880.7841, 73.60923
881.2662, 68.18647
881.7484, 62.97594
882.2305, 59.55502
882.7126, 57.22771
883.1947, 54.19115
883.6768, 50.24620
884.1589, 46.44547
884.6411, 43.48523
885.1232, 41.04084
885.6053, 38.41210
886.0874, 35.58104
886.5695, 33.57635
887.0516, 32.77759
887.5338, 31.29092
888.0159, 27.97805
888.4980, 24.37588
888.9801, 22.42486
889.4622, 22.11699
889.9443, 21.36627
890.4265, 19.76481
890.9086, 18.29415
891.3907, 17.11067
891.8728, 16.03748
892.3549, 14.95192
892.8370, 13.90160
893.3192, 12.97747
893.8013, 12.18877
894.2834, 11.59261
894.7655, 11.42915
895.2476, 11.24036
895.7297, 10.57124
896.2119, 9.648170
896.6940, 8.896599
897.1761, 8.367870
897.6582, 7.791824
898.1403, 6.966412
898.6224, 6.025780
899.1046, 5.154243
899.5867, 4.388016
900.0688, 3.815861
900.5509, 3.440857
901.0330, 3.229946
901.5151, 3.197182
901.9973, 3.145733
902.4794, 2.743492
902.9615, 1.991310
903.4436, 1.581959
903.9257, 1.655388
904.4078, 1.705582
904.8900, 1.654694
905.3721, 1.511108
905.8542, 1.288544
906.3363, 0.9780960
906.8184, 0.5205040
907.3005, 0.3084870
907.7827, 0.7242240
908.2648, 0.2744220
908.7469, 0.2162780
909.2290, 0.4182780
909.7111, 0.3894580
910.1932, 0.1611860
910.6754, 0.2145540
911.1575, 0.5389370
911.6396, 0.7562290
912.1217, 0.8276790
912.6038, 0.5490000
913.0859, 0.2028350
913.5681, 0.2437100
914.0502, 0.6158870
914.5323, 1.004768
915.0144, 1.269768
915.4965, 1.365242
915.9786, 1.106987
916.4607, 0.6494410
916.9428, 0.6619910
917.4249, 1.100769
917.9070, 1.219772
918.3892, 0.8033330
918.8713, 0.4168010
919.3534, 0.5420490
919.8355, 0.9804990
920.3176, 1.114960
920.7997, 0.8789370
921.2819, 0.5603140
921.7640, 1.5427000E-02
922.2461, 0.3288880
922.7282, 0.2459720
923.2103, 6.0718998E-02
923.6924, 0.4469150
924.1746, 0.9000700
924.6567, 1.052856
925.1388, 0.6836810
925.6209, 0.3012580
926.1030, 4.9068000E-02
926.5851, 0.3421440
927.0673, 0.5605770
927.5494, 0.7078700
928.0315, 0.7521820
928.5136, 0.6819880
928.9957, 0.7272450
929.4778, 1.264698
929.9600, 1.702347
930.4421, 1.380363
930.9242, 0.7304380
931.4063, 0.4539260
931.8884, 0.5817220
932.3705, 0.6957050
932.8527, 0.5544660
933.3348, 0.3556020
933.8169, 0.3106230
934.2990, 0.4181440
934.7811, 0.8136100
935.2632, 1.421127
935.7454, 1.668602
936.2275, 1.363605
936.7096, 0.8263510
937.1917, 0.3127100
937.6738, 8.7058999E-02
938.1559, 0.1082950
938.6381, 1.034489
939.1202, 1.364662
939.6023, 0.7778970
940.0844, 0.2170720
940.5665, 0.1729770
941.0486, 0.4034390
941.5308, 0.5348630
942.0129, 0.5536540
942.4950, 0.6258090
942.9771, 0.8732030
943.4592, 0.9895740
943.9413, 0.9124640
944.4235, 0.7155990
944.9056, 0.3061710
945.3877, 0.1584360
945.8698, 0.3234830
946.3519, 8.3674997E-02
946.8340, 0.1681020
947.3162, 0.2439990
947.7983, 0.4083710
948.2804, 0.9730070
948.7625, 1.584595
949.2446, 1.861477
949.7267, 1.782639
950.2089, 1.473553
950.6910, 0.8987270
951.1731, 0.4130400
951.6552, 0.2678600
952.1373, 0.3837700
952.6194, 0.7781220
953.1016, 1.327953
953.5837, 1.859612
954.0658, 2.277771
954.5479, 2.309574
955.0300, 1.556633
955.5121, 0.6210330
955.9943, 0.7983130
956.4764, 1.772102
956.9585, 2.232071
957.4406, 2.076637
957.9227, 1.944111
958.4048, 2.128399
958.8870, 2.457584
959.3691, 2.749733
959.8512, 2.975899
960.3333, 2.834995
960.8154, 2.256737
961.2975, 1.833202
961.7797, 1.668795
962.2618, 1.679932
962.7439, 1.850098
963.2260, 2.122997
963.7081, 2.384890
964.1902, 2.645386
964.6724, 2.872980
965.1545, 3.197088
965.6366, 3.240055
966.1187, 2.660086
966.6008, 2.074141
967.0829, 1.983526
967.5651, 2.259176
968.0472, 2.507257
968.5293, 2.684921
969.0114, 2.854658
969.4935, 3.154839
969.9756, 3.313015
970.4578, 3.135456
970.9399, 2.833437
971.4220, 2.546385
971.9041, 2.311337
972.3862, 2.248650
972.8683, 2.527555
973.3505, 2.726524
973.8326, 2.435266
974.3147, 2.190460
974.7968, 2.641365
975.2789, 3.356026
975.7610, 3.522305
976.2432, 3.058645
976.7253, 2.601318
977.2074, 2.581514
977.6895, 2.614061
978.1716, 2.178402
978.6537, 2.253399
979.1359, 1.656059
979.6180, 2.151981
980.1001, 2.471302
980.5822, 2.378956
981.0643, 2.251570
981.5464, 2.514656
982.0286, 2.960949
982.5107, 3.161369
982.9928, 3.169680
983.4749, 3.032833
983.9570, 2.771749
984.4391, 2.634632
984.9213, 2.763943
985.4034, 2.892136
985.8855, 2.566639
986.3676, 1.876497
986.8497, 1.653765
987.3318, 1.939514
987.8140, 2.211884
988.2961, 2.371380
988.7782, 2.537163
989.2603, 2.816282
989.7424, 3.107109
990.2245, 3.141336
990.7067, 2.856518
991.1888, 2.797558
991.6709, 3.182167
992.1530, 3.250433
992.6351, 2.557741
993.1172, 1.913538
993.5994, 2.011948
994.0815, 2.612337
994.5636, 2.965368
995.0457, 2.941740
995.5278, 2.994066
996.0099, 3.352064
996.4921, 3.585175
996.9742, 3.361504
997.4563, 3.084648
997.9384, 3.210730
998.4205, 3.598644
998.9026, 3.646122
999.3848, 3.099981
999.8669, 2.652779
1000.349, 2.392141
1000.831, 2.322918
1001.313, 2.708927
1001.795, 3.090332
1002.277, 2.868954
1002.760, 2.133041
1003.242, 1.519964
1003.724, 1.270245
1004.206, 1.165817
1004.688, 1.116875
1005.170, 1.136248
1005.652, 1.276659
1006.134, 1.497152
1006.617, 1.770872
1007.099, 2.041573
1007.581, 2.119793
1008.063, 1.793472
1008.545, 1.530165
1009.027, 1.905554
1009.509, 2.405722
1009.991, 2.425611
1010.473, 2.082565
1010.956, 1.567581
1011.438, 1.012215
1011.920, 0.8321080
1012.402, 1.436216
1012.884, 2.212772
1013.366, 2.488255
1013.848, 2.382706
1014.330, 1.856419
1014.813, 1.108997
1015.295, 0.8462790
1015.777, 1.259251
1016.259, 1.892538
1016.741, 2.437601
1017.223, 2.768097
1017.705, 2.482456
1018.187, 1.792019
1018.669, 1.426081
1019.152, 1.427629
1019.634, 1.685463
1020.116, 2.149296
1020.598, 2.364941
1021.080, 1.660101
1021.562, 0.6071660
1022.044, 1.269289
1022.526, 3.381771
1023.008, 3.888636
1023.491, 2.487738
1023.973, 1.375763
1024.455, 1.476559
1024.937, 2.007086
1025.419, 2.093290
1025.901, 1.812962
1026.383, 1.450706
1026.865, 0.9781110
1027.348, 0.9301510
1027.830, 1.439707
1028.312, 1.874212
1028.794, 1.948519
1029.276, 1.804720
1029.758, 1.574516
1030.240, 1.299976
1030.722, 1.394125
1031.204, 2.041142
1031.687, 2.144222
1032.169, 1.354708
1032.651, 0.7564260
1033.133, 0.9210620
1033.615, 1.398558
1034.097, 1.607784
1034.579, 1.570753
1035.061, 1.632832
1035.544, 1.857100
1036.026, 2.020922
1036.508, 2.140276
1036.990, 2.123482
1037.472, 1.806345
1037.954, 1.480783
1038.436, 1.629812
1038.918, 2.222946
1039.401, 2.335188
1039.883, 1.583490
1040.365, 1.064545
1040.847, 0.8650630
1041.329, 0.8795130
1041.811, 1.236145
1042.293, 1.669044
1042.775, 1.741713
1043.257, 1.470827
1043.740, 1.503836
1044.222, 2.561974
1044.704, 2.806881
1045.186, 1.199734
1045.668, 0.1301120
1046.150, 5.0050002E-03
1046.632, 0.7634560
1047.114, 1.135021
1047.596, 1.119871
1048.079, 1.117283
1048.561, 1.100664
1049.043, 1.190664
1049.525, 1.446951
1050.007, 1.761427
1050.489, 2.199337
1050.971, 2.590008
1051.453, 2.703167
1051.936, 2.554295
1052.418, 2.419359
1052.900, 2.381056
1053.382, 2.293127
1053.864, 2.136713
1054.346, 1.917805
1054.828, 1.490654
1055.310, 1.106503
1055.792, 1.155228
1056.275, 1.563536
1056.757, 1.751507
1057.239, 1.463276
1057.721, 1.232628
1058.203, 1.293110
1058.685, 1.313375
1059.167, 0.9195420
1059.649, 0.5090140
1060.131, 0.6365720
1060.614, 1.214958
1061.096, 1.644386
1061.578, 1.743227
1062.060, 1.754103
1062.542, 1.849827
1063.024, 1.776300
1063.506, 1.025488
1063.988, 0.2982920
1064.471, 0.5434610
1064.953, 1.552639
1065.435, 2.222500
1065.917, 2.230457
1066.399, 1.980013
1066.881, 1.320562
1067.363, 0.8123380
1067.845, 0.9962100
1068.328, 1.344177
1068.810, 1.163055
1069.292, 0.6102260
1069.774, 0.3822610
1070.256, 0.7179260
1070.738, 1.123238
1071.220, 1.589111
1071.702, 1.820414
1072.184, 1.404993
1072.667, 0.8530480
1073.149, 0.7381170
1073.631, 0.9554690
1074.113, 1.075966
1074.595, 0.9749850
1075.077, 0.9021780
1075.559, 1.075274
1076.041, 1.178076
1076.523, 1.037476
1077.006, 0.7384170
1077.488, 9.7588003E-02
1077.970, 0.5556770
1078.452, 0.3923400
1078.934, 0.7882180
1079.416, 1.610292
1079.898, 1.300249
1080.380, 0.7432610
1080.862, 8.6273000E-02
1081.345, 0.3313880
1081.827, 1.4635000E-02
1082.309, 0.6925050
1082.791, 1.171703
1083.273, 1.299730
1083.755, 1.235970
1084.237, 0.9201470
1084.719, 0.6070460
1085.202, 0.3109930
1085.684, 0.1901340
1086.166, 0.5744090
1086.648, 1.111513
1087.130, 1.193230
1087.612, 0.7993950
1088.094, 0.5234810
1088.576, 0.6070100
1089.058, 0.7994480
1089.541, 1.055649
1090.023, 1.317118
1090.505, 1.589718
1090.987, 1.812532
1091.469, 1.947975
1091.951, 1.963800
1092.433, 1.736736
1092.915, 1.092167
1093.397, 0.6078850
1093.880, 0.6606860
1094.362, 0.7670460
1094.844, 0.5369340
1095.326, 0.2920510
1095.808, 0.5319040
1096.290, 1.066383
1096.772, 1.274921
1097.254, 0.9418950
1097.737, 0.6134720
1098.219, 0.5216460
1098.701, 0.4178490
1099.183, 6.9191001E-02
1099.665, 0.2240090
1100.147, 9.9734999E-02
1100.629, 0.2770540
1101.111, 0.4457890
1101.594, 0.2987100
1102.076, 0.3868730
1102.558, 1.404833
1103.040, 1.923840
1103.522, 0.7969020
1104.004, 0.2957310
1104.486, 0.1390780
1104.968, 1.245880
1105.450, 1.628611
1105.932, 1.193533
1106.415, 0.9051910
1106.897, 1.221258
1107.379, 1.279900
1107.861, 0.6173570
1108.343, 8.8299997E-04
1108.825, 0.1456830
1109.307, 4.7796000E-02
1109.789, 6.0375001E-02
1110.272, 0.1519640
1110.754, 0.1519570
1111.236, 0.1915340
1111.718, 0.1407990
1112.200, 0.8492470
1112.682, 1.629185
1113.164, 1.830437
1113.646, 1.635092
1114.129, 0.8880520
1114.611, 0.1072040
1115.093, 0.2815670
1115.575, 0.7627200
1116.057, 1.425894
1116.539, 1.622780
1117.021, 1.557062
1117.503, 0.9148450
1117.985, 0.4463120
1118.468, 0.8451020
1118.950, 1.626562
1119.432, 1.874058
1119.914, 1.553644
1120.396, 1.074375
1120.878, 0.1161790
1121.360, 0.2795770
1121.842, 0.3017940
1122.324, 0.9221630
1122.807, 1.144920
1123.289, 1.145777
1123.771, 1.125076
1124.253, 1.087538
1124.735, 1.067533
1125.217, 1.052261
1125.699, 1.105381
1126.181, 1.249657
1126.664, 1.418751
1127.146, 1.638617
1127.628, 1.742147
1128.110, 1.556557
1128.592, 1.161139
1129.074, 0.7332570
1129.556, 0.2374000
1130.038, 0.1731380
1130.521, 0.6219960
1131.003, 0.9183040
1131.485, 0.9003580
1131.967, 0.7791560
1132.449, 0.6773190
1132.931, 0.5969090
1133.413, 0.5282360
1133.895, 0.4847870
1134.377, 0.6453670
1134.859, 0.9936680
1135.342, 0.8613380
1135.824, 0.1549590
1136.306, 0.1884960
1136.788, 0.2404100
1137.270, 0.8717820
1137.752, 1.146303
1138.234, 1.126757
1138.716, 0.8469010
1139.199, 0.4081290
1139.681, 0.3358650
1140.163, 0.5767360
1140.645, 0.5719760
1141.127, 0.2043360
1141.609, 7.2610997E-02
1142.091, 6.2968999E-02
1142.573, 0.3692530
1143.056, 0.5257170
1143.538, 0.5989490
1144.020, 0.7250880
1144.502, 0.8821910
1144.984, 1.038321
1145.466, 1.163113
1145.948, 1.133429
1146.430, 0.9030550
1146.912, 0.7367710
1147.395, 0.9599760
1147.877, 1.260017
1148.359, 1.273979
1148.841, 1.147396
1149.323, 1.084080
1149.805, 1.059177
1150.287, 0.9125630
1150.769, 0.6513560
1151.251, 0.5972040
1151.734, 1.090099
1152.216, 1.391171
1152.698, 0.6253150
1153.180, 0.1327720
1153.662, 0.2181170
1154.144, 0.9827180
1154.626, 1.273951
1155.108, 1.067778
1155.591, 0.6449580
1156.073, 1.0099000E-02
1156.555, 0.3780100
1157.037, 0.3717350
1157.519, 7.7125996E-02
1158.001, 0.8734210
1158.483, 1.712954
1158.965, 1.706217
1159.448, 1.258759
1159.930, 1.200790
1160.412, 1.584455
1160.894, 1.456743
1161.376, 3.3110001E-03
1161.858, 0.8538090
1162.340, 0.5719620
1162.822, 7.2447002E-02
1163.304, 0.5431750
1163.786, 1.011356
1164.269, 0.9761660
1164.751, 0.6026500
1165.233, 0.4295160
1165.715, 0.4736980
1166.197, 0.7017770
1166.679, 1.288885
1167.161, 1.458555
1167.643, 0.9082510
1168.126, 0.4251350
1168.608, 0.5005650
1169.090, 0.8341180
1169.572, 0.9931760
1170.054, 1.019478
1170.536, 1.235270
1171.018, 1.659781
1171.500, 1.816521
1171.983, 1.658447
1172.465, 1.431398
1172.947, 1.213720
1173.429, 1.087761
1173.911, 1.114517
1174.393, 1.149961
1174.875, 0.7623940
1175.357, 1.044516
1175.839, 0.3891300
1176.322, 1.175385
1176.804, 1.474363
1177.286, 1.186419
1177.768, 0.9167100
1178.250, 0.9423160
1178.732, 1.073103
1179.214, 1.176691
1179.696, 1.219736
1180.178, 1.048546
1180.661, 0.7902530
1181.143, 0.5679970
1181.625, 0.4518450
1182.107, 0.6668090
1182.589, 1.149805
1183.071, 1.384790
1183.553, 1.050631
1184.035, 0.6458870
1184.518, 0.3578490
1185.000, 0.2476880
1185.482, 0.4234980
1185.964, 0.7459720
1186.446, 1.200991
1186.928, 1.640314
1187.410, 1.704462
1187.892, 1.322533
1188.375, 1.155607
1188.857, 1.735905
1189.339, 1.974546
1189.821, 1.263340
1190.303, 0.6181890
1190.785, 0.6787530
1191.267, 0.9303190
1191.749, 0.7472270
1192.231, 0.2797430
1192.714, 0.1160320
1193.196, 0.3227020
1193.678, 0.6066090
1194.160, 1.096346
1194.642, 1.271484
1195.124, 0.9221780
1195.606, 0.4795970
1196.088, 0.1323760
1196.570, 1.1820000E-02
1197.053, 0.2336560
1197.535, 0.7846510
1198.017, 1.284538
1198.499, 1.732906
1198.981, 1.826658
1199.463, 1.554087
1199.945, 1.369555
1200.427, 1.390602
1200.910, 1.394560
1201.392, 1.220993
1201.874, 1.015181
1202.356, 0.9456160
1202.838, 1.015923
1203.320, 1.413298
1203.802, 1.886446
1204.284, 1.771778
1204.766, 1.178633
1205.249, 0.6074870
1205.731, 0.2594050
1206.213, 0.3502200
1206.695, 1.282465
1207.177, 2.044392
1207.659, 1.621078
1208.141, 0.9338360
1208.623, 0.6761000
1209.105, 0.7274800
1209.588, 0.9842620
1210.070, 1.341801
1210.552, 1.597383
1211.034, 1.691229
1211.516, 1.750656
1211.998, 1.920237
1212.480, 1.856979
1212.962, 1.168320
1213.445, 0.5893590
1213.927, 0.6760640
1214.409, 0.8999940
1214.891, 0.6641600
1215.373, 0.7175480
1215.855, 0.7318650
1216.337, 0.5076390
1216.819, 0.6940230
1217.302, 0.4968990
1217.784, 0.4268300
1218.266, 0.6133650
1218.748, 0.8382910
1219.230, 1.002398
1219.712, 0.9547040
1220.194, 0.5769290
1220.676, 5.0528999E-02
1221.158, 7.8805998E-02
1221.641, 0.1032200
1222.123, 0.3597410
1222.605, 0.6143250
1223.087, 0.4140380
1223.569, 0.2230220
1224.051, 0.3630080
1224.533, 0.5437490
1225.015, 1.530634
1225.497, 1.531288
1225.980, 1.176287
1226.462, 1.193663
1226.944, 1.314505
1227.426, 1.091412
1227.908, 0.7144530
1228.390, 0.6814920
1228.872, 1.011703
1229.354, 1.197815
1229.837, 0.9535050
1230.319, 0.8843330
1230.801, 1.628376
1231.283, 2.023865
1231.765, 1.153786
1232.247, 0.1621440
1232.729, 9.5798001E-02
1233.211, 0.1710680
1233.693, 0.6435780
1234.176, 1.300644
1234.658, 1.485001
1235.140, 1.006235
1235.622, 0.6017150
1236.104, 0.2354700
1236.586, 0.2541940
1237.068, 0.8754220
1237.550, 1.330748
1238.032, 1.026138
1238.515, 0.3952620
1238.997, 0.1549660
1239.479, 0.2081640
1239.961, 8.4657997E-02
1240.443, 0.1067920
1240.925, 0.2472760
1241.407, 1.035463
1241.889, 1.519554
1242.372, 1.516018
1242.854, 1.187263
1243.336, 0.5519180
1243.818, 0.1801240
1244.300, 0.9609240
1244.782, 1.886717
1245.264, 1.913664
1245.746, 1.559835
1246.229, 1.431799
1246.711, 1.463726
1247.193, 1.374580
1247.675, 1.132889
1248.157, 0.9425140
1248.639, 0.8739470
1249.121, 0.8177510
1249.603, 0.7901520
1250.085, 0.7221930
1250.568, 0.5141910
1251.050, 0.3582250
1251.532, 0.3822480
1252.014, 0.5366330
1252.496, 0.7620720
1252.978, 1.043610
1253.460, 1.238642
1253.942, 1.347563
1254.424, 1.177887
1254.907, 0.6927280
1255.389, 0.1817230
1255.871, 0.1008660
1256.353, 0.1070690
1256.835, 0.2578740
1257.317, 0.7350290
1257.799, 1.070395
1258.281, 1.221697
1258.764, 1.006104
1259.246, 0.6148090
1259.728, 0.2962780
1260.210, 0.1419070
1260.692, 0.2530100
1261.174, 0.5783880
1261.656, 0.8187290
1262.138, 0.8568420
1262.620, 0.7964250
1263.103, 0.5610200
1263.585, 0.3832020
1264.067, 0.4265060
1264.549, 0.5806520
1265.031, 0.9292830
1265.513, 1.250435
1265.995, 1.166367
1266.477, 0.7786270
1266.959, 0.6359330
1267.442, 0.8262770
1267.924, 0.8849240
1268.406, 0.7731570
1268.888, 0.7172370
1269.370, 0.7693500
1269.852, 0.7851730
1270.334, 0.6832560
1270.816, 0.6350630
1271.299, 0.8350660
1271.781, 1.121773
1272.263, 1.195301
1272.745, 1.058727
1273.227, 0.6098380
1273.709, 6.6390999E-02
1274.191, 4.2530000E-03
1274.673, 0.3526780
1275.156, 0.6708580
1275.638, 0.7982330
1276.120, 0.9626640
1276.602, 1.505573
1277.084, 1.731474
1277.566, 0.9471910
1278.048, 0.1578290
1278.530, 0.1445900
1279.012, 6.1889999E-02
1279.495, 0.6080300
1279.977, 1.456537
1280.459, 1.484711
1280.941, 0.6728060
1281.423, 0.1980720
1281.905, 8.8088997E-02
1282.387, 0.2903500
1282.869, 0.6847150
1283.351, 1.151752
1283.834, 1.386925
1284.316, 1.584373
1284.798, 1.933659
1285.280, 2.027918
1285.762, 1.360558
1286.244, 0.0000000E+00
##END=



