##NAMES=Conichalcite
##RRUFFID=R050028
##IDEAL CHEMISTRY=CaCu^2+^As^5+^O_4_(OH)
##LOCALITY=Mapimi, Durango, Mexico
##OWNER=RRUFF
##SOURCE=Eugene Schlepp
##DESCRIPTION=Green botryoidal groups covering adamite
##STATUS=The identification of this mineral has been confirmed by X-ray diffraction and chemical analysis
##URL=rruff.info/R050028
##MEASURED CHEMISTRY=Ca_1.00_(Cu_0.70_Zn_0.30_)_Î£=1_(As_1.00_O_4_)(OH)
134.0366, 0.0000000E+00
134.5187, 3.244751
135.0008, 5.601212
135.4829, 7.013824
135.9650, 4.931976
136.4471, 6.727829
136.9293, 4.243896
137.4114, 2.399109
137.8935, 0.1925050
138.3756, 2.694855
138.8577, 2.768250
139.3398, 1.748505
139.8220, 10.93297
140.3041, 16.30519
140.7862, 15.01056
141.2683, 13.55856
141.7504, 13.00076
142.2325, 14.26462
142.7147, 19.98383
143.1968, 33.36504
143.6789, 54.47092
144.1610, 69.40591
144.6431, 74.14627
145.1252, 76.84894
145.6074, 82.53658
146.0895, 90.95055
146.5716, 98.15120
147.0537, 100.1917
147.5358, 97.11096
148.0179, 98.58278
148.5001, 106.6575
148.9822, 117.6325
149.4643, 130.8491
149.9464, 145.9556
150.4285, 158.1826
150.9106, 162.8463
151.3928, 160.3032
151.8749, 158.5240
152.3570, 157.1991
152.8391, 157.2586
153.3212, 160.1913
153.8033, 166.1737
154.2855, 172.5980
154.7676, 177.6783
155.2497, 181.5336
155.7318, 184.6098
156.2139, 185.2529
156.6960, 185.9908
157.1782, 190.5077
157.6603, 199.5158
158.1424, 208.5550
158.6245, 214.0758
159.1066, 216.9352
159.5887, 218.7837
160.0709, 218.4029
160.5530, 217.8304
161.0351, 221.0582
161.5172, 229.4187
161.9993, 236.6343
162.4814, 237.0495
162.9636, 233.1604
163.4457, 228.9868
163.9278, 225.9891
164.4099, 223.4772
164.8920, 219.3772
165.3741, 212.1453
165.8563, 207.7854
166.3384, 213.3190
166.8205, 223.8959
167.3026, 231.3529
167.7847, 231.8791
168.2668, 227.3878
168.7490, 220.8556
169.2311, 209.8270
169.7132, 202.5338
170.1953, 206.6539
170.6774, 216.5550
171.1595, 223.3509
171.6417, 221.5399
172.1238, 214.6247
172.6059, 211.7449
173.0880, 215.1176
173.5701, 218.1374
174.0522, 217.4040
174.5344, 214.5941
175.0165, 211.9532
175.4986, 210.2961
175.9807, 209.6713
176.4628, 210.2582
176.9449, 212.2844
177.4271, 215.2411
177.9092, 220.8821
178.3913, 226.7460
178.8734, 228.9935
179.3555, 224.6715
179.8376, 216.5601
180.3197, 213.2664
180.8019, 218.0410
181.2840, 222.0069
181.7661, 222.5692
182.2482, 220.7974
182.7303, 217.8639
183.2124, 214.2248
183.6946, 209.9662
184.1767, 205.0325
184.6588, 198.0002
185.1409, 192.9926
185.6230, 192.3592
186.1051, 193.5533
186.5873, 193.7294
187.0694, 191.9563
187.5515, 189.9069
188.0336, 186.8535
188.5157, 180.4970
188.9978, 176.5086
189.4800, 176.1127
189.9621, 178.3364
190.4442, 182.0125
190.9263, 186.4888
191.4084, 193.6458
191.8905, 201.9772
192.3727, 215.5139
192.8548, 224.8921
193.3369, 226.0747
193.8190, 224.1394
194.3011, 223.5986
194.7832, 226.1654
195.2654, 231.1887
195.7475, 237.4224
196.2296, 246.1379
196.7117, 253.7649
197.1938, 259.1250
197.6759, 263.7729
198.1581, 268.4694
198.6402, 273.5781
199.1223, 280.1696
199.6044, 290.9164
200.0865, 309.7577
200.5686, 324.8159
201.0508, 333.7109
201.5329, 340.0676
202.0150, 345.7574
202.4971, 351.5695
202.9792, 358.2280
203.4613, 367.3132
203.9435, 380.7568
204.4256, 392.1835
204.9077, 402.7317
205.3898, 410.6331
205.8719, 413.2229
206.3540, 410.6252
206.8362, 406.8389
207.3183, 408.1051
207.8004, 418.3028
208.2825, 423.4587
208.7646, 421.3287
209.2467, 416.5392
209.7289, 411.1251
210.2110, 405.6286
210.6931, 399.9246
211.1752, 394.1451
211.6573, 388.9644
212.1395, 381.1920
212.6216, 368.6204
213.1037, 355.5833
213.5858, 342.9623
214.0679, 331.5732
214.5500, 323.0935
215.0322, 320.5715
215.5143, 326.0746
215.9964, 323.5387
216.4785, 304.1933
216.9606, 285.0468
217.4427, 272.6545
217.9249, 266.1570
218.4070, 261.2043
218.8891, 254.4371
219.3712, 245.8376
219.8533, 236.0394
220.3354, 221.4789
220.8176, 209.1959
221.2997, 203.0449
221.7818, 200.6749
222.2639, 197.0389
222.7460, 188.2190
223.2281, 174.9252
223.7103, 165.6626
224.1924, 169.5071
224.6745, 167.2846
225.1566, 149.1543
225.6387, 123.6070
226.1208, 103.9457
226.6030, 98.53836
227.0851, 103.2738
227.5672, 100.4889
228.0493, 80.85654
228.5314, 66.15601
229.0135, 63.83304
229.4957, 66.73212
229.9778, 66.18518
230.4599, 58.17856
230.9420, 46.24683
231.4241, 39.33173
231.9062, 41.24789
232.3884, 41.85468
232.8705, 40.23740
233.3526, 36.77740
233.8347, 30.64752
234.3168, 21.78940
234.7989, 13.11362
235.2811, 10.27011
235.7632, 16.60269
236.2453, 20.88126
236.7274, 21.69434
237.2095, 20.79300
237.6916, 19.41891
238.1738, 17.75632
238.6559, 15.01193
239.1380, 9.669159
239.6201, 0.5988770
240.1022, 6.896362
240.5843, 14.48086
241.0665, 18.94962
241.5486, 16.67969
242.0307, 8.767487
242.5128, 0.6653140
242.9949, 2.232361
243.4770, 0.5096440
243.9592, 3.255310
244.4413, 6.598267
244.9234, 9.359924
245.4055, 11.20074
245.8876, 12.11023
246.3697, 11.99393
246.8519, 9.982697
247.3340, 6.614502
247.8161, 7.211700
248.2982, 16.19781
248.7803, 23.25357
249.2624, 25.91187
249.7446, 24.34158
250.2267, 18.23013
250.7088, 5.848969
251.1909, 9.529755
251.6730, 18.23395
252.1551, 17.92969
252.6373, 15.42319
253.1194, 11.14764
253.6015, 6.801971
254.0836, 4.409790
254.5657, 4.886169
255.0478, 6.847351
255.5300, 7.833130
256.0121, 7.189270
256.4942, 8.070435
256.9763, 14.37302
257.4584, 20.82077
257.9406, 22.73279
258.4227, 18.98245
258.9048, 14.48364
259.3869, 15.65863
259.8690, 22.91611
260.3511, 25.86786
260.8333, 16.16083
261.3154, 7.388458
261.7975, 11.85782
262.2796, 28.98758
262.7617, 44.42352
263.2438, 44.86548
263.7260, 33.49149
264.2081, 29.51123
264.6902, 38.52277
265.1723, 49.69565
265.6544, 55.14539
266.1365, 56.14014
266.6187, 56.60510
267.1008, 56.83481
267.5829, 58.06570
268.0650, 64.67853
268.5471, 79.31107
269.0292, 90.99454
269.5114, 86.83633
269.9935, 74.88660
270.4756, 69.04669
270.9577, 76.55521
271.4398, 88.62973
271.9219, 95.95709
272.4041, 98.45993
272.8862, 98.75406
273.3683, 96.71323
273.8504, 93.88367
274.3325, 93.70477
274.8146, 98.97168
275.2968, 102.0776
275.7789, 94.84201
276.2610, 80.22586
276.7431, 70.79303
277.2252, 72.18201
277.7073, 79.20132
278.1895, 83.94434
278.6716, 86.92642
279.1537, 86.53146
279.6358, 79.44934
280.1179, 69.19482
280.6000, 62.01584
281.0822, 59.46420
281.5643, 58.84283
282.0464, 57.26260
282.5285, 54.68958
283.0106, 51.67456
283.4927, 45.21875
283.9749, 40.28864
284.4570, 44.16116
284.9391, 56.42569
285.4212, 66.18207
285.9033, 63.59164
286.3854, 48.79599
286.8676, 38.93671
287.3497, 36.77655
287.8318, 36.35092
288.3139, 35.01776
288.7960, 33.08389
289.2781, 32.20444
289.7603, 33.68088
290.2424, 36.27237
290.7245, 34.57675
291.2066, 22.76883
291.6887, 14.15378
292.1708, 12.63943
292.6530, 14.71829
293.1351, 16.41434
293.6172, 16.29416
294.0993, 14.66974
294.5814, 11.75549
295.0635, 4.110352
295.5457, 2.148743
296.0278, 9.559875
296.5099, 19.52734
296.9920, 27.51523
297.4741, 32.92947
297.9562, 37.29980
298.4384, 42.87128
298.9205, 50.53839
299.4026, 54.67334
299.8847, 50.80835
300.3668, 48.54242
300.8489, 51.09158
301.3311, 57.42111
301.8131, 65.22433
302.2953, 73.31656
302.7774, 81.32855
303.2595, 86.83679
303.7416, 85.22321
304.2237, 88.37970
304.7058, 99.43533
305.1880, 115.7984
305.6701, 135.6335
306.1522, 158.0574
306.6343, 180.1275
307.1164, 196.0556
307.5985, 203.5378
308.0807, 214.5678
308.5628, 233.9184
309.0449, 255.8235
309.5270, 276.8101
310.0091, 296.6620
310.4912, 316.8452
310.9734, 338.2154
311.4555, 360.8682
311.9376, 385.6732
312.4197, 413.5147
312.9018, 442.3195
313.3839, 471.4544
313.8661, 500.5761
314.3482, 528.3515
314.8303, 552.2706
315.3124, 575.3383
315.7945, 603.5021
316.2766, 637.4968
316.7588, 672.0275
317.2409, 703.2511
317.7230, 733.3217
318.2051, 766.0741
318.6872, 803.6314
319.1693, 840.6317
319.6515, 874.6109
320.1336, 904.9010
320.6157, 928.4156
321.0978, 942.3824
321.5799, 951.4900
322.0620, 964.9933
322.5442, 985.0215
323.0263, 996.9636
323.5084, 992.9056
323.9905, 980.1082
324.4726, 968.8596
324.9547, 960.8076
325.4369, 948.9986
325.9190, 925.5432
326.4011, 888.9795
326.8832, 856.7985
327.3653, 830.9137
327.8474, 807.6396
328.3296, 786.3966
328.8117, 765.8610
329.2938, 743.3127
329.7759, 717.3904
330.2580, 688.5467
330.7401, 657.1415
331.2223, 618.1187
331.7044, 583.2453
332.1865, 552.9521
332.6686, 527.2772
333.1507, 506.0951
333.6328, 489.4370
334.1150, 477.6937
334.5971, 473.3418
335.0792, 484.6782
335.5613, 480.0345
336.0434, 444.0057
336.5255, 407.7609
337.0077, 388.7169
337.4898, 384.5689
337.9719, 382.4264
338.4540, 372.1586
338.9361, 354.7939
339.4182, 339.8379
339.9004, 328.8250
340.3825, 318.4589
340.8646, 307.1451
341.3467, 296.0101
341.8288, 286.3441
342.3109, 278.6161
342.7931, 272.8652
343.2752, 269.7746
343.7573, 269.7772
344.2394, 268.3840
344.7215, 264.1087
345.2036, 258.4817
345.6858, 252.4418
346.1679, 246.0500
346.6500, 239.5497
347.1321, 232.7078
347.6142, 225.9381
348.0963, 219.7672
348.5785, 213.2041
349.0606, 209.2659
349.5427, 213.4158
350.0248, 222.7170
350.5069, 228.3239
350.9890, 224.9136
351.4712, 220.2640
351.9533, 222.4562
352.4354, 229.8472
352.9175, 233.0543
353.3996, 226.2899
353.8817, 214.2026
354.3639, 209.5021
354.8460, 215.2567
355.3281, 220.1296
355.8102, 221.6874
356.2923, 221.0283
356.7744, 218.7858
357.2566, 215.2512
357.7387, 212.0003
358.2208, 211.3780
358.7029, 214.8531
359.1850, 212.1814
359.6671, 196.4783
360.1493, 182.4095
360.6314, 179.0099
361.1135, 182.3162
361.5956, 182.7107
362.0777, 174.2249
362.5598, 159.6475
363.0420, 149.3704
363.5241, 147.7400
364.0062, 143.4506
364.4883, 132.0250
364.9704, 119.6486
365.4525, 111.0575
365.9347, 107.4331
366.4168, 107.4846
366.8989, 111.9181
367.3810, 121.3921
367.8631, 124.2395
368.3452, 114.6756
368.8274, 104.6304
369.3095, 100.9767
369.7916, 101.5499
370.2737, 101.0332
370.7558, 96.94470
371.2379, 90.34192
371.7201, 81.03964
372.2022, 68.17642
372.6843, 61.49875
373.1664, 70.28745
373.6485, 84.60089
374.1306, 88.67111
374.6128, 79.37213
375.0949, 69.44217
375.5770, 68.29095
376.0591, 70.72955
376.5412, 64.20078
377.0233, 45.00946
377.5055, 25.89154
377.9876, 21.31848
378.4697, 33.26941
378.9518, 38.44598
379.4339, 30.01273
379.9160, 20.64740
380.3982, 19.00702
380.8803, 22.84482
381.3624, 24.63251
381.8445, 20.03064
382.3266, 11.54126
382.8087, 6.715088
383.2909, 10.66553
383.7730, 11.70178
384.2551, 7.860321
384.7372, 2.176971
385.2193, 4.731018
385.7014, 11.69766
386.1836, 14.84720
386.6657, 8.114624
387.1478, 9.475281
387.6299, 17.56570
388.1120, 8.203796
388.5941, 1.957581
389.0763, 8.394745
389.5584, 11.82773
390.0405, 13.48981
390.5226, 13.72348
391.0047, 13.05579
391.4868, 12.33688
391.9690, 11.61542
392.4511, 10.28720
392.9332, 7.185394
393.4153, 4.365906
393.8974, 4.155823
394.3795, 6.535706
394.8617, 8.521851
395.3438, 8.534698
395.8259, 7.268036
396.3080, 5.515228
396.7901, 3.281830
397.2722, 1.720612
397.7544, 1.976959
398.2365, 3.617920
398.7186, 4.217407
399.2007, 2.578522
399.6828, 1.253723
400.1649, 1.998901
400.6471, 3.529449
401.1292, 3.411438
401.6113, 0.8325810
402.0934, 2.542267
402.5755, 4.251678
403.0576, 3.659241
403.5398, 3.229858
404.0219, 3.367737
404.5040, 3.267517
404.9861, 0.3432920
405.4682, 3.226166
405.9503, 1.906769
406.4325, 8.385986
406.9146, 24.79941
407.3967, 37.31711
407.8788, 45.59634
408.3609, 50.42087
408.8430, 48.77060
409.3252, 46.14145
409.8073, 47.26215
410.2894, 52.69977
410.7715, 58.77640
411.2536, 61.82877
411.7357, 62.64221
412.2179, 65.00485
412.7000, 68.95532
413.1821, 74.93768
413.6642, 85.79172
414.1463, 98.75705
414.6284, 107.6599
415.1106, 107.9140
415.5927, 108.0897
416.0748, 114.4414
416.5569, 125.8285
417.0390, 139.8047
417.5211, 156.4009
418.0033, 171.8831
418.4854, 179.6743
418.9675, 175.8745
419.4496, 177.7925
419.9317, 190.8789
420.4138, 205.8339
420.8960, 216.8194
421.3781, 224.0733
421.8602, 230.2869
422.3423, 237.1862
422.8244, 244.5298
423.3065, 251.1832
423.7887, 256.0604
424.2708, 262.0119
424.7529, 268.5528
425.2350, 276.6844
425.7171, 288.9260
426.1992, 304.7590
426.6814, 318.7508
427.1635, 323.8113
427.6456, 321.0347
428.1277, 323.5364
428.6098, 333.7031
429.0919, 344.5991
429.5741, 354.0751
430.0562, 361.6664
430.5383, 366.1212
431.0204, 366.2967
431.5025, 365.1343
431.9846, 364.8939
432.4668, 365.3077
432.9489, 365.4670
433.4310, 365.1799
433.9131, 364.5080
434.3952, 364.1932
434.8773, 364.5622
435.3595, 360.6209
435.8416, 344.5470
436.3237, 330.9026
436.8058, 332.9076
437.2879, 344.7683
437.7701, 350.7062
438.2522, 342.3987
438.7343, 324.8756
439.2164, 310.8337
439.6985, 302.1136
440.1806, 293.8343
440.6628, 286.7964
441.1449, 279.2798
441.6270, 269.8202
442.1091, 258.7322
442.5912, 247.2792
443.0733, 235.2859
443.5555, 223.6432
444.0376, 216.5326
444.5197, 215.3549
445.0018, 217.1809
445.4839, 223.7344
445.9660, 230.4000
446.4482, 231.6796
446.9303, 226.1519
447.4124, 220.0349
447.8945, 215.9000
448.3766, 214.2246
448.8587, 216.5219
449.3409, 223.1920
449.8230, 231.3608
450.3051, 239.7194
450.7872, 247.9582
451.2693, 252.8878
451.7514, 249.7468
452.2336, 248.6124
452.7157, 256.5303
453.1978, 267.2838
453.6799, 270.4893
454.1620, 263.6751
454.6441, 255.1758
455.1263, 256.2346
455.6084, 268.9716
456.0905, 278.4512
456.5726, 284.6030
457.0547, 287.4700
457.5368, 284.5499
458.0190, 278.6984
458.5011, 273.8350
458.9832, 271.3531
459.4653, 272.4977
459.9474, 280.1794
460.4295, 294.3630
460.9117, 307.5926
461.3938, 319.1359
461.8759, 328.3251
462.3580, 334.2680
462.8401, 337.3232
463.3222, 339.2277
463.8044, 339.0884
464.2865, 339.7098
464.7686, 344.9237
465.2507, 353.2349
465.7328, 358.7159
466.2149, 358.7326
466.6971, 354.7520
467.1792, 349.2836
467.6613, 339.6991
468.1434, 334.4563
468.6255, 340.0284
469.1076, 344.2579
469.5898, 336.4169
470.0719, 320.2885
470.5540, 308.2427
471.0361, 308.5766
471.5182, 316.7607
472.0003, 319.4736
472.4825, 314.9800
472.9646, 309.6897
473.4467, 307.3008
473.9288, 302.7234
474.4109, 289.1302
474.8930, 267.9086
475.3752, 252.0670
475.8573, 254.6106
476.3394, 265.0807
476.8215, 264.7357
477.3036, 253.0673
477.7857, 240.3698
478.2679, 231.0279
478.7500, 224.5226
479.2321, 220.1893
479.7142, 220.1426
480.1963, 216.8875
480.6784, 206.6255
481.1606, 194.1432
481.6427, 181.7273
482.1248, 170.8657
482.6069, 166.0869
483.0890, 171.5369
483.5711, 184.0916
484.0533, 187.8517
484.5354, 178.8558
485.0175, 167.2396
485.4996, 148.5403
485.9817, 132.1516
486.4638, 128.5816
486.9460, 137.2590
487.4281, 144.8978
487.9102, 138.7924
488.3923, 123.8868
488.8744, 115.4192
489.3565, 114.1549
489.8387, 113.7839
490.3208, 111.9911
490.8029, 108.9623
491.2850, 105.2613
491.7671, 101.1593
492.2492, 95.47348
492.7314, 86.68094
493.2135, 77.09259
493.6956, 68.96021
494.1777, 61.74597
494.6598, 54.38321
495.1419, 46.51068
495.6241, 38.65317
496.1062, 33.80566
496.5883, 34.08640
497.0704, 35.04700
497.5525, 37.90976
498.0346, 39.55429
498.5168, 36.62415
498.9989, 29.45425
499.4810, 22.13104
499.9631, 17.32361
500.4452, 14.89349
500.9273, 15.58325
501.4095, 20.58319
501.8916, 24.37631
502.3737, 23.71707
502.8558, 20.36414
503.3379, 17.44046
503.8200, 15.09595
504.3022, 12.99741
504.7843, 9.903870
505.2664, 7.735077
505.7485, 9.608704
506.2306, 14.99371
506.7127, 20.03104
507.1949, 22.08270
507.6770, 21.80130
508.1591, 22.03403
508.6412, 24.21851
509.1233, 24.75046
509.6054, 21.90652
510.0876, 18.60825
510.5697, 17.17603
511.0518, 17.51593
511.5339, 17.86081
512.0161, 16.52850
512.4982, 14.42365
512.9803, 13.82492
513.4624, 14.69427
513.9445, 17.71887
514.4266, 25.78421
514.9088, 33.78699
515.3909, 34.43698
515.8730, 27.12518
516.3551, 20.82019
516.8372, 17.83688
517.3193, 17.32834
517.8015, 20.35269
518.2836, 25.49933
518.7657, 27.19904
519.2478, 22.03491
519.7299, 13.73111
520.2120, 11.29495
520.6942, 17.89069
521.1763, 24.54199
521.6584, 33.37268
522.1405, 40.23538
522.6226, 41.88211
523.1047, 39.74557
523.5869, 37.25580
524.0690, 35.76181
524.5511, 35.75818
525.0332, 39.44431
525.5153, 46.77585
525.9974, 50.39288
526.4796, 47.47543
526.9617, 42.09177
527.4438, 37.81424
527.9259, 34.58264
528.4080, 32.74039
528.8901, 34.40106
529.3723, 35.42218
529.8544, 32.09457
530.3365, 26.59293
530.8186, 23.27707
531.3007, 23.60187
531.7828, 25.90820
532.2650, 28.41730
532.7471, 31.76062
533.2292, 31.33691
533.7113, 21.92096
534.1934, 14.70932
534.6755, 15.01743
535.1577, 18.94467
535.6398, 20.88892
536.1219, 19.28647
536.6040, 15.91748
537.0861, 11.34845
537.5682, 6.286743
538.0504, 3.559296
538.5325, 3.856750
539.0146, 3.757965
539.4967, 0.2679140
539.9788, 5.593933
540.4609, 8.601257
540.9431, 7.093597
541.4252, 5.346069
541.9073, 4.778503
542.3894, 3.964630
542.8715, 0.6013180
543.3536, 4.854462
543.8358, 9.083557
544.3179, 9.361328
544.8000, 6.443848
545.2821, 3.059570
545.7642, 1.648621
546.2463, 4.447510
546.7285, 2.832581
547.2106, 0.1593930
547.6927, 0.4610600
548.1748, 0.7573550
548.6569, 0.3478700
549.1390, 7.598419
549.6211, 15.10461
550.1032, 9.984650
550.5853, 4.437195
551.0674, 12.61508
551.5496, 7.826019
552.0317, 3.185486
552.5138, 9.880920
552.9959, 11.90826
553.4780, 10.60574
553.9601, 2.344696
554.4423, 4.835449
554.9244, 7.093842
555.4065, 6.341827
555.8886, 5.771393
556.3707, 6.531677
556.8528, 7.523590
557.3350, 7.101624
557.8171, 5.490417
558.2992, 5.263397
558.7813, 7.560822
559.2634, 8.304901
559.7455, 3.416779
560.2277, 4.959808
560.7098, 9.858521
561.1919, 10.25797
561.6740, 8.920593
562.1561, 4.633667
562.6382, 0.3239440
563.1204, 0.5183410
563.6025, 2.059570
564.0846, 5.375519
564.5667, 7.471008
565.0488, 8.829071
565.5309, 11.58920
566.0131, 16.68213
566.4952, 20.83215
566.9773, 24.91010
567.4594, 26.56628
567.9415, 21.96315
568.4236, 12.86153
568.9058, 7.211685
569.3879, 10.92157
569.8700, 17.21117
570.3521, 19.28314
570.8342, 18.13684
571.3163, 16.88445
571.7985, 16.41959
572.2806, 16.97658
572.7627, 19.22849
573.2448, 23.60284
573.7269, 24.86481
574.2090, 19.07475
574.6912, 15.13324
575.1733, 17.09227
575.6554, 21.08612
576.1375, 22.96791
576.6196, 21.76456
577.1017, 18.90036
577.5839, 14.67732
578.0660, 9.748047
578.5481, 5.870972
579.0302, 2.763779
579.5123, 4.021423
579.9944, 13.84465
580.4766, 26.77440
580.9587, 31.29735
581.4408, 25.29820
581.9229, 21.62219
582.4050, 25.21484
582.8871, 28.77826
583.3693, 25.81822
583.8514, 19.23523
584.3335, 16.20576
584.8156, 19.75151
585.2977, 25.88089
585.7798, 28.28836
586.2620, 26.64168
586.7441, 25.03596
587.2262, 23.43260
587.7083, 22.16908
588.1904, 21.28659
588.6725, 20.92657
589.1547, 21.43622
589.6368, 23.07732
590.1189, 25.00554
590.6010, 29.45901
591.0831, 32.54367
591.5652, 26.11136
592.0474, 11.79862
592.5295, 2.233276
593.0116, 6.465805
593.4937, 19.47673
593.9758, 25.58203
594.4579, 21.65558
594.9401, 18.26855
595.4222, 16.61562
595.9043, 15.31902
596.3864, 12.76422
596.8685, 10.05386
597.3506, 10.31723
597.8328, 15.96979
598.3149, 21.79773
598.7970, 23.62721
599.2791, 22.14015
599.7612, 17.73682
600.2433, 10.48865
600.7255, 5.496857
601.2076, 7.360855
601.6897, 15.01770
602.1718, 20.17717
602.6539, 21.17336
603.1360, 21.79854
603.6182, 23.79019
604.1003, 24.14761
604.5824, 18.04886
605.0645, 7.910980
605.5466, 3.464005
606.0287, 13.29678
606.5109, 27.77217
606.9930, 30.58412
607.4751, 23.44244
607.9572, 21.69969
608.4393, 30.24138
608.9214, 38.67262
609.4036, 36.16179
609.8857, 22.89116
610.3678, 18.05214
610.8499, 29.49066
611.3320, 38.66840
611.8141, 41.62692
612.2963, 39.45560
612.7784, 31.23996
613.2605, 18.92447
613.7426, 9.693741
614.2247, 10.04352
614.7068, 16.27156
615.1890, 19.05928
615.6711, 18.28816
616.1532, 19.62769
616.6353, 26.08780
617.1174, 32.27011
617.5995, 30.72589
618.0817, 21.26088
618.5638, 17.68889
619.0459, 27.30403
619.5280, 35.13815
620.0101, 33.43088
620.4922, 27.46494
620.9744, 24.38847
621.4565, 25.49966
621.9386, 26.62616
622.4207, 23.71716
622.9028, 18.01472
623.3849, 14.16533
623.8671, 12.20596
624.3492, 12.39409
624.8313, 15.62508
625.3134, 19.97276
625.7955, 23.36279
626.2776, 25.85831
626.7598, 27.62782
627.2419, 29.46767
627.7240, 29.89854
628.2061, 27.84773
628.6882, 24.17502
629.1703, 18.58940
629.6525, 11.76697
630.1346, 7.458832
630.6167, 10.10153
631.0988, 18.25620
631.5809, 24.19432
632.0630, 28.12309
632.5452, 29.10782
633.0273, 25.18280
633.5094, 19.72829
633.9915, 15.44623
634.4736, 12.37772
634.9557, 13.16164
635.4379, 23.99364
635.9200, 33.09995
636.4021, 31.97430
636.8842, 25.42899
637.3663, 20.90552
637.8484, 20.36061
638.3306, 21.80722
638.8127, 24.04303
639.2948, 26.58173
639.7769, 25.59232
640.2590, 20.11481
640.7411, 14.19658
641.2233, 6.034271
641.7054, 0.9063110
642.1875, 7.395935
642.6696, 24.23964
643.1517, 33.88895
643.6339, 26.30725
644.1160, 17.52823
644.5981, 16.46075
645.0802, 19.85307
645.5623, 23.12019
646.0444, 24.94688
646.5266, 25.84607
647.0087, 26.83775
647.4908, 28.17055
647.9729, 28.89548
648.4550, 28.85982
648.9371, 28.26834
649.4193, 26.91356
649.9014, 26.10925
650.3835, 27.92393
650.8656, 31.43709
651.3477, 31.23274
651.8298, 23.54427
652.3120, 16.61928
652.7941, 15.31128
653.2762, 17.33902
653.7583, 20.59840
654.2404, 24.33734
654.7225, 27.06662
655.2047, 27.15178
655.6868, 26.02548
656.1689, 28.77217
656.6510, 36.00543
657.1331, 39.58517
657.6152, 37.71451
658.0974, 34.00420
658.5795, 31.44370
659.0616, 29.79633
659.5437, 28.33589
660.0258, 27.06281
660.5079, 25.95827
660.9901, 24.50462
661.4722, 23.73492
661.9543, 25.21164
662.4364, 28.64816
662.9185, 32.10884
663.4006, 34.50104
663.8828, 36.47079
664.3649, 38.29700
664.8470, 39.36082
665.3291, 40.02779
665.8112, 41.37737
666.2933, 41.79536
666.7755, 39.84496
667.2576, 35.71042
667.7397, 30.35075
668.2218, 20.19633
668.7039, 14.86586
669.1860, 19.88933
669.6682, 27.05026
670.1503, 30.58644
670.6324, 30.87892
671.1145, 30.47255
671.5966, 30.30435
672.0787, 29.46533
672.5609, 26.45505
673.0430, 22.00404
673.5251, 19.68631
674.0072, 19.89749
674.4893, 21.31276
674.9714, 23.50731
675.4536, 25.33452
675.9357, 24.73462
676.4178, 19.78741
676.8999, 16.73906
677.3820, 16.74530
677.8641, 17.65163
678.3463, 18.51205
678.8284, 19.39116
679.3105, 21.10481
679.7926, 23.89532
680.2747, 25.56033
680.7568, 22.30676
681.2390, 16.77596
681.7211, 15.85982
682.2032, 19.61424
682.6853, 23.65498
683.1674, 26.32990
683.6495, 27.61923
684.1317, 27.51660
684.6138, 26.01833
685.0959, 23.12025
685.5780, 14.73302
686.0601, 9.860519
686.5422, 13.66078
687.0244, 20.19905
687.5065, 23.73541
687.9886, 23.45291
688.4707, 21.10651
688.9528, 15.41721
689.4349, 9.873337
689.9171, 9.501709
690.3992, 12.59784
690.8813, 13.38831
691.3634, 10.37900
691.8455, 8.486633
692.3276, 13.40855
692.8098, 23.87163
693.2919, 27.87047
693.7740, 22.26785
694.2561, 16.92751
694.7382, 12.48016
695.2203, 9.926743
695.7025, 10.97595
696.1846, 14.65544
696.6667, 17.36453
697.1488, 18.41290
697.6309, 17.99222
698.1130, 14.21481
698.5952, 10.10626
699.0773, 10.54547
699.5594, 14.81747
700.0415, 17.87076
700.5236, 16.26089
701.0057, 12.01089
701.4879, 9.894958
701.9700, 10.09576
702.4521, 7.211670
702.9342, 1.511749
703.4163, 7.177002
703.8984, 1.661499
704.3806, 9.356964
704.8627, 11.47485
705.3448, 0.2687680
705.8269, 6.485016
706.3090, 1.388275
706.7911, 3.818787
707.2733, 0.6594850
707.7554, 8.966309
708.2375, 8.645355
708.7196, 3.486267
709.2017, 14.03271
709.6838, 5.849884
710.1660, 12.52490
710.6481, 17.99991
711.1302, 10.99719
711.6123, 4.336517
712.0944, 2.367981
712.5765, 3.423340
713.0587, 6.365906
713.5408, 11.56445
714.0229, 10.74524
714.5050, 4.987335
714.9871, 14.48618
715.4692, 8.570648
715.9514, 7.0464998E-02
716.4335, 0.2145080
716.9156, 7.869171
717.3977, 11.86920
717.8798, 5.085510
718.3619, 2.935181
718.8441, 3.993347
719.3262, 1.364624
719.8083, 8.1329003E-02
720.2904, 0.6032100
720.7725, 4.122925
721.2546, 11.57700
721.7368, 19.53488
722.2189, 18.41995
722.7010, 6.372864
723.1831, 1.914581
723.6652, 4.805176
724.1473, 4.942230
724.6295, 2.762878
725.1116, 0.8560180
725.5937, 4.284515
726.0758, 7.915741
726.5579, 10.21036
727.0400, 8.743500
727.5222, 7.732391
728.0043, 11.47986
728.4864, 16.78876
728.9685, 17.44324
729.4506, 12.24170
729.9327, 7.333435
730.4149, 9.389709
730.8970, 15.29858
731.3791, 19.18646
731.8612, 20.75385
732.3433, 15.89841
732.8254, 2.323242
733.3076, 10.93622
733.7897, 14.22647
734.2718, 8.271576
734.7539, 3.617157
735.2360, 0.6820070
735.7181, 1.820862
736.2003, 3.548645
736.6824, 9.216583
737.1645, 9.802399
737.6466, 7.683167
738.1287, 10.22876
738.6108, 22.27829
739.0930, 31.99866
739.5751, 30.00089
740.0572, 24.23401
740.5393, 24.23206
741.0214, 29.04462
741.5035, 32.46964
741.9857, 31.56351
742.4678, 29.28537
742.9499, 29.92972
743.4320, 33.15359
743.9141, 35.74576
744.3962, 37.78964
744.8784, 40.36392
745.3605, 43.76099
745.8426, 47.84268
746.3247, 52.41302
746.8068, 57.40903
747.2889, 62.97757
747.7711, 74.08786
748.2532, 79.84644
748.7353, 70.48090
749.2174, 59.81534
749.6995, 61.48865
750.1816, 74.45206
750.6638, 87.82370
751.1459, 96.75925
751.6280, 103.5197
752.1101, 110.8232
752.5922, 117.1456
753.0743, 117.6147
753.5565, 113.1919
754.0386, 112.8292
754.5207, 121.9852
755.0028, 135.6477
755.4849, 144.5516
755.9670, 148.4716
756.4492, 148.8829
756.9313, 144.3040
757.4134, 140.3551
757.8955, 138.6954
758.3776, 139.4393
758.8597, 143.7477
759.3419, 152.0717
759.8240, 158.1846
760.3061, 157.7466
760.7882, 159.0854
761.2703, 167.6937
761.7524, 179.1100
762.2346, 189.2160
762.7167, 196.3041
763.1988, 198.8787
763.6809, 194.2877
764.1630, 189.1041
764.6451, 189.5558
765.1273, 194.1885
765.6094, 201.3885
766.0915, 211.0957
766.5736, 220.9609
767.0557, 228.1492
767.5378, 235.0201
768.0200, 246.9362
768.5021, 266.2282
768.9842, 281.8349
769.4663, 293.1940
769.9484, 300.9683
770.4305, 301.4124
770.9127, 300.8775
771.3948, 309.3876
771.8769, 327.9572
772.3590, 346.4950
772.8411, 361.3676
773.3232, 377.0386
773.8054, 397.7065
774.2875, 418.3453
774.7696, 433.5618
775.2517, 443.0562
775.7338, 449.4564
776.2159, 452.5925
776.6981, 456.1601
777.1802, 464.4667
777.6623, 476.2986
778.1444, 489.7805
778.6265, 504.1373
779.1086, 516.8652
779.5908, 526.3952
780.0729, 535.1815
780.5550, 548.0001
781.0371, 565.1030
781.5192, 578.1593
782.0013, 584.8922
782.4835, 593.8525
782.9656, 609.5054
783.4477, 627.5893
783.9298, 643.1884
784.4119, 656.3482
784.8940, 667.7789
785.3762, 673.9033
785.8583, 682.6193
786.3404, 699.5533
786.8225, 717.2897
787.3046, 727.2362
787.7867, 732.1678
788.2689, 743.6072
788.7510, 768.9167
789.2331, 793.4847
789.7152, 801.0696
790.1973, 802.5507
790.6794, 815.5327
791.1616, 838.9336
791.6437, 864.3282
792.1258, 888.3052
792.6079, 909.7824
793.0900, 926.6827
793.5721, 939.5714
794.0543, 954.5254
794.5364, 972.1548
795.0185, 987.7940
795.5006, 998.9262
795.9827, 1010.349
796.4648, 1028.004
796.9470, 1050.885
797.4291, 1067.472
797.9112, 1070.757
798.3933, 1077.675
798.8754, 1091.795
799.3575, 1106.913
799.8397, 1119.107
800.3218, 1129.822
800.8039, 1142.031
801.2860, 1156.275
801.7681, 1172.579
802.2502, 1190.501
802.7324, 1210.918
803.2145, 1235.254
803.6966, 1262.475
804.1787, 1290.197
804.6608, 1318.132
805.1429, 1349.865
805.6251, 1391.018
806.1072, 1434.417
806.5893, 1460.754
807.0714, 1473.216
807.5535, 1496.162
808.0356, 1534.215
808.5178, 1575.255
808.9999, 1610.838
809.4820, 1645.226
809.9641, 1689.031
810.4462, 1745.492
810.9283, 1800.066
811.4105, 1851.498
811.8926, 1903.310
812.3747, 1950.669
812.8568, 2003.132
813.3389, 2077.184
813.8210, 2172.500
814.3032, 2251.862
814.7853, 2296.378
815.2674, 2340.940
815.7495, 2393.625
816.2316, 2454.353
816.7137, 2527.211
817.1959, 2607.886
817.6780, 2684.000
818.1601, 2749.117
818.6422, 2817.314
819.1243, 2902.503
819.6064, 2997.838
820.0886, 3092.981
820.5707, 3188.679
821.0528, 3286.703
821.5349, 3388.852
822.0170, 3499.568
822.4991, 3624.747
822.9813, 3763.170
823.4634, 3910.198
823.9455, 4067.024
824.4276, 4237.019
824.9097, 4425.438
825.3918, 4612.515
825.8740, 4784.958
826.3561, 4943.426
826.8382, 5088.223
827.3203, 5230.995
827.8024, 5334.514
828.2845, 5414.882
828.7667, 5434.176
829.2488, 5367.429
829.7309, 5240.378
830.2130, 5086.324
830.6951, 4906.966
831.1772, 4673.192
831.6594, 4340.074
832.1415, 3997.475
832.6236, 3677.437
833.1057, 3370.598
833.5878, 3059.656
834.0699, 2749.847
834.5521, 2461.724
835.0342, 2203.275
835.5163, 1974.188
835.9984, 1778.955
836.4805, 1609.358
836.9626, 1452.114
837.4448, 1307.571
837.9269, 1181.757
838.4090, 1076.284
838.8911, 981.2335
839.3732, 885.5276
839.8553, 793.1630
840.3375, 719.4858
840.8196, 665.0425
841.3017, 621.6447
841.7838, 590.1876
842.2659, 557.6929
842.7480, 513.8997
843.2302, 464.4769
843.7123, 423.7657
844.1944, 394.4840
844.6765, 364.7139
845.1586, 329.7480
845.6407, 301.3551
846.1229, 289.3812
846.6050, 281.6354
847.0871, 264.4084
847.5692, 238.7382
848.0513, 219.8504
848.5334, 212.3973
849.0156, 208.3305
849.4977, 210.6546
849.9798, 210.9300
850.4619, 198.0310
850.9440, 178.9046
851.4261, 171.4248
851.9083, 182.0175
852.3904, 188.6071
852.8725, 170.3166
853.3546, 146.1468
853.8367, 135.2315
854.3188, 134.3013
854.8010, 137.3371
855.2831, 141.7487
855.7652, 143.0757
856.2473, 137.3524
856.7294, 128.7435
857.2115, 125.2201
857.6937, 125.3679
858.1758, 121.9961
858.6579, 114.6124
859.1400, 108.7428
859.6221, 106.7672
860.1042, 108.8701
860.5864, 116.8104
861.0685, 130.0504
861.5506, 134.3407
862.0327, 128.2589
862.5148, 118.1171
862.9969, 102.7104
863.4791, 88.21704
863.9612, 78.99670
864.4433, 74.60083
864.9254, 73.80969
865.4075, 79.75943
865.8896, 82.74414
866.3718, 81.27316
866.8539, 78.75797
867.3360, 77.33505
867.8181, 74.88217
868.3002, 67.54855
868.7823, 55.73410
869.2645, 47.28543
869.7466, 49.83698
870.2287, 48.84283
870.7108, 32.43790
871.1929, 15.46805
871.6750, 13.82620
872.1572, 21.93369
872.6393, 24.91373
873.1214, 17.60333
873.6035, 9.167542
874.0856, 7.731262
874.5677, 7.337494
875.0499, 0.8602600
875.5320, 12.52707
876.0141, 17.83319
876.4962, 15.66251
876.9783, 12.45557
877.4604, 12.59012
877.9426, 13.84433
878.4247, 12.27686
878.9068, 8.700409
879.3889, 6.840179
879.8710, 6.835510
880.3531, 4.990234
880.8353, 0.4690250
881.3174, 4.314880
881.7995, 0.9587710
882.2816, 12.83511
882.7637, 14.29260
883.2458, 3.384796
883.7280, 2.272430
884.2101, 0.9398800
884.6922, 7.265411
885.1743, 14.14523
885.6564, 20.43857
886.1385, 23.61063
886.6207, 23.21335
887.1028, 21.59351
887.5849, 17.85132
888.0670, 14.16473
888.5491, 11.35678
889.0313, 9.037659
889.5134, 6.302032
889.9955, 3.467865
890.4776, 2.254364
890.9597, 4.529724
891.4418, 5.270477
891.9240, 2.967285
892.4061, 0.3842470
892.8882, 5.325684
893.3703, 9.343994
893.8524, 8.977661
894.3345, 4.127747
894.8167, 1.031189
895.2988, 6.077179
895.7809, 9.503235
896.2630, 10.98810
896.7451, 10.12268
897.2272, 4.168640
897.7094, 4.140991
898.1915, 7.678131
898.6736, 3.846893
899.1557, 0.5322880
899.6378, 0.4012450
900.1199, 2.505432
900.6021, 7.738403
901.0842, 13.82193
901.5663, 16.37656
902.0484, 14.90576
902.5305, 14.20786
903.0126, 17.25043
903.4948, 21.64685
903.9769, 24.01401
904.4590, 24.89182
904.9411, 25.47473
905.4232, 25.98691
905.9053, 28.19119
906.3875, 32.58673
906.8696, 35.06760
907.3517, 31.01682
907.8338, 23.22113
908.3159, 20.56400
908.7980, 23.06967
909.2802, 27.92041
909.7623, 35.38004
910.2444, 40.87997
910.7265, 41.88577
911.2086, 40.83270
911.6907, 41.48447
912.1729, 43.77289
912.6550, 41.77133
913.1371, 31.90454
913.6192, 29.92908
914.1013, 43.52054
914.5834, 55.89786
915.0656, 54.27856
915.5477, 44.94363
916.0298, 42.37494
916.5119, 48.23151
916.9940, 54.78021
917.4761, 66.33313
917.9583, 72.44229
918.4404, 65.34956
918.9225, 56.56552
919.4046, 55.23541
919.8867, 59.83574
920.3688, 64.73389
920.8510, 72.94714
921.3331, 74.65164
921.8152, 61.56210
922.2973, 50.70183
922.7794, 51.96793
923.2615, 58.26460
923.7437, 62.43607
924.2258, 63.42206
924.7079, 60.85078
925.1900, 51.65923
925.6721, 43.79131
926.1542, 41.68317
926.6364, 41.14359
927.1185, 39.78964
927.6006, 37.20302
928.0827, 31.35965
928.5648, 22.64775
929.0469, 19.24265
929.5291, 32.84241
930.0112, 45.18512
930.4933, 38.98581
930.9754, 26.17345
931.4575, 19.91983
931.9396, 20.97250
932.4218, 27.17613
932.9039, 37.61136
933.3860, 47.10040
933.8681, 53.34741
934.3502, 55.67206
934.8323, 50.53268
935.3145, 40.50565
935.7966, 30.29089
936.2787, 21.77756
936.7608, 17.89696
937.2429, 20.23259
937.7250, 24.90935
938.2072, 28.99905
938.6893, 31.58783
939.1714, 28.15854
939.6535, 20.64177
940.1356, 16.59456
940.6177, 18.19183
941.0999, 22.77602
941.5820, 27.95190
942.0641, 32.10692
942.5462, 31.38905
943.0283, 26.98239
943.5104, 27.09760
943.9926, 31.55574
944.4747, 30.03625
944.9568, 19.19461
945.4389, 8.920120
945.9210, 8.342377
946.4031, 13.92058
946.8853, 15.83855
947.3674, 14.14751
947.8495, 14.02020
948.3316, 16.00351
948.8137, 14.99611
949.2958, 8.564331
949.7780, 1.844543
950.2601, 0.3444060
950.7422, 3.512177
951.2243, 9.266205
951.7064, 18.75963
952.1885, 22.53493
952.6707, 18.12714
953.1528, 12.60951
953.6349, 8.661514
954.1170, 6.952744
954.5991, 8.694397
955.0812, 14.03719
955.5634, 19.96938
956.0455, 27.38335
956.5276, 30.96582
957.0097, 29.99303
957.4918, 24.78122
957.9739, 12.41629
958.4561, 0.5558930
958.9382, 2.903885
959.4203, 6.198624
959.9024, 13.13960
960.3845, 18.86113
960.8666, 20.35010
961.3488, 14.56694
961.8309, 7.970062
962.3130, 3.754761
962.7951, 1.745758
963.2772, 1.576416
963.7593, 3.248505
964.2415, 6.812561
964.7236, 16.36168
965.2057, 21.84859
965.6878, 16.95944
966.1699, 12.02928
966.6520, 14.71948
967.1342, 21.98070
967.6163, 27.24945
968.0984, 30.72774
968.5805, 30.75398
969.0626, 23.48247
969.5447, 17.81830
970.0269, 15.97711
970.5090, 16.49446
970.9911, 20.00426
971.4732, 24.75020
971.9553, 26.08203
972.4374, 22.50119
972.9196, 19.29575
973.4017, 15.90666
973.8838, 14.67409
974.3659, 19.18993
974.8480, 23.75031
975.3301, 21.39139
975.8123, 14.83823
976.2944, 14.38809
976.7765, 25.94585
977.2586, 29.22398
977.7407, 7.785965
978.2228, 8.333954
978.7050, 0.6366730
979.1871, 14.53546
979.6692, 21.77203
980.1513, 21.50233
980.6334, 20.62941
981.1155, 21.13788
981.5977, 19.43587
982.0798, 10.05145
982.5619, 3.358582
983.0440, 7.140839
983.5261, 14.54959
984.0082, 18.97037
984.4904, 19.83231
984.9725, 17.86826
985.4546, 11.48447
985.9367, 7.613159
986.4188, 12.03239
986.9009, 15.79054
987.3831, 12.55566
987.8652, 6.714615
988.3473, 3.391922
988.8294, 2.815002
989.3115, 3.163910
989.7936, 4.783890
990.2758, 5.306168
990.7579, 2.514191
991.2400, 0.5493320
991.7221, 3.137238
992.2042, 4.041916
992.6863, 0.7884520
993.1685, 5.600952
993.6506, 10.38750
994.1327, 12.00484
994.6148, 11.55605
995.0969, 7.945450
995.5790, 4.379669
996.0612, 2.286880
996.5433, 1.919586
997.0254, 4.514847
997.5075, 9.089462
997.9896, 11.91187
998.4717, 11.67119
998.9539, 10.11641
999.4360, 5.847641
999.9181, 2.778030
1000.400, 4.563721
1000.882, 8.633514
1001.364, 12.46216
1001.847, 15.29063
1002.329, 16.05136
1002.811, 13.82182
1003.293, 11.04729
1003.775, 8.320190
1004.257, 6.535004
1004.739, 5.846054
1005.221, 6.513474
1005.703, 10.50310
1006.186, 16.35529
1006.668, 18.00438
1007.150, 11.72314
1007.632, 6.441757
1008.114, 8.110519
1008.596, 10.59465
1009.078, 8.083145
1009.560, 5.062378
1010.043, 8.619171
1010.525, 17.17918
1011.007, 22.35483
1011.489, 21.03958
1011.971, 18.26247
1012.453, 16.02100
1012.935, 13.24463
1013.417, 7.776093
1013.899, 2.481339
1014.382, 0.8236240
1014.864, 2.329926
1015.346, 4.498596
1015.828, 6.861557
1016.310, 9.180603
1016.792, 13.21051
1017.274, 15.86128
1017.756, 13.63776
1018.239, 9.674271
1018.721, 6.637817
1019.203, 4.868469
1019.685, 4.008316
1020.167, 4.213318
1020.649, 6.289505
1021.131, 13.55560
1021.613, 19.81737
1022.095, 22.24632
1022.578, 22.22766
1023.060, 19.94595
1023.542, 16.53931
1024.024, 14.09421
1024.506, 12.76414
1024.988, 13.96288
1025.470, 24.38083
1025.952, 29.12721
1026.435, 15.60341
1026.917, 0.6246030
1027.399, 0.4133910
1027.881, 9.054138
1028.363, 11.92911
1028.845, 6.303802
1029.327, 2.504791
1029.809, 4.460083
1030.292, 5.577835
1030.774, 0.8152770
1031.256, 1.855133
1031.738, 6.934540
1032.220, 19.95746
1032.702, 23.02292
1033.184, 14.20438
1033.666, 8.919327
1034.148, 10.24582
1034.630, 12.96838
1035.113, 18.31625
1035.595, 22.60063
1036.077, 23.46738
1036.559, 22.38080
1037.041, 18.67795
1037.523, 12.06650
1038.005, 7.783646
1038.487, 4.204697
1038.970, 5.755188
1039.452, 19.49532
1039.934, 29.52751
1040.416, 27.09842
1040.898, 18.87914
1041.380, 11.15520
1041.862, 4.435562
1042.344, 3.094543
1042.826, 8.477753
1043.309, 16.02567
1043.791, 30.85262
1044.273, 37.50493
1044.755, 25.45103
1045.237, 9.723862
1045.719, 5.529434
1046.201, 10.63181
1046.683, 14.75195
1047.166, 17.51735
1047.648, 21.25674
1048.130, 27.52373
1048.612, 28.98103
1049.094, 21.08189
1049.576, 13.91792
1050.058, 16.44084
1050.540, 25.07549
1051.022, 30.79340
1051.505, 33.22424
1051.987, 36.55579
1052.469, 41.58423
1052.951, 41.12410
1053.433, 31.97083
1053.915, 25.79066
1054.397, 31.20549
1054.879, 41.72791
1055.361, 45.74854
1055.844, 43.77222
1056.326, 38.55022
1056.808, 29.69267
1057.290, 25.08797
1057.772, 26.04794
1058.254, 29.83231
1058.736, 35.35223
1059.218, 38.69601
1059.701, 33.25209
1060.183, 22.67393
1060.665, 20.82420
1061.147, 25.55585
1061.629, 24.01382
1062.111, 15.75119
1062.593, 10.01892
1063.075, 10.35435
1063.557, 12.64172
1064.040, 13.45514
1064.522, 12.70406
1065.004, 8.609558
1065.486, 3.323364
1065.968, 2.770752
1066.450, 6.121506
1066.932, 9.079590
1067.414, 10.51318
1067.896, 11.96982
1068.379, 14.69942
1068.861, 17.10068
1069.343, 17.98375
1069.825, 16.94984
1070.307, 12.06355
1070.789, 5.403519
1071.271, 0.2303010
1071.753, 2.546265
1072.236, 2.488373
1072.718, 0.8574070
1073.200, 5.350800
1073.682, 11.38683
1074.164, 15.75717
1074.646, 13.63869
1075.128, 9.887192
1075.610, 12.81786
1076.093, 19.02182
1076.575, 16.39227
1077.057, 1.341660
1077.539, 9.316971
1078.021, 4.745270
1078.503, 1.419586
1078.985, 3.384674
1079.467, 3.665192
1079.949, 2.762024
1080.432, 2.350464
1080.914, 6.185898
1081.396, 14.21155
1081.878, 17.91756
1082.360, 13.31033
1082.842, 8.218735
1083.324, 0.2549130
1083.806, 3.904190
1084.288, 1.853165
1084.771, 10.56531
1085.253, 15.88274
1085.735, 17.69205
1086.217, 14.77415
1086.699, 2.002762
1087.181, 1.337341
1087.663, 10.58485
1088.145, 20.29391
1088.628, 23.19856
1089.110, 22.62505
1089.592, 20.59497
1090.074, 17.71010
1090.556, 15.43111
1091.038, 13.80748
1091.520, 11.21376
1092.002, 7.284180
1092.484, 4.975189
1092.967, 4.943222
1093.449, 5.425018
1093.931, 5.527176
1094.413, 5.612900
1094.895, 6.005035
1095.377, 6.888840
1095.859, 9.934952
1096.341, 14.46187
1096.823, 14.45766
1097.306, 9.900650
1097.788, 5.299042
1098.270, 2.167938
1098.752, 0.3507080
1099.234, 3.229462
1099.716, 4.540192
1100.198, 1.063354
1100.680, 9.110764
1101.163, 9.418350
1101.645, 4.581223
1102.127, 1.484283
1102.609, 1.378159
1103.091, 3.371552
1103.573, 7.244354
1104.055, 9.468964
1104.537, 4.466339
1105.020, 0.6669620
1105.502, 3.029221
1105.984, 8.541702
1106.466, 5.207581
1106.948, 2.914703
1107.430, 4.605713
1107.912, 2.189331
1108.394, 8.337250
1108.876, 10.52101
1109.359, 10.79893
1109.841, 6.562790
1110.323, 4.529892
1110.805, 12.93158
1111.287, 23.02109
1111.769, 23.36395
1112.251, 15.13680
1112.733, 7.286087
1113.215, 2.463409
1113.698, 4.045670
1114.180, 10.21776
1114.662, 20.73495
1115.144, 21.51201
1115.626, 19.75427
1116.108, 19.98387
1116.590, 21.17986
1117.072, 21.69040
1117.555, 21.51801
1118.037, 18.28442
1118.519, 10.67500
1119.001, 7.950729
1119.483, 11.89143
1119.965, 16.67056
1120.447, 20.29237
1120.929, 20.27046
1121.411, 12.91669
1121.894, 2.774261
1122.376, 2.429184
1122.858, 10.14957
1123.340, 18.57901
1123.822, 26.51433
1124.304, 28.59146
1124.786, 24.60031
1125.268, 23.42578
1125.750, 30.48833
1126.233, 37.22592
1126.715, 32.09122
1127.197, 21.24831
1127.679, 9.958420
1128.161, 1.805984
1128.643, 6.380402
1129.125, 18.19543
1129.607, 20.69870
1130.090, 10.69157
1130.572, 2.651443
1131.054, 4.942657
1131.536, 8.614258
1132.018, 9.761383
1132.500, 9.877106
1132.982, 9.875061
1133.464, 9.517792
1133.947, 8.512604
1134.429, 6.830414
1134.911, 4.097443
1135.393, 1.389603
1135.875, 3.669678
1136.357, 0.8008120
1136.839, 2.812042
1137.321, 7.247147
1137.803, 11.26511
1138.286, 15.25568
1138.768, 16.92279
1139.250, 11.29192
1139.732, 3.9581001E-02
1140.214, 0.7805330
1140.696, 11.03195
1141.178, 18.37769
1141.660, 19.85086
1142.142, 17.84357
1142.625, 12.48993
1143.107, 9.166321
1143.589, 12.61893
1144.071, 17.65552
1144.553, 13.89053
1145.035, 4.744690
1145.517, 6.2637001E-02
1145.999, 0.5705260
1146.482, 3.158310
1146.964, 9.585464
1147.446, 12.25323
1147.928, 9.053452
1148.410, 6.433701
1148.892, 10.79485
1149.374, 14.86221
1149.856, 9.843033
1150.339, 3.573746
1150.821, 2.562073
1151.303, 6.441437
1151.785, 18.10829
1152.267, 33.61031
1152.749, 36.95241
1153.231, 20.10193
1153.713, 7.722229
1154.195, 8.126678
1154.677, 9.917542
1155.160, 8.718277
1155.642, 9.023483
1156.124, 15.93626
1156.606, 23.99251
1157.088, 24.11722
1157.570, 17.39165
1158.052, 16.91098
1158.534, 25.22626
1159.017, 25.64250
1159.499, 15.64064
1159.981, 7.770050
1160.463, 5.737091
1160.945, 7.352737
1161.427, 11.45157
1161.909, 15.97021
1162.391, 17.39706
1162.874, 16.39128
1163.356, 14.77409
1163.838, 13.43872
1164.320, 14.58063
1164.802, 17.15613
1165.284, 14.33469
1165.766, 5.272278
1166.248, 0.1327510
1166.730, 7.824371
1167.213, 16.56206
1167.695, 16.75359
1168.177, 13.53407
1168.659, 9.830750
1169.141, 6.653946
1169.623, 3.822739
1170.105, 2.525726
1170.587, 7.176788
1171.069, 19.80608
1171.552, 25.94833
1172.034, 16.21710
1172.516, 11.37112
1172.998, 20.02708
1173.480, 26.15283
1173.962, 21.31218
1174.444, 13.32234
1174.926, 10.11095
1175.409, 10.61343
1175.891, 11.37956
1176.373, 12.42830
1176.855, 13.44276
1177.337, 14.49158
1177.819, 15.89195
1178.301, 17.65637
1178.783, 17.53192
1179.266, 14.41743
1179.748, 10.53648
1180.230, 7.781631
1180.712, 6.759644
1181.194, 10.83551
1181.676, 15.83574
1182.158, 13.46864
1182.640, 6.466949
1183.122, 0.1779170
1183.604, 5.028793
1184.087, 4.168823
1184.569, 4.197739
1185.051, 10.87241
1185.533, 10.18784
1186.015, 8.872086
1186.497, 9.986404
1186.979, 11.47141
1187.461, 12.58359
1187.944, 12.78766
1188.426, 10.53558
1188.908, 6.572510
1189.390, 5.923462
1189.872, 10.05701
1190.354, 11.61067
1190.836, 10.08253
1191.318, 7.524368
1191.801, 3.826248
1192.283, 4.041794
1192.765, 11.68750
1193.247, 19.47537
1193.729, 17.58952
1194.211, 10.20454
1194.693, 6.236191
1195.175, 5.523941
1195.657, 8.596878
1196.140, 14.30656
1196.622, 20.87770
1197.104, 26.93845
1197.586, 28.68347
1198.068, 24.04320
1198.550, 19.12811
1199.032, 16.93224
1199.514, 16.61674
1199.996, 19.98630
1200.479, 22.43416
1200.961, 18.29625
1201.443, 12.26166
1201.925, 11.68471
1202.407, 16.16656
1202.889, 19.67303
1203.371, 23.14066
1203.853, 22.10373
1204.336, 14.75887
1204.818, 8.270599
1205.300, 3.318039
1205.782, 3.597733
1206.264, 11.95590
1206.746, 20.77141
1207.228, 20.24857
1207.710, 13.25943
1208.193, 13.08383
1208.675, 16.56369
1209.157, 20.05499
1209.639, 22.74777
1210.121, 23.27203
1210.603, 21.40561
1211.085, 16.08057
1211.567, 6.677811
1212.049, 2.261475
1212.531, 14.25946
1213.014, 24.73592
1213.496, 21.75598
1213.978, 16.66566
1214.460, 18.41736
1214.942, 21.84019
1215.424, 18.86821
1215.906, 11.69083
1216.388, 9.243744
1216.871, 12.27875
1217.353, 15.73920
1217.835, 20.12981
1218.317, 22.91776
1218.799, 23.91095
1219.281, 22.60246
1219.763, 18.73239
1220.245, 12.35080
1220.728, 2.496658
1221.210, 5.540619
1221.692, 0.6402130
1222.174, 13.60843
1222.656, 16.70763
1223.138, 14.56499
1223.620, 18.48737
1224.102, 26.70685
1224.584, 29.09361
1225.067, 23.68840
1225.549, 20.74062
1226.031, 25.53104
1226.513, 24.55943
1226.995, 29.32095
1227.477, 32.01045
1227.959, 31.71400
1228.441, 28.87170
1228.923, 24.29703
1229.406, 18.40637
1229.888, 9.875122
1230.370, 7.0983998E-02
1230.852, 0.0000000E+00
##END=



