##NAMES=Conichalcite
##RRUFFID=R050028
##IDEAL CHEMISTRY=CaCu^2+^As^5+^O_4_(OH)
##LOCALITY=Mapimi, Durango, Mexico
##OWNER=RRUFF
##SOURCE=Eugene Schlepp
##DESCRIPTION=Green botryoidal groups covering adamite
##STATUS=The identification of this mineral has been confirmed by X-ray diffraction and chemical analysis
##URL=rruff.info/R050028
##MEASURED CHEMISTRY=Ca_1.00_(Cu_0.70_Zn_0.30_)_Î£=1_(As_1.00_O_4_)(OH)
137.6089, 0.0000000E+00
138.0910, 8.9354999E-02
138.5731, 3.026367
139.0553, 13.13794
139.5374, 23.44336
140.0195, 16.43848
140.5016, 1.236816
140.9837, 6.842773
141.4658, 7.655273
141.9480, 3.350098
142.4301, 4.083252
142.9122, 13.03442
143.3943, 27.35962
143.8764, 49.29126
144.3585, 78.09082
144.8407, 104.7717
145.3228, 125.2075
145.8049, 146.0823
146.2870, 173.7393
146.7691, 215.2874
147.2512, 253.1597
147.7334, 280.2393
148.2155, 291.4500
148.6976, 316.4385
149.1797, 364.3145
149.6618, 423.4448
150.1439, 477.8501
150.6261, 512.5022
151.1082, 555.0876
151.5903, 615.7505
152.0724, 709.7017
152.5545, 787.4558
153.0366, 828.6919
153.5188, 851.4419
154.0009, 890.9639
154.4830, 972.4089
154.9651, 1057.136
155.4472, 1128.590
155.9293, 1175.797
156.4115, 1222.296
156.8936, 1276.403
157.3757, 1334.500
157.8578, 1385.131
158.3399, 1425.689
158.8221, 1457.190
159.3042, 1480.781
159.7863, 1489.497
160.2684, 1497.341
160.7505, 1513.240
161.2326, 1535.245
161.7148, 1546.426
162.1969, 1537.325
162.6790, 1514.865
163.1611, 1485.919
163.6432, 1452.359
164.1253, 1413.212
164.6075, 1363.690
165.0896, 1303.427
165.5717, 1249.045
166.0538, 1208.996
166.5359, 1180.805
167.0180, 1160.698
167.5002, 1155.220
167.9823, 1152.123
168.4644, 1140.694
168.9465, 1118.921
169.4286, 1097.438
169.9107, 1084.010
170.3929, 1076.646
170.8750, 1070.984
171.3571, 1060.486
171.8392, 1052.432
172.3213, 1056.014
172.8034, 1074.277
173.2856, 1097.562
173.7677, 1119.090
174.2498, 1138.854
174.7319, 1156.324
175.2140, 1172.100
175.6961, 1185.250
176.1783, 1192.873
176.6604, 1191.187
177.1425, 1189.383
177.6246, 1201.948
178.1067, 1226.547
178.5888, 1249.322
179.0710, 1261.106
179.5531, 1263.341
180.0352, 1257.924
180.5173, 1242.850
180.9994, 1222.814
181.4815, 1205.143
181.9637, 1189.692
182.4458, 1175.030
182.9279, 1162.226
183.4100, 1149.757
183.8921, 1131.401
184.3742, 1102.049
184.8564, 1067.098
185.3385, 1040.976
185.8206, 1024.131
186.3027, 1008.626
186.7848, 979.9868
187.2669, 941.5652
187.7491, 918.8003
188.2312, 929.8767
188.7133, 963.8372
189.1954, 981.8975
189.6775, 980.1111
190.1596, 974.7036
190.6418, 982.1924
191.1239, 995.4856
191.6060, 1014.191
192.0881, 1044.397
192.5702, 1084.590
193.0524, 1110.785
193.5345, 1126.791
194.0166, 1144.347
194.4987, 1172.971
194.9808, 1209.802
195.4629, 1252.641
195.9451, 1313.101
196.4272, 1391.773
196.9093, 1457.583
197.3914, 1506.870
197.8735, 1546.505
198.3556, 1586.477
198.8378, 1625.723
199.3199, 1674.405
199.8020, 1740.749
200.2841, 1825.335
200.7662, 1908.702
201.2483, 1990.658
201.7305, 2069.912
202.2126, 2139.999
202.6947, 2196.925
203.1768, 2259.559
203.6589, 2345.021
204.1410, 2457.717
204.6232, 2555.731
205.1053, 2633.840
205.5874, 2695.541
206.0695, 2753.516
206.5516, 2810.403
207.0337, 2856.630
207.5159, 2885.245
207.9980, 2894.060
208.4801, 2892.872
208.9622, 2883.082
209.4443, 2864.157
209.9264, 2833.695
210.4086, 2792.000
210.8907, 2737.906
211.3728, 2667.465
211.8549, 2573.146
212.3370, 2486.771
212.8191, 2414.563
213.3013, 2355.012
213.7834, 2289.961
214.2655, 2217.101
214.7476, 2142.169
215.2297, 2069.493
215.7118, 1995.969
216.1940, 1932.190
216.6761, 1883.879
217.1582, 1849.794
217.6403, 1805.622
218.1224, 1749.206
218.6045, 1686.214
219.0867, 1621.354
219.5688, 1554.299
220.0509, 1487.152
220.5330, 1422.035
221.0151, 1358.271
221.4972, 1291.650
221.9794, 1218.129
222.4615, 1145.674
222.9436, 1083.019
223.4257, 1035.680
223.9078, 985.9038
224.3899, 928.1929
224.8721, 860.5156
225.3542, 803.1504
225.8363, 759.5854
226.3184, 722.5947
226.8005, 683.1987
227.2827, 640.8887
227.7648, 597.3506
228.2469, 551.3906
228.7290, 501.7974
229.2111, 460.9844
229.6932, 434.3101
230.1754, 412.4814
230.6575, 382.1875
231.1396, 337.0718
231.6217, 295.2490
232.1038, 264.3926
232.5859, 249.0454
233.0681, 218.3247
233.5502, 160.0557
234.0323, 95.28320
234.5144, 55.24316
234.9965, 52.67822
235.4786, 53.91211
235.9608, 49.20508
236.4429, 37.09619
236.9250, 25.65576
237.4071, 14.27441
237.8892, 3.988770
238.3713, 3.447754
238.8535, 7.135742
239.3356, 9.485352
239.8177, 11.28271
240.2998, 12.70703
240.7819, 12.09863
241.2640, 5.029785
241.7462, 1.612305
242.2283, 5.741211
242.7104, 38.51514
243.1925, 66.46143
243.6746, 78.40137
244.1567, 68.83887
244.6389, 61.65820
245.1210, 56.60010
245.6031, 54.07959
246.0852, 56.23877
246.5673, 69.10303
247.0494, 76.22900
247.5316, 68.78369
248.0137, 37.81738
248.4958, 23.65967
248.9779, 34.01123
249.4600, 56.96240
249.9421, 70.86426
250.4243, 74.32324
250.9064, 71.33447
251.3885, 61.99561
251.8706, 43.15527
252.3527, 28.19482
252.8348, 17.43652
253.3170, 10.30322
253.7991, 6.931152
254.2812, 10.96094
254.7633, 11.95996
255.2454, 4.898438
255.7275, 13.24023
256.2097, 27.53955
256.6918, 35.99072
257.1739, 41.75293
257.6560, 51.58789
258.1381, 68.62402
258.6202, 83.26953
259.1024, 90.09229
259.5845, 84.65723
260.0666, 90.26367
260.5487, 111.9834
261.0308, 140.8774
261.5129, 161.1436
261.9951, 169.1816
262.4772, 176.6123
262.9593, 187.4897
263.4414, 202.3496
263.9235, 219.2563
264.4056, 239.7993
264.8878, 261.1895
265.3699, 278.8501
265.8520, 291.9360
266.3341, 304.2593
266.8162, 316.9248
267.2983, 329.3525
267.7805, 345.4351
268.2626, 366.9512
268.7447, 389.9331
269.2268, 405.9033
269.7089, 411.8315
270.1910, 421.5728
270.6732, 442.5947
271.1553, 476.4409
271.6374, 506.2109
272.1195, 533.1611
272.6016, 554.2476
273.0837, 560.4331
273.5659, 548.3579
274.0480, 538.9067
274.5301, 540.7612
275.0122, 554.2744
275.4943, 569.8096
275.9764, 589.1128
276.4586, 607.1455
276.9407, 615.8555
277.4228, 614.4014
277.9049, 609.6255
278.3870, 603.2207
278.8691, 595.2725
279.3513, 587.8203
279.8334, 580.9556
280.3155, 574.3589
280.7976, 567.5542
281.2798, 560.5361
281.7619, 553.7417
282.2440, 547.9185
282.7261, 542.7163
283.2082, 534.9634
283.6903, 524.1675
284.1725, 512.6255
284.6546, 504.1299
285.1367, 498.5024
285.6188, 490.4302
286.1009, 476.8374
286.5830, 459.1655
287.0652, 443.4419
287.5473, 429.8511
288.0294, 417.6289
288.5115, 406.6973
288.9936, 396.7930
289.4757, 386.4004
289.9579, 378.5259
290.4400, 368.9370
290.9221, 340.5908
291.4042, 291.8672
291.8863, 244.6636
292.3684, 224.1792
292.8506, 225.3276
293.3327, 225.6475
293.8148, 217.1436
294.2969, 204.0161
294.7790, 194.1558
295.2611, 187.5186
295.7433, 182.0308
296.2254, 177.9316
296.7075, 174.0674
297.1896, 165.7490
297.6717, 144.8989
298.1538, 124.7319
298.6360, 125.9507
299.1181, 148.0859
299.6002, 180.4731
300.0823, 220.5894
300.5644, 262.6431
301.0465, 299.5435
301.5287, 332.7139
302.0108, 358.9966
302.4929, 366.3081
302.9750, 358.1748
303.4571, 354.4229
303.9392, 360.4604
304.4214, 380.4253
304.9035, 424.3008
305.3856, 504.0889
305.8677, 594.4131
306.3498, 666.3398
306.8319, 724.3018
307.3141, 789.8608
307.7962, 875.3774
308.2783, 975.3867
308.7604, 1088.169
309.2425, 1216.740
309.7246, 1346.691
310.2068, 1463.119
310.6889, 1572.736
311.1710, 1694.650
311.6531, 1845.823
312.1352, 2007.667
312.6173, 2164.814
313.0995, 2309.913
313.5816, 2461.302
314.0637, 2628.321
314.5458, 2807.342
315.0279, 2993.195
315.5100, 3184.730
315.9922, 3381.952
316.4743, 3585.744
316.9564, 3797.355
317.4385, 4010.758
317.9206, 4229.443
318.4027, 4447.491
318.8849, 4656.616
319.3670, 4860.047
319.8491, 5049.396
320.3312, 5218.251
320.8133, 5363.753
321.2954, 5507.243
321.7776, 5685.460
322.2597, 5852.515
322.7418, 5959.537
323.2239, 5964.844
323.7060, 5944.061
324.1881, 5917.504
324.6703, 5888.045
325.1524, 5823.473
325.6345, 5701.127
326.1166, 5554.209
326.5987, 5408.460
327.0808, 5278.857
327.5630, 5133.033
328.0451, 4959.274
328.5272, 4759.392
329.0093, 4570.709
329.4914, 4393.021
329.9735, 4230.840
330.4557, 4090.325
330.9378, 3990.133
331.4199, 3878.400
331.9020, 3745.191
332.3841, 3596.281
332.8662, 3458.256
333.3484, 3332.326
333.8305, 3217.431
334.3126, 3116.257
334.7947, 3036.484
335.2768, 2945.342
335.7589, 2834.541
336.2411, 2715.537
336.7232, 2615.728
337.2053, 2541.804
337.6874, 2471.330
338.1695, 2389.892
338.6516, 2295.064
339.1338, 2217.054
339.6159, 2162.333
340.0980, 2115.817
340.5801, 2050.482
341.0622, 1962.622
341.5443, 1879.004
342.0265, 1811.463
342.5086, 1758.941
342.9907, 1700.587
343.4728, 1634.201
343.9549, 1572.144
344.4370, 1534.785
344.9192, 1519.570
345.4013, 1502.099
345.8834, 1472.560
346.3655, 1435.042
346.8476, 1398.796
347.3297, 1363.500
347.8119, 1335.246
348.2940, 1328.361
348.7761, 1336.049
349.2582, 1335.714
349.7403, 1315.548
350.2225, 1290.035
350.7046, 1279.208
351.1867, 1282.059
351.6688, 1291.321
352.1509, 1312.649
352.6331, 1334.266
353.1152, 1335.386
353.5973, 1301.203
354.0794, 1264.708
354.5615, 1260.326
355.0436, 1278.928
355.5258, 1292.733
356.0079, 1285.643
356.4900, 1267.540
356.9721, 1244.519
357.4542, 1214.351
357.9363, 1190.000
358.4185, 1192.583
358.9006, 1204.468
359.3827, 1195.147
359.8648, 1135.327
360.3469, 1065.017
360.8290, 1003.200
361.3112, 951.7446
361.7933, 906.1592
362.2754, 864.8467
362.7575, 828.3032
363.2396, 796.9468
363.7217, 771.6797
364.2039, 751.1802
364.6860, 739.6978
365.1681, 737.2612
365.6502, 724.2969
366.1323, 682.2402
366.6144, 638.7744
367.0966, 613.0068
367.5787, 622.6909
368.0608, 629.4907
368.5429, 635.1421
369.0250, 637.3184
369.5071, 622.9409
369.9893, 576.7310
370.4714, 531.8296
370.9535, 505.1309
371.4356, 506.4463
371.9177, 504.2363
372.3998, 497.5552
372.8820, 487.4053
373.3641, 476.9839
373.8462, 468.6616
374.3283, 453.8945
374.8104, 426.5630
375.2925, 384.6426
375.7747, 352.4561
376.2568, 332.0732
376.7389, 316.8208
377.2210, 297.9380
377.7031, 275.1353
378.1852, 252.9126
378.6674, 231.6841
379.1495, 212.1489
379.6316, 198.0874
380.1137, 190.2510
380.5958, 181.9453
381.0779, 164.2075
381.5601, 139.4902
382.0422, 121.6777
382.5243, 116.0078
383.0064, 115.4888
383.4885, 108.3394
383.9706, 95.25635
384.4528, 81.70605
384.9349, 71.28857
385.4170, 62.79492
385.8991, 54.19482
386.3812, 45.25244
386.8633, 35.76270
387.3455, 22.23291
387.8276, 7.841309
388.3097, 0.2456050
388.7918, 6.337891
389.2739, 17.74414
389.7560, 29.38379
390.2382, 41.77246
390.7203, 43.67920
391.2024, 16.26953
391.6845, 20.58105
392.1666, 44.26514
392.6487, 35.24072
393.1309, 22.73633
393.6130, 15.95508
394.0951, 15.08447
394.5772, 19.81299
395.0593, 35.03467
395.5414, 52.69092
396.0236, 67.62939
396.5057, 78.50146
396.9878, 87.45459
397.4699, 95.67725
397.9520, 102.2002
398.4341, 103.8564
398.9163, 95.13623
399.3984, 87.26172
399.8805, 84.62549
400.3626, 89.53174
400.8447, 93.01172
401.3268, 95.74561
401.8090, 96.54688
402.2911, 93.65820
402.7732, 86.79785
403.2553, 77.14893
403.7374, 65.02539
404.2195, 50.40186
404.7017, 31.50635
405.1838, 6.050293
405.6659, 17.75586
406.1480, 28.27393
406.6301, 25.18848
407.1122, 34.03564
407.5944, 61.93311
408.0765, 101.9131
408.5586, 138.2954
409.0407, 171.2754
409.5228, 202.0259
410.0049, 227.3354
410.4871, 250.5708
410.9692, 282.1006
411.4513, 323.7417
411.9334, 371.0864
412.4155, 425.1968
412.8976, 482.7344
413.3798, 531.9893
413.8619, 551.0732
414.3440, 569.7964
414.8261, 628.7319
415.3082, 728.6406
415.7903, 821.3784
416.2725, 861.5703
416.7546, 883.0625
417.2367, 925.5527
417.7188, 1018.624
418.2009, 1115.021
418.6830, 1189.772
419.1652, 1249.092
419.6473, 1312.755
420.1294, 1388.891
420.6115, 1470.600
421.0937, 1556.375
421.5758, 1647.740
422.0579, 1735.687
422.5400, 1818.766
423.0221, 1897.962
423.5042, 1976.665
423.9864, 2052.853
424.4685, 2130.175
424.9506, 2214.087
425.4327, 2305.191
425.9148, 2378.767
426.3969, 2423.179
426.8791, 2463.292
427.3612, 2520.738
427.8433, 2600.579
428.3254, 2682.562
428.8075, 2768.205
429.2896, 2852.173
429.7718, 2913.950
430.2539, 2952.056
430.7360, 2977.318
431.2181, 2990.991
431.7002, 2994.166
432.1823, 3004.998
432.6645, 3026.827
433.1466, 3048.189
433.6287, 3055.304
434.1108, 3048.720
434.5929, 3030.190
435.0750, 2994.758
435.5572, 2950.327
436.0393, 2913.117
436.5214, 2882.522
437.0035, 2845.531
437.4856, 2793.832
437.9677, 2729.258
438.4499, 2653.041
438.9320, 2559.282
439.4141, 2464.542
439.8962, 2378.054
440.3783, 2299.912
440.8604, 2227.853
441.3426, 2154.435
441.8247, 2092.763
442.3068, 2054.760
442.7889, 2047.404
443.2710, 2036.128
443.7531, 2012.512
444.2353, 1980.001
444.7174, 1942.016
445.1995, 1867.380
445.6816, 1822.496
446.1637, 1833.555
446.6458, 1894.407
447.1280, 1932.408
447.6101, 1933.358
448.0922, 1926.847
448.5743, 1927.549
449.0564, 1934.071
449.5385, 1951.911
450.0207, 1987.820
450.5028, 2031.354
450.9849, 2056.348
451.4670, 2057.603
451.9491, 2063.433
452.4312, 2088.221
452.9134, 2127.720
453.3955, 2151.150
453.8776, 2156.586
454.3597, 2160.618
454.8418, 2184.764
455.3239, 2222.832
455.8061, 2245.964
456.2882, 2242.198
456.7703, 2231.072
457.2524, 2238.484
457.7345, 2261.557
458.2166, 2289.926
458.6988, 2313.931
459.1809, 2342.006
459.6630, 2386.226
460.1451, 2450.898
460.6272, 2514.470
461.1093, 2560.344
461.5915, 2598.077
462.0736, 2638.453
462.5557, 2683.090
463.0378, 2733.633
463.5199, 2787.540
464.0020, 2844.849
464.4842, 2911.869
464.9663, 3007.509
465.4484, 3099.549
465.9305, 3170.338
466.4126, 3203.101
466.8947, 3245.007
467.3769, 3305.721
467.8590, 3371.167
468.3411, 3419.458
468.8232, 3448.169
469.3053, 3463.366
469.7874, 3464.301
470.2696, 3451.697
470.7517, 3437.403
471.2338, 3419.696
471.7159, 3405.663
472.1980, 3407.641
472.6801, 3424.866
473.1623, 3422.391
473.6444, 3389.672
474.1265, 3346.258
474.6086, 3332.374
475.0907, 3342.352
475.5728, 3339.528
476.0550, 3293.034
476.5371, 3225.185
477.0192, 3172.732
477.5013, 3136.778
477.9834, 3104.979
478.4655, 3068.947
478.9477, 3030.847
479.4298, 2994.298
479.9119, 2964.259
480.3940, 2930.494
480.8761, 2885.339
481.3582, 2832.085
481.8404, 2780.705
482.3225, 2737.917
482.8046, 2694.903
483.2867, 2649.202
483.7688, 2603.654
484.2509, 2544.774
484.7331, 2461.502
485.2152, 2369.684
485.6973, 2281.995
486.1794, 2199.776
486.6615, 2119.294
487.1436, 2040.783
487.6258, 1964.368
488.1079, 1887.232
488.5900, 1809.275
489.0721, 1727.838
489.5542, 1639.845
490.0363, 1544.547
490.5185, 1456.655
491.0006, 1378.747
491.4827, 1305.190
491.9648, 1229.886
492.4470, 1153.611
492.9291, 1079.616
493.4112, 1006.021
493.8933, 939.0601
494.3754, 897.0361
494.8575, 875.2046
495.3397, 848.7148
495.8218, 795.2046
496.3039, 730.8657
496.7860, 673.0352
497.2681, 623.0513
497.7502, 580.4233
498.2324, 545.3687
498.7145, 517.6357
499.1966, 496.5273
499.6787, 489.5845
500.1608, 481.7085
500.6429, 464.6157
501.1251, 436.3135
501.6072, 410.8169
502.0893, 396.6836
502.5714, 382.6851
503.0535, 362.0029
503.5356, 327.0586
504.0178, 307.3672
504.4999, 308.6484
504.9820, 314.9165
505.4641, 304.8657
505.9462, 274.3550
506.4283, 251.4165
506.9105, 245.8042
507.3926, 252.5063
507.8747, 255.7529
508.3568, 255.3218
508.8389, 258.4062
509.3210, 277.2407
509.8032, 303.7002
510.2853, 311.7520
510.7674, 294.1357
511.2495, 277.7847
511.7316, 291.9478
512.2137, 324.0063
512.6959, 352.3872
513.1780, 368.5347
513.6601, 377.6255
514.1422, 379.4707
514.6243, 375.3540
515.1064, 374.9033
515.5886, 386.4385
516.0707, 399.5864
516.5528, 407.0327
517.0349, 401.8472
517.5170, 405.2251
517.9991, 422.6235
518.4813, 445.7344
518.9634, 468.0991
519.4455, 490.7969
519.9276, 511.6387
520.4097, 530.2915
520.8918, 546.5127
521.3740, 558.3750
521.8561, 562.4331
522.3382, 574.1328
522.8203, 612.9136
523.3024, 675.3667
523.7845, 707.4395
524.2667, 702.8696
524.7488, 681.4326
525.2309, 654.2168
525.7130, 627.4873
526.1951, 625.5332
526.6772, 676.2310
527.1594, 737.1270
527.6415, 756.3994
528.1236, 740.9507
528.6057, 720.7402
529.0878, 712.5850
529.5699, 706.0962
530.0521, 694.7061
530.5342, 678.0508
531.0163, 654.5596
531.4984, 614.1230
531.9805, 570.3120
532.4626, 537.3281
532.9448, 530.9443
533.4269, 518.9575
533.9090, 499.7568
534.3911, 472.7090
534.8732, 434.4780
535.3553, 377.2651
535.8375, 322.4824
536.3196, 282.6997
536.8017, 258.6562
537.2838, 220.5542
537.7659, 163.2529
538.2480, 108.0112
538.7302, 79.45752
539.2123, 74.26514
539.6944, 73.01221
540.1765, 72.94922
540.6586, 72.06885
541.1407, 68.80127
541.6229, 62.52295
542.1050, 50.70898
542.5871, 23.04688
543.0692, 5.007324
543.5513, 15.28564
544.0334, 7.009277
544.5156, 4.326660
544.9977, 28.01514
545.4798, 56.50830
545.9619, 72.42676
546.4440, 65.96191
546.9261, 56.52979
547.4083, 43.24561
547.8904, 29.34229
548.3725, 20.64111
548.8546, 17.68701
549.3367, 19.07275
549.8188, 25.88818
550.3010, 37.46484
550.7831, 46.64209
551.2652, 53.88330
551.7473, 57.17480
552.2294, 53.90918
552.7115, 44.67334
553.1937, 34.98633
553.6758, 25.09326
554.1579, 15.35400
554.6400, 2.217285
555.1221, 10.74805
555.6042, 12.94434
556.0864, 4.685059
556.5685, 29.08496
557.0506, 56.44141
557.5327, 82.41895
558.0148, 90.09033
558.4969, 53.07910
558.9791, 8.772949
559.4612, 21.73682
559.9433, 35.89941
560.4254, 37.86328
560.9075, 9.074707
561.3896, 20.73486
561.8718, 24.46191
562.3539, 25.77344
562.8360, 53.31641
563.3181, 41.59033
563.8002, 8.802246
564.2823, 0.7465820
564.7645, 22.99365
565.2466, 45.38428
565.7287, 56.13770
566.2108, 57.26123
566.6929, 59.74414
567.1750, 63.89844
567.6572, 61.98047
568.1393, 32.71191
568.6214, 4.812012
569.1035, 4.488770
569.5856, 50.02393
570.0677, 104.6187
570.5499, 107.0898
571.0320, 81.91357
571.5141, 67.82080
571.9962, 93.23682
572.4783, 118.3545
572.9604, 131.9360
573.4426, 133.0830
573.9247, 118.6313
574.4068, 58.63770
574.8889, 10.23828
575.3710, 0.4580080
575.8531, 36.37598
576.3353, 59.59473
576.8174, 64.91455
577.2995, 62.88623
577.7816, 63.74561
578.2637, 68.19238
578.7458, 66.91797
579.2280, 55.02246
579.7101, 43.49609
580.1922, 59.96094
580.6743, 98.44336
581.1564, 124.5913
581.6385, 110.6084
582.1207, 81.90479
582.6028, 71.53906
583.0849, 77.83398
583.5670, 86.83643
584.0491, 94.85303
584.5313, 99.41553
585.0134, 96.75830
585.4955, 82.31885
585.9776, 73.96973
586.4597, 83.79346
586.9418, 98.90527
587.4240, 104.2671
587.9061, 90.32666
588.3882, 80.72803
588.8703, 77.02344
589.3524, 79.53809
589.8345, 91.68701
590.3167, 117.1079
590.7988, 138.0786
591.2809, 143.5718
591.7630, 137.5991
592.2451, 143.9521
592.7272, 163.3154
593.2094, 179.4307
593.6915, 177.1040
594.1736, 162.2505
594.6557, 143.6729
595.1378, 120.9136
595.6199, 104.1118
596.1021, 99.84375
596.5842, 106.8149
597.0663, 123.0938
597.5485, 169.1216
598.0306, 201.8384
598.5127, 199.7388
598.9948, 170.7529
599.4769, 149.7935
599.9590, 141.1948
600.4412, 137.9600
600.9233, 138.3457
601.4054, 142.3027
601.8875, 149.2832
602.3696, 160.8823
602.8517, 169.9604
603.3339, 167.3091
603.8160, 154.8706
604.2981, 150.7515
604.7802, 158.2163
605.2623, 170.4761
605.7444, 179.9531
606.2266, 186.6592
606.7087, 190.7905
607.1908, 191.9087
607.6729, 190.6377
608.1550, 186.4380
608.6371, 180.1997
609.1193, 174.4053
609.6014, 173.4707
610.0835, 171.2363
610.5656, 163.6655
611.0477, 149.2637
611.5298, 138.5952
612.0120, 123.8706
612.4941, 120.9111
612.9762, 145.5371
613.4583, 212.9380
613.9404, 247.9907
614.4225, 238.0103
614.9047, 208.7407
615.3868, 199.0840
615.8689, 208.1743
616.3510, 212.2271
616.8331, 200.5303
617.3152, 183.1309
617.7974, 177.6567
618.2795, 181.4683
618.7616, 184.0210
619.2437, 176.0181
619.7258, 166.2705
620.2079, 161.9390
620.6901, 161.3813
621.1722, 164.2007
621.6543, 175.2617
622.1364, 186.0864
622.6185, 191.6743
623.1006, 187.2031
623.5828, 184.5972
624.0649, 185.6670
624.5470, 187.0835
625.0291, 184.6021
625.5112, 177.6606
625.9933, 168.4385
626.4755, 153.5459
626.9576, 140.6328
627.4397, 147.7358
627.9218, 171.8486
628.4039, 197.1431
628.8860, 218.6919
629.3682, 233.6489
629.8503, 234.9219
630.3324, 224.7212
630.8145, 219.5059
631.2966, 240.6826
631.7787, 262.4155
632.2609, 261.3403
632.7430, 223.8784
633.2251, 202.4780
633.7072, 231.1963
634.1893, 267.7446
634.6714, 275.6909
635.1536, 233.3296
635.6357, 211.3960
636.1178, 224.7036
636.5999, 250.9404
637.0820, 241.6860
637.5641, 195.2393
638.0463, 168.8042
638.5284, 187.5713
639.0105, 231.1299
639.4926, 260.3359
639.9747, 275.7388
640.4568, 288.1084
640.9390, 315.4268
641.4211, 337.7520
641.9032, 328.3823
642.3853, 285.6094
642.8674, 253.5869
643.3495, 255.4116
643.8317, 268.9277
644.3138, 280.0625
644.7959, 287.9751
645.2780, 293.8701
645.7601, 297.0264
646.2422, 298.5742
646.7244, 300.9263
647.2065, 306.5786
647.6886, 306.1611
648.1707, 291.6675
648.6528, 273.1929
649.1349, 280.1558
649.6171, 309.6011
650.0992, 335.0557
650.5813, 340.8589
651.0634, 339.8442
651.5455, 347.9180
652.0276, 360.2930
652.5098, 361.8926
652.9919, 335.0298
653.4740, 305.0566
653.9561, 286.7910
654.4382, 282.2495
654.9203, 280.0620
655.4025, 280.8130
655.8846, 286.2583
656.3667, 295.6924
656.8488, 306.8721
657.3309, 320.9746
657.8130, 340.6030
658.2952, 360.0713
658.7773, 372.5806
659.2594, 378.6748
659.7415, 376.0820
660.2236, 359.3755
660.7057, 339.0254
661.1879, 334.2163
661.6700, 341.9824
662.1521, 349.5791
662.6342, 343.3647
663.1163, 337.3955
663.5984, 343.9443
664.0806, 360.5747
664.5627, 368.2749
665.0448, 354.8989
665.5269, 340.7803
666.0090, 336.2178
666.4911, 343.6978
666.9733, 342.9331
667.4554, 328.2432
667.9375, 313.0913
668.4196, 307.6035
668.9017, 312.4082
669.3839, 332.7871
669.8660, 372.6587
670.3481, 409.5947
670.8302, 411.4888
671.3123, 390.1343
671.7944, 371.4697
672.2766, 364.6714
672.7587, 364.3735
673.2408, 369.5293
673.7229, 375.9443
674.2050, 376.7222
674.6871, 364.4546
675.1693, 353.0991
675.6514, 345.9805
676.1335, 342.4473
676.6156, 339.9819
677.0977, 340.0933
677.5798, 339.5474
678.0620, 339.0166
678.5441, 337.7280
679.0262, 319.3579
679.5083, 282.0781
679.9904, 251.3472
680.4725, 253.7544
680.9547, 275.1592
681.4368, 292.0259
681.9189, 301.4248
682.4010, 306.7793
682.8831, 308.3799
683.3652, 307.8530
683.8474, 307.6396
684.3295, 320.7729
684.8116, 314.0771
685.2937, 260.6318
685.7758, 195.0020
686.2579, 163.5654
686.7401, 177.7607
687.2222, 195.5278
687.7043, 212.0439
688.1864, 225.2671
688.6685, 228.8862
689.1506, 223.3794
689.6328, 216.0762
690.1149, 210.9536
690.5970, 205.5244
691.0791, 193.8965
691.5612, 177.8130
692.0433, 165.1987
692.5255, 164.6172
693.0076, 165.3853
693.4897, 161.9268
693.9718, 154.0518
694.4539, 139.7144
694.9360, 110.7446
695.4182, 82.38770
695.9003, 60.65967
696.3824, 43.50439
696.8645, 48.71338
697.3466, 83.84424
697.8287, 120.9956
698.3109, 127.6362
698.7930, 108.7939
699.2751, 89.23145
699.7572, 71.44092
700.2393, 60.60596
700.7214, 69.91992
701.2036, 88.34521
701.6857, 97.40479
702.1678, 85.23193
702.6499, 68.69727
703.1320, 53.90234
703.6141, 39.32764
704.0963, 20.23096
704.5784, 18.39795
705.0605, 38.55713
705.5426, 25.31104
706.0247, 12.20020
706.5068, 33.41650
706.9890, 37.88623
707.4711, 32.36377
707.9532, 9.432129
708.4353, 18.67725
708.9174, 11.82666
709.3995, 26.15967
709.8817, 57.23486
710.3638, 45.71826
710.8459, 21.59814
711.3280, 14.70361
711.8101, 31.43799
712.2922, 34.73145
712.7744, 4.319336
713.2565, 46.58740
713.7386, 65.17969
714.2207, 48.65771
714.7028, 37.39746
715.1849, 31.27637
715.6671, 30.26270
716.1492, 37.78223
716.6313, 52.48730
717.1134, 54.04492
717.5955, 34.00098
718.0776, 16.39600
718.5598, 41.81348
719.0419, 89.93799
719.5240, 121.3652
720.0061, 116.7378
720.4882, 99.05615
720.9703, 66.95312
721.4525, 30.04639
721.9346, 10.10303
722.4167, 17.32959
722.8988, 32.60303
723.3809, 58.13379
723.8630, 88.59424
724.3452, 99.22998
724.8273, 86.95215
725.3094, 77.61475
725.7915, 85.87891
726.2736, 104.9775
726.7557, 121.9224
727.2379, 135.5098
727.7200, 137.1885
728.2021, 102.4238
728.6842, 67.19775
729.1663, 68.32812
729.6484, 110.2188
730.1306, 137.7437
730.6127, 121.7842
731.0948, 98.01074
731.5769, 87.42139
732.0590, 95.75391
732.5411, 91.82324
733.0233, 73.05273
733.5054, 47.76953
733.9875, 16.84521
734.4696, 16.79834
734.9517, 25.44629
735.4338, 2.625488
735.9160, 23.60693
736.3981, 34.20215
736.8802, 26.99365
737.3623, 5.402832
737.8444, 87.53125
738.3266, 151.6553
738.8087, 155.4365
739.2908, 132.0645
739.7729, 129.6416
740.2551, 158.2085
740.7372, 194.1724
741.2193, 241.1851
741.7014, 288.8813
742.1835, 305.2310
742.6656, 289.4897
743.1478, 302.2646
743.6299, 375.3467
744.1120, 471.5137
744.5941, 540.1348
745.0762, 583.5864
745.5583, 611.7383
746.0405, 600.7397
746.5226, 601.5537
747.0047, 651.7642
747.4868, 742.6270
747.9689, 820.1548
748.4510, 866.8638
748.9332, 912.9302
749.4153, 972.0054
749.8974, 1040.937
750.3795, 1079.886
750.8616, 1084.019
751.3438, 1094.195
751.8259, 1149.342
752.3080, 1226.321
752.7901, 1264.308
753.2722, 1263.854
753.7543, 1269.809
754.2365, 1331.431
754.7186, 1399.650
755.2007, 1427.028
755.6828, 1397.203
756.1649, 1392.463
756.6470, 1445.813
757.1292, 1510.216
757.6113, 1557.961
758.0934, 1584.697
758.5755, 1616.422
759.0576, 1654.816
759.5397, 1694.875
760.0219, 1730.877
760.5040, 1764.115
760.9861, 1796.186
761.4682, 1825.432
761.9503, 1861.002
762.4324, 1916.535
762.9146, 1979.591
763.3967, 2035.889
763.8788, 2070.754
764.3609, 2118.806
764.8430, 2190.056
765.3251, 2272.620
765.8073, 2354.219
766.2894, 2432.430
766.7715, 2517.887
767.2536, 2613.966
767.7357, 2716.332
768.2178, 2815.481
768.7000, 2913.812
769.1821, 3021.539
769.6642, 3143.927
770.1463, 3277.322
770.6284, 3429.317
771.1105, 3586.136
771.5927, 3723.877
772.0748, 3786.061
772.5569, 3891.136
773.0390, 4095.729
773.5211, 4354.738
774.0032, 4552.828
774.4854, 4678.873
774.9675, 4781.135
775.4496, 4862.291
775.9317, 4941.010
776.4138, 5075.564
776.8959, 5252.360
777.3781, 5412.749
777.8602, 5504.354
778.3423, 5587.479
778.8244, 5724.667
779.3065, 5902.256
779.7886, 6058.845
780.2708, 6153.719
780.7529, 6244.721
781.2350, 6349.714
781.7171, 6467.790
782.1992, 6601.094
782.6813, 6757.400
783.1635, 6898.384
783.6456, 6991.319
784.1277, 7053.562
784.6098, 7148.644
785.0919, 7274.174
785.5740, 7407.918
786.0562, 7545.197
786.5383, 7682.018
787.0204, 7810.576
787.5025, 7929.959
787.9846, 8048.477
788.4667, 8170.006
788.9489, 8293.194
789.4310, 8415.644
789.9131, 8534.598
790.3952, 8674.010
790.8773, 8838.716
791.3594, 8998.639
791.8416, 9116.479
792.3237, 9211.968
792.8058, 9338.339
793.2879, 9499.036
793.7700, 9674.167
794.2521, 9871.060
794.7343, 10063.67
795.2164, 10225.61
795.6985, 10349.73
796.1806, 10468.45
796.6627, 10577.41
797.1448, 10692.64
797.6270, 10826.67
798.1091, 10983.37
798.5912, 11127.74
799.0733, 11260.62
799.5554, 11382.72
800.0375, 11482.11
800.5197, 11573.35
801.0018, 11681.69
801.4839, 11808.72
801.9660, 11964.42
802.4481, 12176.02
802.9302, 12405.83
803.4124, 12620.42
803.8945, 12798.24
804.3766, 12998.21
804.8587, 13215.92
805.3408, 13461.41
805.8229, 13743.93
806.3051, 14063.45
806.7872, 14423.80
807.2693, 14833.67
807.7514, 15240.66
808.2335, 15585.01
808.7156, 15898.41
809.1978, 16228.65
809.6799, 16588.21
810.1620, 16956.41
810.6441, 17298.97
811.1262, 17662.77
811.6083, 18093.52
812.0905, 18633.93
812.5726, 19144.79
813.0547, 19604.46
813.5368, 20060.99
814.0189, 20565.71
814.5010, 21115.11
814.9832, 21689.09
815.4653, 22279.82
815.9474, 22900.57
816.4295, 23552.66
816.9116, 24252.18
817.3937, 25020.92
817.8759, 25851.35
818.3580, 26764.13
818.8401, 27787.07
819.3222, 28870.44
819.8043, 29986.74
820.2864, 31144.86
820.7686, 32295.90
821.2507, 33419.52
821.7328, 34553.87
822.2149, 35738.86
822.6970, 36955.82
823.1791, 38169.75
823.6613, 39343.20
824.1434, 40570.88
824.6255, 41949.23
825.1076, 43390.84
825.5897, 44775.18
826.0718, 46113.11
826.5540, 47375.00
827.0361, 48642.73
827.5182, 49763.17
828.0003, 50634.80
828.4824, 51248.93
828.9645, 51394.25
829.4467, 51042.35
829.9288, 50187.48
830.4109, 48761.43
830.8930, 46856.20
831.3751, 44562.03
831.8572, 41826.79
832.3394, 38921.95
832.8215, 35768.98
833.3036, 32558.23
833.7857, 29449.52
834.2678, 26438.40
834.7499, 23644.78
835.2321, 21085.12
835.7142, 18769.22
836.1963, 16734.07
836.6784, 14946.13
837.1605, 13351.17
837.6426, 11957.12
838.1248, 10734.53
838.6069, 9701.359
839.0890, 8810.064
839.5711, 8025.284
840.0532, 7363.787
840.5353, 6768.657
841.0175, 6244.864
841.4996, 5771.316
841.9817, 5332.081
842.4638, 4925.091
842.9459, 4564.168
843.4280, 4250.929
843.9102, 3969.843
844.3923, 3724.359
844.8744, 3498.039
845.3565, 3259.812
845.8386, 2987.348
846.3207, 2748.125
846.8029, 2589.527
847.2850, 2465.433
847.7671, 2332.439
848.2492, 2175.353
848.7313, 2049.375
849.2134, 1962.224
849.6956, 1889.685
850.1777, 1805.816
850.6598, 1715.503
851.1419, 1636.016
851.6240, 1569.433
852.1061, 1510.277
852.5883, 1451.758
853.0704, 1399.221
853.5525, 1360.192
854.0346, 1345.038
854.5167, 1310.016
854.9988, 1232.417
855.4810, 1161.057
855.9631, 1134.938
856.4452, 1154.816
856.9273, 1166.077
857.4094, 1167.317
857.8915, 1161.866
858.3737, 1152.505
858.8558, 1138.413
859.3379, 1116.114
859.8200, 1084.703
860.3021, 1057.070
860.7842, 1037.261
861.2664, 1024.637
861.7485, 1022.997
862.2306, 1035.415
862.7127, 1021.931
863.1948, 976.1885
863.6769, 931.7480
864.1591, 921.5840
864.6412, 928.0186
865.1233, 904.5615
865.6054, 851.5977
866.0875, 798.1094
866.5696, 765.6895
867.0518, 733.8848
867.5339, 690.5576
868.0160, 633.4961
868.4981, 568.2510
868.9802, 485.6074
869.4623, 414.1074
869.9445, 372.5000
870.4266, 353.2959
870.9087, 324.2920
871.3908, 285.1553
871.8729, 238.3418
872.3550, 169.5684
872.8372, 106.0996
873.3193, 76.89648
873.8014, 75.65527
874.2835, 68.00586
874.7656, 42.06348
875.2477, 13.25879
875.7299, 18.02441
876.2120, 48.49707
876.6941, 64.42480
877.1762, 65.66895
877.6583, 66.61328
878.1404, 78.08057
878.6226, 87.35889
879.1047, 70.24463
879.5869, 38.18555
880.0690, 18.64111
880.5511, 39.03662
881.0332, 52.18457
881.5153, 39.72168
881.9974, 14.09961
882.4796, 2.903809
882.9617, 11.60010
883.4438, 12.04883
883.9259, 0.3994140
884.4080, 14.38281
884.8901, 8.702637
885.3723, 10.65088
885.8544, 29.65527
886.3365, 49.61768
886.8186, 57.54053
887.3007, 38.65381
887.7828, 7.628418
888.2650, 14.95947
888.7471, 26.35156
889.2292, 34.01562
889.7113, 36.53076
890.1934, 39.34814
890.6755, 53.97119
891.1577, 75.51660
891.6398, 87.18359
892.1219, 83.08594
892.6040, 79.37305
893.0861, 89.26074
893.5682, 104.2070
894.0504, 116.1313
894.5325, 123.0005
895.0146, 128.6401
895.4967, 132.9458
895.9788, 135.1387
896.4609, 136.2959
896.9431, 135.8750
897.4252, 126.7793
897.9073, 108.2456
898.3894, 93.44092
898.8715, 93.70654
899.3536, 100.6069
899.8358, 113.5483
900.3179, 134.4272
900.8000, 130.0981
901.2821, 75.27051
901.7642, 27.87109
902.2463, 19.38037
902.7285, 42.78760
903.2106, 42.38916
903.6927, 19.35254
904.1748, 4.429199
904.6569, 14.14258
905.1390, 19.48633
905.6212, 30.29248
906.1033, 45.65332
906.5854, 59.94092
907.0675, 69.80176
907.5496, 80.08838
908.0317, 90.02881
908.5139, 102.0796
908.9960, 131.8516
909.4781, 179.4839
909.9602, 199.2104
910.4423, 155.8779
910.9244, 107.3716
911.4066, 138.1538
911.8887, 211.9980
912.3708, 262.2959
912.8529, 240.5298
913.3350, 226.1021
913.8171, 234.6733
914.2993, 256.4932
914.7814, 280.8413
915.2635, 308.3848
915.7456, 333.2583
916.2277, 356.7217
916.7098, 370.3911
917.1920, 350.6689
917.6741, 319.6396
918.1562, 314.5356
918.6383, 354.7861
919.1204, 378.5186
919.6025, 343.1592
920.0847, 304.4448
920.5668, 304.4810
921.0489, 352.7031
921.5310, 370.1060
922.0131, 354.1455
922.4952, 327.7256
922.9774, 294.0464
923.4595, 269.4380
923.9416, 295.2666
924.4237, 368.0181
924.9058, 407.3198
925.3879, 343.3623
925.8701, 277.6211
926.3522, 253.1865
926.8343, 265.1226
927.3164, 277.2856
927.7985, 290.9609
928.2806, 293.2202
928.7628, 272.5366
929.2449, 242.6758
929.7270, 220.1792
930.2091, 206.0742
930.6912, 202.3569
931.1733, 218.4116
931.6555, 235.4253
932.1376, 250.4497
932.6197, 261.9932
933.1018, 266.7554
933.5839, 264.6040
934.0660, 255.9990
934.5482, 240.0186
935.0303, 221.4517
935.5124, 200.9058
935.9945, 183.4077
936.4766, 180.7192
936.9587, 205.4229
937.4409, 221.0435
937.9230, 201.3506
938.4051, 177.1338
938.8872, 175.8145
939.3693, 205.4688
939.8514, 211.8008
940.3336, 190.7295
940.8157, 172.2710
941.2978, 191.4810
941.7799, 224.0400
942.2620, 232.3013
942.7441, 215.6855
943.2263, 199.8643
943.7084, 191.5967
944.1905, 189.2812
944.6726, 193.1602
945.1547, 202.3511
945.6368, 212.6816
946.1190, 223.7661
946.6011, 228.6582
947.0832, 219.5190
947.5653, 207.9980
948.0474, 213.9956
948.5295, 228.6680
949.0117, 232.4111
949.4938, 204.2676
949.9759, 184.9136
950.4580, 183.6948
950.9401, 192.1689
951.4222, 202.7671
951.9044, 216.1118
952.3865, 211.0361
952.8686, 179.6460
953.3507, 151.5176
953.8328, 170.6021
954.3149, 206.0825
954.7971, 218.3774
955.2792, 195.1670
955.7613, 168.1431
956.2434, 130.1533
956.7255, 102.7661
957.2076, 107.1543
957.6898, 141.3428
958.1719, 141.6313
958.6540, 110.0317
959.1361, 76.16455
959.6182, 50.29980
960.1003, 33.90186
960.5825, 30.92578
961.0646, 40.89453
961.5467, 54.28760
962.0288, 77.11719
962.5109, 88.91992
962.9930, 78.80762
963.4752, 59.68896
963.9573, 65.89844
964.4394, 93.51855
964.9215, 120.6807
965.4036, 144.8359
965.8857, 156.8296
966.3679, 138.1543
966.8500, 107.8442
967.3321, 90.75195
967.8142, 102.7388
968.2963, 104.1465
968.7784, 88.51953
969.2606, 74.58203
969.7427, 87.38184
970.2248, 116.8823
970.7069, 121.3994
971.1890, 98.16113
971.6711, 81.54443
972.1533, 113.9370
972.6354, 144.1387
973.1175, 125.2432
973.5996, 58.33789
974.0817, 38.15967
974.5638, 80.21680
975.0460, 113.1499
975.5281, 100.1621
976.0102, 66.16943
976.4923, 68.33594
976.9744, 94.78857
977.4565, 110.6567
977.9387, 90.14551
978.4208, 68.83496
978.9029, 51.80518
979.3850, 44.87402
979.8671, 60.39795
980.3492, 104.5200
980.8314, 135.0913
981.3135, 147.4233
981.7956, 146.3452
982.2777, 125.3872
982.7598, 99.90918
983.2419, 94.17334
983.7241, 114.0586
984.2062, 133.7173
984.6883, 157.1162
985.1704, 165.3296
985.6525, 140.9424
986.1346, 89.72461
986.6168, 79.15967
987.0989, 107.9595
987.5810, 135.5161
988.0631, 144.1665
988.5452, 136.2812
989.0273, 98.58545
989.5095, 46.81689
989.9916, 22.46045
990.4737, 63.26953
990.9558, 82.26074
991.4379, 57.46826
991.9200, 23.59863
992.4022, 48.19482
992.8843, 113.4536
993.3664, 137.2769
993.8485, 97.81348
994.3306, 58.62256
994.8127, 66.16650
995.2949, 91.98291
995.7770, 113.1460
996.2591, 128.2271
996.7412, 137.3340
997.2233, 141.6968
997.7054, 137.9292
998.1876, 117.8130
998.6697, 90.13672
999.1518, 76.32471
999.6339, 73.72803
1000.116, 70.31396
1000.598, 53.01807
1001.080, 42.27588
1001.562, 49.31494
1002.044, 65.61670
1002.527, 76.12549
1003.009, 80.24951
1003.491, 89.14209
1003.973, 106.8608
1004.455, 120.2266
1004.937, 110.8164
1005.419, 89.72266
1005.901, 70.83984
1006.384, 56.98096
1006.866, 43.45801
1007.348, 20.78418
1007.830, 10.72705
1008.312, 34.81348
1008.794, 83.77100
1009.276, 96.30908
1009.758, 76.64697
1010.240, 60.37109
1010.723, 79.92285
1011.205, 97.34180
1011.687, 83.93262
1012.169, 51.18311
1012.651, 29.22949
1013.133, 14.67822
1013.615, 26.91895
1014.097, 79.03320
1014.580, 130.7949
1015.062, 111.2778
1015.544, 56.03662
1016.026, 36.18311
1016.508, 71.72900
1016.990, 100.3086
1017.472, 82.71387
1017.954, 64.30762
1018.436, 76.12305
1018.919, 116.1143
1019.401, 128.0713
1019.883, 111.8955
1020.365, 94.34131
1020.847, 87.58105
1021.329, 89.06689
1021.811, 104.2715
1022.293, 125.8682
1022.776, 135.2222
1023.258, 118.3901
1023.740, 105.6299
1024.222, 99.53076
1024.704, 100.4502
1025.186, 109.8818
1025.668, 125.7310
1026.150, 143.6548
1026.632, 164.2705
1027.115, 168.4321
1027.597, 119.5435
1028.079, 72.02734
1028.561, 66.79492
1029.043, 101.5752
1029.525, 127.9644
1030.007, 145.7119
1030.489, 156.3892
1030.972, 156.8047
1031.454, 154.1504
1031.936, 164.1226
1032.418, 179.8496
1032.900, 184.2563
1033.382, 154.3657
1033.864, 137.5093
1034.346, 142.1719
1034.828, 158.2466
1035.311, 177.9072
1035.793, 198.5811
1036.275, 190.5420
1036.757, 151.1729
1037.239, 123.6538
1037.721, 156.4253
1038.203, 197.1729
1038.685, 205.9199
1039.167, 184.9307
1039.650, 173.3633
1040.132, 172.1641
1040.614, 177.0415
1041.096, 189.1392
1041.578, 203.5986
1042.060, 208.8447
1042.542, 209.3594
1043.024, 212.3071
1043.507, 222.5991
1043.989, 229.2563
1044.471, 222.5225
1044.953, 221.1113
1045.435, 248.0322
1045.917, 298.9312
1046.399, 310.4927
1046.881, 283.8496
1047.364, 260.5225
1047.846, 282.9692
1048.328, 308.3516
1048.810, 299.1665
1049.292, 265.1553
1049.774, 255.0640
1050.256, 277.1187
1050.738, 298.5664
1051.220, 313.4653
1051.703, 323.5908
1052.185, 323.3057
1052.667, 319.1499
1053.149, 328.9297
1053.631, 362.9648
1054.113, 377.5991
1054.595, 344.3237
1055.077, 307.9585
1055.559, 288.9785
1056.042, 287.0806
1056.524, 308.8286
1057.006, 345.5195
1057.488, 355.2295
1057.970, 293.5200
1058.452, 232.8188
1058.934, 226.0200
1059.416, 248.6909
1059.899, 254.3105
1060.381, 240.0381
1060.863, 211.4243
1061.345, 164.9546
1061.827, 121.3110
1062.309, 103.0728
1062.791, 100.2471
1063.273, 100.7285
1063.755, 103.0811
1064.238, 102.4536
1064.720, 94.63232
1065.202, 87.24316
1065.684, 82.40820
1066.166, 79.90967
1066.648, 78.62500
1067.130, 78.56006
1067.612, 80.60840
1068.094, 86.58398
1068.577, 91.16699
1069.059, 88.74072
1069.541, 84.90869
1070.023, 86.99316
1070.505, 98.62695
1070.987, 90.81934
1071.469, 61.06836
1071.951, 36.35547
1072.434, 44.51465
1072.916, 60.96533
1073.398, 51.90674
1073.880, 25.31299
1074.362, 11.24658
1074.844, 26.65723
1075.326, 36.31934
1075.808, 34.13330
1076.291, 27.73584
1076.773, 27.93506
1077.255, 32.79932
1077.737, 36.66943
1078.219, 38.59863
1078.701, 41.54834
1079.183, 53.95361
1079.665, 60.24805
1080.147, 51.97949
1080.630, 31.36963
1081.112, 7.440918
1081.594, 19.34131
1082.076, 32.14600
1082.558, 19.00244
1083.040, 0.2988280
1083.522, 5.244629
1084.004, 5.481934
1084.486, 11.73486
1084.969, 30.75537
1085.451, 39.12500
1085.933, 34.43408
1086.415, 27.91064
1086.897, 26.91309
1087.379, 30.51270
1087.861, 41.30273
1088.343, 55.77979
1088.826, 61.03223
1089.308, 38.10791
1089.790, 25.89551
1090.272, 38.90039
1090.754, 56.30615
1091.236, 36.67627
1091.718, 9.049805
1092.200, 27.06689
1092.682, 7.600586
1093.165, 14.56152
1093.647, 17.55176
1094.129, 16.33740
1094.611, 20.41113
1095.093, 29.03711
1095.575, 36.36230
1096.057, 42.40137
1096.539, 47.62695
1097.022, 55.18799
1097.504, 55.84375
1097.986, 28.03223
1098.468, 7.604004
1098.950, 21.18262
1099.432, 1.202637
1099.914, 21.68604
1100.396, 41.60107
1100.879, 54.17969
1101.361, 50.28857
1101.843, 37.46924
1102.325, 31.71045
1102.807, 30.39062
1103.289, 23.37109
1103.771, 9.766602
1104.253, 25.36865
1104.735, 12.41406
1105.218, 15.03271
1105.700, 39.83740
1106.182, 62.19727
1106.664, 87.14453
1107.146, 115.7959
1107.628, 122.5693
1108.110, 67.32373
1108.592, 10.17090
1109.074, 17.62158
1109.557, 19.34473
1110.039, 0.9038090
1110.521, 43.75488
1111.003, 71.63818
1111.485, 71.68945
1111.967, 58.59717
1112.449, 45.51025
1112.931, 27.20264
1113.414, 11.06006
1113.896, 84.33105
1114.378, 90.21631
1114.860, 11.92578
1115.342, 60.40479
1115.824, 70.95508
1116.306, 49.13770
1116.788, 30.32568
1117.271, 17.33105
1117.753, 16.28809
1118.235, 41.97607
1118.717, 61.21826
1119.199, 71.12842
1119.681, 75.86719
1120.163, 77.21387
1120.645, 77.02783
1121.127, 83.65820
1121.609, 96.05566
1122.092, 101.1782
1122.574, 91.10840
1123.056, 73.58984
1123.538, 44.18457
1124.020, 13.93408
1124.502, 2.155273
1124.984, 8.659180
1125.466, 40.16455
1125.949, 102.1235
1126.431, 147.2339
1126.913, 132.8452
1127.395, 96.79980
1127.877, 58.41309
1128.359, 21.03223
1128.841, 10.33105
1129.323, 28.77686
1129.806, 46.62451
1130.288, 54.59229
1130.770, 55.46191
1131.252, 47.30322
1131.734, 35.22363
1132.216, 24.22168
1132.698, 9.955566
1133.180, 20.69141
1133.662, 64.46338
1134.145, 98.67285
1134.627, 86.67871
1135.109, 55.03467
1135.591, 43.19873
1136.073, 46.24023
1136.555, 50.60156
1137.037, 58.38281
1137.519, 57.87842
1138.001, 44.52490
1138.484, 31.06641
1138.966, 33.23340
1139.448, 44.43359
1139.930, 49.80322
1140.412, 50.59912
1140.894, 51.97559
1141.376, 47.44629
1141.858, 56.01074
1142.341, 93.28516
1142.823, 134.5117
1143.305, 128.0498
1143.787, 84.13428
1144.269, 43.72217
1144.751, 11.86035
1145.233, 4.512695
1145.715, 66.07715
1146.198, 118.1841
1146.680, 111.6514
1147.162, 61.71729
1147.644, 38.90088
1148.126, 42.74121
1148.608, 57.22510
1149.090, 85.03564
1149.572, 104.5278
1150.054, 88.28271
1150.536, 64.65869
1151.019, 59.70801
1151.501, 75.53809
1151.983, 83.83398
1152.465, 84.39307
1152.947, 78.93555
1153.429, 61.89062
1153.911, 46.45459
1154.393, 49.31885
1154.876, 61.39355
1155.358, 66.07275
1155.840, 57.16406
1156.322, 57.83789
1156.804, 71.91602
1157.286, 81.97363
1157.768, 62.84326
1158.250, 40.84521
1158.733, 58.66211
1159.215, 104.0015
1159.697, 126.9048
1160.179, 109.7520
1160.661, 92.34131
1161.143, 78.15088
1161.625, 67.05664
1162.107, 62.13525
1162.589, 60.25488
1163.072, 51.59082
1163.554, 35.52295
1164.036, 23.09668
1164.518, 13.83838
1165.000, 14.54932
1165.482, 29.20947
1165.964, 51.12500
1166.446, 73.93604
1166.928, 92.02490
1167.411, 92.62646
1167.893, 71.38379
1168.375, 55.59521
1168.857, 61.65625
1169.339, 64.56006
1169.821, 50.58398
1170.303, 29.95654
1170.785, 37.07422
1171.268, 62.79150
1171.750, 73.97314
1172.232, 57.86768
1172.714, 56.03613
1173.196, 99.77734
1173.678, 135.4668
1174.160, 127.7217
1174.642, 84.05713
1175.125, 48.98975
1175.607, 23.04736
1176.089, 10.77686
1176.571, 23.57617
1177.053, 37.62305
1177.535, 43.29248
1178.017, 44.66211
1178.499, 46.56250
1178.981, 48.89258
1179.464, 36.31201
1179.946, 10.19287
1180.428, 5.744629
1180.910, 10.69531
1181.392, 33.28467
1181.874, 53.30029
1182.356, 67.94287
1182.838, 69.85303
1183.320, 58.19238
1183.803, 67.31934
1184.285, 100.8818
1184.767, 121.5029
1185.249, 90.25000
1185.731, 47.00391
1186.213, 8.945313
1186.695, 17.31787
1187.177, 10.37305
1187.660, 32.95703
1188.142, 58.51611
1188.624, 55.88623
1189.106, 46.53516
1189.588, 42.78223
1190.070, 45.43896
1190.552, 62.31006
1191.034, 88.72412
1191.516, 91.75391
1191.999, 68.96875
1192.481, 42.29004
1192.963, 14.03271
1193.445, 4.990234
1193.927, 5.603516
1194.409, 24.39795
1194.891, 25.68604
1195.373, 7.371094
1195.855, 14.45410
1196.338, 51.61963
1196.820, 71.64600
1197.302, 47.19824
1197.784, 16.48242
1198.266, 29.73535
1198.748, 57.10791
1199.230, 55.91162
1199.712, 13.51562
1200.195, 2.714355
1200.677, 27.91748
1201.159, 54.11523
1201.641, 63.97021
1202.123, 63.52490
1202.605, 54.65234
1203.087, 41.77246
1203.569, 32.89795
1204.052, 32.74609
1204.534, 20.61963
1205.016, 7.073730
1205.498, 25.69141
1205.980, 10.79004
1206.462, 16.19824
1206.944, 37.05566
1207.426, 49.74365
1207.908, 47.05273
1208.391, 19.71777
1208.873, 3.193359
1209.355, 1.688477
1209.837, 7.101563
1210.319, 46.33789
1210.801, 88.43750
1211.283, 97.90283
1211.765, 82.17285
1212.247, 70.94043
1212.730, 72.79980
1213.212, 55.65234
1213.694, 9.698730
1214.176, 23.69971
1214.658, 17.63281
1215.140, 77.19775
1215.622, 85.63037
1216.104, 48.89893
1216.587, 24.90332
1217.069, 19.90771
1217.551, 19.42188
1218.033, 21.71191
1218.515, 25.44971
1218.997, 29.64111
1219.479, 33.81641
1219.961, 36.99463
1220.443, 39.25146
1220.926, 42.35547
1221.408, 45.35547
1221.890, 54.41162
1222.372, 73.55029
1222.854, 89.94629
1223.336, 84.82031
1223.818, 71.54590
1224.300, 62.12012
1224.782, 59.20117
1225.265, 54.17139
1225.747, 45.49609
1226.229, 42.73779
1226.711, 51.18994
1227.193, 60.19824
1227.675, 56.59521
1228.157, 46.30811
1228.639, 36.09180
1229.122, 26.74121
1229.604, 13.67529
1230.086, 5.466309
1230.568, 12.08105
1231.050, 5.342285
1231.532, 29.16553
1232.014, 43.86572
1232.496, 50.31885
1232.979, 47.11865
1233.461, 32.44043
1233.943, 29.86182
1234.425, 40.56104
1234.907, 52.65137
1235.389, 64.47754
1235.871, 68.89258
1236.353, 50.68701
1236.835, 25.38281
1237.318, 14.98389
1237.800, 23.06396
1238.282, 25.61328
1238.764, 23.42529
1239.246, 20.18555
1239.728, 12.54053
1240.210, 11.23047
1240.692, 32.63916
1241.175, 62.52344
1241.657, 79.47998
1242.139, 80.58545
1242.621, 87.87695
1243.103, 102.9746
1243.585, 111.0996
1244.067, 92.98389
1244.549, 74.62012
1245.031, 74.77246
1245.514, 85.02686
1245.996, 94.30273
1246.478, 104.1479
1246.960, 99.32959
1247.442, 80.55664
1247.924, 66.78271
1248.406, 79.94580
1248.888, 90.91162
1249.370, 78.86768
1249.853, 57.63184
1250.335, 43.75879
1250.817, 37.29590
1251.299, 37.79736
1251.781, 44.42529
1252.263, 50.29688
1252.745, 65.06934
1253.227, 69.82422
1253.710, 41.33105
1254.192, 11.58447
1254.674, 32.30371
1255.156, 92.93701
1255.638, 116.3184
1256.120, 100.1602
1256.602, 74.49365
1257.084, 42.29834
1257.567, 30.00000
1258.049, 54.90771
1258.531, 91.08350
1259.013, 104.6670
1259.495, 98.85010
1259.977, 77.49316
1260.459, 43.83643
1260.941, 26.36475
1261.423, 56.48926
1261.906, 80.02490
1262.388, 85.10303
1262.870, 78.22705
1263.352, 59.29883
1263.834, 38.47949
1264.316, 46.82178
1264.798, 83.30615
1265.280, 104.2642
1265.762, 82.80615
1266.245, 62.63965
1266.727, 50.09326
1267.209, 44.52979
1267.691, 47.39111
1268.173, 55.54150
1268.655, 65.46094
1269.137, 76.47314
1269.619, 82.42627
1270.102, 80.37109
1270.584, 81.16992
1271.066, 88.28418
1271.548, 94.75537
1272.030, 92.34473
1272.512, 83.88086
1272.994, 67.65283
1273.476, 45.87988
1273.958, 44.96045
1274.441, 73.71289
1274.923, 77.21240
1275.405, 36.32422
1275.887, 8.5449003E-02
1276.369, 38.12744
1276.851, 90.99561
1277.333, 98.24023
1277.815, 64.98242
1278.297, 39.68994
1278.780, 22.41162
1279.262, 19.15283
1279.744, 34.60156
1280.226, 44.51025
1280.708, 11.95068
1281.190, 17.03125
1281.672, 1.4650000E-03
1282.154, 46.17920
1282.637, 55.21777
1283.119, 32.34619
1283.601, 28.69531
1284.083, 57.45410
1284.565, 88.85742
1285.047, 115.8184
1285.529, 126.7969
1286.011, 110.9263
1286.494, 81.22559
1286.976, 76.01172
1287.458, 88.45898
1287.940, 98.51855
1288.422, 101.1709
1288.904, 103.4009
1289.386, 109.3110
1289.868, 105.8481
1290.350, 105.2183
1290.833, 102.9961
1291.315, 98.62158
1291.797, 93.79102
1292.279, 93.09961
1292.761, 98.41943
1293.243, 98.50732
1293.725, 94.62402
1294.207, 77.21387
1294.689, 35.06055
1295.172, 3.003906
1295.654, 13.69287
1296.136, 56.69727
1296.618, 90.83691
1297.100, 68.64551
1297.582, 44.13525
1298.064, 0.0000000E+00
##END=



