##NAMES=Coquimbite
##RRUFFID=R070666
##IDEAL CHEMISTRY=Fe^3+^_2_(SO_4_)_3_&#183;9H_2_O
##LOCALITY=United Verde Mine, Jerome, Verde District, Black Hills (Black Hill Range), Yavapai County, Arizona, USA
##OWNER=RRUFF
##SOURCE=Michael Scott
##DESCRIPTION=Massive, globular, chalky-white; associated with yellow copiapite
##STATUS=The identification of this mineral has been confirmed by X-ray diffraction.
##URL=rruff.info/R070666
158.8235, 0.0000000E+00
159.3056, 10.94409
159.7877, 7.205811
160.2698, 25.40308
160.7519, 29.53442
161.2340, 10.98364
161.7162, 5.850830
162.1983, 6.926758
162.6804, 34.44873
163.1625, 74.22266
163.6446, 84.84473
164.1267, 59.62256
164.6089, 45.18066
165.0910, 75.32666
165.5731, 128.4775
166.0552, 169.9419
166.5373, 168.9341
167.0194, 160.5562
167.5016, 169.8486
167.9837, 203.4751
168.4658, 247.2666
168.9479, 299.9521
169.4300, 357.3828
169.9121, 407.6504
170.3943, 445.8267
170.8764, 472.3950
171.3585, 486.2485
171.8406, 477.6812
172.3227, 466.9243
172.8048, 473.6118
173.2870, 495.6694
173.7691, 517.0508
174.2512, 525.5615
174.7333, 526.5396
175.2154, 527.9624
175.6975, 536.2319
176.1797, 544.4014
176.6618, 542.5479
177.1439, 530.0791
177.6260, 516.5151
178.1081, 511.5625
178.5902, 512.4780
179.0724, 511.8828
179.5545, 498.1499
180.0366, 482.3633
180.5187, 487.1831
181.0008, 517.7417
181.4829, 554.2573
181.9651, 580.6821
182.4472, 595.7939
182.9293, 592.5874
183.4114, 548.3286
183.8935, 481.5449
184.3756, 445.7485
184.8578, 459.3115
185.3399, 490.6079
185.8220, 487.0562
186.3041, 449.6973
186.7862, 403.3462
187.2683, 360.2383
187.7504, 322.0635
188.2326, 294.6748
188.7147, 279.4844
189.1968, 280.3901
189.6789, 302.6763
190.1610, 340.0439
190.6431, 380.0381
191.1253, 419.0933
191.6074, 451.9102
192.0895, 482.3931
192.5716, 512.0303
193.0537, 540.4893
193.5358, 569.9058
194.0180, 600.5278
194.5001, 635.0923
194.9822, 675.3550
195.4643, 721.5610
195.9464, 778.1426
196.4285, 857.0186
196.9107, 955.3345
197.3928, 1027.404
197.8749, 1066.459
198.3570, 1089.567
198.8391, 1130.359
199.3212, 1192.577
199.8034, 1246.365
200.2855, 1273.909
200.7676, 1273.415
201.2497, 1270.013
201.7318, 1266.500
202.2139, 1259.947
202.6961, 1238.739
203.1782, 1197.934
203.6603, 1159.922
204.1424, 1142.681
204.6245, 1149.679
205.1066, 1151.273
205.5888, 1137.222
206.0709, 1114.998
206.5530, 1125.610
207.0351, 1178.348
207.5172, 1242.127
207.9993, 1295.751
208.4815, 1343.722
208.9636, 1362.972
209.4457, 1343.780
209.9278, 1288.005
210.4099, 1234.625
210.8920, 1188.590
211.3742, 1137.008
211.8563, 1062.435
212.3384, 957.7671
212.8205, 850.2900
213.3026, 744.4097
213.7847, 640.5420
214.2669, 543.1973
214.7490, 451.6685
215.2311, 367.2583
215.7132, 291.8784
216.1953, 226.8491
216.6774, 168.3159
217.1596, 116.8721
217.6417, 73.21045
218.1238, 35.23828
218.6059, 3.403320
219.0880, 22.89307
219.5701, 46.95898
220.0523, 71.16431
220.5344, 86.95825
221.0165, 88.88452
221.4986, 69.71753
221.9807, 57.36353
222.4628, 56.39380
222.9450, 62.01294
223.4271, 56.91528
223.9092, 34.11621
224.3913, 11.69434
224.8734, 0.9482420
225.3555, 7.854980
225.8377, 12.77441
226.3198, 16.39453
226.8019, 17.49805
227.2840, 6.921387
227.7661, 23.71191
228.2482, 55.13184
228.7303, 71.93945
229.2125, 64.43604
229.6946, 63.28467
230.1767, 73.67236
230.6588, 95.12158
231.1409, 116.5840
231.6230, 139.8398
232.1052, 161.3057
232.5873, 176.2979
233.0694, 177.7568
233.5515, 186.5718
234.0336, 209.4678
234.5157, 247.6567
234.9979, 277.5527
235.4800, 296.8789
235.9621, 310.2847
236.4442, 321.7236
236.9263, 325.5391
237.4084, 337.7612
237.8906, 366.5801
238.3727, 416.9182
238.8548, 449.3608
239.3369, 452.4617
239.8190, 445.9333
240.3011, 457.6404
240.7833, 499.1104
241.2654, 540.5020
241.7475, 572.9722
242.2296, 593.4751
242.7117, 616.5984
243.1938, 641.5674
243.6760, 669.4878
244.1581, 703.0437
244.6402, 746.2542
245.1223, 788.8223
245.6044, 826.8569
246.0865, 859.8250
246.5687, 890.1609
247.0508, 917.9255
247.5329, 942.8428
248.0150, 964.1301
248.4971, 980.1211
248.9792, 994.9849
249.4614, 1008.445
249.9435, 1013.698
250.4256, 1035.892
250.9077, 1087.763
251.3898, 1154.152
251.8719, 1187.861
252.3541, 1168.840
252.8362, 1147.313
253.3183, 1146.829
253.8004, 1169.670
254.2825, 1209.833
254.7646, 1276.610
255.2468, 1359.893
255.7289, 1419.093
256.2110, 1443.389
256.6931, 1460.402
257.1752, 1485.901
257.6573, 1522.040
258.1395, 1560.435
258.6216, 1598.314
259.1037, 1637.955
259.5858, 1692.682
260.0679, 1773.485
260.5500, 1852.623
261.0322, 1907.407
261.5143, 1925.292
261.9964, 1953.818
262.4785, 2001.354
262.9606, 2064.427
263.4427, 2123.022
263.9249, 2173.784
264.4070, 2225.503
264.8891, 2285.174
265.3712, 2352.956
265.8533, 2427.784
266.3354, 2511.491
266.8176, 2602.796
267.2997, 2698.694
267.7818, 2801.029
268.2639, 2903.299
268.7460, 2998.988
269.2281, 3087.685
269.7103, 3170.298
270.1924, 3240.583
270.6745, 3302.417
271.1566, 3392.949
271.6387, 3519.128
272.1208, 3659.252
272.6030, 3792.029
273.0851, 3916.563
273.5672, 4037.592
274.0493, 4153.522
274.5314, 4265.631
275.0135, 4390.020
275.4957, 4530.704
275.9778, 4673.168
276.4599, 4795.498
276.9420, 4892.066
277.4241, 5002.137
277.9063, 5141.109
278.3884, 5305.314
278.8705, 5446.220
279.3526, 5561.347
279.8347, 5662.615
280.3168, 5764.189
280.7990, 5866.929
281.2811, 5960.328
281.7632, 6051.506
282.2453, 6134.199
282.7274, 6157.890
283.2095, 6117.447
283.6917, 6034.265
284.1738, 5923.735
284.6559, 5786.248
285.1380, 5647.538
285.6201, 5518.781
286.1022, 5396.092
286.5844, 5250.355
287.0665, 5077.107
287.5486, 4894.702
288.0307, 4727.087
288.5128, 4573.573
288.9949, 4417.072
289.4771, 4250.131
289.9592, 4075.847
290.4413, 3896.603
290.9234, 3711.919
291.4055, 3530.776
291.8876, 3362.710
292.3697, 3208.533
292.8518, 3067.774
293.3340, 2945.282
293.8161, 2834.571
294.2982, 2721.141
294.7803, 2603.640
295.2624, 2490.845
295.7445, 2393.433
296.2267, 2306.594
296.7088, 2214.829
297.1909, 2102.722
297.6730, 1981.776
298.1551, 1878.988
298.6372, 1793.737
299.1194, 1720.986
299.6015, 1665.657
300.0836, 1622.225
300.5657, 1571.756
301.0478, 1487.007
301.5299, 1394.553
302.0121, 1342.903
302.4942, 1334.453
302.9763, 1333.095
303.4584, 1306.743
303.9405, 1263.906
304.4226, 1220.636
304.9048, 1183.693
305.3869, 1146.631
305.8690, 1102.460
306.3511, 1050.674
306.8332, 999.6743
307.3153, 955.6565
307.7975, 915.9634
308.2796, 876.7085
308.7617, 831.8501
309.2438, 788.8896
309.7259, 756.1641
310.2080, 733.4917
310.6902, 713.2131
311.1723, 689.6699
311.6544, 666.3203
312.1365, 647.4724
312.6186, 642.4956
313.1007, 636.3569
313.5829, 618.4265
314.0650, 588.4553
314.5471, 555.4580
315.0292, 519.5166
315.5113, 483.8276
315.9934, 451.9092
316.4756, 422.1880
316.9577, 398.8909
317.4398, 389.2429
317.9219, 393.2356
318.4040, 389.2419
318.8861, 362.5320
319.3683, 326.4465
319.8504, 293.6724
320.3325, 265.0728
320.8146, 242.9458
321.2967, 230.2852
321.7788, 227.0942
322.2610, 223.5996
322.7431, 218.3589
323.2252, 211.5564
323.7073, 203.3125
324.1894, 187.0959
324.6715, 176.3528
325.1537, 180.4309
325.6358, 198.4895
326.1179, 200.9419
326.6000, 165.9314
327.0821, 125.5449
327.5642, 101.7693
328.0464, 110.6689
328.5285, 117.6047
329.0106, 120.5281
329.4927, 119.4768
329.9748, 114.4470
330.4569, 102.4907
330.9391, 88.89404
331.4212, 76.81885
331.9033, 66.29297
332.3854, 57.88696
332.8675, 53.88330
333.3496, 52.92090
333.8318, 45.01050
334.3139, 24.99438
334.7960, 5.120605
335.2781, 6.965332
335.7602, 8.528564
336.2423, 7.653809
336.7245, 4.637451
337.2066, 0.5722660
337.6887, 7.609375
338.1708, 18.47070
338.6529, 26.81519
339.1350, 27.63818
339.6172, 18.82812
340.0993, 13.58911
340.5814, 14.76050
341.0635, 18.53101
341.5456, 13.78979
342.0277, 1.117432
342.5099, 16.00244
342.9920, 26.95166
343.4741, 34.05664
343.9562, 30.25391
344.4383, 11.35742
344.9204, 12.24731
345.4026, 21.02979
345.8847, 14.63452
346.3668, 5.370361
346.8489, 2.654297
347.3310, 8.743408
347.8131, 8.121826
348.2953, 1.296631
348.7774, 11.39331
349.2595, 6.942383
349.7416, 9.115234
350.2237, 18.43994
350.7058, 2.500000
351.1880, 24.68213
351.6701, 31.32031
352.1522, 13.85303
352.6343, 8.084717
353.1164, 16.80640
353.5985, 14.17407
354.0807, 5.105225
354.5628, 16.10132
355.0449, 38.85010
355.5270, 52.24341
356.0091, 55.98413
356.4912, 50.48535
356.9734, 24.99487
357.4555, 7.801270
357.9376, 27.61328
358.4197, 18.80347
358.9018, 0.4843750
359.3839, 20.06006
359.8661, 42.13989
360.3482, 52.50732
360.8303, 30.55811
361.3124, 1.248291
361.7945, 20.19067
362.2766, 5.064209
362.7588, 10.90894
363.2409, 12.14258
363.7230, 0.6452640
364.2051, 4.211182
364.6872, 11.32422
365.1693, 30.98901
365.6515, 43.53418
366.1336, 42.79541
366.6157, 39.15356
367.0978, 34.13794
367.5799, 27.60132
368.0620, 18.65430
368.5442, 3.901855
369.0263, 10.67725
369.5084, 22.23340
369.9905, 29.83301
370.4726, 35.42041
370.9547, 39.19653
371.4369, 40.89746
371.9190, 39.65942
372.4011, 33.75220
372.8832, 27.09790
373.3653, 20.99805
373.8474, 14.93262
374.3295, 10.96704
374.8116, 9.958252
375.2938, 10.38794
375.7759, 9.572754
376.2580, 7.473145
376.7401, 4.382324
377.2222, 0.2395020
377.7043, 5.065430
378.1865, 9.524658
378.6686, 12.48999
379.1507, 15.98315
379.6328, 22.94897
380.1149, 33.53516
380.5970, 45.61035
381.0792, 61.46094
381.5613, 78.46216
382.0434, 84.74634
382.5255, 79.73975
383.0076, 67.27319
383.4897, 45.70093
383.9719, 18.24487
384.4540, 1.329590
384.9361, 9.537354
385.4182, 6.841797
385.9003, 12.03833
386.3824, 45.91846
386.8646, 75.71582
387.3467, 86.26294
387.8288, 83.12524
388.3109, 74.68066
388.7930, 60.50903
389.2751, 45.74365
389.7573, 35.10400
390.2394, 28.13843
390.7215, 23.43677
391.2036, 23.99854
391.6857, 24.42188
392.1678, 18.14868
392.6500, 0.6345210
393.1321, 15.56836
393.6142, 12.44824
394.0963, 1.279053
394.5784, 10.64600
395.0605, 6.690430
395.5427, 2.3193000E-02
396.0248, 5.282715
396.5069, 9.567383
396.9890, 10.55786
397.4711, 9.100586
397.9532, 3.857178
398.4354, 7.105225
398.9175, 37.82666
399.3996, 60.32812
399.8817, 65.01343
400.3638, 49.68335
400.8459, 35.93823
401.3281, 19.89795
401.8102, 9.420654
402.2923, 13.15601
402.7744, 44.40332
403.2565, 64.47314
403.7386, 64.19580
404.2208, 46.74219
404.7029, 36.16675
405.1850, 35.71680
405.6671, 36.69678
406.1492, 30.97803
406.6313, 15.59375
407.1135, 13.09131
407.5956, 30.10181
408.0777, 55.67554
408.5598, 62.03247
409.0419, 47.32227
409.5240, 32.18823
410.0062, 30.63940
410.4883, 39.08130
410.9704, 40.01733
411.4525, 31.88208
411.9346, 22.31860
412.4167, 21.55640
412.8989, 27.59595
413.3810, 34.55444
413.8631, 40.01538
414.3452, 44.40527
414.8273, 49.73511
415.3094, 55.02515
415.7916, 55.07349
416.2737, 41.53979
416.7558, 23.46582
417.2379, 13.74365
417.7200, 24.05371
418.2021, 37.32959
418.6843, 42.12061
419.1664, 38.49170
419.6485, 32.04224
420.1306, 25.16821
420.6127, 20.17847
421.0948, 18.24780
421.5770, 20.37280
422.0591, 23.63770
422.5412, 31.57227
423.0233, 40.95605
423.5054, 44.07886
423.9875, 24.24561
424.4697, 10.36743
424.9518, 16.27271
425.4339, 57.36108
425.9160, 84.60938
426.3981, 91.15918
426.8802, 85.64038
427.3624, 80.78931
427.8445, 78.05054
428.3266, 74.36914
428.8087, 67.98315
429.2908, 58.81055
429.7729, 56.59497
430.2551, 65.55249
430.7372, 75.23169
431.2193, 72.63745
431.7014, 54.35010
432.1835, 47.35156
432.6656, 59.20947
433.1478, 83.98364
433.6299, 103.3518
434.1120, 116.8179
434.5941, 130.3157
435.0762, 150.5891
435.5583, 175.1216
436.0405, 192.6082
436.5226, 200.6404
437.0047, 203.8303
437.4868, 205.6121
437.9689, 207.0505
438.4510, 212.0442
438.9332, 221.2373
439.4153, 235.7971
439.8974, 260.6445
440.3795, 297.0996
440.8616, 329.3293
441.3438, 340.0403
441.8259, 341.0085
442.3080, 348.2646
442.7901, 370.1685
443.2722, 397.7556
443.7543, 429.2705
444.2365, 463.3477
444.7186, 494.9993
445.2007, 519.9666
445.6828, 543.3403
446.1649, 568.7051
446.6470, 598.0471
447.1292, 627.3369
447.6113, 659.0022
448.0934, 690.6628
448.5755, 715.9004
449.0576, 731.3972
449.5397, 744.3313
450.0219, 757.6201
450.5040, 773.1489
450.9861, 780.5610
451.4682, 777.5488
451.9503, 771.4155
452.4324, 770.4160
452.9146, 774.8291
453.3967, 783.4307
453.8788, 798.5505
454.3609, 817.4758
454.8430, 821.9209
455.3251, 809.6748
455.8072, 799.2935
456.2893, 810.8240
456.7715, 839.6880
457.2536, 861.4104
457.7357, 871.5986
458.2178, 873.3276
458.6999, 865.1084
459.1820, 850.1895
459.6642, 842.6160
460.1463, 860.5596
460.6284, 886.1318
461.1105, 895.5774
461.5926, 884.8354
462.0747, 871.4619
462.5569, 868.5654
463.0390, 870.1396
463.5211, 867.8523
464.0032, 846.7422
464.4853, 832.0347
464.9674, 842.9736
465.4496, 876.9124
465.9317, 896.4485
466.4138, 882.2202
466.8959, 856.9456
467.3780, 834.6494
467.8601, 804.9351
468.3423, 794.0610
468.8244, 815.5203
469.3065, 855.2617
469.7886, 875.9507
470.2707, 869.4746
470.7528, 856.9902
471.2350, 841.8477
471.7171, 820.8728
472.1992, 824.0940
472.6813, 860.1118
473.1634, 905.2056
473.6455, 927.4114
474.1277, 925.3389
474.6098, 929.4321
475.0919, 951.3186
475.5740, 982.3145
476.0561, 993.1196
476.5382, 984.0488
477.0204, 981.8760
477.5025, 1011.533
477.9846, 1062.294
478.4667, 1112.050
478.9488, 1158.071
479.4309, 1200.601
479.9131, 1235.737
480.3952, 1267.437
480.8773, 1304.912
481.3594, 1355.869
481.8415, 1411.241
482.3236, 1465.598
482.8058, 1518.022
483.2879, 1569.235
483.7700, 1616.460
484.2521, 1663.731
484.7342, 1714.839
485.2163, 1777.327
485.6985, 1835.042
486.1806, 1880.328
486.6627, 1917.210
487.1448, 1965.911
487.6269, 2035.624
488.1090, 2105.202
488.5912, 2166.383
489.0733, 2217.746
489.5554, 2265.800
490.0375, 2308.444
490.5196, 2352.483
491.0017, 2409.354
491.4839, 2482.473
491.9660, 2549.713
492.4481, 2605.496
492.9302, 2651.383
493.4123, 2689.169
493.8944, 2719.241
494.3766, 2748.079
494.8587, 2784.744
495.3408, 2823.787
495.8229, 2849.463
496.3050, 2853.333
496.7871, 2857.239
497.2693, 2891.617
497.7514, 2945.919
498.2335, 2992.429
498.7156, 3018.127
499.1977, 3031.746
499.6798, 3037.589
500.1620, 3035.367
500.6441, 3030.355
501.1262, 3026.134
501.6083, 3020.542
502.0904, 3011.190
502.5725, 3003.062
503.0547, 2983.008
503.5368, 2945.573
504.0189, 2894.138
504.5010, 2841.324
504.9831, 2795.491
505.4652, 2737.459
505.9474, 2657.681
506.4295, 2550.380
506.9116, 2448.560
507.3937, 2352.289
507.8758, 2260.236
508.3579, 2174.685
508.8401, 2096.021
509.3222, 2004.599
509.8043, 1886.049
510.2864, 1755.691
510.7685, 1658.487
511.2506, 1593.407
511.7328, 1532.640
512.2148, 1453.102
512.6970, 1364.537
513.1791, 1283.608
513.6612, 1212.861
514.1433, 1148.996
514.6254, 1091.368
515.1075, 1038.463
515.5897, 987.5264
516.0718, 942.2507
516.5539, 894.4678
517.0360, 835.0295
517.5181, 764.7954
518.0002, 707.8110
518.4824, 680.2361
518.9645, 661.9233
519.4466, 640.2368
519.9287, 614.0264
520.4108, 583.8621
520.8929, 546.3848
521.3751, 506.5769
521.8572, 474.4678
522.3393, 450.9348
522.8214, 433.6064
523.3035, 425.3875
523.7856, 425.5483
524.2678, 409.8872
524.7499, 375.3071
525.2320, 337.3171
525.7141, 312.3936
526.1962, 298.2002
526.6783, 278.5869
527.1605, 247.7109
527.6426, 216.3381
528.1247, 202.2449
528.6068, 202.0522
529.0889, 202.1924
529.5710, 195.0728
530.0532, 184.9509
530.5353, 174.8313
531.0174, 164.7451
531.4995, 157.3555
531.9816, 155.1409
532.4637, 155.7161
532.9459, 156.7881
533.4280, 163.3936
533.9101, 164.1877
534.3922, 156.8755
534.8743, 142.0706
535.3564, 121.3857
535.8386, 80.63940
536.3207, 51.06958
536.8028, 47.03369
537.2849, 73.75000
537.7670, 88.50635
538.2491, 89.86670
538.7313, 82.24609
539.2134, 64.05249
539.6955, 33.81421
540.1776, 23.57349
540.6597, 46.38965
541.1418, 83.70190
541.6240, 99.23242
542.1061, 94.26172
542.5882, 78.86987
543.0703, 49.91626
543.5524, 17.78979
544.0345, 2.211914
544.5167, 8.858154
544.9988, 7.479248
545.4809, 7.657715
545.9630, 25.11719
546.4451, 31.67212
546.9272, 10.11133
547.4094, 9.158936
547.8915, 14.68115
548.3736, 9.601807
548.8557, 4.986084
549.3378, 1.994873
549.8199, 0.1672360
550.3021, 0.9697270
550.7842, 1.963135
551.2663, 0.8242190
551.7484, 10.50513
552.2305, 20.01392
552.7126, 22.20239
553.1948, 16.37012
553.6769, 6.432129
554.1590, 9.841064
554.6411, 26.82861
555.1232, 30.02393
555.6053, 19.93286
556.0875, 6.609619
556.5696, 6.872070
557.0517, 18.99097
557.5338, 25.18384
558.0159, 24.94922
558.4980, 26.26636
558.9802, 40.13916
559.4623, 57.59131
559.9444, 66.72070
560.4265, 58.56055
560.9086, 49.11743
561.3907, 46.34595
561.8729, 47.11377
562.3550, 43.11670
562.8371, 29.43628
563.3192, 13.61035
563.8013, 4.426270
564.2834, 27.00391
564.7656, 33.70752
565.2477, 15.01709
565.7298, 7.547852
566.2119, 14.59839
566.6940, 3.220215
567.1761, 5.645508
567.6583, 8.415527
568.1404, 8.916504
568.6225, 16.68457
569.1046, 30.93018
569.5867, 41.53564
570.0688, 39.91846
570.5510, 33.04980
571.0331, 34.66309
571.5152, 44.52539
571.9973, 52.37402
572.4794, 46.73730
572.9615, 37.38818
573.4437, 34.85840
573.9258, 44.10596
574.4079, 55.23584
574.8900, 64.33789
575.3721, 72.94727
575.8542, 83.38867
576.3364, 98.64258
576.8185, 112.9536
577.3006, 124.0962
577.7827, 132.3071
578.2648, 143.5103
578.7469, 158.8154
579.2291, 174.9941
579.7112, 191.6333
580.1933, 209.4590
580.6754, 213.9370
581.1575, 198.9170
581.6396, 185.7593
582.1218, 210.8062
582.6039, 266.3428
583.0860, 316.0005
583.5681, 343.7769
584.0502, 362.0894
584.5323, 385.1699
585.0145, 412.1074
585.4966, 438.6748
585.9787, 460.6694
586.4608, 482.8652
586.9429, 508.4585
587.4250, 537.3271
587.9072, 570.7598
588.3893, 617.9570
588.8714, 665.7017
589.3535, 699.6958
589.8356, 703.9629
590.3177, 719.1987
590.7999, 756.2642
591.2820, 805.1758
591.7641, 834.6187
592.2462, 839.4736
592.7283, 844.1099
593.2104, 858.2720
593.6926, 881.3481
594.1747, 911.9053
594.6568, 951.0474
595.1389, 987.0269
595.6210, 1008.233
596.1031, 1018.726
596.5853, 1026.380
597.0674, 1033.131
597.5495, 1036.720
598.0316, 1033.134
598.5137, 1025.355
598.9958, 1018.937
599.4780, 1017.350
599.9601, 1016.162
600.4422, 1017.752
600.9243, 1021.454
601.4064, 1010.293
601.8885, 962.6597
602.3707, 920.0107
602.8528, 906.6904
603.3349, 937.7046
603.8170, 945.1968
604.2991, 922.0190
604.7813, 887.0459
605.2634, 864.6860
605.7455, 854.8633
606.2276, 840.2007
606.7097, 815.7505
607.1918, 784.5098
607.6740, 747.6675
608.1561, 707.0376
608.6382, 669.3091
609.1203, 643.7427
609.6024, 619.4873
610.0845, 581.7646
610.5667, 529.3672
611.0488, 491.4126
611.5309, 495.2603
612.0130, 509.9839
612.4951, 510.1821
612.9772, 469.9438
613.4594, 446.5386
613.9415, 451.6333
614.4236, 469.9106
614.9057, 476.5889
615.3878, 470.3159
615.8699, 457.0850
616.3521, 436.0972
616.8342, 408.5938
617.3163, 382.6592
617.7984, 358.5093
618.2805, 342.2007
618.7626, 347.2339
619.2448, 360.7305
619.7269, 351.3315
620.2090, 315.0791
620.6911, 276.7930
621.1732, 251.5254
621.6553, 237.3745
622.1375, 231.1343
622.6196, 236.7065
623.1017, 243.7954
623.5838, 253.4614
624.0659, 261.9722
624.5480, 259.1392
625.0302, 226.3794
625.5123, 202.3481
625.9944, 202.2329
626.4765, 225.1504
626.9586, 232.9102
627.4407, 220.5103
627.9229, 206.9131
628.4050, 208.2441
628.8871, 222.8115
629.3692, 228.6309
629.8513, 222.6187
630.3334, 213.9014
630.8156, 216.1431
631.2977, 223.2349
631.7798, 221.4531
632.2619, 200.6094
632.7440, 176.3511
633.2261, 157.7852
633.7083, 143.3345
634.1904, 134.9854
634.6725, 139.5352
635.1546, 144.6621
635.6367, 144.1680
636.1188, 136.8052
636.6010, 135.8862
637.0831, 143.3062
637.5652, 154.7437
638.0473, 169.8984
638.5294, 190.9116
639.0115, 197.3843
639.4937, 184.0688
639.9758, 166.3540
640.4579, 168.9370
640.9400, 187.1587
641.4221, 197.6157
641.9042, 189.3984
642.3864, 174.3423
642.8685, 163.1738
643.3506, 156.0811
643.8327, 154.0190
644.3148, 160.8555
644.7969, 171.8477
645.2791, 185.9980
645.7612, 202.0220
646.2433, 208.2422
646.7254, 197.5972
647.2075, 183.3296
647.6896, 172.7676
648.1718, 167.6304
648.6539, 160.4067
649.1360, 148.1221
649.6181, 137.8984
650.1002, 141.4307
650.5823, 158.2085
651.0645, 177.1758
651.5466, 202.2070
652.0287, 220.4062
652.5108, 195.4712
652.9929, 139.3184
653.4750, 100.4897
653.9572, 121.7104
654.4393, 155.6553
654.9214, 171.3525
655.4035, 167.5000
655.8856, 156.3623
656.3677, 125.3179
656.8499, 98.74854
657.3320, 95.54150
657.8141, 131.7490
658.2962, 149.7910
658.7783, 141.4204
659.2604, 124.4712
659.7426, 121.9102
660.2247, 135.3950
660.7067, 143.6011
661.1888, 141.9087
661.6710, 133.4463
662.1531, 119.8730
662.6352, 103.2114
663.1173, 92.13965
663.5994, 89.35840
664.0815, 95.31689
664.5637, 114.8081
665.0458, 145.7007
665.5279, 173.0571
666.0100, 193.2422
666.4921, 206.1133
666.9742, 212.0405
667.4564, 212.1162
667.9385, 199.7119
668.4206, 163.2612
668.9027, 125.9751
669.3848, 112.0034
669.8669, 125.5225
670.3491, 136.3037
670.8312, 141.3096
671.3133, 141.1948
671.7954, 134.5659
672.2775, 122.8184
672.7596, 113.5376
673.2418, 113.4399
673.7239, 113.6191
674.2060, 100.5908
674.6881, 78.48730
675.1702, 63.33057
675.6523, 71.84668
676.1345, 81.36670
676.6166, 77.50244
677.0987, 56.43506
677.5808, 44.16699
678.0629, 44.45215
678.5450, 51.33154
679.0272, 62.34863
679.5093, 80.13428
679.9914, 85.43262
680.4735, 76.03027
680.9556, 57.99707
681.4377, 31.26611
681.9199, 0.2124020
682.4020, 10.84570
682.8841, 14.68896
683.3662, 45.10742
683.8483, 41.99170
684.3304, 16.81201
684.8126, 2.632813
685.2947, 2.658203
685.7768, 4.159180
686.2589, 15.70020
686.7410, 31.05176
687.2231, 40.14990
687.7053, 39.09326
688.1874, 35.93066
688.6695, 35.19971
689.1516, 37.85938
689.6337, 29.00928
690.1158, 4.074707
690.5980, 15.56201
691.0801, 2.057617
691.5622, 35.13525
692.0443, 56.46924
692.5264, 53.74268
693.0085, 45.07910
693.4907, 45.77686
693.9728, 52.47949
694.4549, 59.82227
694.9370, 71.39600
695.4191, 77.16504
695.9012, 69.95947
696.3834, 54.01074
696.8655, 41.79443
697.3476, 35.26172
697.8297, 29.94873
698.3118, 23.09521
698.7939, 15.93018
699.2761, 22.23926
699.7582, 45.18018
700.2403, 60.82764
700.7224, 48.77344
701.2045, 18.72412
701.6866, 7.093750
702.1688, 27.79834
702.6509, 36.78271
703.1330, 19.05518
703.6151, 8.081543
704.0972, 26.92773
704.5793, 32.91943
705.0615, 33.12012
705.5436, 22.47754
706.0257, 9.869629
706.5078, 6.842285
706.9899, 21.63086
707.4720, 29.58008
707.9542, 27.02783
708.4363, 16.77002
708.9184, 1.959961
709.4005, 17.29541
709.8826, 30.79102
710.3647, 33.80322
710.8469, 29.10742
711.3290, 17.48682
711.8111, 0.2353520
712.2932, 12.19629
712.7753, 5.685059
713.2574, 3.310547
713.7396, 1.217285
714.2217, 13.86768
714.7038, 24.65430
715.1859, 16.11328
715.6680, 12.11426
716.1501, 28.93652
716.6323, 79.32520
717.1144, 99.67090
717.5965, 81.41064
718.0786, 53.56787
718.5607, 50.88379
719.0428, 68.53076
719.5250, 77.38037
720.0071, 71.16553
720.4892, 57.41455
720.9713, 38.00146
721.4534, 17.91553
721.9355, 6.402344
722.4177, 11.09375
722.8998, 20.60596
723.3819, 31.76318
723.8640, 44.72119
724.3461, 60.25928
724.8282, 86.30420
725.3104, 103.2900
725.7925, 103.1152
726.2746, 87.58740
726.7567, 76.93311
727.2388, 73.06592
727.7209, 70.32715
728.2031, 63.58984
728.6852, 55.66602
729.1673, 54.61182
729.6494, 60.41553
730.1315, 64.24756
730.6136, 55.07129
731.0958, 44.09033
731.5779, 41.88867
732.0600, 53.81006
732.5421, 63.18652
733.0242, 67.51270
733.5063, 67.67773
733.9885, 64.35791
734.4706, 58.06885
734.9527, 45.04053
735.4348, 21.01904
735.9169, 2.427734
736.3990, 3.000977
736.8812, 15.16309
737.3633, 28.07471
737.8454, 24.69922
738.3275, 18.50586
738.8096, 26.84082
739.2917, 43.69385
739.7739, 54.71582
740.2560, 45.35254
740.7381, 38.00000
741.2202, 43.01562
741.7023, 58.37793
742.1844, 65.25781
742.6666, 60.14648
743.1487, 52.31055
743.6308, 43.59229
744.1129, 34.47119
744.5950, 32.51758
745.0771, 37.84814
745.5593, 48.54102
746.0414, 74.01465
746.5235, 99.59326
747.0056, 94.92871
747.4877, 55.64404
747.9698, 21.61523
748.4520, 16.66943
748.9341, 26.60107
749.4162, 38.14111
749.8983, 51.01416
750.3804, 61.69531
750.8625, 71.94189
751.3447, 78.25195
751.8268, 75.31982
752.3089, 61.75488
752.7910, 49.95508
753.2731, 41.65674
753.7552, 35.59619
754.2374, 28.61621
754.7195, 22.22852
755.2016, 21.41260
755.6837, 33.88672
756.1658, 44.78076
756.6479, 36.40576
757.1301, 18.42773
757.6122, 14.11670
758.0943, 53.13232
758.5764, 78.58496
759.0585, 70.06494
759.5406, 34.97998
760.0228, 27.29248
760.5049, 58.02051
760.9870, 81.18848
761.4691, 68.08398
761.9512, 31.20996
762.4333, 14.32666
762.9155, 16.47754
763.3976, 27.46826
763.8797, 49.78467
764.3618, 71.46582
764.8439, 79.41113
765.3260, 71.57959
765.8082, 66.07129
766.2903, 73.16357
766.7724, 79.76025
767.2545, 78.96191
767.7366, 67.81152
768.2188, 48.28711
768.7009, 16.40479
769.1830, 11.90527
769.6651, 20.23486
770.1472, 12.10352
770.6293, 0.1196290
771.1115, 15.57324
771.5936, 30.07227
772.0757, 41.19238
772.5578, 47.92480
773.0399, 48.59521
773.5220, 35.35400
774.0042, 27.73730
774.4863, 37.46143
774.9684, 53.05225
775.4505, 56.99658
775.9326, 43.91211
776.4147, 32.58301
776.8969, 25.38477
777.3790, 22.39941
777.8611, 24.56445
778.3432, 31.56201
778.8253, 41.93555
779.3074, 61.66211
779.7896, 77.53564
780.2717, 72.46484
780.7538, 51.87256
781.2359, 31.50928
781.7180, 16.11914
782.2001, 3.103027
782.6823, 12.67725
783.1644, 28.40332
783.6465, 24.42041
784.1286, 8.321777
784.6107, 38.18359
785.0928, 50.83740
785.5750, 49.52441
786.0571, 47.23633
786.5392, 43.66699
787.0213, 39.48242
787.5034, 32.63281
787.9855, 26.75684
788.4677, 24.24219
788.9498, 25.29736
789.4319, 33.68750
789.9140, 64.62305
790.3961, 91.85449
790.8782, 99.37256
791.3604, 83.10303
791.8425, 66.90234
792.3246, 49.54883
792.8067, 36.16309
793.2888, 35.23584
793.7709, 42.70020
794.2531, 38.59229
794.7352, 20.01611
795.2173, 5.197754
795.6994, 16.85791
796.1815, 38.79346
796.6636, 51.80469
797.1458, 47.56396
797.6279, 44.34570
798.1100, 47.95605
798.5921, 53.71826
799.0742, 56.49707
799.5563, 54.00391
800.0385, 58.26709
800.5206, 74.41650
801.0027, 89.06543
801.4848, 77.92725
801.9669, 47.91260
802.4490, 23.24658
802.9312, 9.891113
803.4133, 6.116211
803.8954, 15.23438
804.3775, 31.63477
804.8596, 46.52295
805.3417, 58.56152
805.8239, 67.16016
806.3060, 70.85791
806.7881, 72.04053
807.2702, 76.20459
807.7523, 84.40918
808.2344, 88.59180
808.7166, 86.23682
809.1987, 78.85205
809.6808, 65.39697
810.1629, 48.59863
810.6450, 38.14795
811.1271, 44.06348
811.6093, 52.71777
812.0914, 55.13086
812.5735, 53.24805
813.0556, 55.07959
813.5377, 68.50684
814.0198, 77.33936
814.5020, 79.10010
814.9841, 72.89258
815.4662, 47.15820
815.9483, 0.5151370
816.4304, 30.73730
816.9125, 17.30566
817.3947, 18.71484
817.8768, 45.03955
818.3589, 61.48047
818.8410, 68.90332
819.3231, 60.79932
819.8052, 49.89453
820.2874, 41.53271
820.7695, 36.31494
821.2516, 36.96289
821.7337, 47.22998
822.2158, 56.58984
822.6979, 62.53125
823.1801, 63.94531
823.6622, 42.93066
824.1443, 0.2856450
824.6264, 27.84961
825.1085, 4.051758
825.5906, 56.59863
826.0727, 85.55664
826.5548, 88.00684
827.0369, 82.43457
827.5190, 67.01562
828.0012, 54.75879
828.4833, 53.57715
828.9654, 64.96924
829.4475, 69.99951
829.9296, 67.29297
830.4117, 62.56201
830.8939, 60.03271
831.3760, 59.07471
831.8581, 58.27881
832.3402, 57.61523
832.8223, 54.05225
833.3044, 39.42676
833.7866, 24.77100
834.2687, 19.93164
834.7508, 28.74268
835.2329, 38.42725
835.7150, 51.60938
836.1971, 61.26318
836.6793, 60.99854
837.1614, 49.85059
837.6435, 47.76758
838.1256, 56.66699
838.6077, 66.42676
839.0898, 67.03760
839.5720, 61.92920
840.0541, 55.89502
840.5362, 48.57178
841.0183, 42.16357
841.5004, 44.56689
841.9825, 47.20898
842.4647, 37.83789
842.9468, 1.558105
843.4289, 5.597656
843.9110, 26.97314
844.3931, 66.92285
844.8752, 79.35107
845.3574, 69.17432
845.8395, 61.73096
846.3216, 60.54785
846.8037, 61.01416
847.2858, 62.50977
847.7679, 62.32910
848.2501, 56.10840
848.7322, 36.59717
849.2143, 26.18408
849.6964, 32.13477
850.1785, 43.85742
850.6606, 52.71729
851.1428, 58.67139
851.6249, 61.56201
852.1070, 61.14160
852.5891, 58.49658
853.0712, 51.69189
853.5533, 44.35547
854.0355, 44.27197
854.5176, 56.19482
854.9997, 66.77588
855.4818, 71.54980
855.9639, 72.88086
856.4460, 72.49512
856.9282, 68.82373
857.4103, 67.75098
857.8924, 69.88721
858.3745, 74.52979
858.8566, 84.13721
859.3387, 95.37354
859.8209, 95.29395
860.3030, 80.91064
860.7851, 63.82324
861.2672, 48.94824
861.7493, 39.35059
862.2314, 39.12256
862.7136, 55.66406
863.1957, 66.47217
863.6778, 68.14307
864.1599, 66.38770
864.6420, 67.36865
865.1241, 71.39111
865.6063, 72.26318
866.0884, 68.97949
866.5705, 62.10693
867.0526, 48.76123
867.5347, 33.86963
868.0168, 24.51807
868.4990, 20.72412
868.9811, 27.42480
869.4632, 60.03760
869.9453, 95.87695
870.4274, 112.9717
870.9095, 106.5317
871.3917, 93.98877
871.8738, 73.09912
872.3559, 54.33447
872.8380, 52.89990
873.3201, 63.29102
873.8022, 69.13770
874.2844, 65.98779
874.7665, 61.79199
875.2486, 61.06250
875.7307, 59.83154
876.2128, 54.15479
876.6949, 34.79639
877.1771, 29.48682
877.6592, 45.29102
878.1413, 64.87842
878.6234, 70.75049
879.1055, 64.04883
879.5876, 59.12793
880.0698, 57.17871
880.5519, 55.83838
881.0340, 53.61377
881.5161, 51.09717
881.9982, 49.38086
882.4803, 44.79004
882.9625, 43.05225
883.4446, 46.16113
883.9267, 50.40820
884.4088, 54.46191
884.8909, 58.98047
885.3730, 54.28418
885.8552, 38.07617
886.3373, 25.83398
886.8194, 41.21533
887.3015, 66.18018
887.7836, 68.93506
888.2657, 43.04395
888.7479, 22.79590
889.2300, 29.90283
889.7121, 42.58398
890.1942, 47.75439
890.6763, 44.60547
891.1584, 39.38623
891.6406, 31.54199
892.1227, 22.36768
892.6048, 6.339355
893.0869, 8.676758
893.5690, 1.270996
894.0511, 35.53271
894.5333, 69.70361
895.0154, 99.49023
895.4975, 118.2666
895.9796, 118.3315
896.4617, 96.08789
896.9438, 77.67480
897.4260, 64.27832
897.9081, 53.12939
898.3902, 38.77832
898.8723, 23.16748
899.3544, 21.85498
899.8365, 35.51904
900.3187, 54.00781
900.8008, 73.32129
901.2829, 86.47852
901.7650, 89.77148
902.2471, 83.15625
902.7292, 67.43945
903.2114, 29.09180
903.6935, 5.913086
904.1756, 15.13379
904.6577, 47.71338
905.1398, 61.65576
905.6219, 58.27930
906.1041, 51.65723
906.5862, 46.82812
907.0683, 44.27686
907.5504, 43.33154
908.0325, 44.64062
908.5146, 50.87061
908.9968, 72.36719
909.4789, 87.77490
909.9610, 94.69434
910.4431, 91.90039
910.9252, 66.00928
911.4073, 16.50732
911.8895, 13.60840
912.3716, 1.146484
912.8537, 33.08447
913.3358, 52.71045
913.8179, 60.82324
914.3000, 58.74170
914.7822, 36.97070
915.2643, 16.94873
915.7464, 0.2548830
916.2285, 10.10986
916.7106, 4.306152
917.1927, 20.08887
917.6749, 34.82715
918.1570, 31.78125
918.6391, 20.48682
919.1212, 6.703613
919.6033, 4.444336
920.0854, 2.161133
920.5676, 30.57227
921.0497, 55.34863
921.5318, 56.67383
922.0139, 45.92334
922.4960, 32.77686
922.9781, 13.56445
923.4603, 13.74902
923.9424, 40.49023
924.4245, 70.03906
924.9066, 70.50342
925.3887, 53.58447
925.8708, 38.60156
926.3530, 27.96729
926.8351, 25.60156
927.3172, 37.68262
927.7993, 55.83984
928.2814, 75.68701
928.7635, 103.6060
929.2457, 100.6641
929.7278, 59.33398
930.2099, 18.60498
930.6920, 19.97070
931.1741, 44.22217
931.6563, 50.24219
932.1384, 35.05322
932.6205, 21.41895
933.1026, 20.00928
933.5847, 24.82959
934.0668, 34.89502
934.5490, 50.08936
935.0311, 58.86768
935.5132, 61.25488
935.9953, 56.98535
936.4774, 38.84912
936.9595, 16.23633
937.4417, 17.88672
937.9238, 38.02686
938.4059, 48.38428
938.8880, 15.60889
939.3701, 12.64746
939.8522, 4.286133
940.3344, 29.55957
940.8165, 43.00830
941.2986, 29.92236
941.7807, 18.89648
942.2628, 19.52002
942.7449, 26.32959
943.2271, 27.36230
943.7092, 25.48535
944.1913, 28.44678
944.6734, 54.08252
945.1555, 68.70215
945.6376, 47.24902
946.1198, 9.886230
946.6019, 8.132324
947.0840, 0.5273440
947.5661, 5.247070
948.0482, 4.780762
948.5303, 3.675293
949.0125, 14.91162
949.4946, 30.45996
949.9767, 29.96387
950.4588, 2.187012
950.9409, 19.65137
951.4230, 13.30664
951.9052, 2.224121
952.3873, 9.258789
952.8694, 3.969727
953.3515, 4.343750
953.8336, 12.14404
954.3157, 18.11377
954.7979, 8.750000
955.2800, 6.583496
955.7621, 5.156738
956.2442, 14.15088
956.7263, 21.75830
957.2084, 15.80127
957.6906, 51.22119
958.1727, 56.70264
958.6548, 33.95068
959.1369, 12.08496
959.6190, 10.57031
960.1011, 21.44678
960.5833, 3.498047
961.0654, 23.98975
961.5475, 24.04053
962.0296, 3.430176
962.5117, 12.72998
962.9938, 6.529297
963.4760, 1.719238
963.9581, 9.195313
964.4402, 22.45654
964.9223, 25.84326
965.4044, 18.16602
965.8865, 11.20898
966.3687, 7.994629
966.8508, 6.375488
967.3329, 0.3442380
967.8150, 5.367188
968.2971, 2.005859
968.7792, 21.94678
969.2614, 39.86816
969.7435, 43.87598
970.2256, 42.26855
970.7077, 39.28760
971.1898, 34.39648
971.6719, 29.19482
972.1541, 23.35400
972.6362, 21.00830
973.1183, 32.00928
973.6004, 44.76611
974.0825, 40.69238
974.5646, 14.56689
975.0468, 12.77051
975.5289, 68.19580
976.0110, 116.4395
976.4931, 124.2485
976.9752, 96.86963
977.4573, 81.03760
977.9395, 77.00146
978.4216, 79.56152
978.9037, 89.06934
979.3858, 99.24316
979.8679, 104.6826
980.3500, 106.2910
980.8322, 107.8945
981.3143, 112.8018
981.7964, 113.6470
982.2785, 106.3662
982.7606, 96.77051
983.2427, 96.04932
983.7249, 103.6909
984.2070, 118.6362
984.6891, 142.2358
985.1712, 168.6230
985.6533, 201.0376
986.1354, 230.3330
986.6176, 243.2720
987.0997, 227.4492
987.5818, 223.4155
988.0639, 234.0532
988.5460, 249.5601
989.0281, 263.5605
989.5103, 274.4155
989.9923, 275.1646
990.4744, 265.1909
990.9565, 260.0371
991.4387, 272.3818
991.9208, 288.7651
992.4029, 302.8901
992.8850, 314.4873
993.3671, 314.8354
993.8492, 298.8960
994.3314, 302.3408
994.8135, 357.9331
995.2956, 431.5884
995.7777, 459.3306
996.2598, 455.7549
996.7419, 462.9507
997.2241, 512.3242
997.7062, 554.9790
998.1883, 572.2148
998.6704, 579.3149
999.1525, 602.5410
999.6346, 641.4873
1000.117, 693.6880
1000.599, 762.6152
1001.081, 830.0342
1001.563, 876.5557
1002.045, 911.8296
1002.527, 944.9849
1003.009, 969.5107
1003.492, 1015.847
1003.974, 1085.756
1004.456, 1176.000
1004.938, 1297.163
1005.420, 1440.903
1005.902, 1557.968
1006.384, 1649.053
1006.866, 1748.176
1007.349, 1877.987
1007.831, 2021.730
1008.313, 2170.368
1008.795, 2322.454
1009.277, 2484.814
1009.759, 2655.021
1010.241, 2839.557
1010.723, 3040.142
1011.205, 3256.155
1011.688, 3488.897
1012.170, 3737.037
1012.652, 3991.436
1013.134, 4248.590
1013.616, 4511.976
1014.098, 4780.412
1014.580, 5060.732
1015.062, 5371.026
1015.544, 5719.799
1016.027, 6020.112
1016.509, 6266.146
1016.991, 6510.851
1017.473, 6818.152
1017.955, 7142.219
1018.437, 7416.533
1018.919, 7633.310
1019.401, 7910.981
1019.884, 8311.617
1020.366, 8725.344
1020.848, 9115.726
1021.330, 9489.137
1021.812, 9860.554
1022.294, 10225.88
1022.776, 10581.34
1023.258, 10962.99
1023.740, 11288.89
1024.223, 11555.21
1024.705, 11717.31
1025.187, 11693.03
1025.669, 11485.04
1026.151, 11099.77
1026.633, 10523.31
1027.115, 9811.185
1027.597, 8969.258
1028.080, 8053.802
1028.562, 7174.944
1029.044, 6345.653
1029.526, 5612.981
1030.008, 5002.476
1030.490, 4498.857
1030.972, 4091.982
1031.454, 3778.771
1031.937, 3513.404
1032.419, 3298.111
1032.901, 3114.264
1033.383, 2962.238
1033.865, 2830.787
1034.347, 2712.365
1034.829, 2603.943
1035.311, 2500.329
1035.793, 2410.477
1036.276, 2307.664
1036.758, 2193.254
1037.240, 2061.124
1037.722, 1886.593
1038.204, 1687.074
1038.686, 1537.023
1039.168, 1455.068
1039.650, 1371.361
1040.132, 1225.264
1040.615, 1075.339
1041.097, 963.8481
1041.579, 893.3867
1042.061, 823.3252
1042.543, 754.5679
1043.025, 683.0996
1043.507, 597.0537
1043.989, 514.4897
1044.472, 463.1851
1044.954, 435.1172
1045.436, 405.6455
1045.918, 356.5015
1046.400, 320.3564
1046.882, 306.9258
1047.364, 303.0801
1047.846, 287.9980
1048.328, 263.5581
1048.811, 241.8745
1049.293, 226.4424
1049.775, 204.1636
1050.257, 143.8447
1050.739, 87.69531
1051.221, 81.86133
1051.703, 133.6123
1052.185, 154.3164
1052.667, 138.5864
1053.150, 114.9551
1053.632, 94.85303
1054.114, 80.54297
1054.596, 83.85693
1055.078, 97.04688
1055.560, 96.10742
1056.042, 52.64014
1056.524, 20.46777
1057.007, 13.40430
1057.489, 18.45410
1057.971, 15.99072
1058.453, 6.991699
1058.935, 2.614258
1059.417, 12.82568
1059.899, 15.63037
1060.381, 10.33887
1060.864, 35.65625
1061.346, 28.75049
1061.828, 16.58643
1062.310, 39.89795
1062.792, 38.52979
1063.274, 27.02393
1063.756, 7.425781
1064.238, 13.43750
1064.720, 24.14258
1065.203, 25.77930
1065.685, 21.10938
1066.167, 3.807617
1066.649, 13.33691
1067.131, 7.738770
1067.613, 35.45801
1068.095, 33.16211
1068.577, 5.474121
1069.059, 13.35596
1069.542, 19.07910
1070.024, 12.77783
1070.506, 21.23438
1070.988, 54.15088
1071.470, 55.81934
1071.952, 26.22852
1072.434, 28.97070
1072.916, 71.55664
1073.398, 109.4985
1073.881, 117.7837
1074.363, 116.5146
1074.845, 132.7349
1075.327, 160.8599
1075.809, 189.8984
1076.291, 224.1353
1076.773, 250.8418
1077.255, 264.8198
1077.738, 277.5664
1078.220, 301.2622
1078.702, 332.9180
1079.184, 362.0977
1079.666, 389.7251
1080.148, 421.9966
1080.630, 476.1704
1081.112, 525.0073
1081.594, 541.0093
1082.077, 534.5498
1082.559, 562.1323
1083.041, 627.3257
1083.523, 691.6621
1084.005, 748.1318
1084.487, 791.8945
1084.969, 799.7437
1085.451, 795.8379
1085.933, 816.6406
1086.416, 885.4448
1086.898, 951.4321
1087.380, 1013.299
1087.862, 1070.947
1088.344, 1130.005
1088.826, 1183.884
1089.308, 1204.331
1089.790, 1196.379
1090.273, 1199.659
1090.755, 1250.917
1091.237, 1299.228
1091.719, 1324.001
1092.201, 1332.130
1092.683, 1335.599
1093.165, 1334.588
1093.647, 1342.189
1094.130, 1363.520
1094.612, 1384.388
1095.094, 1389.729
1095.576, 1389.438
1096.058, 1397.167
1096.540, 1419.790
1097.022, 1412.748
1097.504, 1368.800
1097.986, 1322.741
1098.469, 1292.761
1098.951, 1274.203
1099.433, 1264.830
1099.915, 1259.973
1100.397, 1246.740
1100.879, 1217.228
1101.361, 1181.239
1101.843, 1131.727
1102.325, 1087.147
1102.808, 1078.994
1103.290, 1098.364
1103.772, 1097.492
1104.254, 1071.152
1104.736, 1046.615
1105.218, 1041.300
1105.700, 1042.911
1106.182, 1048.044
1106.665, 1054.215
1107.147, 1044.123
1107.629, 1016.966
1108.111, 1002.846
1108.593, 1019.153
1109.075, 1038.940
1109.557, 1036.946
1110.039, 1019.462
1110.521, 993.3491
1111.004, 949.6396
1111.486, 925.0264
1111.968, 925.5771
1112.450, 925.9902
1112.932, 904.0928
1113.414, 869.7363
1113.896, 842.4185
1114.378, 821.1182
1114.860, 797.2607
1115.343, 762.2007
1115.825, 732.1143
1116.307, 712.4487
1116.789, 696.3096
1117.271, 673.1543
1117.753, 643.0347
1118.235, 605.9990
1118.717, 560.4146
1119.200, 512.9219
1119.682, 459.4995
1120.164, 411.6782
1120.646, 379.9683
1121.128, 363.0757
1121.610, 345.0078
1122.092, 325.4272
1122.574, 299.8999
1123.057, 265.2651
1123.539, 225.9331
1124.021, 178.0752
1124.503, 130.7671
1124.985, 100.5840
1125.467, 92.98340
1125.949, 89.28369
1126.431, 89.73242
1126.913, 91.73633
1127.396, 101.6016
1127.878, 107.8789
1128.360, 80.48145
1128.842, 26.96924
1129.324, 0.7749020
1129.806, 49.57031
1130.288, 75.92090
1130.770, 56.43750
1131.252, 14.30566
1131.735, 18.84521
1132.217, 40.82617
1132.699, 40.01611
1133.181, 9.940918
1133.663, 13.85986
1134.145, 14.30518
1134.627, 4.318848
1135.109, 14.62744
1135.592, 38.41943
1136.074, 32.64258
1136.556, 1.376465
1137.038, 21.89600
1137.520, 20.59229
1138.002, 8.644043
1138.484, 14.46777
1138.966, 38.20312
1139.448, 50.40869
1139.931, 50.96680
1140.413, 37.37061
1140.895, 8.415527
1141.377, 22.42676
1141.859, 50.34814
1142.341, 70.75342
1142.823, 79.97217
1143.305, 77.65771
1143.787, 61.46826
1144.270, 18.54346
1144.752, 5.101563
1145.234, 38.51953
1145.716, 84.63818
1146.198, 94.49023
1146.680, 87.47217
1147.162, 95.86426
1147.644, 128.2334
1148.127, 145.2993
1148.609, 129.6733
1149.091, 122.3911
1149.573, 144.4683
1150.055, 183.2964
1150.537, 206.5542
1151.019, 218.3911
1151.501, 231.0283
1151.984, 251.5015
1152.466, 268.4473
1152.948, 273.4453
1153.430, 280.0352
1153.912, 303.8506
1154.394, 341.6245
1154.876, 355.4282
1155.358, 347.4336
1155.840, 342.3286
1156.323, 361.9253
1156.805, 379.8970
1157.287, 374.1929
1157.769, 362.8091
1158.251, 378.2881
1158.733, 420.4526
1159.215, 461.7046
1159.697, 499.8594
1160.179, 521.2402
1160.662, 487.1494
1161.144, 454.2705
1161.626, 480.7061
1162.108, 557.6514
1162.590, 599.9580
1163.072, 604.9092
1163.554, 596.7388
1164.036, 576.4824
1164.519, 562.0562
1165.001, 579.5732
1165.483, 612.3569
1165.965, 640.7700
1166.447, 665.1201
1166.929, 671.1650
1167.411, 656.6763
1167.893, 632.1816
1168.375, 587.8779
1168.858, 548.8218
1169.340, 572.1055
1169.822, 631.1499
1170.304, 662.8081
1170.786, 623.0605
1171.268, 600.1396
1171.750, 602.2686
1172.232, 612.5449
1172.714, 619.6333
1173.197, 620.3462
1173.679, 602.1577
1174.161, 567.6611
1174.643, 543.6870
1175.125, 547.9834
1175.607, 552.2412
1176.089, 549.1094
1176.571, 545.2061
1177.054, 553.6582
1177.536, 570.6265
1178.018, 587.0034
1178.500, 601.4541
1178.982, 611.3848
1179.464, 610.4990
1179.946, 610.2544
1180.428, 614.3818
1180.911, 623.3779
1181.393, 645.7866
1181.875, 676.7607
1182.357, 689.5229
1182.839, 658.8179
1183.321, 644.6885
1183.803, 688.7373
1184.285, 750.0752
1184.767, 801.3467
1185.250, 842.6445
1185.732, 874.7183
1186.214, 898.8643
1186.696, 928.9121
1187.178, 968.6060
1187.660, 1021.932
1188.142, 1099.494
1188.624, 1185.740
1189.106, 1258.125
1189.589, 1315.995
1190.071, 1388.297
1190.553, 1477.524
1191.035, 1568.387
1191.517, 1646.239
1191.999, 1725.195
1192.481, 1818.186
1192.963, 1920.039
1193.446, 2014.515
1193.928, 2101.779
1194.410, 2194.530
1194.892, 2293.589
1195.374, 2396.438
1195.856, 2506.368
1196.338, 2613.901
1196.820, 2712.127
1197.302, 2800.760
1197.785, 2880.307
1198.267, 2950.865
1198.749, 3016.357
1199.231, 3082.574
1199.713, 3135.093
1200.195, 3158.771
1200.677, 3160.107
1201.159, 3144.819
1201.641, 3113.677
1202.124, 3063.725
1202.606, 2996.434
1203.088, 2906.441
1203.570, 2784.224
1204.052, 2643.723
1204.534, 2482.599
1205.016, 2317.658
1205.498, 2189.238
1205.981, 2129.871
1206.463, 2030.998
1206.945, 1885.520
1207.427, 1723.931
1207.909, 1554.175
1208.391, 1397.411
1208.873, 1291.328
1209.355, 1226.032
1209.838, 1157.540
1210.320, 1078.158
1210.802, 997.6221
1211.284, 914.5127
1211.766, 837.2837
1212.248, 777.0840
1212.730, 726.3530
1213.212, 672.0376
1213.694, 613.9092
1214.177, 572.2031
1214.659, 554.6465
1215.141, 534.9219
1215.623, 505.9619
1216.105, 472.5845
1216.587, 441.9717
1217.069, 412.3027
1217.551, 378.8267
1218.033, 339.2510
1218.516, 310.3833
1218.998, 294.3789
1219.480, 285.6001
1219.962, 285.2539
1220.444, 285.7837
1220.926, 268.7939
1221.408, 244.3604
1221.890, 232.0869
1222.373, 246.3037
1222.855, 246.8428
1223.337, 229.1143
1223.819, 205.1504
1224.301, 179.2876
1224.783, 154.5474
1225.265, 135.3579
1225.747, 121.6636
1226.229, 116.9565
1226.712, 133.9321
1227.194, 141.5176
1227.676, 136.8184
1228.158, 128.2505
1228.640, 120.4243
1229.122, 114.9839
1229.604, 121.5986
1230.086, 134.5562
1230.568, 129.5845
1231.051, 82.15039
1231.533, 48.54932
1232.015, 35.96484
1232.497, 34.45215
1232.979, 37.26172
1233.461, 41.21826
1233.943, 41.30566
1234.425, 37.29541
1234.908, 30.60254
1235.390, 17.25439
1235.872, 11.19043
1236.354, 16.72021
1236.836, 27.21777
1237.318, 38.52539
1237.800, 45.59619
1238.282, 36.65381
1238.764, 8.663574
1239.247, 3.867188
1239.729, 4.842773
1240.211, 22.09277
1240.693, 49.48193
1241.175, 72.00781
1241.657, 58.55518
1242.139, 27.34668
1242.621, 6.490723
1243.104, 3.665527
1243.586, 1.590332
1244.068, 0.6855470
1244.550, 3.764648
1245.032, 17.83398
1245.514, 31.22070
1245.996, 20.76465
1246.478, 0.2485350
1246.960, 7.867676
1247.443, 15.31836
1247.925, 14.86328
1248.407, 15.87793
1248.889, 41.98535
1249.371, 35.77246
1249.853, 15.56396
1250.335, 1.290527
1250.817, 6.571289
1251.299, 5.505371
1251.782, 10.12061
1252.264, 20.13965
1252.746, 23.54004
1253.228, 23.91797
1253.710, 25.21436
1254.192, 24.34375
1254.674, 12.05078
1255.156, 4.741699
1255.639, 3.695313
1256.121, 25.87793
1256.603, 36.70020
1257.085, 23.19922
1257.567, 3.902832
1258.049, 10.42627
1258.531, 17.68750
1259.013, 15.07275
1259.495, 3.034668
1259.978, 16.11963
1260.460, 45.43213
1260.942, 59.38916
1261.424, 52.56934
1261.906, 41.71729
1262.388, 43.23242
1262.870, 46.88770
1263.352, 39.71777
1263.834, 26.11328
1264.317, 31.75635
1264.799, 57.99756
1265.281, 74.27002
1265.763, 73.41016
1266.245, 64.46143
1266.727, 45.85645
1267.209, 30.24854
1267.691, 29.90039
1268.174, 41.80273
1268.656, 54.61377
1269.138, 68.03125
1269.620, 72.52588
1270.102, 63.11621
1270.584, 53.03955
1271.066, 53.08398
1271.548, 55.03809
1272.031, 51.97754
1272.513, 44.57666
1272.995, 44.05566
1273.477, 49.25879
1273.959, 61.28516
1274.441, 86.09668
1274.923, 102.5127
1275.405, 87.65771
1275.887, 71.71631
1276.370, 64.34180
1276.852, 64.20312
1277.334, 74.64160
1277.816, 89.93506
1278.298, 98.68799
1278.780, 98.69238
1279.262, 101.9990
1279.744, 117.1904
1280.226, 127.5957
1280.709, 127.8643
1281.191, 118.7432
1281.673, 81.45215
1282.155, 25.77734
1282.637, 5.211914
1283.119, 10.71631
1283.601, 31.12402
1284.083, 57.13965
1284.566, 74.60742
1285.048, 64.36865
1285.530, 41.05273
1286.012, 36.39746
1286.494, 45.53418
1286.976, 53.96387
1287.458, 59.52539
1287.940, 56.11963
1288.422, 38.79492
1288.905, 27.40918
1289.387, 54.55908
1289.869, 89.72998
1290.351, 85.10303
1290.833, 50.87012
1291.315, 34.47705
1291.797, 44.25879
1292.279, 59.14551
1292.761, 79.90527
1293.244, 88.52051
1293.726, 50.09668
1294.208, 2.153320
1294.690, 1.809082
1295.172, 26.32178
1295.654, 46.18262
1296.136, 57.82080
1296.618, 59.63135
1297.101, 50.67383
1297.583, 41.44385
1298.065, 44.82568
1298.547, 47.02246
1299.029, 31.99609
1299.511, 9.122070
1299.993, 1.469727
1300.475, 8.157715
1300.958, 24.87744
1301.440, 47.92334
1301.922, 63.26270
1302.404, 58.33691
1302.886, 42.75098
1303.368, 25.87451
1303.850, 8.128906
1304.332, 7.0312999E-02
1304.814, 0.0000000E+00
##END=



