##NAMES=Cordierite
##RRUFFID=R040084
##IDEAL CHEMISTRY=Mg_2_Al_4_Si_5_O_18_
##LOCALITY=Norway
##OWNER=RRUFF
##SOURCE=University of Arizona Mineral Museum
##DESCRIPTION=Purple coarsely crystalline massive
##STATUS=The identification of this mineral has been confirmed by X-ray diffraction and chemical analysis
##URL=rruff.info/R040084
##MEASURED CHEMISTRY=(Mg_1.88_Fe^2+^_0.11_Ca_0.01_)_Σ=2_(Al_3.95_Fe^3+^_0.05_)_Σ=4_(Si_4.96_Al_0.04_)_Σ=5_O_18_·0.90H_2_O·Na_0.04_ ; H_2_O estimated by difference and verified by Raman spectroscopy
136.470, 0.000
137.857, 225.105
139.243, 36.623
140.630, 334.058
142.016, 6.725
143.401, 96.847
144.787, 74.081
146.172, 259.577
147.557, 266.339
148.942, 362.657
150.327, 344.660
151.711, 429.860
153.096, 822.021
154.480, 1140.715
155.863, 1675.023
157.247, 1800.770
158.630, 2280.734
160.013, 2415.435
161.396, 1862.237
162.779, 1386.626
164.161, 1071.113
165.544, 757.828
166.926, 361.870
168.308, 428.351
169.689, 208.454
171.070, 187.310
172.452, 52.946
173.833, 88.359
175.213, 109.940
176.594, 79.614
177.974, 210.894
179.354, 72.582
180.734, 229.187
182.114, 262.230
183.493, 235.477
184.872, 190.773
186.251, 429.088
187.630, 376.462
189.008, 485.021
190.387, 320.691
191.765, 449.379
193.143, 721.036
194.520, 584.661
195.898, 704.250
197.275, 547.850
198.652, 471.652
200.029, 440.077
201.405, 560.385
202.782, 526.185
204.158, 792.577
205.534, 629.001
206.909, 602.295
208.285, 712.349
209.660, 408.167
211.035, 365.763
212.410, 198.143
213.784, 74.319
215.159, 106.299
216.533, 4.091
217.907, 41.701
219.281, 122.172
220.654, 103.400
222.027, 46.973
223.400, 179.709
224.773, 15.432
226.146, 57.802
227.518, 57.992
228.891, 112.139
230.263, 164.239
231.634, 300.294
233.006, 443.301
234.377, 863.259
235.748, 1145.166
237.119, 1688.604
238.490, 2433.837
239.860, 3080.213
241.231, 3415.915
242.601, 2789.275
243.970, 2211.336
245.340, 1732.167
246.709, 1360.705
248.079, 1169.061
249.448, 938.367
250.816, 1219.623
252.185, 1069.825
253.553, 1478.972
254.921, 1758.064
256.289, 2358.414
257.657, 3357.290
259.024, 4174.895
260.391, 5260.727
261.758, 5414.641
263.125, 4681.854
264.492, 3394.246
265.858, 2521.528
267.224, 1759.569
268.590, 1253.075
269.956, 1062.666
271.321, 679.958
272.687, 952.165
274.052, 793.347
275.416, 755.326
276.781, 614.356
278.146, 821.552
279.510, 950.723
280.874, 881.872
282.237, 1328.997
283.601, 1426.094
284.964, 1861.159
286.327, 1938.189
287.690, 2505.187
289.053, 3632.148
290.416, 4606.074
291.778, 5970.967
293.140, 7768.824
294.502, 8918.651
295.863, 9510.441
297.225, 8713.205
298.586, 7381.938
299.947, 5935.643
301.308, 4969.581
302.668, 4007.132
304.029, 2990.277
305.389, 2618.588
306.749, 2272.077
308.108, 1807.380
309.468, 1387.664
310.827, 1414.923
312.186, 1026.151
313.545, 991.341
314.903, 692.489
316.262, 785.594
317.620, 864.657
318.978, 735.669
320.336, 952.638
321.693, 911.556
323.051, 1074.401
324.408, 1215.178
325.765, 1521.890
327.121, 1381.542
328.478, 1508.141
329.834, 1145.686
331.190, 817.183
332.546, 826.632
333.902, 742.036
335.257, 291.395
336.612, 427.523
337.967, 152.354
339.322, 241.843
340.677, 84.871
342.031, 90.295
343.385, 220.950
344.739, 220.045
346.093, 171.855
347.446, 154.226
348.799, 144.418
350.153, 215.052
351.505, 318.281
352.858, 420.766
354.210, 438.798
355.563, 358.116
356.915, 424.062
358.267, 391.206
359.618, 596.615
360.969, 582.906
362.321, 543.730
363.672, 778.887
365.022, 773.037
366.373, 1095.318
367.723, 1238.375
369.073, 947.566
370.423, 886.551
371.773, 495.502
373.122, 472.418
374.471, 151.301
375.821, 122.051
377.169, 303.150
378.518, 49.434
379.866, 144.996
381.215, 13.389
382.563, 17.174
383.910, 150.500
385.258, 83.955
386.605, 151.172
387.952, 65.162
389.299, 113.305
390.646, 233.264
391.992, 41.551
393.339, 131.574
394.685, 6.533
396.031, 69.451
397.376, 110.428
398.722, 41.541
400.067, 154.566
401.412, 5.752
402.757, 33.994
404.101, 77.295
405.446, 32.342
406.790, 28.934
408.134, 45.508
409.478, 62.002
410.821, 38.482
412.165, 380.932
413.508, 365.359
414.851, 181.764
416.193, 626.141
417.536, 922.494
418.878, 1092.268
420.220, 2055.111
421.562, 1785.369
422.904, 2365.547
424.245, 2980.652
425.586, 4362.629
426.927, 5958.488
428.268, 7052.238
429.609, 7455.914
430.949, 6434.498
432.289, 4828.984
433.629, 3707.389
434.969, 2881.770
436.309, 2015.098
437.648, 1649.410
438.987, 1095.707
440.326, 987.992
441.665, 753.268
443.003, 452.529
444.342, 548.777
445.680, 546.016
447.018, 451.242
448.355, 392.457
449.693, 527.664
451.030, 535.861
452.367, 518.166
453.704, 568.344
455.041, 763.543
456.377, 691.857
457.713, 883.201
459.049, 841.375
460.385, 816.543
461.721, 933.732
463.056, 916.896
464.391, 856.039
465.726, 818.156
467.061, 717.250
468.395, 979.326
469.730, 829.383
471.064, 676.426
472.398, 862.447
473.731, 600.451
475.065, 818.436
476.398, 629.391
477.731, 636.330
479.064, 600.246
480.397, 622.561
481.729, 630.455
483.062, 688.746
484.394, 716.924
485.725, 737.785
487.057, 800.352
488.389, 777.178
489.720, 801.414
491.051, 812.227
492.382, 712.027
493.712, 609.834
495.043, 479.623
496.373, 313.244
497.703, 144.086
499.032, 222.984
500.362, 278.232
501.691, 198.557
503.020, 17.928
504.349, 154.049
505.678, 6.838
507.007, 65.047
508.335, 27.150
509.663, 1.375
510.991, 78.666
512.319, 11.176
513.646, 112.922
514.973, 38.639
516.300, 121.242
517.627, 67.918
518.954, 237.590
520.280, 276.291
521.607, 108.975
522.933, 280.635
524.259, 272.307
525.584, 232.014
526.910, 364.705
528.235, 236.381
529.560, 562.033
530.885, 463.674
532.209, 762.299
533.534, 521.900
534.858, 571.533
536.182, 1192.023
537.506, 1299.266
538.829, 1451.006
540.152, 1700.574
541.476, 2185.646
542.799, 2532.482
544.121, 3215.100
545.444, 3628.025
546.766, 5033.158
548.088, 6414.764
549.410, 8358.324
550.732, 10897.406
552.053, 13844.555
553.375, 17036.070
554.696, 19639.445
556.017, 19903.881
557.337, 18975.756
558.658, 16996.979
559.978, 14199.113
561.298, 11742.605
562.618, 9885.342
563.938, 9017.385
565.257, 7596.248
566.576, 6934.066
567.895, 6625.154
569.214, 5654.266
570.533, 5826.170
571.851, 5968.521
573.170, 6193.855
574.488, 6599.480
575.805, 7493.783
577.123, 8034.068
578.440, 8325.340
579.758, 8048.594
581.075, 7575.828
582.391, 6704.049
583.708, 5476.250
585.024, 4648.434
586.341, 3520.605
587.657, 2866.758
588.972, 2660.895
590.288, 2170.018
591.603, 1871.125
592.918, 1469.219
594.233, 1141.293
595.548, 1108.355
596.863, 951.402
598.177, 831.436
599.491, 585.453
600.805, 600.451
602.119, 511.438
603.432, 515.602
604.746, 397.555
606.059, 465.928
607.372, 517.848
608.685, 270.520
609.997, 146.408
611.309, 414.930
612.621, 219.754
613.933, 149.916
615.245, 142.203
616.557, 399.566
617.868, 485.617
619.179, 461.893
620.490, 505.090
621.801, 629.180
623.111, 494.891
624.421, 827.457
625.731, 478.061
627.041, 912.158
628.351, 316.535
629.660, 648.191
630.970, 281.186
632.279, 197.588
633.588, 538.287
634.896, 194.510
636.205, 284.564
637.513, 92.559
638.821, 316.293
640.129, 98.609
641.437, 281.979
642.744, 393.387
644.051, 308.898
645.358, 415.832
646.665, 107.199
647.972, 385.977
649.278, 397.230
650.584, 260.799
651.890, 585.043
653.196, 216.256
654.502, 770.367
655.807, 745.219
657.113, 923.662
658.418, 809.787
659.722, 1258.924
661.027, 1653.359
662.331, 1840.529
663.636, 2373.760
664.940, 3112.484
666.244, 4237.312
667.547, 4898.180
668.851, 6504.182
670.154, 7333.320
671.457, 8129.078
672.760, 7618.578
674.062, 6744.211
675.365, 5742.686
676.667, 4403.521
677.969, 3592.215
679.271, 2745.547
680.572, 2316.850
681.874, 1852.354
683.175, 1220.373
684.476, 1212.385
685.777, 1191.578
687.077, 818.477
688.378, 918.555
689.678, 618.059
690.978, 884.502
692.278, 871.740
693.577, 908.604
694.877, 483.250
696.176, 804.496
697.475, 534.463
698.774, 780.023
700.072, 626.061
701.371, 877.137
702.669, 752.887
703.967, 907.855
705.265, 913.447
706.562, 1301.867
707.860, 1705.623
709.157, 1721.779
710.454, 1734.619
711.751, 2363.188
713.047, 2261.426
714.344, 2588.557
715.640, 2274.375
716.936, 2209.625
718.232, 1617.588
719.527, 1798.430
720.823, 1992.693
722.118, 2131.654
723.413, 2279.803
724.708, 2289.223
726.002, 2463.641
727.297, 2149.715
728.591, 2131.750
729.885, 1859.703
731.179, 1460.250
732.472, 1420.314
733.766, 1138.803
735.059, 894.656
736.352, 802.469
737.645, 902.246
738.937, 937.982
740.230, 791.682
741.522, 768.342
742.814, 593.963
744.106, 763.547
745.397, 659.092
746.689, 667.596
747.980, 673.062
749.271, 717.490
750.562, 834.879
751.853, 632.229
753.143, 873.539
754.433, 574.811
755.723, 816.041
757.013, 658.236
758.303, 340.391
759.592, 667.506
760.881, 284.582
762.170, 442.617
763.459, 207.611
764.748, 479.557
766.036, 237.348
767.325, 77.789
768.613, 316.973
769.901, 44.568
771.188, 262.076
772.476, 94.697
773.763, 84.729
775.050, 291.738
776.337, 74.160
777.624, 452.529
778.910, 192.863
780.196, 180.148
781.482, 58.385
782.768, 6.594
784.054, 156.684
785.339, 0.250
786.625, 209.752
787.910, 373.705
789.195, 15.613
790.479, 280.467
791.764, 291.271
793.048, 60.391
794.332, 205.273
795.616, 118.533
796.900, 173.955
798.183, 144.391
799.467, 77.779
800.750, 131.113
802.033, 62.035
803.316, 187.146
804.598, 138.721
805.880, 453.271
807.163, 308.779
808.445, 200.822
809.726, 58.506
811.008, 45.068
812.289, 70.410
813.570, 86.008
814.851, 68.391
816.132, 48.311
817.413, 59.912
818.693, 31.912
819.973, 159.816
821.253, 152.137
822.533, 195.951
823.813, 97.795
825.092, 285.496
826.371, 26.152
827.650, 71.760
828.929, 47.676
830.208, 154.195
831.486, 192.141
832.764, 104.430
834.042, 65.330
835.320, 181.184
836.598, 41.805
837.875, 80.746
839.152, 228.637
840.429, 92.555
841.706, 41.422
842.983, 410.238
844.259, 9.955
845.536, 10.816
846.812, 302.537
848.088, 1.213
849.363, 196.828
850.639, 18.398
851.914, 350.918
853.189, 233.412
854.464, 25.133
855.739, 3.750
857.013, 247.572
858.288, 336.852
859.562, 131.086
860.836, 68.723
862.110, 200.373
863.383, 279.420
864.656, 99.422
865.930, 543.373
867.203, 203.287
868.475, 275.152
869.748, 414.975
871.020, 238.752
872.292, 24.482
873.564, 401.158
874.836, 226.789
876.108, 480.373
877.379, 210.914
878.650, 232.406
879.922, 497.850
881.192, 590.250
882.463, 348.613
883.733, 345.932
885.004, 378.207
886.274, 266.439
887.544, 568.627
888.813, 535.775
890.083, 799.879
891.352, 516.945
892.621, 500.971
893.890, 914.971
895.159, 672.916
896.427, 934.820
897.695, 867.684
898.964, 1043.510
900.232, 1470.293
901.499, 1031.039
902.767, 1241.744
904.034, 1072.410
905.301, 994.037
906.568, 786.629
907.835, 837.332
909.102, 726.404
910.368, 796.293
911.634, 652.549
912.900, 750.334
914.166, 766.281
915.432, 713.631
916.697, 1152.178
917.962, 894.457
919.227, 841.809
920.492, 1210.055
921.757, 1058.426
923.021, 1057.268
924.285, 710.820
925.550, 1038.066
926.813, 851.605
928.077, 897.174
929.341, 768.152
930.604, 508.760
931.867, 750.801
933.130, 768.756
934.393, 638.164
935.655, 566.242
936.918, 893.990
938.180, 533.383
939.442, 1014.279
940.703, 675.826
941.965, 861.797
943.226, 1084.881
944.488, 893.973
945.749, 812.273
947.009, 1042.959
948.270, 1583.516
949.530, 1552.410
950.791, 1699.723
952.051, 2062.723
953.311, 1951.910
954.570, 1832.793
955.830, 1407.143
957.089, 1604.119
958.348, 1369.369
959.607, 1445.602
960.866, 1482.883
962.124, 1674.758
963.383, 1689.328
964.641, 1972.404
965.899, 2668.113
967.156, 3176.725
968.414, 4131.145
969.671, 5363.684
970.928, 6918.084
972.185, 8706.426
973.442, 9023.531
974.699, 8767.559
975.955, 7256.936
977.211, 5803.242
978.468, 4696.076
979.723, 3291.406
980.979, 2940.055
982.234, 2255.137
983.490, 1647.248
984.745, 1746.467
986.000, 838.172
987.254, 1198.498
988.509, 1130.395
989.763, 624.631
991.017, 915.533
992.271, 787.783
993.525, 821.111
994.779, 730.814
996.032, 772.842
997.285, 779.965
998.538, 806.480
999.791, 1056.344
1001.044, 329.955
1002.296, 1006.732
1003.548, 544.037
1004.800, 973.773
1006.052, 1055.449
1007.304, 1074.090
1008.555, 1471.355
1009.807, 1477.344
1011.058, 1970.008
1012.309, 1943.199
1013.559, 1990.539
1014.810, 1799.242
1016.060, 1549.164
1017.310, 1216.332
1018.560, 1209.363
1019.810, 1104.215
1021.060, 765.492
1022.309, 898.910
1023.558, 938.449
1024.807, 619.535
1026.056, 866.953
1027.305, 516.051
1028.553, 531.312
1029.801, 637.707
1031.049, 913.891
1032.297, 739.145
1033.545, 423.121
1034.793, 541.082
1036.040, 823.148
1037.287, 429.719
1038.534, 579.867
1039.781, 580.023
1041.027, 516.152
1042.274, 699.246
1043.520, 290.332
1044.766, 912.426
1046.012, 800.484
1047.257, 606.516
1048.503, 302.520
1049.748, 510.500
1050.993, 686.453
1052.238, 315.414
1053.483, 841.473
1054.727, 590.387
1055.971, 313.738
1057.216, 268.578
1058.459, 206.637
1059.703, 178.543
1060.947, 366.809
1062.190, 219.262
1063.433, 456.445
1064.676, 387.656
1065.919, 462.711
1067.162, 393.875
1068.404, 132.891
1069.646, 686.676
1070.888, 193.691
1072.130, 279.848
1073.372, 516.930
1074.613, 218.078
1075.855, 433.898
1077.096, 590.277
1078.337, 238.371
1079.578, 168.844
1080.818, 511.172
1082.059, 411.879
1083.299, 397.590
1084.539, 377.527
1085.779, 341.750
1087.018, 322.277
1088.258, 356.043
1089.497, 403.609
1090.736, 501.590
1091.975, 357.695
1093.213, 412.957
1094.452, 377.797
1095.690, 335.094
1096.928, 402.492
1098.166, 240.488
1099.404, 574.711
1100.642, 517.152
1101.879, 756.598
1103.116, 634.848
1104.353, 900.281
1105.590, 1105.516
1106.827, 1268.832
1108.063, 1462.965
1109.299, 1780.398
1110.536, 1756.352
1111.771, 1892.516
1113.007, 1599.223
1114.243, 1313.039
1115.478, 1351.742
1116.713, 1086.902
1117.948, 777.188
1119.183, 735.480
1120.418, 636.676
1121.652, 74.641
1122.886, 489.168
1124.120, 184.426
1125.354, 446.707
1126.588, 236.375
1127.821, 20.395
1129.055, 295.898
1130.288, 27.418
1131.521, 322.211
1132.753, 205.598
1133.986, 256.207
1135.218, 43.348
1136.450, 7.500
1137.682, 581.480
1138.914, 304.629
1140.146, 452.301
1141.377, 100.207
1142.609, 128.348
1143.840, 148.699
1145.071, 79.227
1146.301, 303.652
1147.532, 259.129
1148.762, 165.574
1149.992, 182.984
1151.222, 73.672
1152.452, 18.055
1153.682, 160.562
1154.911, 244.723
1156.140, 42.215
1157.369, 529.207
1158.598, 69.281
1159.827, 110.012
1161.055, 499.898
1162.284, 501.945
1163.512, 219.043
1164.740, 233.926
1165.967, 301.645
1167.195, 410.230
1168.422, 451.039
1169.650, 562.812
1170.877, 538.852
1172.103, 564.777
1173.330, 472.531
1174.557, 676.383
1175.783, 564.117
1177.009, 1034.656
1178.235, 1361.855
1179.461, 1070.172
1180.686, 1832.641
1181.912, 2079.164
1183.137, 2188.926
1184.362, 2868.730
1185.587, 2948.551
1186.811, 2773.254
1188.036, 2638.023
1189.260, 2640.086
1190.484, 2040.809
1191.708, 1872.449
1192.932, 1568.727
1194.155, 1468.906
1195.378, 803.738
1196.602, 911.859
1197.825, 693.270
1199.047, 977.914
1200.270, 594.133
1201.492, 685.168
1202.715, 272.102
1203.937, 773.895
1205.159, 111.246
1206.380, 607.145
1207.602, 511.762
1208.823, 445.613
1210.044, 94.008
1211.265, 248.742
1212.486, 515.117
1213.707, 482.691
1214.927, 268.559
1216.147, 124.098
1217.367, 257.797
1218.587, 214.898
1219.807, 464.844
1221.027, 202.523
1222.246, 271.465
1223.465, 377.051
1224.684, 197.855
1225.903, 336.617
1227.121, 600.000
1228.340, 264.930
1229.558, 256.160
1230.776, 431.672
1231.994, 236.441
1233.212, 638.047
1234.429, 211.523
1235.646, 249.945
1236.864, 379.266
1238.081, 342.461
1239.297, 534.539
1240.514, 174.531
1241.730, 510.434
1242.947, 350.227
1244.163, 221.930
1245.378, 269.098
1246.594, 208.586
1247.810, 434.961
1249.025, 472.242
1250.240, 742.398
1251.455, 461.703
1252.670, 209.633
1253.885, 235.980
1255.099, 413.703
1256.313, 278.312
1257.527, 223.789
1258.741, 74.125
1259.955, 35.961
1261.168, 73.059
1262.382, 27.246
1263.595, 189.980
1264.808, 374.562
1266.021, 392.570
1267.233, 446.840
1268.446, 536.551
1269.658, 364.414
1270.870, 582.000
1272.082, 67.281
1273.294, 327.949
1274.505, 145.938
1275.716, 233.262
1276.928, 102.316
1278.139, 239.426
1279.349, 105.898
1280.560, 273.328
1281.770, 265.070
1282.981, 287.035
1284.191, 80.676
1285.401, 112.121
1286.610, 56.500
1287.820, 72.441
1289.029, 217.402
1290.239, 161.898
1291.448, 212.980
1292.656, 418.527
1293.865, 193.398
1295.073, 187.734
1296.282, 89.004
1297.490, 137.980
1298.698, 28.875
1299.906, 173.605
1301.113, 125.703
1302.320, 1.512
1303.528, 154.926
1304.735, 87.656
1305.942, 159.402
1307.148, 102.598
1308.355, 253.219
1309.561, 282.879
1310.767, 53.543
1311.973, 551.109
1313.179, 8.062
1314.384, 98.996
1315.590, 112.102
1316.795, 386.621
1318.000, 90.219
1319.205, 78.598
1320.410, 97.070
1321.614, 191.012
1322.819, 155.230
1324.023, 318.141
1325.227, 3.574
1326.431, 6.145
1327.634, 228.145
1328.838, 94.312
1330.041, 186.336
1331.244, 79.723
1332.447, 168.051
1333.650, 119.703
1334.852, 5.754
1336.055, 70.340
1337.257, 175.934
1338.459, 79.105
1339.661, 208.176
1340.862, 11.148
1342.064, 111.020
1343.265, 97.203
1344.466, 22.449
1345.667, 113.895
1346.868, 275.312
1348.068, 280.266
1349.269, 324.645
1350.469, 340.621
1351.669, 352.457
1352.869, 398.555
1354.069, 391.965
1355.268, 369.594
1356.468, 427.230
1357.667, 354.152
1358.866, 509.516
1360.065, 381.883
1361.263, 264.516
1362.462, 549.059
1363.660, 157.812
1364.858, 209.965
1366.056, 526.059
1367.254, 190.590
1368.451, 355.738
1369.649, 531.695
1370.846, 727.582
1372.043, 56.250
1373.240, 409.320
1374.436, 317.719
1375.633, 475.953
1376.829, 629.039
1378.025, 577.613
1379.221, 641.195
1380.417, 869.449
1381.613, 1627.098
1382.808, 2228.512
1384.003, 2698.473
1385.199, 2045.363
1386.393, 1667.883
1387.588, 845.707
1388.783, 598.371
1389.977, 711.145
1391.171, 684.945
1392.365, 777.453
1393.559, 565.727
1394.753, 393.535
1395.946, 605.684
1397.140, 331.520
1398.333, 670.453
1399.526, 692.180
1400.719, 627.039
1401.911, 652.719
1403.104, 591.840
1404.296, 537.004
1405.488, 489.938
1406.680, 646.586
1407.872, 651.930
1409.063, 237.973
1410.255, 514.098
1411.446, 667.414
1412.637, 24.539
1413.828, 517.816
1415.018, 293.922
1416.209, 193.633
1417.399, 389.957
1418.589, 395.176
1419.779, 226.906
1420.969, 601.910
1422.159, 162.797
1423.348, 325.520
1424.537, 85.516
1425.726, 330.207
1426.915, 394.426
1428.104, 307.594
1429.293, 313.785
1430.481, 191.523
1431.669, 237.836
1432.857, 426.895
1434.045, 404.566
1435.233, 468.246
1436.420, 189.137
1437.608, 647.621
1438.795, 738.918
1439.982, 577.949
1441.169, 271.652
1442.355, 538.066
1443.542, 436.965
1444.728, 229.453
1445.914, 692.559
1447.100, 254.258
1448.286, 465.918
1449.472, 237.336
1450.657, 347.793
1451.842, 74.996
1453.027, 845.117
1454.212, 501.059
1455.397, 246.148
1456.581, 755.605
1457.766, 126.113
1458.950, 441.168
1460.134, 862.516
1461.318, 181.023
1462.501, 726.988
1463.685, 201.113
1464.868, 220.094
1466.051, 612.906
1467.234, 211.785
1468.417, 800.734
1469.600, 60.828
1470.782, 195.926
1471.965, 623.078
1473.147, 575.383
1474.329, 134.926
1475.510, 574.914
1476.692, 513.379
1477.873, 100.484
1479.055, 348.402
1480.236, 596.848
1481.416, 110.789
1482.597, 855.270
1483.778, 114.383
1484.958, 471.266
1486.138, 461.090
1487.318, 245.062
1488.498, 36.609
1489.678, 43.020
1490.857, 44.883
1492.037, 172.723
1493.216, 255.387
1494.395, 475.117
1495.574, 273.324
1496.752, 457.008
1497.931, 348.297
1499.109, 0.000
##END=



