##NAMES=Cornetite
##RRUFFID=R050151
##IDEAL CHEMISTRY=Cu_3_PO_4_(OH)_3_
##LOCALITY=Manto Russo, El Salado, Chile
##OWNER=RRUFF
##SOURCE=Jim McGlasson
##DESCRIPTION=Druse of blue short prismatic crystals
##STATUS=The identification of this mineral has been confirmed by X-ray diffraction and chemical analysis
##URL=rruff.info/R050151
##MEASURED CHEMISTRY=Cu_3.00_P_1.00_O_4_(OH)_3_
52.866, 0.000
54.266, 83.564
55.666, 63.556
57.065, 124.736
58.464, 89.063
59.863, 5.077
61.262, 38.884
62.661, 48.241
64.059, 55.752
65.458, 168.500
66.856, 328.308
68.253, 586.122
69.651, 820.523
71.048, 1157.428
72.445, 1584.381
73.842, 2521.007
75.239, 3013.000
76.635, 2581.071
78.031, 2315.952
79.427, 2296.400
80.823, 2655.203
82.218, 3008.173
83.614, 3106.160
85.009, 3391.042
86.404, 3290.685
87.798, 2973.966
89.193, 3121.776
90.587, 3480.022
91.981, 3765.620
93.375, 4702.555
94.768, 6054.849
96.161, 8425.410
97.554, 9926.106
98.947, 7486.837
100.340, 5565.517
101.732, 5281.082
103.124, 5912.474
104.516, 5821.645
105.908, 6461.552
107.300, 7770.164
108.691, 8454.441
110.082, 7100.362
111.473, 4830.897
112.864, 3758.099
114.254, 3379.120
115.644, 3338.750
117.034, 3421.885
118.424, 3452.516
119.813, 4122.625
121.203, 6081.199
122.592, 10324.227
123.981, 10335.147
125.369, 9993.279
126.758, 11549.923
128.146, 7223.657
129.534, 5528.792
130.922, 5611.438
132.309, 5963.193
133.696, 6841.243
135.083, 9363.254
136.470, 15792.732
137.857, 18660.131
139.243, 14488.428
140.630, 9504.621
142.016, 7164.763
143.401, 5658.921
144.787, 4639.126
146.172, 3951.406
147.557, 3466.776
148.942, 3662.255
150.327, 3786.855
151.711, 4332.587
153.096, 5457.463
154.480, 7499.488
155.863, 10313.672
157.247, 11914.016
158.630, 9964.525
160.013, 6841.211
161.396, 4678.065
162.779, 3373.094
164.161, 2649.301
165.544, 2146.688
166.926, 1942.253
168.308, 1827.000
169.689, 1920.926
171.070, 2028.034
172.452, 2209.423
173.833, 2254.074
175.213, 2138.340
176.594, 2089.008
177.974, 1926.853
179.354, 2119.877
180.734, 2348.076
182.114, 2651.451
183.493, 2923.998
184.872, 3142.718
186.251, 3041.611
187.630, 2910.673
189.008, 2592.906
190.387, 2379.308
191.765, 2084.879
193.143, 1927.618
194.520, 2074.525
195.898, 2057.598
197.275, 2385.835
198.652, 2787.236
200.029, 3312.798
201.405, 3773.523
202.782, 4444.409
204.158, 5365.455
205.534, 6461.657
206.909, 7685.019
208.285, 7615.358
209.660, 6895.384
211.035, 5883.467
212.410, 5323.057
213.784, 5397.631
215.159, 5919.638
216.533, 7213.831
217.907, 9278.473
219.281, 11800.677
220.654, 14252.466
222.027, 14452.006
223.400, 13172.270
224.773, 10920.067
226.146, 8832.519
227.518, 7398.889
228.891, 6406.415
230.263, 6049.696
231.634, 6154.445
233.006, 6889.631
234.377, 7819.229
235.748, 8368.213
237.119, 9298.561
238.490, 7204.254
239.860, 5347.276
241.231, 3877.608
242.601, 2850.238
243.970, 2235.152
245.340, 1824.335
246.709, 1593.780
248.079, 1296.474
249.448, 1301.409
250.816, 1184.575
252.185, 1102.965
253.553, 877.570
254.921, 658.383
256.289, 571.397
257.657, 442.607
259.024, 416.007
260.391, 394.589
261.758, 470.348
263.125, 593.278
264.492, 854.375
265.858, 1185.636
267.224, 1490.054
268.590, 1670.628
269.956, 1453.353
271.321, 1311.225
272.687, 1230.242
274.052, 1160.841
275.416, 1176.737
276.781, 1154.157
278.146, 1292.738
279.510, 1341.455
280.874, 1421.301
282.237, 991.272
283.601, 776.364
284.964, 422.577
286.327, 167.907
287.690, 83.353
289.053, 50.088
290.416, 130.421
291.778, 57.660
293.140, 76.796
294.502, 72.833
295.863, 124.774
297.225, 95.369
298.586, 151.605
299.947, 345.930
301.308, 425.343
302.668, 512.843
304.029, 615.430
305.389, 686.106
306.749, 742.871
308.108, 776.726
309.468, 965.671
310.827, 1161.706
312.186, 1482.830
313.545, 1842.058
314.903, 2392.379
316.262, 2721.792
317.620, 2840.311
318.978, 2793.932
320.336, 2360.656
321.693, 2000.471
323.051, 1487.381
324.408, 1217.392
325.765, 827.493
327.121, 763.702
328.478, 478.013
329.834, 419.425
331.190, 370.937
332.546, 404.537
333.902, 355.226
335.257, 606.002
336.612, 667.835
337.967, 1013.741
339.322, 1300.717
340.677, 1616.806
342.031, 1908.989
343.385, 2065.264
344.739, 2052.637
346.093, 1890.088
347.446, 1605.625
348.799, 1360.241
350.153, 1087.945
351.505, 858.669
352.858, 633.596
354.210, 426.553
355.563, 290.586
356.915, 116.711
358.267, 20.014
359.618, 85.477
360.969, 162.441
362.321, 198.062
363.672, 254.795
365.022, 279.222
366.373, 297.763
367.723, 301.297
369.073, 286.829
370.423, 294.348
371.773, 252.061
373.122, 214.545
374.471, 192.275
375.821, 126.102
377.169, 153.000
378.518, 94.934
379.866, 98.891
381.215, 17.838
382.563, 16.302
383.910, 16.549
385.258, 39.894
386.605, 156.341
387.952, 290.004
389.299, 375.559
390.646, 662.329
391.992, 761.202
393.339, 924.165
394.685, 1215.218
396.031, 1380.358
397.376, 1629.585
398.722, 1640.895
400.067, 1725.287
401.412, 1594.762
402.757, 1597.327
404.101, 1632.970
405.446, 1521.688
406.790, 1415.479
408.134, 1488.343
409.478, 1529.281
410.821, 1693.290
412.165, 1799.366
413.508, 1919.510
414.851, 2144.722
416.193, 2133.996
417.536, 2296.330
418.878, 2567.725
420.220, 2941.183
421.562, 3356.702
422.904, 3987.276
424.245, 5059.905
425.586, 6122.585
426.927, 7706.320
428.268, 9659.111
429.609, 12104.953
430.949, 14515.843
432.289, 17474.787
433.629, 19711.777
434.969, 20378.059
436.309, 20106.846
437.648, 18519.227
438.987, 17084.850
440.326, 15266.263
441.665, 13707.028
443.003, 12679.345
444.342, 11875.696
445.680, 10692.081
447.018, 9606.502
448.355, 8391.966
449.693, 7180.465
451.030, 6257.241
452.367, 5542.889
453.704, 5056.553
455.041, 4646.306
456.377, 4399.118
457.713, 4383.954
459.049, 4513.711
460.385, 4788.504
461.721, 5172.328
463.056, 5566.189
464.391, 5604.082
465.726, 5465.004
467.061, 5361.958
468.395, 4918.940
469.730, 4465.415
471.064, 4361.470
472.398, 4107.910
473.731, 4244.166
475.065, 4182.377
476.398, 4376.664
477.731, 4857.018
479.064, 5292.940
480.397, 5881.779
481.729, 6686.614
483.062, 7517.136
484.394, 8580.314
485.725, 9832.459
487.057, 11156.515
488.389, 12273.781
489.720, 12599.635
491.051, 12072.488
492.382, 11033.134
493.712, 9473.052
495.043, 8017.733
496.373, 6681.744
497.703, 5784.727
499.032, 5137.875
500.362, 4474.191
501.691, 4092.463
503.020, 3735.145
504.349, 3456.185
505.678, 3388.535
507.007, 3387.264
508.335, 3573.928
509.663, 3910.708
510.991, 4481.727
512.319, 5339.923
513.646, 6352.683
514.973, 7632.630
516.300, 9239.201
517.627, 10492.458
518.954, 11502.845
520.280, 11251.311
521.607, 10582.993
522.933, 9339.484
524.259, 8338.104
525.584, 7190.420
526.910, 6187.359
528.235, 5502.323
529.560, 4745.004
530.885, 4215.387
532.209, 3633.651
533.534, 3193.156
534.858, 2942.769
536.182, 2544.168
537.506, 2354.080
538.829, 2247.452
540.152, 2194.806
541.476, 2035.032
542.799, 2028.429
544.121, 1911.193
545.444, 1824.674
546.766, 1792.051
548.088, 1565.453
549.410, 1441.695
550.732, 1433.051
552.053, 1478.401
553.375, 1443.658
554.696, 1334.204
556.017, 1256.483
557.337, 1210.923
558.658, 1084.081
559.978, 944.506
561.298, 845.791
562.618, 797.088
563.938, 666.839
565.257, 744.251
566.576, 851.404
567.895, 796.674
569.214, 955.753
570.533, 1053.181
571.851, 1027.911
573.170, 1060.965
574.488, 1060.189
575.805, 890.810
577.123, 834.048
578.440, 637.217
579.758, 496.333
581.075, 507.864
582.391, 393.780
583.708, 341.025
585.024, 193.468
586.341, 219.722
587.657, 171.568
588.972, 146.916
590.288, 91.894
591.603, 92.345
592.918, 56.753
594.233, 10.010
595.548, 57.147
596.863, 47.169
598.177, 23.250
599.491, 45.315
600.805, 77.437
602.119, 79.455
603.432, 100.253
604.746, 137.023
606.059, 244.195
607.372, 310.909
608.685, 329.904
609.997, 580.747
611.309, 671.592
612.621, 850.668
613.933, 880.648
615.245, 862.412
616.557, 786.641
617.868, 686.556
619.179, 542.180
620.490, 421.266
621.801, 291.840
623.111, 288.401
624.421, 148.771
625.731, 174.187
627.041, 58.536
628.351, 92.131
629.660, 64.632
630.970, 7.602
632.279, 36.525
633.588, 35.679
634.896, 24.276
636.205, 16.254
637.513, 14.193
638.821, 24.628
640.129, 9.940
641.437, 18.349
642.744, 19.355
644.051, 49.061
645.358, 35.565
646.665, 28.140
647.972, 27.806
649.278, 10.753
650.584, 5.949
651.890, 10.756
653.196, 27.232
654.502, 11.747
655.807, 45.798
657.113, 95.940
658.418, 31.198
659.722, 21.538
661.027, 42.957
662.331, 19.535
663.636, 5.820
664.940, 12.334
666.244, 22.362
667.547, 5.863
668.851, 12.977
670.154, 37.891
671.457, 7.108
672.760, 50.957
674.062, 30.116
675.365, 32.358
676.667, 31.316
677.969, 52.046
679.271, 33.932
680.572, 5.465
681.874, 35.464
683.175, 26.086
684.476, 54.763
685.777, 2.674
687.077, 12.875
688.378, 20.577
689.678, 13.943
690.978, 32.445
692.278, 1.932
693.577, 41.621
694.877, 85.769
696.176, 28.865
697.475, 41.440
698.774, 7.299
700.072, 73.893
701.371, 54.040
702.669, 18.137
703.967, 17.174
705.265, 22.151
706.562, 18.062
707.860, 60.929
709.157, 20.738
710.454, 50.488
711.751, 19.186
713.047, 54.824
714.344, 22.412
715.640, 12.941
716.936, 19.591
718.232, 15.959
719.527, 37.491
720.823, 54.155
722.118, 19.531
723.413, 15.078
724.708, 21.186
726.002, 50.235
727.297, 34.299
728.591, 19.355
729.885, 59.405
731.179, 101.239
732.472, 56.121
733.766, 10.859
735.059, 60.538
736.352, 102.167
737.645, 69.835
738.937, 132.371
740.230, 103.863
741.522, 44.312
742.814, 67.709
744.106, 107.058
745.397, 55.363
746.689, 92.618
747.980, 93.829
749.271, 105.760
750.562, 113.042
751.853, 123.008
753.143, 111.597
754.433, 107.401
755.723, 95.853
757.013, 104.754
758.303, 133.620
759.592, 136.452
760.881, 78.246
762.170, 126.996
763.459, 88.708
764.748, 103.377
766.036, 101.007
767.325, 72.596
768.613, 78.143
769.901, 100.648
771.188, 53.114
772.476, 75.535
773.763, 105.915
775.050, 54.257
776.337, 102.555
777.624, 99.631
778.910, 135.037
780.196, 107.221
781.482, 111.368
782.768, 75.017
784.054, 81.075
785.339, 48.739
786.625, 120.576
787.910, 97.447
789.195, 109.236
790.479, 91.945
791.764, 74.075
793.048, 98.279
794.332, 26.475
795.616, 111.972
796.900, 71.799
798.183, 88.646
799.467, 109.573
800.750, 69.277
802.033, 74.380
803.316, 16.470
804.598, 107.747
805.880, 36.746
807.163, 113.965
808.445, 71.839
809.726, 83.725
811.008, 62.433
812.289, 51.958
813.570, 49.073
814.851, 42.965
816.132, 36.394
817.413, 51.823
818.693, 46.855
819.973, 69.937
821.253, 15.885
822.533, 19.576
823.813, 21.074
825.092, 51.991
826.371, 42.950
827.650, 29.771
828.929, 32.136
830.208, 7.353
831.486, 8.991
832.764, 20.833
834.042, 20.849
835.320, 29.295
836.598, 27.645
837.875, 11.980
839.152, 45.121
840.429, 20.084
841.706, 125.914
842.983, 48.729
844.259, 114.576
845.536, 77.019
846.812, 72.207
848.088, 93.649
849.363, 61.062
850.639, 124.279
851.914, 68.839
853.189, 75.386
854.464, 131.539
855.739, 80.306
857.013, 79.162
858.288, 10.974
859.562, 8.931
860.836, 58.754
862.110, 30.524
863.383, 32.901
864.656, 13.032
865.930, 21.858
867.203, 13.379
868.475, 4.318
869.748, 5.037
871.020, 16.220
872.292, 19.510
873.564, 31.277
874.836, 15.726
876.108, 30.938
877.379, 9.710
878.650, 13.528
879.922, 8.025
881.192, 12.901
882.463, 17.124
883.733, 4.461
885.004, 11.369
886.274, 44.160
887.544, 8.736
888.813, 51.342
890.083, 10.479
891.352, 20.291
892.621, 50.708
893.890, 3.906
895.159, 52.268
896.427, 49.015
897.695, 27.243
898.964, 85.825
900.232, 89.917
901.499, 70.031
902.767, 64.286
904.034, 82.626
905.301, 64.058
906.568, 129.407
907.835, 138.749
909.102, 197.018
910.368, 174.372
911.634, 246.927
912.900, 294.496
914.166, 293.643
915.432, 367.225
916.697, 408.505
917.962, 468.917
919.227, 546.320
920.492, 618.479
921.757, 571.720
923.021, 632.163
924.285, 576.128
925.550, 574.383
926.813, 575.903
928.077, 573.935
929.341, 572.042
930.604, 501.957
931.867, 548.626
933.130, 526.223
934.393, 472.861
935.655, 555.225
936.918, 499.654
938.180, 603.792
939.442, 581.526
940.703, 679.202
941.965, 776.954
943.226, 792.683
944.488, 856.331
945.749, 1051.173
947.009, 1178.492
948.270, 1324.373
949.530, 1711.217
950.791, 1957.145
952.051, 2330.109
953.311, 2759.095
954.570, 3354.124
955.830, 4099.881
957.089, 4844.963
958.348, 5683.994
959.607, 6661.122
960.866, 7636.269
962.124, 8526.447
963.383, 9310.660
964.641, 9421.925
965.899, 8996.222
967.156, 8169.555
968.414, 7046.925
969.671, 6029.315
970.928, 5121.736
972.185, 4314.181
973.442, 3803.659
974.699, 3266.162
975.955, 2961.696
977.211, 2639.268
978.468, 2498.865
979.723, 2420.503
980.979, 2320.181
982.234, 2439.896
983.490, 2557.539
984.745, 2614.033
986.000, 2945.814
987.254, 3434.212
988.509, 3820.067
989.763, 4563.824
991.017, 5605.737
992.271, 5922.678
993.525, 6449.647
994.779, 6787.666
996.032, 6764.706
997.285, 6740.772
998.538, 6528.870
999.791, 6090.007
1001.044, 6034.165
1002.296, 5689.367
1003.548, 5582.600
1004.800, 5319.885
1006.052, 5055.197
1007.304, 4712.531
1008.555, 4278.895
1009.807, 3883.288
1011.058, 3522.715
1012.309, 3108.176
1013.559, 2714.664
1014.810, 2506.183
1016.060, 2139.725
1017.310, 1927.296
1018.560, 1698.891
1019.810, 1451.519
1021.060, 1387.176
1022.309, 1353.720
1023.558, 1262.250
1024.807, 1203.618
1026.056, 1161.246
1027.305, 1158.674
1028.553, 1189.511
1029.801, 1203.377
1031.049, 1310.339
1032.297, 1310.148
1033.545, 1361.935
1034.793, 1446.677
1036.040, 1383.587
1037.287, 1384.617
1038.534, 1465.674
1039.781, 1619.029
1041.027, 1870.048
1042.274, 1915.185
1043.520, 2246.343
1044.766, 2449.521
1046.012, 2566.725
1047.257, 2725.660
1048.503, 2841.128
1049.748, 3032.309
1050.993, 3125.221
1052.238, 3310.536
1053.483, 3568.907
1054.727, 3883.732
1055.971, 4093.572
1057.216, 4261.962
1058.459, 4005.030
1059.703, 3476.521
1060.947, 2928.375
1062.190, 2617.459
1063.433, 2088.715
1064.676, 1703.912
1065.919, 1433.261
1067.162, 1268.846
1068.404, 1139.878
1069.646, 945.429
1070.888, 965.692
1072.130, 814.684
1073.372, 766.338
1074.613, 802.983
1075.855, 789.682
1077.096, 721.361
1078.337, 684.060
1079.578, 732.775
1080.818, 699.507
1082.059, 670.255
1083.299, 710.017
1084.539, 778.795
1085.779, 864.590
1087.018, 864.711
1088.258, 882.231
1089.497, 863.076
1090.736, 880.935
1091.975, 845.809
1093.213, 885.698
1094.452, 903.602
1095.690, 886.520
1096.928, 896.454
1098.166, 923.402
1099.404, 1000.364
1100.642, 1130.338
1101.879, 1411.327
1103.116, 1746.328
1104.353, 2044.343
1105.590, 2440.371
1106.827, 2773.412
1108.063, 2637.466
1109.299, 2372.532
1110.536, 1884.610
1111.771, 1469.700
1113.007, 1082.802
1114.243, 875.948
1115.478, 702.073
1116.713, 525.774
1117.948, 427.575
1119.183, 343.686
1120.418, 310.888
1121.652, 265.066
1122.886, 296.254
1124.120, 272.452
1125.354, 236.659
1126.588, 197.954
1127.821, 259.207
1129.055, 203.264
1130.288, 286.506
1131.521, 302.771
1132.753, 345.131
1133.986, 256.398
1135.218, 361.902
1136.450, 386.275
1137.682, 368.658
1138.914, 450.887
1140.146, 455.476
1141.377, 485.180
1142.609, 425.533
1143.840, 464.970
1145.071, 424.425
1146.301, 434.256
1147.532, 366.663
1148.762, 370.476
1149.992, 344.244
1151.222, 261.011
1152.452, 292.688
1153.682, 211.198
1154.911, 227.873
1156.140, 177.434
1157.369, 174.213
1158.598, 159.469
1159.827, 207.578
1161.055, 147.398
1162.284, 147.927
1163.512, 156.539
1164.740, 129.722
1165.967, 142.582
1167.195, 111.416
1168.422, 112.613
1169.650, 92.325
1170.877, 91.916
1172.103, 85.947
1173.330, 95.491
1174.557, 79.251
1175.783, 79.492
1177.009, 76.732
1178.235, 4.068
1179.461, 44.301
1180.686, 16.858
1181.912, 22.743
1183.137, 41.471
1184.362, 6.970
1185.587, 11.474
1186.811, 56.072
1188.036, 38.274
1189.260, 4.538
1190.484, 10.352
1191.708, 8.076
1192.932, 16.957
1194.155, 40.654
1195.378, 29.574
1196.602, 43.978
1197.825, 14.412
1199.047, 61.957
1200.270, 3.049
1201.492, 9.628
1202.715, 9.236
1203.937, 42.010
1205.159, 52.846
1206.380, 22.472
1207.602, 29.354
1208.823, 50.256
1210.044, 15.029
1211.265, 12.848
1212.486, 15.692
1213.707, 4.859
1214.927, 6.773
1216.147, 36.044
1217.367, 10.802
1218.587, 3.636
1219.807, 7.365
1221.027, 24.318
1222.246, 7.391
1223.465, 34.976
1224.684, 13.824
1225.903, 47.807
1227.121, 58.834
1228.340, 12.735
1229.558, 68.628
1230.776, 48.599
1231.994, 16.505
1233.212, 69.543
1234.429, 38.532
1235.646, 76.406
1236.864, 44.314
1238.081, 78.140
1239.297, 42.957
1240.514, 79.839
1241.730, 67.700
1242.947, 72.489
1244.163, 113.272
1245.378, 53.050
1246.594, 79.822
1247.810, 97.588
1249.025, 60.348
1250.240, 97.105
1251.455, 74.279
1252.670, 108.592
1253.885, 55.427
1255.099, 47.051
1256.313, 48.770
1257.527, 48.481
1258.741, 49.421
1259.955, 36.872
1261.168, 59.550
1262.382, 24.255
1263.595, 32.893
1264.808, 49.523
1266.021, 43.870
1267.233, 56.710
1268.446, 63.304
1269.658, 58.849
1270.870, 65.348
1272.082, 40.834
1273.294, 54.291
1274.505, 9.718
1275.716, 77.122
1276.928, 61.507
1278.139, 5.867
1279.349, 88.194
1280.560, 4.504
1281.770, 48.788
1282.981, 8.049
1284.191, 5.722
1285.401, 29.473
1286.610, 26.645
1287.820, 22.207
1289.029, 49.893
1290.239, 47.971
1291.448, 26.028
1292.656, 64.063
1293.865, 28.076
1295.073, 6.070
1296.282, 9.911
1297.490, 39.966
1298.698, 5.056
1299.906, 36.828
1301.113, 45.689
1302.320, 8.527
1303.528, 0.341
1304.735, 3.130
1305.942, 8.892
1307.148, 15.459
1308.355, 46.346
1309.561, 25.045
1310.767, 35.720
1311.973, 10.376
1313.179, 26.009
1314.384, 4.380
1315.590, 43.203
1316.795, 50.767
1318.000, 41.312
1319.205, 43.836
1320.410, 27.340
1321.614, 27.736
1322.819, 29.278
1324.023, 24.577
1325.227, 19.985
1326.431, 24.369
1327.634, 28.964
1328.838, 21.299
1330.041, 72.610
1331.244, 22.901
1332.447, 102.896
1333.650, 12.855
1334.852, 42.363
1336.055, 53.560
1337.257, 34.738
1338.459, 90.915
1339.661, 30.347
1340.862, 50.248
1342.064, 49.439
1343.265, 59.902
1344.466, 24.965
1345.667, 75.974
1346.868, 59.531
1348.068, 94.075
1349.269, 105.070
1350.469, 50.389
1351.669, 150.287
1352.869, 98.824
1354.069, 58.152
1355.268, 65.289
1356.468, 53.518
1357.667, 28.566
1358.866, 35.299
1360.065, 17.856
1361.263, 41.715
1362.462, 48.863
1363.660, 82.287
1364.858, 92.052
1366.056, 61.832
1367.254, 65.607
1368.451, 27.386
1369.649, 80.183
1370.846, 67.914
1372.043, 124.632
1373.240, 99.613
1374.436, 76.307
1375.633, 89.990
1376.829, 56.750
1378.025, 66.329
1379.221, 91.884
1380.417, 81.379
1381.613, 105.812
1382.808, 118.372
1384.003, 80.707
1385.199, 82.818
1386.393, 103.527
1387.588, 110.213
1388.783, 128.876
1389.977, 108.516
1391.171, 193.131
1392.365, 148.721
1393.559, 104.287
1394.753, 165.793
1395.946, 141.201
1397.140, 192.608
1398.333, 152.031
1399.526, 150.468
1400.719, 121.791
1401.911, 142.213
1403.104, 164.548
1404.296, 200.604
1405.488, 99.360
1406.680, 132.054
1407.872, 106.442
1409.063, 118.818
1410.255, 161.157
1411.446, 100.563
1412.637, 107.845
1413.828, 107.705
1415.018, 109.909
1416.209, 115.511
1417.399, 130.719
1418.589, 132.538
1419.779, 135.933
1420.969, 165.481
1422.159, 90.372
1423.348, 144.913
1424.537, 175.619
1425.726, 128.637
1426.915, 178.875
1428.104, 134.441
1429.293, 86.779
1430.481, 98.303
1431.669, 129.359
1432.857, 82.913
1434.045, 101.584
1435.233, 108.588
1436.420, 68.992
1437.608, 162.443
1438.795, 54.307
1439.982, 96.869
1441.169, 142.573
1442.355, 129.032
1443.542, 109.604
1444.728, 153.836
1445.914, 114.306
1447.100, 115.923
1448.286, 138.708
1449.472, 79.141
1450.657, 128.864
1451.842, 143.328
1453.027, 126.392
1454.212, 115.804
1455.397, 126.368
1456.581, 74.611
1457.766, 111.071
1458.950, 176.448
1460.134, 100.739
1461.318, 111.934
1462.501, 76.047
1463.685, 120.068
1464.868, 73.003
1466.051, 54.861
1467.234, 111.601
1468.417, 105.423
1469.600, 135.173
1470.782, 136.748
1471.965, 116.586
1473.147, 97.071
1474.329, 95.134
1475.510, 77.673
1476.692, 57.403
1477.873, 49.626
1479.055, 67.899
1480.236, 41.299
1481.416, 128.732
1482.597, 83.196
1483.778, 114.491
1484.958, 93.920
1486.138, 61.388
1487.318, 136.867
1488.498, 100.362
1489.678, 94.845
1490.857, 81.338
1492.037, 79.828
1493.216, 60.320
1494.395, 53.822
1495.574, 37.349
1496.752, 69.918
1497.931, 35.547
1499.109, 58.242
1500.287, 17.996
1501.465, 103.806
1502.643, 41.673
1503.820, 64.472
1504.998, 46.424
1506.175, 63.431
1507.352, 66.492
1508.529, 33.613
1509.706, 38.806
1510.882, 10.915
1512.059, 58.258
1513.235, 77.433
1514.411, 6.824
1515.587, 57.323
1516.762, 97.969
1517.938, 30.025
1519.113, 83.948
1520.288, 110.211
1521.463, 52.810
1522.638, 36.969
1523.813, 0.135
1524.987, 62.661
1526.162, 0.000
##END=



