##NAMES=Cornwallite
##RRUFFID=R110146
##IDEAL CHEMISTRY=Cu^2+^_5_(As^5+^O_4_)_2_(OH)_4_
##LOCALITY=Arkaroola Station, flinders Ranges, South Australia, Australia
##OWNER=RRUFF
##SOURCE=The University of Arizona Mineral Museum
##DESCRIPTION=Dark green tabular crystals on quartz, associated with lighter green elongated olivenite
##STATUS=The identification of this mineral has been confirmed by single-crystal X-ray diffraction.
##URL=rruff.info/R110146
149.7925, 0.0000000E+00
150.2747, 2.170893
150.7568, 1.897835
151.2389, 0.3582950
151.7210, 0.8238450
152.2031, 0.2884560
152.6852, 2.787960
153.1674, 6.409595
153.6495, 11.31578
154.1316, 17.82587
154.6137, 26.02548
155.0958, 35.66358
155.5779, 46.63799
156.0601, 58.81712
156.5422, 72.44304
157.0243, 87.84689
157.5064, 104.6085
157.9885, 121.9282
158.4706, 140.4937
158.9528, 158.9237
159.4349, 176.5478
159.9170, 192.9636
160.3991, 209.0779
160.8812, 225.9362
161.3633, 242.7821
161.8455, 257.6344
162.3276, 270.0778
162.8097, 280.0558
163.2918, 287.9203
163.7739, 294.5953
164.2560, 297.7973
164.7382, 296.1487
165.2203, 290.0666
165.7024, 281.1615
166.1845, 268.8369
166.6666, 254.5814
167.1487, 239.8147
167.6309, 224.2184
168.1130, 208.7418
168.5951, 193.8845
169.0772, 179.6342
169.5593, 166.3266
170.0414, 154.3435
170.5236, 143.3181
171.0057, 132.9582
171.4878, 122.8163
171.9699, 113.4142
172.4520, 105.3347
172.9341, 98.51065
173.4163, 92.58967
173.8984, 87.52482
174.3805, 83.13608
174.8626, 79.25293
175.3447, 75.66953
175.8268, 72.56563
176.3090, 70.13187
176.7911, 68.38240
177.2732, 67.19853
177.7553, 65.85354
178.2374, 64.21577
178.7195, 62.80942
179.2017, 61.94173
179.6838, 61.40793
180.1659, 60.74250
180.6480, 59.89228
181.1301, 59.54812
181.6122, 60.62578
182.0944, 62.82896
182.5765, 65.14780
183.0586, 67.09753
183.5407, 68.86781
184.0228, 70.94044
184.5049, 73.29720
184.9871, 75.97496
185.4692, 78.97147
185.9513, 82.30368
186.4334, 85.90576
186.9155, 89.79035
187.3976, 93.93937
187.8798, 98.44699
188.3619, 103.3619
188.8440, 108.3825
189.3261, 113.0322
189.8082, 117.3639
190.2903, 121.4661
190.7725, 125.1425
191.2546, 128.6541
191.7367, 132.6291
192.2188, 136.8936
192.7009, 142.0748
193.1830, 149.1394
193.6652, 158.0062
194.1473, 168.0628
194.6294, 179.3420
195.1115, 191.7621
195.5936, 204.2284
196.0757, 216.8517
196.5579, 229.2045
197.0400, 241.1886
197.5221, 253.0577
198.0042, 262.1121
198.4863, 267.1740
198.9684, 268.2362
199.4506, 265.2444
199.9327, 257.9468
200.4148, 247.2905
200.8969, 234.6042
201.3790, 219.3743
201.8611, 203.1135
202.3433, 186.3268
202.8254, 168.9141
203.3075, 152.4828
203.7896, 137.2030
204.2717, 123.1066
204.7538, 110.5541
205.2360, 99.64197
205.7181, 89.84511
206.2002, 80.94913
206.6823, 73.00105
207.1644, 65.57108
207.6465, 58.19059
208.1287, 51.35281
208.6108, 45.34329
209.0929, 40.29788
209.5750, 35.72420
210.0571, 31.29224
210.5392, 26.83862
211.0214, 23.09720
211.5035, 20.27991
211.9856, 18.17242
212.4677, 15.87516
212.9498, 13.14737
213.4319, 10.75845
213.9140, 9.255661
214.3962, 8.912560
214.8783, 8.456924
215.3604, 7.701859
215.8425, 6.766724
216.3246, 6.153870
216.8067, 5.904472
217.2889, 5.881790
217.7710, 6.013123
218.2531, 6.314629
218.7352, 6.725380
219.2173, 7.276306
219.6994, 7.937019
220.1816, 8.495605
220.6637, 8.810776
221.1458, 9.274437
221.6279, 10.17046
222.1100, 11.71115
222.5921, 13.15073
223.0743, 14.48894
223.5564, 15.68653
224.0385, 16.59657
224.5206, 17.10093
225.0027, 17.47968
225.4848, 17.98033
225.9670, 18.92735
226.4491, 19.20537
226.9312, 18.65434
227.4133, 17.37273
227.8954, 15.73107
228.3775, 13.60003
228.8597, 11.34687
229.3418, 9.210487
229.8239, 7.236328
230.3060, 5.262970
230.7881, 3.195770
231.2702, 1.105461
231.7524, 0.5555500
232.2345, 1.611160
232.7166, 2.469917
233.1987, 3.352608
233.6808, 4.377419
234.1629, 5.169510
234.6451, 5.761452
235.1272, 6.094910
235.6093, 5.941353
236.0914, 5.115021
236.5735, 4.027985
237.0556, 2.941826
237.5378, 2.010323
238.0199, 0.8049470
238.5020, 0.7912220
238.9841, 2.692245
239.4662, 4.500168
239.9483, 6.240952
240.4305, 7.835251
240.9126, 9.261879
241.3947, 10.60970
241.8768, 11.50729
242.3589, 11.86780
242.8410, 11.82834
243.3232, 11.83359
243.8053, 12.09809
244.2874, 12.11900
244.7695, 11.57722
245.2516, 10.17735
245.7337, 8.846176
246.2159, 7.743484
246.6980, 6.736061
247.1801, 5.346642
247.6622, 3.183022
248.1443, 1.202850
248.6264, 5.9455998E-02
249.1086, 0.2057950
249.5907, 0.6343230
250.0728, 1.527725
250.5549, 2.670929
251.0370, 3.512833
251.5191, 4.078819
252.0013, 4.298546
252.4834, 4.095985
252.9655, 3.294296
253.4476, 2.532753
253.9297, 1.823662
254.4118, 1.148239
254.8940, 0.4841160
255.3761, 4.2702001E-02
255.8582, 0.7837910
256.3403, 1.879517
256.8224, 3.354813
257.3046, 5.100937
257.7867, 7.200241
258.2688, 9.495071
258.7509, 11.66118
259.2330, 13.58873
259.7151, 15.56082
260.1973, 17.69347
260.6794, 19.95773
261.1615, 22.31348
261.6436, 24.65051
262.1257, 27.14584
262.6078, 30.08914
263.0900, 33.47511
263.5721, 37.27638
264.0542, 41.53726
264.5363, 46.41254
265.0184, 51.04089
265.5005, 55.33388
265.9827, 59.58286
266.4648, 64.30959
266.9469, 69.58373
267.4290, 75.05678
267.9111, 80.77580
268.3932, 86.74982
268.8754, 92.32468
269.3575, 97.30756
269.8396, 102.1701
270.3217, 107.4827
270.8038, 113.3512
271.2859, 119.1927
271.7681, 124.9241
272.2502, 130.5038
272.7323, 135.5282
273.2144, 140.0293
273.6965, 143.7297
274.1786, 146.3469
274.6608, 147.9151
275.1429, 148.3235
275.6250, 147.4856
276.1071, 145.4642
276.5892, 142.5759
277.0714, 138.8363
277.5535, 134.3185
278.0356, 129.0321
278.5177, 122.9497
278.9998, 116.3538
279.4819, 109.2085
279.9641, 101.5891
280.4462, 94.04907
280.9283, 86.52264
281.4104, 79.25798
281.8925, 72.36137
282.3746, 65.83475
282.8568, 59.62329
283.3389, 53.69473
283.8210, 48.09930
284.3031, 42.99593
284.7852, 38.38182
285.2673, 34.15826
285.7495, 30.23150
286.2316, 26.59996
286.7137, 23.22987
287.1958, 20.11053
287.6779, 17.25835
288.1600, 14.73799
288.6422, 12.54992
289.1243, 10.54644
289.6064, 8.606377
290.0885, 6.752403
290.5706, 5.315788
291.0527, 4.389717
291.5349, 3.700188
292.0170, 2.857300
292.4991, 1.880997
292.9812, 0.8690570
293.4633, 0.2004240
293.9454, 1.229897
294.4276, 1.931252
294.9097, 2.258766
295.3918, 2.391693
295.8739, 2.553566
296.3560, 2.723854
296.8381, 2.769386
297.3203, 2.683105
297.8024, 2.412613
298.2845, 1.735100
298.7666, 0.6031800
299.2487, 0.5293880
299.7308, 1.178230
300.2130, 1.464218
300.6951, 1.717712
301.1772, 1.785500
301.6593, 2.033691
302.1414, 3.140320
302.6235, 5.080559
303.1057, 7.208061
303.5878, 8.914337
304.0699, 10.42506
304.5520, 12.12795
305.0341, 14.23718
305.5162, 16.50655
305.9984, 18.75876
306.4805, 20.96136
306.9626, 23.10013
307.4447, 24.79435
307.9268, 26.48242
308.4089, 28.76840
308.8911, 32.10355
309.3732, 35.66195
309.8553, 38.71429
310.3374, 41.42906
310.8195, 44.41171
311.3016, 47.88667
311.7838, 51.77303
312.2659, 56.07300
312.7480, 60.84059
313.2301, 65.83431
313.7122, 70.95038
314.1943, 76.23113
314.6765, 81.69437
315.1586, 87.42204
315.6407, 93.28226
316.1228, 99.18916
316.6049, 105.0309
317.0870, 111.3007
317.5692, 118.4218
318.0513, 125.9961
318.5334, 133.4279
319.0155, 140.4146
319.4976, 147.3321
319.9797, 154.3408
320.4619, 161.4653
320.9440, 168.3803
321.4261, 174.9736
321.9082, 181.2587
322.3903, 187.2211
322.8724, 192.7782
323.3546, 198.0510
323.8367, 202.8710
324.3188, 207.2709
324.8009, 212.0038
325.2830, 217.2888
325.7651, 222.8363
326.2473, 228.4474
326.7294, 233.7100
327.2115, 239.4901
327.6936, 246.0642
328.1757, 253.2671
328.6578, 260.5264
329.1400, 268.6005
329.6221, 276.0627
330.1042, 282.4173
330.5863, 287.5376
331.0684, 291.9183
331.5505, 295.6674
332.0327, 298.6311
332.5148, 300.4405
332.9969, 301.1338
333.4790, 300.5758
333.9611, 298.6689
334.4432, 295.2886
334.9254, 290.8869
335.4075, 285.0929
335.8896, 278.6230
336.3717, 272.5404
336.8538, 267.2567
337.3359, 261.4582
337.8180, 254.6335
338.3001, 246.8396
338.7823, 239.6663
339.2644, 233.3609
339.7465, 227.3568
340.2286, 221.0811
340.7107, 214.5219
341.1928, 208.0897
341.6750, 201.9671
342.1571, 196.0799
342.6392, 190.5804
343.1213, 185.5002
343.6034, 180.4093
344.0855, 174.8365
344.5677, 168.8528
345.0498, 163.0350
345.5319, 157.5268
346.0140, 152.1649
346.4961, 146.6007
346.9782, 140.8667
347.4604, 135.1828
347.9425, 129.5523
348.4246, 124.0480
348.9067, 119.2343
349.3888, 115.1875
349.8709, 111.6011
350.3531, 108.2309
350.8352, 105.0293
351.3173, 101.8495
351.7994, 98.38786
352.2815, 94.98079
352.7636, 92.23909
353.2458, 90.17085
353.7279, 88.32270
354.2100, 86.40005
354.6921, 84.42912
355.1742, 82.48844
355.6563, 80.85358
356.1385, 79.00570
356.6206, 76.22691
357.1027, 72.68510
357.5848, 69.26623
358.0669, 66.56589
358.5490, 64.16357
359.0312, 61.69437
359.5133, 59.12016
359.9954, 56.39793
360.4775, 53.32501
360.9596, 50.05404
361.4417, 46.97643
361.9239, 44.40070
362.4060, 41.91736
362.8881, 39.24074
363.3702, 36.26291
363.8523, 33.52001
364.3344, 31.35814
364.8166, 29.46270
365.2987, 27.45869
365.7808, 25.17927
366.2629, 22.91505
366.7450, 20.72401
367.2271, 18.60881
367.7093, 16.59428
368.1914, 14.71371
368.6735, 12.91279
369.1556, 11.14135
369.6377, 9.189102
370.1198, 7.576126
370.6020, 6.482735
371.0841, 5.764053
371.5662, 4.887260
372.0483, 3.707924
372.5304, 2.555405
373.0125, 1.569984
373.4947, 0.8179320
373.9768, 5.1270001E-02
374.4589, 0.7820210
374.9410, 1.597015
375.4231, 2.226585
375.9052, 2.603790
376.3874, 2.993073
376.8695, 3.499382
377.3516, 4.119331
377.8337, 4.555084
378.3158, 4.773697
378.7979, 4.906845
379.2801, 5.113640
379.7622, 5.404152
380.2443, 5.532745
380.7264, 5.413162
381.2085, 5.133171
381.6906, 4.928497
382.1728, 4.802979
382.6549, 4.666382
383.1370, 4.479897
383.6191, 4.238678
384.1012, 3.932945
384.5833, 3.558472
385.0655, 3.121429
385.5476, 2.719139
386.0297, 2.287025
386.5118, 1.615234
386.9939, 0.4997630
387.4760, 0.8851010
387.9582, 2.395508
388.4403, 4.044373
388.9224, 5.520119
389.4045, 6.332764
389.8866, 6.862534
390.3687, 7.668854
390.8509, 9.171539
391.3330, 10.73892
391.8151, 11.83682
392.2972, 12.59286
392.7793, 13.54436
393.2614, 15.02364
393.7436, 16.74773
394.2257, 18.59728
394.7078, 20.64918
395.1899, 22.54205
395.6720, 23.83923
396.1541, 24.94775
396.6363, 26.52211
397.1184, 29.16765
397.6005, 31.88637
398.0826, 34.28871
398.5647, 36.29339
399.0468, 38.51483
399.5290, 40.95615
400.0111, 43.66827
400.4932, 46.69563
400.9753, 50.19202
401.4574, 53.80708
401.9395, 57.44514
402.4217, 61.15550
402.9038, 65.08391
403.3859, 69.17635
403.8680, 73.56809
404.3501, 78.38947
404.8322, 83.71531
405.3144, 89.05610
405.7965, 94.32000
406.2786, 99.63040
406.7607, 105.1793
407.2428, 111.0081
407.7249, 116.8847
408.2071, 122.7454
408.6892, 128.5719
409.1713, 134.0170
409.6534, 139.0527
410.1355, 143.9937
410.6176, 149.3767
411.0998, 155.0467
411.5819, 159.9515
412.0640, 163.8625
412.5461, 166.9648
413.0282, 169.7259
413.5103, 172.0607
413.9925, 173.5621
414.4746, 173.8076
414.9567, 173.1445
415.4388, 172.0271
415.9209, 170.4582
416.4030, 168.6737
416.8852, 166.9528
417.3673, 165.1205
417.8494, 162.8917
418.3315, 159.8583
418.8136, 156.6297
419.2957, 153.1836
419.7779, 149.6978
420.2600, 147.0857
420.7421, 146.2758
421.2242, 146.2155
421.7063, 146.0862
422.1884, 145.1956
422.6706, 145.2503
423.1527, 146.9482
423.6348, 149.8395
424.1169, 153.0662
424.5990, 156.1419
425.0811, 159.9175
425.5633, 164.4272
426.0454, 169.5087
426.5275, 176.3996
427.0096, 185.6177
427.4917, 196.3110
427.9738, 207.8076
428.4560, 219.8930
428.9381, 233.1404
429.4202, 247.5769
429.9023, 263.0171
430.3844, 279.6592
430.8665, 297.3324
431.3487, 316.4159
431.8308, 336.9853
432.3129, 358.9113
432.7950, 382.9581
433.2771, 409.3389
433.7592, 437.1861
434.2414, 465.6572
434.7235, 494.8148
435.2056, 525.4943
435.6877, 558.0971
436.1698, 592.1885
436.6519, 627.4526
437.1341, 663.9119
437.6162, 701.3726
438.0983, 741.2571
438.5804, 782.1238
439.0625, 821.7589
439.5446, 860.0964
440.0268, 896.1500
440.5089, 929.4795
440.9910, 959.9990
441.4731, 987.0167
441.9552, 1012.474
442.4373, 1032.899
442.9195, 1046.424
443.4016, 1052.976
443.8837, 1053.423
444.3658, 1047.898
444.8479, 1036.500
445.3300, 1019.335
445.8122, 995.0795
446.2943, 966.5493
446.7764, 932.7299
447.2585, 894.8098
447.7406, 855.8369
448.2227, 814.7764
448.7049, 773.8684
449.1870, 733.1180
449.6691, 692.7232
450.1512, 653.3274
450.6333, 614.9013
451.1154, 578.0409
451.5976, 543.2414
452.0797, 510.7072
452.5618, 480.6999
453.0439, 453.2115
453.5260, 428.4524
454.0081, 405.6205
454.4903, 384.7094
454.9724, 365.2822
455.4545, 346.8996
455.9366, 329.7071
456.4187, 313.5057
456.9008, 298.3967
457.3830, 284.3641
457.8651, 272.3815
458.3472, 261.7951
458.8293, 251.0666
459.3114, 239.2334
459.7935, 227.3358
460.2757, 216.5146
460.7578, 206.6798
461.2399, 197.1419
461.7220, 187.4985
462.2041, 177.9239
462.6862, 168.6804
463.1684, 159.8315
463.6505, 151.3076
464.1326, 143.1011
464.6147, 135.3231
465.0968, 127.9749
465.5789, 121.4101
466.0611, 115.1425
466.5432, 108.9329
467.0253, 102.8332
467.5074, 97.11949
467.9895, 92.00124
468.4716, 87.13263
468.9538, 82.37332
469.4359, 77.70430
469.9180, 73.30225
470.4001, 69.11261
470.8822, 65.17693
471.3643, 61.54166
471.8465, 58.23840
472.3286, 55.13795
472.8107, 52.21358
473.2928, 49.48900
473.7749, 46.84221
474.2570, 44.27348
474.7392, 41.85202
475.2213, 39.55898
475.7034, 37.42783
476.1855, 35.76500
476.6676, 34.68729
477.1497, 33.79002
477.6319, 32.65337
478.1140, 31.27744
478.5961, 29.66731
479.0782, 27.42862
479.5603, 25.20258
480.0424, 23.82576
480.5246, 23.21571
481.0067, 22.75513
481.4888, 22.15884
481.9709, 21.47868
482.4530, 20.72369
482.9352, 19.79005
483.4173, 19.04475
483.8994, 18.71007
484.3815, 18.63363
484.8636, 18.58970
485.3457, 18.55916
485.8279, 18.52182
486.3100, 18.45147
486.7921, 18.34891
487.2742, 18.32915
487.7563, 18.53235
488.2384, 18.67753
488.7206, 18.57167
489.2027, 18.02644
489.6848, 17.78618
490.1669, 18.01357
490.6490, 18.38559
491.1311, 18.32037
491.6133, 17.74249
492.0954, 17.27810
492.5775, 17.16170
493.0596, 17.29314
493.5417, 17.31834
494.0238, 17.23355
494.5060, 17.07195
494.9881, 16.80705
495.4702, 16.50713
495.9523, 16.32475
496.4344, 16.30103
496.9165, 16.28514
497.3987, 16.15115
497.8808, 15.91933
498.3629, 15.63969
498.8450, 15.29387
499.3271, 14.94719
499.8092, 14.59074
500.2914, 14.21355
500.7735, 13.95025
501.2556, 14.20012
501.7377, 14.40100
502.2198, 14.07693
502.7019, 12.65963
503.1841, 11.70935
503.6662, 11.98872
504.1483, 12.75330
504.6304, 13.06765
505.1125, 12.50156
505.5946, 12.22002
506.0768, 12.54725
506.5589, 13.25145
507.0410, 13.26738
507.5231, 12.39399
508.0052, 11.43543
508.4873, 10.78198
508.9695, 10.44572
509.4516, 10.15099
509.9337, 9.924744
510.4158, 9.602600
510.8979, 8.928101
511.3800, 7.959953
511.8622, 7.027344
512.3443, 6.194580
512.8264, 5.514259
513.3085, 5.086426
513.7906, 4.836731
514.2728, 4.543625
514.7549, 4.078789
515.2370, 3.521545
515.7191, 2.917206
516.2012, 2.278946
516.6833, 1.735352
517.1655, 1.451210
517.6476, 1.189491
518.1297, 0.7483900
518.6118, 0.2617650
519.0939, 1.029320
519.5760, 1.398453
520.0582, 1.417206
520.5403, 1.242172
521.0224, 0.6252140
521.5045, 0.1709440
521.9866, 0.1150740
522.4688, 0.4585950
522.9509, 0.5790710
523.4330, 0.4684300
523.9151, 0.1675030
524.3972, 0.3427430
524.8793, 1.067093
525.3615, 1.767937
525.8436, 2.417671
526.3257, 3.053383
526.8078, 3.701401
527.2899, 4.372070
527.7720, 5.117546
528.2542, 5.938393
528.7363, 6.855614
529.2184, 8.007378
529.7005, 9.330040
530.1826, 10.51305
530.6647, 11.31313
531.1469, 11.92033
531.6290, 12.44936
532.1111, 12.86988
532.5932, 13.44736
533.0753, 14.49026
533.5574, 15.65699
534.0396, 16.58304
534.5217, 16.97372
535.0038, 17.40147
535.4859, 18.06617
535.9680, 18.83550
536.4501, 19.30219
536.9323, 19.49286
537.4144, 19.33012
537.8965, 18.68668
538.3786, 17.55114
538.8607, 16.62766
539.3428, 15.95162
539.8250, 15.40845
540.3071, 15.00732
540.7892, 14.72108
541.2713, 14.15509
541.7534, 13.21848
542.2355, 12.08894
542.7177, 10.87917
543.1998, 9.651077
543.6819, 8.647316
544.1640, 8.241241
544.6461, 7.944748
545.1282, 7.226776
545.6104, 6.161179
546.0925, 5.182785
546.5746, 4.631195
547.0567, 4.168983
547.5388, 3.521828
548.0209, 2.551109
548.5031, 1.754944
548.9852, 1.352341
549.4673, 1.110352
549.9494, 0.7756960
550.4315, 0.1921310
550.9136, 0.2405550
551.3958, 0.4060820
551.8779, 0.4167250
552.3600, 0.6166000
552.8421, 1.072502
553.3242, 1.496574
553.8063, 1.760616
554.2885, 1.883362
554.7706, 2.006069
555.2527, 2.128910
555.7348, 2.248734
556.2169, 2.435349
556.6990, 2.612156
557.1812, 2.533558
557.6633, 2.084549
558.1454, 1.672150
558.6275, 1.970238
559.1096, 2.537376
559.5917, 2.609966
560.0739, 1.099545
560.5560, 0.2493210
561.0381, 0.4740750
561.5202, 0.2365490
562.0023, 1.022377
562.4844, 1.949467
562.9666, 2.667492
563.4487, 2.947849
563.9308, 2.690033
564.4129, 2.518970
564.8950, 2.496887
565.3771, 2.493637
565.8593, 2.406673
566.3414, 2.225620
566.8235, 2.008980
567.3056, 1.759384
567.7877, 1.483089
568.2698, 1.146843
568.7520, 0.7608340
569.2341, 0.5036930
569.7162, 0.5405690
570.1983, 0.6828650
570.6804, 0.5863420
571.1625, 0.2704620
571.6447, 0.1133000
572.1268, 0.6191900
572.6089, 1.058384
573.0910, 1.172962
573.5731, 0.8814090
574.0552, 0.6871340
574.5374, 0.8037870
575.0195, 1.127987
575.5016, 1.561146
575.9837, 2.318409
576.4658, 2.891399
576.9479, 3.122162
577.4301, 3.162663
577.9122, 3.307522
578.3943, 3.587826
578.8764, 3.919498
579.3585, 4.273361
579.8406, 4.648640
580.3228, 5.090485
580.8049, 5.614868
581.2870, 6.115562
581.7691, 6.461674
582.2512, 6.716991
582.7333, 7.140583
583.2155, 7.753590
583.6975, 8.486458
584.1796, 9.356102
584.6617, 10.29148
585.1439, 11.18846
585.6260, 12.05909
586.1081, 12.81524
586.5902, 13.18831
587.0723, 13.43177
587.5544, 14.02830
588.0366, 15.55079
588.5187, 17.01050
589.0008, 18.02900
589.4829, 18.62673
589.9650, 19.36572
590.4471, 20.27407
590.9293, 21.28481
591.4114, 22.42479
591.8935, 23.76310
592.3756, 24.72287
592.8577, 25.21389
593.3398, 25.57586
593.8220, 26.11695
594.3041, 26.83215
594.7862, 27.76020
595.2683, 29.00993
595.7504, 30.21489
596.2325, 30.92844
596.7147, 31.22437
597.1968, 31.29573
597.6789, 30.87592
598.1610, 30.56507
598.6431, 30.95102
599.1252, 31.88022
599.6074, 32.63157
600.0895, 32.94287
600.5716, 33.02432
601.0537, 32.93318
601.5358, 32.63140
602.0179, 32.37630
602.5001, 32.20723
602.9822, 32.04705
603.4643, 31.83648
603.9464, 31.55667
604.4285, 31.29346
604.9106, 31.06723
605.3928, 30.82866
605.8749, 30.49056
606.3570, 30.05328
606.8391, 29.55683
607.3212, 28.96117
607.8033, 28.38186
608.2855, 28.07833
608.7676, 27.95522
609.2497, 27.67993
609.7318, 26.98296
610.2139, 26.12943
610.6960, 25.25806
611.1782, 24.38011
611.6603, 23.64284
612.1424, 23.28391
612.6245, 22.95314
613.1066, 22.42690
613.5887, 21.58780
614.0709, 20.75878
614.5530, 19.86273
615.0351, 19.05715
615.5172, 18.50942
615.9993, 18.24174
616.4814, 18.09572
616.9636, 18.13976
617.4457, 18.16413
617.9278, 17.64174
618.4099, 16.63790
618.8920, 15.87482
619.3741, 15.78975
619.8563, 15.94074
620.3384, 15.70693
620.8205, 15.14130
621.3026, 14.48074
621.7847, 13.78547
622.2668, 13.13892
622.7490, 12.61231
623.2311, 12.21345
623.7132, 11.88119
624.1953, 11.71002
624.6774, 11.53384
625.1595, 11.23114
625.6417, 10.68686
626.1238, 10.25369
626.6059, 9.940834
627.0880, 9.727768
627.5701, 9.617359
628.0522, 9.621689
628.5344, 9.550325
629.0165, 9.363625
629.4986, 9.117327
629.9807, 8.884823
630.4628, 8.665482
630.9449, 8.486444
631.4271, 8.347618
631.9092, 8.245941
632.3913, 8.221088
632.8734, 8.262215
633.3555, 8.265469
633.8376, 8.132523
634.3198, 7.987850
634.8019, 7.913410
635.2840, 7.936333
635.7661, 7.907387
636.2482, 7.728600
636.7303, 7.568031
637.2125, 7.548443
637.6946, 7.727829
638.1767, 7.876751
638.6588, 7.993183
639.1409, 8.074583
639.6230, 8.094341
640.1052, 8.055079
640.5873, 8.043955
641.0694, 8.098934
641.5515, 8.174377
642.0336, 8.216846
642.5157, 8.220303
642.9979, 8.171099
643.4800, 8.011328
643.9621, 7.846825
644.4442, 7.729967
644.9263, 7.661686
645.4084, 7.657238
645.8906, 7.836687
646.3727, 7.984285
646.8548, 7.957260
647.3369, 7.712914
647.8190, 7.632778
648.3011, 7.799646
648.7833, 8.001930
649.2654, 8.095490
649.7475, 8.079870
650.2296, 7.958891
650.7117, 7.700005
651.1938, 7.464273
651.6760, 7.509552
652.1581, 7.750446
652.6402, 7.902487
653.1223, 7.827255
653.6044, 7.770296
654.0865, 8.033020
654.5687, 8.463053
655.0508, 8.772541
655.5329, 8.754787
656.0150, 8.714342
656.4971, 8.750072
656.9792, 8.851162
657.4614, 8.964537
657.9435, 9.145836
658.4256, 9.247601
658.9077, 9.207550
659.3898, 9.040092
659.8719, 8.957197
660.3541, 8.943771
660.8362, 8.993271
661.3183, 9.192783
661.8004, 9.475395
662.2825, 9.494907
662.7646, 9.202948
663.2468, 8.902414
663.7289, 8.871660
664.2110, 8.995201
664.6931, 9.134905
665.1752, 9.244564
665.6573, 9.411428
666.1395, 9.745304
666.6216, 10.09087
667.1037, 10.27442
667.5858, 10.06674
668.0679, 9.975826
668.5500, 10.07504
669.0322, 10.26619
669.5143, 10.32355
669.9964, 10.20876
670.4785, 10.13713
670.9606, 10.18439
671.4427, 10.31639
671.9249, 10.42860
672.4070, 10.53553
672.8891, 10.67767
673.3712, 10.97201
673.8533, 11.24348
674.3354, 11.24442
674.8176, 10.99435
675.2997, 10.74488
675.7818, 10.59114
676.2639, 10.50217
676.7460, 10.45243
677.2281, 10.43558
677.7103, 10.50818
678.1924, 10.78007
678.6745, 11.04032
679.1566, 11.12164
679.6387, 10.97849
680.1208, 10.85672
680.6030, 10.75692
681.0851, 10.70439
681.5672, 10.81282
682.0493, 11.02097
682.5314, 11.04053
683.0135, 10.73551
683.4957, 10.36758
683.9778, 10.20403
684.4599, 10.17829
684.9420, 10.16436
685.4241, 10.21748
685.9063, 10.17659
686.3884, 9.921213
686.8705, 9.514385
687.3526, 9.178150
687.8347, 8.970736
688.3168, 8.759365
688.7990, 8.472363
689.2811, 8.144291
689.7632, 8.034092
690.2453, 8.163898
690.7274, 8.360271
691.2095, 8.581558
691.6917, 8.782619
692.1738, 8.819632
692.6559, 8.693050
693.1380, 8.510075
693.6201, 8.251095
694.1022, 8.027863
694.5844, 7.996243
695.0665, 8.216900
695.5486, 8.345535
696.0307, 8.160755
696.5128, 7.901093
696.9949, 7.764835
697.4771, 7.877125
697.9592, 7.842510
698.4413, 7.582115
698.9234, 7.276852
699.4055, 7.205826
699.8876, 7.377167
700.3698, 7.318310
700.8519, 6.891987
701.3340, 6.357796
701.8161, 6.079876
702.2982, 5.985355
702.7803, 5.890503
703.2625, 5.715992
703.7446, 5.535973
704.2267, 5.374329
704.7088, 5.241768
705.1909, 5.163975
705.6730, 5.268040
706.1552, 5.293308
706.6373, 5.156574
707.1194, 4.887760
707.6015, 4.623550
708.0836, 4.358406
708.5657, 4.106091
709.0479, 3.858551
709.5300, 3.631786
710.0121, 3.496361
710.4942, 3.449844
710.9763, 3.438335
711.4584, 3.522732
711.9406, 3.576000
712.4227, 3.391853
712.9048, 2.967289
713.3869, 2.566002
713.8690, 2.293922
714.3511, 2.107224
714.8333, 2.016869
715.3154, 2.119808
715.7975, 1.974182
716.2796, 1.408058
716.7617, 0.8031880
717.2438, 0.5022130
717.7260, 0.5501590
718.2081, 0.3841740
718.6902, 7.6756001E-02
719.1723, 0.5468030
719.6544, 0.6691820
720.1365, 0.5436330
720.6187, 0.3900720
721.1008, 0.2083890
721.5829, 0.1383550
722.0650, 0.4462090
722.5471, 0.8730240
723.0292, 1.070496
723.5114, 0.5418170
723.9935, 0.2703320
724.4756, 0.5979840
724.9577, 1.207211
725.4398, 1.555584
725.9219, 1.565365
726.4041, 1.540173
726.8862, 1.551991
727.3683, 1.559681
727.8504, 1.397724
728.3325, 1.110443
728.8146, 1.011009
729.2968, 1.407791
729.7789, 1.926048
730.2610, 2.156948
730.7431, 2.151798
731.2252, 2.080139
731.7073, 1.951923
732.1895, 1.834816
732.6716, 1.782063
733.1537, 1.784679
733.6358, 1.710907
734.1179, 1.494556
734.6000, 1.302109
735.0822, 1.213455
735.5643, 1.214642
736.0464, 1.199402
736.5285, 1.167091
737.0106, 1.130527
737.4927, 1.132545
737.9749, 1.123810
738.4570, 0.9780880
738.9391, 0.6989140
739.4212, 0.4722520
739.9033, 0.4801750
740.3854, 0.5333330
740.8676, 0.4959560
741.3497, 0.3316650
741.8318, 0.1557920
742.3139, 5.9806999E-02
742.7960, 0.2502590
743.2781, 0.3329160
743.7603, 0.2584990
744.2424, 0.4841000
744.7245, 1.096653
745.2066, 1.701164
745.6887, 1.839897
746.1708, 1.661011
746.6530, 1.506451
747.1351, 1.409645
747.6172, 1.468540
748.0993, 1.919079
748.5814, 2.498062
749.0635, 2.892281
749.5457, 2.853676
750.0278, 2.922966
750.5099, 3.169083
750.9920, 3.540138
751.4741, 4.039780
751.9562, 4.761810
752.4384, 5.135635
752.9205, 4.985374
753.4026, 4.654442
753.8847, 4.634148
754.3668, 4.893967
754.8489, 5.376289
755.3311, 6.277771
755.8132, 6.990639
756.2953, 6.668755
756.7774, 5.829468
757.2595, 5.382622
757.7416, 6.116890
758.2238, 6.682739
758.7059, 6.588371
759.1880, 6.171013
759.6701, 6.196724
760.1522, 6.883202
760.6343, 7.310356
761.1165, 7.155540
761.5986, 6.700356
762.0807, 6.666687
762.5628, 6.989120
763.0449, 7.279671
763.5270, 7.259293
764.0092, 7.216347
764.4913, 7.534515
764.9734, 8.068184
765.4555, 8.382797
765.9376, 8.136482
766.4197, 7.829124
766.9019, 7.661873
767.3840, 7.582710
767.8661, 7.291565
768.3482, 6.655502
768.8303, 6.222313
769.3124, 6.359322
769.7946, 6.815140
770.2767, 6.633324
770.7588, 5.868462
771.2409, 5.090607
771.7230, 4.737457
772.2051, 4.482658
772.6873, 4.006325
773.1694, 3.328262
773.6515, 2.611359
774.1336, 1.754868
774.6157, 0.9904710
775.0978, 0.4649810
775.5800, 0.1857220
776.0621, 0.1417390
776.5442, 0.5869600
777.0263, 0.9527740
777.5084, 1.057617
777.9905, 0.9506530
778.4727, 0.9496310
778.9548, 1.046654
779.4369, 1.133308
779.9190, 1.166969
780.4011, 1.172882
780.8832, 1.205788
781.3654, 1.222610
781.8475, 0.9736560
782.3296, 0.2418210
782.8117, 0.5738830
783.2938, 1.301155
783.7759, 1.947029
784.2581, 2.657173
784.7402, 3.369217
785.2223, 4.313522
785.7044, 5.752205
786.1865, 7.583496
786.6686, 9.419220
787.1508, 11.23125
787.6329, 13.11543
788.1150, 15.11698
788.5971, 17.34215
789.0792, 19.79987
789.5613, 22.52413
790.0435, 25.56526
790.5256, 28.90417
791.0077, 32.62428
791.4898, 36.85647
791.9719, 41.61517
792.4540, 46.62271
792.9362, 51.82716
793.4183, 57.07249
793.9004, 61.88538
794.3825, 66.61517
794.8646, 72.12024
795.3467, 78.51189
795.8289, 85.37383
796.3110, 92.55988
796.7931, 99.93629
797.2752, 107.1908
797.7573, 114.2332
798.2394, 121.7101
798.7216, 129.9480
799.2037, 138.3760
799.6858, 146.6002
800.1679, 154.6492
800.6500, 162.5270
801.1321, 170.3635
801.6143, 177.9066
802.0964, 185.3135
802.5785, 192.1623
803.0606, 197.6580
803.5427, 201.6598
804.0248, 204.8362
804.5070, 207.6371
804.9891, 209.7846
805.4712, 211.0922
805.9533, 211.5565
806.4354, 210.9581
806.9175, 209.0330
807.3997, 206.4301
807.8818, 203.5675
808.3639, 200.4645
808.8460, 196.9986
809.3281, 193.1560
809.8102, 189.0737
810.2924, 184.6500
810.7745, 180.1668
811.2566, 176.0538
811.7387, 172.4442
812.2208, 168.7894
812.7029, 164.7796
813.1851, 160.7213
813.6672, 156.8107
814.1493, 153.0549
814.6314, 149.4181
815.1135, 145.9151
815.5956, 142.5630
816.0778, 139.5421
816.5599, 136.7359
817.0420, 133.7120
817.5241, 130.4332
818.0062, 126.8462
818.4883, 122.4545
818.9705, 117.9544
819.4526, 114.2684
819.9347, 111.7117
820.4168, 108.4375
820.8989, 103.3599
821.3810, 98.10306
821.8632, 93.45829
822.3453, 89.50142
822.8274, 85.38756
823.3095, 81.15907
823.7916, 76.94853
824.2737, 72.84612
824.7559, 68.90919
825.2380, 65.28164
825.7201, 62.00049
826.2022, 58.94570
826.6843, 56.03340
827.1664, 53.37447
827.6486, 51.12457
828.1307, 49.35204
828.6128, 47.41881
829.0949, 45.01759
829.5770, 42.95698
830.0591, 41.76093
830.5413, 41.35437
831.0234, 40.85188
831.5055, 40.25374
831.9876, 39.67847
832.4697, 39.10716
832.9518, 38.66408
833.4340, 38.35463
833.9161, 38.21635
834.3982, 38.66304
834.8803, 40.42342
835.3624, 42.23025
835.8445, 43.38451
836.3267, 43.93536
836.8088, 45.30785
837.2909, 47.63398
837.7730, 50.15503
838.2551, 52.27873
838.7372, 54.34601
839.2194, 57.31697
839.7015, 61.08834
840.1836, 65.04435
840.6657, 68.63878
841.1478, 72.46859
841.6299, 76.84885
842.1121, 81.79778
842.5942, 87.08372
843.0763, 92.37773
843.5584, 98.54862
844.0405, 105.9441
844.5226, 114.3966
845.0048, 123.1269
845.4869, 132.1784
845.9690, 142.2970
846.4511, 154.0129
846.9332, 166.7110
847.4153, 179.3238
847.8975, 192.3109
848.3796, 206.9730
848.8617, 223.9255
849.3438, 242.5545
849.8259, 262.3875
850.3080, 283.6547
850.7902, 306.7793
851.2723, 331.4095
851.7544, 358.8703
852.2365, 389.6669
852.7186, 423.2501
853.2007, 458.5104
853.6829, 495.7653
854.1650, 536.0607
854.6471, 579.9895
855.1292, 627.2253
855.6113, 677.6104
856.0934, 732.0737
856.5756, 788.6424
857.0577, 851.1266
857.5398, 916.0339
858.0219, 984.1660
858.5040, 1054.628
858.9861, 1126.206
859.4683, 1198.553
859.9504, 1269.172
860.4325, 1337.877
860.9146, 1401.232
861.3967, 1459.285
861.8788, 1507.707
862.3610, 1541.896
862.8431, 1561.297
863.3252, 1563.768
863.8073, 1549.895
864.2894, 1520.168
864.7715, 1473.625
865.2537, 1409.829
865.7358, 1338.370
866.2179, 1258.745
866.7000, 1175.436
867.1821, 1089.167
867.6642, 1003.247
868.1464, 924.0057
868.6285, 851.5387
869.1106, 784.6273
869.5927, 722.1722
870.0748, 664.8383
870.5569, 613.1586
871.0391, 567.4114
871.5212, 526.6689
872.0033, 491.5497
872.4854, 459.6949
872.9675, 430.0615
873.4496, 402.3563
873.9318, 376.9138
874.4139, 353.7353
874.8960, 332.7282
875.3781, 314.8302
875.8602, 298.2156
876.3423, 281.9747
876.8245, 266.2236
877.3066, 251.2599
877.7887, 236.9909
878.2708, 223.7774
878.7529, 211.9193
879.2350, 201.2216
879.7172, 190.8294
880.1993, 180.8648
880.6814, 171.2165
881.1635, 161.6867
881.6456, 152.5994
882.1277, 144.1036
882.6099, 136.2331
883.0920, 129.1101
883.5741, 123.1971
884.0562, 117.3413
884.5383, 111.0936
885.0204, 104.8928
885.5026, 99.91705
885.9847, 96.07291
886.4668, 91.97414
886.9489, 87.10227
887.4310, 82.08577
887.9131, 77.65403
888.3953, 73.59362
888.8774, 69.52026
889.3595, 64.87936
889.8416, 60.95190
890.3237, 58.30528
890.8058, 56.09154
891.2880, 53.32240
891.7701, 49.94047
892.2522, 46.96690
892.7343, 44.50493
893.2164, 42.23932
893.6985, 39.82026
894.1807, 37.40146
894.6628, 35.17797
895.1449, 33.21753
895.6270, 31.28568
896.1091, 29.20108
896.5912, 27.18831
897.0734, 25.36495
897.5555, 23.76465
898.0376, 22.11893
898.5197, 20.41298
899.0018, 18.85331
899.4839, 17.69896
899.9661, 16.76677
900.4482, 15.71844
900.9303, 14.55714
901.4124, 13.43336
901.8945, 12.47742
902.3766, 11.50159
902.8588, 10.28062
903.3409, 8.932533
903.8230, 7.965714
904.3051, 7.450035
904.7872, 7.007973
905.2693, 6.546303
905.7515, 6.028015
906.2336, 5.341377
906.7157, 4.528328
907.1978, 3.706734
907.6799, 2.782707
908.1620, 2.045471
908.6442, 1.727295
909.1263, 1.643425
909.6084, 1.488510
910.0905, 1.288452
910.5726, 0.9051440
911.0547, 0.2611920
911.5369, 0.4358140
912.0190, 0.8859630
912.5011, 1.171890
912.9832, 1.558159
913.4653, 2.117882
913.9474, 2.590828
914.4296, 2.830910
914.9117, 2.901199
915.3938, 2.820015
915.8759, 2.541336
916.3580, 2.344879
916.8401, 2.232048
917.3223, 2.200829
917.8044, 2.268425
918.2865, 2.415443
918.7686, 2.604897
919.2507, 2.828415
919.7328, 3.019691
920.2150, 3.215660
920.6971, 3.293926
921.1792, 3.087227
921.6613, 2.651230
922.1434, 2.437538
922.6255, 2.594193
923.1077, 2.637917
923.5898, 2.390366
924.0719, 1.987495
924.5540, 1.704205
925.0361, 1.541241
925.5182, 1.517296
926.0004, 1.784565
926.4825, 1.958015
926.9646, 1.738972
927.4467, 1.298210
927.9288, 0.8831140
928.4109, 0.4823530
928.8931, 0.1871490
929.3752, 3.6430001E-02
929.8573, 7.8876004E-02
930.3394, 0.2833980
930.8215, 0.5572740
931.3036, 0.8123470
931.7858, 1.034626
932.2679, 1.316227
932.7500, 1.838924
933.2321, 2.361046
933.7142, 2.668816
934.1964, 2.705490
934.6785, 2.864254
935.1606, 3.172184
935.6427, 3.542690
936.1248, 3.965405
936.6069, 4.406635
937.0891, 4.712616
937.5712, 4.912582
938.0533, 5.145267
938.5354, 5.572716
939.0175, 5.967941
939.4996, 6.150280
939.9818, 6.199722
940.4639, 6.343117
940.9460, 6.579700
941.4281, 6.924755
941.9102, 7.413857
942.3923, 7.953178
942.8745, 8.339993
943.3566, 8.650791
943.8387, 9.128967
944.3208, 9.880135
944.8029, 10.62396
945.2850, 11.28909
945.7672, 11.81401
946.2493, 12.08660
946.7314, 11.97453
947.2135, 12.21290
947.6956, 12.89836
948.1777, 13.63182
948.6599, 14.01310
949.1420, 14.21690
949.6241, 14.71143
950.1062, 15.48421
950.5883, 16.28074
951.0704, 17.02531
951.5526, 17.67037
952.0347, 18.15926
952.5168, 18.53719
952.9989, 18.93295
953.4810, 19.34548
953.9631, 19.79780
954.4453, 20.31539
954.9274, 20.83810
955.4095, 21.30634
955.8916, 21.70660
956.3737, 21.99195
956.8558, 22.05434
957.3380, 22.16788
957.8201, 22.42695
958.3022, 22.77169
958.7843, 23.16028
959.2664, 23.60626
959.7485, 24.05458
960.2307, 24.49796
960.7128, 24.95339
961.1949, 25.41389
961.6770, 25.91282
962.1591, 26.53619
962.6412, 27.27933
963.1234, 27.91991
963.6055, 28.25241
964.0876, 28.61131
964.5697, 29.15380
965.0518, 29.81505
965.5339, 30.30064
966.0161, 30.61082
966.4982, 30.92396
966.9803, 31.30914
967.4624, 31.72468
967.9445, 32.16676
968.4266, 32.59329
968.9088, 32.92935
969.3909, 33.18267
969.8730, 33.25316
970.3551, 33.17863
970.8372, 32.88628
971.3193, 32.20486
971.8015, 31.19023
972.2836, 30.26963
972.7657, 29.48973
973.2478, 28.80175
973.7299, 28.31667
974.2120, 27.79248
974.6942, 26.91180
975.1763, 25.65247
975.6584, 24.80962
976.1405, 24.70753
976.6226, 24.33512
977.1047, 23.20755
977.5869, 21.64945
978.0690, 20.61351
978.5511, 19.97704
979.0332, 19.23304
979.5153, 18.04435
979.9974, 16.88862
980.4796, 16.06530
980.9617, 15.39470
981.4438, 14.62350
981.9259, 13.69095
982.4080, 12.79833
982.8901, 11.92316
983.3723, 11.16811
983.8544, 10.73733
984.3365, 10.45173
984.8186, 9.954578
985.3007, 9.233791
985.7828, 8.597988
986.2650, 8.262100
986.7471, 7.936749
987.2292, 7.446384
987.7113, 7.188976
988.1934, 6.566921
988.6755, 6.532196
989.1577, 6.401234
989.6398, 5.994499
990.1219, 5.498486
990.6040, 5.057499
991.0861, 4.710114
991.5682, 4.522591
992.0504, 4.736481
992.5325, 4.752907
993.0146, 4.467941
993.4967, 4.062847
993.9788, 3.645817
994.4609, 3.232944
994.9431, 3.018036
995.4252, 3.008526
995.9073, 2.992889
996.3894, 2.798233
996.8715, 2.552174
997.3536, 2.298763
997.8358, 2.063274
998.3179, 2.001953
998.8000, 2.208641
999.2821, 2.345131
999.7642, 2.301914
1000.246, 2.147839
1000.728, 2.021709
1001.211, 1.901989
1001.693, 1.728294
1002.175, 1.418011
1002.657, 1.187332
1003.139, 1.159126
1003.621, 1.241669
1004.103, 1.389965
1004.585, 1.661213
1005.068, 1.600391
1005.550, 1.169231
1006.032, 0.7589380
1006.514, 0.7884140
1006.996, 0.9255830
1007.478, 0.6605530
1007.960, 7.3494002E-02
1008.442, 0.2944790
1008.924, 0.1498370
1009.407, 4.7169000E-02
1009.889, 0.2318120
1010.371, 0.3955880
1010.853, 0.5118600
1011.335, 0.5897640
1011.817, 0.6998980
1012.299, 0.8918190
1012.781, 0.9792790
1013.263, 0.7043000
1013.746, 0.3329280
1014.228, 0.1088260
1014.710, 5.0987002E-02
1015.192, 0.1704750
1015.674, 0.5266190
1016.156, 0.8678630
1016.638, 0.9895740
1017.120, 1.016426
1017.603, 1.276329
1018.085, 1.691429
1018.567, 1.981892
1019.049, 1.940376
1019.531, 1.848385
1020.013, 1.707527
1020.495, 1.615154
1020.977, 1.756210
1021.459, 2.137249
1021.942, 2.444752
1022.424, 2.640579
1022.906, 2.750980
1023.388, 2.702835
1023.870, 2.649052
1024.352, 2.787979
1024.834, 3.160637
1025.316, 3.367908
1025.799, 3.285847
1026.281, 3.258450
1026.763, 3.480171
1027.245, 3.800911
1027.727, 3.824909
1028.209, 3.610188
1028.691, 3.336704
1029.173, 2.956711
1029.656, 2.720673
1030.138, 2.883919
1030.620, 3.167152
1031.102, 3.281693
1031.584, 3.209103
1032.066, 3.048363
1032.548, 2.794003
1033.030, 2.510162
1033.512, 2.196674
1033.995, 1.921410
1034.477, 1.802319
1034.959, 1.817692
1035.441, 1.801685
1035.923, 1.675236
1036.405, 1.588669
1036.887, 1.616714
1037.369, 1.644367
1037.851, 1.354893
1038.334, 0.8586390
1038.816, 0.5898670
1039.298, 0.7022090
1039.780, 0.7888260
1040.262, 0.5136800
1040.744, 0.1752130
1041.226, 2.4967000E-02
1041.708, 7.6530002E-02
1042.191, 6.4361997E-02
1042.673, 2.3579000E-02
1043.155, 7.5653002E-02
1043.637, 6.3262999E-02
1044.119, 0.1880190
1044.601, 0.1611440
1045.083, 0.7337420
1045.565, 0.9416500
1046.047, 0.2756880
1046.530, 0.2971420
1047.012, 0.7250440
1047.494, 0.9860690
1047.976, 1.019360
1048.458, 0.8569680
1048.940, 0.6210290
1049.422, 0.3242070
1049.904, 9.1686003E-02
1050.386, 2.3441000E-02
1050.869, 1.9760000E-02
1051.351, 1.5591000E-02
1051.833, 2.2930000E-02
1052.315, 0.1259230
1052.797, 0.3428920
1053.279, 0.5069960
1053.761, 0.5643310
1054.243, 0.5777400
1054.726, 0.6159100
1055.208, 0.6649250
1055.690, 0.7083970
1056.172, 0.7478830
1056.654, 0.7792700
1057.136, 0.8102570
1057.618, 0.8136020
1058.100, 0.7398640
1058.583, 0.6311680
1059.065, 0.6950000
1059.547, 0.8884470
1060.029, 1.013783
1060.511, 0.9092520
1060.993, 0.7901800
1061.475, 0.7177700
1061.957, 0.7014200
1062.439, 0.7696230
1062.922, 0.9322430
1063.404, 1.052235
1063.886, 1.121761
1064.368, 1.117287
1064.850, 0.8919450
1065.332, 0.6586760
1065.814, 0.6768840
1066.296, 0.9322590
1066.778, 1.081833
1067.261, 0.9953120
1067.743, 1.042805
1068.225, 1.374645
1068.707, 1.787201
1069.189, 1.859406
1069.671, 1.720268
1070.153, 1.662914
1070.635, 1.757957
1071.118, 1.931919
1071.600, 2.308430
1072.082, 2.594902
1072.564, 2.571712
1073.046, 2.286160
1073.528, 2.272385
1074.010, 2.513630
1074.492, 2.787807
1074.974, 2.992434
1075.457, 3.173054
1075.939, 3.333168
1076.421, 3.496525
1076.903, 3.714336
1077.385, 4.015255
1077.867, 4.275192
1078.349, 4.472435
1078.831, 4.698023
1079.313, 5.017467
1079.796, 5.414536
1080.278, 5.930176
1080.760, 6.536112
1081.242, 7.016375
1081.724, 7.113541
1082.206, 7.342150
1082.688, 7.873474
1083.170, 8.497036
1083.652, 8.686047
1084.135, 8.615414
1084.617, 9.017967
1085.099, 10.09452
1085.581, 11.15257
1086.063, 11.74717
1086.545, 12.24275
1087.027, 12.83351
1087.509, 13.49630
1087.992, 14.28585
1088.474, 15.21610
1088.956, 16.16002
1089.438, 17.12705
1089.920, 17.96958
1090.402, 18.37282
1090.884, 18.63421
1091.366, 19.16887
1091.849, 20.13636
1092.331, 21.15338
1092.813, 22.30441
1093.295, 23.21462
1093.777, 23.50135
1094.259, 23.42484
1094.741, 23.43152
1095.223, 23.50077
1095.705, 23.54806
1096.188, 23.56606
1096.670, 23.51798
1097.152, 23.38601
1097.634, 23.20347
1098.116, 23.05383
1098.598, 22.88777
1099.080, 22.42396
1099.562, 21.64084
1100.044, 20.88939
1100.527, 20.45376
1101.009, 20.04040
1101.491, 19.48984
1101.973, 18.84272
1102.455, 18.24819
1102.937, 17.68248
1103.419, 17.03881
1103.901, 16.32816
1104.384, 15.58601
1104.866, 14.84286
1105.348, 14.12601
1105.830, 13.39168
1106.312, 12.60164
1106.794, 12.16431
1107.276, 12.22145
1107.758, 12.03151
1108.240, 11.07000
1108.723, 9.898739
1109.205, 9.427937
1109.687, 9.388897
1110.169, 9.261400
1110.651, 8.845030
1111.133, 8.432779
1111.615, 8.039974
1112.097, 7.648777
1112.579, 7.227604
1113.062, 6.801498
1113.544, 6.496126
1114.026, 6.277842
1114.508, 5.993404
1114.990, 5.399893
1115.472, 4.942463
1115.954, 4.863272
1116.436, 4.910252
1116.919, 4.751089
1117.401, 4.403530
1117.883, 4.126562
1118.365, 3.941830
1118.847, 3.789331
1119.329, 3.715607
1119.811, 3.578077
1120.293, 3.142374
1120.776, 2.566734
1121.258, 2.469267
1121.740, 2.924389
1122.222, 3.085192
1122.704, 2.724632
1123.186, 2.239080
1123.668, 1.939709
1124.150, 1.787212
1124.632, 1.783203
1125.115, 1.945976
1125.597, 1.960100
1126.079, 1.774487
1126.561, 1.612663
1127.043, 1.594324
1127.525, 1.588638
1128.007, 1.266399
1128.489, 0.8386960
1128.971, 0.7007450
1129.454, 1.119539
1129.936, 1.359821
1130.418, 1.304790
1130.900, 1.162767
1131.382, 1.044340
1131.864, 0.9409070
1132.346, 0.7796170
1132.828, 0.6015280
1133.311, 0.5423660
1133.793, 0.8889370
1134.275, 1.047928
1134.757, 0.7911280
1135.239, 0.4064750
1135.721, 0.1094170
1136.203, 8.9602999E-02
1136.685, 5.0312001E-02
1137.167, 0.2032620
1137.650, 0.3822080
1138.132, 0.2174850
1138.614, 3.9903998E-02
1139.096, 3.3636000E-02
1139.578, 0.1071320
1140.060, 0.1109810
1140.542, 4.3171000E-02
1141.024, 1.3474000E-02
1141.506, 3.4132000E-02
1141.989, 8.5674003E-02
1142.471, 0.2695390
1142.953, 0.3763450
1143.435, 0.1324310
1143.917, 0.3504640
1144.399, 0.4911440
1144.881, 0.2222190
1145.363, 7.1915001E-02
1145.846, 0.1768970
1146.328, 0.3437520
1146.810, 0.4894490
1147.292, 0.5003260
1147.774, 0.1199820
1148.256, 0.7226120
1148.738, 0.9696160
1149.220, 0.4289910
1149.703, 6.3133001E-02
1150.185, 0.2043510
1150.667, 0.1760750
1151.149, 0.2142870
1151.631, 0.2814350
1152.113, 0.3180620
1152.595, 0.3055610
1153.077, 0.2865450
1153.559, 0.2888620
1154.042, 0.2234750
1154.524, 8.6439997E-03
1155.006, 0.2958680
1155.488, 0.3470230
1155.970, 0.2546080
1156.452, 0.2499660
1156.934, 0.5677470
1157.416, 0.6684930
1157.898, 0.4088000
1158.381, 7.2824001E-02
1158.863, 0.1745430
1159.345, 0.3197380
1159.827, 0.2609230
1160.309, 3.8237002E-02
1160.791, 0.1867140
1161.273, 0.4712830
1161.755, 0.5572950
1162.238, 0.2313210
1162.720, 0.1440580
1163.202, 0.1672310
1163.684, 0.1144100
1164.166, 0.4539470
1164.648, 0.8203050
1165.130, 1.038136
1165.612, 0.9113080
1166.094, 0.7214600
1166.577, 0.5721380
1167.059, 0.4445650
1167.541, 0.2954430
1168.023, 0.1312410
1168.505, 4.1887000E-02
1168.987, 3.5902001E-02
1169.469, 0.1160050
1169.951, 0.3943410
1170.433, 0.6508260
1170.916, 0.7262400
1171.398, 0.6870520
1171.880, 0.6843010
1172.362, 0.7175390
1172.844, 0.7825240
1173.326, 0.8838420
1173.808, 0.9708900
1174.290, 0.9547140
1174.773, 0.9451830
1175.255, 1.091965
1175.737, 1.337982
1176.219, 1.334791
1176.701, 1.068417
1177.183, 0.8347700
1177.665, 0.7034360
1178.147, 0.6611180
1178.630, 0.6947460
1179.112, 0.8099840
1179.594, 1.056528
1180.076, 1.431084
1180.558, 1.688740
1181.040, 1.826551
1181.522, 1.892185
1182.004, 1.891525
1182.486, 1.853994
1182.969, 1.784513
1183.451, 1.711367
1183.933, 1.653595
1184.415, 1.595028
1184.897, 1.712112
1185.379, 2.048292
1185.861, 2.278990
1186.343, 2.137589
1186.825, 1.931932
1187.308, 2.063257
1187.790, 2.368362
1188.272, 2.594505
1188.754, 2.699530
1189.236, 2.743834
1189.718, 2.725889
1190.200, 2.654362
1190.682, 2.456835
1191.165, 2.276220
1191.647, 2.367775
1192.129, 2.595848
1192.611, 2.684967
1193.093, 2.537048
1193.575, 2.324165
1194.057, 1.993320
1194.539, 1.815741
1195.021, 2.166485
1195.504, 2.676891
1195.986, 2.849192
1196.468, 2.755995
1196.950, 2.623165
1197.432, 2.432011
1197.914, 2.330910
1198.396, 2.326830
1198.878, 2.418081
1199.360, 2.737593
1199.843, 3.067471
1200.325, 2.994776
1200.807, 2.626633
1201.289, 2.460035
1201.771, 2.702581
1202.253, 2.815889
1202.735, 2.745911
1203.217, 2.613287
1203.700, 2.492941
1204.182, 2.417379
1204.664, 2.508196
1205.146, 2.732788
1205.628, 2.795677
1206.110, 2.512188
1206.592, 2.342178
1207.074, 2.379068
1207.557, 2.469894
1208.039, 2.414276
1208.521, 2.321321
1209.003, 2.291004
1209.485, 2.338541
1209.967, 2.389860
1210.449, 2.456686
1210.931, 2.478518
1211.413, 2.429379
1211.896, 2.367798
1212.378, 2.403505
1212.860, 2.459267
1213.342, 2.402260
1213.824, 2.218443
1214.306, 2.145014
1214.788, 2.296385
1215.270, 2.291321
1215.752, 1.967274
1216.235, 1.598162
1216.717, 1.636505
1217.199, 1.842907
1217.681, 1.872889
1218.163, 1.672758
1218.645, 1.457159
1219.127, 1.162153
1219.609, 1.099413
1220.092, 1.440062
1220.574, 1.878880
1221.056, 2.038509
1221.538, 2.013483
1222.020, 1.869633
1222.502, 1.595650
1222.984, 1.416821
1223.466, 1.355656
1223.948, 1.331898
1224.431, 1.296768
1224.913, 1.319687
1225.395, 1.619389
1225.877, 1.984224
1226.359, 2.090624
1226.841, 1.808500
1227.323, 1.717842
1227.805, 1.899691
1228.287, 1.931253
1228.770, 1.541748
1229.252, 1.087561
1229.734, 1.143066
1230.216, 1.402033
1230.698, 1.418638
1231.180, 1.046215
1231.662, 0.8969000
1232.144, 1.003923
1232.627, 1.139612
1233.109, 1.227238
1233.591, 1.274839
1234.073, 1.245436
1234.555, 1.173130
1235.037, 1.057734
1235.519, 0.8663040
1236.001, 0.9102800
1236.484, 1.230047
1236.966, 1.419952
1237.448, 1.193178
1237.930, 0.8765340
1238.412, 0.7838060
1238.894, 0.8083270
1239.376, 0.8102930
1239.858, 0.7746850
1240.340, 0.7364250
1240.823, 0.6925890
1241.305, 0.7135120
1241.787, 0.9457660
1242.269, 1.100172
1242.751, 0.6988660
1243.233, 0.2156110
1243.715, 0.3142220
1244.197, 1.095964
1244.679, 1.424847
1245.162, 1.313231
1245.644, 1.142778
1246.126, 1.132524
1246.608, 1.123247
1247.090, 1.030931
1247.572, 0.8634820
1248.054, 0.5727120
1248.536, 0.1360970
1249.019, 0.2792990
1249.501, 0.9371050
1249.983, 1.403305
1250.465, 1.085268
1250.947, 0.7271420
1251.429, 0.7283250
1251.911, 0.8576090
1252.393, 0.9030150
1252.875, 0.8708950
1253.358, 0.9186500
1253.840, 1.024742
1254.322, 1.051579
1254.804, 0.7859550
1255.286, 0.6132980
1255.768, 0.7630540
1256.250, 0.9557480
1256.732, 0.9463370
1257.214, 0.7710670
1257.697, 0.6297700
1258.179, 0.5243210
1258.661, 0.4598790
1259.143, 0.4500750
1259.625, 0.4704490
1260.107, 0.5365090
1260.589, 0.5969850
1261.071, 0.5522170
1261.554, 0.4780290
1262.036, 0.7209050
1262.518, 1.159605
1263.000, 1.385111
1263.482, 1.076773
1263.964, 0.7899650
1264.446, 0.5806660
1264.928, 0.3872320
1265.411, 5.3732000E-02
1265.893, 0.2412010
1266.375, 2.1005999E-02
1266.857, 0.5203820
1267.339, 0.8495140
1267.821, 0.6157630
1268.303, 0.5729480
1268.785, 0.7858720
1269.267, 1.008625
1269.750, 1.066938
1270.232, 1.005785
1270.714, 0.8268360
1271.196, 0.5839820
1271.678, 0.4023780
1272.160, 0.2943940
1272.642, 0.2353500
1273.124, 0.2281060
1273.606, 0.2346420
1274.089, 0.2385230
1274.571, 0.2845990
1275.053, 0.3197400
1275.535, 0.4072700
1276.017, 0.4892250
1276.499, 0.5827980
1276.981, 0.5564440
1277.463, 0.4078060
1277.946, 0.3309270
1278.428, 0.5043450
1278.910, 0.7329080
1279.392, 1.035585
1279.874, 1.225199
1280.356, 0.9943870
1280.838, 0.3639620
1281.320, 0.1506000
1281.802, 0.3347130
1282.285, 0.6030160
1282.767, 0.9552900
1283.249, 1.134361
1283.731, 0.8843040
1284.213, 0.6007900
1284.695, 0.6544230
1285.177, 1.023123
1285.659, 1.071524
1286.141, 0.8552130
1286.624, 0.6593360
1287.106, 0.5474850
1287.588, 0.5786360
1288.070, 0.8309060
1288.552, 1.048477
1289.034, 1.012432
1289.516, 0.7913420
1289.998, 0.3956410
1290.481, 5.2400999E-02
1290.963, 0.2256430
1291.445, 0.1852820
1291.927, 0.5267410
1292.409, 0.7868500
1292.891, 0.9776170
1293.373, 1.072502
1293.855, 1.105715
1294.338, 1.103970
1294.820, 1.084305
1295.302, 1.094446
1295.784, 1.176126
1296.266, 1.103195
1296.748, 0.8585190
1297.230, 0.3898180
1297.712, 0.3592320
1298.194, 0.4471530
1298.677, 0.6360170
1299.159, 0.8269810
1299.641, 0.9183980
1300.123, 0.9071240
1300.605, 0.6719700
1301.087, 0.2373030
1301.569, 5.8860001E-03
1302.051, 0.3793430
1302.533, 0.3834740
1303.016, 0.0000000E+00
##END=



