##NAMES=Crocoite
##RRUFFID=R050044
##IDEAL CHEMISTRY=Pb^2+^Cr^6+^O_4_
##LOCALITY=Red Ledge mine, Dundas, Tasmania
##OWNER=RRUFF
##SOURCE=Eugene Schlepp
##DESCRIPTION=Red crystal fragment
##STATUS=The identification of this mineral has been confirmed by X-ray diffraction and chemical analysis
##URL=rruff.info/R050044
##MEASURED CHEMISTRY=Pb_1.02_Cr_0.99_O_4_
80.823, 0.000
82.218, 110.265
83.614, 44.648
85.009, 102.319
86.404, 102.251
87.798, 244.508
89.193, 279.697
90.587, 461.665
91.981, 571.938
93.375, 685.486
94.768, 707.580
96.161, 560.656
97.554, 563.257
98.947, 482.007
100.340, 363.601
101.732, 340.786
103.124, 230.377
104.516, 270.256
105.908, 270.333
107.300, 489.516
108.691, 500.691
110.082, 513.740
111.473, 498.549
112.864, 560.821
114.254, 571.084
115.644, 654.662
117.034, 715.715
118.424, 713.194
119.813, 705.042
121.203, 890.226
122.592, 914.737
123.981, 1141.701
125.369, 1389.081
126.758, 1625.016
128.146, 1962.442
129.534, 2249.396
130.922, 2877.787
132.309, 3070.559
133.696, 3406.658
135.083, 3175.870
136.470, 3119.147
137.857, 2607.565
139.243, 2369.989
140.630, 1981.409
142.016, 1708.825
143.401, 1524.242
144.787, 1374.664
146.172, 1202.095
147.557, 1052.535
148.942, 900.987
150.327, 790.452
151.711, 665.929
153.096, 568.963
154.480, 486.832
155.863, 428.968
157.247, 386.495
158.630, 323.037
160.013, 364.597
161.396, 199.174
162.779, 284.770
164.161, 237.561
165.544, 171.814
166.926, 147.873
168.308, 87.134
169.689, 216.530
171.070, 40.980
172.452, 195.026
173.833, 217.884
175.213, 165.266
176.594, 216.093
177.974, 218.156
179.354, 272.002
180.734, 253.817
182.114, 267.505
183.493, 179.968
184.872, 268.948
186.251, 295.310
187.630, 214.641
189.008, 228.413
190.387, 186.277
191.765, 196.316
193.143, 190.913
194.520, 226.667
195.898, 173.644
197.275, 178.011
198.652, 153.064
200.029, 173.164
201.405, 177.308
202.782, 209.502
204.158, 233.067
205.534, 280.028
206.909, 289.347
208.285, 128.704
209.660, 128.098
211.035, 134.528
212.410, 48.987
213.784, 63.469
215.159, 79.972
216.533, 16.493
217.907, 114.031
219.281, 13.585
220.654, 129.153
222.027, 27.740
223.400, 12.660
224.773, 40.959
226.146, 50.601
227.518, 69.262
228.891, 101.944
230.263, 106.238
231.634, 100.996
233.006, 91.080
234.377, 94.829
235.748, 8.609
237.119, 54.402
238.490, 26.224
239.860, 76.063
241.231, 6.924
242.601, 12.808
243.970, 18.708
245.340, 20.683
246.709, 19.906
248.079, 53.936
249.448, 2.766
250.816, 22.893
252.185, 26.244
253.553, 17.080
254.921, 28.964
256.289, 79.827
257.657, 51.462
259.024, 57.107
260.391, 50.452
261.758, 83.878
263.125, 31.094
264.492, 74.192
265.858, 20.774
267.224, 0.164
268.590, 25.041
269.956, 30.865
271.321, 88.628
272.687, 23.361
274.052, 49.028
275.416, 95.661
276.781, 55.721
278.146, 14.133
279.510, 45.427
280.874, 28.945
282.237, 32.449
283.601, 59.062
284.964, 100.380
286.327, 39.828
287.690, 7.754
289.053, 59.609
290.416, 16.024
291.778, 7.327
293.140, 61.333
294.502, 37.008
295.863, 51.484
297.225, 28.167
298.586, 37.873
299.947, 59.102
301.308, 56.193
302.668, 7.512
304.029, 0.576
305.389, 17.467
306.749, 92.628
308.108, 38.333
309.468, 156.981
310.827, 27.708
312.186, 118.874
313.545, 75.627
314.903, 184.372
316.262, 142.109
317.620, 55.835
318.978, 259.595
320.336, 120.304
321.693, 182.004
323.051, 198.133
324.408, 197.815
325.765, 178.581
327.121, 278.262
328.478, 275.927
329.834, 265.565
331.190, 339.489
332.546, 427.104
333.902, 399.788
335.257, 709.428
336.612, 719.653
337.967, 989.126
339.322, 893.104
340.677, 616.504
342.031, 598.867
343.385, 433.187
344.739, 639.479
346.093, 559.735
347.446, 757.945
348.799, 736.126
350.153, 817.273
351.505, 853.404
352.858, 1000.524
354.210, 1316.634
355.563, 1658.709
356.915, 1983.761
358.267, 1980.047
359.618, 2084.317
360.969, 1783.328
362.321, 1497.539
363.672, 1149.526
365.022, 996.501
366.373, 863.657
367.723, 806.605
369.073, 763.079
370.423, 858.078
371.773, 986.983
373.122, 1186.242
374.471, 1866.260
375.821, 2351.417
377.169, 2202.258
378.518, 1540.083
379.866, 842.235
381.215, 680.026
382.563, 507.667
383.910, 437.423
385.258, 328.208
386.605, 429.063
387.952, 433.765
389.299, 290.658
390.646, 402.422
391.992, 292.855
393.339, 444.612
394.685, 402.217
396.031, 447.803
397.376, 642.368
398.722, 678.105
400.067, 652.519
401.412, 688.440
402.757, 524.040
404.101, 397.631
405.446, 315.769
406.790, 256.554
408.134, 231.330
409.478, 286.159
410.821, 287.931
412.165, 242.920
413.508, 251.646
414.851, 248.177
416.193, 294.494
417.536, 284.824
418.878, 240.396
420.220, 288.875
421.562, 213.547
422.904, 196.183
424.245, 169.671
425.586, 240.073
426.927, 202.623
428.268, 223.378
429.609, 243.268
430.949, 218.934
432.289, 285.892
433.629, 224.196
434.969, 196.107
436.309, 252.292
437.648, 276.944
438.987, 292.956
440.326, 216.998
441.665, 187.842
443.003, 192.070
444.342, 169.832
445.680, 202.098
447.018, 193.504
448.355, 355.135
449.693, 203.634
451.030, 226.106
452.367, 266.502
453.704, 167.271
455.041, 192.555
456.377, 112.062
457.713, 200.461
459.049, 226.894
460.385, 128.223
461.721, 203.080
463.056, 182.806
464.391, 241.196
465.726, 199.343
467.061, 234.304
468.395, 223.445
469.730, 126.178
471.064, 288.205
472.398, 152.971
473.731, 250.059
475.065, 301.970
476.398, 195.842
477.731, 250.676
479.064, 184.473
480.397, 214.231
481.729, 240.952
483.062, 113.633
484.394, 223.264
485.725, 179.658
487.057, 210.410
488.389, 230.925
489.720, 200.401
491.051, 165.839
492.382, 249.028
493.712, 182.386
495.043, 186.098
496.373, 147.376
497.703, 231.609
499.032, 155.804
500.362, 246.956
501.691, 219.949
503.020, 241.145
504.349, 228.183
505.678, 241.183
507.007, 229.643
508.335, 236.069
509.663, 210.113
510.991, 226.963
512.319, 233.775
513.646, 199.550
514.973, 197.288
516.300, 205.989
517.627, 232.652
518.954, 148.278
520.280, 218.863
521.607, 163.410
522.933, 189.918
524.259, 194.389
525.584, 112.982
526.910, 190.369
528.235, 98.718
529.560, 169.017
530.885, 202.277
532.209, 101.501
533.534, 159.676
534.858, 101.812
536.182, 186.901
537.506, 181.952
538.829, 141.968
540.152, 218.942
541.476, 112.882
542.799, 207.776
544.121, 23.635
545.444, 89.858
546.766, 299.163
548.088, 92.867
549.410, 147.525
550.732, 45.146
552.053, 141.706
553.375, 216.230
554.696, 16.718
556.017, 352.136
557.337, 83.519
558.658, 82.856
559.978, 52.148
561.298, 81.385
562.618, 127.578
563.938, 59.734
565.257, 68.029
566.576, 171.901
567.895, 33.070
569.214, 104.870
570.533, 6.220
571.851, 59.617
573.170, 31.593
574.488, 68.115
575.805, 114.781
577.123, 46.417
578.440, 96.465
579.758, 0.411
581.075, 81.101
582.391, 69.424
583.708, 80.033
585.024, 63.258
586.341, 36.475
587.657, 173.711
588.972, 75.867
590.288, 13.006
591.603, 57.062
592.918, 66.888
594.233, 22.075
595.548, 52.002
596.863, 67.915
598.177, 60.796
599.491, 62.354
600.805, 59.420
602.119, 28.172
603.432, 68.105
604.746, 53.531
606.059, 67.838
607.372, 130.281
608.685, 33.163
609.997, 2.410
611.309, 9.028
612.621, 18.689
613.933, 8.403
615.245, 67.045
616.557, 75.740
617.868, 47.395
619.179, 10.022
620.490, 60.954
621.801, 33.937
623.111, 32.032
624.421, 56.019
625.731, 13.871
627.041, 130.265
628.351, 59.587
629.660, 91.668
630.970, 47.417
632.279, 39.202
633.588, 35.800
634.896, 74.378
636.205, 65.934
637.513, 84.996
638.821, 53.945
640.129, 51.442
641.437, 119.482
642.744, 21.059
644.051, 65.716
645.358, 80.669
646.665, 34.035
647.972, 79.385
649.278, 65.586
650.584, 82.704
651.890, 42.127
653.196, 103.035
654.502, 74.546
655.807, 41.760
657.113, 17.435
658.418, 23.621
659.722, 47.792
661.027, 78.951
662.331, 7.096
663.636, 171.229
664.940, 61.351
666.244, 10.541
667.547, 124.555
668.851, 37.640
670.154, 239.714
671.457, 40.778
672.760, 98.833
674.062, 123.877
675.365, 74.914
676.667, 151.449
677.969, 79.469
679.271, 160.270
680.572, 50.274
681.874, 13.729
683.175, 328.067
684.476, 147.050
685.777, 224.490
687.077, 233.383
688.378, 197.353
689.678, 281.948
690.978, 281.767
692.278, 258.428
693.577, 220.387
694.877, 305.343
696.176, 314.955
697.475, 381.910
698.774, 396.000
700.072, 562.958
701.371, 619.872
702.669, 485.458
703.967, 808.420
705.265, 473.175
706.562, 625.044
707.860, 432.227
709.157, 432.071
710.454, 479.051
711.751, 451.037
713.047, 549.028
714.344, 377.833
715.640, 595.670
716.936, 272.540
718.232, 445.440
719.527, 433.335
720.823, 371.673
722.118, 550.348
723.413, 371.407
724.708, 528.031
726.002, 419.770
727.297, 439.234
728.591, 490.958
729.885, 444.991
731.179, 529.116
732.472, 431.198
733.766, 415.757
735.059, 442.701
736.352, 506.119
737.645, 504.891
738.937, 544.517
740.230, 544.852
741.522, 614.413
742.814, 592.032
744.106, 654.331
745.397, 712.394
746.689, 638.785
747.980, 762.575
749.271, 713.791
750.562, 672.520
751.853, 754.428
753.143, 746.727
754.433, 862.987
755.723, 837.021
757.013, 780.383
758.303, 953.998
759.592, 773.008
760.881, 882.453
762.170, 899.728
763.459, 930.183
764.748, 904.489
766.036, 855.213
767.325, 1119.645
768.613, 960.596
769.901, 994.316
771.188, 1085.138
772.476, 853.901
773.763, 1196.785
775.050, 994.943
776.337, 1034.039
777.624, 1156.966
778.910, 1033.980
780.196, 995.796
781.482, 1191.847
782.768, 1073.283
784.054, 1273.438
785.339, 1148.599
786.625, 1361.688
787.910, 1246.954
789.195, 1354.258
790.479, 1436.599
791.764, 1390.978
793.048, 1533.395
794.332, 1536.851
795.616, 1650.345
796.900, 1706.175
798.183, 1752.663
799.467, 1825.085
800.750, 1882.634
802.033, 1959.799
803.316, 2032.195
804.598, 2138.193
805.880, 2252.087
807.163, 2388.960
808.445, 2450.432
809.726, 2610.222
811.008, 2705.413
812.289, 2897.471
813.570, 3116.572
814.851, 3272.717
816.132, 3593.909
817.413, 3807.145
818.693, 4226.271
819.973, 4805.762
821.253, 5219.983
822.533, 5902.408
823.813, 6634.878
825.092, 7258.395
826.371, 8347.958
827.650, 9371.567
828.929, 10723.223
830.208, 12357.924
831.486, 14406.678
832.764, 17704.480
834.042, 21350.359
835.320, 26686.289
836.598, 32163.129
837.875, 37002.180
839.152, 39660.344
840.429, 38320.566
841.706, 33960.855
842.983, 28238.248
844.259, 22877.713
845.536, 19253.234
846.812, 16022.803
848.088, 13938.435
849.363, 12331.108
850.639, 11431.836
851.914, 10878.458
853.189, 10058.317
854.464, 9408.240
855.739, 8765.277
857.013, 7976.395
858.288, 6877.561
859.562, 6168.821
860.836, 5299.164
862.110, 4745.588
863.383, 4018.101
864.656, 3679.670
865.930, 3347.331
867.203, 2953.068
868.475, 2772.864
869.748, 2597.734
871.020, 2398.668
872.292, 2412.677
873.564, 2008.769
874.836, 2039.937
876.108, 1839.186
877.379, 1551.489
878.650, 1803.874
879.922, 1667.314
881.192, 1730.831
882.463, 1604.409
883.733, 1468.075
885.004, 1521.793
886.274, 1457.566
887.544, 1413.401
888.813, 1589.291
890.083, 1230.253
891.352, 1435.271
892.621, 1423.379
893.890, 1353.577
895.159, 1352.833
896.427, 1274.168
897.695, 1335.557
898.964, 1359.000
900.232, 1157.518
901.499, 1311.091
902.767, 1097.751
904.034, 1254.472
905.301, 1225.250
906.568, 1150.084
907.835, 1191.974
909.102, 925.945
910.368, 1046.972
911.634, 1045.059
912.900, 887.227
914.166, 936.448
915.432, 937.753
916.697, 876.153
917.962, 865.611
919.227, 885.132
920.492, 861.716
921.757, 906.347
923.021, 964.081
924.285, 943.849
925.550, 670.694
926.813, 563.595
928.077, 624.557
929.341, 498.592
930.604, 444.695
931.867, 467.850
933.130, 454.075
934.393, 432.114
935.655, 481.723
936.918, 401.146
938.180, 449.656
939.442, 440.231
940.703, 420.857
941.965, 385.534
943.226, 399.262
944.488, 289.040
945.749, 221.868
947.009, 397.747
948.270, 274.677
949.530, 198.656
950.791, 247.691
952.051, 46.790
953.311, 210.587
954.570, 140.785
955.830, 189.564
957.089, 358.877
958.348, 194.235
959.607, 272.295
960.866, 157.756
962.124, 187.263
963.383, 277.818
964.641, 183.421
965.899, 211.071
967.156, 272.085
968.414, 151.830
969.671, 279.631
970.928, 284.468
972.185, 178.762
973.442, 348.690
974.699, 211.665
975.955, 351.684
977.211, 310.751
978.468, 100.871
979.723, 227.035
980.979, 140.248
982.234, 100.506
983.490, 203.808
984.745, 1.846
986.000, 158.664
987.254, 177.415
988.509, 131.896
989.763, 214.314
991.017, 58.296
992.271, 108.377
993.525, 127.217
994.779, 121.580
996.032, 210.301
997.285, 70.064
998.538, 207.864
999.791, 28.702
1001.044, 232.576
1002.296, 72.507
1003.548, 171.575
1004.800, 45.532
1006.052, 237.008
1007.304, 15.983
1008.555, 178.079
1009.807, 175.480
1011.058, 45.718
1012.309, 286.246
1013.559, 95.189
1014.810, 165.575
1016.060, 115.398
1017.310, 141.018
1018.560, 107.377
1019.810, 42.925
1021.060, 173.964
1022.309, 250.876
1023.558, 53.943
1024.807, 141.989
1026.056, 62.377
1027.305, 45.000
1028.553, 203.711
1029.801, 186.407
1031.049, 176.489
1032.297, 86.234
1033.545, 3.248
1034.793, 194.207
1036.040, 83.023
1037.287, 197.858
1038.534, 204.718
1039.781, 158.864
1041.027, 249.764
1042.274, 117.683
1043.520, 94.650
1044.766, 270.607
1046.012, 162.584
1047.257, 67.578
1048.503, 234.592
1049.748, 169.753
1050.993, 257.804
1052.238, 116.873
1053.483, 180.955
1054.727, 191.051
1055.971, 15.177
1057.216, 150.666
1058.459, 189.814
1059.703, 26.984
1060.947, 212.150
1062.190, 141.325
1063.433, 137.516
1064.676, 220.713
1065.919, 193.935
1067.162, 222.203
1068.404, 260.105
1069.646, 244.645
1070.888, 255.896
1072.130, 274.160
1073.372, 134.490
1074.613, 211.770
1075.855, 181.051
1077.096, 180.247
1078.337, 216.765
1079.578, 201.054
1080.818, 221.345
1082.059, 155.126
1083.299, 81.928
1084.539, 174.219
1085.779, 83.522
1087.018, 152.367
1088.258, 170.656
1089.497, 116.943
1090.736, 148.228
1091.975, 86.510
1093.213, 97.818
1094.452, 108.096
1095.690, 116.366
1096.928, 74.904
1098.166, 28.166
1099.404, 125.676
1100.642, 136.927
1101.879, 20.828
1103.116, 96.814
1104.353, 15.962
1105.590, 4.412
1106.827, 46.790
1108.063, 16.979
1109.299, 62.193
1110.536, 154.355
1111.771, 71.770
1113.007, 112.159
1114.243, 110.290
1115.478, 3.103
1116.713, 84.136
1117.948, 18.773
1119.183, 62.344
1120.418, 2.390
1121.652, 120.957
1122.886, 477.346
1124.120, 375.347
1125.354, 307.463
1126.588, 152.357
1127.821, 43.402
1129.055, 50.075
1130.288, 196.215
1131.521, 76.375
1132.753, 40.151
1133.986, 93.188
1135.218, 94.478
1136.450, 79.593
1137.682, 179.794
1138.914, 42.997
1140.146, 26.082
1141.377, 179.487
1142.609, 58.014
1143.840, 57.239
1145.071, 201.891
1146.301, 325.483
1147.532, 273.925
1148.762, 401.657
1149.992, 235.077
1151.222, 70.736
1152.452, 2.646
1153.682, 152.248
1154.911, 30.728
1156.140, 94.045
1157.369, 96.963
1158.598, 76.484
1159.827, 15.361
1161.055, 99.760
1162.284, 53.938
1163.512, 46.092
1164.740, 41.115
1165.967, 85.315
1167.195, 2.917
1168.422, 49.832
1169.650, 2.502
1170.877, 51.173
1172.103, 0.507
1173.330, 19.188
1174.557, 127.306
1175.783, 114.182
1177.009, 147.905
1178.235, 84.583
1179.461, 161.234
1180.686, 95.382
1181.912, 108.205
1183.137, 163.290
1184.362, 170.205
1185.587, 161.438
1186.811, 107.712
1188.036, 220.795
1189.260, 220.569
1190.484, 168.038
1191.708, 262.104
1192.932, 582.422
1194.155, 390.807
1195.378, 422.043
1196.602, 162.673
1197.825, 394.809
1199.047, 225.238
1200.270, 342.660
1201.492, 281.083
1202.715, 258.600
1203.937, 142.688
1205.159, 329.681
1206.380, 219.394
1207.602, 307.076
1208.823, 299.092
1210.044, 286.190
1211.265, 299.122
1212.486, 290.500
1213.707, 265.228
1214.927, 281.726
1216.147, 268.363
1217.367, 262.774
1218.587, 311.451
1219.807, 246.504
1221.027, 359.025
1222.246, 412.278
1223.465, 233.495
1224.684, 369.672
1225.903, 319.973
1227.121, 280.438
1228.340, 293.495
1229.558, 339.513
1230.776, 408.491
1231.994, 145.427
1233.212, 121.334
1234.429, 409.346
1235.646, 311.564
1236.864, 543.317
1238.081, 365.089
1239.297, 292.122
1240.514, 356.169
1241.730, 322.718
1242.947, 241.249
1244.163, 315.729
1245.378, 249.126
1246.594, 362.008
1247.810, 333.302
1249.025, 220.900
1250.240, 323.621
1251.455, 279.215
1252.670, 278.289
1253.885, 312.303
1255.099, 389.610
1256.313, 332.638
1257.527, 264.532
1258.741, 269.289
1259.955, 355.550
1261.168, 226.120
1262.382, 300.983
1263.595, 360.935
1264.808, 323.665
1266.021, 286.251
1267.233, 263.200
1268.446, 250.374
1269.658, 340.478
1270.870, 173.559
1272.082, 132.534
1273.294, 321.431
1274.505, 142.259
1275.716, 292.022
1276.928, 283.695
1278.139, 195.317
1279.349, 200.917
1280.560, 188.537
1281.770, 250.390
1282.981, 183.722
1284.191, 271.093
1285.401, 226.867
1286.610, 290.527
1287.820, 142.413
1289.029, 328.755
1290.239, 122.855
1291.448, 218.759
1292.656, 249.773
1293.865, 192.556
1295.073, 102.269
1296.282, 227.915
1297.490, 89.368
1298.698, 204.916
1299.906, 164.913
1301.113, 79.384
1302.320, 115.705
1303.528, 138.691
1304.735, 85.806
1305.942, 108.592
1307.148, 194.922
1308.355, 38.774
1309.561, 130.162
1310.767, 202.722
1311.973, 23.486
1313.179, 129.087
1314.384, 56.861
1315.590, 172.287
1316.795, 31.747
1318.000, 59.208
1319.205, 44.794
1320.410, 7.109
1321.614, 7.697
1322.819, 78.480
1324.023, 77.240
1325.227, 49.307
1326.431, 164.071
1327.634, 47.860
1328.838, 131.765
1330.041, 38.621
1331.244, 85.423
1332.447, 96.910
1333.650, 127.618
1334.852, 63.280
1336.055, 87.329
1337.257, 66.515
1338.459, 75.979
1339.661, 51.475
1340.862, 43.934
1342.064, 65.729
1343.265, 48.080
1344.466, 121.262
1345.667, 115.623
1346.868, 23.115
1348.068, 155.037
1349.269, 170.797
1350.469, 374.824
1351.669, 303.786
1352.869, 143.649
1354.069, 46.421
1355.268, 141.100
1356.468, 12.374
1357.667, 215.127
1358.866, 228.396
1360.065, 19.740
1361.263, 248.006
1362.462, 53.068
1363.660, 33.422
1364.858, 175.421
1366.056, 489.304
1367.254, 613.135
1368.451, 335.571
1369.649, 189.936
1370.846, 141.025
1372.043, 278.326
1373.240, 279.479
1374.436, 227.827
1375.633, 291.457
1376.829, 221.018
1378.025, 183.928
1379.221, 123.601
1380.417, 243.647
1381.613, 206.015
1382.808, 128.095
1384.003, 114.108
1385.199, 303.195
1386.393, 205.169
1387.588, 203.522
1388.783, 233.437
1389.977, 97.214
1391.171, 209.842
1392.365, 217.470
1393.559, 93.384
1394.753, 262.205
1395.946, 329.015
1397.140, 278.610
1398.333, 225.476
1399.526, 164.885
1400.719, 178.282
1401.911, 271.562
1403.104, 56.679
1404.296, 194.024
1405.488, 39.045
1406.680, 45.151
1407.872, 61.682
1409.063, 76.413
1410.255, 113.246
1411.446, 138.643
1412.637, 185.117
1413.828, 128.935
1415.018, 141.824
1416.209, 133.195
1417.399, 201.467
1418.589, 147.594
1419.779, 225.709
1420.969, 298.089
1422.159, 107.053
1423.348, 111.676
1424.537, 350.380
1425.726, 354.560
1426.915, 170.417
1428.104, 144.555
1429.293, 109.881
1430.481, 111.646
1431.669, 153.733
1432.857, 49.505
1434.045, 165.050
1435.233, 34.934
1436.420, 197.965
1437.608, 229.831
1438.795, 75.662
1439.982, 209.348
1441.169, 115.428
1442.355, 209.286
1443.542, 182.576
1444.728, 135.788
1445.914, 140.312
1447.100, 365.622
1448.286, 124.838
1449.472, 257.217
1450.657, 109.164
1451.842, 188.515
1453.027, 164.715
1454.212, 213.115
1455.397, 159.578
1456.581, 79.861
1457.766, 149.356
1458.950, 191.060
1460.134, 214.843
1461.318, 149.539
1462.501, 207.456
1463.685, 294.097
1464.868, 172.677
1466.051, 225.273
1467.234, 305.992
1468.417, 118.770
1469.600, 194.781
1470.782, 128.146
1471.965, 87.672
1473.147, 47.334
1474.329, 40.570
1475.510, 127.138
1476.692, 65.329
1477.873, 95.904
1479.055, 136.831
1480.236, 13.185
1481.416, 149.990
1482.597, 80.328
1483.778, 68.352
1484.958, 3.780
1486.138, 49.267
1487.318, 82.405
1488.498, 190.332
1489.678, 0.000
##END=



