##NAMES=Crocoite
##RRUFFID=R040053
##IDEAL CHEMISTRY=Pb^2+^Cr^6+^O_4_
##LOCALITY=Dundas, Tasmania
##OWNER=RRUFF
##SOURCE=Bob Downs
##DESCRIPTION=Reddish-orange prismatic crystal
##STATUS=The identification of this mineral has been confirmed by X-ray diffraction and chemical analysis
##URL=rruff.info/R040053
##MEASURED CHEMISTRY=(Pb_.995_Mn_.005_)CrO_4_
98.947, 0.000
100.340, 1.246
101.732, 26.429
103.124, 3.399
104.516, 56.695
105.908, 28.227
107.300, 90.860
108.691, 109.363
110.082, 49.570
111.473, 141.360
112.864, 99.633
114.254, 158.305
115.644, 193.316
117.034, 249.639
118.424, 321.235
119.813, 363.067
121.203, 441.116
122.592, 570.349
123.981, 677.749
125.369, 896.283
126.758, 1082.922
128.146, 1257.663
129.534, 1434.475
130.922, 1448.353
132.309, 1473.466
133.696, 1410.617
135.083, 1333.010
136.470, 1135.368
137.857, 981.714
139.243, 849.165
140.630, 737.806
142.016, 635.468
143.401, 532.070
144.787, 473.739
146.172, 428.468
147.557, 371.279
148.942, 317.050
150.327, 247.749
151.711, 222.392
153.096, 193.973
154.480, 150.642
155.863, 90.322
157.247, 98.156
158.630, 92.662
160.013, 151.982
161.396, 100.677
162.779, 92.158
164.161, 18.549
165.544, 72.517
166.926, 18.883
168.308, 34.078
169.689, 21.819
171.070, 39.662
172.452, 30.647
173.833, 38.490
175.213, 37.837
176.594, 74.069
177.974, 47.429
179.354, 44.513
180.734, 78.401
182.114, 8.292
183.493, 29.856
184.872, 90.484
186.251, 109.159
187.630, 72.097
189.008, 85.680
190.387, 93.987
191.765, 34.989
193.143, 75.146
194.520, 45.712
195.898, 39.882
197.275, 63.246
198.652, 52.976
200.029, 57.568
201.405, 60.628
202.782, 64.381
204.158, 61.988
205.534, 58.227
206.909, 50.664
208.285, 32.111
209.660, 15.564
211.035, 29.024
212.410, 10.258
213.784, 14.385
215.159, 6.440
216.533, 15.922
217.907, 38.408
219.281, 39.896
220.654, 36.386
222.027, 0.877
223.400, 28.367
224.773, 6.857
226.146, 41.348
227.518, 31.837
228.891, 11.676
230.263, 18.808
231.634, 21.712
233.006, 6.765
234.377, 24.240
235.748, 11.723
237.119, 44.202
238.490, 27.314
239.860, 6.830
241.231, 38.651
242.601, 145.128
243.970, 162.602
245.340, 17.072
246.709, 62.532
248.079, 30.977
249.448, 7.413
250.816, 7.845
252.185, 2.257
253.553, 27.668
254.921, 14.928
256.289, 5.361
257.657, 2.047
259.024, 36.443
260.391, 2.821
261.758, 18.491
263.125, 19.010
264.492, 29.189
265.858, 8.717
267.224, 0.862
268.590, 40.313
269.956, 23.110
271.321, 25.913
272.687, 30.575
274.052, 14.257
275.416, 11.968
276.781, 6.771
278.146, 10.411
279.510, 3.835
280.874, 19.714
282.237, 3.139
283.601, 24.968
284.964, 33.759
286.327, 27.396
287.690, 13.643
289.053, 39.108
290.416, 16.986
291.778, 10.763
293.140, 52.557
294.502, 48.311
295.863, 74.069
297.225, 62.632
298.586, 52.985
299.947, 38.750
301.308, 33.534
302.668, 41.423
304.029, 11.173
305.389, 69.920
306.749, 77.881
308.108, 86.626
309.468, 52.411
310.827, 114.146
312.186, 91.878
313.545, 55.847
314.903, 56.563
316.262, 81.272
317.620, 75.707
318.978, 92.725
320.336, 112.370
321.693, 109.130
323.051, 140.831
324.408, 130.487
325.765, 132.132
327.121, 115.785
328.478, 204.531
329.834, 167.240
331.190, 274.851
332.546, 314.562
333.902, 369.177
335.257, 370.714
336.612, 400.374
337.967, 295.894
339.322, 279.406
340.677, 270.986
342.031, 319.464
343.385, 305.935
344.739, 335.384
346.093, 371.877
347.446, 389.324
348.799, 425.893
350.153, 522.252
351.505, 593.810
352.858, 740.204
354.210, 837.620
355.563, 954.057
356.915, 900.366
358.267, 804.658
359.618, 756.063
360.969, 650.329
362.321, 565.587
363.672, 428.910
365.022, 410.269
366.373, 398.699
367.723, 433.013
369.073, 479.510
370.423, 601.720
371.773, 786.035
373.122, 930.179
374.471, 874.667
375.821, 817.280
377.169, 593.441
378.518, 407.719
379.866, 303.878
381.215, 266.239
382.563, 200.668
383.910, 210.850
385.258, 209.912
386.605, 172.637
387.952, 178.391
389.299, 182.676
390.646, 168.135
391.992, 213.402
393.339, 236.533
394.685, 262.831
396.031, 311.759
397.376, 301.100
398.722, 357.365
400.067, 289.522
401.412, 211.035
402.757, 202.244
404.101, 156.904
405.446, 139.901
406.790, 139.373
408.134, 94.212
409.478, 95.088
410.821, 43.626
412.165, 77.994
413.508, 85.775
414.851, 86.628
416.193, 117.508
417.536, 97.562
418.878, 90.928
420.220, 39.617
421.562, 45.501
422.904, 97.027
424.245, 43.825
425.586, 52.588
426.927, 72.580
428.268, 63.219
429.609, 45.211
430.949, 39.042
432.289, 42.664
433.629, 98.346
434.969, 91.777
436.309, 85.105
437.648, 64.750
438.987, 65.765
440.326, 57.916
441.665, 59.781
443.003, 58.519
444.342, 67.892
445.680, 77.755
447.018, 64.376
448.355, 124.908
449.693, 128.397
451.030, 49.578
452.367, 104.683
453.704, 73.556
455.041, 97.223
456.377, 98.555
457.713, 105.072
459.049, 35.817
460.385, 88.267
461.721, 81.664
463.056, 61.016
464.391, 125.144
465.726, 112.885
467.061, 57.145
468.395, 128.409
469.730, 91.272
471.064, 126.479
472.398, 137.409
473.731, 59.740
475.065, 128.068
476.398, 121.939
477.731, 105.690
479.064, 106.989
480.397, 100.894
481.729, 84.665
483.062, 95.847
484.394, 108.013
485.725, 108.163
487.057, 99.305
488.389, 72.834
489.720, 76.284
491.051, 97.933
492.382, 72.096
493.712, 86.148
495.043, 106.185
496.373, 71.205
497.703, 118.209
499.032, 112.880
500.362, 82.503
501.691, 134.460
503.020, 108.899
504.349, 119.824
505.678, 79.735
507.007, 89.629
508.335, 63.508
509.663, 87.370
510.991, 74.216
512.319, 90.046
513.646, 78.911
514.973, 70.710
516.300, 108.493
517.627, 98.260
518.954, 64.014
520.280, 108.751
521.607, 98.473
522.933, 75.180
524.259, 63.872
525.584, 54.013
526.910, 69.331
528.235, 11.852
529.560, 127.470
530.885, 61.074
532.209, 107.662
533.534, 43.235
534.858, 5.792
536.182, 73.321
537.506, 47.834
538.829, 69.333
540.152, 45.816
541.476, 40.283
542.799, 67.733
544.121, 58.167
545.444, 24.588
546.766, 59.989
548.088, 46.375
549.410, 54.745
550.732, 60.101
552.053, 48.445
553.375, 17.775
554.696, 92.091
556.017, 23.393
557.337, 44.676
558.658, 41.945
559.978, 27.199
561.298, 13.443
562.618, 16.669
563.938, 60.875
565.257, 43.068
566.576, 72.246
567.895, 5.411
569.214, 10.552
570.533, 16.522
571.851, 67.623
573.170, 33.713
574.488, 53.789
575.805, 21.853
577.123, 40.906
578.440, 48.947
579.758, 16.793
581.075, 14.669
582.391, 17.090
583.708, 2.069
585.024, 19.361
586.341, 8.302
587.657, 5.810
588.972, 30.972
590.288, 1.690
591.603, 47.411
592.918, 4.284
594.233, 43.862
595.548, 2.052
596.863, 9.338
598.177, 11.350
599.491, 24.996
600.805, 10.356
602.119, 18.732
603.432, 8.896
604.746, 18.551
606.059, 4.861
607.372, 7.199
608.685, 0.447
609.997, 22.080
611.309, 1.527
612.621, 40.929
613.933, 20.375
615.245, 14.152
616.557, 44.332
617.868, 22.739
619.179, 18.192
620.490, 41.391
621.801, 38.111
623.111, 19.722
624.421, 25.356
625.731, 26.232
627.041, 20.680
628.351, 11.041
629.660, 23.399
630.970, 14.710
632.279, 1.839
633.588, 8.939
634.896, 7.732
636.205, 0.461
637.513, 21.355
638.821, 38.791
640.129, 22.140
641.437, 19.561
642.744, 26.115
644.051, 1.248
645.358, 9.645
646.665, 8.659
647.972, 13.670
649.278, 2.604
650.584, 12.345
651.890, 77.350
653.196, 33.419
654.502, 71.351
655.807, 10.593
657.113, 4.288
658.418, 53.416
659.722, 15.550
661.027, 41.474
662.331, 16.492
663.636, 21.422
664.940, 44.390
666.244, 25.222
667.547, 24.175
668.851, 41.070
670.154, 2.971
671.457, 112.938
672.760, 22.811
674.062, 2.784
675.365, 98.754
676.667, 46.588
677.969, 31.550
679.271, 101.508
680.572, 76.392
681.874, 87.228
683.175, 31.980
684.476, 94.838
685.777, 126.502
687.077, 137.443
688.378, 151.267
689.678, 151.524
690.978, 145.835
692.278, 127.258
693.577, 154.138
694.877, 128.858
696.176, 207.725
697.475, 92.433
698.774, 141.062
700.072, 208.930
701.371, 141.761
702.669, 176.062
703.967, 195.907
705.265, 106.668
706.562, 196.501
707.860, 198.360
709.157, 184.164
710.454, 159.336
711.751, 149.266
713.047, 150.654
714.344, 225.458
715.640, 137.245
716.936, 244.784
718.232, 170.899
719.527, 193.158
720.823, 162.073
722.118, 181.917
723.413, 151.865
724.708, 161.715
726.002, 174.836
727.297, 164.215
728.591, 174.586
729.885, 157.998
731.179, 173.942
732.472, 234.570
733.766, 229.477
735.059, 179.425
736.352, 142.973
737.645, 258.475
738.937, 206.082
740.230, 251.052
741.522, 263.772
742.814, 215.123
744.106, 192.688
745.397, 268.642
746.689, 305.736
747.980, 268.773
749.271, 187.073
750.562, 320.401
751.853, 226.385
753.143, 327.945
754.433, 272.689
755.723, 326.714
757.013, 292.312
758.303, 348.419
759.592, 399.199
760.881, 339.251
762.170, 383.337
763.459, 369.312
764.748, 489.804
766.036, 427.920
767.325, 396.556
768.613, 413.566
769.901, 373.906
771.188, 472.057
772.476, 413.975
773.763, 343.181
775.050, 457.398
776.337, 434.630
777.624, 464.113
778.910, 455.795
780.196, 439.169
781.482, 493.536
782.768, 471.299
784.054, 517.715
785.339, 498.404
786.625, 559.688
787.910, 625.972
789.195, 538.710
790.479, 608.564
791.764, 679.867
793.048, 582.991
794.332, 679.389
795.616, 708.802
796.900, 806.228
798.183, 707.667
799.467, 761.113
800.750, 776.170
802.033, 798.303
803.316, 815.236
804.598, 841.652
805.880, 872.924
807.163, 825.717
808.445, 955.272
809.726, 961.841
811.008, 1028.093
812.289, 1140.692
813.570, 1158.307
814.851, 1222.441
816.132, 1427.089
817.413, 1532.752
818.693, 1742.432
819.973, 1945.126
821.253, 2139.838
822.533, 2572.565
823.813, 2881.309
825.092, 3228.019
826.371, 3492.795
827.650, 4090.588
828.929, 4574.395
830.208, 5629.223
831.486, 6817.083
832.764, 8537.958
834.042, 11055.851
835.320, 13673.797
836.598, 17535.736
837.875, 18979.695
839.152, 19816.674
840.429, 17725.678
841.706, 14751.707
842.983, 11825.766
844.259, 9066.841
845.536, 7201.938
846.812, 6214.058
848.088, 5275.201
849.363, 4858.363
850.639, 4341.551
851.914, 4390.764
853.189, 4235.009
854.464, 4043.285
855.739, 3932.579
857.013, 3219.896
858.288, 2872.240
859.562, 2469.031
860.836, 2084.429
862.110, 1815.850
863.383, 1555.276
864.656, 1326.725
865.930, 1238.191
867.203, 1093.682
868.475, 1055.209
869.748, 1018.755
871.020, 899.344
872.292, 873.798
873.564, 760.713
874.836, 767.373
876.108, 690.058
877.379, 638.762
878.650, 624.500
879.922, 597.813
881.192, 580.676
882.463, 573.700
883.733, 561.730
885.004, 566.606
886.274, 559.504
887.544, 562.420
888.813, 557.404
890.083, 538.343
891.352, 555.336
892.621, 537.349
893.890, 552.386
895.159, 519.442
896.427, 548.520
897.695, 528.624
898.964, 498.746
900.232, 485.890
901.499, 490.053
902.767, 513.239
904.034, 443.458
905.301, 539.701
906.568, 398.970
907.835, 499.258
909.102, 534.565
910.368, 476.897
911.634, 418.256
912.900, 402.652
914.166, 403.050
915.432, 357.470
916.697, 365.914
917.962, 351.379
919.227, 319.000
920.492, 355.512
921.757, 277.057
923.021, 304.627
924.285, 205.216
925.550, 243.837
926.813, 253.476
928.077, 223.132
929.341, 219.850
930.604, 162.568
931.867, 177.310
933.130, 177.080
934.393, 173.876
935.655, 185.697
936.918, 157.539
938.180, 163.886
939.442, 153.296
940.703, 142.203
941.965, 144.130
943.226, 105.078
944.488, 121.043
945.749, 41.031
947.009, 53.037
948.270, 165.059
949.530, 48.098
950.791, 110.155
952.051, 54.229
953.311, 77.322
954.570, 65.432
955.830, 20.562
957.089, 82.710
958.348, 58.873
959.607, 76.053
960.866, 29.249
962.124, 35.461
963.383, 37.692
964.641, 38.940
965.899, 71.615
967.156, 73.897
968.414, 66.825
969.671, 102.700
970.928, 70.029
972.185, 58.374
973.442, 122.734
974.699, 104.108
975.955, 70.498
977.211, 161.907
978.468, 183.333
979.723, 119.775
980.979, 103.656
982.234, 120.645
983.490, 100.136
984.745, 129.643
986.000, 5.835
987.254, 82.271
988.509, 64.969
989.763, 27.493
991.017, 124.074
992.271, 61.670
993.525, 106.565
994.779, 36.213
996.032, 97.869
997.285, 34.698
998.538, 68.132
999.791, 41.504
1001.044, 37.758
1002.296, 91.771
1003.548, 51.610
1004.800, 59.007
1006.052, 120.878
1007.304, 7.064
1008.555, 30.693
1009.807, 30.542
1011.058, 1.438
1012.309, 2.655
1013.559, 36.752
1014.810, 14.615
1016.060, 39.425
1017.310, 50.550
1018.560, 27.584
1019.810, 90.766
1021.060, 1.199
1022.309, 37.077
1023.558, 12.813
1024.807, 63.108
1026.056, 108.147
1027.305, 123.219
1028.553, 27.866
1029.801, 75.932
1031.049, 66.567
1032.297, 59.878
1033.545, 128.419
1034.793, 48.554
1036.040, 107.977
1037.287, 54.030
1038.534, 69.719
1039.781, 54.720
1041.027, 116.690
1042.274, 68.664
1043.520, 42.739
1044.766, 86.722
1046.012, 75.709
1047.257, 27.700
1048.503, 72.696
1049.748, 62.484
1050.993, 73.698
1052.238, 86.705
1053.483, 107.738
1054.727, 100.753
1055.971, 55.789
1057.216, 58.810
1058.459, 104.832
1059.703, 132.856
1060.947, 31.882
1062.190, 1.090
1063.433, 67.938
1064.676, 61.967
1065.919, 97.997
1067.162, 55.028
1068.404, 7.941
1069.646, 39.089
1070.888, 27.119
1072.130, 87.149
1073.372, 61.179
1074.613, 72.209
1075.855, 35.243
1077.096, 80.272
1078.337, 1.641
1079.578, 40.470
1080.818, 79.494
1082.059, 97.983
1083.299, 71.005
1084.539, 26.025
1085.779, 77.064
1087.018, 24.156
1088.258, 110.177
1089.497, 36.195
1090.736, 43.210
1091.975, 20.438
1093.213, 4.674
1094.452, 10.577
1095.690, 15.580
1096.928, 9.580
1098.166, 49.784
1099.404, 16.924
1100.642, 95.911
1101.879, 22.993
1103.116, 16.972
1104.353, 47.067
1105.590, 27.071
1106.827, 33.098
1108.063, 27.058
1109.299, 60.011
1110.536, 5.274
1111.771, 64.365
1113.007, 23.739
1114.243, 8.277
1115.478, 108.644
1116.713, 2.383
1117.948, 26.863
1119.183, 17.822
1120.418, 57.781
1121.652, 153.811
1122.886, 307.689
1124.120, 280.728
1125.354, 200.605
1126.588, 161.048
1127.821, 21.127
1129.055, 3.379
1130.288, 52.875
1131.521, 11.319
1132.753, 48.358
1133.986, 58.598
1135.218, 35.068
1136.450, 5.599
1137.682, 8.194
1138.914, 24.233
1140.146, 36.151
1141.377, 43.420
1142.609, 15.209
1143.840, 18.968
1145.071, 9.386
1146.301, 0.829
1147.532, 0.905
1148.762, 12.391
1149.992, 7.834
1151.222, 36.185
1152.452, 26.522
1153.682, 12.917
1154.911, 9.341
1156.140, 14.187
1157.369, 43.194
1158.598, 13.621
1159.827, 60.232
1161.055, 8.446
1162.284, 31.967
1163.512, 61.270
1164.740, 6.561
1165.967, 45.330
1167.195, 57.893
1168.422, 52.896
1169.650, 50.747
1170.877, 69.894
1172.103, 21.833
1173.330, 5.284
1174.557, 86.953
1175.783, 17.693
1177.009, 44.346
1178.235, 6.425
1179.461, 74.443
1180.686, 65.663
1181.912, 0.334
1183.137, 37.544
1184.362, 46.680
1185.587, 32.746
1186.811, 67.835
1188.036, 103.650
1189.260, 136.484
1190.484, 56.243
1191.708, 97.371
1192.932, 98.114
1194.155, 107.991
1195.378, 116.372
1196.602, 123.941
1197.825, 105.938
1199.047, 106.460
1200.270, 82.668
1201.492, 129.632
1202.715, 85.242
1203.937, 161.226
1205.159, 94.836
1206.380, 167.457
1207.602, 119.166
1208.823, 105.699
1210.044, 127.199
1211.265, 108.701
1212.486, 121.077
1213.707, 153.658
1214.927, 136.113
1216.147, 135.424
1217.367, 139.847
1218.587, 111.383
1219.807, 120.774
1221.027, 112.375
1222.246, 102.739
1223.465, 106.083
1224.684, 91.410
1225.903, 85.691
1227.121, 125.987
1228.340, 46.407
1229.558, 126.739
1230.776, 180.039
1231.994, 107.915
1233.212, 95.126
1234.429, 113.319
1235.646, 161.615
1236.864, 141.862
1238.081, 70.054
1239.297, 120.187
1240.514, 86.400
1241.730, 134.551
1242.947, 139.636
1244.163, 73.742
1245.378, 82.796
1246.594, 138.833
1247.810, 95.851
1249.025, 147.854
1250.240, 91.839
1251.455, 112.856
1252.670, 106.807
1253.885, 132.735
1255.099, 139.642
1256.313, 67.528
1257.527, 88.391
1258.741, 59.250
1259.955, 112.095
1261.168, 165.520
1262.382, 111.406
1263.595, 66.968
1264.808, 111.703
1266.021, 110.501
1267.233, 92.201
1268.446, 148.884
1269.658, 87.560
1270.870, 35.206
1272.082, 52.832
1273.294, 80.433
1274.505, 50.018
1275.716, 44.170
1276.928, 86.196
1278.139, 41.717
1279.349, 76.218
1280.560, 23.948
1281.770, 88.215
1282.981, 125.990
1284.191, 135.523
1285.401, 34.677
1286.610, 76.971
1287.820, 59.391
1289.029, 42.729
1290.239, 104.817
1291.448, 21.588
1292.656, 81.628
1293.865, 84.293
1295.073, 112.356
1296.282, 83.737
1297.490, 70.865
1298.698, 115.491
1299.906, 130.867
1301.113, 96.493
1302.320, 125.816
1303.528, 40.609
1304.735, 57.187
1305.942, 118.132
1307.148, 85.350
1308.355, 117.431
1309.561, 125.438
1310.767, 23.033
1311.973, 107.957
1313.179, 114.487
1314.384, 31.771
1315.590, 114.148
1316.795, 47.654
1318.000, 31.573
1319.205, 56.475
1320.410, 41.374
1321.614, 89.448
1322.819, 76.641
1324.023, 57.142
1325.227, 45.429
1326.431, 63.218
1327.634, 129.208
1328.838, 17.180
1330.041, 8.543
1331.244, 6.448
1332.447, 76.118
1333.650, 67.811
1334.852, 85.512
1336.055, 22.062
1337.257, 78.786
1338.459, 43.428
1339.661, 26.056
1340.862, 33.671
1342.064, 53.272
1343.265, 17.862
1344.466, 37.438
1345.667, 23.988
1346.868, 111.540
1348.068, 20.060
1349.269, 72.588
1350.469, 66.105
1351.669, 41.612
1352.869, 86.108
1354.069, 80.576
1355.268, 94.033
1356.468, 96.480
1357.667, 107.917
1358.866, 136.343
1360.065, 97.759
1361.263, 107.229
1362.462, 46.564
1363.660, 81.002
1364.858, 58.381
1366.056, 39.750
1367.254, 76.108
1368.451, 101.463
1369.649, 118.755
1370.846, 115.402
1372.043, 41.740
1373.240, 57.610
1374.436, 60.944
1375.633, 12.704
1376.829, 80.480
1378.025, 86.467
1379.221, 45.261
1380.417, 52.810
1381.613, 62.422
1382.808, 79.134
1384.003, 49.446
1385.199, 59.998
1386.393, 88.498
1387.588, 62.993
1388.783, 88.082
1389.977, 78.608
1391.171, 88.584
1392.365, 122.008
1393.559, 82.024
1394.753, 57.218
1395.946, 69.432
1397.140, 109.961
1398.333, 92.264
1399.526, 90.924
1400.719, 80.556
1401.911, 58.070
1403.104, 56.323
1404.296, 52.272
1405.488, 34.329
1406.680, 91.978
1407.872, 78.785
1409.063, 38.773
1410.255, 123.754
1411.446, 74.893
1412.637, 53.475
1413.828, 96.313
1415.018, 162.377
1416.209, 125.412
1417.399, 107.611
1418.589, 50.165
1419.779, 151.364
1420.969, 146.929
1422.159, 70.037
1423.348, 169.817
1424.537, 54.968
1425.726, 36.250
1426.915, 140.275
1428.104, 82.350
1429.293, 117.126
1430.481, 138.413
1431.669, 79.002
1432.857, 163.100
1434.045, 48.408
1435.233, 88.200
1436.420, 120.750
1437.608, 110.801
1438.795, 87.838
1439.982, 106.862
1441.169, 86.871
1442.355, 119.633
1443.542, 107.186
1444.728, 73.142
1445.914, 93.813
1447.100, 133.596
1448.286, 77.134
1449.472, 102.973
1450.657, 63.373
1451.842, 42.057
1453.027, 30.494
1454.212, 71.128
1455.397, 93.811
1456.581, 100.476
1457.766, 83.008
1458.950, 71.643
1460.134, 73.299
1461.318, 54.935
1462.501, 165.473
1463.685, 60.918
1464.868, 52.431
1466.051, 195.126
1467.234, 48.787
1468.417, 164.470
1469.600, 13.884
1470.782, 55.806
1471.965, 86.483
1473.147, 139.095
1474.329, 139.913
1475.510, 191.724
1476.692, 121.560
1477.873, 28.417
1479.055, 6.279
1480.236, 59.128
1481.416, 49.966
1482.597, 98.810
1483.778, 32.649
1484.958, 102.604
1486.138, 86.584
1487.318, 19.556
1488.498, 65.583
1489.678, 106.638
1490.857, 102.722
1492.037, 68.847
1493.216, 43.017
1494.395, 109.228
1495.574, 90.019
1496.752, 96.100
1497.931, 57.206
1499.109, 136.333
1500.287, 41.979
1501.465, 37.122
1502.643, 83.292
1503.820, 45.399
1504.998, 7.584
1506.175, 46.764
1507.352, 85.921
1508.529, 59.530
1509.706, 91.221
1510.882, 40.085
1512.059, 2.886
1513.235, 60.303
1514.411, 31.677
1515.587, 49.270
1516.762, 2.769
1517.938, 80.974
1519.113, 0.000
##END=



