##NAMES=Cryolite
##RRUFFID=R050287
##IDEAL CHEMISTRY=Na_3_AlF_6_
##LOCALITY=Ivigtut, Greenland
##OWNER=RRUFF
##SOURCE=Marcus Origlieri
##DESCRIPTION=Colorless fragment
##STATUS=The identification of this mineral has been confirmed by X-ray diffraction and chemical analysis
##URL=rruff.info/R050287
##MEASURED CHEMISTRY=Na_3.00_Al_1.00_F_6.00_
92.35352, 0.0000000E+00
92.83563, 0.1624890
93.31775, 0.2776760
93.79987, 0.2562530
94.28198, 0.1501390
94.76410, 0.1527330
95.24622, 0.3413830
95.72833, 0.5787750
96.21045, 0.9152550
96.69257, 0.6929580
97.17468, 0.3998480
97.65680, 0.2728090
98.13892, 0.4554020
98.62103, 0.4180750
99.10315, 0.2439250
99.58527, 3.0091999E-02
100.0674, 0.1176270
100.5495, 3.3863001E-02
101.0316, 0.2554430
101.5137, 0.3320130
101.9958, 0.2299370
102.4780, 0.1021510
102.9601, 3.6888000E-02
103.4422, 0.2145310
103.9243, 0.2040750
104.4064, 9.2083000E-02
104.8885, 0.5145160
105.3707, 0.7709570
105.8528, 0.7321150
106.3349, 0.7045290
106.8170, 0.8165320
107.2991, 1.220235
107.7813, 1.472146
108.2634, 1.483804
108.7455, 1.331686
109.2276, 1.269144
109.7097, 1.344016
110.1918, 1.474859
110.6740, 1.628360
111.1561, 1.880151
111.6382, 2.068678
112.1203, 2.084415
112.6024, 1.979111
113.0845, 2.063487
113.5667, 2.593402
114.0488, 3.213369
114.5309, 3.690484
115.0130, 3.736010
115.4951, 3.852144
115.9772, 4.245966
116.4594, 4.915020
116.9415, 5.523275
117.4236, 5.915145
117.9057, 6.192715
118.3878, 6.463825
118.8699, 6.895823
119.3521, 7.240497
119.8342, 7.296091
120.3163, 7.021844
120.7984, 6.775417
121.2805, 6.771367
121.7626, 6.942577
122.2448, 7.174584
122.7269, 7.461020
123.2090, 7.759447
123.6911, 8.041944
124.1732, 8.315659
124.6553, 8.531011
125.1375, 8.617013
125.6196, 8.599670
126.1017, 8.561015
126.5838, 8.491776
127.0659, 8.442470
127.5480, 8.500940
128.0302, 8.680461
128.5123, 8.970518
128.9944, 9.430780
129.4765, 10.03933
129.9586, 10.59147
130.4407, 10.90474
130.9229, 11.02746
131.4050, 11.15923
131.8871, 11.34148
132.3692, 11.54650
132.8513, 11.72413
133.3334, 11.84853
133.8156, 11.82694
134.2977, 11.62908
134.7798, 11.32450
135.2619, 11.00907
135.7440, 10.66538
136.2261, 10.32977
136.7083, 10.17530
137.1904, 10.22741
137.6725, 10.36998
138.1546, 10.53215
138.6367, 10.74743
139.1188, 10.81050
139.6010, 10.64666
140.0831, 10.25752
140.5652, 9.850479
141.0473, 9.399940
141.5294, 8.959773
142.0115, 8.621279
142.4937, 8.440329
142.9758, 8.217319
143.4579, 7.843678
143.9400, 7.235571
144.4221, 6.902367
144.9042, 6.961638
145.3864, 7.222130
145.8685, 7.347207
146.3506, 7.203838
146.8327, 7.108835
147.3148, 7.194386
147.7969, 7.637477
148.2791, 7.855089
148.7612, 7.679240
149.2433, 7.295751
149.7254, 7.133951
150.2075, 7.430047
150.6896, 7.734928
151.1718, 7.878363
151.6539, 7.716485
152.1360, 7.607022
152.6181, 7.518913
153.1002, 7.481877
153.5823, 7.582786
154.0645, 8.115741
154.5466, 8.579833
155.0287, 8.736897
155.5108, 8.219097
155.9929, 7.811682
156.4750, 7.681892
156.9572, 7.770113
157.4393, 7.836875
157.9214, 7.813337
158.4035, 7.789047
158.8856, 7.803003
159.3677, 7.864484
159.8499, 7.959780
160.3320, 8.135289
160.8141, 8.365948
161.2962, 8.493267
161.7783, 8.445532
162.2604, 8.300746
162.7426, 8.111386
163.2247, 7.767328
163.7068, 7.494138
164.1889, 7.440235
164.6710, 7.590188
165.1531, 7.717714
165.6353, 7.745234
166.1174, 7.681599
166.5995, 7.536253
167.0816, 7.172588
167.5637, 6.831516
168.0458, 6.720479
168.5280, 6.840927
169.0101, 6.919401
169.4922, 6.751152
169.9743, 6.438486
170.4564, 6.124287
170.9385, 5.806662
171.4207, 5.547934
171.9028, 5.429647
172.3849, 5.460387
172.8670, 5.515335
173.3491, 5.545589
173.8312, 5.531420
174.3134, 5.434244
174.7955, 5.184652
175.2776, 4.866516
175.7597, 4.550007
176.2418, 4.227199
176.7239, 3.984878
177.2061, 3.943446
177.6882, 4.049125
178.1703, 4.154864
178.6524, 4.206807
179.1345, 4.210439
179.6166, 4.151157
180.0988, 4.013793
180.5809, 3.889519
181.0630, 3.919416
181.5451, 4.065771
182.0272, 4.174490
182.5093, 4.138820
182.9915, 4.009195
183.4736, 3.899771
183.9557, 3.814043
184.4378, 3.761686
184.9199, 3.795578
185.4020, 3.896482
185.8842, 3.944126
186.3663, 3.808410
186.8484, 3.552649
187.3305, 3.431036
187.8126, 3.491815
188.2947, 3.611477
188.7769, 3.566130
189.2590, 3.364941
189.7411, 3.199586
190.2232, 3.253074
190.7053, 3.467224
191.1874, 3.473028
191.6696, 3.185832
192.1517, 2.801229
192.6338, 2.706411
193.1159, 2.910482
193.5980, 3.152888
194.0801, 3.294247
194.5623, 3.338061
195.0444, 3.326512
195.5265, 3.244175
196.0086, 3.136662
196.4907, 3.112233
196.9728, 3.180542
197.4550, 3.237700
197.9371, 3.205360
198.4192, 3.076626
198.9013, 2.941826
199.3834, 2.780972
199.8655, 2.645241
200.3477, 2.707594
200.8298, 3.019208
201.3119, 3.295759
201.7940, 3.345382
202.2761, 3.147259
202.7582, 2.959699
203.2404, 2.793596
203.7225, 2.648060
204.2046, 2.555885
204.6867, 2.531456
205.1688, 2.527526
205.6509, 2.527200
206.1331, 2.538657
206.6152, 2.508833
207.0973, 2.385253
207.5794, 2.211026
208.0615, 2.187809
208.5436, 2.382120
209.0258, 2.570827
209.5079, 2.591182
209.9900, 2.396955
210.4721, 2.281563
210.9542, 2.297097
211.4363, 2.381754
211.9185, 2.323833
212.4006, 2.051400
212.8827, 1.788600
213.3648, 1.698930
213.8469, 1.850109
214.3290, 1.919205
214.8112, 1.867432
215.2933, 1.724366
215.7754, 1.578229
216.2575, 1.389803
216.7396, 1.232179
217.2217, 1.173791
217.7039, 1.270965
218.1860, 1.273047
218.6681, 1.124676
219.1502, 0.8866370
219.6323, 0.7622700
220.1144, 0.7686780
220.5966, 0.8649600
221.0787, 1.049072
221.5608, 1.392957
222.0429, 1.595712
222.5250, 1.626241
223.0071, 1.509806
223.4893, 1.312142
223.9714, 0.9120230
224.4535, 0.6064100
224.9356, 0.6013980
225.4177, 1.109327
225.8998, 1.399167
226.3820, 1.348710
226.8641, 1.067266
227.3462, 0.9406360
227.8283, 1.049226
228.3104, 1.189257
228.7925, 1.261220
229.2746, 1.252617
229.7568, 1.190291
230.2389, 1.041433
230.7210, 0.8527210
231.2031, 0.7554700
231.6852, 0.7885270
232.1673, 0.8305600
232.6495, 0.8291090
233.1316, 0.7789660
233.6137, 0.6992710
234.0958, 0.5680980
234.5779, 0.4132250
235.0600, 0.3035340
235.5422, 0.2268320
236.0243, 0.2120030
236.5064, 0.2825030
236.9885, 0.4950700
237.4706, 0.6719460
237.9527, 0.8330610
238.4349, 0.9504180
238.9170, 0.9401040
239.3991, 0.7308840
239.8812, 0.5014360
240.3633, 0.3211920
240.8454, 0.1973710
241.3276, 9.9850997E-02
241.8097, 1.3844000E-02
242.2918, 3.9367002E-02
242.7739, 1.9599999E-04
243.2560, 0.2022710
243.7381, 0.3877460
244.2203, 0.4878470
244.7024, 0.4825150
245.1845, 0.4473490
245.6666, 0.3772960
246.1487, 0.2799590
246.6308, 0.1543160
247.1130, 6.9865003E-02
247.5951, 0.2064510
248.0772, 0.1689920
248.5593, 0.1044060
249.0414, 0.3315850
249.5235, 0.5324630
250.0057, 0.6739690
250.4878, 0.6936960
250.9699, 0.5309380
251.4520, 0.3532590
251.9341, 0.2123970
252.4162, 0.1133380
252.8984, 2.0508001E-02
253.3805, 7.7680998E-02
253.8626, 0.1610140
254.3447, 0.2092350
254.8268, 0.2575890
255.3089, 0.1954880
255.7911, 6.2914997E-02
256.2732, 0.5679490
256.7553, 0.8450850
257.2374, 0.8181110
257.7195, 0.6379860
258.2017, 0.4859220
258.6838, 0.3742890
259.1659, 0.2570750
259.6480, 9.9319004E-02
260.1301, 0.1037890
260.6122, 0.1780610
261.0944, 6.7275003E-02
261.5765, 0.1032390
262.0586, 0.2141000
262.5407, 0.2773080
263.0228, 0.2394220
263.5049, 3.5032999E-02
263.9871, 0.3240170
264.4692, 0.4797820
264.9513, 0.3636900
265.4334, 0.1565470
265.9155, 6.6789999E-03
266.3976, 8.7748997E-02
266.8798, 0.1016190
267.3619, 6.4490000E-03
267.8440, 0.2118600
268.3261, 0.3057580
268.8082, 0.2696990
269.2903, 0.1618260
269.7725, 3.1830000E-03
270.2546, 0.2309110
270.7367, 0.3967460
271.2188, 0.4836310
271.7009, 0.4843750
272.1830, 0.3295460
272.6652, 4.3451000E-02
273.1473, 0.3978950
273.6294, 0.5676070
274.1115, 0.5276220
274.5936, 0.4377700
275.0757, 0.2891390
275.5579, 0.1171400
276.0400, 3.4972999E-02
276.5221, 5.7123002E-02
277.0042, 0.1109280
277.4863, 0.1828060
277.9684, 0.2816280
278.4506, 0.2538200
278.9327, 3.8148999E-02
279.4148, 0.2451740
279.8969, 0.3145140
280.3790, 0.1404780
280.8611, 3.9648000E-02
281.3433, 9.8204002E-02
281.8254, 3.5946000E-02
282.3075, 2.4216000E-02
282.7896, 7.7881001E-02
283.2717, 0.1314740
283.7538, 0.2161560
284.2360, 0.3355060
284.7181, 0.3969860
285.2002, 0.3169540
285.6823, 0.1187400
286.1644, 3.5034001E-02
286.6465, 9.0475000E-02
287.1287, 0.1724910
287.6108, 0.1078550
288.0929, 9.3433000E-02
288.5750, 0.2444740
289.0571, 0.2554930
289.5392, 0.1603780
290.0214, 9.4022997E-02
290.5035, 5.9937999E-02
290.9856, 2.8162001E-02
291.4677, 4.8806999E-02
291.9498, 0.1598610
292.4319, 0.2276000
292.9141, 0.1952250
293.3962, 0.1236670
293.8783, 0.1850070
294.3604, 0.3812690
294.8425, 0.5651820
295.3246, 0.6113970
295.8068, 0.5432210
296.2889, 0.4241350
296.7710, 0.2246420
297.2531, 3.4017999E-02
297.7352, 3.2956999E-02
298.2173, 0.2031420
298.6995, 0.3913960
299.1816, 0.5024340
299.6637, 0.5493830
300.1458, 0.5390260
300.6279, 0.4428600
301.1100, 0.3586140
301.5922, 0.4328980
302.0743, 0.6347450
302.5564, 0.8386840
303.0385, 0.9684940
303.5206, 1.055937
304.0027, 1.157703
304.4849, 1.289013
304.9670, 1.394047
305.4491, 1.363850
305.9312, 1.264238
306.4133, 1.240252
306.8954, 1.429195
307.3776, 1.685076
307.8597, 1.854252
308.3418, 1.923330
308.8239, 1.969284
309.3060, 2.047714
309.7881, 2.142336
310.2703, 2.224094
310.7524, 2.241539
311.2345, 2.270132
311.7166, 2.342762
312.1987, 2.463774
312.6808, 2.675316
313.1630, 3.120316
313.6451, 3.639177
314.1272, 4.049700
314.6093, 4.238520
315.0914, 4.353720
315.5735, 4.436211
316.0557, 4.492699
316.5378, 4.559618
317.0199, 4.567526
317.5020, 4.640306
317.9841, 4.877319
318.4662, 5.413147
318.9484, 5.954689
319.4305, 6.430893
319.9126, 6.835287
320.3947, 7.160374
320.8768, 7.270132
321.3589, 7.401575
321.8411, 7.662954
322.3232, 8.124334
322.8053, 8.622913
323.2874, 9.226885
323.7695, 9.831585
324.2516, 10.27088
324.7338, 10.26510
325.2159, 10.31953
325.6980, 10.59949
326.1801, 11.17053
326.6622, 11.75216
327.1443, 12.41480
327.6265, 13.05225
328.1086, 13.54836
328.5907, 13.59871
329.0728, 13.83987
329.5549, 14.48957
330.0370, 15.55719
330.5192, 16.30207
331.0013, 16.36818
331.4834, 16.40163
331.9655, 16.89053
332.4476, 18.29206
332.9297, 19.37554
333.4119, 19.95770
333.8940, 20.12778
334.3761, 20.27042
334.8582, 20.38558
335.3403, 20.46203
335.8224, 20.49347
336.3046, 20.48868
336.7867, 20.44266
337.2688, 20.32521
337.7509, 20.17205
338.2330, 20.08076
338.7151, 20.08267
339.1973, 20.02863
339.6794, 19.84654
340.1615, 19.53046
340.6436, 19.24998
341.1257, 19.00796
341.6078, 18.79799
342.0900, 18.64578
342.5721, 18.56537
343.0542, 18.39066
343.5363, 18.04085
344.0184, 17.56190
344.5005, 17.15459
344.9827, 16.82682
345.4648, 16.52632
345.9469, 16.21290
346.4290, 15.88157
346.9111, 15.55456
347.3932, 15.28712
347.8754, 14.96121
348.3575, 14.27141
348.8396, 13.25174
349.3217, 12.26031
349.8038, 11.53980
350.2859, 11.02918
350.7680, 10.61950
351.2502, 10.32892
351.7323, 10.01698
352.2144, 9.508522
352.6965, 8.840481
353.1786, 8.138847
353.6607, 7.362478
354.1429, 6.635447
354.6250, 6.156199
355.1071, 5.938387
355.5892, 5.756163
356.0713, 5.445669
356.5534, 5.056328
357.0356, 4.661213
357.5177, 4.219034
357.9998, 3.836086
358.4819, 3.632864
358.9640, 3.581392
359.4461, 3.532026
359.9283, 3.438423
360.4104, 3.295971
360.8925, 3.083530
361.3746, 2.702919
361.8567, 2.413467
362.3388, 2.436300
362.8210, 2.630516
363.3031, 2.677135
363.7852, 2.298183
364.2673, 1.891594
364.7494, 1.642899
365.2315, 1.599463
365.7137, 1.611191
366.1958, 1.645567
366.6779, 1.721096
367.1600, 1.860039
367.6421, 2.202641
368.1242, 2.466345
368.6064, 2.572618
369.0885, 2.512987
369.5706, 2.452007
370.0527, 2.346220
370.5348, 2.272478
371.0169, 2.282373
371.4991, 2.413992
371.9812, 2.569492
372.4633, 2.734650
372.9454, 2.910810
373.4275, 3.105169
373.9096, 3.289167
374.3918, 3.551756
374.8739, 3.938955
375.3560, 4.482613
375.8381, 4.982349
376.3202, 5.414860
376.8023, 5.826139
377.2845, 6.296774
377.7666, 6.838314
378.2487, 7.348396
378.7308, 7.735435
379.2129, 8.045557
379.6950, 8.612406
380.1772, 9.490364
380.6593, 10.36865
381.1414, 10.89075
381.6235, 11.10285
382.1056, 11.47955
382.5877, 12.11432
383.0699, 12.94909
383.5520, 13.92642
384.0341, 15.04691
384.5162, 16.17657
384.9983, 17.26437
385.4804, 18.30124
385.9626, 19.24539
386.4447, 20.07492
386.9268, 20.90662
387.4089, 21.91813
387.8910, 23.02963
388.3731, 24.03791
388.8553, 24.79784
389.3374, 25.44364
389.8195, 26.11914
390.3016, 26.80870
390.7837, 27.37718
391.2658, 27.64391
391.7480, 27.79193
392.2301, 28.01602
392.7122, 28.54996
393.1943, 28.87449
393.6764, 28.69378
394.1585, 28.11537
394.6407, 27.42191
395.1228, 26.69724
395.6049, 25.87256
396.0870, 24.86761
396.5691, 23.59398
397.0512, 22.44020
397.5334, 21.51215
398.0155, 20.73531
398.4976, 20.01678
398.9797, 19.53703
399.4618, 18.89436
399.9439, 17.92792
400.4261, 16.65140
400.9082, 15.58410
401.3903, 14.89807
401.8724, 14.23317
402.3545, 13.33307
402.8366, 11.99628
403.3188, 10.90896
403.8009, 10.17180
404.2830, 9.686863
404.7651, 9.187883
405.2472, 8.667912
405.7293, 8.152357
406.2115, 7.654325
406.6936, 7.178892
407.1757, 6.704346
407.6578, 6.226145
408.1399, 5.764883
408.6220, 5.337875
409.1042, 4.952538
409.5863, 4.566570
410.0684, 4.152241
410.5505, 3.759327
411.0326, 3.479761
411.5147, 3.306726
411.9969, 3.168583
412.4790, 3.024462
412.9611, 2.868279
413.4432, 2.686905
413.9253, 2.474899
414.4074, 2.245035
414.8896, 1.955389
415.3717, 1.654472
415.8538, 1.459692
416.3359, 1.518288
416.8180, 1.651190
417.3001, 1.738781
417.7823, 1.774513
418.2644, 1.689878
418.7465, 1.271704
419.2286, 0.7770440
419.7107, 0.4563080
420.1928, 0.4624440
420.6750, 0.5267030
421.1571, 0.5877860
421.6392, 0.6325570
422.1213, 0.6251320
422.6034, 0.4832360
423.0855, 0.3499320
423.5677, 0.2888260
424.0498, 0.3267210
424.5319, 0.3603270
425.0140, 0.4145280
425.4961, 0.4460070
425.9782, 0.4062860
426.4604, 0.1991540
426.9425, 6.5555997E-02
427.4246, 7.7716999E-02
427.9067, 0.2058200
428.3888, 0.2253910
428.8709, 6.4165004E-02
429.3531, 7.7863999E-02
429.8352, 5.8003999E-02
430.3173, 0.1811310
430.7994, 0.2651200
431.2815, 0.1301730
431.7636, 7.6339997E-02
432.2458, 9.8559998E-02
432.7279, 7.4152000E-02
433.2100, 0.2496450
433.6921, 0.3722100
434.1742, 0.4435270
434.6563, 0.4579510
435.1385, 0.4144040
435.6206, 0.3521600
436.1027, 0.2943530
436.5848, 0.2438660
437.0669, 0.2142660
437.5490, 0.2182040
438.0312, 0.2185590
438.5133, 0.1516910
438.9954, 4.3850001E-02
439.4775, 3.2414999E-02
439.9596, 1.8200000E-03
440.4417, 5.3369999E-02
440.9239, 3.9276000E-02
441.4060, 4.9380999E-02
441.8881, 9.6193001E-02
442.3702, 1.5350000E-02
442.8523, 0.1784590
443.3344, 0.2916320
443.8166, 0.3195110
444.2987, 0.3030430
444.7808, 0.1973190
445.2629, 4.8857000E-02
445.7450, 5.9799999E-03
446.2271, 0.1479030
446.7093, 0.3248690
447.1914, 0.4839290
447.6735, 0.6727200
448.1556, 0.6634920
448.6377, 0.2820320
449.1198, 0.1800060
449.6020, 0.4140630
450.0841, 0.2761630
450.5662, 0.2092460
451.0483, 0.3213670
451.5304, 0.5531270
452.0125, 0.6211320
452.4947, 0.4820770
452.9768, 0.3148880
453.4589, 0.2058980
453.9410, 0.1551740
454.4231, 0.1765560
454.9052, 0.2958870
455.3874, 0.4040530
455.8695, 0.2999060
456.3516, 2.2543000E-02
456.8337, 0.1276380
457.3158, 2.0779001E-02
457.7979, 0.2887000
458.2801, 0.3467370
458.7622, 0.2165530
459.2443, 4.9484000E-02
459.7264, 0.1031110
460.2085, 0.2105640
460.6906, 0.2059840
461.1728, 5.4993000E-02
461.6549, 8.7747999E-02
462.1370, 9.2616998E-02
462.6191, 2.1000000E-02
463.1012, 3.7643000E-02
463.5833, 5.3202000E-02
464.0655, 4.5743998E-02
464.5476, 5.3200000E-03
465.0297, 8.8335000E-02
465.5118, 0.1103170
465.9939, 7.1089000E-02
466.4760, 0.2347740
466.9582, 0.2433470
467.4403, 9.6768998E-02
467.9224, 0.2608380
468.4045, 0.1442930
468.8866, 0.1117730
469.3687, 0.3183460
469.8509, 0.4872800
470.3330, 0.5747260
470.8151, 0.5426330
471.2972, 0.4070260
471.7793, 0.3285100
472.2614, 0.3034610
472.7436, 0.3441640
473.2257, 0.5389190
473.7078, 0.8946110
474.1899, 0.9288580
474.6720, 0.5287780
475.1541, 1.2753000E-02
475.6363, 0.1147560
476.1184, 9.0775996E-02
476.6005, 0.2746410
477.0826, 0.2697470
477.5647, 0.1727470
478.0468, 0.1445240
478.5290, 0.1786250
479.0111, 0.2163600
479.4932, 0.1258280
479.9753, 5.4625001E-02
480.4574, 0.2320500
480.9395, 0.7981030
481.4217, 1.283529
481.9038, 1.308975
482.3859, 1.085249
482.8680, 0.9198210
483.3501, 0.9994960
483.8322, 1.071112
484.3144, 1.012638
484.7965, 0.8350660
485.2786, 0.7271060
485.7607, 0.7995400
486.2428, 0.8835240
486.7249, 0.8872700
487.2071, 0.7287140
487.6892, 0.6557460
488.1713, 0.6898960
488.6534, 0.7959020
489.1355, 0.9458480
489.6176, 1.170092
490.0998, 1.333553
490.5819, 1.407051
491.0640, 1.398001
491.5461, 1.369438
492.0282, 1.319401
492.5103, 1.266106
492.9925, 1.198380
493.4746, 1.130863
493.9567, 1.152056
494.4388, 1.276932
494.9209, 1.443146
495.4030, 1.612396
495.8852, 1.768658
496.3673, 1.873484
496.8494, 1.865021
497.3315, 1.837729
497.8136, 1.943550
498.2957, 2.135656
498.7779, 2.214663
499.2600, 1.907576
499.7421, 1.563072
500.2242, 1.453403
500.7063, 1.654541
501.1884, 1.858995
501.6706, 1.971012
502.1527, 2.042616
502.6348, 2.124140
503.1169, 2.238573
503.5990, 2.340021
504.0811, 2.420143
504.5633, 2.484827
505.0454, 2.575981
505.5275, 2.722908
506.0096, 2.842251
506.4917, 2.885067
506.9738, 2.826635
507.4560, 2.827267
507.9381, 2.934813
508.4202, 3.048532
508.9023, 3.013536
509.3844, 2.836975
509.8665, 2.797878
510.3487, 3.001991
510.8308, 3.300613
511.3129, 3.456350
511.7950, 3.481297
512.2772, 3.443045
512.7593, 3.228321
513.2414, 3.043604
513.7235, 3.224634
514.2056, 3.769379
514.6877, 4.289225
515.1699, 4.512999
515.6520, 4.591936
516.1341, 4.674128
516.6162, 4.752577
517.0983, 4.944027
517.5804, 5.449284
518.0626, 6.049610
518.5447, 6.395222
519.0268, 6.124979
519.5089, 5.912342
519.9910, 5.923458
520.4731, 6.150463
520.9553, 6.412886
521.4374, 6.715557
521.9195, 7.034674
522.4016, 7.352352
522.8837, 7.656517
523.3658, 8.026772
523.8480, 8.530914
524.3301, 8.982145
524.8122, 9.025377
525.2943, 8.688923
525.7764, 8.561102
526.2585, 8.852392
526.7407, 9.422400
527.2228, 10.02416
527.7049, 10.66922
528.1870, 11.40184
528.6691, 12.43539
529.1512, 13.48460
529.6334, 14.13397
530.1155, 14.34631
530.5976, 14.62210
531.0797, 15.22163
531.5618, 16.05695
532.0439, 17.04147
532.5261, 18.28586
533.0082, 19.50121
533.4903, 20.53049
533.9724, 21.50270
534.4545, 22.68678
534.9366, 24.18012
535.4188, 25.79304
535.9009, 27.46748
536.3830, 29.20551
536.8651, 31.09115
537.3472, 33.10807
537.8293, 35.29656
538.3115, 37.69205
538.7936, 40.29679
539.2757, 42.96526
539.7578, 45.69979
540.2399, 48.41902
540.7220, 50.90449
541.2042, 53.22514
541.6863, 55.93415
542.1684, 59.21200
542.6505, 62.99242
543.1326, 67.36034
543.6147, 72.19087
544.0969, 77.13741
544.5790, 81.63823
545.0611, 86.29246
545.5432, 91.64947
546.0253, 97.75316
546.5074, 104.0497
546.9896, 110.0364
547.4717, 116.2100
547.9538, 122.9932
548.4359, 131.3773
548.9180, 139.1210
549.4001, 145.8743
549.8823, 151.9987
550.3644, 158.1475
550.8465, 164.8878
551.3286, 170.7663
551.8107, 175.7618
552.2928, 179.6891
552.7750, 180.9502
553.2571, 179.3813
553.7392, 176.0953
554.2213, 171.7664
554.7034, 166.3568
555.1855, 159.2695
555.6677, 150.3947
556.1498, 140.4527
556.6319, 129.6866
557.1140, 118.5579
557.5961, 108.1160
558.0782, 98.78014
558.5604, 89.95111
559.0425, 80.94732
559.5246, 72.14655
560.0067, 64.43363
560.4888, 58.71970
560.9709, 53.75419
561.4531, 49.11598
561.9352, 44.75440
562.4173, 40.73743
562.8994, 37.10133
563.3815, 33.81803
563.8636, 30.84709
564.3458, 28.17537
564.8279, 25.87415
565.3100, 24.03826
565.7921, 22.46819
566.2742, 20.95292
566.7563, 19.49394
567.2385, 18.06403
567.7206, 16.62932
568.2027, 15.26241
568.6848, 14.26755
569.1669, 13.58039
569.6490, 12.82029
570.1312, 11.52745
570.6133, 10.12753
571.0954, 9.393963
571.5775, 9.291002
572.0596, 9.150097
572.5417, 8.371256
573.0239, 7.455311
573.5060, 6.895651
573.9881, 6.952528
574.4702, 6.870266
574.9523, 6.219275
575.4344, 5.376888
575.9166, 4.829832
576.3987, 4.893663
576.8808, 4.863913
577.3629, 4.613577
577.8450, 4.221443
578.3271, 3.960409
578.8093, 3.886814
579.2914, 3.782486
579.7735, 3.508291
580.2556, 3.101954
580.7377, 2.928875
581.2198, 3.015238
581.7020, 3.090937
582.1841, 2.883226
582.6662, 2.499699
583.1483, 2.189457
583.6304, 1.993336
584.1125, 1.853048
584.5947, 1.742296
585.0768, 1.650124
585.5589, 1.570597
586.0410, 1.548437
586.5231, 1.467899
587.0052, 1.194967
587.4874, 0.8426970
587.9695, 0.6932370
588.4516, 1.065430
588.9337, 1.372137
589.4158, 1.444174
589.8979, 1.280750
590.3801, 1.031387
590.8622, 0.5895270
591.3443, 0.2487140
591.8264, 0.2740970
592.3085, 0.7027760
592.7906, 0.8604180
593.2728, 0.6726020
593.7549, 0.4056950
594.2370, 0.3666170
594.7191, 0.5135060
595.2012, 0.7025220
595.6833, 0.9406390
596.1655, 1.122080
596.6476, 1.103037
597.1296, 0.9366190
597.6118, 0.7457100
598.0939, 0.5133110
598.5760, 0.3367330
599.0581, 0.3143920
599.5402, 0.4260580
600.0223, 0.4731940
600.5045, 0.3238950
600.9866, 0.1776830
601.4687, 0.1397860
601.9508, 0.2541920
602.4329, 0.2777000
602.9150, 0.1650660
603.3972, 2.4545999E-02
603.8793, 5.4556001E-02
604.3614, 7.2033003E-02
604.8435, 3.0673999E-02
605.3256, 8.9061998E-02
605.8077, 0.2194650
606.2899, 0.2392500
606.7720, 0.1686290
607.2541, 0.1023330
607.7362, 7.3413998E-02
608.2183, 6.7616001E-02
608.7004, 9.6993998E-02
609.1826, 0.1426490
609.6647, 0.1377320
610.1468, 3.2834999E-02
610.6289, 0.2000900
611.1110, 0.2570170
611.5931, 0.1959340
612.0753, 0.1007560
612.5574, 0.1162010
613.0395, 0.2807660
613.5216, 0.2881090
614.0037, 6.7130998E-02
614.4858, 0.1435170
614.9680, 0.3890130
615.4501, 0.5640370
615.9322, 0.4860800
616.4143, 0.1365200
616.8964, 9.4844997E-02
617.3785, 0.1147500
617.8607, 1.9512000E-02
618.3428, 6.1806001E-02
618.8249, 0.1223470
619.3070, 0.1326410
619.7891, 3.4000001E-05
620.2712, 0.1334590
620.7534, 4.2589001E-02
621.2355, 0.2053910
621.7176, 0.2938840
622.1997, 0.2042390
622.6818, 0.6816020
623.1639, 0.7333070
623.6461, 0.2443030
624.1282, 8.4679000E-02
624.6103, 8.1258997E-02
625.0924, 1.2022000E-02
625.5745, 4.7610998E-02
626.0566, 3.0900000E-04
626.5388, 4.2567998E-02
627.0209, 9.9136002E-02
627.5030, 0.1113400
627.9851, 4.4569001E-02
628.4672, 0.3445550
628.9493, 0.5381260
629.4315, 0.5469420
629.9136, 0.4565450
630.3957, 0.3528940
630.8778, 0.2530710
631.3599, 0.2112940
631.8420, 0.3266640
632.3242, 0.4519160
632.8063, 0.4612060
633.2884, 0.3737580
633.7705, 0.3036880
634.2526, 0.3231090
634.7347, 0.3416390
635.2169, 0.3163010
635.6990, 0.2412240
636.1811, 0.1461030
636.6632, 5.3229998E-03
637.1453, 0.1126270
637.6274, 0.1034550
638.1096, 2.6457001E-02
638.5917, 0.1625350
639.0738, 0.3215710
639.5559, 0.4504010
640.0380, 0.4425130
640.5201, 0.3356910
641.0023, 0.3181110
641.4844, 0.5030710
641.9665, 0.6633430
642.4486, 0.4440210
642.9307, 1.7872000E-02
643.4128, 0.2339610
643.8950, 1.6542001E-02
644.3771, 0.2901310
644.8592, 0.5725770
645.3413, 0.8108480
645.8234, 0.9367920
646.3055, 0.8332330
646.7877, 0.7217240
647.2698, 0.6810550
647.7519, 0.7149490
648.2340, 0.6836970
648.7161, 0.5605240
649.1982, 0.4467220
649.6804, 0.4231240
650.1625, 0.4803730
650.6446, 0.5369190
651.1267, 0.5879480
651.6088, 0.6413350
652.0909, 0.7209680
652.5731, 0.8043820
653.0552, 0.8517320
653.5373, 0.8551350
654.0194, 0.8404290
654.5015, 0.7324330
654.9836, 0.6252210
655.4658, 0.6347620
655.9479, 0.9976520
656.4300, 1.241255
656.9121, 1.224150
657.3942, 1.024021
657.8763, 0.8367520
658.3585, 0.6410100
658.8406, 0.5060210
659.3227, 0.4681450
659.8048, 0.5075280
660.2869, 0.5140000
660.7690, 0.4847430
661.2512, 0.4892670
661.7333, 0.6200390
662.2154, 0.7996310
662.6975, 0.8637260
663.1796, 0.8089140
663.6617, 0.7474460
664.1439, 0.7764700
664.6260, 0.8224890
665.1081, 0.8168560
665.5902, 0.7353130
666.0723, 0.6496930
666.5544, 0.5433100
667.0366, 0.4620000
667.5187, 0.4491310
668.0008, 0.5463490
668.4829, 0.6148280
668.9650, 0.6424260
669.4471, 0.6634810
669.9293, 0.7461910
670.4114, 0.8907950
670.8935, 0.9521200
671.3756, 0.8684230
671.8577, 0.7226330
672.3398, 0.6226220
672.8220, 0.5580180
673.3041, 0.5182080
673.7862, 0.5505910
674.2683, 0.6048810
674.7504, 0.5918830
675.2325, 0.5250020
675.7147, 0.5122180
676.1968, 0.6595270
676.6789, 0.7928560
677.1610, 0.8440860
677.6431, 0.8226890
678.1252, 0.7339320
678.6074, 0.5198100
679.0895, 0.3299480
679.5716, 0.3100200
680.0537, 0.4861150
680.5358, 0.5567300
681.0179, 0.5034890
681.5001, 0.4449520
681.9822, 0.5432890
682.4643, 0.7128890
682.9464, 0.7542800
683.4285, 0.6049710
683.9106, 0.4105000
684.3928, 0.2059500
684.8749, 4.2755000E-02
685.3570, 1.7247999E-02
685.8391, 0.1765160
686.3212, 0.3220250
686.8033, 0.3384740
687.2855, 0.2899150
687.7676, 0.2780190
688.2497, 0.3268360
688.7318, 0.3500370
689.2139, 0.3227440
689.6960, 0.2655940
690.1782, 0.2320370
690.6603, 0.2214180
691.1424, 0.2199710
691.6245, 0.2369750
692.1066, 0.2492490
692.5887, 0.2225630
693.0709, 0.1597790
693.5530, 7.1452998E-02
694.0351, 0.1285530
694.5172, 0.2832300
694.9993, 0.2606370
695.4814, 4.1212000E-02
695.9636, 0.1478560
696.4457, 0.2728120
696.9278, 0.3501740
697.4099, 0.3849850
697.8920, 0.3758700
698.3741, 0.3169100
698.8563, 0.1883660
699.3384, 7.1755998E-02
699.8205, 7.0110001E-03
700.3026, 9.0790000E-03
700.7847, 0.1963650
701.2668, 0.6090050
701.7490, 0.9744780
702.2311, 0.9125400
702.7132, 0.6426560
703.1953, 0.4898360
703.6774, 0.6037310
704.1595, 0.7010780
704.6417, 0.6725880
705.1238, 0.5645500
705.6059, 0.4368460
706.0880, 0.2282890
706.5701, 0.1208380
707.0522, 0.1416530
707.5344, 0.2477590
708.0165, 0.4008670
708.4986, 0.6094460
708.9807, 0.7229460
709.4628, 0.6844520
709.9449, 0.5401380
710.4271, 0.2799020
710.9092, 3.2837000E-02
711.3913, 0.1716180
711.8734, 0.1630550
712.3555, 0.5611780
712.8376, 0.7571790
713.3198, 0.7676960
713.8019, 0.6997300
714.2840, 0.4682310
714.7661, 0.2782570
715.2482, 0.1949710
715.7303, 0.2175310
716.2125, 0.3596990
716.6946, 0.6906760
717.1767, 0.9538800
717.6588, 0.9441600
718.1409, 0.7087670
718.6230, 0.6336020
719.1052, 0.7220150
719.5873, 0.8110620
720.0694, 0.7703800
720.5515, 0.6526340
721.0336, 0.4990520
721.5157, 0.3052640
721.9979, 0.1820280
722.4800, 0.2392180
722.9621, 0.3500920
723.4442, 0.4099390
723.9263, 0.3642980
724.4084, 0.3645550
724.8906, 0.4218670
725.3727, 0.5121330
725.8548, 0.6439550
726.3369, 0.8296530
726.8190, 0.8617860
727.3011, 0.6949180
727.7833, 0.4483010
728.2654, 0.2010960
728.7475, 4.4400000E-04
729.2296, 1.0834000E-02
729.7117, 0.3224390
730.1938, 0.6107580
730.6760, 0.4884300
731.1581, 0.1743180
731.6402, 4.2039999E-03
732.1223, 0.1743620
732.6044, 0.3528650
733.0865, 0.5161760
733.5687, 0.6479030
734.0508, 0.6953240
734.5329, 0.6261160
735.0150, 0.6221330
735.4971, 0.7756960
735.9792, 0.9731860
736.4614, 0.9195560
736.9435, 0.6588190
737.4256, 0.4206620
737.9077, 0.3146860
738.3898, 0.2857610
738.8719, 0.3155980
739.3541, 0.3866200
739.8362, 0.4373740
740.3183, 0.4255120
740.8004, 0.4092750
741.2825, 0.4061970
741.7646, 0.4164710
742.2468, 0.4493890
742.7289, 0.5228670
743.2110, 0.5627330
743.6931, 0.5277400
744.1752, 0.4315260
744.6573, 0.3878270
745.1395, 0.3941670
745.6216, 0.4229260
746.1037, 0.4454000
746.5858, 0.4842000
747.0679, 0.5921970
747.5500, 0.7664760
748.0322, 0.8895400
748.5143, 0.8671130
748.9964, 0.8095210
749.4785, 0.7887400
749.9606, 0.8239750
750.4427, 0.8083130
750.9249, 0.7030390
751.4070, 0.6089880
751.8891, 0.6223450
752.3712, 0.7416100
752.8533, 0.7159650
753.3354, 0.5381010
753.8176, 0.3443150
754.2997, 0.2600250
754.7818, 0.2404520
755.2639, 0.2157170
755.7460, 0.1726130
756.2281, 0.1437280
756.7103, 0.1524620
757.1924, 0.1777710
757.6745, 0.2031650
758.1566, 0.2394540
758.6387, 0.2608550
759.1208, 0.2433240
759.6030, 0.2304880
760.0851, 0.2878320
760.5672, 0.4201200
761.0493, 0.4826870
761.5314, 0.4581170
762.0135, 0.3666550
762.4957, 0.1725920
762.9778, 5.8398999E-02
763.4599, 0.2132820
763.9420, 0.2794900
764.4241, 0.2203580
764.9063, 0.1715280
765.3884, 0.6266290
765.8705, 0.8088440
766.3526, 0.3424280
766.8347, 8.6833999E-02
767.3168, 0.1597000
767.7990, 0.3822940
768.2811, 0.4830820
768.7632, 0.4487740
769.2453, 0.4220560
769.7274, 0.4551030
770.2095, 0.5161500
770.6917, 0.6102070
771.1738, 0.7105620
771.6559, 0.7587700
772.1380, 0.7209380
772.6201, 0.6424560
773.1022, 0.4994220
773.5844, 0.3431030
774.0665, 0.2651250
774.5486, 0.3731350
775.0307, 0.4161830
775.5128, 0.3408720
775.9949, 0.1983340
776.4771, 8.2135998E-02
776.9592, 1.0292000E-02
777.4413, 7.0839999E-03
777.9234, 0.1579510
778.4055, 0.3561670
778.8876, 0.3693070
779.3698, 0.2546040
779.8519, 0.1587520
780.3340, 0.1797640
780.8161, 0.2027990
781.2982, 0.1412220
781.7803, 4.0410999E-02
782.2625, 2.8599000E-02
782.7446, 0.1559750
783.2267, 0.3060720
783.7088, 0.4946750
784.1909, 0.6696570
784.6730, 0.6468520
785.1552, 0.4283710
785.6373, 0.2398990
786.1194, 0.1710400
786.6015, 0.1795290
787.0836, 0.2307090
787.5657, 0.3158910
788.0479, 0.4020210
788.5300, 0.5002980
789.0121, 0.5680240
789.4942, 0.5347520
789.9763, 0.4475020
790.4584, 0.5000950
790.9406, 0.8529820
791.4227, 1.019110
791.9048, 0.7735810
792.3869, 0.2973230
792.8690, 0.2129480
793.3511, 0.4960250
793.8333, 0.7821870
794.3154, 0.9213910
794.7975, 0.9553090
795.2796, 0.9006960
795.7617, 0.7765670
796.2438, 0.6462120
796.7260, 0.5389800
797.2081, 0.4260120
797.6902, 0.2519630
798.1723, 5.7533000E-02
798.6544, 1.2320000E-02
799.1365, 0.1640530
799.6187, 0.3504850
800.1008, 0.5678330
800.5829, 0.7519820
801.0650, 0.6122610
801.5471, 0.2102790
802.0292, 5.7665002E-02
802.5114, 0.1781060
802.9935, 0.5214600
803.4756, 0.5934030
803.9577, 0.4634820
804.4398, 0.3684690
804.9219, 0.4281080
805.4041, 0.4765240
805.8862, 0.4414200
806.3683, 0.3559840
806.8504, 0.3734950
807.3325, 0.5196550
807.8146, 0.6434780
808.2968, 0.6826730
808.7789, 0.6693190
809.2610, 0.6711940
809.7431, 0.6815200
810.2252, 0.6859090
810.7073, 0.6350190
811.1895, 0.6188140
811.6716, 0.7284180
812.1537, 0.9262750
812.6358, 1.074005
813.1179, 1.194778
813.6000, 1.195215
814.0822, 0.9921070
814.5643, 0.6700250
815.0464, 0.5430390
815.5285, 0.6134200
816.0106, 0.7566600
816.4927, 0.9866560
816.9749, 1.193604
817.4570, 1.154663
817.9391, 0.9483970
818.4212, 0.8001820
818.9033, 0.9690280
819.3854, 1.053108
819.8676, 0.7507650
820.3497, 0.2227820
820.8318, 3.3371001E-02
821.3139, 0.3543170
821.7960, 0.5948600
822.2781, 0.5992280
822.7603, 0.4626500
823.2424, 0.3853260
823.7245, 0.3608570
824.2066, 0.3512020
824.6887, 0.3541980
825.1708, 0.3498970
825.6530, 0.2868880
826.1351, 0.2020000
826.6172, 0.1778320
827.0993, 0.2851830
827.5814, 0.4004590
828.0635, 0.5236300
828.5457, 0.6294730
829.0278, 0.6739370
829.5099, 0.6600170
829.9920, 0.5374490
830.4741, 0.2353530
830.9562, 6.6106997E-02
831.4384, 4.7091000E-02
831.9205, 0.2045210
832.4026, 0.4672160
832.8847, 0.7017040
833.3668, 0.8722360
833.8489, 0.9705600
834.3311, 0.9905570
834.8132, 0.9049990
835.2953, 0.5830000
835.7774, 0.4288350
836.2595, 0.5536210
836.7416, 0.7728480
837.2238, 0.7659760
837.7059, 0.5706710
838.1880, 0.4297560
838.6701, 0.3879950
839.1522, 0.3735280
839.6343, 0.3631670
840.1165, 0.3584160
840.5986, 0.3594530
841.0807, 0.3422240
841.5628, 0.3728450
842.0449, 0.5183240
842.5270, 0.6801660
843.0092, 0.7581580
843.4913, 0.7406770
843.9734, 0.7057420
844.4555, 0.6617810
844.9376, 0.5956760
845.4197, 0.4463080
845.9019, 0.2723060
846.3840, 0.1870990
846.8661, 0.2088130
847.3482, 0.3373720
847.8303, 0.7397460
848.3124, 1.148058
848.7946, 1.301964
849.2767, 1.074944
849.7588, 0.8789180
850.2409, 0.7092300
850.7230, 0.5791230
851.2051, 0.5192930
851.6873, 0.5166550
852.1694, 0.4816950
852.6515, 0.4100040
853.1336, 0.3258230
853.6157, 0.2390000
854.0978, 0.1653000
854.5800, 0.1224250
855.0621, 0.1176720
855.5442, 0.1218070
856.0263, 6.2795997E-02
856.5084, 2.4723001E-02
856.9905, 6.1655000E-02
857.4727, 0.1735460
857.9548, 0.2860470
858.4369, 0.4058000
858.9190, 0.4578510
859.4011, 0.2792400
859.8832, 5.1901001E-02
860.3654, 0.1420900
860.8475, 0.5113700
861.3296, 0.7724110
861.8117, 0.6214960
862.2938, 0.4397770
862.7759, 0.4606760
863.2581, 0.6438050
863.7402, 0.6376970
864.2223, 0.3806000
864.7044, 0.1425090
865.1865, 4.3249000E-02
865.6686, 3.4672000E-02
866.1508, 1.5350000E-02
866.6329, 8.1615001E-02
867.1150, 5.7100002E-02
867.5971, 0.2576220
868.0792, 0.5418800
868.5613, 0.5389400
869.0435, 0.3480660
869.5256, 0.2925000
870.0077, 0.5195180
870.4898, 0.6536500
870.9719, 0.6023030
871.4540, 0.4447310
871.9362, 0.3220410
872.4183, 0.2411480
872.9004, 0.2779830
873.3825, 0.5255790
873.8646, 0.7506660
874.3467, 0.6644630
874.8289, 0.4256320
875.3110, 0.2748810
875.7931, 0.3452950
876.2752, 0.4246650
876.7573, 0.5029390
877.2394, 0.5722220
877.7216, 0.6278020
878.2037, 0.6587640
878.6858, 0.6852630
879.1679, 0.7135830
879.6500, 0.7153680
880.1321, 0.6611080
880.6143, 0.5602530
881.0964, 0.4085920
881.5785, 0.1827260
882.0606, 1.5327000E-02
882.5427, 2.8013000E-02
883.0248, 8.1369998E-03
883.5070, 3.8947999E-02
883.9891, 0.1218720
884.4712, 0.1759550
884.9533, 0.1947140
885.4354, 0.2146870
885.9175, 0.2592470
886.3997, 0.3272230
886.8818, 0.4295370
887.3639, 0.5619140
887.8460, 0.6712800
888.3281, 0.7660100
888.8102, 0.7946340
889.2924, 0.6626780
889.7745, 0.3932080
890.2566, 0.3236600
890.7387, 0.5164360
891.2208, 0.7291200
891.7029, 0.8999860
892.1851, 0.9972930
892.6672, 0.9017770
893.1493, 0.6479660
893.6314, 0.3870680
894.1135, 0.1712230
894.5956, 7.8619998E-03
895.0778, 0.2019350
895.5599, 0.3481160
896.0420, 0.2789080
896.5241, 0.1517770
897.0062, 0.4717480
897.4883, 0.6051160
897.9705, 0.6029320
898.4526, 0.4991550
898.9347, 0.3259090
899.4168, 0.2292880
899.8989, 0.2440170
900.3810, 0.3475820
900.8632, 0.6222930
901.3453, 0.9278050
901.8274, 1.110590
902.3095, 1.140272
902.7916, 0.9957240
903.2737, 0.5210800
903.7559, 0.1047940
904.2380, 0.1973040
904.7201, 0.7267880
905.2022, 0.9878690
905.6843, 0.9334050
906.1664, 0.7625980
906.6486, 0.5262070
907.1307, 0.3242380
907.6128, 0.2918970
908.0949, 0.4550420
908.5770, 0.4929710
909.0591, 0.2539390
909.5413, 3.6911000E-02
910.0234, 3.5448000E-02
910.5055, 1.8251000E-02
910.9876, 0.1249470
911.4697, 0.2773820
911.9518, 0.3360330
912.4340, 5.2832000E-02
912.9161, 0.2277490
913.3982, 4.3940999E-02
913.8803, 0.4333590
914.3624, 0.7264940
914.8445, 0.5055100
915.3267, 0.3420390
915.8088, 0.3687630
916.2909, 0.4811780
916.7730, 0.4568080
917.2551, 0.2991030
917.7372, 0.1700150
918.2194, 0.1002600
918.7015, 8.7733999E-02
919.1836, 0.1435570
919.6657, 0.2500400
920.1478, 0.4014530
920.6299, 0.7005120
921.1121, 0.8017100
921.5942, 0.5312900
922.0763, 0.1979350
922.5584, 5.0129000E-02
923.0405, 9.4549000E-02
923.5226, 0.1102330
924.0048, 8.6639002E-02
924.4869, 0.1096900
924.9690, 0.3535730
925.4511, 0.6250820
925.9332, 0.6720600
926.4153, 0.4923880
926.8975, 0.3644200
927.3796, 0.4350970
927.8617, 0.4902100
928.3438, 0.4439320
928.8259, 0.3297690
929.3080, 0.3432350
929.7902, 0.4815330
930.2723, 0.5892910
930.7544, 0.5512520
931.2365, 0.5028060
931.7186, 0.6463700
932.2007, 0.8916530
932.6829, 1.052727
933.1650, 1.126390
933.6471, 1.023535
934.1292, 0.6137520
934.6113, 0.1450500
935.0934, 5.3229998E-03
935.5756, 0.1583480
936.0577, 0.3300420
936.5398, 0.4724730
937.0219, 0.5746230
937.5040, 0.5749340
937.9861, 0.5531540
938.4683, 0.6236440
938.9504, 0.8388940
939.4325, 0.9563240
939.9146, 0.8717610
940.3967, 0.7631700
940.8788, 0.7196960
941.3610, 0.7377720
941.8431, 0.8064290
942.3252, 0.9214940
942.8073, 0.9478700
943.2894, 0.6728230
943.7715, 0.3737470
944.2537, 0.3650230
944.7358, 0.5609360
945.2179, 0.6265510
945.7000, 0.2804090
946.1821, 0.1106550
946.6642, 0.2908210
947.1464, 0.6258090
947.6285, 0.6995370
948.1106, 0.5438350
948.5927, 0.3745330
949.0748, 0.2202090
949.5569, 0.1504440
950.0391, 0.3465860
950.5212, 0.6023460
951.0033, 0.6722050
951.4854, 0.4214610
951.9675, 0.1810070
952.4496, 9.0553001E-02
952.9318, 0.2838730
953.4139, 0.2565060
953.8960, 4.0228002E-02
954.3781, 0.1197590
954.8602, 0.1942230
955.3423, 0.2518220
955.8245, 0.3253480
956.3066, 0.4063420
956.7887, 0.4612140
957.2708, 0.5074010
957.7529, 0.6841220
958.2350, 1.127644
958.7172, 1.375910
959.1993, 1.248236
959.6814, 0.9301660
960.1635, 0.8037590
960.6456, 0.8271160
961.1277, 0.8766770
961.6099, 0.9403270
962.0920, 0.9628520
962.5741, 0.8750020
963.0562, 0.7496760
963.5383, 0.6773400
964.0204, 0.7019080
964.5026, 0.6377700
964.9847, 0.4499760
965.4668, 0.2948040
965.9489, 0.3684480
966.4310, 0.5730440
966.9131, 0.6809940
967.3953, 0.6678850
967.8774, 0.6116730
968.3595, 0.5395450
968.8416, 0.4521310
969.3237, 0.3106670
969.8058, 0.1483730
970.2880, 0.1474340
970.7701, 0.3172990
971.2522, 0.4432870
971.7343, 0.4142890
972.2164, 0.3318670
972.6985, 0.3665030
973.1807, 0.4600030
973.6628, 0.4954090
974.1449, 0.3457410
974.6270, 0.2902810
975.1091, 0.4534000
975.5912, 0.6624360
976.0734, 0.7514670
976.5555, 0.7172760
977.0376, 0.7345120
977.5197, 0.8139650
978.0018, 0.8797110
978.4839, 0.7937770
978.9661, 0.7173840
979.4482, 0.9024370
979.9303, 1.333731
980.4124, 1.492086
980.8945, 1.167559
981.3766, 0.7740380
981.8588, 0.3524650
982.3409, 2.5839999E-03
982.8230, 0.1028610
983.3051, 0.5606060
983.7872, 0.7752670
984.2693, 0.3714940
984.7515, 1.8377000E-02
985.2336, 0.1000560
985.7157, 0.4709130
986.1978, 0.7745000
986.6799, 1.054937
987.1620, 1.062405
987.6442, 0.6949250
988.1263, 0.3446350
988.6084, 0.4622380
989.0905, 0.8542000
989.5726, 1.043425
990.0547, 1.020582
990.5369, 0.9617790
991.0190, 0.9642370
991.5011, 0.9499490
991.9832, 0.8420910
992.4653, 0.6795600
992.9474, 0.6074370
993.4296, 0.6453290
993.9117, 0.6970630
994.3938, 0.7409690
994.8759, 0.7751960
995.3580, 0.8189450
995.8401, 0.8439790
996.3223, 0.7918530
996.8044, 0.5533500
997.2865, 0.4573730
997.7686, 0.6713390
998.2507, 0.8895240
998.7328, 0.8332270
999.2150, 0.5223560
999.6971, 0.4330880
1000.179, 0.5640260
1000.661, 0.7156070
1001.143, 0.8360120
1001.626, 0.8490030
1002.108, 0.6091580
1002.590, 0.1879440
1003.072, 6.5361001E-02
1003.554, 8.4555000E-02
1004.036, 4.6494000E-02
1004.518, 2.0357000E-02
1005.000, 0.1204990
1005.482, 0.2799150
1005.965, 0.4781630
1006.447, 0.6685010
1006.929, 0.8559470
1007.411, 0.9686830
1007.893, 0.9229410
1008.375, 0.8274670
1008.857, 0.7639690
1009.339, 0.7349190
1009.822, 0.7198070
1010.304, 0.7155900
1010.786, 0.6295720
1011.268, 0.2749500
1011.750, 6.6744000E-02
1012.232, 4.3042999E-02
1012.714, 0.4441510
1013.196, 0.6889130
1013.678, 0.4054640
1014.161, 0.2882310
1014.643, 0.5193650
1015.125, 0.8566060
1015.607, 0.9181630
1016.089, 0.7533380
1016.571, 0.6816410
1017.053, 0.7585370
1017.535, 0.8264260
1018.018, 0.7762910
1018.500, 0.6603930
1018.982, 0.4828700
1019.464, 0.2442400
1019.946, 0.1350940
1020.428, 0.1704390
1020.910, 0.2949700
1021.392, 0.5646630
1021.874, 0.8221420
1022.357, 0.6908210
1022.839, 0.3084680
1023.321, 5.5010002E-03
1023.803, 0.1836800
1024.285, 0.2030910
1024.767, 8.1205003E-02
1025.249, 0.4090650
1025.731, 0.5060460
1026.214, 0.3694820
1026.696, 0.3459720
1027.178, 0.4539790
1027.660, 0.5817870
1028.142, 0.6878950
1028.624, 0.7401640
1029.106, 0.6536540
1029.588, 0.4600200
1030.070, 0.4317650
1030.553, 0.7323040
1031.035, 0.8171690
1031.517, 0.4606800
1031.999, 1.7492000E-02
1032.481, 1.0021000E-02
1032.963, 0.3327310
1033.445, 0.6507110
1033.927, 0.8895680
1034.410, 0.9788070
1034.892, 0.7252040
1035.374, 0.4450470
1035.856, 0.3770240
1036.338, 0.5274680
1036.820, 0.5476340
1037.302, 0.4345910
1037.784, 0.3253590
1038.266, 0.2630810
1038.749, 0.2787800
1039.231, 0.4203150
1039.713, 0.6640930
1040.195, 0.9614200
1040.677, 1.566866
1041.159, 1.710190
1041.641, 1.146904
1042.123, 0.4648880
1042.605, 0.5247230
1043.088, 1.033854
1043.570, 1.061659
1044.052, 0.5116350
1044.534, 2.0767000E-02
1045.016, 7.9498000E-02
1045.498, 1.4339000E-02
1045.980, 0.1617550
1046.462, 0.4015370
1046.945, 0.4968510
1047.427, 0.4456010
1047.909, 0.3147320
1048.391, 7.4322000E-02
1048.873, 0.1118180
1049.355, 8.9901000E-02
1049.837, 0.1051410
1050.319, 0.4521640
1050.802, 1.115488
1051.284, 1.516043
1051.766, 1.599747
1052.248, 1.522022
1052.730, 1.308968
1053.212, 1.032335
1053.694, 0.9794830
1054.176, 1.090952
1054.658, 1.090033
1055.141, 0.6846030
1055.623, 0.3237230
1056.105, 0.1598570
1056.587, 0.1384320
1057.069, 0.2226870
1057.551, 0.4176350
1058.033, 0.5197530
1058.515, 0.4928320
1058.997, 0.4767570
1059.480, 0.6968190
1059.962, 0.9068980
1060.444, 0.8512420
1060.926, 0.5084500
1061.408, 0.4077220
1061.890, 0.6856160
1062.372, 0.8819480
1062.854, 0.7941230
1063.337, 0.5982070
1063.819, 0.7083240
1064.301, 0.9596540
1064.783, 0.9521640
1065.265, 0.3853740
1065.747, 9.8379999E-03
1066.229, 0.2529030
1066.711, 0.5668510
1067.193, 0.5740170
1067.676, 0.2978190
1068.158, 0.2354600
1068.640, 0.3732110
1069.122, 0.5073110
1069.604, 0.5154250
1070.086, 0.4762940
1070.568, 0.3790440
1071.050, 0.2805750
1071.532, 0.3074090
1072.015, 0.5050810
1072.497, 0.6947250
1072.979, 0.8829840
1073.461, 0.9640330
1073.943, 0.6989020
1074.425, 0.3260190
1074.907, 0.2019500
1075.389, 0.3476300
1075.872, 0.4747520
1076.354, 0.4805770
1076.836, 0.5074210
1077.318, 0.6140750
1077.800, 0.7422140
1078.282, 0.7367950
1078.764, 0.6370180
1079.246, 0.5914920
1079.729, 0.6495610
1080.211, 0.7255650
1080.693, 0.8036900
1081.175, 0.8546280
1081.657, 0.8524040
1082.139, 0.8060800
1082.621, 0.6837840
1083.103, 0.4705520
1083.585, 0.3627280
1084.068, 0.5346090
1084.550, 0.7430500
1085.032, 0.7084900
1085.514, 0.5456140
1085.996, 0.4627690
1086.478, 0.5313850
1086.960, 0.5721720
1087.442, 0.5682300
1087.924, 0.5720840
1088.407, 0.6665310
1088.889, 0.7882690
1089.371, 0.8224090
1089.853, 0.7701870
1090.335, 0.6799620
1090.817, 0.5266480
1091.299, 0.3883970
1091.781, 0.2645440
1092.263, 0.1845230
1092.746, 0.2482620
1093.228, 0.4180770
1093.710, 0.4965480
1094.192, 0.3947470
1094.674, 0.2820850
1095.156, 0.2701530
1095.638, 0.3140180
1096.120, 0.3592210
1096.603, 0.4123920
1097.085, 0.5815390
1097.567, 0.8775690
1098.049, 0.9704650
1098.531, 0.6309910
1099.013, 0.2696250
1099.495, 0.4143940
1099.977, 0.7478830
1100.459, 0.8242890
1100.942, 0.3834840
1101.424, 0.3758030
1101.906, 0.9784110
1102.388, 1.437092
1102.870, 1.087259
1103.352, 0.3610940
1103.834, 6.6382997E-02
1104.316, 9.0851001E-02
1104.798, 0.1276760
1105.281, 2.7546000E-02
1105.763, 6.3100001E-03
1106.245, 5.1318999E-02
1106.727, 0.1759340
1107.209, 0.4146650
1107.691, 0.7127190
1108.173, 0.7795470
1108.655, 0.6141150
1109.138, 0.4365480
1109.620, 0.3517230
1110.102, 0.3053890
1110.584, 0.2925570
1111.066, 0.2901610
1111.548, 0.2404170
1112.030, 0.1442530
1112.512, 6.5499999E-02
1112.995, 6.8440000E-03
1113.477, 2.2477999E-02
1113.959, 0.2537020
1114.441, 0.5072520
1114.923, 0.6373670
1115.405, 0.6321450
1115.887, 0.4260770
1116.369, 5.4021999E-02
1116.851, 0.3074420
1117.333, 7.4242003E-02
1117.816, 0.2917670
1118.298, 0.3084620
1118.780, 0.1560960
1119.262, 9.5239997E-02
1119.744, 0.2065660
1120.226, 0.3466010
1120.708, 0.5484560
1121.190, 0.6820980
1121.673, 0.6534440
1122.155, 0.5132640
1122.637, 0.3194160
1123.119, 0.1167240
1123.601, 2.8945999E-02
1124.083, 0.2115590
1124.565, 0.3651560
1125.047, 0.4386180
1125.530, 0.4748000
1126.012, 0.5161650
1126.494, 0.5564630
1126.976, 0.5550330
1127.458, 0.5146010
1127.940, 0.4687390
1128.422, 0.4431570
1128.904, 0.4075110
1129.386, 0.3041840
1129.869, 0.2080460
1130.351, 0.2793790
1130.833, 0.5123140
1131.315, 0.5778520
1131.797, 0.4271410
1132.279, 0.3022080
1132.761, 0.4827670
1133.243, 0.6832470
1133.725, 0.6617370
1134.208, 0.4634460
1134.690, 0.3330540
1135.172, 0.2684400
1135.654, 0.3519170
1136.136, 0.6662940
1136.618, 0.9505230
1137.100, 0.8714050
1137.582, 0.6345500
1138.065, 0.4395050
1138.547, 0.3144050
1139.029, 0.3066790
1139.511, 0.4888780
1139.993, 0.5294190
1140.475, 0.2042790
1140.957, 0.1688710
1141.439, 2.3571000E-02
1141.922, 0.4917070
1142.404, 0.7176720
1142.886, 0.4199490
1143.368, 0.3174170
1143.850, 0.5773770
1144.332, 0.7839030
1144.814, 0.5996880
1145.296, 0.2179110
1145.778, 0.1481190
1146.260, 0.3099880
1146.743, 0.4669090
1147.225, 0.5311030
1147.707, 0.5676750
1148.189, 0.5749780
1148.671, 0.5802960
1149.153, 0.6717820
1149.635, 0.7900240
1150.117, 0.5305190
1150.600, 4.2716999E-02
1151.082, 0.4314590
1151.564, 0.1891210
1152.046, 4.9681000E-02
1152.528, 8.0990000E-03
1153.010, 0.1185050
1153.492, 2.9554000E-02
1153.974, 0.2451340
1154.457, 0.3217050
1154.939, 0.1701550
1155.421, 8.5818999E-02
1155.903, 0.4091640
1156.385, 0.7241120
1156.867, 0.7256720
1157.349, 0.5510500
1157.831, 0.5193020
1158.313, 0.6334610
1158.796, 0.6473450
1159.278, 0.5092300
1159.760, 0.3555410
1160.242, 0.2852690
1160.724, 0.2607610
1161.206, 0.2604270
1161.688, 0.2803130
1162.170, 0.3062000
1162.652, 0.3368910
1163.135, 0.4056780
1163.617, 0.5458660
1164.099, 0.6457100
1164.581, 0.5075280
1165.063, 0.3187980
1165.545, 0.3104590
1166.027, 0.5284080
1166.509, 0.6249540
1166.992, 0.5669360
1167.474, 0.4757330
1167.956, 0.4199910
1168.438, 0.4100610
1168.920, 0.5369130
1169.402, 0.6767040
1169.884, 0.6440510
1170.366, 0.2755070
1170.849, 0.2174760
1171.331, 0.5841830
1171.813, 0.8524340
1172.295, 0.5959450
1172.777, 0.1910190
1173.259, 0.3672710
1173.741, 0.8362790
1174.223, 1.016796
1174.705, 0.4444690
1175.188, 0.1253240
1175.670, 0.1085590
1176.152, 0.1981030
1176.634, 0.2727870
1177.116, 0.3405650
1177.598, 0.4366550
1178.080, 0.5426350
1178.562, 0.6042330
1179.044, 0.5375310
1179.527, 0.5317120
1180.009, 0.6250110
1180.491, 0.7326760
1180.973, 0.7845190
1181.455, 0.7863270
1181.937, 0.6957070
1182.419, 0.5509640
1182.901, 0.5331520
1183.384, 1.002367
1183.866, 1.156181
1184.348, 0.7311360
1184.830, 0.1937790
1185.312, 0.2105410
1185.794, 0.5627310
1186.276, 0.6561370
1186.758, 0.4691540
1187.240, 0.2935850
1187.723, 9.8242000E-02
1188.205, 0.1849500
1188.687, 0.7885720
1189.169, 1.470705
1189.651, 1.408403
1190.133, 0.8331740
1190.615, 0.4609180
1191.097, 0.3850310
1191.579, 0.3271260
1192.062, 2.4969000E-02
1192.544, 8.2925998E-02
1193.026, 0.2477650
1193.508, 0.7461830
1193.990, 0.7416420
1194.472, 0.3925900
1194.954, 0.3086150
1195.436, 0.6428410
1195.919, 0.8324110
1196.401, 0.3451230
1196.883, 5.8499998E-03
1197.365, 0.1942040
1197.847, 0.7058960
1198.329, 0.8370090
1198.811, 0.6515160
1199.293, 0.4429630
1199.776, 0.2426150
1200.258, 0.1285840
1200.740, 0.1972640
1201.222, 0.3023990
1201.704, 0.3744300
1202.186, 0.4224760
1202.668, 0.4971490
1203.150, 0.5809480
1203.632, 0.5948700
1204.115, 0.4812720
1204.597, 0.3904650
1205.079, 0.4271390
1205.561, 0.4725700
1206.043, 0.4270900
1206.525, 0.3318420
1207.007, 0.4334890
1207.489, 0.6837160
1207.971, 0.8749010
1208.454, 0.9434490
1208.936, 0.8694550
1209.418, 0.5484120
1209.900, 0.2570170
1210.382, 0.1958600
1210.864, 0.3102360
1211.346, 0.2488190
1211.828, 5.9650000E-02
1212.311, 5.9380000E-03
1212.793, 0.3007470
1213.275, 0.5424880
1213.757, 0.4855710
1214.239, 0.3875640
1214.721, 0.4282460
1215.203, 0.5867980
1215.685, 0.5721420
1216.167, 0.4199620
1216.650, 0.3203910
1217.132, 0.4820460
1217.614, 0.5577550
1218.096, 0.3368610
1218.578, 9.5353998E-02
1219.060, 9.0456001E-02
1219.542, 0.2879010
1220.024, 0.5129110
1220.506, 0.7338180
1220.989, 0.8023190
1221.471, 0.4162030
1221.953, 0.1814940
1222.435, 0.4282840
1222.917, 0.7143590
1223.399, 0.4331950
1223.881, 0.2385120
1224.363, 0.3501760
1224.846, 3.3491001E-02
1225.328, 0.3280700
1225.810, 6.5638997E-02
1226.292, 6.8588004E-02
1226.774, 0.1515750
1227.256, 0.4767040
1227.738, 0.6458780
1228.220, 0.6703740
1228.703, 0.5414280
1229.185, 0.2884330
1229.667, 0.1036660
1230.149, 6.6113003E-02
1230.631, 0.1341020
1231.113, 0.3322350
1231.595, 0.5684050
1232.077, 0.7708400
1232.559, 0.9055420
1233.042, 0.7968670
1233.524, 0.4730990
1234.006, 0.2474140
1234.488, 0.3141840
1234.970, 0.4199830
1235.452, 0.5518380
1235.934, 0.6374260
1236.416, 0.5304550
1236.898, 0.3181230
1237.381, 0.1815510
1237.863, 0.1361200
1238.345, 0.1551400
1238.827, 0.2878860
1239.309, 0.3938100
1239.791, 0.4319840
1240.273, 0.4771420
1240.755, 0.7392160
1241.238, 1.034779
1241.720, 0.9292830
1242.202, 0.4330880
1242.684, 0.1497970
1243.166, 0.2959840
1243.648, 0.4591220
1244.130, 0.5904900
1244.612, 0.6387940
1245.094, 0.4162390
1245.577, 0.1339470
1246.059, 0.1672130
1246.541, 0.5185780
1247.023, 0.6895540
1247.505, 0.5705800
1247.987, 0.4858320
1248.469, 0.5119040
1248.951, 0.5508080
1249.433, 0.4773450
1249.916, 0.3737890
1250.398, 0.3469520
1250.880, 0.4024310
1251.362, 0.4876860
1251.844, 0.6131940
1252.326, 0.6927340
1252.808, 0.7084290
1253.290, 0.6654890
1253.773, 0.5208300
1254.255, 0.3565270
1254.737, 0.2227520
1255.219, 0.1411860
1255.701, 0.2375680
1256.183, 0.5480790
1256.665, 0.6890640
1257.147, 0.5374580
1257.630, 0.4001830
1258.112, 0.6669180
1258.594, 0.9810870
1259.076, 1.006401
1259.558, 0.8097400
1260.040, 0.7133050
1260.522, 0.7165090
1261.004, 0.7242790
1261.486, 0.7262740
1261.969, 0.6565210
1262.451, 0.2789210
1262.933, 6.1610001E-03
1263.415, 0.1943360
1263.897, 0.6729930
1264.379, 0.8541090
1264.861, 0.7816120
1265.343, 0.7247240
1265.825, 0.6897950
1266.308, 0.6324080
1266.790, 0.4094300
1267.272, 0.2613160
1267.754, 0.3307300
1268.236, 0.5271360
1268.718, 0.6240480
1269.200, 0.6365180
1269.682, 0.6273020
1270.165, 0.6152990
1270.647, 0.5153640
1271.129, 3.5232998E-02
1271.611, 0.1814940
1272.093, 0.1823020
1272.575, 0.7782040
1273.057, 0.9315130
1273.539, 0.7720620
1274.021, 0.5206600
1274.504, 0.1899680
1274.986, 0.1309220
1275.468, 0.6058600
1275.950, 0.8933850
1276.432, 0.7284830
1276.914, 0.3838730
1277.396, 0.2231270
1277.878, 0.1942420
1278.360, 0.2653310
1278.843, 0.4368820
1279.325, 0.4085460
1279.807, 7.8971997E-02
1280.289, 0.1050640
1280.771, 3.5880001E-03
1281.253, 0.2362080
1281.735, 0.5552180
1282.217, 0.8379760
1282.700, 0.9264560
1283.182, 0.8260650
1283.664, 0.7868940
1284.146, 0.8013920
1284.628, 0.9172690
1285.110, 1.168327
1285.592, 1.368994
1286.074, 1.363342
1286.557, 1.235001
1287.039, 1.015314
1287.521, 0.7330530
1288.003, 0.4031850
1288.485, 9.7350003E-03
1288.967, 2.3829000E-02
1289.449, 0.3779180
1289.931, 0.7049750
1290.413, 0.5698390
1290.896, 0.3521270
1291.378, 0.2016220
1291.860, 0.1397460
1292.342, 0.2656730
1292.824, 0.4802680
1293.306, 0.6997010
1293.788, 0.8522300
1294.270, 0.8921380
1294.752, 0.6987530
1295.235, 0.5173870
1295.717, 0.4081950
1296.199, 0.3511330
1296.681, 0.2385880
1297.163, 0.1720810
1297.645, 0.4900320
1298.127, 1.208605
1298.609, 1.517900
1299.092, 1.197445
1299.574, 0.8906520
1300.056, 0.7418900
1300.538, 0.6717220
1301.020, 0.6496750
1301.502, 0.6076930
1301.984, 0.4071710
1302.466, 7.8648001E-02
1302.948, 7.3279999E-03
1303.431, 0.1895330
1303.913, 0.1389330
1304.395, 0.0000000E+00
##END=



