##NAMES=Cuprite
##RRUFFID=R050384
##IDEAL CHEMISTRY=Cu^1+^_2_O
##LOCALITY=Lavender Pit, Bisbee, Warren District, Cochise County, Arizona, USA
##OWNER=RRUFF
##SOURCE=University of Arizona Mineral Museum
##DESCRIPTION=Deep red to nearly black cubes
##STATUS=The identification of this mineral has been confirmed by X-ray diffraction and chemical analysis
##URL=rruff.info/R050384
##MEASURED CHEMISTRY=Cu_2.00_O
120.7984, 0.0000000E+00
121.2805, 6.9885001E-02
121.7626, 0.3615570
122.2448, 1.305664
122.7269, 1.856506
123.2090, 1.390747
123.6911, 0.6817020
124.1732, 0.6204830
124.6553, 1.238525
125.1375, 0.5762330
125.6196, 4.162811
126.1017, 7.540009
126.5838, 9.036499
127.0659, 9.575684
127.5480, 11.00983
128.0302, 13.92551
128.5123, 17.13943
128.9944, 18.29782
129.4765, 17.69263
129.9586, 18.14166
130.4407, 22.69562
130.9229, 30.30182
131.4050, 36.64813
131.8871, 40.37628
132.3692, 42.63971
132.8513, 45.78778
133.3334, 49.29370
133.8156, 51.71011
134.2977, 52.97177
134.7798, 54.33157
135.2619, 56.39163
135.7440, 59.54724
136.2261, 63.45624
136.7083, 66.86783
137.1904, 69.74277
137.6725, 72.36252
138.1546, 75.27972
138.6367, 78.74695
139.1188, 81.27295
139.6010, 82.36154
140.0831, 82.01300
140.5652, 81.65363
141.0473, 81.24133
141.5294, 80.87543
142.0115, 80.62875
142.4937, 80.38629
142.9758, 80.51318
143.4579, 81.24454
143.9400, 82.77759
144.4221, 83.84689
144.9042, 84.34604
145.3864, 84.43518
145.8685, 84.34692
146.3506, 83.97324
146.8327, 83.56149
147.3148, 83.24567
147.7969, 83.29758
148.2791, 82.82544
148.7612, 81.65521
149.2433, 79.99408
149.7254, 78.29849
150.2075, 77.17175
150.6896, 75.49271
151.1718, 72.77090
151.6539, 67.12494
152.1360, 63.18637
152.6181, 62.08578
153.1002, 62.90414
153.5823, 62.89743
154.0645, 60.98834
154.5466, 58.86221
155.0287, 57.31012
155.5108, 57.15897
155.9929, 56.65903
156.4750, 55.22656
156.9572, 53.12573
157.4393, 51.46487
157.9214, 50.93417
158.4035, 50.62231
158.8856, 49.96133
159.3677, 48.29123
159.8499, 46.79785
160.3320, 46.05756
160.8141, 45.91745
161.2962, 45.42450
161.7783, 43.75302
162.2604, 41.82248
162.7426, 40.39191
163.2247, 39.90033
163.7068, 39.76663
164.1889, 39.80258
164.6710, 39.99460
165.1531, 40.27533
165.6353, 40.52240
166.1174, 40.86453
166.5995, 41.44177
167.0816, 42.42273
167.5637, 43.55652
168.0458, 44.62570
168.5280, 45.61212
169.0101, 46.82294
169.4922, 48.46310
169.9743, 50.42670
170.4564, 52.55908
170.9385, 54.94412
171.4207, 57.38232
171.9028, 59.69095
172.3849, 61.84653
172.8670, 63.98309
173.3491, 65.88855
173.8312, 67.86969
174.3134, 70.52878
174.7955, 74.91763
175.2776, 79.76184
175.7597, 83.38925
176.2418, 85.64328
176.7239, 87.57254
177.2061, 90.23953
177.6882, 93.44165
178.1703, 96.56393
178.6524, 99.03671
179.1345, 101.2579
179.6166, 102.8851
180.0988, 103.7892
180.5809, 104.6835
181.0630, 106.5174
181.5451, 109.1116
182.0272, 111.6505
182.5093, 113.4767
182.9915, 114.9963
183.4736, 117.2204
183.9557, 120.3815
184.4378, 123.7198
184.9199, 125.9153
185.4020, 127.1445
185.8842, 129.0391
186.3663, 132.2469
186.8484, 136.7970
187.3305, 143.4910
187.8126, 153.4109
188.2947, 163.0013
188.7769, 165.6151
189.2590, 161.5623
189.7411, 157.1910
190.2232, 156.6253
190.7053, 159.1727
191.1874, 160.1738
191.6696, 158.9303
192.1517, 156.6581
192.6338, 155.1954
193.1159, 154.5193
193.5980, 155.1795
194.0801, 157.9771
194.5623, 162.7405
195.0444, 167.2924
195.5265, 171.3143
196.0086, 175.1540
196.4907, 179.5476
196.9728, 184.5319
197.4550, 189.7980
197.9371, 195.3215
198.4192, 201.1175
198.9013, 206.7184
199.3834, 212.3972
199.8655, 217.5541
200.3477, 220.5917
200.8298, 221.2304
201.3119, 220.8102
201.7940, 219.5560
202.2761, 217.2484
202.7582, 216.8900
203.2404, 219.2441
203.7225, 223.3409
204.2046, 226.3492
204.6867, 227.8992
205.1688, 229.6412
205.6509, 232.5821
206.1331, 236.8486
206.6152, 241.7025
207.0973, 247.1630
207.5794, 253.0316
208.0615, 258.7087
208.5436, 263.9689
209.0258, 269.6476
209.5079, 276.3428
209.9900, 284.2439
210.4721, 292.3361
210.9542, 300.9231
211.4363, 309.5728
211.9185, 316.5554
212.4006, 321.3366
212.8827, 325.4897
213.3648, 329.7966
213.8469, 334.2693
214.3290, 339.0884
214.8112, 344.4796
215.2933, 350.0923
215.7754, 355.1473
216.2575, 360.0292
216.7396, 363.7646
217.2217, 365.7428
217.7038, 365.8780
218.1860, 364.4905
218.6681, 361.8404
219.1502, 357.6821
219.6323, 351.2170
220.1144, 342.9503
220.5965, 331.6662
221.0787, 316.2540
221.5608, 295.1542
222.0429, 274.1784
222.5250, 253.5060
223.0071, 233.2590
223.4892, 214.6789
223.9714, 197.7843
224.4535, 182.2807
224.9356, 167.8060
225.4177, 154.4001
225.8998, 142.1134
226.3819, 130.9000
226.8641, 120.7621
227.3462, 112.1846
227.8283, 105.6866
228.3104, 99.95004
228.7925, 94.41537
229.2746, 89.00635
229.7568, 83.75360
230.2389, 78.37936
230.7210, 73.15051
231.2031, 69.17322
231.6852, 67.03970
232.1673, 65.27710
232.6495, 63.21588
233.1316, 60.77081
233.6137, 58.18689
234.0958, 55.30533
234.5779, 52.35007
235.0600, 50.12161
235.5422, 49.39105
236.0243, 48.23965
236.5064, 45.54489
236.9885, 39.70340
237.4706, 36.00616
237.9527, 35.58768
238.4349, 37.05399
238.9170, 36.86621
239.3991, 34.07559
239.8812, 31.04642
240.3633, 28.77692
240.8454, 27.61661
241.3276, 26.37314
241.8097, 25.14691
242.2918, 23.81503
242.7739, 22.03909
243.2560, 19.36343
243.7381, 16.95331
244.2203, 15.34399
244.7024, 14.97070
245.1845, 14.16815
245.6666, 12.80429
246.1487, 11.07779
246.6308, 9.274811
247.1130, 7.114014
247.5951, 5.335175
248.0772, 4.305267
248.5593, 4.291473
249.0414, 3.976044
249.5235, 3.033600
250.0057, 1.991577
250.4878, 1.819427
250.9699, 3.167664
251.4520, 4.220581
251.9341, 4.322937
252.4162, 3.263123
252.8984, 2.290680
253.3805, 1.358673
253.8626, 0.5445860
254.3447, 1.1902000E-02
254.8268, 0.1031190
255.3089, 0.2303470
255.7911, 0.4748540
256.2732, 0.8386230
256.7553, 1.326447
257.2374, 2.065887
257.7195, 2.804108
258.2017, 3.198059
258.6838, 3.084381
259.1659, 3.002106
259.6480, 3.086456
260.1301, 3.343109
260.6122, 3.606171
261.0944, 3.883850
261.5765, 4.156616
262.0586, 4.390564
262.5407, 4.548584
263.0228, 4.782166
263.5049, 5.230774
263.9871, 5.868164
264.4692, 5.947479
264.9513, 5.313782
265.4334, 4.373169
265.9155, 3.413666
266.3976, 2.382568
266.8798, 1.574280
267.3619, 1.038055
267.8440, 0.7651370
268.3261, 0.8583070
268.8082, 1.509247
269.2903, 2.146729
269.7725, 2.274231
270.2546, 1.783173
270.7367, 1.276093
271.2188, 0.9165950
271.7009, 0.6149290
272.1830, 0.1563110
272.6652, 1.622253
273.1473, 2.935516
273.6294, 3.381897
274.1115, 2.761780
274.5936, 2.505432
275.0757, 2.836334
275.5579, 3.564331
276.0400, 4.186523
276.5221, 4.721680
277.0042, 5.054138
277.4863, 4.946289
277.9684, 4.328156
278.4506, 4.217651
278.9327, 4.784180
279.4148, 5.766632
279.8969, 6.743622
280.3790, 7.774048
280.8611, 8.449554
281.3433, 8.189728
281.8254, 7.014709
282.3075, 7.174072
282.7896, 9.117188
283.2717, 11.49115
283.7538, 11.91934
284.2360, 10.34305
284.7181, 8.833649
285.2002, 8.252594
285.6823, 8.644592
286.1644, 9.654327
286.6465, 11.26767
287.1287, 13.06778
287.6108, 14.67480
288.0929, 16.09045
288.5750, 17.01883
289.0571, 17.19125
289.5392, 16.79761
290.0214, 16.44547
290.5035, 16.15121
290.9856, 16.12256
291.4677, 16.90903
291.9498, 18.36664
292.4319, 19.27625
292.9141, 18.97711
293.3962, 18.05661
293.8783, 17.95334
294.3604, 18.69244
294.8425, 19.69421
295.3246, 20.79706
295.8068, 21.84155
296.2889, 22.15942
296.7710, 21.33102
297.2531, 20.00656
297.7352, 19.17935
298.2173, 18.83377
298.6995, 18.80316
299.1816, 19.02759
299.6637, 19.47824
300.1458, 20.17380
300.6279, 21.28827
301.1100, 22.24670
301.5922, 21.84467
302.0743, 20.52927
302.5564, 20.07315
303.0385, 22.59970
303.5206, 26.27017
304.0027, 28.50327
304.4849, 28.84915
304.9670, 28.12872
305.4491, 26.58765
305.9312, 24.53119
306.4133, 22.69604
306.8954, 21.10587
307.3776, 20.09351
307.8597, 20.21585
308.3418, 21.60089
308.8239, 23.23575
309.3060, 25.12308
309.7881, 26.67181
310.2703, 26.87561
310.7524, 23.79614
311.2345, 20.39282
311.7166, 18.65216
312.1987, 18.58981
312.6808, 19.57605
313.1630, 22.77515
313.6451, 26.26520
314.1272, 27.99503
314.6093, 25.59534
315.0914, 22.81723
315.5735, 21.54523
316.0557, 21.54404
316.5378, 21.52081
317.0199, 20.60559
317.5020, 19.63284
317.9841, 19.27997
318.4662, 20.40350
318.9484, 21.09653
319.4305, 20.44739
319.9126, 18.86960
320.3947, 17.44595
320.8768, 16.27466
321.3589, 15.48221
321.8411, 15.18002
322.3232, 15.58868
322.8053, 16.14859
323.2874, 17.38776
323.7695, 18.61664
324.2516, 18.74554
324.7338, 15.88528
325.2159, 13.43887
325.6980, 12.83545
326.1801, 14.80655
326.6622, 15.42166
327.1443, 12.85123
327.6265, 9.523682
328.1086, 7.897217
328.5907, 9.970093
329.0728, 11.55087
329.5549, 11.87408
330.0370, 10.95917
330.5192, 10.24045
331.0013, 9.964233
331.4834, 9.595276
331.9655, 8.717377
332.4476, 6.863129
332.9297, 5.338684
333.4119, 4.252350
333.8940, 3.579041
334.3761, 3.284668
334.8582, 3.460327
335.3403, 3.822174
335.8224, 4.309570
336.3046, 5.173828
336.7867, 5.429382
337.2688, 4.905426
337.7509, 3.879425
338.2330, 2.838348
338.7151, 1.670197
339.1973, 0.8366390
339.6794, 0.5202030
340.1615, 0.7346500
340.6436, 1.523651
341.1257, 3.253143
341.6078, 4.737640
342.0899, 3.965515
342.5721, 0.7221070
343.0542, 1.761353
343.5363, 2.329559
344.0184, 1.379211
344.5005, 0.5490720
344.9826, 0.1433410
345.4648, 0.7408450
345.9469, 1.409424
346.4290, 2.089935
346.9111, 2.074768
347.3932, 0.8995060
347.8753, 0.5960690
348.3575, 0.5555730
348.8396, 0.8845520
349.3217, 2.302643
349.8038, 2.295776
350.2859, 1.548767
350.7680, 2.037506
351.2502, 4.319916
351.7323, 6.565033
352.2144, 6.306030
352.6965, 4.203003
353.1786, 2.238525
353.6607, 1.383850
354.1429, 1.238800
354.6250, 1.527649
355.1071, 2.262817
355.5892, 2.799591
356.0713, 2.517670
356.5534, 1.753998
357.0356, 0.9947200
357.5177, 4.6417002E-02
357.9998, 0.5149840
358.4819, 2.2491001E-02
358.9640, 1.353577
359.4461, 2.637207
359.9283, 3.283936
360.4104, 3.632233
360.8925, 3.978760
361.3746, 4.510681
361.8567, 4.824005
362.3388, 4.725433
362.8210, 4.275787
363.3031, 3.635864
363.7852, 2.100220
364.2673, 0.9841920
364.7494, 1.142334
365.2315, 3.156677
365.7137, 4.619385
366.1958, 4.286713
366.6779, 3.407135
367.1600, 3.453094
367.6421, 5.976074
368.1242, 8.003540
368.6064, 8.763641
369.0885, 8.184906
369.5706, 7.732605
370.0527, 7.476959
370.5348, 7.304932
371.0169, 7.137146
371.4991, 6.846649
371.9812, 6.764008
372.4633, 6.829712
372.9454, 7.132141
373.4275, 8.067474
373.9096, 10.21057
374.3918, 12.02600
374.8739, 12.60629
375.3560, 11.56677
375.8381, 11.22409
376.3202, 11.95129
376.8023, 12.88086
377.2845, 12.34189
377.7666, 9.912933
378.2487, 8.321594
378.7308, 8.723969
379.2129, 10.80005
379.6950, 12.32318
380.1772, 13.25983
380.6593, 13.91614
381.1414, 14.50836
381.6235, 15.04419
382.1056, 15.71265
382.5877, 16.53540
383.0699, 17.50085
383.5520, 18.80164
384.0341, 20.40698
384.5162, 21.64471
384.9983, 22.01349
385.4804, 21.71454
385.9626, 21.01447
386.4447, 19.81885
386.9268, 19.00110
387.4089, 19.75409
387.8910, 21.57385
388.3731, 23.31012
388.8553, 24.22943
389.3374, 24.97516
389.8195, 26.25726
390.3016, 28.01190
390.7837, 29.55231
391.2658, 30.58545
391.7480, 31.09924
392.2301, 30.98938
392.7122, 29.38623
393.1943, 28.33160
393.6764, 29.52557
394.1585, 32.16956
394.6407, 33.88354
395.1228, 32.96222
395.6049, 31.58490
396.0870, 30.79761
396.5691, 30.85022
397.0512, 31.15503
397.5334, 31.28918
398.0155, 31.77014
398.4976, 33.20789
398.9797, 37.59174
399.4618, 40.86835
399.9439, 41.86572
400.4261, 40.53888
400.9082, 39.47076
401.3903, 38.71240
401.8724, 38.45215
402.3545, 38.79163
402.8366, 39.92816
403.3188, 41.16418
403.8009, 42.51172
404.2830, 43.88867
404.7651, 45.16052
405.2472, 46.40277
405.7293, 47.13306
406.2115, 47.13574
406.6936, 46.44684
407.1757, 45.87457
407.6578, 45.34753
408.1399, 45.02795
408.6220, 45.23621
409.1042, 45.97705
409.5863, 46.78455
410.0684, 47.70905
410.5505, 48.44995
411.0326, 48.11243
411.5147, 46.74500
411.9969, 45.48523
412.4790, 45.38361
412.9611, 45.98956
413.4432, 46.12329
413.9253, 45.54077
414.4074, 44.83563
414.8896, 44.83575
415.3717, 45.21527
415.8538, 45.20490
416.3359, 44.10858
416.8180, 42.77020
417.3001, 42.26727
417.7823, 42.55463
418.2644, 42.05194
418.7465, 38.77765
419.2286, 34.76703
419.7107, 32.04559
420.1928, 31.88300
420.6750, 32.02563
421.1571, 31.38745
421.6392, 30.37231
422.1213, 30.04663
422.6034, 32.44543
423.0855, 34.12244
423.5677, 33.18073
424.0498, 28.31287
424.5319, 25.02539
425.0140, 25.39746
425.4961, 26.77332
425.9782, 26.41010
426.4604, 22.57947
426.9425, 19.53882
427.4246, 17.96838
427.9067, 17.72485
428.3888, 17.94720
428.8709, 19.08307
429.3531, 19.89697
429.8352, 19.46271
430.3173, 17.34515
430.7994, 16.38153
431.2815, 17.18042
431.7636, 18.28497
432.2458, 16.76593
432.7279, 12.40826
433.2100, 8.965332
433.6921, 8.094482
434.1742, 9.099304
434.6563, 9.556458
435.1385, 9.484314
435.6206, 9.052490
436.1027, 8.210510
436.5848, 7.122192
437.0669, 6.230469
437.5490, 5.661743
438.0312, 5.193604
438.5133, 4.464661
438.9954, 3.637939
439.4775, 3.129089
439.9596, 3.813232
440.4417, 4.519958
440.9239, 3.860718
441.4060, 1.758179
441.8881, 7.0923001E-02
442.3702, 0.3985600
442.8523, 1.418091
443.3344, 1.864868
443.8166, 0.8996580
444.2987, 0.1046750
444.7808, 0.8074950
445.2629, 1.249329
445.7450, 1.534302
446.2271, 2.167725
446.7093, 2.253113
447.1914, 1.137146
447.6735, 1.984375
448.1556, 3.651306
448.6377, 2.919434
449.1198, 1.329834
449.6020, 0.4585570
450.0841, 0.7893680
450.5662, 0.8219600
451.0483, 0.1635130
451.5304, 0.9591670
452.0125, 1.588257
452.4947, 1.753845
452.9768, 1.301880
453.4589, 0.2958370
453.9410, 3.104004
454.4231, 4.473572
454.9052, 4.155579
455.3874, 3.106384
455.8695, 2.421753
456.3516, 2.078857
456.8337, 1.892029
457.3158, 1.791443
457.7979, 1.815063
458.2801, 2.306335
458.7622, 3.151672
459.2443, 3.561829
459.7264, 2.450500
460.2085, 0.7994380
460.6906, 9.4788000E-02
461.1728, 2.4658000E-02
461.6549, 0.5877080
462.1370, 1.604736
462.6191, 2.707458
463.1012, 3.306824
463.5833, 2.468201
464.0655, 1.768433
464.5476, 2.201111
465.0297, 3.577271
465.5118, 4.359741
465.9939, 3.134094
466.4760, 1.903931
466.9582, 1.857666
467.4403, 4.347107
467.9224, 5.739380
468.4045, 5.088196
468.8866, 3.666992
469.3687, 3.385742
469.8509, 5.084839
470.3330, 6.441406
470.8151, 6.724976
471.2972, 5.984741
471.7793, 5.881592
472.2614, 6.686707
472.7436, 7.692810
473.2257, 8.502258
473.7078, 9.132690
474.1899, 9.321655
474.6720, 8.748291
475.1541, 8.103943
475.6363, 9.339478
476.1184, 12.06366
476.6005, 13.68146
477.0826, 12.41382
477.5647, 9.836548
478.0468, 8.457153
478.5290, 8.213989
479.0111, 8.530090
479.4932, 9.674622
479.9753, 10.85565
480.4574, 10.87347
480.9395, 9.029541
481.4217, 7.669800
481.9038, 8.729065
482.3859, 11.07385
482.8680, 13.07446
483.3501, 14.02826
483.8322, 14.50629
484.3144, 14.77911
484.7965, 14.83435
485.2786, 14.51672
485.7607, 12.94470
486.2428, 11.64185
486.7249, 11.46454
487.2071, 13.31903
487.6892, 14.36560
488.1713, 14.58392
488.6534, 14.01495
489.1355, 12.41223
489.6176, 9.010864
490.0998, 7.027832
490.5819, 7.862000
491.0640, 10.68884
491.5461, 10.95496
492.0282, 8.370361
492.5103, 5.556335
492.9925, 4.397705
493.4746, 4.611572
493.9567, 4.602112
494.4388, 4.155273
494.9209, 4.007019
495.4030, 5.759033
495.8852, 8.502014
496.3673, 9.968201
496.8494, 8.412659
497.3315, 6.006470
497.8136, 4.486877
498.2957, 3.812439
498.7779, 3.851196
499.2600, 5.003113
499.7421, 6.508911
500.2242, 8.003906
500.7063, 9.616272
501.1884, 10.61334
501.6706, 10.21118
502.1527, 9.365784
502.6348, 9.003296
503.1169, 9.875549
503.5990, 10.36316
504.0811, 10.53033
504.5633, 10.24664
505.0454, 8.745422
505.5275, 4.885071
506.0096, 1.763977
506.4917, 0.9081420
506.9738, 2.591614
507.4560, 3.284973
507.9381, 2.610779
508.4202, 1.865173
508.9023, 2.735291
509.3844, 5.070801
509.8665, 6.457031
510.3487, 6.359375
510.8308, 5.665283
511.3129, 5.565002
511.7950, 5.772339
512.2772, 5.844055
512.7593, 5.894897
513.2414, 5.747925
513.7235, 4.834167
514.2056, 3.219910
514.6877, 2.269287
515.1699, 3.268372
515.6520, 5.020325
516.1341, 6.514587
516.6162, 7.706299
517.0983, 8.306824
517.5804, 7.778748
518.0626, 6.697266
518.5447, 5.993896
519.0268, 5.956970
519.5089, 6.206116
519.9910, 6.934570
520.4731, 8.052551
520.9553, 8.057373
521.4374, 5.979004
521.9195, 4.194641
522.4016, 4.332520
522.8837, 6.964355
523.3658, 8.524963
523.8480, 8.862183
524.3301, 8.394775
524.8122, 7.507507
525.2943, 6.237122
525.7764, 4.955750
526.2585, 3.786438
526.7407, 2.638855
527.2228, 1.050049
527.7049, 0.7993770
528.1870, 1.953491
528.6691, 1.313110
529.1512, 9.3810998E-02
529.6334, 1.221802
530.1155, 2.007813
530.5976, 2.189880
531.0797, 0.6103520
531.5618, 1.166443
532.0439, 1.509888
532.5261, 1.495911
533.0082, 3.782715
533.4903, 3.721619
533.9724, 2.298584
534.4545, 1.669800
534.9366, 2.833984
535.4188, 3.882507
535.9009, 4.325745
536.3830, 4.186584
536.8651, 4.298889
537.3472, 4.924255
537.8293, 5.334045
538.3115, 4.964478
538.7936, 3.771362
539.2757, 2.444214
539.7578, 0.8775020
540.2399, 0.4023440
540.7220, 0.4251710
541.2042, 0.5798950
541.6863, 1.333313
542.1684, 1.240173
542.6505, 0.9536740
543.1326, 1.574585
543.6147, 2.861023
544.0969, 3.958557
544.5790, 4.132935
545.0611, 3.998291
545.5432, 4.137878
546.0253, 4.617798
546.5074, 4.774109
546.9896, 3.798645
547.4717, 2.666321
547.9538, 2.176880
548.4359, 3.216431
548.9180, 3.896179
549.4001, 4.005981
549.8823, 3.716187
550.3644, 3.232422
550.8465, 2.267151
551.3286, 1.734680
551.8107, 2.094177
552.2928, 3.147644
552.7750, 3.217224
553.2571, 2.112427
553.7392, 1.060486
554.2213, 1.015686
554.7034, 1.763428
555.1855, 2.039917
555.6677, 1.724487
556.1498, 1.382996
556.6319, 1.923096
557.1140, 2.840088
557.5961, 3.005554
558.0782, 1.736755
558.5604, 0.2113650
559.0425, 0.9946900
559.5246, 1.738098
560.0067, 1.680237
560.4888, 0.3479610
560.9709, 2.264282
561.4531, 2.989990
561.9352, 2.501282
562.4173, 2.012390
562.8994, 1.713989
563.3815, 1.420471
563.8636, 1.004456
564.3458, 0.2115480
564.8279, 0.1396480
565.3100, 1.244629
565.7921, 2.511047
566.2742, 2.616577
566.7563, 1.513672
567.2385, 0.2644040
567.7206, 3.143188
568.2027, 5.972656
568.6848, 5.679321
569.1669, 2.625916
569.6490, 0.3132930
570.1312, 1.720215
570.6133, 2.075684
571.0954, 1.732727
571.5775, 0.7676390
572.0596, 4.2719999E-03
572.5417, 4.3396000E-02
573.0239, 0.3751220
573.5060, 0.7611080
573.9881, 0.3295290
574.4702, 1.841003
574.9523, 9.783081
575.4344, 18.83411
575.9166, 22.12659
576.3987, 13.62671
576.8808, 6.902405
577.3629, 3.488342
577.8450, 2.844177
578.3271, 3.455627
578.8093, 5.847046
579.2914, 7.864624
579.7735, 8.527222
580.2556, 7.963562
580.7377, 7.101501
581.2198, 5.846436
581.7020, 5.113464
582.1841, 6.040283
582.6662, 8.003967
583.1483, 9.616333
583.6304, 10.63666
584.1125, 11.34509
584.5947, 12.65515
585.0768, 13.64148
585.5589, 12.83258
586.0410, 7.379150
586.5231, 2.869385
587.0052, 2.353638
587.4873, 4.593933
587.9694, 6.365479
588.4515, 7.224365
588.9337, 7.388550
589.4158, 6.453125
589.8979, 4.489197
590.3800, 3.946777
590.8621, 5.208740
591.3442, 6.869934
591.8264, 8.111511
592.3085, 8.932983
592.7906, 9.083984
593.2727, 8.252747
593.7548, 7.781494
594.2369, 10.13855
594.7191, 14.40509
595.2012, 16.88135
595.6833, 16.21106
596.1654, 14.33905
596.6475, 12.79382
597.1296, 11.70349
597.6118, 11.36273
598.0939, 12.22339
598.5760, 13.57147
599.0581, 15.57617
599.5402, 17.95709
600.0223, 19.26813
600.5045, 17.96021
600.9866, 16.60510
601.4687, 16.35760
601.9508, 17.38489
602.4329, 18.91284
602.9150, 21.17084
603.3972, 23.57465
603.8793, 25.79657
604.3614, 27.93738
604.8435, 28.78424
605.3256, 27.86987
605.8077, 26.27148
606.2899, 25.21985
606.7720, 24.82251
607.2541, 25.69550
607.7362, 28.65649
608.2183, 32.35474
608.7004, 35.40332
609.1826, 37.86932
609.6647, 39.80194
610.1468, 40.61426
610.6289, 41.44263
611.1110, 43.32043
611.5931, 46.41559
612.0753, 48.47119
612.5574, 48.08850
613.0395, 47.35364
613.5216, 47.48987
614.0037, 49.00061
614.4858, 50.04321
614.9680, 50.26050
615.4501, 50.46472
615.9322, 52.07056
616.4143, 55.19373
616.8964, 56.50122
617.3785, 54.70386
617.8607, 52.11768
618.3428, 53.13306
618.8249, 56.97314
619.3070, 60.77283
619.7891, 63.91626
620.2712, 65.85522
620.7534, 65.53552
621.2355, 63.38684
621.7176, 61.23535
622.1997, 59.29443
622.6818, 58.19897
623.1639, 58.47290
623.6461, 60.31897
624.1282, 62.15076
624.6103, 63.92151
625.0924, 65.49133
625.5745, 66.75562
626.0566, 68.05627
626.5388, 68.18958
627.0209, 66.94080
627.5030, 65.21375
627.9851, 63.91211
628.4672, 63.01465
628.9493, 62.70227
629.4315, 63.22632
629.9136, 63.82886
630.3957, 63.21875
630.8778, 61.76221
631.3599, 60.43262
631.8420, 59.79419
632.3242, 59.40076
632.8063, 59.15942
633.2884, 58.93701
633.7705, 58.19080
634.2526, 56.41211
634.7347, 54.32739
635.2169, 52.10840
635.6990, 49.63062
636.1811, 48.15601
636.6632, 47.83923
637.1453, 48.19531
637.6274, 49.34851
638.1096, 51.73975
638.5917, 51.69238
639.0738, 48.45374
639.5559, 44.50903
640.0380, 43.64758
640.5201, 45.00049
641.0023, 44.48169
641.4844, 40.16150
641.9665, 35.41431
642.4486, 34.10229
642.9307, 35.09595
643.4128, 35.89221
643.8950, 35.52832
644.3771, 34.61743
644.8592, 33.12280
645.3413, 31.26416
645.8234, 30.03381
646.3055, 30.38684
646.7877, 30.54089
647.2698, 29.77869
647.7519, 28.05298
648.2340, 26.82190
648.7161, 26.07910
649.1982, 25.82507
649.6804, 26.62573
650.1625, 28.21411
650.6446, 27.77332
651.1267, 24.97034
651.6088, 21.60425
652.0909, 19.44653
652.5731, 18.16260
653.0552, 16.98779
653.5373, 15.56885
654.0194, 14.68823
654.5015, 15.45129
654.9836, 16.93250
655.4658, 17.77039
655.9479, 16.66125
656.4300, 16.00879
656.9121, 17.20178
657.3942, 19.17444
657.8763, 18.74744
658.3585, 14.65515
658.8406, 11.10657
659.3227, 9.393677
659.8048, 9.265503
660.2869, 9.892944
660.7690, 11.29712
661.2512, 12.12000
661.7333, 10.70715
662.2154, 8.293091
662.6975, 7.315063
663.1796, 7.824341
663.6617, 8.742554
664.1439, 9.706543
664.6260, 10.52161
665.1081, 11.17810
665.5902, 11.93884
666.0723, 11.61560
666.5544, 8.351196
667.0366, 4.853760
667.5187, 3.702026
668.0008, 6.513428
668.4829, 8.470459
668.9650, 9.373901
669.4471, 9.264038
669.9293, 7.769409
670.4114, 4.873047
670.8935, 2.640015
671.3756, 1.575439
671.8577, 1.514526
672.3398, 2.844727
672.8220, 5.086182
673.3041, 6.579346
673.7862, 5.761719
674.2683, 4.491089
674.7504, 4.193604
675.2325, 4.667358
675.7147, 4.809814
676.1968, 3.317993
676.6789, 2.341431
677.1610, 3.431641
677.6431, 6.799316
678.1252, 7.533203
678.6074, 4.453979
679.0895, 0.8865970
679.5716, 1.268921
680.0537, 2.006714
680.5358, 1.430786
681.0179, 0.6374510
681.5001, 2.661133
681.9822, 2.954590
682.4643, 2.233643
682.9464, 1.573853
683.4285, 1.329102
683.9106, 1.232422
684.3928, 1.197266
684.8749, 1.122437
685.3570, 0.9084470
685.8391, 0.3612060
686.3212, 0.6864010
686.8033, 1.223633
687.2855, 3.970093
687.7676, 5.322876
688.2497, 4.901489
688.7318, 4.153320
689.2139, 3.266968
689.6960, 2.363770
690.1782, 1.682617
690.6603, 1.237061
691.1424, 1.174316
691.6245, 2.139282
692.1066, 3.191284
692.5887, 2.431641
693.0709, 0.2874760
693.5530, 1.366089
694.0351, 1.544556
694.5172, 0.8314210
694.9993, 0.8358150
695.4814, 3.273682
695.9636, 4.693604
696.4457, 3.880981
696.9278, 3.101318
697.4099, 3.410400
697.8920, 4.959106
698.3741, 7.251953
698.8563, 10.77710
699.3384, 13.48096
699.8205, 12.63464
700.3026, 9.127686
700.7847, 7.605469
701.2668, 8.670044
701.7490, 9.626953
702.2311, 7.837646
702.7132, 4.806519
703.1953, 2.602783
703.6774, 1.916016
704.1595, 1.782227
704.6417, 2.019287
705.1238, 2.548340
705.6059, 3.285645
706.0880, 5.130371
706.5701, 5.612427
707.0522, 3.947876
707.5344, 1.225708
708.0165, 0.6441650
708.4986, 1.721558
708.9807, 1.175171
709.4628, 1.789185
709.9449, 5.838501
710.4271, 9.076538
710.9092, 11.33887
711.3913, 12.18237
711.8734, 10.27869
712.3555, 7.733154
712.8376, 5.677368
713.3198, 4.205933
713.8019, 3.528076
714.2840, 4.710693
714.7661, 5.678345
715.2482, 5.510498
715.7303, 4.273438
716.2125, 3.503784
716.6946, 3.197876
717.1767, 3.397705
717.6588, 4.358276
718.1409, 5.949707
718.6230, 6.963013
719.1052, 7.424805
719.5873, 7.603149
720.0694, 7.769165
720.5515, 7.808716
721.0336, 7.543091
721.5157, 6.791382
721.9979, 6.191040
722.4800, 6.446899
722.9621, 6.739868
723.4442, 6.349243
723.9263, 4.007935
724.4084, 3.161499
724.8906, 4.540161
725.3727, 6.683105
725.8548, 8.117310
726.3369, 8.802002
726.8190, 9.489136
727.3011, 10.23254
727.7833, 11.01331
728.2654, 12.17639
728.7475, 13.25781
729.2296, 12.92334
729.7117, 9.790771
730.1938, 7.334839
730.6760, 9.292114
731.1581, 13.10681
731.6402, 14.87683
732.1223, 11.16370
732.6044, 8.477783
733.0865, 8.459229
733.5687, 9.760864
734.0508, 9.441406
734.5329, 7.085083
735.0150, 4.812988
735.4971, 2.869995
735.9792, 1.730469
736.4614, 3.401611
736.9435, 7.220703
737.4256, 9.769043
737.9077, 8.909180
738.3898, 6.449585
738.8719, 2.765625
739.3541, 1.454712
739.8362, 3.612305
740.3183, 0.9036870
740.8004, 2.122925
741.2825, 3.907837
741.7646, 4.537354
742.2468, 4.233154
742.7289, 2.067993
743.2110, 1.234009
743.6931, 4.071045
744.1752, 9.611938
744.6573, 12.31531
745.1395, 12.17078
745.6216, 10.57422
746.1037, 7.088257
746.5858, 3.471558
747.0679, 2.173950
747.5500, 3.245117
748.0322, 4.493774
748.5143, 5.534424
748.9964, 5.966797
749.4785, 5.369873
749.9606, 3.431763
750.4427, 2.006836
750.9249, 1.301880
751.4070, 0.7458500
751.8891, 0.4560550
752.3712, 2.207031
752.8533, 0.9210210
753.3354, 3.925659
753.8176, 7.895996
754.2997, 5.156494
754.7818, 0.5737300
755.2639, 3.349976
755.7460, 1.880737
756.2281, 0.1835940
756.7103, 1.723877
757.1924, 2.506836
757.6745, 2.080322
758.1566, 1.578491
758.6387, 2.239990
759.1208, 1.757324
759.6030, 6.777832
760.0851, 8.927246
760.5672, 8.122559
761.0493, 7.211182
761.5314, 6.495361
762.0135, 5.810059
762.4957, 4.340088
762.9778, 2.840576
763.4599, 3.168701
763.9420, 6.927490
764.4241, 9.709351
764.9063, 7.896606
765.3884, 4.187988
765.8705, 1.872437
766.3526, 2.209717
766.8347, 3.048340
767.3168, 4.937012
767.7990, 6.819702
768.2811, 6.758545
768.7632, 4.598389
769.2453, 3.929932
769.7274, 5.867065
770.2095, 8.459229
770.6917, 8.414307
771.1738, 6.919434
771.6559, 6.754517
772.1380, 10.27441
772.6201, 13.42798
773.1022, 13.89319
773.5844, 12.52808
774.0665, 10.78674
774.5486, 8.166382
775.0307, 6.251465
775.5128, 5.464966
775.9949, 5.374146
776.4771, 5.114258
776.9592, 4.733154
777.4413, 3.789185
777.9234, 1.642944
778.4055, 0.2814940
778.8876, 1.311157
779.3698, 4.938965
779.8519, 6.803467
780.3340, 2.554810
780.8161, 1.172729
781.2982, 0.3298340
781.7803, 3.374756
782.2625, 5.216553
782.7446, 3.077393
783.2267, 2.159790
783.7088, 3.815186
784.1909, 6.893799
784.6730, 7.297241
785.1552, 5.072144
785.6373, 4.292358
786.1194, 7.377197
786.6015, 11.84253
787.0836, 14.56226
787.5657, 15.62598
788.0479, 15.24036
788.5300, 11.70398
789.0121, 8.527954
789.4942, 7.144287
789.9763, 7.361572
790.4584, 8.329468
790.9406, 10.36768
791.4227, 12.50977
791.9048, 14.63416
792.3869, 16.49854
792.8690, 17.36658
793.3511, 17.29968
793.8333, 16.97546
794.3154, 16.97766
794.7975, 16.68750
795.2796, 14.91882
795.7617, 12.12939
796.2438, 9.745972
796.7260, 7.979858
797.2081, 7.031006
797.6902, 8.087769
798.1723, 10.54944
798.6544, 10.44775
799.1365, 6.110840
799.6187, 3.386963
800.1008, 4.738159
800.5829, 8.668335
801.0650, 10.72388
801.5471, 11.13757
802.0292, 11.49536
802.5114, 12.90051
802.9935, 14.30994
803.4756, 14.95862
803.9577, 14.82690
804.4398, 13.85632
804.9219, 11.05042
805.4041, 8.490356
805.8862, 6.311035
806.3683, 4.816040
806.8504, 5.802612
807.3325, 9.974731
807.8146, 13.12769
808.2968, 13.26599
808.7789, 11.79419
809.2610, 12.11475
809.7431, 13.67651
810.2252, 14.35840
810.7073, 12.55017
811.1895, 10.41577
811.6716, 9.288696
812.1537, 8.884033
812.6358, 8.044067
813.1179, 5.088867
813.6000, 3.988525
814.0822, 6.566650
814.5643, 11.29248
815.0464, 12.63147
815.5285, 10.53162
816.0106, 7.772827
816.4927, 4.969727
816.9749, 3.164795
817.4570, 4.374023
817.9391, 7.537231
818.4212, 9.747803
818.9033, 7.867432
819.3854, 6.579712
819.8676, 8.785767
820.3497, 13.13782
820.8318, 14.83972
821.3139, 12.33582
821.7960, 10.80591
822.2781, 11.86389
822.7603, 14.27881
823.2424, 15.58203
823.7245, 15.79895
824.2066, 15.00891
824.6887, 12.74194
825.1708, 9.980225
825.6530, 7.430542
826.1351, 5.280640
826.6172, 3.913330
827.0993, 3.457642
827.5814, 3.957397
828.0635, 6.325928
828.5457, 9.275879
829.0278, 9.953613
829.5099, 7.984863
829.9920, 6.328979
830.4741, 5.708496
830.9562, 5.708496
831.4384, 5.686401
831.9205, 5.786011
832.4026, 6.469482
832.8847, 9.147217
833.3668, 10.68689
833.8489, 8.192261
834.3311, 3.836182
834.8132, 1.407959
835.2953, 1.956421
835.7774, 2.614502
836.2595, 2.944702
836.7416, 3.421631
837.2238, 4.894409
837.7059, 7.234863
838.1880, 9.033569
838.6701, 10.16235
839.1522, 9.959473
839.6343, 5.551636
840.1165, 2.8080000E-03
840.5986, 2.153931
841.0807, 2.412476
841.5628, 6.975220
842.0449, 10.93933
842.5270, 13.78979
843.0092, 14.87109
843.4913, 14.06543
843.9734, 11.78540
844.4555, 7.616455
844.9376, 3.735596
845.4197, 3.209961
845.9019, 4.833496
846.3840, 6.332520
846.8661, 7.466309
847.3482, 7.417480
847.8303, 4.710938
848.3124, 1.285156
848.7946, 1.150879
849.2767, 2.451416
849.7588, 2.693115
850.2409, 1.612305
850.7230, 1.0742000E-02
851.2051, 1.662354
851.6873, 3.237305
852.1694, 4.251953
852.6515, 4.629395
853.1336, 5.238281
853.6157, 7.301270
854.0978, 9.643311
854.5800, 11.50171
855.0621, 12.91943
855.5442, 12.54785
856.0263, 7.797363
856.5084, 3.640869
856.9905, 2.991211
857.4727, 5.846436
857.9548, 6.222168
858.4369, 3.991699
858.9190, 1.480957
859.4011, 7.1533002E-02
859.8832, 0.6765140
860.3654, 0.1225590
860.8475, 1.522217
861.3296, 3.482422
861.8117, 6.266113
862.2938, 8.494873
862.7759, 9.429443
863.2581, 9.181152
863.7402, 8.355225
864.2223, 6.546387
864.7044, 5.435059
865.1865, 5.965332
865.6686, 7.531738
866.1508, 8.869873
866.6329, 9.831543
867.1150, 9.752930
867.5971, 7.306152
868.0792, 4.691406
868.5613, 2.871826
869.0435, 1.878418
869.5256, 1.810303
870.0077, 2.886963
870.4898, 4.329102
870.9719, 6.205811
871.4540, 8.307129
871.9362, 10.89624
872.4183, 13.62598
872.9004, 13.31348
873.3825, 7.402344
873.8646, 1.542236
874.3467, 2.220459
874.8289, 6.269531
875.3110, 8.863281
875.7931, 7.300537
876.2752, 5.971191
876.7573, 5.118896
877.2394, 4.652344
877.7216, 4.969727
878.2037, 6.156982
878.6858, 6.139404
879.1679, 4.516846
879.6500, 2.537354
880.1321, 1.578613
880.6143, 1.160645
881.0964, 0.4099120
881.5785, 1.081543
882.0606, 1.668213
882.5427, 0.1420900
883.0248, 2.395264
883.5070, 3.571045
883.9891, 3.285889
884.4712, 4.291260
884.9533, 6.900635
885.4354, 9.275146
885.9175, 9.691895
886.3997, 8.862061
886.8818, 7.509521
887.3639, 5.773926
887.8460, 4.807129
888.3281, 5.835693
888.8102, 7.192139
889.2924, 7.794678
889.7745, 7.705811
890.2566, 8.512939
890.7387, 10.69824
891.2208, 12.25269
891.7029, 12.03784
892.1851, 10.88062
892.6672, 11.49902
893.1493, 13.34302
893.6314, 13.79126
894.1135, 10.29077
894.5956, 6.327148
895.0778, 3.095703
895.5599, 0.9907230
896.0420, 1.197266
896.5241, 5.998535
897.0062, 8.004639
897.4883, 4.872559
897.9705, 1.2207000E-02
898.4526, 0.1643070
898.9347, 3.680664
899.4168, 6.925049
899.8989, 8.328125
900.3810, 9.391602
900.8632, 11.79053
901.3453, 14.33179
901.8274, 15.80371
902.3095, 16.10229
902.7916, 14.30225
903.2737, 8.453125
903.7559, 3.437012
904.2380, 4.604004
904.7201, 11.26392
905.2022, 16.65820
905.6843, 20.26001
906.1664, 21.72266
906.6486, 19.55957
907.1307, 15.56274
907.6128, 10.99707
908.0949, 5.989258
908.5770, 2.656982
909.0591, 1.452148
909.5413, 1.623291
910.0234, 3.316406
910.5055, 6.212402
910.9876, 8.590576
911.4697, 10.41919
911.9518, 10.88281
912.4340, 8.500977
912.9161, 5.360107
913.3982, 2.652588
913.8803, 0.8044430
914.3624, 1.045166
914.8445, 7.279053
915.3267, 10.83472
915.8088, 8.619629
916.2909, 4.050049
916.7730, 4.614746
917.2551, 10.19238
917.7372, 14.33350
918.2194, 15.43726
918.7015, 15.41821
919.1836, 16.36475
919.6657, 17.51050
920.1478, 17.64990
920.6299, 15.53003
921.1121, 14.64868
921.5942, 16.86987
922.0763, 19.07812
922.5584, 18.17969
923.0405, 13.99854
923.5226, 13.24316
924.0048, 16.30103
924.4869, 18.93896
924.9690, 16.95850
925.4511, 13.17969
925.9332, 10.01514
926.4153, 7.741699
926.8975, 7.804443
927.3796, 14.72754
927.8617, 19.25269
928.3438, 16.94946
928.8259, 9.785400
929.3080, 8.972168
929.7902, 14.38477
930.2723, 18.86377
930.7544, 18.81543
931.2365, 16.64185
931.7186, 14.93457
932.2007, 13.23779
932.6829, 10.54980
933.1650, 4.128418
933.6471, 8.0811001E-02
934.1292, 0.5056150
934.6113, 1.257080
935.0934, 4.748779
935.5756, 9.993164
936.0577, 11.66846
936.5398, 8.563965
937.0219, 4.708496
937.5040, 3.893555
937.9861, 4.562012
938.4683, 5.087646
938.9504, 5.322266
939.4325, 4.742432
939.9146, 2.430176
940.3967, 0.3898930
940.8788, 0.2651370
941.3610, 0.2958980
941.8431, 0.1772460
942.3252, 1.576904
942.8073, 1.817383
943.2894, 1.740234
943.7715, 5.374512
944.2537, 5.580566
944.7358, 3.339111
945.2179, 1.794189
945.7000, 2.145264
946.1821, 2.694824
946.6642, 3.385986
947.1464, 4.006348
947.6285, 4.077393
948.1106, 3.630371
948.5927, 2.759521
949.0748, 1.212646
949.5569, 0.2109380
950.0391, 0.9313960
950.5212, 2.755127
951.0033, 5.166504
951.4854, 9.492432
951.9675, 10.55029
952.4496, 6.173340
952.9318, 2.166016
953.4139, 4.129883
953.8960, 10.70654
954.3781, 13.84302
954.8602, 13.45312
955.3423, 12.15186
955.8245, 11.24487
956.3066, 10.42920
956.7887, 9.305420
957.2708, 7.991943
957.7529, 7.586670
958.2350, 9.076660
958.7172, 9.206543
959.1993, 6.633545
959.6814, 2.894531
960.1635, 1.386963
960.6456, 1.531250
961.1277, 1.485840
961.6099, 0.8210450
962.0920, 0.3244630
962.5741, 3.237793
963.0562, 5.901611
963.5383, 5.866211
964.0204, 1.891357
964.5026, 1.359375
964.9847, 3.713867
965.4668, 5.490479
965.9489, 6.820557
966.4310, 7.815430
966.9131, 9.348633
967.3953, 11.26025
967.8774, 11.78320
968.3595, 6.478271
968.8416, 3.268799
969.3237, 8.229004
969.8058, 18.45093
970.2880, 21.21997
970.7701, 15.79541
971.2522, 9.733398
971.7343, 4.950928
972.2164, 1.787842
972.6985, 1.304932
973.1807, 2.784912
973.6628, 4.833496
974.1449, 8.637939
974.6270, 10.34839
975.1091, 7.851563
975.5912, 4.364258
976.0734, 2.798096
976.5555, 3.187012
977.0376, 3.559814
977.5197, 3.704834
978.0018, 5.687500
978.4839, 14.62427
978.9661, 23.92822
979.4482, 26.33813
979.9303, 21.84106
980.4124, 17.87012
980.8945, 15.45776
981.3766, 14.02124
981.8588, 13.67651
982.3409, 13.94189
982.8230, 13.13208
983.3051, 11.63989
983.7872, 11.48804
984.2693, 13.92700
984.7515, 16.74390
985.2336, 18.82593
985.7157, 20.17969
986.1978, 20.73315
986.6799, 20.31372
987.1620, 19.41406
987.6442, 17.85938
988.1263, 16.40039
988.6084, 15.86108
989.0905, 15.86890
989.5726, 15.41235
990.0547, 14.47168
990.5369, 13.32397
991.0190, 11.54443
991.5011, 10.23364
991.9832, 10.09009
992.4653, 10.91211
992.9474, 12.21558
993.4296, 14.13110
993.9117, 14.46826
994.3938, 11.70166
994.8759, 9.091553
995.3580, 13.15503
995.8401, 19.77002
996.3223, 21.84644
996.8044, 15.11328
997.2865, 9.514404
997.7686, 6.778809
998.2507, 5.378906
998.7328, 4.703857
999.2150, 4.662842
999.6971, 2.057617
1000.179, 3.086670
1000.661, 6.411133
1001.143, 3.540527
1001.626, 1.295166
1002.108, 6.509277
1002.590, 11.23511
1003.072, 12.19629
1003.554, 7.307861
1004.036, 3.118896
1004.518, 0.6113280
1005.000, 2.6860000E-03
1005.482, 2.965576
1005.965, 7.996338
1006.447, 10.60767
1006.929, 9.097656
1007.411, 7.677734
1007.893, 9.213867
1008.375, 11.12207
1008.857, 11.33740
1009.339, 9.720459
1009.822, 9.100586
1010.304, 9.479248
1010.786, 10.36255
1011.268, 11.76416
1011.750, 13.14575
1012.232, 13.91284
1012.714, 14.07300
1013.196, 13.75220
1013.678, 11.39526
1014.161, 10.83838
1014.643, 13.24976
1015.125, 16.71460
1015.607, 18.24829
1016.089, 18.19775
1016.571, 19.06201
1017.053, 21.34790
1017.535, 23.33911
1018.018, 25.40601
1018.500, 25.26831
1018.982, 19.20605
1019.464, 6.960449
1019.946, 1.569824
1020.428, 4.807617
1020.910, 7.871826
1021.392, 6.565186
1021.874, 3.872070
1022.357, 5.457520
1022.839, 9.526367
1023.321, 12.12671
1023.803, 9.913574
1024.285, 8.760498
1024.767, 12.48828
1025.249, 15.76904
1025.731, 11.44214
1026.214, 0.6857910
1026.696, 2.631348
1027.178, 6.784424
1027.660, 16.29248
1028.142, 15.64575
1028.624, 12.44067
1029.106, 14.44702
1029.588, 20.89185
1030.070, 22.65381
1030.553, 17.24268
1031.035, 12.08569
1031.517, 8.557617
1031.999, 7.044189
1032.481, 9.097168
1032.963, 13.11572
1033.445, 15.33228
1033.927, 14.61548
1034.410, 13.58789
1034.892, 11.25537
1035.374, 10.89209
1035.856, 15.63013
1036.338, 25.74878
1036.820, 30.61182
1037.302, 29.97656
1037.784, 27.17944
1038.266, 21.48120
1038.749, 16.83057
1039.231, 19.98608
1039.713, 27.10156
1040.195, 28.44336
1040.677, 16.91626
1041.159, 9.310303
1041.641, 7.730225
1042.123, 9.014160
1042.605, 9.714844
1043.088, 10.15674
1043.570, 11.48267
1044.052, 13.79248
1044.534, 14.93872
1045.016, 13.48218
1045.498, 10.77734
1045.980, 6.328369
1046.462, 1.239990
1046.945, 1.570068
1047.427, 7.634033
1047.909, 11.21777
1048.391, 8.602295
1048.873, 4.788330
1049.355, 4.044189
1049.837, 5.906982
1050.319, 10.32788
1050.802, 20.86890
1051.284, 24.96851
1051.766, 20.71704
1052.248, 13.81519
1052.730, 4.962402
1053.212, 2.924561
1053.694, 3.447021
1054.176, 20.56763
1054.658, 32.28027
1055.141, 25.52759
1055.623, 17.86426
1056.105, 14.98462
1056.587, 15.31299
1057.069, 17.02832
1057.551, 20.12061
1058.033, 23.93872
1058.515, 28.92456
1058.997, 31.25610
1059.480, 23.44458
1059.962, 13.75781
1060.444, 11.06543
1060.926, 16.20166
1061.408, 18.62061
1061.890, 17.35596
1062.372, 14.92236
1062.854, 11.20508
1063.337, 8.259766
1063.819, 10.92676
1064.301, 17.09912
1064.783, 22.35156
1065.265, 26.12500
1065.747, 27.24854
1066.229, 23.97412
1066.711, 19.15869
1067.193, 13.88330
1067.676, 8.352051
1068.158, 7.023438
1068.640, 9.764648
1069.122, 11.29248
1069.604, 5.853027
1070.086, 0.9936520
1070.568, 2.584473
1071.050, 8.435059
1071.532, 13.67773
1072.015, 19.26953
1072.497, 20.50391
1072.979, 16.49609
1073.461, 10.37695
1073.943, 3.296875
1074.425, 2.593750
1074.907, 3.510742
1075.389, 0.6625980
1075.872, 5.191406
1076.354, 10.49268
1076.836, 13.09668
1077.318, 10.56152
1077.800, 6.136719
1078.282, 8.553223
1078.764, 15.73389
1079.246, 19.95752
1079.729, 18.58398
1080.211, 16.55322
1080.693, 16.25684
1081.175, 16.61084
1081.657, 16.46680
1082.139, 15.83154
1082.621, 16.75293
1083.103, 19.34863
1083.585, 21.75928
1084.068, 23.55566
1084.550, 24.09521
1085.032, 22.35645
1085.514, 19.18994
1085.996, 15.94824
1086.478, 11.37402
1086.960, 10.89941
1087.442, 16.45996
1087.924, 20.64795
1088.406, 13.85400
1088.889, 2.016602
1089.371, 4.254395
1089.853, 4.894531
1090.335, 3.170898
1090.817, 3.434570
1091.299, 7.379883
1091.781, 5.806152
1092.263, 1.983398
1092.746, 2.247070
1093.228, 5.618652
1093.710, 7.024414
1094.192, 5.441895
1094.674, 4.541016
1095.156, 5.665527
1095.638, 7.785645
1096.120, 10.75000
1096.603, 14.38184
1097.085, 18.12891
1097.567, 22.14990
1098.049, 21.27783
1098.531, 10.79248
1099.013, 0.3720700
1099.495, 1.431152
1099.977, 8.123047
1100.459, 13.00928
1100.942, 13.90918
1101.424, 16.57617
1101.906, 22.03809
1102.388, 26.20557
1102.870, 26.62939
1103.352, 23.94629
1103.834, 17.14453
1104.316, 8.339355
1104.798, 3.421875
1105.281, 8.233398
1105.763, 11.86768
1106.245, 12.04834
1106.727, 11.63721
1107.209, 14.92041
1107.691, 20.39062
1108.173, 20.23291
1108.655, 14.45801
1109.138, 8.347656
1109.620, 2.532715
1110.102, 0.2685550
1110.584, 2.590332
1111.066, 8.546387
1111.548, 13.75195
1112.030, 18.20898
1112.512, 20.07471
1112.995, 18.77148
1113.477, 16.46924
1113.959, 13.21973
1114.441, 11.21045
1114.923, 14.30859
1115.405, 22.11816
1115.887, 21.13867
1116.369, 9.113770
1116.851, 1.719727
1117.333, 6.181641
1117.816, 14.16602
1118.298, 15.24658
1118.780, 12.47705
1119.262, 10.12939
1119.744, 9.177734
1120.226, 8.410645
1120.708, 7.528320
1121.190, 7.517578
1121.673, 10.16016
1122.155, 13.57373
1122.637, 11.90527
1123.119, 7.411621
1123.601, 6.330566
1124.083, 18.63428
1124.565, 23.38281
1125.047, 13.54639
1125.530, 0.7133790
1126.012, 4.427246
1126.494, 3.008789
1126.976, 1.059082
1127.458, 1.232910
1127.940, 4.429199
1128.422, 10.25537
1128.904, 15.47559
1129.386, 18.35498
1129.869, 19.90527
1130.351, 21.14404
1130.833, 22.07471
1131.315, 24.94873
1131.797, 30.27832
1132.279, 33.24268
1132.761, 26.54785
1133.243, 19.50439
1133.725, 20.04199
1134.208, 26.39111
1134.690, 28.78613
1135.172, 26.68359
1135.654, 24.68945
1136.136, 23.99463
1136.618, 23.92920
1137.100, 23.89600
1137.582, 23.98730
1138.065, 24.20166
1138.547, 24.45215
1139.029, 26.03467
1139.511, 29.78955
1139.993, 32.10400
1140.475, 31.20801
1140.957, 28.72705
1141.439, 26.32568
1141.922, 24.45361
1142.404, 24.27148
1142.886, 27.25830
1143.368, 28.44824
1143.850, 26.70508
1144.332, 24.36816
1144.814, 22.50586
1145.296, 21.22168
1145.778, 20.80225
1146.260, 21.11328
1146.743, 22.13330
1147.225, 25.13721
1147.707, 26.56787
1148.189, 26.48291
1148.671, 24.90283
1149.153, 20.60449
1149.635, 14.46582
1150.117, 12.89209
1150.600, 15.13037
1151.082, 14.48389
1151.564, 2.511719
1152.046, 6.638672
1152.528, 6.966797
1153.010, 2.783691
1153.492, 1.902344
1153.974, 6.870605
1154.457, 8.321289
1154.939, 5.848633
1155.421, 3.642090
1155.903, 4.737793
1156.385, 6.527344
1156.867, 7.433105
1157.349, 7.927246
1157.831, 9.439941
1158.313, 12.03613
1158.796, 12.12646
1159.278, 8.709473
1159.760, 6.312012
1160.242, 10.87207
1160.724, 16.43848
1161.206, 17.89355
1161.688, 15.68457
1162.170, 13.66650
1162.652, 11.62109
1163.135, 11.57178
1163.617, 14.50049
1164.099, 18.65674
1164.581, 23.94189
1165.063, 28.77490
1165.545, 30.96924
1166.027, 29.90039
1166.509, 28.72852
1166.992, 26.96777
1167.474, 27.65820
1167.956, 33.51758
1168.438, 40.11182
1168.920, 42.42676
1169.402, 41.50293
1169.884, 38.53809
1170.366, 32.19336
1170.849, 29.20020
1171.331, 30.47412
1171.813, 32.19336
1172.295, 32.78662
1172.777, 32.30322
1173.259, 30.00244
1173.741, 26.76904
1174.223, 24.28760
1174.705, 22.23145
1175.188, 23.46240
1175.670, 29.94141
1176.152, 34.92725
1176.634, 31.22119
1177.116, 23.46973
1177.598, 22.14404
1178.080, 25.17725
1178.562, 26.14648
1179.044, 19.36182
1179.527, 16.40088
1180.009, 20.00195
1180.491, 23.78369
1180.973, 19.93457
1181.455, 12.52930
1181.937, 12.09619
1182.419, 17.47217
1182.901, 21.11230
1183.384, 17.34229
1183.866, 12.94531
1184.348, 9.574707
1184.830, 7.321289
1185.312, 5.502930
1185.794, 4.710938
1186.276, 7.279785
1186.758, 13.26904
1187.240, 19.91260
1187.723, 29.82031
1188.205, 33.41064
1188.687, 25.41699
1189.169, 14.20898
1189.651, 15.22119
1190.133, 24.28516
1190.615, 27.45068
1191.097, 22.80762
1191.579, 19.64160
1192.062, 24.03418
1192.544, 28.47803
1193.026, 31.03564
1193.508, 31.63867
1193.990, 29.60840
1194.472, 25.55566
1194.954, 20.95068
1195.436, 16.04395
1195.919, 12.44922
1196.401, 11.48682
1196.883, 11.95996
1197.365, 14.11768
1197.847, 16.75830
1198.329, 15.28760
1198.811, 11.11572
1199.293, 10.53369
1199.776, 16.37744
1200.258, 19.99219
1200.740, 13.48633
1201.222, 7.862305
1201.704, 9.327148
1202.186, 15.43311
1202.668, 16.10596
1203.150, 12.46289
1203.632, 8.912109
1204.115, 5.948242
1204.597, 5.927734
1205.079, 14.72021
1205.561, 21.78809
1206.043, 18.64990
1206.525, 8.712891
1207.007, 12.01172
1207.489, 24.91260
1207.971, 31.20459
1208.454, 20.87061
1208.936, 10.06641
1209.418, 3.042480
1209.900, 6.8359999E-03
1210.382, 3.496094
1210.864, 12.48047
1211.346, 16.35596
1211.828, 15.61572
1212.311, 13.97754
1212.793, 11.88428
1213.275, 11.28711
1213.757, 13.50586
1214.239, 17.21729
1214.721, 23.06885
1215.203, 29.95996
1215.685, 27.24463
1216.167, 16.92969
1216.650, 9.826172
1217.132, 14.99170
1217.614, 19.39453
1218.096, 19.32568
1218.578, 16.64014
1219.060, 11.24365
1219.542, 4.201660
1220.024, 5.257813
1220.506, 12.66260
1220.989, 15.99170
1221.471, 5.826172
1221.953, 3.338379
1222.435, 7.727539
1222.917, 8.044922
1223.399, 6.937988
1223.881, 4.467773
1224.363, 0.9492190
1224.846, 3.490723
1225.328, 8.035156
1225.810, 12.79297
1226.292, 17.03564
1226.774, 20.84717
1227.256, 23.65381
1227.738, 24.47949
1228.220, 23.87354
1228.703, 24.13574
1229.185, 25.05420
1229.667, 24.45947
1230.149, 16.18164
1230.631, 13.73193
1231.113, 21.51172
1231.595, 33.27051
1232.077, 42.86816
1232.559, 49.15918
1233.042, 46.01514
1233.524, 34.85449
1234.006, 28.42383
1234.488, 37.70996
1234.970, 43.46826
1235.452, 41.99268
1235.934, 36.36768
1236.416, 28.89746
1236.898, 21.33643
1237.381, 18.29346
1237.863, 19.56738
1238.345, 20.17578
1238.827, 20.56250
1239.309, 16.55273
1239.791, 4.977051
1240.273, 5.794922
1240.755, 2.186035
1241.238, 8.709961
1241.720, 12.48096
1242.202, 8.321777
1242.684, 6.527344
1243.166, 11.76562
1243.648, 13.42383
1244.130, 8.727051
1244.612, 3.835938
1245.094, 10.09814
1245.577, 21.16895
1246.059, 24.88232
1246.541, 20.40918
1247.023, 15.85107
1247.505, 10.09619
1247.987, 11.16504
1248.469, 21.61133
1248.951, 34.47070
1249.433, 41.14355
1249.916, 43.41846
1250.398, 43.56836
1250.880, 41.94336
1251.362, 38.65381
1251.844, 35.34326
1252.326, 35.38818
1252.808, 40.61816
1253.290, 43.42334
1253.773, 31.76562
1254.255, 17.40576
1254.737, 12.75098
1255.219, 17.72559
1255.701, 22.16553
1256.183, 26.93896
1256.665, 28.17676
1257.147, 23.90967
1257.630, 18.77539
1258.112, 13.43262
1258.594, 10.80322
1259.076, 16.21289
1259.558, 27.33838
1260.040, 33.32568
1260.522, 31.59570
1261.004, 31.02344
1261.486, 28.54004
1261.969, 27.80859
1262.451, 31.60840
1262.933, 36.94629
1263.415, 41.66553
1263.897, 44.13965
1264.379, 40.57520
1264.861, 32.62988
1265.343, 27.40430
1265.825, 26.48438
1266.308, 26.25391
1266.790, 26.94189
1267.272, 24.00000
1267.754, 13.61719
1268.236, 1.198242
1268.718, 1.421387
1269.200, 3.822266
1269.682, 13.54053
1270.165, 29.23926
1270.647, 39.42969
1271.129, 33.15234
1271.611, 27.87207
1272.093, 30.56055
1272.575, 35.57617
1273.057, 29.83496
1273.539, 18.18848
1274.021, 11.37598
1274.504, 9.154297
1274.986, 9.163086
1275.468, 9.837891
1275.950, 8.664063
1276.432, 4.086914
1276.914, 3.9059999E-03
1277.396, 6.089844
1277.878, 15.94922
1278.360, 15.89258
1278.843, 2.801758
1279.325, 4.4922002E-02
1279.807, 0.0000000E+00
##END=



