##NAMES=Cymrite
##RRUFFID=R080032
##IDEAL CHEMISTRY=Ba(Si,Al)_4_(O,OH)_8_&#183;H_2_O
##LOCALITY=Langban, Filipstad, Varmland, Sweden
##OWNER=RRUFF
##SOURCE=Michael Scott
##DESCRIPTION=Vitreous, massive opaque grey associated with calcite and phlogopite
##STATUS=The identification of this mineral is not yet confirmed.
##URL=rruff.info/R080032
147.5429, 0.0000000E+00
148.0250, 4.6009999E-03
148.5071, 1.7181000E-02
148.9893, 6.3683003E-02
149.4714, 0.2449720
149.9535, 0.5671310
150.4356, 1.038437
150.9177, 1.442726
151.3998, 1.736771
151.8820, 1.978928
152.3641, 2.163559
152.8462, 2.302391
153.3283, 2.431641
153.8104, 2.586266
154.2925, 2.767815
154.7747, 2.959358
155.2568, 3.354446
155.7389, 3.623451
156.2210, 3.435860
156.7031, 2.781662
157.1852, 2.019524
157.6673, 1.715851
158.1495, 2.268059
158.6316, 2.680176
159.1137, 2.885780
159.5958, 2.963455
160.0779, 2.966301
160.5600, 2.903870
161.0422, 2.834747
161.5243, 2.914871
162.0064, 3.262596
162.4885, 3.462822
162.9706, 3.313858
163.4527, 2.979851
163.9349, 2.798714
164.4170, 2.938103
164.8991, 3.232353
165.3812, 3.373756
165.8633, 3.273254
166.3454, 3.217888
166.8276, 3.458054
167.3097, 3.900261
167.7918, 4.302872
168.2739, 4.589600
168.7560, 4.971321
169.2381, 5.485313
169.7203, 6.153152
170.2024, 6.754448
170.6845, 6.972672
171.1666, 6.785477
171.6487, 6.546089
172.1308, 6.333649
172.6130, 6.167427
173.0951, 6.077675
173.5772, 6.105957
174.0593, 6.148491
174.5414, 5.949097
175.0235, 5.267685
175.5057, 4.882126
175.9878, 5.262421
176.4699, 5.839882
176.9520, 6.017418
177.4341, 5.521996
177.9162, 4.588615
178.3984, 3.916084
178.8805, 3.698799
179.3626, 3.511452
179.8447, 3.294548
180.3268, 3.065521
180.8089, 2.877235
181.2911, 2.768524
181.7732, 2.709007
182.2553, 2.516289
182.7374, 1.969261
183.2195, 1.538773
183.7016, 1.398598
184.1838, 1.428574
184.6659, 1.408989
185.1480, 1.190842
185.6301, 0.8064880
186.1122, 0.6156770
186.5943, 0.8327410
187.0765, 1.008835
187.5586, 0.9505840
188.0407, 0.7028270
188.5228, 0.3862080
189.0049, 5.2689001E-02
189.4870, 0.2693860
189.9692, 0.4826970
190.4513, 0.5268550
190.9334, 0.5153730
191.4155, 0.5300750
191.8976, 0.5713350
192.3797, 0.5747990
192.8619, 0.4813840
193.3440, 0.3246150
193.8261, 0.1926270
194.3082, 8.2321003E-02
194.7903, 4.2800000E-03
195.2724, 5.3787000E-02
195.7546, 7.2555996E-02
196.2367, 7.7399999E-02
196.7188, 6.2469002E-02
197.2009, 6.8030998E-02
197.6830, 0.1434560
198.1651, 0.3073350
198.6473, 0.5116420
199.1294, 0.6895070
199.6115, 0.8880000
200.0936, 1.072563
200.5757, 1.282188
201.0578, 1.540039
201.5400, 1.801926
202.0221, 2.033386
202.5042, 2.237053
202.9863, 2.343010
203.4684, 2.317009
203.9505, 2.230118
204.4327, 1.996307
204.9148, 1.747864
205.3969, 1.771698
205.8790, 2.120613
206.3611, 2.720665
206.8432, 3.197021
207.3254, 3.571754
207.8075, 3.765289
208.2896, 3.650871
208.7717, 3.372009
209.2538, 3.133842
209.7359, 3.076721
210.2181, 3.174080
210.7002, 3.182457
211.1823, 2.902908
211.6644, 2.742458
212.1465, 2.849533
212.6286, 3.123352
213.1108, 3.395687
213.5929, 3.555035
214.0750, 3.608883
214.5571, 3.664974
215.0392, 3.682587
215.5213, 3.743168
216.0035, 3.907166
216.4856, 4.134716
216.9677, 4.339153
217.4498, 4.460438
217.9319, 4.506126
218.4140, 4.575180
218.8962, 4.637154
219.3783, 4.746262
219.8604, 5.003654
220.3425, 5.342655
220.8246, 5.565754
221.3067, 5.534424
221.7889, 5.272499
222.2710, 5.010952
222.7531, 4.534111
223.2352, 4.253651
223.7173, 4.548546
224.1994, 5.297314
224.6816, 5.906059
225.1637, 5.981983
225.6458, 5.633652
226.1279, 5.404030
226.6100, 5.414692
227.0921, 5.420422
227.5743, 5.189457
228.0564, 4.753323
228.5385, 4.431934
229.0206, 4.460320
229.5027, 4.704380
229.9848, 4.854668
230.4670, 4.879219
230.9491, 4.826675
231.4312, 4.736816
231.9133, 4.609608
232.3954, 4.423374
232.8775, 4.107162
233.3597, 3.755081
233.8418, 3.488277
234.3239, 3.323452
234.8060, 3.236835
235.2881, 3.255276
235.7702, 3.400150
236.2524, 3.429268
236.7345, 3.127155
237.2166, 2.728455
237.6987, 2.435844
238.1808, 2.296631
238.6629, 2.239162
239.1451, 2.206577
239.6272, 2.216625
240.1093, 2.157864
240.5914, 1.905334
241.0735, 1.618599
241.5556, 1.423531
242.0378, 1.351124
242.5199, 1.317394
243.0020, 1.182022
243.4841, 0.8842470
243.9662, 0.7059560
244.4483, 0.8391690
244.9305, 1.022079
245.4126, 1.083080
245.8947, 0.9832760
246.3768, 0.8041190
246.8589, 0.6374170
247.3410, 0.4540710
247.8232, 0.3433300
248.3053, 0.3804090
248.7874, 0.4580800
249.2695, 0.5502850
249.7516, 0.6331520
250.2337, 0.6454120
250.7159, 0.4604150
251.1980, 8.1261002E-02
251.6801, 0.3619960
252.1622, 0.1674540
252.6443, 9.7332001E-02
253.1264, 0.1979450
253.6086, 0.1067890
254.0907, 5.3833000E-02
254.5728, 0.1433750
255.0549, 0.1661800
255.5370, 8.9527003E-02
256.0191, 0.1913950
256.5013, 0.4724200
256.9834, 0.6246340
257.4655, 0.6484380
257.9476, 0.6401560
258.4297, 0.7083400
258.9118, 0.8830600
259.3940, 1.008495
259.8761, 1.065571
260.3582, 1.100891
260.8403, 1.103867
261.3224, 1.095562
261.8045, 1.138786
262.2867, 1.303364
262.7688, 1.617245
263.2509, 1.856579
263.7330, 1.987190
264.2151, 2.096344
264.6972, 2.178284
265.1794, 2.263844
265.6615, 2.444038
266.1436, 2.814083
266.6257, 3.389774
267.1078, 3.776424
267.5899, 3.971775
268.0721, 4.036758
268.5542, 3.805195
269.0363, 3.431038
269.5184, 3.351883
270.0005, 3.927528
270.4826, 5.098724
270.9648, 5.929363
271.4469, 6.147999
271.9290, 6.385872
272.4111, 6.889706
272.8932, 7.590683
273.3753, 8.295803
273.8575, 8.875729
274.3396, 9.385921
274.8217, 10.12220
275.3038, 11.18242
275.7859, 12.29972
276.2680, 13.40412
276.7502, 14.50089
277.2323, 15.62617
277.7144, 16.80745
278.1965, 18.00426
278.6786, 19.09699
279.1607, 20.14315
279.6429, 21.02348
280.1250, 21.68376
280.6071, 22.16209
281.0892, 22.49855
281.5713, 22.69241
282.0534, 22.82406
282.5356, 23.04469
283.0177, 23.35918
283.4998, 23.69323
283.9819, 23.91638
284.4640, 24.17627
284.9461, 24.75489
285.4283, 25.76084
285.9104, 26.90923
286.3925, 27.79293
286.8746, 28.39452
287.3567, 29.03136
287.8388, 29.66066
288.3210, 30.40420
288.8031, 31.47136
289.2852, 32.92941
289.7673, 34.49849
290.2494, 35.87014
290.7315, 37.06243
291.2137, 38.28972
291.6958, 39.56671
292.1779, 40.91161
292.6600, 42.27526
293.1421, 43.64470
293.6242, 45.26612
294.1064, 47.50523
294.5885, 50.21976
295.0706, 52.57617
295.5527, 54.50333
296.0348, 56.03689
296.5169, 57.38070
296.9991, 58.50938
297.4812, 58.80240
297.9633, 57.72659
298.4454, 55.44562
298.9275, 52.83113
299.4096, 49.77851
299.8918, 46.54357
300.3739, 43.04702
300.8560, 39.38169
301.3381, 36.28746
301.8202, 34.22138
302.3023, 32.87670
302.7845, 31.46484
303.2666, 29.93098
303.7487, 28.47678
304.2308, 27.23964
304.7129, 26.18685
305.1950, 25.18307
305.6772, 24.15774
306.1593, 23.21875
306.6414, 22.58363
307.1235, 22.29794
307.6056, 21.85484
308.0877, 20.99105
308.5699, 19.80749
309.0520, 18.50861
309.5341, 17.12225
310.0162, 15.69797
310.4983, 14.20150
310.9804, 12.63322
311.4626, 11.21626
311.9447, 10.05331
312.4268, 9.070229
312.9089, 8.148979
313.3910, 7.275230
313.8731, 6.496208
314.3553, 5.847000
314.8374, 5.308308
315.3195, 4.838646
315.8016, 4.471508
316.2837, 4.145866
316.7658, 3.779457
317.2480, 3.367764
317.7301, 3.014584
318.2122, 2.826908
318.6943, 2.731976
319.1764, 2.549389
319.6585, 2.211674
320.1407, 1.854416
320.6228, 1.580906
321.1049, 1.382725
321.5870, 1.191319
322.0691, 0.9662900
322.5512, 0.7467690
323.0334, 0.6016350
323.5155, 0.5522230
323.9976, 0.5116500
324.4797, 0.4283980
324.9618, 0.3168720
325.4439, 0.2293590
325.9261, 0.1926840
326.4082, 0.1573640
326.8903, 5.0315998E-02
327.3724, 0.1251300
327.8545, 0.2991710
328.3366, 0.4713940
328.8188, 0.6241380
329.3009, 0.7217900
329.7830, 0.7538950
330.2651, 0.7564320
330.7472, 0.7472150
331.2293, 0.7318920
331.7115, 0.7464560
332.1936, 0.8240170
332.6757, 0.9190370
333.1578, 0.9969750
333.6399, 1.055668
334.1220, 1.068359
334.6042, 1.002144
335.0863, 0.8729970
335.5684, 0.7578740
336.0505, 0.6575320
336.5326, 0.5723150
337.0147, 0.5140720
337.4969, 0.4749760
337.9790, 0.4121170
338.4611, 0.2861670
338.9432, 0.1470220
339.4253, 0.1126980
339.9074, 0.2300680
340.3896, 0.3186420
340.8717, 0.2917250
341.3538, 0.1887700
341.8359, 0.1138500
342.3180, 0.1178970
342.8001, 7.4928001E-02
343.2823, 0.2719040
343.7644, 0.9640240
344.2465, 1.480518
344.7286, 1.556488
345.2107, 1.494194
345.6928, 1.647804
346.1750, 2.065960
346.6571, 2.539215
347.1392, 2.886822
347.6213, 3.099934
348.1034, 3.306969
348.5855, 3.432755
349.0677, 3.616249
349.5498, 3.990067
350.0319, 4.521961
350.5140, 5.060631
350.9961, 5.541313
351.4782, 5.945904
351.9604, 6.189060
352.4425, 6.062840
352.9246, 6.054523
353.4067, 6.322945
353.8888, 6.809292
354.3709, 7.467754
354.8531, 8.306416
355.3352, 9.157455
355.8173, 9.666882
356.2994, 9.606163
356.7815, 9.746452
357.2636, 10.28313
357.7458, 10.97806
358.2279, 11.62909
358.7100, 12.19144
359.1921, 12.68647
359.6742, 13.10804
360.1563, 13.42226
360.6385, 13.90940
361.1206, 14.55346
361.6027, 15.36139
362.0848, 16.42169
362.5669, 17.66264
363.0490, 18.88880
363.5312, 19.94714
364.0133, 20.87571
364.4954, 21.97595
364.9775, 23.43252
365.4596, 24.82693
365.9417, 25.95587
366.4239, 27.00644
366.9060, 28.20082
367.3881, 29.63649
367.8702, 31.31332
368.3523, 33.25172
368.8344, 35.70020
369.3166, 38.01147
369.7987, 40.09024
370.2808, 42.11905
370.7629, 44.15374
371.2450, 46.24882
371.7271, 48.55597
372.2093, 51.27422
372.6914, 54.53746
373.1735, 57.45657
373.6556, 59.45536
374.1377, 61.69954
374.6198, 64.71329
375.1020, 68.29953
375.5841, 71.94913
376.0662, 75.33844
376.5483, 78.54170
377.0304, 81.86289
377.5125, 85.57133
377.9947, 88.98459
378.4768, 91.64501
378.9589, 94.13081
379.4410, 97.04539
379.9231, 100.5798
380.4052, 104.4216
380.8874, 108.0826
381.3695, 111.4115
381.8516, 115.0335
382.3337, 119.3214
382.8158, 123.6475
383.2979, 127.7171
383.7801, 131.5188
384.2622, 135.1780
384.7443, 138.7613
385.2264, 142.2609
385.7085, 145.8512
386.1906, 149.7991
386.6728, 153.4357
387.1549, 156.4597
387.6370, 159.0587
388.1191, 161.4759
388.6012, 163.8201
389.0833, 166.0565
389.5655, 168.2217
390.0476, 170.4378
390.5297, 172.0026
391.0118, 172.6581
391.4939, 172.5397
391.9760, 171.6415
392.4582, 169.9608
392.9403, 167.7401
393.4224, 165.0948
393.9045, 162.0453
394.3866, 158.7484
394.8687, 155.2964
395.3509, 151.4488
395.8330, 146.8788
396.3151, 141.7645
396.7972, 136.6394
397.2793, 131.8262
397.7614, 127.0526
398.2436, 121.8119
398.7257, 116.1017
399.2078, 110.4063
399.6899, 105.0202
400.1720, 99.88947
400.6541, 94.80997
401.1363, 89.70058
401.6184, 84.82118
402.1005, 80.32289
402.5826, 76.20023
403.0647, 72.45419
403.5468, 69.15971
404.0290, 66.08654
404.5111, 62.84140
404.9932, 59.37776
405.4753, 56.22123
405.9574, 53.62883
406.4395, 51.29797
406.9217, 48.97355
407.4038, 46.61886
407.8859, 44.27185
408.3680, 41.92580
408.8501, 39.60554
409.3322, 37.66073
409.8144, 36.37140
410.2965, 35.06826
410.7786, 33.44752
411.2607, 31.66154
411.7428, 29.94424
412.2249, 28.39809
412.7071, 27.01366
413.1892, 25.77824
413.6713, 24.72540
414.1534, 23.79866
414.6355, 23.15177
415.1176, 22.51310
415.5998, 21.66728
416.0819, 20.61819
416.5640, 19.51636
417.0461, 18.48180
417.5282, 17.51495
418.0103, 16.69061
418.4925, 16.20110
418.9746, 15.64991
419.4567, 14.89678
419.9388, 14.04453
420.4209, 13.22252
420.9030, 12.49522
421.3852, 11.84480
421.8673, 11.23751
422.3494, 10.64616
422.8315, 10.16782
423.3136, 9.904800
423.7957, 9.672459
424.2779, 9.361420
424.7600, 8.966576
425.2421, 8.549782
425.7242, 8.165329
426.2063, 7.806591
426.6884, 7.410580
427.1706, 6.901962
427.6527, 6.489044
428.1348, 6.248356
428.6169, 6.148613
429.0990, 6.195553
429.5811, 6.464771
430.0633, 6.686687
430.5454, 6.408710
431.0275, 5.615845
431.5096, 5.078728
431.9917, 5.135910
432.4738, 5.425190
432.9560, 5.559181
433.4381, 5.539299
433.9202, 5.476913
434.4023, 5.401287
434.8844, 5.323296
435.3665, 5.288483
435.8487, 5.310459
436.3308, 5.284863
436.8129, 5.076145
437.2950, 4.756153
437.7771, 4.622952
438.2592, 4.798141
438.7414, 5.051697
439.2235, 5.276638
439.7056, 5.467621
440.1877, 5.629425
440.6698, 5.763840
441.1519, 5.895588
441.6341, 6.064640
442.1162, 6.288368
442.5983, 6.468956
443.0804, 6.552906
443.5625, 6.646114
444.0446, 6.812550
444.5268, 7.062313
445.0089, 7.408379
445.4910, 7.880455
445.9731, 8.453110
446.4552, 8.884583
446.9373, 9.123184
447.4195, 9.308746
447.9016, 9.341911
448.3837, 9.360771
448.8658, 9.571815
449.3479, 10.01996
449.8300, 10.50756
450.3122, 10.72509
450.7943, 10.57130
451.2764, 10.54556
451.7585, 10.87304
452.2406, 11.13974
452.7227, 11.14570
453.2049, 10.92944
453.6870, 10.62300
454.1691, 10.28826
454.6512, 9.986359
455.1333, 9.864746
455.6154, 10.01476
456.0976, 10.10991
456.5797, 9.915020
457.0618, 9.652775
457.5439, 9.492832
458.0260, 9.473446
458.5081, 9.560467
458.9903, 9.806160
459.4724, 10.14931
459.9545, 10.33881
460.4366, 10.30768
460.9187, 10.16862
461.4008, 10.07901
461.8830, 9.962395
462.3651, 9.580547
462.8472, 8.659145
463.3293, 7.708134
463.8114, 7.173786
464.2935, 6.940060
464.7757, 6.598026
465.2578, 6.000206
465.7399, 5.251614
466.2220, 4.467468
466.7041, 3.570591
467.1862, 2.895138
467.6683, 2.580818
468.1505, 2.436222
468.6326, 2.349674
469.1147, 2.291744
469.5968, 2.228561
470.0789, 2.134266
470.5610, 2.016369
471.0432, 1.923306
471.5253, 1.898335
472.0074, 1.863724
472.4895, 1.770802
472.9716, 1.650288
473.4537, 1.559910
473.9359, 1.507759
474.4180, 1.421993
474.9001, 1.177120
475.3822, 0.7298470
475.8643, 0.5010870
476.3464, 0.7682690
476.8286, 0.9642870
477.3107, 0.8501590
477.7928, 0.5556140
478.2749, 0.2855610
478.7570, 0.1209870
479.2391, 5.7789002E-02
479.7213, 0.1347580
480.2034, 0.3797720
480.6855, 0.5162660
481.1676, 0.4125560
481.6497, 0.2442860
482.1318, 0.1448670
482.6140, 0.1124950
483.0961, 0.1111680
483.5782, 0.1380500
484.0603, 0.1772690
484.5424, 0.2198600
485.0245, 0.2670970
485.5067, 0.2488100
485.9888, 7.6378003E-02
486.4709, 0.1586270
486.9530, 0.2089730
487.4351, 2.5063001E-02
487.9172, 0.2125550
488.3994, 0.1899110
488.8815, 7.9189003E-02
489.3636, 5.8506001E-02
489.8457, 0.1574520
490.3278, 0.2492290
490.8099, 0.2004010
491.2921, 2.2849999E-03
491.7742, 0.1038060
492.2563, 4.1453999E-02
492.7384, 9.2740003E-03
493.2205, 1.0742000E-02
493.7026, 7.1716003E-02
494.1848, 0.1289980
494.6669, 0.1611400
495.1490, 0.1959230
495.6311, 0.2963260
496.1132, 0.5116310
496.5953, 0.6280480
497.0775, 0.5598300
497.5596, 0.4722750
498.0417, 0.4502410
498.5238, 0.4587970
499.0059, 0.4068980
499.4880, 0.2309270
499.9702, 2.2660000E-03
500.4523, 0.1658630
500.9344, 0.2582210
501.4165, 0.3011250
501.8986, 0.2835120
502.3807, 0.2318500
502.8629, 0.1779670
503.3450, 0.1206210
503.8271, 2.8423000E-02
504.3092, 0.1801450
504.7913, 0.4033810
505.2734, 0.4667850
505.7556, 0.3621940
506.2377, 0.2142180
506.7198, 6.9041997E-02
507.2019, 5.5794001E-02
507.6840, 0.1094440
508.1661, 9.3764998E-02
508.6483, 1.7448001E-02
509.1304, 0.2262040
509.6125, 0.4720880
510.0946, 0.4733200
510.5767, 0.2187270
511.0588, 3.9207000E-02
511.5410, 6.6742003E-02
512.0231, 0.1360440
512.5052, 0.3579830
512.9873, 0.7802660
513.4694, 1.004055
513.9515, 0.7952380
514.4337, 0.4205130
514.9158, 0.1707800
515.3979, 0.1317630
515.8800, 0.2047730
516.3621, 0.3117490
516.8442, 0.4709130
517.3264, 0.4555970
517.8085, 0.1333350
518.2906, 0.2004130
518.7727, 0.4575460
519.2548, 0.6272960
519.7369, 0.6778640
520.2191, 0.5668750
520.7012, 0.4164920
521.1833, 0.3895800
521.6654, 0.4652370
522.1475, 0.4333990
522.6296, 0.1886020
523.1118, 4.4640001E-02
523.5939, 4.3747000E-02
524.0760, 0.4022790
524.5581, 0.6650510
525.0402, 0.7231940
525.5223, 0.7115550
526.0045, 0.7214200
526.4866, 0.7407530
526.9687, 0.7298470
527.4508, 0.6734620
527.9329, 0.5666160
528.4150, 0.3818890
528.8972, 1.3756000E-02
529.3793, 0.1455960
529.8614, 0.1290700
530.3435, 0.4953580
530.8256, 0.8714330
531.3077, 1.207973
531.7899, 1.418144
532.2720, 1.445030
532.7541, 1.341213
533.2362, 1.219471
533.7183, 1.029984
534.2004, 0.9627800
534.6826, 1.235886
535.1647, 1.495949
535.6468, 1.483898
536.1289, 1.237385
536.6110, 1.041985
537.0931, 1.120193
537.5753, 1.334648
538.0574, 1.437149
538.5395, 1.425453
539.0216, 1.354885
539.5037, 1.217007
539.9858, 1.061363
540.4680, 0.9659270
540.9501, 0.9294890
541.4322, 0.9391750
541.9143, 1.019588
542.3964, 1.125862
542.8785, 1.225441
543.3607, 1.310764
543.8428, 1.373520
544.3249, 1.409355
544.8070, 1.411209
545.2891, 1.351017
545.7712, 1.091843
546.2534, 0.9544140
546.7355, 1.072746
547.2176, 1.219112
547.6997, 1.184395
548.1818, 0.9962460
548.6639, 0.8603740
549.1461, 0.9620400
549.6282, 1.223782
550.1103, 1.293629
550.5924, 1.038177
551.0745, 0.9340710
551.5566, 1.366901
552.0388, 1.856625
552.5209, 1.966095
553.0030, 1.671635
553.4851, 1.411465
553.9672, 1.507816
554.4493, 1.774788
554.9315, 1.888889
555.4136, 1.834042
555.8957, 1.690208
556.3778, 1.450455
556.8599, 1.193169
557.3420, 1.162197
557.8242, 1.493084
558.3063, 1.685104
558.7884, 1.544910
559.2705, 1.292850
559.7526, 1.082958
560.2347, 0.9515650
560.7169, 0.9257280
561.1990, 1.036850
561.6811, 1.246529
562.1632, 1.372883
562.6453, 1.338863
563.1274, 1.355656
563.6096, 1.510983
564.0917, 1.686520
564.5738, 1.839642
565.0559, 1.938881
565.5380, 1.901676
566.0201, 1.588516
566.5023, 1.132225
566.9844, 0.9072110
567.4665, 0.9530410
567.9486, 0.9815180
568.4307, 0.8593480
568.9128, 0.7107510
569.3950, 0.7138980
569.8771, 0.8729440
570.3592, 0.9519230
570.8413, 0.7741280
571.3234, 0.5387150
571.8055, 0.4694670
572.2877, 0.5678980
572.7698, 0.7267150
573.2519, 0.8860360
573.7340, 1.024719
574.2161, 1.103119
574.6982, 1.110199
575.1804, 1.071342
575.6625, 0.9317890
576.1446, 0.8314900
576.6267, 0.9321250
577.1088, 1.129959
577.5909, 1.135368
578.0731, 0.7377470
578.5552, 0.1688460
579.0373, 3.7000000E-03
579.5194, 0.3134380
580.0015, 0.5169490
580.4836, 0.3795280
580.9658, 0.1884080
581.4479, 0.2265360
581.9300, 0.4465030
582.4121, 0.5778050
582.8942, 0.4365580
583.3763, 0.2295340
583.8585, 0.1615830
584.3406, 0.2030370
584.8227, 0.2543830
585.3048, 0.2894710
585.7869, 0.2761190
586.2690, 0.1449240
586.7512, 0.1718830
587.2333, 0.3257100
587.7154, 0.1805040
588.1975, 1.7829999E-02
588.6796, 0.1968380
589.1617, 0.3360980
589.6439, 0.4208370
590.1260, 0.4464760
590.6081, 0.4340740
591.0902, 0.4198340
591.5723, 0.4100270
592.0544, 0.3167270
592.5366, 2.1934999E-02
593.0187, 0.1770100
593.5008, 0.1139600
593.9829, 0.1111560
594.4650, 0.3939290
594.9471, 0.7604100
595.4293, 0.9882810
595.9114, 0.7784230
596.3935, 0.3192600
596.8756, 4.9178999E-02
597.3577, 3.5686001E-02
597.8398, 0.1653440
598.3220, 0.4007070
598.8041, 0.7074390
599.2862, 0.8421940
599.7683, 0.6896780
600.2504, 0.5501860
600.7325, 0.4166640
601.2147, 0.3505060
601.6968, 0.4892430
602.1789, 0.7841490
602.6610, 0.9669300
603.1431, 0.7830390
603.6252, 0.3518410
604.1074, 0.2245290
604.5895, 0.5149500
605.0716, 0.8250310
605.5537, 1.132133
606.0358, 1.361626
606.5179, 1.405121
607.0001, 1.291885
607.4822, 1.234467
607.9643, 1.390198
608.4464, 1.610191
608.9285, 1.705524
609.4106, 1.701855
609.8928, 1.734718
610.3749, 1.874722
610.8570, 2.003326
611.3391, 1.907806
611.8212, 1.467060
612.3033, 1.311455
612.7855, 1.613609
613.2676, 2.002628
613.7497, 2.406963
614.2318, 2.759602
614.7139, 2.956417
615.1960, 2.966908
615.6782, 2.901257
616.1603, 2.943478
616.6424, 3.107086
617.1245, 3.029984
617.6066, 2.562222
618.0887, 2.106350
618.5709, 1.846073
619.0530, 1.724422
619.5351, 1.686043
620.0172, 1.742424
620.4993, 1.792755
620.9814, 1.753975
621.4636, 1.684639
621.9457, 1.698494
622.4278, 1.796669
622.9099, 1.864059
623.3920, 1.831791
623.8741, 1.705090
624.3563, 1.495373
624.8384, 0.9065930
625.3205, 0.6851230
625.8026, 1.197296
626.2847, 1.749588
626.7668, 1.909512
627.2490, 1.717735
627.7311, 1.372494
628.2132, 0.9293400
628.6953, 0.5550650
629.1774, 0.6456870
629.6595, 1.226723
630.1417, 1.578674
630.6238, 1.504894
631.1059, 1.278774
631.5880, 1.065319
632.0701, 0.8793220
632.5522, 0.7892760
633.0344, 0.9145280
633.5165, 1.007725
633.9986, 0.8794860
634.4807, 0.6645580
634.9628, 0.6046030
635.4449, 0.7313540
635.9271, 0.8380580
636.4092, 0.7134170
636.8913, 0.3900530
637.3734, 0.2433740
637.8555, 0.3219150
638.3376, 0.4970550
638.8198, 0.8999980
639.3019, 1.267441
639.7840, 1.325626
640.2661, 1.115364
640.7482, 0.9753800
641.2303, 1.202122
641.7125, 1.548210
642.1946, 1.583351
642.6767, 1.335594
643.1588, 1.124191
643.6409, 1.044838
644.1230, 1.054321
644.6052, 1.104889
645.0873, 1.207077
645.5694, 1.302467
646.0515, 1.377331
646.5336, 1.451939
647.0157, 1.526226
647.4979, 1.611397
647.9800, 1.738129
648.4621, 1.906086
648.9442, 2.055946
649.4263, 2.115696
649.9084, 2.098148
650.3906, 2.127377
650.8727, 2.223572
651.3548, 2.303017
651.8369, 2.339676
652.3190, 2.334045
652.8011, 2.240654
653.2833, 2.057053
653.7654, 2.012741
654.2475, 2.269905
654.7296, 2.643497
655.2117, 3.029076
655.6938, 3.386230
656.1760, 3.584091
656.6581, 3.566994
657.1402, 3.474163
657.6223, 3.499615
658.1044, 3.647629
658.5865, 3.888302
659.0687, 4.401711
659.5508, 4.802376
660.0329, 4.867859
660.5150, 4.833290
660.9971, 4.988087
661.4792, 5.386501
661.9614, 5.819851
662.4435, 6.137817
662.9256, 6.372383
663.4077, 6.567978
663.8898, 6.716755
664.3719, 6.915779
664.8541, 7.245934
665.3362, 7.617523
665.8183, 7.851803
666.3004, 7.882408
666.7825, 7.985428
667.2646, 8.142715
667.7468, 8.402809
668.2289, 8.881279
668.7110, 9.451378
669.1931, 9.924332
669.6752, 10.23632
670.1573, 10.44181
670.6395, 10.52763
671.1216, 10.49522
671.6037, 10.50832
672.0858, 10.54732
672.5679, 10.71927
673.0500, 11.20385
673.5322, 11.75916
674.0143, 11.98756
674.4964, 11.82647
674.9785, 11.81429
675.4606, 12.29184
675.9427, 12.82011
676.4249, 12.97158
676.9070, 12.88154
677.3891, 12.99171
677.8712, 13.47776
678.3533, 14.06576
678.8354, 14.34107
679.3176, 14.26306
679.7997, 14.25229
680.2818, 14.36871
680.7639, 14.46289
681.2460, 14.47081
681.7281, 14.43288
682.2103, 14.41429
682.6924, 14.42621
683.1745, 14.35979
683.6566, 14.20238
684.1387, 13.90837
684.6208, 13.35110
685.1030, 12.59067
685.5851, 11.85462
686.0672, 11.23298
686.5493, 10.68856
687.0314, 10.15724
687.5135, 9.644688
687.9957, 9.125549
688.4778, 8.626598
688.9599, 8.089973
689.4420, 7.394695
689.9241, 6.710323
690.4063, 6.282166
690.8884, 6.135201
691.3705, 5.968090
691.8526, 5.519882
692.3347, 4.916348
692.8168, 4.336174
693.2990, 3.792000
693.7811, 3.446358
694.2632, 3.407101
694.7453, 3.442936
695.2274, 3.191631
695.7095, 2.553249
696.1917, 2.253929
696.6738, 2.570923
697.1559, 2.864548
697.6380, 2.972073
698.1201, 2.930710
698.6022, 2.773361
699.0844, 2.519196
699.5665, 2.210278
700.0486, 1.805489
700.5307, 1.406509
701.0128, 1.326134
701.4949, 1.574085
701.9771, 1.868790
702.4592, 2.175461
702.9413, 2.388634
703.4234, 2.349022
703.9055, 2.038860
704.3876, 1.778484
704.8698, 1.486992
705.3519, 1.344585
705.8340, 1.582218
706.3161, 1.907627
706.7982, 1.936272
707.2803, 1.659199
707.7625, 1.397152
708.2446, 1.398914
708.7267, 1.606018
709.2088, 1.901470
709.6909, 2.304104
710.1730, 2.585278
710.6552, 2.666550
711.1373, 2.657070
711.6194, 2.663883
712.1015, 2.671593
712.5836, 2.587025
713.0657, 2.400620
713.5479, 2.125122
714.0300, 1.641533
714.5121, 1.148876
714.9942, 0.8665620
715.4763, 0.7961810
715.9584, 0.8068240
716.4406, 0.8135570
716.9227, 0.8312190
717.4048, 0.9469870
717.8869, 1.196621
718.3690, 1.176056
718.8511, 0.6921420
719.3333, 0.1655650
719.8154, 0.1244620
720.2975, 0.2254680
720.7796, 0.2358700
721.2617, 9.4501004E-02
721.7438, 3.7880000E-03
722.2260, 9.2537001E-02
722.7081, 0.2182960
723.1902, 0.2444730
723.6723, 0.1802830
724.1544, 0.1092450
724.6365, 7.5934999E-02
725.1187, 3.8406000E-02
725.6008, 0.1286160
726.0829, 0.4497410
726.5650, 0.4992410
727.0471, 0.1039120
727.5292, 0.2398800
728.0114, 0.2162020
728.4935, 1.1589000E-02
728.9756, 7.3302999E-02
729.4577, 1.4609999E-03
729.9398, 5.1445000E-02
730.4219, 7.7412002E-02
730.9041, 1.1318000E-02
731.3862, 0.3536420
731.8683, 0.8260420
732.3504, 0.9602130
732.8325, 0.6135330
733.3146, 0.1118010
733.7968, 0.1474800
734.2789, 0.1795120
734.7610, 0.2250670
735.2431, 0.2970580
735.7252, 0.3422970
736.2073, 0.3286090
736.6895, 0.2904360
737.1716, 0.2742040
737.6537, 0.2781600
738.1358, 0.2522930
738.6179, 0.1565440
739.1000, 6.0982000E-02
739.5822, 1.3123000E-02
740.0643, 1.5163000E-02
740.5464, 8.6979002E-02
741.0285, 0.1994210
741.5106, 0.2564010
741.9927, 0.1575850
742.4749, 2.8206000E-02
742.9570, 6.9260001E-02
743.4391, 4.8728999E-02
743.9212, 0.2398190
744.4033, 0.5773890
744.8854, 0.8471110
745.3676, 0.8066480
745.8497, 0.5501480
746.3318, 0.3835030
746.8139, 0.3638730
747.2960, 0.3829230
747.7781, 0.4159740
748.2603, 0.4668050
748.7424, 0.5578310
749.2245, 0.6707420
749.7066, 0.7528840
750.1887, 0.7770580
750.6708, 0.7628630
751.1530, 0.7346380
751.6351, 0.6930010
752.1172, 0.6582030
752.5993, 0.6353870
753.0814, 0.6046790
753.5635, 0.5463910
754.0457, 0.4792750
754.5278, 0.4131810
755.0099, 0.3050580
755.4920, 0.3828810
755.9741, 0.8974760
756.4562, 1.372509
756.9384, 1.549232
757.4205, 1.516109
757.9026, 1.384689
758.3847, 1.204113
758.8668, 1.058880
759.3489, 1.065815
759.8311, 1.152302
760.3132, 1.042492
760.7953, 0.7288700
761.2774, 0.6250110
761.7595, 0.9100150
762.2416, 1.298172
762.7238, 1.509689
763.2059, 1.547714
763.6880, 1.563820
764.1701, 1.497047
764.6522, 1.492561
765.1343, 1.666893
765.6165, 1.839378
766.0986, 1.805630
766.5807, 1.634781
767.0628, 1.577419
767.5449, 1.774757
768.0270, 2.060429
768.5092, 2.198242
768.9913, 2.255623
769.4734, 2.520714
769.9555, 3.028301
770.4376, 3.428871
770.9197, 3.488220
771.4019, 3.372257
771.8840, 3.462734
772.3661, 3.871563
772.8482, 4.167591
773.3303, 4.229340
773.8124, 4.327286
774.2946, 4.557755
774.7767, 4.872166
775.2588, 5.234848
775.7409, 5.633965
776.2230, 5.980789
776.7051, 6.150047
777.1873, 6.291279
777.6694, 6.575466
778.1515, 6.979141
778.6336, 7.440998
779.1157, 7.949692
779.5978, 8.451443
780.0800, 8.876236
780.5621, 9.241039
781.0442, 9.727283
781.5263, 10.48092
782.0084, 11.01819
782.4905, 10.97387
782.9727, 10.99419
783.4548, 11.59813
783.9369, 12.55325
784.4190, 13.27591
784.9011, 13.58564
785.3832, 13.79796
785.8654, 14.04576
786.3475, 14.33242
786.8296, 14.64292
787.3117, 14.97016
787.7938, 15.31448
788.2759, 15.67698
788.7581, 16.04141
789.2402, 16.34108
789.7223, 16.58313
790.2044, 17.01385
790.6865, 17.70588
791.1686, 18.28921
791.6508, 18.59652
792.1329, 18.75008
792.6150, 18.93521
793.0971, 19.15334
793.5792, 19.06554
794.0613, 18.39462
794.5435, 17.74755
795.0256, 17.33672
795.5077, 17.01830
795.9898, 16.71398
796.4719, 16.37022
796.9540, 15.85950
797.4362, 15.06781
797.9183, 14.19921
798.4004, 13.48666
798.8825, 12.93704
799.3646, 12.69824
799.8467, 12.79803
800.3289, 12.63375
800.8110, 11.79958
801.2931, 10.62334
801.7752, 9.781128
802.2573, 9.355373
802.7394, 8.969349
803.2216, 8.655888
803.7037, 8.341938
804.1858, 8.009270
804.6679, 7.662823
805.1500, 7.295963
805.6321, 6.910831
806.1143, 6.559643
806.5964, 6.236584
807.0785, 5.986336
807.5606, 5.943901
808.0427, 5.976475
808.5248, 5.764313
809.0070, 5.283752
809.4891, 4.855297
809.9712, 4.756283
810.4533, 4.825573
810.9354, 4.610779
811.4175, 4.070946
811.8997, 3.544136
812.3818, 2.961430
812.8639, 2.618935
813.3460, 2.833511
813.8281, 3.336758
814.3102, 3.578026
814.7924, 3.544621
815.2745, 3.323109
815.7566, 2.621716
816.2387, 2.063374
816.7208, 2.096775
817.2029, 2.406284
817.6851, 2.565380
818.1672, 2.495239
818.6493, 2.387253
819.1314, 2.409958
819.6135, 2.446579
820.0956, 2.262119
820.5778, 1.911552
821.0599, 1.641537
821.5420, 1.504330
822.0241, 1.425293
822.5062, 1.346836
822.9883, 1.287075
823.4705, 1.317852
823.9526, 1.525452
824.4347, 1.632076
824.9168, 1.528084
825.3989, 1.432117
825.8810, 1.457157
826.3632, 1.537430
826.8453, 1.592266
827.3274, 1.613129
827.8095, 1.597668
828.2916, 1.537132
828.7737, 1.404430
829.2559, 1.080330
829.7380, 0.7436030
830.2201, 0.7240100
830.7022, 1.028614
831.1843, 1.331367
831.6664, 1.394073
832.1486, 1.303806
832.6307, 1.229076
833.1128, 1.184891
833.5949, 1.215061
834.0770, 1.319046
834.5591, 1.363663
835.0413, 1.297859
835.5233, 1.158485
836.0054, 1.029778
836.4875, 0.8815570
836.9697, 0.8045960
837.4518, 0.8371320
837.9339, 0.8948400
838.4160, 1.014530
838.8981, 1.105259
839.3802, 1.019344
839.8624, 0.7826350
840.3445, 0.6427120
840.8266, 0.7951050
841.3087, 0.9944380
841.7908, 1.076523
842.2729, 1.046566
842.7551, 0.8480680
843.2372, 0.5340000
843.7193, 0.3579940
844.2014, 0.4782450
844.6835, 0.7167430
845.1656, 0.6929660
845.6478, 0.4092640
846.1299, 0.4999240
846.6120, 1.132328
847.0941, 1.542980
847.5762, 1.300953
848.0583, 0.8046460
848.5405, 0.6387140
849.0226, 0.8535920
849.5047, 0.9199030
849.9868, 0.6190910
850.4689, 0.4624060
850.9510, 0.6975480
851.4332, 1.011009
851.9153, 1.132935
852.3974, 1.098602
852.8795, 1.101337
853.3616, 1.235413
853.8438, 1.356792
854.3259, 1.370728
854.8080, 1.292049
855.2901, 1.086349
855.7722, 0.8017770
856.2543, 0.6133840
856.7365, 0.5892600
857.2186, 0.5946460
857.7007, 0.4466130
858.1828, 0.1770440
858.6649, 1.4847000E-02
859.1470, 4.0977001E-02
859.6292, 3.0964000E-02
860.1113, 0.2900890
860.5934, 0.5635450
861.0755, 0.7007370
861.5576, 0.7248230
862.0397, 0.7564960
862.5219, 0.8567960
863.0040, 0.8624800
863.4861, 0.7180900
863.9682, 0.5296400
864.4503, 0.3061830
864.9324, 9.3594000E-02
865.4146, 6.2775001E-02
865.8967, 0.1502610
866.3788, 0.1421240
866.8609, 7.7170998E-02
867.3430, 0.3088420
867.8251, 0.3176460
868.3073, 0.2094570
868.7894, 0.2131650
869.2715, 0.3529700
869.7536, 0.4599230
870.2357, 0.4005740
870.7178, 0.3046610
871.2000, 0.5429990
871.6821, 1.095444
872.1642, 1.179436
872.6463, 0.6416590
873.1284, 0.1628270
873.6105, 7.1200997E-02
874.0927, 0.1961250
874.5748, 0.2904210
875.0569, 0.3531300
875.5390, 0.4002530
876.0211, 0.4850770
876.5032, 0.4816090
876.9854, 0.2496110
877.4675, 2.7481001E-02
877.9496, 1.5938001E-02
878.4317, 0.1661640
878.9138, 0.3175200
879.3959, 0.4604340
879.8781, 0.5013810
880.3602, 0.3056340
880.8423, 5.5073000E-02
881.3244, 0.1077080
881.8065, 0.1743130
882.2886, 0.1468430
882.7708, 3.3031002E-02
883.2529, 0.1233480
883.7350, 0.3447270
884.2171, 0.5232620
884.6992, 0.2913820
885.1813, 0.2752300
885.6635, 0.5220220
886.1456, 0.3109740
886.6277, 4.0104002E-02
887.1098, 1.5469000E-02
887.5919, 6.4381003E-02
888.0740, 7.2192997E-02
888.5562, 2.6508000E-02
889.0383, 6.7913003E-02
889.5204, 5.5346999E-02
890.0025, 2.3216000E-02
890.4846, 0.3150220
890.9667, 0.5717580
891.4489, 0.4498180
891.9310, 1.2035000E-02
892.4131, 0.2795370
892.8952, 9.4818003E-02
893.3773, 5.4836001E-02
893.8594, 2.8988000E-02
894.3416, 9.4700001E-02
894.8237, 0.3586960
895.3058, 0.6460530
895.7879, 0.6973460
896.2700, 0.4173620
896.7521, 8.2611002E-02
897.2343, 0.1182750
897.7164, 0.2202000
898.1985, 0.2569160
898.6806, 0.2406120
899.1627, 0.1776730
899.6448, 8.0208004E-02
900.1270, 3.3268001E-02
900.6091, 0.1210210
901.0912, 0.2709880
901.5733, 0.2883530
902.0554, 0.1713750
902.5375, 2.9686000E-02
903.0197, 0.1348040
903.5018, 0.2862820
903.9839, 0.4071460
904.4660, 0.5042080
904.9481, 0.5801430
905.4302, 0.6282810
905.9124, 0.7199630
906.3945, 0.8899730
906.8766, 1.053070
907.3587, 1.152302
907.8408, 1.279179
908.3229, 1.593651
908.8051, 1.976288
909.2872, 2.094326
909.7693, 1.791588
910.2514, 1.524544
910.7335, 1.426285
911.2156, 1.458145
911.6978, 1.679111
912.1799, 1.973255
912.6620, 2.165985
913.1441, 2.230328
913.6262, 2.254780
914.1083, 2.259716
914.5905, 2.323845
915.0726, 2.599834
915.5547, 3.004074
916.0368, 3.331505
916.5189, 3.565807
917.0010, 3.823383
917.4832, 4.174614
917.9653, 4.457859
918.4474, 4.380600
918.9295, 3.996189
919.4116, 3.913639
919.8937, 4.179005
920.3759, 4.422688
920.8580, 4.551182
921.3401, 4.641006
921.8222, 4.750778
922.3043, 4.874664
922.7864, 4.997284
923.2686, 5.160126
923.7507, 5.212048
924.2328, 5.008160
924.7149, 4.886871
925.1970, 4.987064
925.6791, 5.184399
926.1613, 5.341068
926.6434, 5.456612
927.1255, 5.615509
927.6076, 5.975380
928.0897, 6.202591
928.5718, 5.970901
929.0540, 5.729412
929.5361, 5.894341
930.0182, 6.363331
930.5003, 6.899910
930.9824, 7.419552
931.4645, 7.778198
931.9467, 7.726288
932.4288, 7.553345
932.9109, 7.723545
933.3930, 8.037525
933.8751, 7.874916
934.3572, 7.246368
934.8394, 6.965954
935.3215, 7.592003
935.8036, 8.579597
936.2857, 8.962769
936.7678, 8.834354
937.2499, 8.866554
937.7321, 9.087902
938.2142, 9.328957
938.6963, 9.532078
939.1784, 9.710407
939.6605, 9.872608
940.1426, 10.04417
940.6248, 10.34934
941.1069, 10.79398
941.5890, 11.36748
942.0711, 12.25825
942.5532, 12.95148
943.0353, 12.98864
943.5175, 12.77736
943.9996, 13.03805
944.4817, 13.82013
944.9638, 14.45116
945.4459, 14.90377
945.9280, 15.19438
946.4102, 15.13130
946.8923, 15.08731
947.3744, 15.41152
947.8565, 15.95305
948.3386, 16.28554
948.8207, 16.25137
949.3029, 16.44249
949.7850, 17.45092
950.2671, 18.44482
950.7492, 18.81282
951.2313, 18.80078
951.7134, 18.71521
952.1956, 18.66245
952.6777, 18.77395
953.1598, 19.18502
953.6419, 19.52927
954.1240, 19.38510
954.6061, 18.91102
955.0883, 18.33708
955.5704, 17.69603
956.0525, 16.98019
956.5346, 16.20296
957.0167, 15.51846
957.4988, 15.11879
957.9810, 14.81379
958.4631, 14.05843
958.9452, 12.88466
959.4273, 11.69873
959.9094, 10.54169
960.3915, 9.678463
960.8737, 9.271988
961.3558, 9.054199
961.8379, 8.655258
962.3200, 8.079979
962.8021, 7.491863
963.2842, 6.846184
963.7664, 6.313740
964.2485, 5.905392
964.7306, 5.661686
965.2127, 5.666885
965.6948, 5.812183
966.1769, 5.860165
966.6591, 5.784416
967.1412, 5.714256
967.6233, 5.644585
968.1054, 5.595192
968.5875, 5.475933
969.0696, 5.447720
969.5518, 5.611397
970.0339, 5.975300
970.5160, 6.533962
970.9981, 7.262741
971.4802, 8.253716
971.9623, 9.575325
972.4445, 11.11209
972.9266, 12.98053
973.4087, 14.91202
973.8908, 16.64332
974.3729, 18.10783
974.8550, 19.23145
975.3372, 19.97388
975.8193, 20.43871
976.3014, 20.44067
976.7835, 20.42174
977.2656, 20.92796
977.7477, 21.77762
978.2299, 22.45223
978.7120, 22.86539
979.1941, 23.48122
979.6762, 24.70870
980.1583, 26.19682
980.6404, 27.46347
981.1226, 28.58820
981.6047, 29.73336
982.0868, 30.91975
982.5689, 32.14330
983.0510, 33.41940
983.5331, 34.67887
984.0153, 35.82643
984.4974, 36.91869
984.9795, 38.10250
985.4616, 39.38222
985.9437, 40.95119
986.4258, 42.85775
986.9080, 44.63787
987.3901, 46.18828
987.8722, 46.83519
988.3543, 45.48718
988.8364, 42.18857
989.3185, 37.87605
989.8007, 32.22659
990.2828, 27.01923
990.7649, 22.43113
991.2470, 18.75900
991.7291, 16.32594
992.2112, 14.77589
992.6934, 13.34573
993.1755, 12.00352
993.6576, 11.00342
994.1397, 10.53043
994.6218, 10.07502
995.1039, 9.460964
995.5861, 8.903759
996.0682, 8.584858
996.5503, 8.447880
997.0324, 8.359257
997.5145, 8.382458
997.9966, 8.255360
998.4788, 7.692402
998.9609, 7.318924
999.4430, 7.477856
999.9251, 7.793549
1000.407, 8.002464
1000.889, 8.072422
1001.371, 7.969685
1001.854, 7.626236
1002.336, 7.294357
1002.818, 7.044823
1003.300, 6.833786
1003.782, 6.713940
1004.264, 6.566895
1004.746, 6.204689
1005.228, 5.671883
1005.711, 5.235256
1006.193, 5.028008
1006.675, 4.830814
1007.157, 4.569221
1007.639, 4.208225
1008.121, 3.613640
1008.603, 2.941696
1009.085, 2.438740
1009.567, 2.147152
1010.050, 2.007088
1010.532, 2.037823
1011.014, 2.050636
1011.496, 1.759651
1011.978, 1.409817
1012.460, 1.427723
1012.942, 1.674343
1013.424, 1.773430
1013.906, 1.622192
1014.389, 1.288280
1014.871, 0.7521930
1015.353, 0.2533070
1015.835, 0.2370300
1016.317, 0.4890330
1016.799, 0.4515610
1017.281, 0.1724170
1017.763, 7.4665003E-02
1018.246, 0.2830620
1018.728, 0.5384750
1019.210, 0.6208720
1019.692, 0.5630530
1020.174, 0.3943940
1020.656, 0.1417390
1021.138, 9.1259003E-02
1021.620, 0.2868000
1022.102, 0.3293500
1022.585, 0.1721230
1023.067, 4.2766999E-02
1023.549, 0.1827390
1024.031, 0.2407570
1024.513, 0.1567460
1024.995, 6.3956998E-02
1025.477, 0.1651040
1025.959, 0.1163710
1026.442, 7.7891998E-02
1026.924, 0.1184690
1027.406, 0.1844860
1027.888, 0.2123340
1028.370, 0.2136840
1028.852, 0.2743870
1029.334, 0.4231220
1029.816, 0.3815770
1030.298, 5.8894999E-02
1030.781, 0.1445200
1031.263, 6.6450001E-03
1031.745, 0.2032360
1032.227, 1.6174000E-02
1032.709, 0.4770200
1033.191, 0.5631870
1033.673, 6.1501000E-02
1034.155, 0.2203060
1034.638, 0.1407550
1035.120, 2.0385999E-02
1035.602, 7.8090001E-03
1036.084, 8.5180001E-03
1036.566, 1.4465000E-02
1037.048, 9.5520001E-03
1037.530, 1.4900000E-02
1038.012, 0.1009140
1038.495, 0.1043280
1038.977, 0.1086920
1039.459, 0.1981890
1039.941, 0.1128080
1040.423, 0.5125660
1040.905, 0.5657310
1041.387, 0.2917790
1041.869, 0.1637310
1042.351, 0.3086660
1042.833, 0.3875620
1043.316, 0.2551160
1043.798, 0.2078290
1044.280, 0.5115930
1044.762, 0.8751410
1045.244, 0.8836820
1045.726, 0.5654910
1046.208, 0.4514310
1046.690, 0.7358630
1047.173, 0.9580570
1047.655, 1.106750
1048.137, 1.158863
1048.619, 1.051582
1049.101, 0.8776970
1049.583, 0.7120820
1050.065, 0.5885470
1050.547, 0.5803300
1051.030, 0.7811550
1051.512, 0.9248620
1051.994, 0.9818080
1052.476, 0.9984550
1052.958, 0.9318890
1053.440, 0.8570290
1053.922, 0.8462870
1054.404, 0.9209290
1054.886, 1.098206
1055.369, 1.532082
1055.851, 1.784096
1056.333, 1.561668
1056.815, 1.352116
1057.297, 1.481670
1057.779, 1.721210
1058.261, 1.761955
1058.743, 1.633038
1059.225, 1.613750
1059.708, 1.851284
1060.190, 2.019417
1060.672, 1.909409
1061.154, 1.837193
1061.636, 2.071148
1062.118, 2.372356
1062.600, 2.410305
1063.082, 2.231739
1063.565, 2.153687
1064.047, 2.265957
1064.529, 2.462429
1065.011, 2.808563
1065.493, 3.108143
1065.975, 3.269451
1066.457, 3.308392
1066.939, 3.189232
1067.422, 2.969048
1067.904, 2.805958
1068.386, 2.729992
1068.868, 2.772736
1069.350, 3.054844
1069.832, 3.334682
1070.314, 3.402607
1070.796, 3.446808
1071.278, 3.626812
1071.760, 3.974274
1072.243, 4.539513
1072.725, 5.369846
1073.207, 6.153263
1073.689, 6.842514
1074.171, 7.341198
1074.653, 7.558697
1075.135, 7.590439
1075.617, 7.429424
1076.100, 7.190022
1076.582, 7.093880
1077.064, 7.197769
1077.546, 7.439590
1078.028, 7.805614
1078.510, 8.286572
1078.992, 8.938179
1079.474, 9.638294
1079.957, 10.36891
1080.439, 11.05096
1080.921, 11.47551
1081.403, 11.60095
1081.885, 11.82573
1082.367, 12.24714
1082.849, 12.90816
1083.331, 13.95304
1083.813, 15.13195
1084.296, 16.12251
1084.778, 17.12677
1085.260, 18.85513
1085.742, 21.26418
1086.224, 22.70436
1086.706, 22.57183
1087.188, 21.23114
1087.670, 18.18259
1088.152, 14.68872
1088.635, 11.25187
1089.117, 8.227673
1089.599, 6.113087
1090.081, 4.875790
1090.563, 3.851292
1091.045, 2.759388
1091.527, 1.975300
1092.009, 1.865726
1092.491, 1.876450
1092.974, 1.625069
1093.456, 1.284695
1093.938, 1.111824
1094.420, 1.088181
1094.902, 1.003101
1095.384, 0.7624280
1095.866, 0.5800970
1096.348, 0.5798190
1096.831, 0.5990100
1097.313, 0.5358580
1097.795, 0.4821360
1098.277, 0.5549890
1098.759, 0.6916010
1099.241, 0.6808090
1099.723, 0.4441800
1100.205, 0.2797660
1100.688, 0.3598140
1101.170, 0.4202040
1101.652, 0.2945290
1102.134, 0.1630780
1102.616, 0.1911390
1103.098, 0.3210070
1103.580, 0.4213070
1104.062, 0.4714240
1104.544, 0.5279430
1105.026, 0.6680950
1105.509, 0.7245220
1105.991, 0.6481320
1106.473, 0.4785880
1106.955, 0.1217120
1107.437, 0.2533230
1107.919, 0.3522000
1108.401, 0.1756020
1108.883, 0.1074370
1109.366, 0.3561970
1109.848, 0.4837040
1110.330, 0.3841860
1110.812, 0.2044790
1111.294, 7.1213000E-02
1111.776, 0.3304900
1112.258, 0.4432030
1112.740, 0.4281430
1113.223, 0.4136010
1113.705, 0.4218640
1114.187, 0.3967820
1114.669, 0.3249130
1115.151, 0.2368810
1115.633, 8.6571001E-02
1116.115, 3.1219000E-02
1116.597, 2.3690001E-03
1117.079, 0.1222950
1117.562, 0.1300890
1118.044, 3.8685001E-02
1118.526, 4.4682000E-02
1119.008, 0.2181430
1119.490, 0.4679150
1119.972, 0.7188800
1120.454, 0.8519250
1120.936, 0.7112580
1121.418, 0.4804950
1121.901, 0.4903910
1122.383, 0.7466200
1122.865, 0.8607480
1123.347, 0.7534750
1123.829, 0.7076610
1124.311, 0.7516980
1124.793, 0.8587650
1125.275, 1.015591
1125.758, 1.241055
1126.240, 1.616734
1126.722, 2.059826
1127.204, 2.078304
1127.686, 1.538486
1128.168, 1.224087
1128.650, 1.183376
1129.132, 1.307323
1129.615, 1.608719
1130.097, 1.886162
1130.579, 1.966805
1131.061, 1.926617
1131.543, 1.938709
1132.025, 2.003559
1132.507, 2.132595
1132.989, 2.328991
1133.471, 2.555836
1133.953, 2.818401
1134.436, 2.933929
1134.918, 2.781815
1135.400, 2.552063
1135.882, 2.509277
1136.364, 2.622746
1136.846, 2.801174
1137.328, 3.025799
1137.810, 3.118370
1138.293, 3.068920
1138.775, 2.997356
1139.257, 2.948952
1139.739, 2.916595
1140.221, 2.895519
1140.703, 2.880295
1141.185, 2.879765
1141.667, 2.871277
1142.150, 2.769348
1142.632, 2.591496
1143.114, 2.397835
1143.596, 2.220863
1144.078, 2.158329
1144.560, 2.277027
1145.042, 2.408005
1145.524, 2.345795
1146.006, 2.175930
1146.489, 1.987415
1146.971, 1.813812
1147.453, 1.795399
1147.935, 1.852020
1148.417, 1.604385
1148.899, 0.9500540
1149.381, 0.5050810
1149.863, 0.9314840
1150.345, 1.456814
1150.828, 1.303837
1151.310, 0.9304730
1151.792, 0.7943420
1152.274, 0.8725620
1152.756, 1.084698
1153.238, 1.379761
1153.720, 1.641605
1154.202, 1.856316
1154.685, 1.931179
1155.167, 1.692535
1155.649, 1.443199
1156.131, 1.428303
1156.613, 1.463455
1157.095, 1.268520
1157.577, 0.9562870
1158.059, 0.8996770
1158.542, 1.202507
1159.024, 1.459328
1159.506, 1.592007
1159.988, 1.653469
1160.470, 1.591461
1160.952, 1.523933
1161.434, 1.552189
1161.916, 1.610966
1162.398, 1.585629
1162.880, 1.462852
1163.363, 1.314159
1163.845, 0.9684370
1164.327, 0.9430890
1164.809, 1.486504
1165.291, 1.908569
1165.773, 2.014645
1166.255, 1.962643
1166.737, 1.828510
1167.220, 1.620621
1167.702, 1.403946
1168.184, 1.178566
1168.666, 1.134846
1169.148, 1.339066
1169.630, 1.408226
1170.112, 1.250099
1170.594, 1.103466
1171.077, 1.101906
1171.559, 1.099487
1172.041, 0.8806920
1172.523, 0.5596620
1173.005, 0.6456910
1173.487, 1.090096
1173.969, 1.219349
1174.451, 1.028687
1174.933, 1.010651
1175.416, 1.288845
1175.898, 1.521511
1176.380, 1.483555
1176.862, 1.295872
1177.344, 1.073357
1177.826, 0.8419270
1178.308, 0.6218720
1178.790, 0.4507640
1179.272, 0.4318960
1179.755, 0.5678830
1180.237, 0.8637470
1180.719, 1.294346
1181.201, 1.564175
1181.683, 1.380512
1182.165, 1.087276
1182.647, 0.9492150
1183.129, 0.9459230
1183.612, 1.142586
1184.094, 1.396503
1184.576, 1.543694
1185.058, 1.547653
1185.540, 1.372246
1186.022, 0.9539150
1186.504, 0.6370160
1186.986, 0.6008450
1187.469, 0.6650770
1187.951, 0.8411220
1188.433, 0.9781460
1188.915, 0.8305440
1189.397, 0.6221470
1189.879, 0.8364450
1190.361, 1.495316
1190.843, 1.865112
1191.325, 1.722122
1191.807, 1.550030
1192.290, 1.304474
1192.772, 1.137508
1193.254, 1.117725
1193.736, 1.175735
1194.218, 1.302845
1194.700, 1.417233
1195.182, 1.277550
1195.664, 0.8450620
1196.147, 0.6912040
1196.629, 0.8779600
1197.111, 1.024151
1197.593, 1.081738
1198.075, 0.9970440
1198.557, 0.7085490
1199.039, 0.4902800
1199.521, 0.6946750
1200.004, 1.097157
1200.486, 1.023811
1200.968, 0.5855330
1201.450, 0.3201140
1201.932, 0.2415010
1202.414, 0.3106540
1202.896, 0.4990350
1203.378, 0.7160150
1203.860, 0.9100650
1204.343, 1.056873
1204.825, 1.160934
1205.307, 1.175522
1205.789, 0.9683530
1206.271, 0.6774060
1206.753, 0.4880220
1207.235, 0.3933600
1207.717, 0.3255390
1208.199, 0.2803690
1208.682, 0.3458370
1209.164, 0.6045950
1209.646, 0.8432960
1210.128, 0.9010470
1210.610, 0.9721070
1211.092, 1.331322
1211.574, 1.615589
1212.056, 1.331032
1212.539, 0.7520450
1213.021, 0.5326840
1213.503, 0.7599910
1213.985, 0.8902820
1214.467, 0.7618870
1214.949, 0.7545090
1215.431, 1.109303
1215.913, 1.184353
1216.396, 0.5516400
1216.878, 0.1078910
1217.360, 0.1362000
1217.842, 0.2110100
1218.324, 0.2684020
1218.806, 2.8805001E-02
1219.288, 0.2176510
1219.770, 0.4806440
1220.252, 0.5024600
1220.734, 0.2437900
1221.217, 1.7780000E-03
1221.699, 9.1605999E-02
1222.181, 0.2053380
1222.663, 0.5351830
1223.145, 0.8966030
1223.627, 0.9236370
1224.109, 0.7311820
1224.591, 0.5825350
1225.074, 0.4609760
1225.556, 0.3888320
1226.038, 0.3533820
1226.520, 0.2883450
1227.002, 0.1699140
1227.484, 6.2438998E-02
1227.966, 1.4236000E-02
1228.448, 5.6759999E-03
1228.931, 5.5325001E-02
1229.413, 0.1183780
1229.895, 0.1745610
1230.377, 0.2017060
1230.859, 0.1455920
1231.341, 4.2376999E-02
1231.823, 2.2259001E-02
1232.305, 0.1029740
1232.787, 0.2546920
1233.270, 0.5708240
1233.752, 0.8196720
1234.234, 1.019321
1234.716, 1.034946
1235.198, 0.6736110
1235.680, 0.2535630
1236.162, 0.1979790
1236.644, 0.4361880
1237.126, 0.6437030
1237.609, 0.8236160
1238.091, 0.9258690
1238.573, 0.9501460
1239.055, 0.8444020
1239.537, 0.6073760
1240.019, 0.3333820
1240.501, 6.2893003E-02
1240.983, 8.1436001E-02
1241.466, 6.6359997E-02
1241.948, 0.3497890
1242.430, 0.5726930
1242.912, 0.6973920
1243.394, 0.5432620
1243.876, 0.2312430
1244.358, 3.6571998E-02
1244.840, 1.6303999E-02
1245.323, 0.1643600
1245.805, 0.5127260
1246.287, 0.7131310
1246.769, 0.3611220
1247.251, 6.8274997E-02
1247.733, 0.2624740
1248.215, 0.5822910
1248.697, 0.8087810
1249.179, 0.9258000
1249.661, 0.8504830
1250.144, 0.7074660
1250.626, 0.5502240
1251.108, 0.2588770
1251.590, 0.3219910
1252.072, 0.9168700
1252.554, 1.289837
1253.036, 1.255596
1253.518, 1.036377
1254.001, 0.7081150
1254.483, 0.3727490
1254.965, 0.1293640
1255.447, 8.3349999E-03
1255.929, 0.1455000
1256.411, 0.4786870
1256.893, 0.5941810
1257.375, 0.5304370
1257.858, 0.3871690
1258.340, 0.2210770
1258.822, 0.3354990
1259.304, 0.8661580
1259.786, 1.279919
1260.268, 0.9930040
1260.750, 0.5529710
1261.232, 0.4679950
1261.714, 0.5062520
1262.197, 0.5954550
1262.679, 0.6439550
1263.161, 0.5101970
1263.643, 0.2904280
1264.125, 0.2798120
1264.607, 0.4811710
1265.089, 0.6373630
1265.571, 0.7297740
1266.053, 0.6984370
1266.536, 0.3592000
1267.018, 0.1720050
1267.500, 0.4049070
1267.982, 0.6723630
1268.464, 0.6153030
1268.946, 0.3914720
1269.428, 0.4246600
1269.910, 0.6632730
1270.393, 0.8063350
1270.875, 0.9026490
1271.357, 0.8679430
1271.839, 0.7098540
1272.321, 0.5833210
1272.803, 0.5161550
1273.285, 0.4298970
1273.767, 0.2681580
1274.250, 0.1253780
1274.732, 0.1734620
1275.214, 0.3148500
1275.696, 0.3929980
1276.178, 0.4105220
1276.660, 0.2327500
1277.142, 8.8689998E-03
1277.624, 1.6933000E-02
1278.106, 0.1952100
1278.589, 0.3481480
1279.071, 0.3372800
1279.553, 0.2604900
1280.035, 0.1550980
1280.517, 0.1053960
1280.999, 5.7743002E-02
1281.481, 0.0000000E+00
##END=



