##NAMES=Dachiardite-Na
##RRUFFID=R061116
##IDEAL CHEMISTRY=Na_4_(Si_20_Al_4_)O_48_&#183;13H_2_O
##LOCALITY=Alpe di Siusi, Bolzano, Trentino-Alto Adige, Italy
##OWNER=RRUFF
##SOURCE=Michael Scott
##DESCRIPTION=Salmon colored radiating crystals
##STATUS=The identification of this mineral is not yet confirmed.
##URL=rruff.info/R061116
153.5564, 0.0000000E+00
154.0385, 8.032715
154.5206, 19.91431
155.0028, 27.95142
155.4849, 31.49927
155.9670, 33.06689
156.4491, 39.09839
156.9312, 45.69458
157.4133, 41.76221
157.8955, 26.69092
158.3776, 11.94092
158.8597, 1.625977
159.3418, 3.484863
159.8239, 5.301025
160.3060, 4.049805
160.7882, 1.6357001E-02
161.2703, 6.468750
161.7524, 19.22266
162.2345, 31.67358
162.7166, 39.10864
163.1987, 37.59253
163.6808, 36.95386
164.1630, 44.39062
164.6451, 57.10132
165.1272, 66.54834
165.6093, 64.43604
166.0914, 58.96777
166.5735, 57.77759
167.0557, 66.41357
167.5378, 75.99536
168.0199, 79.55811
168.5020, 77.98560
168.9841, 76.81885
169.4662, 79.91309
169.9484, 85.40601
170.4305, 90.98145
170.9126, 98.49316
171.3947, 104.1565
171.8768, 102.1387
172.3589, 92.41455
172.8411, 83.98975
173.3232, 88.39844
173.8053, 99.26294
174.2874, 103.9565
174.7695, 82.60254
175.2516, 57.23486
175.7338, 62.84326
176.2159, 105.2915
176.6980, 150.7498
177.1801, 162.5173
177.6622, 148.5774
178.1443, 135.2544
178.6264, 138.9849
179.1086, 152.4653
179.5907, 160.9236
180.0728, 162.0093
180.5549, 160.4792
181.0370, 161.5078
181.5191, 164.9973
182.0013, 170.6555
182.4834, 180.6863
182.9655, 192.9360
183.4476, 201.1646
183.9297, 203.3403
184.4118, 202.4673
184.8940, 202.1497
185.3761, 202.4951
185.8582, 206.4358
186.3403, 218.5447
186.8224, 237.2441
187.3046, 254.4875
187.7867, 269.4807
188.2688, 281.5835
188.7509, 286.7454
189.2330, 284.1025
189.7151, 283.6335
190.1973, 297.9070
190.6794, 325.6692
191.1615, 348.9202
191.6436, 360.6123
192.1257, 364.0479
192.6078, 375.6858
193.0900, 397.5532
193.5721, 419.7068
194.0542, 428.7017
194.5363, 424.1487
195.0184, 422.3389
195.5005, 430.7661
195.9826, 448.1941
196.4648, 459.9656
196.9469, 465.3101
197.4290, 466.4790
197.9111, 463.5229
198.3932, 454.9585
198.8753, 453.7776
199.3575, 468.2915
199.8396, 499.3862
200.3217, 526.3206
200.8038, 549.7354
201.2859, 567.5437
201.7680, 573.8730
202.2502, 566.5039
202.7323, 557.6655
203.2144, 553.8057
203.6965, 556.0305
204.1786, 554.4858
204.6607, 546.9763
205.1429, 537.0906
205.6250, 534.8936
206.1071, 543.2998
206.5892, 550.4368
207.0713, 548.7041
207.5534, 535.8330
208.0356, 525.1875
208.5177, 518.4563
208.9998, 514.3540
209.4819, 507.9182
209.9640, 497.6453
210.4461, 488.4143
210.9282, 483.7183
211.4104, 484.1941
211.8925, 484.4260
212.3746, 483.5945
212.8567, 481.9521
213.3388, 481.2024
213.8209, 481.7522
214.3031, 482.6497
214.7852, 483.9939
215.2673, 487.7329
215.7494, 486.5071
216.2315, 477.8506
216.7136, 462.1812
217.1958, 446.0725
217.6779, 426.3701
218.1600, 411.5195
218.6421, 409.9390
219.1242, 427.4551
219.6063, 444.2637
220.0885, 456.5688
220.5706, 464.2637
221.0527, 474.0181
221.5348, 487.5088
222.0169, 501.3037
222.4990, 510.2615
222.9812, 506.4473
223.4633, 514.9348
223.9454, 547.5872
224.4275, 608.8965
224.9096, 644.4307
225.3917, 647.9021
225.8739, 632.2407
226.3560, 613.0215
226.8381, 593.0562
227.3202, 563.8420
227.8023, 520.7197
228.2844, 461.3508
228.7665, 404.2261
229.2487, 346.3555
229.7308, 294.0972
230.2129, 257.3774
230.6950, 245.4033
231.1771, 233.7087
231.6592, 213.4321
232.1414, 179.8433
232.6235, 159.0017
233.1056, 156.9434
233.5877, 163.9790
234.0698, 163.6118
234.5519, 146.8186
235.0341, 137.3948
235.5162, 146.6111
235.9983, 185.4976
236.4804, 204.9075
236.9625, 193.7168
237.4446, 168.3594
237.9268, 159.6821
238.4089, 177.0786
238.8910, 196.8662
239.3731, 210.5283
239.8552, 215.3511
240.3373, 221.5615
240.8195, 229.1619
241.3016, 238.1228
241.7837, 248.7070
242.2658, 261.3357
242.7479, 274.9680
243.2300, 289.8904
243.7122, 308.8040
244.1943, 322.5667
244.6764, 331.8384
245.1585, 335.7139
245.6406, 332.2461
246.1227, 320.9397
246.6048, 303.0288
247.0870, 277.4353
247.5691, 236.8611
248.0512, 205.5396
248.5333, 187.7551
249.0154, 178.2930
249.4975, 162.8716
249.9797, 139.6812
250.4618, 113.2375
250.9439, 83.66260
251.4260, 43.24243
251.9081, 18.60889
252.3902, 16.03052
252.8724, 28.11963
253.3545, 32.51221
253.8366, 25.24976
254.3187, 16.79565
254.8008, 11.64331
255.2829, 8.977295
255.7651, 12.15918
256.2472, 23.52734
256.7293, 40.44141
257.2114, 54.46436
257.6935, 65.27466
258.1756, 73.71826
258.6577, 79.81860
259.1399, 82.97363
259.6220, 85.64551
260.1041, 87.79126
260.5862, 89.62305
261.0683, 91.79956
261.5504, 94.54688
262.0326, 97.36694
262.5147, 100.4634
262.9968, 104.9419
263.4789, 104.9883
263.9610, 98.53418
264.4431, 87.87671
264.9253, 82.32251
265.4074, 86.47656
265.8895, 85.69751
266.3716, 67.14185
266.8537, 21.81641
267.3358, 4.162109
267.8180, 1.585938
268.3001, 19.58130
268.7822, 28.97144
269.2643, 23.58301
269.7464, 13.63965
270.2285, 3.904785
270.7107, 6.064941
271.1928, 12.73389
271.6749, 15.02832
272.1570, 14.34692
272.6391, 15.31641
273.1212, 19.01318
273.6034, 20.68774
274.0855, 16.68408
274.5676, 6.232422
275.0497, 5.212402
275.5318, 17.96851
276.0139, 30.70996
276.4961, 38.43481
276.9782, 38.98438
277.4603, 39.56714
277.9424, 48.00659
278.4245, 65.66260
278.9066, 69.46606
279.3888, 52.01611
279.8709, 26.28735
280.3530, 26.62476
280.8351, 57.08081
281.3172, 88.39160
281.7993, 98.43726
282.2815, 87.48486
282.7636, 86.11646
283.2457, 98.73535
283.7278, 119.3425
284.2099, 135.7280
284.6920, 147.6360
285.1741, 160.1682
285.6563, 178.2568
286.1384, 201.9578
286.6205, 213.3640
287.1026, 209.7837
287.5847, 201.4402
288.0668, 205.6567
288.5490, 219.1802
289.0311, 241.8440
289.5132, 283.1934
289.9953, 333.6714
290.4774, 361.9756
290.9595, 357.1948
291.4417, 338.4753
291.9238, 330.9661
292.4059, 333.9885
292.8880, 339.4919
293.3701, 344.9731
293.8522, 349.2507
294.3344, 348.0308
294.8165, 340.8350
295.2986, 328.7957
295.7807, 309.1096
296.2628, 284.0376
296.7449, 264.8938
297.2271, 262.4822
297.7092, 269.6023
298.1913, 271.6770
298.6734, 267.0874
299.1555, 260.3989
299.6376, 258.7742
300.1198, 259.7605
300.6019, 255.5625
301.0840, 238.8613
301.5661, 215.6721
302.0482, 194.0400
302.5303, 174.0884
303.0125, 156.6992
303.4946, 142.2537
303.9767, 130.8518
304.4588, 122.4192
304.9409, 117.0295
305.4230, 114.6450
305.9052, 118.7517
306.3873, 130.9675
306.8694, 137.5068
307.3515, 119.2258
307.8336, 88.54932
308.3157, 65.14087
308.7979, 65.36035
309.2800, 70.98853
309.7621, 64.79736
310.2442, 45.90332
310.7263, 32.56323
311.2084, 43.76123
311.6906, 64.89111
312.1727, 77.34302
312.6548, 67.79004
313.1369, 52.74365
313.6190, 39.52856
314.1011, 28.39722
314.5833, 21.81372
315.0654, 24.61206
315.5475, 31.00757
316.0296, 35.37549
316.5117, 34.75635
316.9938, 32.94116
317.4760, 31.41162
317.9580, 30.07520
318.4402, 27.91016
318.9223, 20.32324
319.4044, 14.06567
319.8865, 14.18311
320.3686, 30.03613
320.8507, 43.79541
321.3329, 49.78833
321.8150, 49.25952
322.2971, 50.10522
322.7792, 60.83447
323.2613, 68.77783
323.7434, 66.74683
324.2256, 39.54419
324.7077, 19.10498
325.1898, 10.50317
325.6719, 11.64258
326.1540, 13.67773
326.6361, 15.44995
327.1183, 18.51611
327.6004, 23.76562
328.0825, 35.87695
328.5646, 43.18530
329.0467, 44.94067
329.5288, 41.90283
330.0110, 35.54077
330.4931, 23.60669
330.9752, 10.63306
331.4573, 1.822998
331.9394, 14.29321
332.4215, 24.23096
332.9037, 33.54541
333.3858, 39.83911
333.8679, 37.69580
334.3500, 22.38843
334.8321, 7.434082
335.3142, 3.368896
335.7964, 10.05371
336.2785, 12.19189
336.7606, 8.724121
337.2427, 2.051758
337.7248, 6.624268
338.2069, 20.16602
338.6891, 24.52612
339.1712, 11.61938
339.6533, 17.30957
340.1354, 36.28223
340.6175, 44.57056
341.0996, 44.29150
341.5818, 33.85376
342.0639, 12.50024
342.5460, 3.474609
343.0281, 10.46851
343.5102, 36.98779
343.9923, 3.567383
344.4745, 15.61157
344.9566, 21.32129
345.4387, 26.77759
345.9208, 5.418457
346.4029, 11.91260
346.8850, 19.55981
347.3672, 11.54102
347.8493, 28.79053
348.3314, 1.671631
348.8135, 3.861816
349.2956, 18.98535
349.7777, 6.091309
350.2599, 0.2563480
350.7419, 7.124023
351.2241, 21.07324
351.7062, 40.36865
352.1883, 63.45117
352.6704, 84.70703
353.1525, 104.3301
353.6346, 118.4214
354.1168, 120.6440
354.5989, 108.2173
355.0810, 91.95166
355.5631, 77.93750
356.0452, 66.71338
356.5273, 59.41016
357.0095, 64.16797
357.4916, 68.13184
357.9737, 58.20996
358.4558, 31.52979
358.9379, 8.365723
359.4200, 0.2788090
359.9022, 0.8295900
360.3843, 5.608398
360.8664, 19.22510
361.3485, 29.71582
361.8306, 30.92090
362.3127, 22.73047
362.7949, 12.12598
363.2770, 6.397949
363.7591, 22.60596
364.2412, 28.11084
364.7233, 10.79248
365.2054, 6.275879
365.6876, 20.04150
366.1697, 30.27930
366.6518, 35.06104
367.1339, 26.51904
367.6160, 17.75342
368.0981, 15.76172
368.5803, 28.80029
369.0624, 37.80371
369.5445, 39.58447
370.0266, 37.11719
370.5087, 39.74316
370.9908, 56.19971
371.4730, 66.54102
371.9551, 60.17041
372.4372, 25.96094
372.9193, 8.737305
373.4014, 15.32080
373.8835, 33.63281
374.3657, 43.21533
374.8478, 40.03320
375.3299, 39.75586
375.8120, 50.21680
376.2941, 71.73730
376.7762, 79.65625
377.2584, 68.81299
377.7405, 56.14600
378.2226, 64.73535
378.7047, 95.53857
379.1868, 120.9897
379.6689, 134.2339
380.1511, 136.7002
380.6332, 127.9287
381.1153, 106.5688
381.5974, 93.24414
382.0795, 115.4126
382.5616, 163.2314
383.0438, 194.5806
383.5259, 196.8667
384.0080, 187.1309
384.4901, 191.8037
384.9722, 208.9399
385.4543, 225.6982
385.9364, 231.9858
386.4185, 233.6733
386.9007, 240.5449
387.3828, 255.2480
387.8649, 270.5015
388.3470, 279.2656
388.8291, 283.5127
389.3112, 287.6802
389.7934, 291.8174
390.2755, 298.0020
390.7576, 308.1699
391.2397, 322.9775
391.7218, 339.5674
392.2039, 358.7871
392.6861, 378.9912
393.1682, 398.1519
393.6503, 423.6401
394.1324, 439.4902
394.6145, 432.4521
395.0966, 404.8218
395.5788, 387.5674
396.0609, 393.2842
396.5430, 408.4639
397.0251, 425.2778
397.5072, 450.7124
397.9893, 467.9429
398.4715, 473.9751
398.9536, 470.9575
399.4357, 464.7656
399.9178, 447.6777
400.3999, 435.1030
400.8820, 434.2051
401.3642, 448.6523
401.8463, 464.1997
402.3284, 481.6548
402.8105, 496.6826
403.2926, 499.4844
403.7747, 487.1050
404.2569, 480.8350
404.7390, 488.2500
405.2211, 511.1313
405.7032, 534.6597
406.1853, 564.3184
406.6674, 592.7871
407.1496, 611.6807
407.6317, 620.7803
408.1138, 638.3110
408.5959, 676.1260
409.0780, 718.8140
409.5602, 722.3530
410.0423, 687.2290
410.5244, 648.7251
411.0065, 638.4512
411.4886, 644.1353
411.9707, 628.7471
412.4529, 582.7163
412.9350, 529.7090
413.4171, 501.5303
413.8992, 490.5405
414.3813, 475.9966
414.8634, 443.8516
415.3456, 404.6167
415.8277, 366.7695
416.3098, 330.1934
416.7919, 302.0474
417.2740, 294.3779
417.7561, 295.2065
418.2382, 289.6904
418.7203, 271.4253
419.2025, 246.9927
419.6846, 213.7861
420.1667, 174.1499
420.6488, 144.2236
421.1309, 134.9116
421.6130, 131.6021
422.0952, 126.6401
422.5773, 121.8066
423.0594, 113.5981
423.5415, 95.30615
424.0236, 73.21973
424.5057, 61.53418
424.9879, 68.67676
425.4700, 77.23682
425.9521, 82.97363
426.4342, 85.94385
426.9163, 84.58740
427.3984, 74.04541
427.8806, 64.12207
428.3627, 69.29150
428.8448, 98.14160
429.3269, 114.0283
429.8090, 106.2979
430.2911, 79.57178
430.7733, 55.04395
431.2554, 30.93506
431.7375, 17.24854
432.2196, 26.79199
432.7017, 57.56201
433.1838, 82.24902
433.6660, 97.11133
434.1481, 105.3423
434.6302, 111.1787
435.1123, 114.5571
435.5944, 115.1162
436.0765, 113.8550
436.5587, 109.3003
437.0408, 94.13672
437.5229, 67.21533
438.0050, 47.89404
438.4871, 59.35889
438.9692, 87.68799
439.4514, 111.4399
439.9335, 120.2402
440.4156, 124.5972
440.8977, 130.6904
441.3798, 138.0952
441.8619, 145.1094
442.3441, 148.8809
442.8262, 153.3501
443.3083, 161.7915
443.7904, 177.8906
444.2725, 191.3188
444.7546, 193.4048
445.2368, 192.1646
445.7189, 202.1411
446.2010, 237.0254
446.6831, 271.1914
447.1652, 296.4492
447.6473, 310.6538
448.1295, 332.9683
448.6116, 367.8745
449.0937, 406.4409
449.5758, 440.6333
450.0579, 469.2065
450.5400, 495.8867
451.0221, 518.8911
451.5042, 541.0156
451.9864, 571.5933
452.4685, 610.1909
452.9506, 660.1826
453.4327, 728.0908
453.9148, 811.8965
454.3969, 889.4771
454.8791, 957.2021
455.3612, 1025.708
455.8433, 1110.180
456.3254, 1208.641
456.8075, 1309.738
457.2896, 1411.823
457.7718, 1511.832
458.2539, 1599.790
458.7360, 1677.179
459.2181, 1751.781
459.7002, 1828.450
460.1823, 1906.242
460.6645, 1983.979
461.1466, 2064.990
461.6287, 2138.701
462.1108, 2198.989
462.5929, 2247.766
463.0750, 2287.626
463.5572, 2328.801
464.0393, 2353.605
464.5214, 2357.222
465.0035, 2341.317
465.4856, 2290.750
465.9677, 2184.214
466.4499, 2051.159
466.9320, 1918.082
467.4141, 1782.367
467.8962, 1653.108
468.3783, 1531.091
468.8604, 1415.724
469.3426, 1307.113
469.8247, 1201.858
470.3068, 1107.380
470.7889, 1029.240
471.2710, 969.6714
471.7531, 905.6997
472.2353, 834.5254
472.7174, 764.3862
473.1995, 707.4663
473.6816, 663.4639
474.1637, 626.7939
474.6458, 598.1279
475.1280, 573.8105
475.6101, 549.2412
476.0922, 525.7114
476.5743, 498.3296
477.0564, 452.7505
477.5385, 403.1924
478.0207, 379.4248
478.5028, 395.9888
478.9849, 413.7373
479.4670, 391.5156
479.9491, 345.3276
480.4312, 307.6333
480.9134, 300.3916
481.3955, 302.4019
481.8776, 304.6719
482.3597, 305.1582
482.8418, 300.2524
483.3239, 290.4575
483.8060, 276.5767
484.2881, 258.9922
484.7703, 224.7266
485.2524, 203.5259
485.7345, 207.5679
486.2166, 224.5854
486.6987, 225.2417
487.1808, 200.0083
487.6630, 175.0132
488.1451, 159.7607
488.6272, 155.4121
489.1093, 150.0693
489.5914, 141.7134
490.0735, 134.1431
490.5557, 134.5361
491.0378, 143.0444
491.5199, 150.9702
492.0020, 157.3745
492.4841, 157.9907
492.9662, 148.8267
493.4484, 132.6777
493.9305, 121.0718
494.4126, 125.9214
494.8947, 138.6382
495.3768, 145.6865
495.8589, 145.8853
496.3411, 142.2354
496.8232, 131.9697
497.3053, 120.7764
497.7874, 116.6279
498.2695, 130.5781
498.7516, 144.6533
499.2338, 154.4204
499.7159, 158.7632
500.1980, 152.1372
500.6801, 115.3115
501.1622, 79.97412
501.6443, 62.02051
502.1265, 68.45752
502.6086, 80.32520
503.0907, 106.2446
503.5728, 132.2808
504.0549, 140.1357
504.5370, 120.8330
505.0192, 101.2417
505.5013, 85.43945
505.9834, 73.44043
506.4655, 66.49268
506.9476, 65.95654
507.4297, 65.13037
507.9119, 57.72607
508.3940, 44.63232
508.8761, 38.63672
509.3582, 42.02881
509.8403, 46.57910
510.3224, 38.70459
510.8046, 22.57080
511.2867, 12.63770
511.7688, 23.19922
512.2509, 38.16650
512.7330, 29.06299
513.2151, 1.654785
513.6973, 24.64795
514.1794, 14.05371
514.6615, 10.23633
515.1436, 34.22656
515.6257, 59.37061
516.1078, 73.00732
516.5900, 59.65479
517.0721, 35.25000
517.5542, 21.00293
518.0363, 26.91162
518.5184, 36.10645
519.0005, 47.80859
519.4827, 61.35352
519.9648, 69.34863
520.4469, 71.67871
520.9290, 68.30225
521.4111, 58.35645
521.8932, 40.67285
522.3754, 19.75195
522.8575, 8.289063
523.3396, 31.61084
523.8217, 26.37646
524.3038, 6.702637
524.7859, 30.60156
525.2681, 31.01172
525.7502, 17.33301
526.2323, 8.460938
526.7144, 3.862305
527.1965, 0.8037110
527.6786, 12.66943
528.1608, 24.60596
528.6429, 26.43018
529.1250, 15.08887
529.6071, 1.767090
530.0892, 11.64697
530.5714, 21.21484
531.0535, 21.67041
531.5356, 6.555664
532.0176, 25.82227
532.4998, 21.09082
532.9819, 4.661621
533.4640, 30.47119
533.9461, 71.21729
534.4282, 96.04492
534.9103, 88.46143
535.3925, 33.95752
535.8746, 3.150391
536.3567, 19.84814
536.8388, 23.04688
537.3209, 17.02344
537.8030, 0.4755860
538.2852, 8.384766
538.7673, 2.702637
539.2494, 21.90186
539.7315, 18.41992
540.2136, 6.569336
540.6957, 32.00879
541.1779, 49.58545
541.6600, 57.54785
542.1421, 46.88086
542.6242, 15.39844
543.1063, 10.27344
543.5884, 1.545898
544.0706, 22.83154
544.5527, 38.92822
545.0348, 35.72656
545.5169, 27.65283
545.9990, 13.28223
546.4811, 1.981445
546.9633, 3.771973
547.4454, 40.89648
547.9275, 71.51025
548.4096, 56.68262
548.8917, 14.20703
549.3738, 45.86914
549.8560, 16.18115
550.3381, 26.37744
550.8202, 40.53516
551.3023, 17.50293
551.7844, 7.735352
552.2665, 19.61768
552.7487, 41.60547
553.2308, 52.01709
553.7129, 51.21973
554.1950, 47.68750
554.6771, 45.70996
555.1592, 43.24365
555.6414, 34.11230
556.1235, 18.97266
556.6056, 5.649414
557.0877, 2.772461
557.5698, 5.143066
558.0519, 1.989258
558.5341, 23.63770
559.0162, 41.64600
559.4983, 43.50830
559.9804, 36.81592
560.4625, 31.80322
560.9446, 28.72803
561.4268, 29.89600
561.9089, 39.06055
562.3910, 54.50146
562.8731, 64.27686
563.3552, 68.51709
563.8373, 66.65186
564.3195, 55.65771
564.8016, 32.51025
565.2837, 21.16650
565.7658, 23.69873
566.2479, 32.96240
566.7300, 44.56641
567.2122, 57.53662
567.6943, 61.81152
568.1764, 54.43652
568.6585, 38.45654
569.1406, 9.168457
569.6227, 27.30713
570.1049, 47.77539
570.5870, 26.95850
571.0691, 7.439941
571.5512, 34.41504
572.0333, 54.21240
572.5154, 64.38232
572.9976, 52.75098
573.4797, 36.67725
573.9618, 29.63135
574.4439, 42.55713
574.9260, 50.52783
575.4081, 49.21191
575.8903, 42.31689
576.3724, 33.53516
576.8545, 15.97119
577.3366, 12.03271
577.8187, 34.04980
578.3008, 74.21045
578.7830, 86.75977
579.2651, 67.83838
579.7472, 45.89746
580.2293, 38.02783
580.7114, 41.74805
581.1935, 51.47607
581.6757, 69.95410
582.1578, 86.58496
582.6399, 83.79395
583.1220, 70.22119
583.6041, 60.67969
584.0862, 62.30859
584.5684, 65.35645
585.0505, 62.01465
585.5326, 54.68994
586.0147, 50.47363
586.4968, 58.74268
586.9789, 65.87842
587.4611, 64.50537
587.9432, 52.73096
588.4253, 48.16504
588.9074, 55.62842
589.3895, 64.14648
589.8716, 66.91455
590.3538, 64.63672
590.8359, 61.60449
591.3180, 54.42090
591.8001, 48.91797
592.2822, 57.63232
592.7643, 78.94385
593.2465, 91.67188
593.7286, 84.34961
594.2107, 68.87256
594.6928, 64.58203
595.1749, 71.19580
595.6570, 86.34668
596.1392, 118.9604
596.6213, 150.1895
597.1034, 161.2383
597.5854, 151.5601
598.0676, 142.8960
598.5497, 142.3208
599.0318, 144.3057
599.5139, 144.8320
599.9960, 145.7695
600.4781, 141.1763
600.9603, 121.7324
601.4424, 101.4146
601.9245, 103.7227
602.4066, 138.5190
602.8887, 163.0283
603.3708, 162.6104
603.8530, 145.6548
604.3351, 145.2397
604.8172, 162.2026
605.2993, 179.5195
605.7814, 181.0708
606.2635, 174.7988
606.7457, 177.3579
607.2278, 189.4761
607.7099, 203.6743
608.1920, 214.6206
608.6741, 219.0767
609.1563, 212.9297
609.6384, 182.6567
610.1205, 163.8521
610.6026, 183.7388
611.0847, 220.5864
611.5668, 235.0249
612.0490, 184.4785
612.5311, 157.4380
613.0132, 183.8379
613.4953, 252.6514
613.9774, 278.8169
614.4595, 250.8271
614.9417, 211.2681
615.4238, 180.4028
615.9059, 158.7622
616.3880, 146.9033
616.8701, 145.0576
617.3522, 146.7017
617.8344, 146.6440
618.3165, 145.0259
618.7986, 141.9951
619.2807, 137.2739
619.7628, 131.8848
620.2449, 128.4443
620.7271, 124.6138
621.2092, 116.2837
621.6913, 87.57617
622.1734, 68.88574
622.6555, 78.25146
623.1376, 111.1436
623.6198, 130.1675
624.1019, 130.4102
624.5840, 121.2598
625.0661, 101.1694
625.5482, 66.77051
626.0303, 61.85742
626.5125, 95.54248
626.9946, 130.0205
627.4767, 121.0420
627.9588, 76.96143
628.4409, 50.50049
628.9230, 52.60986
629.4052, 62.85400
629.8873, 57.70215
630.3694, 44.23633
630.8515, 37.57666
631.3336, 51.28369
631.8157, 66.38135
632.2979, 73.45898
632.7800, 73.25830
633.2621, 68.37354
633.7442, 51.10303
634.2263, 37.27930
634.7084, 34.00146
635.1906, 42.18262
635.6727, 49.45752
636.1548, 57.11133
636.6369, 61.84912
637.1190, 58.78711
637.6011, 46.99268
638.0833, 45.62549
638.5654, 58.29932
639.0475, 72.80371
639.5296, 66.83936
640.0117, 49.06787
640.4938, 50.82324
640.9760, 95.71436
641.4581, 140.6406
641.9402, 139.5391
642.4223, 107.4126
642.9044, 80.83643
643.3865, 82.27295
643.8687, 85.34717
644.3508, 75.39404
644.8329, 52.50781
645.3150, 40.81445
645.7971, 48.68311
646.2792, 59.42871
646.7614, 64.85791
647.2435, 63.54150
647.7256, 66.81738
648.2077, 75.58545
648.6898, 86.40576
649.1719, 96.60205
649.6541, 105.9888
650.1362, 113.2695
650.6183, 119.4702
651.1004, 119.5918
651.5825, 97.69238
652.0646, 65.89600
652.5468, 49.23633
653.0289, 75.07520
653.5110, 102.3047
653.9931, 108.6328
654.4752, 98.82666
654.9573, 89.24756
655.4395, 75.09375
655.9216, 70.67236
656.4037, 84.34619
656.8858, 116.6870
657.3679, 138.0146
657.8500, 145.3066
658.3322, 149.7056
658.8143, 157.5063
659.2964, 167.0239
659.7785, 169.1543
660.2606, 163.6528
660.7427, 149.2847
661.2249, 111.8198
661.7070, 66.18311
662.1891, 46.56445
662.6712, 71.98535
663.1533, 103.1792
663.6354, 113.7314
664.1175, 111.1875
664.5996, 108.5728
665.0817, 113.5576
665.5638, 114.4004
666.0460, 104.1245
666.5281, 86.42041
667.0102, 75.27979
667.4923, 71.13916
667.9744, 77.49170
668.4565, 100.6401
668.9387, 136.5962
669.4208, 145.5859
669.9029, 126.9595
670.3850, 101.8091
670.8671, 84.05225
671.3492, 72.15674
671.8314, 52.66260
672.3135, 21.90771
672.7956, 6.977539
673.2777, 50.05713
673.7598, 110.0498
674.2419, 141.1841
674.7241, 110.8179
675.2062, 83.67188
675.6883, 69.79590
676.1704, 69.28662
676.6525, 84.46387
677.1346, 135.7573
677.6168, 159.8442
678.0989, 136.5410
678.5810, 82.26611
679.0631, 43.93994
679.5452, 21.29785
680.0273, 15.68115
680.5095, 40.49170
680.9916, 78.28613
681.4737, 89.33643
681.9558, 76.61719
682.4379, 64.04932
682.9200, 63.16504
683.4022, 72.35400
683.8843, 95.22559
684.3664, 136.4541
684.8485, 162.3623
685.3306, 150.2915
685.8127, 129.1729
686.2949, 121.8789
686.7770, 143.4092
687.2591, 142.6558
687.7412, 108.4829
688.2233, 67.62695
688.7054, 62.10156
689.1876, 90.53174
689.6697, 108.1128
690.1518, 102.4150
690.6339, 85.76221
691.1160, 72.62598
691.5981, 63.06152
692.0803, 57.19385
692.5624, 50.42773
693.0445, 51.59131
693.5266, 74.65674
694.0087, 112.9370
694.4908, 136.7866
694.9730, 125.3032
695.4551, 111.7241
695.9372, 108.3599
696.4193, 115.2993
696.9014, 115.4199
697.3835, 105.6025
697.8657, 97.17334
698.3478, 100.6299
698.8299, 113.9551
699.3120, 118.6035
699.7941, 113.5366
700.2762, 103.0732
700.7584, 87.32520
701.2405, 70.04883
701.7226, 57.01660
702.2047, 48.98389
702.6868, 45.34961
703.1689, 54.70068
703.6511, 66.91260
704.1332, 69.85107
704.6153, 50.93945
705.0974, 35.73486
705.5795, 23.01611
706.0616, 16.50928
706.5438, 29.41211
707.0259, 67.38867
707.5080, 91.28076
707.9901, 85.80518
708.4722, 62.51953
708.9543, 52.27783
709.4365, 54.41455
709.9186, 60.28418
710.4007, 71.62402
710.8828, 79.61084
711.3649, 73.66504
711.8470, 54.96094
712.3292, 36.93750
712.8113, 18.91895
713.2934, 7.661621
713.7755, 11.39648
714.2576, 35.76123
714.7397, 38.36670
715.2219, 5.384277
715.7040, 25.94287
716.1861, 23.58203
716.6682, 12.79150
717.1503, 35.79590
717.6324, 42.02100
718.1146, 41.33203
718.5967, 44.99951
719.0788, 49.99170
719.5609, 50.34131
720.0430, 43.82959
720.5251, 34.47070
721.0073, 18.41699
721.4894, 3.043457
721.9715, 1.830078
722.4536, 22.25049
722.9357, 36.74316
723.4178, 36.14453
723.9000, 24.12109
724.3821, 5.419434
724.8642, 23.99365
725.3463, 41.43896
725.8284, 35.75684
726.3105, 17.52246
726.7927, 18.54883
727.2748, 34.39111
727.7569, 37.92285
728.2390, 4.850098
728.7211, 53.98340
729.2032, 67.61719
729.6853, 49.49805
730.1674, 32.50537
730.6495, 29.43457
731.1317, 30.29053
731.6138, 31.43164
732.0959, 33.09326
732.5780, 30.12500
733.0601, 19.22852
733.5422, 9.922852
734.0244, 9.400879
734.5065, 17.27100
734.9886, 25.74756
735.4707, 34.79590
735.9528, 42.69092
736.4349, 50.41113
736.9171, 55.06592
737.3992, 50.28564
737.8813, 32.15723
738.3634, 15.07227
738.8455, 8.017090
739.3276, 5.398926
739.8098, 1.345215
740.2919, 13.12988
740.7740, 17.45850
741.2561, 9.050293
741.7382, 8.024414
742.2203, 33.11523
742.7025, 68.32520
743.1846, 82.17920
743.6667, 60.44678
744.1488, 27.40967
744.6309, 25.24072
745.1130, 46.13721
745.5952, 66.31396
746.0773, 79.22168
746.5594, 84.20508
747.0415, 73.77930
747.5236, 54.27539
748.0057, 44.61279
748.4879, 62.55664
748.9700, 76.32275
749.4521, 76.91553
749.9342, 66.26270
750.4163, 54.23828
750.8984, 39.27881
751.3806, 29.76758
751.8627, 34.00049
752.3448, 46.18408
752.8269, 43.18018
753.3090, 26.89258
753.7911, 18.17920
754.2733, 41.17627
754.7554, 71.57861
755.2375, 87.62646
755.7196, 87.25586
756.2017, 82.52734
756.6838, 75.78271
757.1660, 66.45361
757.6481, 53.47461
758.1302, 35.37939
758.6123, 18.15088
759.0944, 3.234863
759.5765, 11.12305
760.0587, 27.96191
760.5408, 99.81055
761.0229, 122.1382
761.5050, 82.79932
761.9871, 31.71729
762.4692, 8.602539
762.9514, 3.314453
763.4335, 4.934082
763.9156, 16.70703
764.3977, 22.21729
764.8798, 1.814453
765.3619, 19.30127
765.8441, 9.864746
766.3262, 52.24023
766.8083, 87.39746
767.2904, 82.55420
767.7725, 58.49512
768.2546, 44.01221
768.7368, 38.99756
769.2189, 42.31494
769.7010, 56.53320
770.1831, 73.19824
770.6652, 88.13721
771.1473, 98.15674
771.6295, 97.17822
772.1116, 66.70898
772.5937, 43.00977
773.0758, 45.42285
773.5579, 60.36279
774.0400, 56.62451
774.5222, 22.70654
775.0043, 1.173828
775.4864, 6.453613
775.9685, 29.10986
776.4506, 43.01709
776.9327, 48.84082
777.4149, 51.56934
777.8970, 51.24365
778.3791, 50.92529
778.8612, 56.19727
779.3433, 64.97998
779.8254, 68.99805
780.3076, 59.03516
780.7897, 49.80957
781.2718, 47.70898
781.7539, 52.06348
782.2360, 58.47998
782.7181, 68.37109
783.2003, 71.49219
783.6824, 60.20703
784.1645, 40.31006
784.6466, 33.68848
785.1287, 38.18994
785.6108, 50.06299
786.0930, 78.68164
786.5751, 106.9019
787.0572, 117.0200
787.5393, 108.5488
788.0214, 97.89697
788.5035, 84.16211
788.9857, 75.65771
789.4678, 77.57227
789.9499, 90.97461
790.4320, 106.1157
790.9141, 126.3921
791.3962, 139.6255
791.8784, 130.2056
792.3605, 105.2568
792.8426, 102.5244
793.3247, 123.8633
793.8068, 141.5293
794.2889, 120.5986
794.7711, 92.58398
795.2531, 93.10449
795.7352, 134.0581
796.2173, 167.5503
796.6995, 183.5361
797.1816, 186.7920
797.6637, 176.0757
798.1458, 140.2124
798.6279, 134.4126
799.1100, 166.5034
799.5922, 206.1470
800.0743, 222.6602
800.5564, 221.4424
801.0385, 219.1206
801.5206, 218.0273
802.0027, 214.8760
802.4849, 201.7500
802.9670, 188.4434
803.4491, 185.1987
803.9312, 202.4897
804.4133, 211.7031
804.8954, 203.7446
805.3776, 193.2944
805.8597, 196.2090
806.3418, 215.6543
806.8239, 224.0625
807.3060, 218.0474
807.7881, 205.4473
808.2703, 193.1172
808.7524, 181.6299
809.2345, 169.9341
809.7166, 153.1836
810.1987, 150.8511
810.6808, 193.7432
811.1630, 248.0493
811.6451, 273.6841
812.1272, 245.8643
812.6093, 220.6982
813.0914, 196.7300
813.5735, 178.8701
814.0557, 177.9058
814.5378, 193.0264
815.0199, 199.8369
815.5020, 193.2612
815.9841, 180.0195
816.4662, 165.8447
816.9484, 150.3535
817.4305, 132.4336
817.9126, 104.2334
818.3947, 90.40674
818.8768, 113.7778
819.3589, 150.6143
819.8411, 168.2734
820.3232, 160.6733
820.8053, 146.5830
821.2874, 121.5698
821.7695, 102.6929
822.2516, 130.7515
822.7338, 191.8115
823.2159, 221.1714
823.6980, 196.3188
824.1801, 156.5845
824.6622, 126.1523
825.1443, 104.9082
825.6265, 93.19043
826.1086, 99.04443
826.5907, 104.4077
827.0728, 108.8281
827.5549, 110.5737
828.0370, 106.0713
828.5192, 94.42627
829.0013, 84.37500
829.4834, 80.41553
829.9655, 75.74268
830.4476, 54.27246
830.9297, 25.96777
831.4119, 9.998047
831.8940, 12.62305
832.3761, 28.57715
832.8582, 76.09717
833.3403, 128.7207
833.8224, 142.6665
834.3046, 81.71484
834.7867, 47.83936
835.2688, 57.73975
835.7509, 88.57324
836.2330, 105.1836
836.7151, 108.4517
837.1973, 105.7222
837.6794, 97.47217
838.1615, 87.33398
838.6436, 77.68262
839.1257, 69.11279
839.6078, 62.69238
840.0900, 67.40088
840.5721, 62.60449
841.0542, 30.84131
841.5363, 5.229492
842.0184, 13.47559
842.5005, 12.95020
842.9827, 32.83594
843.4648, 40.16797
843.9469, 42.74316
844.4290, 67.23828
844.9111, 103.5234
845.3932, 127.2075
845.8754, 131.4351
846.3575, 122.0859
846.8396, 88.88037
847.3217, 49.56055
847.8038, 27.51172
848.2859, 36.19873
848.7681, 43.94434
849.2502, 51.81299
849.7323, 55.13281
850.2144, 44.01953
850.6965, 20.68164
851.1786, 3.753418
851.6608, 3.559082
852.1429, 4.163086
852.6250, 1.877930
853.1071, 11.47949
853.5892, 21.24219
854.0714, 33.87109
854.5535, 39.49170
855.0356, 29.42578
855.5177, 15.42871
855.9998, 9.379395
856.4819, 11.64697
856.9641, 21.04932
857.4462, 39.54053
857.9283, 56.68213
858.4104, 60.57959
858.8925, 53.99463
859.3746, 39.06152
859.8568, 12.50928
860.3389, 5.260742
860.8210, 1.858887
861.3030, 19.71484
861.7852, 36.63281
862.2673, 56.29004
862.7494, 62.39160
863.2315, 50.50928
863.7136, 34.47705
864.1957, 25.09229
864.6779, 22.22949
865.1600, 29.30908
865.6421, 47.31543
866.1242, 57.81299
866.6063, 31.13721
867.0884, 0.5830080
867.5706, 3.265625
868.0527, 38.36084
868.5348, 60.79443
869.0169, 48.63574
869.4990, 28.64111
869.9811, 16.11426
870.4633, 11.16797
870.9454, 8.985352
871.4275, 9.592285
871.9096, 12.42627
872.3917, 20.95654
872.8738, 29.40430
873.3560, 29.32764
873.8381, 20.19189
874.3202, 10.79248
874.8023, 9.7167999E-02
875.2844, 5.936035
875.7665, 4.643066
876.2487, 3.777832
876.7308, 26.28809
877.2129, 67.60938
877.6950, 98.52588
878.1771, 93.29492
878.6592, 66.55811
879.1414, 46.49268
879.6235, 32.99805
880.1056, 23.85791
880.5877, 20.88037
881.0698, 19.17578
881.5519, 14.62451
882.0341, 8.155762
882.5162, 8.863281
882.9983, 19.59033
883.4804, 29.68115
883.9625, 34.08984
884.4446, 36.03564
884.9268, 52.48926
885.4089, 78.28418
885.8910, 85.19043
886.3731, 29.67725
886.8552, 23.67041
887.3373, 28.66309
887.8195, 2.338867
888.3016, 33.04785
888.7837, 67.56738
889.2658, 86.36426
889.7479, 80.22510
890.2300, 61.46973
890.7122, 60.43359
891.1943, 74.44482
891.6764, 77.52734
892.1585, 55.79541
892.6406, 30.86182
893.1227, 23.82666
893.6049, 28.20801
894.0870, 33.49854
894.5691, 39.98828
895.0512, 42.59912
895.5333, 38.67432
896.0154, 32.80127
896.4976, 32.89941
896.9797, 39.28369
897.4618, 34.81934
897.9439, 13.74121
898.4260, 3.234375
898.9081, 22.24219
899.3903, 60.45264
899.8724, 62.80811
900.3545, 0.4829100
900.8366, 37.23389
901.3187, 2.822754
901.8008, 54.89941
902.2830, 70.70215
902.7651, 41.71240
903.2472, 28.63574
903.7293, 33.14941
904.2114, 45.56006
904.6935, 64.67627
905.1757, 82.37549
905.6578, 84.28174
906.1399, 69.01465
906.6220, 50.14062
907.1041, 26.41064
907.5862, 7.396484
908.0684, 1.667480
908.5505, 0.8720700
909.0326, 7.734863
909.5147, 26.25928
909.9968, 40.88916
910.4789, 42.59619
910.9611, 35.04443
911.4432, 19.76514
911.9253, 0.3754880
912.4074, 5.594727
912.8895, 29.85986
913.3716, 61.05664
913.8538, 61.65381
914.3359, 39.95996
914.8180, 28.29004
915.3001, 29.85254
915.7822, 29.11523
916.2643, 18.78027
916.7465, 7.721680
917.2286, 18.21582
917.7107, 42.24414
918.1928, 56.46045
918.6749, 43.56592
919.1570, 31.31396
919.6392, 35.07422
920.1213, 47.13135
920.6034, 56.06738
921.0855, 64.92871
921.5676, 58.96143
922.0497, 31.37891
922.5319, 2.129883
923.0140, 2.210449
923.4961, 21.88525
923.9782, 32.32031
924.4603, 25.55127
924.9424, 21.11914
925.4246, 36.90625
925.9067, 57.58984
926.3888, 68.37256
926.8708, 65.07031
927.3530, 67.75635
927.8351, 80.85059
928.3172, 88.13232
928.7993, 69.79688
929.2814, 36.82129
929.7635, 25.65430
930.2457, 36.11084
930.7278, 49.49951
931.2099, 56.09473
931.6920, 59.93262
932.1741, 63.83105
932.6563, 67.56250
933.1384, 66.74268
933.6205, 62.18896
934.1026, 51.12744
934.5847, 25.72461
935.0668, 1.902344
935.5490, 7.214355
936.0311, 43.05762
936.5132, 69.92041
936.9953, 62.50684
937.4774, 47.46729
937.9595, 36.37500
938.4417, 28.92773
938.9238, 22.27637
939.4059, 13.70117
939.8880, 14.00488
940.3701, 28.71826
940.8522, 45.11328
941.3344, 49.57373
941.8165, 44.20850
942.2986, 31.35400
942.7807, 7.113770
943.2628, 5.747070
943.7449, 18.28223
944.2271, 52.10938
944.7092, 68.87842
945.1913, 64.20459
945.6734, 63.92334
946.1555, 67.10596
946.6376, 75.53857
947.1198, 103.1377
947.6019, 135.1895
948.0840, 133.9414
948.5661, 103.3535
949.0482, 71.87744
949.5303, 49.26514
950.0125, 36.00879
950.4946, 34.38037
950.9767, 42.87061
951.4588, 55.05957
951.9409, 72.29443
952.4230, 88.07129
952.9052, 101.0308
953.3873, 109.9487
953.8694, 111.3242
954.3515, 106.5625
954.8336, 99.34717
955.3157, 87.88135
955.7979, 78.35742
956.2800, 78.11328
956.7621, 78.53223
957.2442, 60.86475
957.7263, 15.69824
958.2084, 5.026855
958.6906, 40.40283
959.1727, 84.60400
959.6548, 82.55127
960.1369, 54.48584
960.6190, 32.92188
961.1011, 23.58594
961.5833, 19.25293
962.0654, 18.40234
962.5475, 21.19238
963.0296, 29.95215
963.5117, 44.80811
963.9938, 46.72607
964.4760, 34.73682
964.9581, 23.80518
965.4402, 25.08936
965.9223, 31.68311
966.4044, 37.01709
966.8865, 40.91797
967.3687, 43.02344
967.8508, 37.77539
968.3329, 37.77783
968.8150, 47.06348
969.2971, 62.41211
969.7792, 79.85205
970.2614, 98.78369
970.7435, 100.6860
971.2256, 73.04492
971.7077, 45.67432
972.1898, 57.60010
972.6719, 84.98877
973.1541, 95.27100
973.6362, 67.03857
974.1183, 51.65625
974.6004, 55.46484
975.0825, 67.06543
975.5646, 81.99170
976.0468, 97.93457
976.5289, 92.77783
977.0110, 66.30469
977.4931, 40.79492
977.9752, 29.54150
978.4573, 27.52002
978.9395, 37.41260
979.4216, 57.18164
979.9037, 58.26904
980.3858, 30.75439
980.8679, 6.580566
981.3500, 4.378906
981.8322, 4.953125
982.3143, 2.609863
982.7964, 15.35938
983.2785, 23.40625
983.7606, 20.72266
984.2427, 15.47217
984.7249, 6.438965
985.2070, 0.3193360
985.6891, 3.178223
986.1712, 19.28613
986.6533, 39.29297
987.1354, 65.10254
987.6176, 85.35205
988.0997, 86.72510
988.5818, 75.65674
989.0639, 61.00488
989.5460, 43.68262
990.0281, 29.60693
990.5103, 19.42139
990.9924, 15.52100
991.4745, 22.00342
991.9566, 36.21826
992.4387, 36.30420
992.9208, 21.56885
993.4029, 5.573730
993.8850, 10.75342
994.3671, 20.28564
994.8492, 8.624023
995.3314, 15.35107
995.8135, 33.10596
996.2956, 42.17725
996.7777, 38.60205
997.2598, 10.95752
997.7419, 14.51611
998.2241, 9.042969
998.7062, 69.46143
999.1883, 88.19092
999.6704, 52.45850
1000.153, 17.90869
1000.635, 40.84229
1001.117, 70.65967
1001.599, 58.93408
1002.081, 4.588379
1002.563, 16.54932
1003.045, 45.95898
1003.527, 86.98975
1004.009, 41.01172
1004.492, 43.14893
1004.974, 41.74951
1005.456, 21.42285
1005.938, 68.05566
1006.420, 48.75781
1006.902, 25.59424
1007.384, 17.68018
1007.866, 19.34229
1008.349, 24.23145
1008.831, 32.99756
1009.313, 40.62939
1009.795, 46.61816
1010.277, 51.10254
1010.759, 58.33643
1011.241, 61.87354
1011.723, 49.95947
1012.205, 18.88672
1012.688, 1.633301
1013.170, 3.943848
1013.652, 1.746582
1014.134, 14.60400
1014.616, 31.59619
1015.098, 36.69873
1015.580, 31.68311
1016.062, 28.98047
1016.544, 37.68018
1017.027, 48.59033
1017.509, 58.65625
1017.991, 66.63086
1018.473, 70.93555
1018.955, 74.08496
1019.437, 64.15576
1019.919, 35.42920
1020.401, 8.407715
1020.884, 10.37842
1021.366, 29.81836
1021.848, 48.39209
1022.330, 64.21777
1022.812, 66.44092
1023.294, 30.07910
1023.776, 0.3457030
1024.258, 0.8662110
1024.740, 26.28027
1025.223, 44.84082
1025.705, 56.62891
1026.187, 66.73047
1026.669, 79.75000
1027.151, 88.77441
1027.633, 79.28906
1028.115, 62.91016
1028.597, 60.18262
1029.079, 100.0537
1029.562, 108.3242
1030.044, 71.14355
1030.526, 25.86133
1031.008, 11.10547
1031.490, 20.39551
1031.972, 37.74707
1032.454, 61.50098
1032.936, 76.56543
1033.419, 66.34375
1033.901, 53.13965
1034.383, 49.32324
1034.865, 53.07520
1035.347, 55.89062
1035.829, 57.56641
1036.311, 58.68848
1036.793, 58.26074
1037.276, 59.64941
1037.758, 72.67480
1038.240, 88.57129
1038.722, 92.25879
1039.204, 65.85840
1039.686, 55.41113
1040.168, 73.76855
1040.650, 93.00293
1041.132, 85.62305
1041.615, 58.24316
1042.097, 45.75000
1042.579, 48.12793
1043.061, 54.26074
1043.543, 58.97949
1044.025, 65.06543
1044.507, 77.33008
1044.989, 92.19629
1045.471, 98.30664
1045.954, 94.16211
1046.436, 89.56152
1046.918, 85.93164
1047.400, 83.89746
1047.882, 86.40234
1048.364, 89.91797
1048.846, 88.96875
1049.328, 81.10059
1049.811, 73.67871
1050.293, 63.78711
1050.775, 60.44824
1051.257, 75.36523
1051.739, 100.7148
1052.221, 94.19434
1052.703, 63.05762
1053.185, 41.77246
1053.667, 53.79199
1054.150, 74.05078
1054.632, 94.62402
1055.114, 112.6084
1055.596, 121.7109
1056.078, 122.3379
1056.560, 125.9180
1057.042, 136.1660
1057.524, 140.4688
1058.006, 119.3438
1058.489, 90.72559
1058.971, 82.36816
1059.453, 98.55176
1059.935, 94.18359
1060.417, 34.17773
1060.899, 1.142578
1061.381, 27.12891
1061.863, 90.51660
1062.346, 99.76270
1062.828, 69.80078
1063.310, 50.28809
1063.792, 56.25586
1064.274, 73.61230
1064.756, 112.2793
1065.238, 147.8594
1065.720, 152.0576
1066.203, 117.8857
1066.685, 95.02051
1067.167, 85.11133
1067.649, 74.69336
1068.131, 45.08105
1068.613, 15.42188
1069.095, 7.248047
1069.577, 18.51855
1070.059, 36.45020
1070.542, 71.21875
1071.024, 87.64160
1071.506, 73.95898
1071.988, 49.38184
1072.470, 46.93848
1072.952, 59.40918
1073.434, 68.40332
1073.916, 70.12207
1074.398, 68.80664
1074.881, 62.96289
1075.363, 57.84863
1075.845, 56.40527
1076.327, 58.54297
1076.809, 64.31543
1077.291, 72.56250
1077.773, 76.25293
1078.255, 66.49023
1078.738, 59.03418
1079.220, 73.79395
1079.702, 98.13086
1080.184, 108.2695
1080.666, 94.20215
1081.148, 89.70410
1081.630, 98.29102
1082.112, 108.2510
1082.594, 106.6904
1083.077, 99.73242
1083.559, 99.68066
1084.041, 106.1621
1084.523, 108.7891
1085.005, 102.2432
1085.487, 92.29590
1085.969, 77.26660
1086.451, 63.01172
1086.933, 67.73926
1087.416, 84.70117
1087.898, 90.22852
1088.380, 76.01660
1088.862, 63.36523
1089.344, 73.30273
1089.826, 84.45801
1090.308, 77.30078
1090.790, 51.24219
1091.272, 38.49121
1091.755, 39.65332
1092.237, 43.58594
1092.719, 45.29297
1093.201, 46.08789
1093.683, 48.45215
1094.165, 50.69727
1094.647, 49.34961
1095.129, 39.46387
1095.612, 34.16504
1096.094, 34.51465
1096.576, 37.93262
1097.058, 41.31055
1097.540, 45.79395
1098.022, 58.70996
1098.504, 78.14551
1098.986, 85.81250
1099.469, 65.66504
1099.951, 41.73047
1100.433, 14.50977
1100.915, 6.475586
1101.397, 11.38965
1101.879, 59.68945
1102.361, 74.49023
1102.843, 37.11523
1103.325, 0.4960940
1103.807, 6.127930
1104.290, 5.068359
1104.772, 26.54492
1105.254, 57.21289
1105.736, 68.04980
1106.218, 57.66895
1106.700, 47.49609
1107.182, 51.23340
1107.664, 54.26172
1108.147, 25.99805
1108.629, 9.380859
1109.111, 11.00293
1109.593, 63.33789
1110.075, 100.2119
1110.557, 90.07910
1111.039, 71.24414
1111.521, 80.65332
1112.004, 101.8818
1112.486, 102.8623
1112.968, 84.83887
1113.450, 58.98535
1113.932, 4.840820
1114.414, 21.58789
1114.896, 1.624023
1115.378, 44.48047
1115.860, 60.75586
1116.343, 55.65137
1116.825, 45.33691
1117.307, 31.25488
1117.789, 26.98340
1118.271, 58.55664
1118.753, 84.22852
1119.235, 73.07910
1119.717, 35.33887
1120.199, 27.68262
1120.682, 49.62207
1121.164, 61.75195
1121.646, 45.48438
1122.128, 28.82031
1122.610, 45.82617
1123.092, 70.63281
1123.574, 69.85547
1124.056, 34.35156
1124.539, 16.44043
1125.021, 17.57031
1125.503, 26.76758
1125.985, 42.05078
1126.467, 57.78027
1126.949, 67.41992
1127.431, 71.42090
1127.913, 70.56445
1128.396, 60.66211
1128.878, 53.02344
1129.360, 48.10645
1129.842, 45.77637
1130.324, 47.36523
1130.806, 50.95996
1131.288, 52.67285
1131.770, 52.24512
1132.252, 50.03516
1132.734, 50.94922
1133.217, 42.25195
1133.699, 13.29297
1134.181, 18.47949
1134.663, 16.35449
1135.145, 12.66992
1135.627, 37.23242
1136.109, 52.22852
1136.591, 62.24805
1137.074, 67.88184
1137.556, 71.06836
1138.038, 73.05957
1138.520, 73.67676
1139.002, 72.68555
1139.484, 69.71094
1139.966, 58.22754
1140.448, 31.09375
1140.931, 6.108398
1141.413, 5.159180
1141.895, 5.011719
1142.377, 8.365234
1142.859, 39.51562
1143.341, 38.27344
1143.823, 1.335938
1144.305, 24.20312
1144.787, 6.810547
1145.270, 49.45996
1145.752, 53.34863
1146.234, 34.31641
1146.716, 25.92285
1147.198, 37.22754
1147.680, 45.20410
1148.162, 48.55469
1148.644, 49.91797
1149.126, 48.96777
1149.609, 49.11426
1150.091, 57.24805
1150.573, 72.15137
1151.055, 84.64551
1151.537, 92.77539
1152.019, 99.04395
1152.501, 105.9609
1152.983, 106.6670
1153.466, 79.81738
1153.948, 44.95801
1154.430, 39.31543
1154.912, 68.79297
1155.394, 97.93652
1155.876, 121.6729
1156.358, 133.4316
1156.840, 126.2461
1157.322, 109.8828
1157.805, 113.8184
1158.287, 130.5674
1158.769, 133.5820
1159.251, 112.2354
1159.733, 92.10742
1160.215, 80.96680
1160.697, 79.47949
1161.179, 91.29297
1161.661, 113.1396
1162.144, 126.1279
1162.626, 130.2031
1163.108, 125.2559
1163.590, 99.62402
1164.072, 84.52734
1164.554, 113.4658
1165.036, 149.6533
1165.518, 156.3496
1166.000, 131.7061
1166.483, 109.6768
1166.965, 90.62207
1167.447, 78.56738
1167.929, 77.08203
1168.411, 80.72559
1168.893, 99.80371
1169.375, 119.9482
1169.857, 109.2764
1170.340, 61.54199
1170.822, 26.87891
1171.304, 9.192383
1171.786, 1.130859
1172.268, 9.971680
1172.750, 8.061523
1173.232, 28.63770
1173.714, 90.14453
1174.197, 133.5361
1174.679, 159.8398
1175.161, 154.5361
1175.643, 108.8262
1176.125, 61.50391
1176.607, 62.01074
1177.089, 77.98535
1177.571, 67.09473
1178.053, 27.05859
1178.536, 23.82422
1179.018, 72.67188
1179.500, 107.2520
1179.982, 104.6426
1180.464, 89.77734
1180.946, 97.75781
1181.428, 114.1504
1181.910, 118.1455
1182.392, 103.2383
1182.875, 94.87891
1183.357, 94.49316
1183.839, 98.40137
1184.321, 107.1914
1184.803, 117.2725
1185.285, 124.5361
1185.767, 127.8662
1186.249, 123.5527
1186.732, 100.4746
1187.214, 98.50488
1187.696, 130.4277
1188.178, 156.2812
1188.660, 143.4795
1189.142, 111.1973
1189.624, 104.0498
1190.106, 111.9336
1190.589, 108.9277
1191.071, 57.45996
1191.553, 42.74609
1192.035, 83.88086
1192.517, 132.4150
1192.999, 145.9697
1193.481, 133.8096
1193.963, 111.5439
1194.445, 84.26953
1194.927, 71.05469
1195.410, 92.82910
1195.892, 110.8662
1196.374, 120.1934
1196.856, 122.9756
1197.338, 123.2314
1197.820, 117.9668
1198.302, 91.32031
1198.784, 46.71094
1199.267, 22.51855
1199.749, 58.13867
1200.231, 85.16992
1200.713, 85.23047
1201.195, 73.53906
1201.677, 72.61523
1202.159, 78.80078
1202.641, 90.03320
1203.124, 104.5703
1203.606, 111.4424
1204.088, 102.7188
1204.570, 88.38770
1205.052, 68.46680
1205.534, 48.56250
1206.016, 38.34961
1206.498, 38.68555
1206.980, 59.33594
1207.463, 108.2686
1207.945, 134.1846
1208.427, 84.14453
1208.909, 44.59863
1209.391, 58.49512
1209.873, 97.54102
1210.355, 70.04102
1210.837, 0.8847660
1211.319, 40.41016
1211.802, 19.88867
1212.284, 8.032227
1212.766, 32.75879
1213.248, 51.03223
1213.730, 58.47656
1214.212, 58.79199
1214.694, 67.24316
1215.176, 80.13184
1215.659, 83.00488
1216.141, 64.78809
1216.623, 50.10254
1217.105, 51.35254
1217.587, 51.46484
1218.069, 38.75781
1218.551, 16.58887
1219.033, 8.092773
1219.516, 12.46289
1219.998, 26.62891
1220.480, 72.70312
1220.962, 91.16309
1221.444, 48.38477
1221.926, 1.278320
1222.408, 0.7910160
1222.890, 32.44629
1223.372, 63.09766
1223.854, 85.86230
1224.337, 83.09473
1224.819, 5.274414
1225.301, 40.03320
1225.783, 18.70410
1226.265, 22.70020
1226.747, 36.84961
1227.229, 31.36035
1227.711, 31.24707
1228.193, 36.39258
1228.676, 42.13184
1229.158, 50.42871
1229.640, 52.37500
1230.122, 40.88574
1230.604, 31.07812
1231.086, 47.96289
1231.568, 80.19727
1232.050, 96.19238
1232.533, 94.33008
1233.015, 79.56348
1233.497, 33.29199
1233.979, 2.133789
1234.461, 5.176758
1234.943, 5.101563
1235.425, 29.80957
1235.907, 64.48926
1236.390, 109.0176
1236.872, 160.6289
1237.354, 172.1943
1237.836, 83.56543
1238.318, 23.82812
1238.800, 27.30371
1239.282, 56.63965
1239.764, 50.23340
1240.246, 27.06738
1240.729, 27.93359
1241.211, 58.53320
1241.693, 86.39453
1242.175, 98.90137
1242.657, 116.7275
1243.139, 147.6475
1243.621, 167.4727
1244.103, 160.3008
1244.585, 133.3672
1245.068, 107.5352
1245.550, 85.82422
1246.032, 72.84961
1246.514, 67.10938
1246.996, 75.99805
1247.478, 109.3740
1247.960, 144.5371
1248.442, 135.1504
1248.925, 99.46777
1249.407, 77.39648
1249.889, 72.67480
1250.371, 57.85840
1250.853, 44.06836
1251.335, 42.30469
1251.817, 54.79102
1252.299, 69.19629
1252.781, 68.00098
1253.264, 56.94531
1253.746, 41.33398
1254.228, 17.17188
1254.710, 19.15918
1255.192, 54.69141
1255.674, 81.49805
1256.156, 66.12598
1256.638, 44.08008
1257.120, 61.75586
1257.603, 95.62109
1258.085, 102.0107
1258.567, 79.04590
1259.049, 88.44727
1259.531, 132.4658
1260.013, 158.4824
1260.495, 131.7998
1260.977, 96.70898
1261.460, 97.52930
1261.942, 111.3506
1262.424, 110.6660
1262.906, 94.49707
1263.388, 79.27930
1263.870, 65.88867
1264.352, 49.93945
1264.834, 17.64355
1265.317, 0.6542970
1265.799, 30.95508
1266.281, 71.35449
1266.763, 86.12793
1267.245, 75.03711
1267.727, 74.52246
1268.209, 82.15137
1268.691, 79.73340
1269.173, 48.33398
1269.656, 20.77051
1270.138, 3.247070
1270.620, 3.174805
1271.102, 22.92285
1271.584, 68.29297
1272.066, 91.77148
1272.548, 91.79102
1273.030, 61.58789
1273.512, 26.17188
1273.995, 1.021484
1274.477, 9.281250
1274.959, 0.0000000E+00
##END=



