##NAMES=Dalyite
##RRUFFID=R070415
##IDEAL CHEMISTRY=K_2_ZrSi_6_O_15_
##LOCALITY=Murunskyi Massif, Chara River (Charo River), Davan, Torgo River Basin, Aldan Shield, Saha Republic (Sakha Republic; Yakutia), Eastern-Siberian Region, Russia
##OWNER=RRUFF
##SOURCE=Michael Scott
##DESCRIPTION=Lavender grains in quartz
##STATUS=The identification of this mineral has been confirmed only by single crystal X-ray diffraction.
##URL=rruff.info/R070415
150.6261, 0.0000000E+00
151.1082, 4.542969
151.5903, 22.10352
152.0724, 87.24316
152.5545, 167.1084
153.0366, 257.3652
153.5188, 353.5190
154.0009, 450.0933
154.4830, 535.5171
154.9651, 627.5044
155.4472, 735.8691
155.9293, 876.6113
156.4115, 1010.611
156.8936, 1135.881
157.3757, 1249.634
157.8578, 1345.400
158.3399, 1413.249
158.8221, 1466.334
159.3042, 1513.994
159.7863, 1568.545
160.2684, 1608.811
160.7505, 1627.029
161.2326, 1624.866
161.7148, 1607.701
162.1969, 1574.445
162.6790, 1526.413
163.1611, 1465.600
163.6432, 1377.570
164.1253, 1287.668
164.6075, 1211.084
165.0896, 1148.355
165.5717, 1085.473
166.0538, 1012.448
166.5359, 934.7651
167.0180, 860.0962
167.5002, 785.7935
167.9823, 719.1758
168.4644, 667.9102
168.9465, 636.9541
169.4286, 615.3037
169.9107, 581.1831
170.3929, 534.3096
170.8750, 495.4419
171.3571, 483.7983
171.8392, 484.4038
172.3213, 483.7554
172.8034, 471.7261
173.2856, 448.6621
173.7677, 426.9751
174.2498, 399.6167
174.7319, 373.9033
175.2140, 370.9380
175.6961, 380.9180
176.1783, 367.8687
176.6604, 319.5928
177.1425, 267.1938
177.6246, 246.7139
178.1067, 255.2344
178.5888, 261.9023
179.0710, 245.0049
179.5531, 212.8691
180.0352, 183.0830
180.5173, 160.9146
180.9994, 142.2798
181.4815, 118.4302
181.9637, 89.50537
182.4458, 66.21631
182.9279, 64.29102
183.4100, 77.32617
183.8921, 80.46191
184.3742, 60.75000
184.8564, 29.13672
185.3385, 13.01416
185.8206, 13.18604
186.3027, 17.35449
186.7848, 11.98975
187.2669, 1.491211
187.7491, 12.42969
188.2312, 17.13574
188.7133, 16.42529
189.1954, 11.00000
189.6775, 0.5942380
190.1596, 10.16260
190.6418, 5.537598
191.1239, 12.95117
191.6060, 31.44775
192.0881, 45.15820
192.5702, 54.25537
193.0524, 60.73486
193.5345, 65.08105
194.0166, 65.52246
194.4987, 55.82520
194.9808, 35.01562
195.4629, 18.79932
195.9451, 18.52100
196.4272, 33.72266
196.9093, 39.01807
197.3914, 31.35449
197.8735, 17.46387
198.3556, 9.298340
198.8378, 7.177734
199.3199, 8.752930
199.8020, 16.04248
200.2841, 30.04785
200.7662, 33.26074
201.2483, 21.49121
201.7305, 1.296875
202.2126, 11.11035
202.6947, 14.39697
203.1768, 14.83984
203.6589, 16.01416
204.1410, 18.10059
204.6232, 18.45850
205.1053, 13.68604
205.5874, 8.456055
206.0695, 21.97217
206.5516, 61.66943
207.0337, 100.5972
207.5159, 116.3320
207.9980, 101.1030
208.4801, 99.42871
208.9622, 120.6323
209.4443, 159.5718
209.9264, 190.3672
210.4086, 211.4688
210.8907, 227.3350
211.3728, 238.7041
211.8549, 241.4917
212.3370, 254.4219
212.8191, 282.8848
213.3013, 324.6782
213.7834, 364.1646
214.2655, 402.2334
214.7476, 436.6519
215.2297, 463.3804
215.7118, 477.9160
216.1940, 498.1338
216.6761, 528.2202
217.1582, 567.8203
217.6403, 607.0459
218.1224, 645.6846
218.6045, 683.6318
219.0867, 721.3354
219.5688, 760.1260
220.0509, 794.4395
220.5330, 819.6147
221.0151, 835.5449
221.4972, 864.3711
221.9794, 916.9292
222.4615, 970.5747
222.9436, 999.2666
223.4257, 988.8936
223.9078, 982.9824
224.3899, 994.0659
224.8721, 1024.426
225.3542, 1043.039
225.8363, 1045.405
226.3184, 1040.453
226.8005, 1038.377
227.2827, 1039.549
227.7648, 1043.061
228.2469, 1050.437
228.7290, 1063.123
229.2111, 1067.826
229.6932, 1060.517
230.1754, 1048.138
230.6575, 1041.276
231.1396, 1047.127
231.6217, 1046.629
232.1038, 1033.889
232.5859, 1005.964
233.0681, 976.1260
233.5502, 942.1108
234.0323, 909.3257
234.5144, 886.2354
234.9965, 881.6147
235.4786, 870.9429
235.9608, 843.7769
236.4429, 794.2578
236.9250, 755.2300
237.4071, 731.5688
237.8892, 716.7178
238.3713, 700.2349
238.8535, 682.5059
239.3356, 660.1772
239.8177, 630.5693
240.2998, 589.7847
240.7819, 559.4219
241.2640, 542.1670
241.7462, 533.0142
242.2283, 523.6631
242.7104, 515.1895
243.1925, 503.3691
243.6746, 484.4033
244.1567, 453.2930
244.6389, 437.5869
245.1210, 445.8066
245.6031, 463.5381
246.0852, 463.5332
246.5673, 431.7612
247.0494, 407.5044
247.5316, 407.8750
248.0137, 443.4858
248.4958, 465.5371
248.9779, 467.6797
249.4600, 458.1816
249.9421, 451.7515
250.4243, 447.4688
250.9064, 448.8667
251.3885, 459.2339
251.8706, 483.9741
252.3527, 500.5410
252.8348, 503.9453
253.3170, 503.0635
253.7991, 515.2842
254.2812, 545.6201
254.7633, 576.8584
255.2454, 601.9980
255.7275, 617.0762
256.2097, 641.8623
256.6918, 678.9453
257.1739, 722.7676
257.6560, 763.8555
258.1381, 801.3784
258.6202, 837.4116
259.1024, 872.9985
259.5845, 906.8408
260.0666, 946.8257
260.5487, 995.7290
261.0308, 1047.553
261.5129, 1093.172
261.9951, 1129.925
262.4772, 1165.923
262.9593, 1204.502
263.4414, 1247.608
263.9235, 1286.592
264.4056, 1323.641
264.8878, 1354.367
265.3699, 1370.823
265.8520, 1369.413
266.3341, 1364.451
266.8162, 1362.447
267.2983, 1365.116
267.7805, 1359.060
268.2626, 1341.926
268.7447, 1318.679
269.2268, 1297.772
269.7089, 1279.933
270.1910, 1261.925
270.6732, 1243.167
271.1553, 1224.131
271.6374, 1200.586
272.1195, 1172.997
272.6016, 1140.152
273.0837, 1101.188
273.5659, 1055.930
274.0480, 1004.751
274.5301, 944.4233
275.0122, 874.6562
275.4943, 813.7290
275.9764, 765.1909
276.4586, 718.8145
276.9407, 653.9355
277.4228, 567.9229
277.9049, 492.9434
278.3870, 444.9629
278.8691, 422.8530
279.3513, 402.3223
279.8334, 384.8359
280.3155, 365.1533
280.7976, 333.0122
281.2798, 287.9736
281.7619, 247.0049
282.2440, 218.2163
282.7261, 199.8799
283.2082, 177.4248
283.6903, 149.1919
284.1725, 122.9395
284.6546, 113.4805
285.1367, 119.9312
285.6188, 116.4282
286.1009, 85.18848
286.5830, 35.76172
287.0652, 12.71680
287.5473, 19.33154
288.0294, 33.85840
288.5115, 30.58398
288.9936, 11.92578
289.4757, 1.748535
289.9579, 0.5815430
290.4400, 11.69189
290.9221, 10.45752
291.4042, 3.837891
291.8863, 21.57910
292.3684, 35.07178
292.8506, 44.31934
293.3327, 49.29883
293.8148, 47.57080
294.2969, 43.00537
294.7790, 44.61621
295.2611, 52.41602
295.7433, 58.86182
296.2254, 54.91357
296.7075, 44.08545
297.1896, 36.65039
297.6717, 36.93750
298.1538, 40.69775
298.6360, 43.19238
299.1181, 44.23096
299.6002, 41.54492
300.0823, 34.30225
300.5644, 21.93994
301.0465, 2.155273
301.5287, 31.30273
302.0108, 65.32080
302.4929, 84.72559
302.9750, 90.93896
303.4571, 90.89355
303.9392, 84.00879
304.4214, 75.36182
304.9035, 71.76514
305.3856, 75.43652
305.8677, 83.67871
306.3498, 91.79688
306.8319, 101.6909
307.3141, 120.5068
307.7962, 161.2729
308.2783, 208.6016
308.7604, 248.4155
309.2425, 276.8667
309.7246, 297.7246
310.2068, 306.0776
310.6889, 307.8394
311.1710, 318.4326
311.6531, 346.8726
312.1352, 386.0576
312.6173, 431.6577
313.0995, 483.8608
313.5816, 538.2100
314.0637, 598.4150
314.5458, 659.2422
315.0279, 711.4014
315.5100, 738.4688
315.9922, 765.6294
316.4743, 806.9990
316.9564, 866.6582
317.4385, 930.3213
317.9206, 992.0283
318.4027, 1055.202
318.8849, 1124.627
319.3670, 1210.103
319.8491, 1294.559
320.3312, 1370.408
320.8133, 1435.659
321.2954, 1502.768
321.7776, 1573.964
322.2597, 1648.754
322.7418, 1726.614
323.2239, 1807.727
323.7060, 1891.640
324.1881, 1980.789
324.6703, 2076.140
325.1524, 2165.016
325.6345, 2247.438
326.1166, 2321.528
326.5987, 2386.451
327.0808, 2434.117
327.5630, 2482.123
328.0451, 2534.106
328.5272, 2589.637
329.0093, 2640.477
329.4914, 2694.902
329.9735, 2736.067
330.4557, 2751.639
330.9378, 2728.917
331.4199, 2702.538
331.9020, 2675.571
332.3841, 2647.014
332.8662, 2612.296
333.3484, 2573.027
333.8305, 2525.626
334.3126, 2465.913
334.7947, 2389.636
335.2768, 2316.021
335.7589, 2246.546
336.2411, 2180.102
336.7232, 2111.504
337.2053, 2039.988
337.6874, 1969.944
338.1695, 1902.250
338.6516, 1837.293
339.1338, 1776.828
339.6159, 1722.758
340.0980, 1671.020
340.5801, 1613.865
341.0622, 1549.342
341.5443, 1491.485
342.0265, 1445.971
342.5086, 1412.218
342.9907, 1382.266
343.4728, 1357.143
343.9549, 1332.726
344.4370, 1306.174
344.9192, 1277.069
345.4013, 1240.532
345.8834, 1190.590
346.3655, 1133.294
346.8476, 1088.559
347.3297, 1056.617
347.8119, 1026.313
348.2940, 987.7651
348.7761, 941.9844
349.2582, 893.0195
349.7403, 837.3057
350.2225, 782.2144
350.7046, 736.6323
351.1867, 700.4390
351.6688, 673.8745
352.1509, 664.1162
352.6331, 661.7661
353.1152, 652.9648
353.5973, 634.1963
354.0794, 610.1782
354.5615, 581.1816
355.0436, 549.3242
355.5258, 521.2222
356.0079, 504.8462
356.4900, 491.4165
356.9721, 472.3848
357.4542, 444.6006
357.9363, 419.5688
358.4185, 402.2007
358.9006, 392.3345
359.3827, 388.7598
359.8648, 394.9517
360.3469, 402.7178
360.8290, 407.3433
361.3112, 408.3232
361.7933, 414.9531
362.2754, 436.8550
362.7575, 462.9897
363.2396, 481.2534
363.7217, 471.8599
364.2039, 469.7363
364.6860, 487.4443
365.1681, 525.1953
365.6502, 559.3931
366.1323, 583.7446
366.6144, 607.9385
367.0966, 637.8306
367.5787, 675.9321
368.0608, 714.9521
368.5429, 753.1392
369.0250, 792.0342
369.5071, 839.1377
369.9893, 903.3867
370.4714, 965.2246
370.9535, 1012.224
371.4356, 1025.858
371.9177, 1067.679
372.3998, 1151.213
372.8820, 1257.179
373.3641, 1339.493
373.8462, 1387.873
374.3283, 1438.691
374.8104, 1504.564
375.2925, 1586.576
375.7747, 1681.074
376.2568, 1794.070
376.7389, 1909.253
377.2210, 2003.830
377.7031, 2077.075
378.1852, 2139.192
378.6674, 2189.017
379.1495, 2230.564
379.6316, 2288.765
380.1137, 2365.640
380.5958, 2436.366
381.0779, 2476.989
381.5601, 2490.840
382.0422, 2492.291
382.5243, 2486.180
383.0064, 2467.531
383.4885, 2421.808
383.9706, 2351.765
384.4528, 2280.837
384.9349, 2222.503
385.4170, 2173.824
385.8991, 2127.861
386.3812, 2081.989
386.8633, 2042.591
387.3455, 2017.851
387.8276, 2004.188
388.3097, 1993.087
388.7918, 1975.676
389.2739, 1962.238
389.7560, 1961.490
390.2382, 1974.535
390.7203, 1994.933
391.2024, 2033.550
391.6845, 2072.679
392.1666, 2092.301
392.6487, 2076.913
393.1309, 2048.649
393.6130, 2015.814
394.0951, 1978.139
394.5772, 1931.125
395.0593, 1868.301
395.5414, 1799.090
396.0236, 1729.933
396.5057, 1662.792
396.9878, 1594.130
397.4699, 1523.671
397.9520, 1451.714
398.4341, 1379.722
398.9163, 1301.965
399.3984, 1230.175
399.8805, 1168.495
400.3626, 1117.915
400.8447, 1074.844
401.3268, 1041.104
401.8090, 1013.585
402.2911, 987.4736
402.7732, 962.7803
403.2553, 940.5508
403.7374, 923.9937
404.2195, 912.1426
404.7017, 885.1538
405.1838, 838.7095
405.6659, 788.3789
406.1480, 752.7749
406.6301, 732.2144
407.1122, 695.3120
407.5944, 632.3892
408.0765, 553.8218
408.5586, 482.1646
409.0407, 417.1187
409.5228, 360.5449
410.0049, 318.7979
410.4871, 287.1304
410.9692, 250.2959
411.4513, 205.1025
411.9334, 161.0654
412.4155, 129.7344
412.8976, 107.8975
413.3798, 87.38281
413.8619, 64.67090
414.3440, 40.80664
414.8261, 14.15137
415.3082, 15.29590
415.7903, 38.72363
416.2725, 49.79053
416.7546, 52.13232
417.2367, 49.64258
417.7188, 35.49707
418.2009, 25.20117
418.6830, 29.70752
419.1652, 45.70117
419.6473, 59.93018
420.1294, 71.66309
420.6115, 77.91064
421.0937, 76.60205
421.5758, 64.48145
422.0579, 50.62158
422.5400, 30.74561
423.0221, 9.650879
423.5042, 3.586426
423.9864, 3.502441
424.4685, 7.145020
424.9506, 0.1684570
425.4327, 19.31250
425.9148, 37.59180
426.3969, 49.41992
426.8791, 66.79150
427.3612, 103.5532
427.8433, 169.9517
428.3254, 221.3760
428.8075, 245.0542
429.2896, 251.8271
429.7718, 281.2852
430.2539, 337.9126
430.7360, 393.9956
431.2181, 426.7891
431.7002, 438.9341
432.1823, 472.8237
432.6645, 535.0693
433.1466, 604.2168
433.6287, 646.9458
434.1108, 668.3213
434.5929, 693.5991
435.0750, 728.8916
435.5572, 776.1807
436.0393, 846.9663
436.5214, 939.9365
437.0035, 1027.439
437.4856, 1082.116
437.9677, 1118.813
438.4499, 1157.833
438.9320, 1206.146
439.4141, 1254.855
439.8962, 1297.453
440.3783, 1335.294
440.8604, 1373.160
441.3426, 1421.410
441.8247, 1463.473
442.3068, 1492.271
442.7889, 1508.742
443.2710, 1503.493
443.7531, 1464.148
444.2353, 1405.654
444.7174, 1343.844
445.1995, 1281.138
445.6816, 1215.814
446.1637, 1146.042
446.6458, 1072.916
447.1280, 1001.339
447.6101, 932.6484
448.0922, 863.7451
448.5743, 791.2905
449.0564, 705.5176
449.5385, 641.4873
450.0207, 605.0264
450.5028, 586.2446
450.9849, 568.5059
451.4670, 552.2705
451.9491, 535.4004
452.4312, 515.5796
452.9134, 493.8911
453.3955, 479.0317
453.8776, 471.6724
454.3597, 466.5801
454.8418, 458.0518
455.3239, 447.2769
455.8061, 439.7041
456.2882, 437.2012
456.7703, 437.3062
457.2524, 435.2295
457.7345, 432.1987
458.2166, 433.2715
458.6988, 446.4751
459.1809, 462.8506
459.6630, 472.2622
460.1451, 473.2085
460.6272, 471.3975
461.1093, 473.6123
461.5915, 474.2378
462.0736, 466.1626
462.5557, 433.0986
463.0378, 404.6030
463.5199, 394.5996
464.0020, 400.8569
464.4842, 405.3530
464.9663, 417.0410
465.4484, 416.5718
465.9305, 391.9019
466.4126, 318.6343
466.8947, 263.1152
467.3769, 231.8335
467.8590, 215.5488
468.3411, 199.2593
468.8232, 182.2148
469.3053, 167.1719
469.7874, 157.1211
470.2696, 151.2646
470.7517, 129.9019
471.2338, 85.77734
471.7159, 48.55664
472.1980, 54.07520
472.6801, 100.9141
473.1623, 123.3452
473.6444, 107.6592
474.1265, 72.22559
474.6086, 42.25342
475.0907, 18.43750
475.5728, 4.082520
476.0550, 5.990723
476.5371, 15.20508
477.0192, 18.04932
477.5013, 14.18506
477.9834, 7.771484
478.4655, 5.230469
478.9477, 1.807129
479.4298, 9.717285
479.9119, 46.01270
480.3940, 72.45459
480.8761, 63.47461
481.3582, 29.85400
481.8404, 2.282227
482.3225, 9.979004
482.8046, 14.69434
483.2867, 13.97510
483.7688, 5.206055
484.2509, 1.636230
484.7331, 5.369141
485.2152, 6.955078
485.6973, 7.329102
486.1794, 6.924316
486.6615, 4.672852
487.1436, 1.110840
487.6258, 4.376465
488.1079, 15.50439
488.5900, 33.86328
489.0721, 53.31787
489.5542, 72.97217
490.0363, 93.03174
490.5185, 100.6655
491.0006, 93.27246
491.4827, 80.79053
491.9648, 74.45264
492.4470, 73.89941
492.9291, 77.45215
493.4112, 84.11621
493.8933, 94.88184
494.3754, 112.6592
494.8575, 136.7559
495.3397, 161.7051
495.8218, 186.1118
496.3039, 208.8296
496.7860, 227.5117
497.2681, 240.8647
497.7502, 255.2100
498.2324, 274.0156
498.7145, 295.8965
499.1966, 319.3477
499.6787, 338.9141
500.1608, 364.8281
500.6429, 407.2817
501.1251, 464.3105
501.6072, 504.3931
502.0893, 494.9731
502.5714, 495.5762
503.0535, 537.5859
503.5356, 647.3516
504.0178, 734.1538
504.4999, 788.8096
504.9820, 828.0518
505.4641, 877.8232
505.9462, 939.5122
506.4283, 1002.387
506.9105, 1057.491
507.3926, 1112.351
507.8747, 1201.178
508.3568, 1325.735
508.8389, 1459.164
509.3210, 1580.044
509.8032, 1696.234
510.2853, 1830.634
510.7674, 1986.617
511.2495, 2158.653
511.7316, 2350.093
512.2137, 2553.756
512.6959, 2751.846
513.1780, 2916.786
513.6601, 3092.659
514.1422, 3311.824
514.6243, 3570.691
515.1064, 3839.812
515.5886, 4107.769
516.0707, 4383.031
516.5528, 4670.273
517.0349, 4985.147
517.5170, 5284.985
517.9991, 5549.425
518.4813, 5801.740
518.9634, 6069.090
519.4455, 6356.160
519.9276, 6650.528
520.4097, 6956.354
520.8918, 7265.417
521.3740, 7565.478
521.8561, 7862.507
522.3382, 8134.805
522.8203, 8369.269
523.3024, 8563.854
523.7845, 8725.640
524.2667, 8859.683
524.7488, 8944.225
525.2309, 8964.943
525.7130, 8918.354
526.1951, 8791.803
526.6772, 8557.199
527.1594, 8262.413
527.6415, 7966.679
528.1236, 7661.892
528.6057, 7310.922
529.0878, 6853.430
529.5699, 6369.912
530.0521, 5924.171
530.5342, 5522.435
531.0163, 5148.551
531.4984, 4794.016
531.9805, 4462.237
532.4626, 4155.094
532.9448, 3879.189
533.4269, 3620.793
533.9090, 3380.676
534.3911, 3157.924
534.8732, 2957.268
535.3553, 2777.586
535.8375, 2618.055
536.3196, 2486.213
536.8017, 2382.210
537.2838, 2263.358
537.7659, 2123.742
538.2480, 1979.395
538.7302, 1843.840
539.2123, 1718.709
539.6944, 1614.811
540.1765, 1536.313
540.6586, 1472.978
541.1407, 1415.181
541.6229, 1360.254
542.1050, 1297.768
542.5871, 1213.969
543.0692, 1125.362
543.5513, 1045.346
544.0334, 975.4102
544.5156, 915.1313
544.9977, 870.6118
545.4798, 832.0269
545.9619, 791.7715
546.4440, 740.9873
546.9261, 699.5220
547.4083, 675.8628
547.8904, 662.0322
548.3725, 644.2534
548.8546, 621.4004
549.3367, 596.1807
549.8188, 568.6162
550.3010, 538.9565
550.7831, 509.8862
551.2652, 481.2632
551.7473, 453.6104
552.2294, 425.9858
552.7115, 398.8975
553.1937, 380.3110
553.6758, 372.2417
554.1579, 366.9111
554.6400, 354.0596
555.1221, 335.9951
555.6042, 319.8262
556.0864, 311.1621
556.5685, 302.0967
557.0506, 282.7593
557.5327, 255.9521
558.0148, 232.4092
558.4969, 218.5889
558.9791, 208.6670
559.4612, 198.7373
559.9433, 187.5493
560.4254, 180.9014
560.9075, 186.0430
561.3896, 192.6934
561.8718, 192.2651
562.3539, 185.8276
562.8360, 168.8872
563.3181, 132.2144
563.8002, 89.24756
564.2823, 77.18555
564.7645, 104.5908
565.2466, 124.4546
565.7287, 112.9644
566.2108, 78.30176
566.6929, 63.41113
567.1750, 69.23730
567.6572, 76.30762
568.1393, 64.13867
568.6214, 42.19824
569.1035, 31.69189
569.5856, 38.62207
570.0677, 45.61572
570.5499, 36.38672
571.0320, 18.06934
571.5141, 1.923340
571.9962, 8.705566
572.4783, 15.62500
572.9604, 18.76318
573.4426, 18.45410
573.9247, 16.38818
574.4068, 8.666016
574.8889, 3.088867
575.3710, 3.428711
575.8531, 11.29248
576.3353, 16.69678
576.8174, 19.81836
577.2995, 20.14258
577.7816, 14.72363
578.2637, 2.300293
578.7458, 0.6582030
579.2280, 17.61768
579.7101, 36.82520
580.1922, 20.72949
580.6743, 23.56885
581.1564, 55.93164
581.6385, 46.49902
582.1207, 20.68799
582.6028, 13.57324
583.0849, 22.65283
583.5670, 27.69482
584.0491, 6.628418
584.5313, 16.74805
585.0134, 21.73193
585.4955, 1.615723
585.9776, 20.88281
586.4597, 18.52832
586.9418, 11.81348
587.4240, 21.09229
587.9061, 65.05469
588.3882, 96.14697
588.8703, 103.6582
589.3524, 96.58447
589.8345, 102.4575
590.3167, 124.6484
590.7988, 146.9644
591.2809, 161.9341
591.7630, 171.0112
592.2451, 180.8628
592.7272, 191.5322
593.2094, 201.8564
593.6915, 206.7163
594.1736, 211.3804
594.6557, 227.9746
595.1378, 260.6880
595.6199, 294.5054
596.1021, 315.6851
596.5842, 331.4297
597.0663, 352.0850
597.5485, 379.5269
598.0306, 413.8125
598.5127, 462.5693
598.9948, 520.2251
599.4769, 563.0625
599.9590, 576.6929
600.4412, 591.7969
600.9233, 617.7021
601.4054, 654.9185
601.8875, 696.7793
602.3696, 743.8369
602.8517, 793.9756
603.3339, 844.7451
603.8160, 896.4443
604.2981, 945.6426
604.7802, 989.1724
605.2623, 1036.528
605.7444, 1109.418
606.2266, 1198.181
606.7087, 1272.847
607.1908, 1312.543
607.6729, 1346.666
608.1550, 1400.892
608.6371, 1469.139
609.1193, 1533.609
609.6014, 1581.188
610.0835, 1626.370
610.5656, 1679.811
611.0477, 1746.442
611.5298, 1792.827
612.0120, 1802.544
612.4941, 1806.828
612.9762, 1830.452
613.4583, 1887.834
613.9404, 1912.161
614.4225, 1896.907
614.9047, 1854.299
615.3868, 1795.867
615.8689, 1722.307
616.3510, 1648.847
616.8331, 1579.577
617.3152, 1513.443
617.7974, 1448.308
618.2795, 1384.591
618.7616, 1320.686
619.2437, 1252.017
619.7258, 1186.072
620.2079, 1127.513
620.6901, 1076.922
621.1722, 1031.972
621.6543, 993.5386
622.1364, 959.2114
622.6185, 927.6597
623.1006, 895.7456
623.5828, 873.0483
624.0649, 867.0220
624.5470, 863.1362
625.0291, 839.0278
625.5112, 787.4380
625.9933, 757.3042
626.4755, 764.6357
626.9576, 788.8657
627.4397, 785.6572
627.9218, 758.0728
628.4039, 731.2334
628.8860, 725.2295
629.3682, 723.6187
629.8503, 699.4775
630.3324, 655.8120
630.8145, 616.1270
631.2966, 603.9766
631.7787, 595.1924
632.2609, 570.1899
632.7430, 519.6284
633.2251, 475.7856
633.7072, 447.8311
634.1893, 427.0186
634.6714, 407.1812
635.1536, 391.3174
635.6357, 370.2876
636.1178, 341.9961
636.5999, 310.1343
637.0820, 280.7422
637.5641, 253.7031
638.0463, 231.6851
638.5284, 215.7295
639.0105, 203.3574
639.4926, 192.3970
639.9747, 182.5098
640.4568, 172.1709
640.9390, 158.7197
641.4211, 145.2529
641.9032, 134.8413
642.3853, 126.8726
642.8674, 119.4648
643.3495, 111.7085
643.8317, 104.8867
644.3138, 101.1914
644.7959, 105.1904
645.2780, 104.1284
645.7601, 96.68506
646.2422, 85.41699
646.7244, 71.09033
647.2065, 51.57617
647.6886, 41.69824
648.1707, 46.83643
648.6528, 59.12256
649.1349, 62.03613
649.6171, 56.95361
650.0992, 53.67139
650.5813, 62.32324
651.0634, 71.78467
651.5455, 63.71729
652.0276, 41.88623
652.5098, 26.98779
652.9919, 37.15576
653.4740, 52.16699
653.9561, 59.25732
654.4382, 55.79346
654.9203, 52.83643
655.4025, 50.13232
655.8846, 49.65430
656.3667, 54.11621
656.8488, 68.21826
657.3309, 72.47852
657.8130, 64.42676
658.2952, 49.76172
658.7773, 34.56738
659.2594, 19.01367
659.7415, 6.936523
660.2236, 0.2368160
660.7057, 4.263184
661.1879, 8.572754
661.6700, 11.87158
662.1521, 10.41455
662.6342, 5.602539
663.1163, 20.05811
663.5984, 21.55469
664.0806, 11.29541
664.5627, 0.9985350
665.0448, 7.671387
665.5269, 14.54785
666.0090, 20.46826
666.4911, 26.16846
666.9733, 23.81738
667.4554, 9.386230
667.9375, 5.125977
668.4196, 8.081543
668.9017, 2.9297000E-02
669.3839, 4.593262
669.8660, 4.749023
670.3481, 0.7456050
670.8302, 22.20410
671.3123, 49.71582
671.7944, 60.47021
672.2766, 37.81494
672.7587, 12.06885
673.2408, 2.920898
673.7229, 4.852539
674.2050, 6.818848
674.6871, 4.136230
675.1693, 2.971680
675.6514, 5.917969
676.1335, 12.02881
676.6156, 16.58691
677.0977, 19.82861
677.5798, 20.97119
678.0620, 19.34131
678.5441, 15.13330
679.0262, 9.601074
679.5083, 2.508301
679.9904, 2.842285
680.4725, 5.219238
680.9547, 3.682129
681.4368, 5.574219
681.9189, 23.93115
682.4010, 40.29492
682.8831, 50.65039
683.3652, 53.38770
683.8474, 45.83496
684.3295, 15.38818
684.8116, 6.278809
685.2937, 10.05957
685.7758, 4.637695
686.2579, 0.4301760
686.7401, 2.333984
687.2222, 4.822754
687.7043, 8.269531
688.1864, 10.67432
688.6685, 4.718262
689.1506, 8.950684
689.6328, 19.40332
690.1149, 21.39648
690.5970, 17.57275
691.0791, 9.703125
691.5612, 1.265625
692.0433, 10.07324
692.5255, 12.53320
693.0076, 13.22607
693.4897, 14.04834
693.9718, 14.93213
694.4539, 19.48730
694.9360, 31.97314
695.4182, 44.69141
695.9003, 54.58447
696.3824, 62.56738
696.8645, 61.21973
697.3466, 47.10254
697.8287, 32.99268
698.3109, 38.47510
698.7930, 58.10059
699.2751, 59.60400
699.7572, 32.92139
700.2393, 3.593262
700.7214, 1.352539
701.2036, 9.347656
701.6857, 20.95557
702.1678, 25.17041
702.6499, 33.01562
703.1320, 55.17090
703.6141, 83.86523
704.0963, 99.26416
704.5784, 94.79199
705.0605, 85.85303
705.5426, 73.77783
706.0247, 59.90088
706.5068, 49.41406
706.9890, 41.97070
707.4711, 40.09717
707.9532, 49.35938
708.4353, 64.71289
708.9174, 70.41895
709.3995, 67.73975
709.8817, 68.91992
710.3638, 90.37549
710.8459, 114.2036
711.3280, 123.3804
711.8101, 114.8091
712.2922, 104.4209
712.7744, 87.11670
713.2565, 76.77344
713.7386, 84.23535
714.2207, 123.3433
714.7028, 142.4331
715.1849, 133.8286
715.6671, 118.8516
716.1492, 124.9893
716.6313, 149.7656
717.1134, 163.7520
717.5955, 160.9878
718.0776, 148.3667
718.5598, 124.9292
719.0419, 99.16211
719.5240, 88.28564
720.0061, 116.4580
720.4882, 140.1138
720.9703, 128.1177
721.4525, 96.65771
721.9346, 82.71436
722.4167, 101.3960
722.8988, 124.6729
723.3809, 153.3120
723.8630, 182.3896
724.3452, 187.7319
724.8273, 166.1812
725.3094, 148.5796
725.7915, 153.1484
726.2736, 169.4502
726.7557, 171.7065
727.2379, 161.1377
727.7200, 148.2388
728.2021, 132.9102
728.6842, 123.3511
729.1663, 129.9688
729.6484, 154.1509
730.1306, 172.7456
730.6127, 175.0596
731.0948, 173.0957
731.5769, 175.0337
732.0590, 184.5884
732.5411, 181.5259
733.0233, 163.2402
733.5054, 138.2949
733.9875, 111.1245
734.4696, 82.84912
734.9517, 63.04248
735.4338, 52.91699
735.9160, 49.37695
736.3981, 52.25586
736.8802, 58.71484
737.3623, 65.16797
737.8444, 73.42285
738.3266, 75.83252
738.8087, 65.49512
739.2908, 49.42871
739.7729, 37.21924
740.2551, 27.79443
740.7372, 24.63672
741.2193, 30.18115
741.7014, 40.51367
742.1835, 47.06982
742.6656, 49.32373
743.1478, 53.00439
743.6299, 63.96875
744.1120, 73.39111
744.5941, 61.81689
745.0762, 36.06201
745.5583, 17.03711
746.0405, 17.75146
746.5226, 25.62988
747.0047, 38.24951
747.4868, 53.25537
747.9689, 58.89941
748.4510, 45.58057
748.9332, 34.56152
749.4153, 34.62500
749.8974, 43.67920
750.3795, 38.93848
750.8616, 17.94727
751.3438, 2.060547
751.8259, 8.560059
752.3080, 29.35059
752.7901, 49.56348
753.2722, 68.10986
753.7543, 75.41309
754.2365, 51.76465
754.7186, 23.44287
755.2007, 13.99805
755.6828, 30.05908
756.1649, 40.13379
756.6470, 30.54785
757.1292, 21.00342
757.6113, 25.52344
758.0934, 50.21973
758.5755, 58.35889
759.0576, 46.26025
759.5397, 30.97900
760.0219, 33.76807
760.5040, 48.11768
760.9861, 50.93457
761.4682, 36.08789
761.9503, 23.42041
762.4324, 36.92725
762.9146, 57.97949
763.3967, 63.03223
763.8788, 22.85303
764.3609, 4.860352
764.8430, 43.39160
765.3251, 96.38086
765.8073, 114.3218
766.2894, 86.32178
766.7715, 64.85498
767.2536, 56.21484
767.7357, 58.90771
768.2178, 79.81055
768.7000, 112.4585
769.1821, 126.8970
769.6642, 103.3320
770.1463, 73.64307
770.6284, 62.63525
771.1105, 65.94678
771.5927, 75.06836
772.0748, 96.72803
772.5569, 113.3530
773.0390, 121.8911
773.5211, 122.4824
774.0032, 111.4043
774.4854, 82.26465
774.9675, 65.43701
775.4496, 73.66406
775.9317, 96.92578
776.4138, 110.9155
776.8959, 116.9937
777.3781, 122.9062
777.8602, 130.5347
778.3423, 141.4102
778.8244, 161.8652
779.3065, 188.0317
779.7886, 204.0107
780.2708, 191.6704
780.7529, 182.5015
781.2350, 189.3745
781.7171, 209.9487
782.1992, 220.2075
782.6813, 217.3550
783.1635, 214.9341
783.6456, 218.5601
784.1277, 228.3145
784.6098, 246.4551
785.0919, 271.9883
785.5740, 296.8423
786.0562, 319.6753
786.5383, 337.0576
787.0204, 341.5879
787.5025, 333.3052
787.9846, 334.2319
788.4667, 355.5537
788.9489, 381.9590
789.4310, 409.0186
789.9131, 436.8516
790.3952, 456.6465
790.8773, 466.1240
791.3594, 477.3745
791.8416, 504.5205
792.3237, 539.5557
792.8058, 557.5439
793.2879, 557.9771
793.7700, 562.2476
794.2521, 598.5562
794.7343, 635.6040
795.2164, 643.6426
795.6985, 610.9644
796.1806, 589.2065
796.6627, 592.0649
797.1448, 600.0718
797.6270, 600.7026
798.1091, 596.1040
798.5912, 575.6831
799.0733, 538.2661
799.5554, 502.4556
800.0375, 487.7397
800.5197, 484.8408
801.0018, 478.5127
801.4839, 467.0786
801.9660, 451.4663
802.4481, 426.6553
802.9302, 401.2349
803.4124, 382.6387
803.8945, 377.3662
804.3766, 369.7197
804.8587, 360.7715
805.3408, 349.3130
805.8229, 330.3384
806.3051, 304.4614
806.7872, 291.0264
807.2693, 296.2036
807.7514, 299.9253
808.2335, 270.6577
808.7156, 228.7217
809.1978, 208.7383
809.6799, 226.7563
810.1620, 242.3877
810.6441, 231.7773
811.1262, 214.9863
811.6083, 212.4248
812.0905, 238.5420
812.5726, 247.6831
813.0547, 236.5840
813.5368, 216.1660
814.0189, 196.6294
814.5010, 178.8188
814.9832, 165.0381
815.4653, 156.5498
815.9474, 150.1104
816.4295, 140.6611
816.9116, 132.9575
817.3937, 133.2788
817.8759, 150.3140
818.3580, 161.6147
818.8401, 162.8740
819.3222, 156.8408
819.8043, 142.1279
820.2864, 113.0986
820.7686, 104.6948
821.2507, 125.3330
821.7328, 151.1372
822.2149, 147.0093
822.6970, 123.9790
823.1791, 108.7964
823.6613, 109.6401
824.1434, 115.2007
824.6255, 127.9463
825.1076, 137.7856
825.5897, 132.9653
826.0718, 84.76855
826.5540, 61.86182
827.0361, 74.27588
827.5182, 99.96045
828.0003, 116.0801
828.4824, 122.8999
828.9645, 121.2886
829.4467, 109.7666
829.9288, 93.78711
830.4109, 78.45898
830.8930, 66.68115
831.3751, 61.35938
831.8572, 66.30566
832.3394, 71.65918
832.8215, 74.60693
833.3036, 74.30908
833.7857, 71.38232
834.2678, 66.44238
834.7499, 62.40771
835.2321, 59.23145
835.7142, 59.21289
836.1963, 64.59912
836.6784, 73.36035
837.1605, 80.88281
837.6426, 88.21484
838.1248, 97.48975
838.6069, 117.6235
839.0890, 137.0552
839.5711, 142.2754
840.0532, 122.9980
840.5353, 102.4087
841.0175, 78.76270
841.4996, 57.93262
841.9817, 45.18799
842.4638, 40.50342
842.9459, 47.22412
843.4280, 66.85010
843.9102, 88.27246
844.3923, 104.6582
844.8744, 114.3926
845.3565, 113.0596
845.8386, 96.80420
846.3207, 81.07129
846.8029, 71.69580
847.2850, 65.89355
847.7671, 61.42676
848.2492, 57.38184
848.7313, 55.86426
849.2134, 58.58154
849.6956, 59.99561
850.1777, 51.47266
850.6598, 36.83057
851.1419, 30.85596
851.6240, 36.10059
852.1061, 41.62500
852.5883, 43.38574
853.0704, 38.98096
853.5525, 21.95459
854.0346, 20.97559
854.5167, 33.82471
854.9988, 9.525391
855.4810, 52.86182
855.9631, 49.33643
856.4452, 2.141602
856.9273, 25.82129
857.4094, 18.54736
857.8915, 2.239746
858.3737, 7.160156
858.8558, 12.48730
859.3379, 15.63770
859.8200, 16.35938
860.3021, 21.81104
860.7842, 47.88867
861.2664, 67.26709
861.7485, 60.58594
862.2306, 23.29590
862.7127, 10.75000
863.1948, 29.72314
863.6769, 43.25439
864.1591, 11.08154
864.6412, 42.80908
865.1233, 58.79639
865.6054, 37.35693
866.0875, 9.855957
866.5696, 15.49561
867.0518, 32.36523
867.5339, 32.26709
868.0160, 13.80225
868.4981, 8.084473
868.9802, 23.85010
869.4623, 33.68408
869.9445, 18.96143
870.4266, 11.95996
870.9087, 16.08203
871.3908, 4.044434
871.8729, 21.30908
872.3550, 12.52197
872.8372, 0.5415040
873.3193, 2.718262
873.8014, 19.40674
874.2835, 30.19824
874.7656, 29.61182
875.2477, 23.28516
875.7299, 9.526367
876.2120, 8.332031
876.6941, 16.89746
877.1762, 16.19971
877.6583, 13.20850
878.1404, 9.898438
878.6226, 7.119141
879.1047, 7.464355
879.5869, 9.265137
880.0690, 7.963867
880.5511, 9.261230
881.0332, 16.73633
881.5153, 1.444336
881.9974, 31.35107
882.4796, 44.51270
882.9617, 38.27197
883.4438, 30.57129
883.9259, 26.02344
884.4080, 22.13916
884.8901, 9.271484
885.3723, 6.160156
885.8544, 7.082520
886.3365, 28.57324
886.8186, 53.43945
887.3007, 34.45215
887.7828, 2.674805
888.2650, 22.44727
888.7471, 21.10547
889.2292, 7.307617
889.7113, 25.06006
890.1934, 53.80127
890.6755, 39.89893
891.1577, 1.447266
891.6398, 22.03857
892.1219, 10.31885
892.6040, 10.70898
893.0861, 41.18896
893.5682, 63.93701
894.0504, 59.26074
894.5325, 5.858398
895.0146, 26.85352
895.4967, 33.02295
895.9788, 29.24463
896.4609, 29.16992
896.9431, 31.38770
897.4252, 25.95508
897.9073, 12.25098
898.3894, 1.136230
898.8715, 7.407227
899.3536, 11.15820
899.8358, 18.94727
900.3179, 32.39160
900.8000, 30.48340
901.2821, 2.106934
901.7642, 30.19824
902.2463, 35.26318
902.7285, 20.95850
903.2106, 19.85742
903.6927, 31.16650
904.1748, 35.84863
904.6569, 8.010742
905.1390, 21.30811
905.6212, 12.70361
906.1033, 24.34375
906.5854, 47.19141
907.0675, 26.19629
907.5496, 10.81006
908.0317, 13.23340
908.5139, 28.49170
908.9960, 45.44092
909.4781, 64.38135
909.9602, 76.11523
910.4423, 74.09277
910.9244, 67.98340
911.4066, 68.96484
911.8887, 72.13428
912.3708, 73.62744
912.8529, 72.15283
913.3350, 75.17969
913.8171, 89.30518
914.2993, 100.3242
914.7814, 86.64648
915.2635, 46.94043
915.7456, 31.15869
916.2277, 48.95166
916.7098, 77.57910
917.1920, 92.68701
917.6741, 100.5806
918.1562, 111.0825
918.6383, 127.6743
919.1204, 142.1929
919.6025, 150.4819
920.0847, 156.7017
920.5668, 162.6138
921.0489, 168.3091
921.5310, 186.1846
922.0131, 216.5088
922.4952, 242.6675
922.9774, 248.4712
923.4595, 250.7310
923.9416, 278.9800
924.4237, 331.6636
924.9058, 367.5571
925.3879, 342.8818
925.8701, 325.9077
926.3522, 351.7061
926.8343, 413.9888
927.3164, 449.6699
927.7985, 455.3716
928.2806, 465.1265
928.7628, 502.4531
929.2449, 550.2056
929.7270, 575.0083
930.2091, 584.6885
930.6912, 602.7041
931.1733, 642.6982
931.6555, 689.7285
932.1376, 737.8071
932.6197, 789.8364
933.1018, 852.7554
933.5839, 928.9233
934.0660, 1001.949
934.5482, 1071.173
935.0303, 1133.977
935.5124, 1179.743
935.9945, 1219.581
936.4766, 1271.756
936.9587, 1341.521
937.4409, 1422.688
937.9230, 1525.582
938.4051, 1631.752
938.8872, 1724.131
939.3693, 1798.913
939.8514, 1884.966
940.3336, 1982.978
940.8157, 2089.023
941.2978, 2205.405
941.7799, 2324.737
942.2620, 2436.857
942.7441, 2541.350
943.2263, 2645.277
943.7084, 2742.780
944.1905, 2844.916
944.6726, 2957.376
945.1547, 3080.617
945.6368, 3205.017
946.1190, 3330.630
946.6011, 3447.945
947.0832, 3546.701
947.5653, 3641.055
948.0474, 3752.765
948.5295, 3878.683
949.0117, 4007.390
949.4938, 4142.678
949.9759, 4266.413
950.4580, 4373.587
950.9401, 4468.868
951.4222, 4555.383
951.9044, 4634.508
952.3865, 4726.124
952.8686, 4831.440
953.3507, 4946.461
953.8328, 5077.957
954.3149, 5211.506
954.7971, 5327.810
955.2792, 5415.598
955.7613, 5506.782
956.2434, 5609.158
956.7255, 5712.604
957.2076, 5809.212
957.6898, 5899.784
958.1719, 6006.201
958.6540, 6129.318
959.1361, 6239.927
959.6182, 6306.175
960.1003, 6359.691
960.5825, 6428.403
961.0646, 6511.540
961.5467, 6598.650
962.0288, 6698.060
962.5109, 6784.854
962.9930, 6850.210
963.4752, 6899.729
963.9573, 6942.616
964.4394, 6978.773
964.9215, 7010.646
965.4036, 7037.928
965.8857, 7063.487
966.3679, 7101.537
966.8500, 7134.356
967.3321, 7137.889
967.8142, 7093.170
968.2963, 7047.609
968.7784, 7003.009
969.2606, 6954.975
969.7427, 6907.466
970.2248, 6853.554
970.7069, 6759.426
971.1890, 6623.497
971.6711, 6490.764
972.1533, 6405.880
972.6354, 6323.043
973.1175, 6203.592
973.5996, 6048.053
974.0817, 5928.074
974.5638, 5853.653
975.0460, 5779.158
975.5281, 5680.741
976.0102, 5573.689
976.4923, 5492.948
976.9744, 5430.749
977.4565, 5364.287
977.9387, 5268.475
978.4208, 5184.448
978.9029, 5128.449
979.3850, 5092.207
979.8671, 5066.295
980.3492, 5052.068
980.8314, 5043.029
981.3135, 5041.431
981.7956, 5031.204
982.2777, 4981.035
982.7598, 4919.649
983.2419, 4891.290
983.7241, 4906.063
984.2062, 4906.378
984.6883, 4864.048
985.1704, 4814.330
985.6525, 4768.954
986.1346, 4730.135
986.6168, 4717.594
987.0989, 4729.656
987.5810, 4727.088
988.0631, 4676.771
988.5452, 4610.469
989.0273, 4552.846
989.5095, 4502.923
989.9916, 4459.950
990.4737, 4438.108
990.9558, 4399.170
991.4379, 4330.434
991.9200, 4253.140
992.4022, 4201.300
992.8843, 4172.415
993.3664, 4153.041
993.8485, 4142.663
994.3306, 4128.189
994.8127, 4095.923
995.2949, 4059.733
995.7770, 4032.460
996.2591, 4016.006
996.7412, 3993.432
997.2233, 3963.375
997.7054, 3936.683
998.1876, 3922.993
998.6697, 3915.213
999.1518, 3894.416
999.6339, 3864.048
1000.116, 3837.656
1000.598, 3816.856
1001.080, 3806.194
1001.562, 3815.029
1002.044, 3831.133
1002.527, 3831.595
1003.009, 3815.242
1003.491, 3801.817
1003.973, 3797.089
1004.455, 3787.838
1004.937, 3759.322
1005.419, 3717.815
1005.901, 3669.090
1006.384, 3610.567
1006.866, 3561.054
1007.348, 3522.714
1007.830, 3493.928
1008.312, 3484.603
1008.794, 3485.666
1009.276, 3430.958
1009.758, 3327.298
1010.240, 3230.031
1010.723, 3179.183
1011.205, 3137.299
1011.687, 3082.518
1012.169, 3018.388
1012.651, 2958.018
1013.133, 2908.961
1013.615, 2839.888
1014.097, 2743.630
1014.580, 2632.115
1015.062, 2515.796
1015.544, 2399.573
1016.026, 2295.301
1016.508, 2209.307
1016.990, 2114.063
1017.472, 1984.383
1017.954, 1855.510
1018.436, 1748.400
1018.919, 1662.770
1019.401, 1571.218
1019.883, 1473.706
1020.365, 1383.938
1020.847, 1317.134
1021.329, 1255.766
1021.811, 1179.843
1022.293, 1096.081
1022.776, 1019.459
1023.258, 958.4795
1023.740, 895.4067
1024.222, 828.2168
1024.704, 758.7998
1025.186, 681.1924
1025.668, 603.1626
1026.150, 560.7998
1026.632, 562.2261
1027.115, 558.8730
1027.597, 515.9932
1028.079, 461.8921
1028.561, 412.9478
1029.043, 369.5688
1029.525, 329.0859
1030.007, 291.5737
1030.489, 264.3369
1030.972, 257.7822
1031.454, 255.1772
1031.936, 226.1475
1032.418, 183.5913
1032.900, 155.6357
1033.382, 170.5278
1033.864, 171.9150
1034.346, 151.2300
1034.828, 119.5239
1035.311, 85.61523
1035.793, 50.63770
1036.275, 23.78467
1036.757, -16.99563
1037.239, 11.42142
1037.721, 27.39336
1038.203, 31.58893
1038.685, -11.26338
1039.167, 6.636886
1039.650, 0.1902618
1040.132, -7.254696
1040.614, 19.19623
1041.096, -16.81306
1041.578, 9.100336
1042.060, 10.29532
1042.542, 22.80331
1043.024, 10.81406
1043.507, 6.391211
1043.989, 26.47347
1044.471, 32.98707
1044.953, 18.17779
1045.435, 31.40490
1045.917, -5.460143
1046.399, 1.631378
1046.881, 27.68817
1047.364, 14.11060
1047.846, 27.78561
1048.328, 31.08132
1048.810, -12.79244
1049.292, 25.36627
1049.774, 28.04862
1050.256, -5.695501
1050.738, 29.65242
1051.220, 0.9301021
1051.703, -4.923084
1052.185, 6.434275
1052.667, -0.1497220
1053.149, 21.55291
1053.631, 16.00498
1054.113, 8.022364
1054.595, 10.66493
1055.077, -16.80103
1055.559, 6.495117
1056.042, 33.11865
1056.524, 47.60840
1057.006, 51.56250
1057.488, 58.05957
1057.970, 79.41846
1058.452, 100.1890
1058.934, 104.7524
1059.416, 104.1450
1059.899, 120.6787
1060.381, 162.8545
1060.863, 192.5928
1061.345, 205.5913
1061.827, 211.3599
1062.309, 216.0786
1062.791, 221.9077
1063.273, 230.6499
1063.755, 242.7007
1064.238, 262.9668
1064.720, 304.6421
1065.202, 339.8179
1065.684, 360.6665
1066.166, 368.9810
1066.648, 365.1055
1067.130, 351.8975
1067.612, 341.6675
1068.094, 337.4419
1068.577, 339.2905
1069.059, 357.2681
1069.541, 374.3657
1070.023, 372.6069
1070.505, 347.0254
1070.987, 333.0571
1071.469, 332.0942
1071.951, 327.1440
1072.434, 299.9692
1072.916, 266.9165
1073.398, 246.6504
1073.880, 236.8574
1074.362, 228.4087
1074.844, 216.2021
1075.326, 211.7622
1075.808, 221.7925
1076.291, 230.5400
1076.773, 210.6064
1077.255, 171.8101
1077.737, 143.5669
1078.219, 130.8916
1078.701, 117.7173
1079.183, 84.15088
1079.665, 61.56152
1080.147, 72.68555
1080.630, 108.0449
1081.112, 105.0518
1081.594, 65.25586
1082.076, 37.77246
1082.558, 48.57910
1083.040, 64.19775
1083.522, 47.24121
1084.004, 20.20117
1084.486, 15.60742
1084.969, 50.54932
1085.451, 67.26074
1085.933, 62.97998
1086.415, 50.51318
1086.897, 35.30078
1087.379, 20.58252
1087.861, 12.33350
1088.343, 9.854492
1088.826, 9.640625
1089.308, 13.28125
1089.790, 15.05908
1090.272, 12.05664
1090.754, 9.068359
1091.236, 15.57764
1091.718, 29.11670
1092.200, 36.93311
1092.682, 36.50879
1093.165, 39.11523
1093.647, 59.65234
1094.129, 78.15527
1094.611, 79.36377
1095.093, 66.41211
1095.575, 63.35107
1096.057, 70.53369
1096.539, 75.64307
1097.022, 71.56201
1097.504, 67.68115
1097.986, 76.75732
1098.468, 90.73340
1098.950, 98.32031
1099.432, 92.57031
1099.914, 99.12793
1100.396, 121.5972
1100.879, 142.8418
1101.361, 149.6162
1101.843, 145.9517
1102.325, 134.9614
1102.807, 120.1431
1103.289, 113.5908
1103.771, 132.3867
1104.253, 142.4961
1104.735, 135.2891
1105.218, 121.7720
1105.700, 117.9360
1106.182, 121.3032
1106.664, 118.0786
1107.146, 106.9692
1107.628, 101.5898
1108.110, 114.6968
1108.592, 130.5752
1109.074, 138.9038
1109.557, 143.0044
1110.039, 156.7275
1110.521, 180.1055
1111.003, 205.9458
1111.485, 237.2832
1111.967, 255.7676
1112.449, 233.1782
1112.931, 193.3354
1113.414, 159.2788
1113.896, 129.8550
1114.378, 129.5176
1114.860, 165.1157
1115.342, 199.9351
1115.824, 212.3555
1116.306, 212.2988
1116.788, 213.2354
1117.271, 214.3901
1117.753, 213.9917
1118.235, 206.8013
1118.717, 206.8184
1119.199, 221.2480
1119.681, 230.9482
1120.163, 206.2993
1120.645, 163.2515
1121.127, 152.1309
1121.609, 172.2280
1122.092, 194.6592
1122.574, 215.1440
1123.056, 221.7524
1123.538, 201.4922
1124.020, 173.3345
1124.502, 178.0469
1124.984, 211.8872
1125.466, 244.9941
1125.949, 272.2378
1126.431, 292.4580
1126.913, 310.8584
1127.395, 316.5542
1127.877, 288.7412
1128.359, 235.8462
1128.841, 227.7749
1129.323, 267.3828
1129.806, 299.4146
1130.288, 297.4326
1130.770, 293.4688
1131.252, 333.5596
1131.734, 384.8418
1132.216, 399.2920
1132.698, 354.7778
1133.180, 340.2104
1133.662, 362.0581
1134.145, 387.1729
1134.627, 397.2051
1135.109, 395.7778
1135.591, 380.3916
1136.073, 358.3125
1136.555, 348.2305
1137.037, 372.5327
1137.519, 382.0195
1138.001, 367.5947
1138.484, 350.4741
1138.966, 357.2148
1139.448, 377.3447
1139.930, 386.5601
1140.412, 385.5586
1140.894, 376.7173
1141.376, 351.8535
1141.858, 330.5537
1142.341, 319.2534
1142.823, 314.5884
1143.305, 309.1436
1143.787, 302.4146
1144.269, 292.1724
1144.751, 277.9858
1145.233, 257.5020
1145.715, 216.9521
1146.198, 183.8950
1146.680, 178.7061
1147.162, 192.0903
1147.644, 179.2905
1148.126, 141.9512
1148.608, 111.2583
1149.090, 98.51270
1149.572, 94.05518
1150.054, 98.02783
1150.536, 100.7778
1151.019, 91.19238
1151.501, 65.77979
1151.983, 63.76660
1152.465, 86.95312
1152.947, 101.9629
1153.429, 82.85986
1153.911, 55.94873
1154.393, 46.84814
1154.876, 47.37109
1155.358, 43.09668
1155.840, 22.58691
1156.322, 26.57910
1156.804, 61.61182
1157.286, 92.90625
1157.768, 83.98242
1158.250, 60.25146
1158.733, 35.75439
1159.215, 61.60938
1159.697, 76.94629
1160.179, 81.94287
1160.661, 41.81006
1161.143, 57.85693
1161.625, 51.37988
1162.107, 44.40674
1162.589, 68.75146
1163.072, 34.75391
1163.554, 58.30176
1164.036, 59.40332
1164.518, 72.20654
1165.000, 61.62158
1165.482, 57.20264
1165.964, 75.36377
1166.446, 80.84570
1166.928, 66.51074
1167.411, 78.29443
1167.893, 46.50830
1168.375, 47.08301
1168.857, 50.07422
1169.339, 53.20264
1169.821, 54.48682
1170.303, 55.91797
1170.785, 68.80957
1171.268, 88.24951
1171.750, 96.66943
1172.232, 82.69775
1172.714, 72.00488
1173.196, 81.67334
1173.678, 91.04102
1174.160, 85.07324
1174.642, 67.56152
1175.125, 67.18652
1175.607, 80.57812
1176.089, 89.14258
1176.571, 75.75342
1177.053, 66.80029
1177.535, 85.84033
1178.017, 105.3062
1178.499, 94.26807
1178.981, 53.36523
1179.464, 42.21436
1179.946, 59.22363
1180.428, 72.52393
1180.910, 55.30518
1181.392, 36.66162
1181.874, 31.96045
1182.356, 35.71387
1182.838, 42.31250
1183.320, 52.18408
1183.803, 43.33301
1184.285, 13.16309
1184.767, 4.942383
1185.249, 32.65869
1185.731, 73.08447
1186.213, 75.97705
1186.695, 52.70850
1187.177, 36.10107
1187.660, 26.16943
1188.142, 26.24512
1188.624, 38.50830
1189.106, 47.12109
1189.588, 26.89502
1190.070, 6.476563
1190.552, 17.42725
1191.034, 53.45557
1191.516, 59.95947
1191.999, 32.53271
1192.481, 18.82471
1192.963, 35.01807
1193.445, 52.49316
1193.927, 37.34229
1194.409, 12.59521
1194.891, 1.716797
1195.373, 6.577637
1195.855, 14.91602
1196.338, 28.52686
1196.820, 28.36377
1197.302, 1.245117
1197.784, 30.36475
1198.266, 22.67773
1198.748, 3.231934
1199.230, 26.98730
1199.712, 48.31104
1200.195, 49.43408
1200.677, 27.33643
1201.159, 6.266113
1201.641, 0.6191410
1202.123, 0.8413090
1202.605, 1.148926
1203.087, 5.664551
1203.569, 14.57666
1204.052, 33.99023
1204.534, 38.87012
1205.016, 27.77490
1205.498, 11.09766
1205.980, 11.53760
1206.462, 29.89014
1206.944, 30.64697
1207.426, 18.33105
1207.908, 1.398926
1208.391, 27.94189
1208.873, 33.85889
1209.355, 11.14258
1209.837, 14.66943
1210.319, 22.22852
1210.801, 20.68994
1211.283, 21.27686
1211.765, 21.66260
1212.247, 10.04150
1212.730, 24.61035
1213.212, 35.19482
1213.694, 12.85254
1214.176, 14.94971
1214.658, 22.50195
1215.140, 20.47559
1215.622, 22.41602
1216.104, 26.78076
1216.587, 18.40576
1217.069, 12.30371
1217.551, 21.67285
1218.033, 1.917969
1218.515, 28.64600
1218.997, 18.54248
1219.479, 2.173828
1219.961, 1.518555
1220.443, 29.08740
1220.926, 31.76514
1221.408, 1.775391
1221.890, 20.44971
1222.372, 10.40137
1222.854, 11.29541
1223.336, 32.97070
1223.818, 49.26416
1224.300, 50.11133
1224.782, 33.80957
1225.265, 32.44482
1225.747, 51.57227
1226.229, 56.98389
1226.711, 32.38721
1227.193, 5.957520
1227.675, 18.98438
1228.157, 45.49268
1228.639, 52.32324
1229.122, 33.44873
1229.604, 26.65723
1230.086, 33.45508
1230.568, 42.16846
1231.050, 48.87354
1231.532, 54.37451
1232.014, 59.12793
1232.496, 63.46436
1232.979, 69.78027
1233.461, 79.81543
1233.943, 72.50000
1234.425, 45.33447
1234.907, 27.37354
1235.389, 38.85547
1235.871, 54.76367
1236.353, 41.61719
1236.835, 22.64111
1237.318, 33.30176
1237.800, 80.94336
1238.282, 106.1113
1238.764, 108.0918
1239.246, 95.34863
1239.728, 60.01562
1240.210, 27.79346
1240.692, 20.11279
1241.175, 29.82617
1241.657, 50.55664
1242.139, 87.60742
1242.621, 90.28223
1243.103, 58.91260
1243.585, 33.77734
1244.067, 50.78662
1244.549, 70.33105
1245.031, 61.18164
1245.514, 40.52979
1245.996, 32.52539
1246.478, 37.92725
1246.960, 50.25830
1247.442, 68.63135
1247.924, 78.99756
1248.406, 57.76611
1248.888, 39.73291
1249.370, 49.54102
1249.853, 71.52539
1250.335, 87.03174
1250.817, 96.71484
1251.299, 98.61816
1251.781, 89.93018
1252.263, 87.59912
1252.745, 102.1074
1253.227, 110.7915
1253.710, 98.73486
1254.192, 79.84131
1254.674, 70.78711
1255.156, 70.44580
1255.638, 61.73389
1256.120, 42.06689
1256.602, 28.02930
1257.084, 29.17139
1257.567, 37.65967
1258.049, 46.39648
1258.531, 53.94531
1259.013, 54.31836
1259.495, 51.17920
1259.977, 71.01123
1260.459, 107.5767
1260.941, 124.4663
1261.423, 76.60791
1261.906, 44.33643
1262.388, 43.30322
1262.870, 56.58838
1263.352, 58.33447
1263.834, 51.11914
1264.316, 56.06396
1264.798, 70.35840
1265.280, 79.57422
1265.762, 79.15967
1266.245, 73.48047
1266.727, 62.90137
1267.209, 51.75439
1267.691, 44.66162
1268.173, 41.63867
1268.655, 43.50830
1269.137, 49.72168
1269.619, 50.85156
1270.102, 38.22266
1270.584, 44.19141
1271.066, 81.75146
1271.548, 116.4609
1272.030, 86.70557
1272.512, 39.74902
1272.994, 39.73389
1273.476, 87.95752
1273.958, 100.4683
1274.441, 65.30566
1274.923, 40.00244
1275.405, 37.82617
1275.887, 44.13281
1276.369, 49.04688
1276.851, 51.91064
1277.333, 51.16699
1277.815, 47.97656
1278.297, 45.70215
1278.780, 44.56250
1279.262, 41.07324
1279.744, 34.05859
1280.226, 27.69287
1280.708, 22.25879
1281.190, 21.15674
1281.672, 31.19434
1282.154, 47.30078
1282.637, 48.29053
1283.119, 36.83984
1283.601, 42.44775
1284.083, 74.25342
1284.565, 101.7075
1285.047, 105.9697
1285.529, 100.3037
1286.011, 89.07471
1286.494, 75.66650
1286.976, 70.71533
1287.458, 72.13086
1287.940, 73.48730
1288.422, 73.63477
1288.904, 72.28418
1289.386, 65.39209
1289.868, 62.73145
1290.350, 68.61035
1290.833, 79.06104
1291.315, 92.55908
1291.797, 102.5923
1292.279, 89.74023
1292.761, 45.10742
1293.243, 31.57373
1293.725, 74.62939
1294.207, 94.04346
1294.689, 54.61816
1295.172, 0.7705080
1295.654, 2.893555
1296.136, 19.04834
1296.618, 37.48584
1297.100, 48.19678
1297.582, 46.11328
1298.064, 28.43311
1298.546, 16.19873
1299.029, 16.21436
1299.511, 23.16016
1299.993, 37.06396
1300.475, 49.48291
1300.957, 56.98193
1301.439, 58.26758
1301.921, 51.45728
1302.403, 36.81470
1302.885, 21.18237
1303.368, 3.011963
1303.850, 0.3486330
1304.332, 28.71167
1304.814, 0.0000000E+00
##END=



