##NAMES=Danburite
##RRUFFID=R050602
##IDEAL CHEMISTRY=CaB_2_Si_2_O_8_
##LOCALITY=Mogok, Burma
##OWNER=RRUFF
##SOURCE=Bill Larson
##DESCRIPTION=Yellowish brown fragment
##STATUS=The identification of this mineral has been confirmed by X-ray diffraction and chemical analysis
##URL=rruff.info/R050602
##MEASURED CHEMISTRY=Ca_1.00_B_2.00_(Si_1.00_O_4_)_2_
149.9335, 0.0000000E+00
150.4157, 28.42297
150.8978, 63.30591
151.3799, 105.9341
151.8620, 143.4640
152.3441, 184.3975
152.8262, 215.4094
153.3084, 223.6299
153.7905, 191.8900
154.2726, 147.3502
154.7547, 101.2409
155.2368, 61.31116
155.7189, 30.78577
156.2011, 11.89319
156.6832, 2.138672
157.1653, 3.901489
157.6474, 6.019165
158.1295, 5.787964
158.6116, 4.110962
159.0938, 2.365601
159.5759, 2.373901
160.0580, 10.02576
160.5401, 20.93970
161.0222, 36.49561
161.5044, 53.63513
161.9865, 77.39746
162.4686, 111.1987
162.9507, 157.4897
163.4328, 211.8691
163.9149, 268.6332
164.3971, 330.5386
164.8792, 409.3110
165.3613, 527.9193
165.8434, 658.2382
166.3255, 776.1699
166.8076, 936.8617
167.2898, 1027.656
167.7719, 949.5004
168.2540, 719.8152
168.7361, 488.2258
169.2182, 324.8230
169.7003, 213.6184
170.1825, 135.6255
170.6646, 97.98169
171.1467, 81.10364
171.6288, 71.68811
172.1109, 69.64233
172.5931, 72.89941
173.0752, 81.27600
173.5573, 93.77563
174.0394, 108.8737
174.5215, 124.8564
175.0036, 143.5566
175.4858, 166.7340
175.9679, 194.6007
176.4500, 225.9384
176.9321, 257.7990
177.4142, 292.5909
177.8963, 335.1272
178.3785, 389.0449
178.8606, 452.2698
179.3427, 518.8411
179.8248, 588.7853
180.3069, 666.6262
180.7890, 759.5896
181.2712, 864.5247
181.7533, 970.6875
182.2354, 1096.784
182.7175, 1217.589
183.1996, 1276.759
183.6818, 1272.290
184.1639, 1213.159
184.6460, 1084.631
185.1281, 899.5774
185.6102, 720.7352
186.0923, 571.3512
186.5745, 451.9485
187.0566, 372.4695
187.5387, 334.9900
188.0208, 327.3623
188.5029, 336.1044
188.9850, 360.8081
189.4672, 396.5487
189.9493, 444.5061
190.4314, 502.4894
190.9135, 565.0945
191.3956, 635.7792
191.8777, 700.8484
192.3599, 741.2135
192.8420, 756.6202
193.3241, 756.2021
193.8062, 747.8817
194.2883, 730.2086
194.7704, 683.4246
195.2526, 600.5477
195.7347, 499.4940
196.2168, 407.2722
196.6989, 323.1892
197.1810, 255.4669
197.6632, 210.9135
198.1453, 189.0875
198.6274, 176.3009
199.1095, 172.2089
199.5916, 176.2761
200.0737, 187.3896
200.5559, 205.5323
201.0380, 230.7540
201.5201, 263.8328
202.0022, 305.3973
202.4843, 350.3900
202.9664, 398.7551
203.4486, 450.2183
203.9307, 510.0316
204.4128, 583.8038
204.8949, 641.4500
205.3770, 665.1796
205.8591, 652.4321
206.3413, 621.9650
206.8234, 566.0603
207.3055, 499.1924
207.7876, 457.4878
208.2697, 443.6775
208.7519, 450.7582
209.2340, 477.2412
209.7161, 525.3887
210.1982, 583.5310
210.6803, 658.7712
211.1624, 739.1627
211.6446, 797.4086
212.1267, 840.7727
212.6088, 843.4316
213.0909, 782.5210
213.5730, 639.0366
214.0551, 504.0464
214.5373, 377.5228
215.0194, 264.2148
215.5015, 176.2737
215.9836, 118.0934
216.4657, 76.31604
216.9478, 44.20361
217.4300, 22.99048
217.9121, 7.445801
218.3942, 1.727661
218.8763, 5.681763
219.3584, 7.361938
219.8405, 6.460083
220.3227, 3.885498
220.8048, 0.3112790
221.2869, 3.616455
221.7690, 10.25745
222.2511, 19.08167
222.7333, 30.82581
223.2154, 47.38647
223.6975, 69.58276
224.1796, 95.56104
224.6617, 123.8835
225.1438, 152.2227
225.6260, 189.2225
226.1081, 237.1606
226.5902, 293.3162
227.0723, 351.9678
227.5544, 428.6465
228.0365, 484.3370
228.5187, 497.3425
229.0008, 447.8446
229.4829, 403.3983
229.9650, 362.0234
230.4471, 326.6979
230.9292, 305.4155
231.4114, 301.9513
231.8935, 306.3883
232.3756, 314.3561
232.8577, 325.1587
233.3398, 341.4612
233.8220, 364.1093
234.3041, 391.9917
234.7862, 421.6478
235.2683, 451.7374
235.7504, 485.4822
236.2325, 524.7023
236.7147, 569.0791
237.1968, 617.9757
237.6789, 669.9379
238.1610, 727.0504
238.6431, 792.8317
239.1252, 864.7925
239.6074, 950.5596
240.0895, 1053.235
240.5716, 1171.396
241.0537, 1307.445
241.5358, 1461.192
242.0179, 1632.973
242.5001, 1823.787
242.9822, 2035.601
243.4643, 2263.603
243.9464, 2511.529
244.4285, 2794.053
244.9106, 3057.938
245.3928, 3344.996
245.8749, 3590.470
246.3570, 3681.683
246.8391, 3598.311
247.3212, 3393.192
247.8034, 3057.696
248.2855, 2545.844
248.7676, 2089.456
249.2497, 1682.877
249.7318, 1332.189
250.2139, 1049.533
250.6961, 849.1866
251.1782, 690.8010
251.6603, 565.9401
252.1424, 477.9248
252.6245, 402.3970
253.1066, 340.2118
253.5888, 289.0812
254.0709, 245.5552
254.5530, 210.7255
255.0351, 181.2283
255.5172, 157.3799
255.9993, 139.5673
256.4815, 121.5513
256.9636, 102.3867
257.4457, 84.24475
257.9278, 69.68359
258.4099, 59.91394
258.8921, 51.23926
259.3742, 43.07288
259.8563, 35.44592
260.3384, 26.99133
260.8205, 16.59607
261.3026, 6.437622
261.7848, 1.296875
262.2669, 5.936401
262.7490, 9.560547
263.2311, 12.52295
263.7132, 14.80103
264.1953, 15.45850
264.6775, 13.98901
265.1596, 11.90112
265.6417, 10.67310
266.1238, 10.78430
266.6059, 10.40308
267.0880, 9.265747
267.5702, 7.308716
268.0523, 4.001465
268.5344, 1.461914
269.0165, 6.856079
269.4986, 9.999146
269.9807, 9.972290
270.4629, 11.98547
270.9450, 17.03955
271.4271, 24.55859
271.9092, 31.82971
272.3913, 38.35059
272.8734, 46.04248
273.3556, 56.00745
273.8377, 68.21912
274.3198, 82.93909
274.8019, 100.8174
275.2840, 120.9169
275.7661, 140.5228
276.2483, 159.0281
276.7304, 179.2157
277.2125, 204.4402
277.6946, 235.6903
278.1768, 261.0295
278.6589, 281.3079
279.1410, 293.2607
279.6231, 288.6874
280.1052, 266.1537
280.5873, 236.3888
281.0695, 201.6974
281.5516, 162.0768
282.0337, 129.6593
282.5158, 104.9727
282.9979, 87.05164
283.4800, 75.20386
283.9622, 69.54639
284.4443, 67.27026
284.9264, 67.74146
285.4085, 70.78015
285.8906, 75.08887
286.3727, 80.76477
286.8549, 87.29272
287.3370, 93.40393
287.8191, 99.21411
288.3012, 107.3883
288.7833, 119.0396
289.2654, 133.7069
289.7476, 150.0470
290.2297, 168.0531
290.7118, 187.8159
291.1939, 209.6608
291.6760, 233.3344
292.1581, 258.4697
292.6403, 285.1067
293.1224, 312.9994
293.6045, 343.4000
294.0866, 376.0919
294.5687, 407.5817
295.0508, 439.4238
295.5330, 468.5219
296.0151, 483.7083
296.4972, 482.1461
296.9793, 465.9133
297.4614, 435.6219
297.9435, 392.1403
298.4257, 343.8560
298.9078, 292.8959
299.3899, 241.9382
299.8720, 197.7889
300.3541, 160.9128
300.8362, 131.6451
301.3184, 111.9967
301.8005, 100.6523
302.2826, 93.05627
302.7647, 86.65845
303.2469, 82.13074
303.7290, 80.15320
304.2111, 80.69165
304.6932, 84.41321
305.1753, 95.63794
305.6574, 110.8906
306.1396, 121.5353
306.6217, 124.3931
307.1038, 119.9998
307.5859, 106.7552
308.0680, 83.68677
308.5501, 60.31921
309.0323, 42.05151
309.5144, 28.46362
309.9965, 18.93372
310.4786, 14.04272
310.9607, 12.39771
311.4428, 14.44312
311.9250, 19.96570
312.4071, 24.26282
312.8892, 23.88831
313.3713, 21.03967
313.8534, 17.95288
314.3355, 15.70923
314.8177, 13.20142
315.2998, 9.672119
315.7819, 5.351440
316.2640, 1.202637
316.7461, 3.455322
317.2282, 7.164551
317.7104, 8.758667
318.1925, 6.558960
318.6746, 4.272339
319.1567, 3.002319
319.6388, 2.689453
320.1209, 3.122070
320.6031, 5.049316
321.0852, 6.988647
321.5673, 8.234009
322.0494, 8.702271
322.5315, 8.067993
323.0136, 5.782837
323.4958, 2.565430
323.9779, 0.4823000
324.4600, 2.942139
324.9421, 5.840698
325.4242, 9.379028
325.9064, 13.51099
326.3885, 18.95044
326.8706, 26.25537
327.3527, 34.45056
327.8348, 42.60303
328.3170, 49.47046
328.7991, 57.63501
329.2812, 67.69263
329.7633, 79.71814
330.2454, 91.88489
330.7275, 104.9644
331.2097, 117.3881
331.6918, 127.9495
332.1739, 135.6371
332.6560, 143.0724
333.1381, 150.1687
333.6202, 157.0659
334.1024, 164.2511
334.5845, 171.6736
335.0666, 179.3036
335.5487, 187.1110
336.0308, 194.9296
336.5129, 203.1420
336.9951, 211.6182
337.4772, 220.6144
337.9593, 230.7803
338.4414, 241.8101
338.9235, 255.1096
339.4056, 271.1660
339.8878, 289.7814
340.3699, 312.0764
340.8520, 338.2064
341.3341, 368.0121
341.8162, 401.9727
342.2983, 439.6930
342.7805, 482.4982
343.2626, 529.5983
343.7447, 581.9908
344.2268, 642.9597
344.7089, 713.4510
345.1910, 790.3475
345.6732, 870.8665
346.1553, 955.6735
346.6374, 1043.540
347.1195, 1140.253
347.6016, 1234.065
348.0837, 1311.883
348.5659, 1372.976
349.0480, 1393.029
349.5301, 1347.413
350.0122, 1248.472
350.4944, 1121.759
350.9765, 964.6128
351.4586, 801.8279
351.9407, 659.3198
352.4228, 537.0210
352.9049, 434.7606
353.3871, 356.7280
353.8692, 296.7937
354.3513, 249.0111
354.8334, 213.3035
355.3155, 184.6537
355.7976, 160.6720
356.2798, 140.5472
356.7619, 122.7251
357.2440, 106.6421
357.7261, 92.80017
358.2082, 82.07910
358.6903, 74.23193
359.1725, 67.61572
359.6546, 61.61755
360.1367, 56.27930
360.6188, 51.76306
361.1009, 48.61877
361.5830, 45.56958
362.0652, 41.79248
362.5473, 37.69421
363.0294, 34.27808
363.5115, 32.62195
363.9936, 31.17078
364.4757, 29.14368
364.9579, 26.26880
365.4400, 23.42004
365.9221, 20.60217
366.4042, 17.96558
366.8863, 15.70020
367.3684, 14.04175
367.8506, 12.56921
368.3327, 11.32300
368.8148, 10.35461
369.2969, 9.039063
369.7790, 6.654419
370.2611, 4.421753
370.7433, 3.244263
371.2254, 4.242920
371.7075, 4.514893
372.1896, 3.557495
372.6717, 1.660278
373.1538, 2.1850999E-02
373.6360, 1.491089
374.1181, 2.831177
374.6002, 3.933228
375.0823, 4.567749
375.5645, 5.506592
376.0466, 6.736084
376.5287, 7.786499
377.0108, 7.768555
377.4929, 6.500000
377.9750, 5.452271
378.4572, 5.264404
378.9393, 5.833618
379.4214, 6.491089
379.9035, 7.287598
380.3856, 7.611450
380.8677, 6.396362
381.3499, 3.737305
381.8320, 1.722412
382.3141, 1.054932
382.7962, 1.130493
383.2783, 1.079834
383.7604, 0.9016110
384.2426, 0.2314450
384.7247, 3.793579
385.2068, 8.615845
385.6889, 12.07715
386.1710, 13.68689
386.6531, 14.59351
387.1353, 15.46155
387.6174, 16.56372
388.0995, 18.59424
388.5816, 22.52197
389.0637, 27.20105
389.5458, 31.48547
390.0280, 35.41248
390.5101, 39.53040
390.9922, 44.07971
391.4743, 49.06628
391.9564, 54.58740
392.4385, 60.96082
392.9207, 67.48572
393.4028, 73.89709
393.8849, 80.12976
394.3670, 86.04504
394.8491, 92.67261
395.3312, 98.08398
395.8134, 101.3514
396.2955, 102.5431
396.7776, 101.0126
397.2597, 94.97839
397.7418, 86.65942
398.2239, 78.89258
398.7061, 71.00940
399.1882, 64.83289
399.6703, 60.95557
400.1524, 59.41345
400.6346, 59.04175
401.1167, 60.22729
401.5988, 62.24683
402.0809, 64.52966
402.5630, 66.37427
403.0451, 69.85681
403.5273, 75.12646
404.0094, 82.06396
404.4915, 90.67493
404.9736, 101.8691
405.4557, 112.5419
405.9378, 121.7563
406.4200, 129.5935
406.9021, 134.9467
407.3842, 137.6853
407.8663, 138.1464
408.3484, 136.2355
408.8305, 131.9185
409.3127, 127.0129
409.7948, 121.1793
410.2769, 115.6212
410.7590, 114.1714
411.2411, 116.8678
411.7232, 120.9568
412.2054, 124.1245
412.6875, 127.1173
413.1696, 131.9052
413.6517, 138.9702
414.1338, 147.3887
414.6159, 156.3540
415.0981, 165.7701
415.5802, 175.3298
416.0623, 183.3145
416.5444, 192.2166
417.0265, 204.5739
417.5086, 220.5073
417.9908, 237.7826
418.4729, 255.2235
418.9550, 273.0519
419.4371, 291.1428
419.9192, 308.7437
420.4013, 327.7910
420.8835, 350.0546
421.3656, 374.4875
421.8477, 398.4221
422.3298, 421.6538
422.8119, 443.4187
423.2940, 464.0424
423.7762, 484.3375
424.2583, 500.4958
424.7404, 514.7507
425.2225, 523.2970
425.7047, 522.3285
426.1868, 509.4792
426.6689, 490.2296
427.1510, 464.4065
427.6331, 432.3544
428.1152, 396.5321
428.5974, 353.1906
429.0795, 311.0845
429.5616, 274.6395
430.0437, 244.2460
430.5258, 218.0424
431.0079, 196.1809
431.4901, 178.3850
431.9722, 164.2230
432.4543, 153.7290
432.9364, 147.0386
433.4185, 145.1155
433.9006, 147.1229
434.3828, 149.1654
434.8649, 151.1644
435.3470, 155.1215
435.8291, 162.3981
436.3112, 173.0131
436.7933, 186.9719
437.2755, 204.4833
437.7576, 225.0110
438.2397, 248.2524
438.7218, 273.9971
439.2039, 301.2878
439.6860, 330.7844
440.1682, 360.8922
440.6503, 391.7062
441.1324, 423.8541
441.6145, 447.7842
442.0966, 459.7411
442.5787, 459.6556
443.0609, 447.3767
443.5430, 416.8202
444.0251, 380.4432
444.5072, 338.5767
444.9893, 293.4735
445.4714, 252.8303
445.9536, 218.3350
446.4357, 188.3291
446.9178, 162.0929
447.3999, 139.3202
447.8820, 121.1541
448.3641, 109.0485
448.8463, 100.6201
449.3284, 93.14612
449.8105, 86.11047
450.2926, 81.19446
450.7747, 79.07178
451.2569, 79.38708
451.7390, 79.86475
452.2211, 80.18250
452.7032, 81.53113
453.1853, 84.68079
453.6674, 89.50342
454.1496, 95.59729
454.6317, 103.1084
455.1138, 111.2772
455.5959, 118.4918
456.0780, 125.0968
456.5602, 133.9397
457.0423, 147.0197
457.5244, 162.3738
458.0065, 176.0179
458.4886, 188.0579
458.9707, 201.0417
459.4529, 220.5907
459.9350, 241.1625
460.4171, 254.1763
460.8992, 258.6139
461.3813, 255.5845
461.8634, 242.4330
462.3456, 222.6600
462.8277, 202.5575
463.3098, 181.0986
463.7919, 163.0547
464.2740, 151.5647
464.7561, 146.2863
465.2383, 142.5328
465.7204, 138.4524
466.2025, 136.1323
466.6846, 136.9180
467.1667, 142.0559
467.6488, 147.9434
468.1310, 154.4403
468.6131, 161.6636
469.0952, 169.9156
469.5773, 179.4430
470.0594, 189.2476
470.5415, 198.6105
471.0237, 207.6376
471.5058, 219.8678
471.9879, 235.3621
472.4700, 254.0765
472.9521, 275.5874
473.4342, 299.9478
473.9164, 328.0652
474.3985, 360.4310
474.8806, 396.2881
475.3627, 434.0842
475.8448, 473.9287
476.3270, 518.1665
476.8091, 567.2239
477.2912, 621.2672
477.7733, 680.8595
478.2554, 745.9238
478.7375, 814.4924
479.2197, 895.5570
479.7018, 975.6154
480.1839, 1039.369
480.6660, 1090.230
481.1481, 1106.580
481.6302, 1065.066
482.1124, 980.2288
482.5945, 877.0913
483.0766, 742.2018
483.5587, 611.4091
484.0408, 498.8015
484.5229, 405.3055
485.0051, 327.1321
485.4872, 268.6007
485.9693, 221.5555
486.4514, 182.0497
486.9335, 150.4358
487.4156, 124.6776
487.8978, 105.9871
488.3799, 92.60901
488.8620, 81.51831
489.3441, 73.36792
489.8262, 65.77832
490.3083, 57.86194
490.7905, 49.85596
491.2726, 44.08118
491.7547, 40.87402
492.2368, 38.07581
492.7189, 33.94629
493.2010, 28.70483
493.6832, 24.04932
494.1653, 19.92749
494.6474, 17.02441
495.1295, 17.50269
495.6116, 20.07507
496.0938, 20.71143
496.5759, 15.66016
497.0580, 9.686401
497.5401, 8.939819
498.0222, 12.37524
498.5044, 14.70471
498.9865, 10.89526
499.4686, 6.043701
499.9507, 4.763916
500.4328, 8.955811
500.9149, 11.93127
501.3971, 10.26868
501.8792, 6.658691
502.3613, 4.223389
502.8434, 4.297607
503.3255, 4.613281
503.8076, 4.780762
504.2898, 4.871460
504.7719, 5.336670
505.2540, 6.833496
505.7361, 7.699951
506.2182, 6.979004
506.7003, 4.280518
507.1825, 2.540527
507.6646, 1.931030
508.1467, 1.922974
508.6288, 2.361084
509.1109, 3.251465
509.5930, 2.709351
510.0752, 0.2214360
510.5573, 3.880371
511.0394, 5.103027
511.5215, 4.116455
512.0037, 2.401611
512.4858, 0.1983640
512.9679, 2.618286
513.4500, 2.945435
513.9321, 1.147949
514.4142, 0.7303470
514.8964, 1.406372
515.3785, 1.369873
515.8606, 1.103394
516.3427, 0.5389400
516.8248, 0.1082760
517.3069, 0.2351070
517.7891, 0.2958980
518.2712, 0.2864990
518.7533, 2.979614
519.2354, 4.924438
519.7175, 4.840576
520.1996, 2.784668
520.6818, 1.704468
521.1639, 2.319702
521.6460, 3.015869
522.1281, 2.591797
522.6102, 0.3114010
523.0923, 1.2210000E-03
523.5745, 2.456177
524.0566, 5.708496
524.5387, 6.659058
525.0208, 5.319336
525.5029, 4.306763
525.9850, 4.626709
526.4672, 5.533203
526.9493, 5.364014
527.4314, 4.195557
527.9135, 2.808838
528.3956, 1.561646
528.8777, 0.4094240
529.3599, 1.006592
529.8420, 2.819214
530.3241, 3.569214
530.8062, 1.424194
531.2883, 1.944214
531.7704, 4.648804
532.2526, 6.432617
532.7347, 7.207764
533.2168, 6.278687
533.6989, 4.332764
534.1810, 2.952026
534.6631, 2.347656
535.1453, 2.389404
535.6274, 3.417114
536.1095, 5.492310
536.5916, 6.242065
537.0737, 4.930054
537.5558, 3.428101
538.0380, 3.420654
538.5201, 5.410522
539.0022, 5.063721
539.4843, 1.555176
539.9664, 2.934326
540.4485, 4.990479
540.9307, 4.856934
541.4128, 4.693237
541.8949, 5.231812
542.3770, 6.065308
542.8591, 6.450073
543.3412, 6.471191
543.8234, 6.696289
544.3055, 8.172607
544.7876, 9.584351
545.2697, 9.184204
545.7518, 6.621582
546.2339, 4.807251
546.7161, 5.944946
547.1982, 8.067993
547.6803, 9.477295
548.1624, 9.404297
548.6445, 9.147339
549.1266, 8.711914
549.6088, 8.274780
550.0909, 8.239868
550.5730, 9.349365
551.0551, 9.709351
551.5372, 8.451538
552.0193, 5.857178
552.5015, 4.642090
552.9836, 4.938477
553.4657, 6.166016
553.9478, 8.572266
554.4299, 11.90979
554.9120, 13.46777
555.3942, 12.86902
555.8763, 11.51172
556.3584, 10.98096
556.8405, 10.90955
557.3226, 10.24634
557.8047, 8.023926
558.2869, 6.100342
558.7690, 6.427979
559.2511, 8.394409
559.7332, 10.46802
560.2154, 12.35474
560.6975, 13.87085
561.1796, 14.92993
561.6617, 15.53687
562.1439, 15.85278
562.6260, 14.24109
563.1081, 13.67102
563.5902, 16.09302
564.0723, 24.25452
564.5544, 29.51111
565.0366, 31.14905
565.5187, 30.65308
566.0008, 29.50452
566.4829, 27.30432
566.9650, 26.64648
567.4471, 28.24524
567.9293, 31.45874
568.4114, 35.21423
568.8935, 39.56323
569.3756, 43.13794
569.8577, 43.95020
570.3398, 43.90027
570.8220, 46.56702
571.3041, 51.87976
571.7862, 56.74011
572.2683, 58.79468
572.7504, 59.40491
573.2325, 59.88513
573.7147, 60.41113
574.1968, 61.10254
574.6789, 62.41663
575.1610, 63.77502
575.6431, 64.43994
576.1252, 63.23035
576.6074, 62.36279
577.0895, 62.01672
577.5716, 62.41968
578.0537, 64.08447
578.5358, 67.05322
579.0179, 70.91394
579.5001, 75.89294
579.9822, 81.97485
580.4643, 86.93188
580.9464, 90.47180
581.4285, 93.67847
581.9106, 97.46191
582.3928, 101.9186
582.8749, 107.2256
583.3570, 113.5983
583.8391, 119.6885
584.3212, 123.5011
584.8033, 126.3906
585.2855, 130.6630
585.7676, 137.9912
586.2497, 146.0024
586.7318, 153.4542
587.2139, 160.7030
587.6960, 168.6848
588.1782, 175.4342
588.6603, 185.0753
589.1424, 200.1042
589.6245, 220.9268
590.1066, 238.9054
590.5887, 251.5928
591.0709, 264.9362
591.5530, 282.3164
592.0351, 303.6851
592.5172, 329.0283
592.9993, 358.3632
593.4814, 391.3757
593.9636, 426.9138
594.4457, 465.3793
594.9278, 510.3766
595.4099, 562.9749
595.8920, 622.2852
596.3741, 686.6656
596.8563, 756.4996
597.3384, 832.2832
597.8205, 914.2822
598.3026, 1001.288
598.7847, 1091.104
599.2668, 1184.289
599.7490, 1282.907
600.2311, 1385.289
600.7132, 1495.025
601.1953, 1614.666
601.6774, 1745.035
602.1595, 1884.769
602.6417, 2033.303
603.1238, 2194.625
603.6059, 2370.634
604.0880, 2562.532
604.5701, 2766.900
605.0522, 2981.298
605.5344, 3209.350
606.0165, 3448.315
606.4986, 3700.142
606.9807, 3967.946
607.4628, 4257.782
607.9449, 4556.864
608.4271, 4857.543
608.9092, 5153.884
609.3913, 5411.165
609.8735, 5649.442
610.3556, 5812.154
610.8377, 5865.666
611.3198, 5806.198
611.8019, 5646.142
612.2841, 5345.792
612.7662, 4976.137
613.2483, 4568.631
613.7304, 4099.782
614.2125, 3667.100
614.6946, 3264.961
615.1768, 2899.474
615.6589, 2578.052
616.1410, 2299.346
616.6231, 2055.477
617.1052, 1847.431
617.5873, 1668.942
618.0695, 1517.942
618.5516, 1392.482
619.0337, 1285.726
619.5158, 1197.821
619.9979, 1124.641
620.4800, 1063.918
620.9622, 1014.958
621.4443, 975.5708
621.9264, 944.8977
622.4085, 922.6180
622.8906, 908.7566
623.3727, 903.7500
623.8549, 904.7561
624.3370, 911.9153
624.8191, 924.6260
625.3012, 942.5530
625.7833, 967.6404
626.2654, 994.2704
626.7476, 1024.881
627.2297, 1053.602
627.7118, 1075.528
628.1939, 1090.885
628.6760, 1087.889
629.1581, 1062.753
629.6403, 1019.853
630.1224, 961.7070
630.6045, 890.9084
631.0866, 816.7303
631.5687, 738.7188
632.0508, 662.6605
632.5330, 593.2914
633.0151, 531.1101
633.4972, 476.5271
633.9793, 431.5918
634.4614, 392.8655
634.9435, 358.8848
635.4257, 330.2552
635.9078, 304.5985
636.3899, 282.0967
636.8720, 262.0726
637.3541, 244.4333
637.8362, 228.8806
638.3184, 216.5378
638.8005, 208.2963
639.2826, 201.1154
639.7647, 190.7258
640.2468, 177.6642
640.7289, 165.7330
641.2111, 156.0677
641.6932, 147.2239
642.1753, 136.9991
642.6574, 126.2087
643.1395, 116.8488
643.6216, 110.2098
644.1038, 104.7430
644.5859, 99.88440
645.0680, 95.50830
645.5501, 91.07227
646.0322, 86.01343
646.5143, 81.42822
646.9965, 77.83899
647.4786, 75.29565
647.9607, 72.54871
648.4428, 69.53601
648.9249, 66.37720
649.4070, 62.96362
649.8892, 59.32349
650.3713, 56.11975
650.8534, 53.38049
651.3355, 50.97266
651.8176, 49.37585
652.2997, 47.91797
652.7819, 44.71594
653.2640, 38.44409
653.7461, 32.92346
654.2282, 32.33386
654.7103, 34.05969
655.1924, 34.21033
655.6746, 29.18530
656.1567, 25.16003
656.6388, 24.88513
657.1209, 26.83325
657.6030, 26.59119
658.0851, 22.48315
658.5673, 19.25928
659.0494, 18.57837
659.5316, 19.96155
660.0137, 20.30847
660.4958, 19.49121
660.9779, 18.99500
661.4600, 20.35168
661.9421, 22.61743
662.4243, 23.09106
662.9064, 21.74158
663.3885, 20.36707
663.8706, 20.58936
664.3527, 21.31348
664.8348, 21.32056
665.3170, 20.14844
665.7991, 19.41040
666.2812, 20.17517
666.7633, 21.33069
667.2454, 21.77112
667.7275, 20.38147
668.2097, 20.18372
668.6918, 21.60376
669.1739, 23.93469
669.6560, 26.52344
670.1381, 29.54797
670.6202, 30.64844
671.1024, 28.46362
671.5845, 25.26978
672.0666, 26.05334
672.5487, 29.76904
673.0308, 32.33936
673.5129, 30.68237
673.9951, 27.82642
674.4772, 26.44617
674.9593, 26.17041
675.4414, 25.35071
675.9235, 22.57654
676.4056, 19.81311
676.8878, 18.08948
677.3699, 17.50964
677.8520, 16.60547
678.3341, 15.33899
678.8162, 13.81042
679.2983, 11.90833
679.7805, 9.562988
680.2626, 7.993408
680.7447, 7.284546
681.2268, 6.905273
681.7089, 6.428711
682.1910, 5.868896
682.6732, 5.368530
683.1553, 5.024048
683.6374, 4.316162
684.1195, 2.297607
684.6016, 0.1195070
685.0837, 1.811646
685.5659, 2.014404
686.0480, 2.061035
686.5301, 1.985718
687.0122, 2.013062
687.4943, 2.583740
687.9764, 4.321411
688.4586, 5.257568
688.9407, 4.793335
689.4228, 3.502930
689.9049, 2.892456
690.3870, 2.968750
690.8691, 3.273804
691.3513, 3.720825
691.8334, 4.230225
692.3155, 4.577148
692.7976, 4.832153
693.2797, 5.273804
693.7618, 6.147095
694.2440, 7.198120
694.7261, 8.504517
695.2082, 10.00098
695.6903, 10.75256
696.1724, 9.822266
696.6545, 8.692017
697.1367, 8.129395
697.6188, 8.308838
698.1009, 7.568359
698.5830, 5.487915
699.0651, 3.413330
699.5472, 2.480347
700.0294, 2.575806
700.5115, 2.819702
700.9936, 3.206177
701.4757, 3.412231
701.9578, 3.387329
702.4399, 2.913208
702.9221, 1.417969
703.4042, 1.777588
703.8863, 4.397827
704.3684, 4.496704
704.8505, 3.641235
705.3326, 3.677612
705.8148, 5.727417
706.2969, 7.597168
706.7790, 8.948364
707.2611, 10.19421
707.7432, 12.35876
708.2253, 15.82166
708.7075, 17.78540
709.1896, 17.07117
709.6718, 15.16919
710.1539, 15.07520
710.6360, 16.49939
711.1181, 18.21179
711.6002, 19.91541
712.0823, 21.44324
712.5645, 22.32117
713.0466, 22.85352
713.5287, 24.10706
714.0108, 27.02686
714.4929, 30.20007
714.9750, 33.33130
715.4572, 36.37256
715.9393, 38.28357
716.4214, 38.57764
716.9035, 38.74951
717.3856, 39.63647
717.8677, 41.12891
718.3499, 41.80151
718.8320, 41.64832
719.3141, 41.34778
719.7962, 41.69812
720.2783, 42.14087
720.7604, 41.62891
721.2426, 40.04028
721.7247, 38.67371
722.2068, 38.16248
722.6889, 38.26184
723.1710, 38.89441
723.6531, 40.38635
724.1353, 41.51758
724.6174, 42.03882
725.0995, 42.38403
725.5816, 42.85522
726.0637, 43.38635
726.5458, 44.33728
727.0280, 45.70532
727.5101, 47.60535
727.9922, 50.54700
728.4743, 54.12695
728.9564, 57.12988
729.4385, 58.86035
729.9207, 60.88672
730.4028, 65.30127
730.8849, 70.53394
731.3670, 74.33496
731.8491, 73.84436
732.3312, 74.53357
732.8134, 78.60120
733.2955, 84.10364
733.7776, 87.78345
734.2597, 89.00159
734.7418, 90.51184
735.2239, 92.93286
735.7061, 95.91443
736.1882, 98.76636
736.6703, 101.5044
737.1524, 103.9740
737.6345, 105.1672
738.1166, 107.0822
738.5988, 113.6078
739.0809, 122.8582
739.5630, 129.4501
740.0451, 127.6395
740.5272, 126.2010
741.0093, 129.1353
741.4915, 135.8604
741.9736, 142.0493
742.4557, 147.6680
742.9378, 152.6078
743.4199, 156.5404
743.9020, 159.8304
744.3842, 164.6172
744.8663, 170.9362
745.3484, 177.4794
745.8305, 183.8535
746.3126, 189.8286
746.7947, 194.8158
747.2769, 198.9901
747.7590, 203.0958
748.2411, 207.2239
748.7232, 211.6221
749.2053, 216.8523
749.6874, 223.1840
750.1696, 228.1941
750.6517, 230.7271
751.1338, 233.5466
751.6159, 238.6442
752.0980, 246.2377
752.5801, 251.0891
753.0623, 253.0128
753.5444, 253.4546
754.0265, 252.4998
754.5086, 251.3483
754.9907, 252.7491
755.4728, 257.0680
755.9550, 261.1366
756.4371, 262.4502
756.9192, 263.0757
757.4013, 264.8115
757.8835, 268.6450
758.3656, 271.2241
758.8477, 271.9978
759.3298, 271.9836
759.8120, 271.8730
760.2941, 271.6421
760.7762, 272.2094
761.2583, 273.8669
761.7404, 275.4713
762.2225, 275.2113
762.7047, 274.1395
763.1868, 275.1975
763.6689, 279.6776
764.1510, 283.0183
764.6331, 280.5264
765.1152, 276.0721
765.5974, 273.8174
766.0795, 276.0280
766.5616, 278.1079
767.0437, 279.5275
767.5258, 280.8290
768.0079, 282.4688
768.4901, 284.3397
768.9722, 287.4022
769.4543, 292.1156
769.9364, 296.7767
770.4185, 298.7896
770.9006, 298.8861
771.3828, 299.0020
771.8649, 299.8362
772.3470, 300.3973
772.8291, 300.4735
773.3112, 299.7549
773.7933, 297.8192
774.2755, 293.7802
774.7576, 289.7095
775.2397, 286.1510
775.7218, 282.5139
776.2039, 277.7489
776.6860, 271.7839
777.1682, 265.8007
777.6503, 259.9132
778.1324, 253.6614
778.6145, 245.0259
779.0966, 235.2496
779.5787, 227.4309
780.0609, 224.2712
780.5430, 220.6055
781.0251, 212.7281
781.5072, 202.2983
781.9893, 192.4677
782.4714, 181.9806
782.9536, 174.6854
783.4357, 172.6058
783.9178, 173.0264
784.3999, 169.8317
784.8820, 162.7279
785.3641, 157.4093
785.8463, 156.2637
786.3284, 156.3138
786.8105, 152.2102
787.2926, 145.3960
787.7747, 139.5045
788.2568, 136.3524
788.7390, 134.3490
789.2211, 133.8781
789.7032, 133.9633
790.1853, 132.0654
790.6674, 125.8065
791.1495, 121.0587
791.6317, 119.2784
792.1138, 119.4104
792.5959, 119.2815
793.0780, 118.8667
793.5601, 117.6859
794.0422, 115.4871
794.5244, 112.6158
795.0065, 109.2750
795.4886, 105.6394
795.9707, 102.1533
796.4528, 98.79944
796.9349, 95.75464
797.4171, 92.91223
797.8992, 90.45898
798.3813, 88.92810
798.8634, 88.91882
799.3455, 88.38538
799.8276, 86.63562
800.3098, 84.30334
800.7919, 83.09998
801.2740, 82.85352
801.7561, 82.19690
802.2382, 80.58118
802.7203, 78.34509
803.2025, 75.65723
803.6846, 72.64404
804.1667, 69.56860
804.6488, 65.66724
805.1309, 62.68970
805.6130, 61.92834
806.0952, 62.32739
806.5773, 61.56836
807.0594, 59.18420
807.5416, 57.32837
808.0237, 56.82556
808.5058, 56.79602
808.9879, 55.22083
809.4700, 52.38733
809.9521, 49.55261
810.4343, 47.24524
810.9164, 45.07251
811.3985, 42.32544
811.8806, 39.52307
812.3627, 37.76794
812.8448, 37.90588
813.3270, 38.51489
813.8091, 39.95703
814.2912, 41.36462
814.7733, 40.49402
815.2554, 37.09644
815.7375, 34.03406
816.2197, 32.27087
816.7018, 30.84973
817.1839, 27.81006
817.6660, 23.90393
818.1481, 20.94727
818.6302, 20.15442
819.1124, 19.86780
819.5945, 19.00281
820.0766, 18.19836
820.5587, 18.91589
821.0408, 23.27185
821.5229, 25.08472
822.0051, 22.93469
822.4872, 18.66455
822.9693, 15.19092
823.4514, 12.51196
823.9335, 10.85645
824.4156, 10.58728
824.8978, 10.58459
825.3799, 9.443970
825.8620, 7.783081
826.3441, 6.631714
826.8262, 6.826172
827.3083, 6.837524
827.7905, 5.866821
828.2726, 4.735962
828.7547, 4.441895
829.2368, 4.991211
829.7189, 6.541382
830.2010, 9.577026
830.6832, 12.38489
831.1653, 12.43604
831.6474, 10.34253
832.1295, 7.666016
832.6116, 4.621338
833.0938, 1.713257
833.5759, 1.765747
834.0580, 4.431030
834.5401, 4.699219
835.0222, 1.387085
835.5043, 4.099243
835.9865, 2.005615
836.4686, 1.629883
836.9507, 3.287964
837.4328, 3.037109
837.9149, 2.700562
838.3970, 2.457886
838.8792, 2.216309
839.3613, 1.907593
839.8434, 1.526611
840.3255, 1.222900
840.8076, 1.243042
841.2897, 0.4798580
841.7719, 2.926880
842.2540, 6.068848
842.7361, 6.551025
843.2182, 3.325073
843.7003, 1.712891
844.1824, 2.032593
844.6646, 2.762451
845.1467, 2.780396
845.6288, 2.106934
846.1109, 0.3356930
846.5930, 2.579224
847.0751, 4.656494
847.5573, 3.467285
848.0394, 1.745850
848.5215, 1.744141
849.0036, 4.125732
849.4857, 5.410156
849.9678, 5.196655
850.4500, 4.380737
850.9321, 3.200195
851.4142, 1.716431
851.8963, 0.9185790
852.3784, 0.7720950
852.8605, 0.8320310
853.3427, 1.105591
853.8248, 1.201660
854.3069, 0.5021970
854.7890, 0.9078370
855.2711, 2.014648
855.7532, 1.977173
856.2354, 2.044922
856.7175, 2.778564
857.1996, 3.998413
857.6818, 4.407227
858.1639, 3.797363
858.6460, 3.791260
859.1281, 5.418945
859.6102, 7.922607
860.0923, 10.11755
860.5745, 12.02234
861.0566, 13.59106
861.5387, 14.73071
862.0208, 15.66858
862.5029, 16.22473
862.9850, 16.71802
863.4672, 18.08643
863.9493, 20.71118
864.4314, 23.44153
864.9135, 26.18713
865.3956, 28.79321
865.8777, 30.93359
866.3599, 32.69336
866.8420, 34.15479
867.3241, 35.29749
867.8062, 36.33069
868.2883, 37.06726
868.7704, 37.88049
869.2526, 39.29028
869.7347, 42.61267
870.2168, 44.66956
870.6989, 44.74109
871.1810, 44.02710
871.6631, 44.32385
872.1453, 45.51123
872.6274, 45.61328
873.1095, 44.34631
873.5916, 42.84802
874.0737, 42.42212
874.5558, 42.10803
875.0380, 40.56152
875.5201, 36.81421
876.0022, 34.90723
876.4843, 38.05823
876.9664, 41.08020
877.4485, 40.23572
877.9307, 34.72693
878.4128, 32.26746
878.8949, 33.09631
879.3770, 34.61890
879.8591, 34.12952
880.3412, 32.85083
880.8234, 33.76709
881.3055, 37.04810
881.7876, 38.52893
882.2697, 34.34998
882.7518, 29.47461
883.2339, 26.28015
883.7161, 24.76294
884.1982, 24.73230
884.6803, 26.69702
885.1624, 28.14368
885.6445, 27.00500
886.1266, 24.93457
886.6088, 26.85327
887.0909, 31.73132
887.5730, 35.18213
888.0551, 32.45581
888.5372, 30.38306
889.0193, 33.88892
889.5015, 40.89514
889.9836, 44.21777
890.4657, 41.40125
890.9478, 40.80408
891.4299, 44.64087
891.9120, 50.56641
892.3942, 54.47852
892.8763, 57.21558
893.3584, 60.30725
893.8405, 64.30444
894.3226, 68.53174
894.8047, 73.06165
895.2869, 77.46960
895.7690, 81.05603
896.2511, 82.68286
896.7332, 85.13477
897.2153, 88.89075
897.6974, 92.59387
898.1796, 94.70459
898.6617, 95.44800
899.1438, 96.02832
899.6259, 96.64221
900.1080, 96.89392
900.5901, 97.17163
901.0723, 96.45569
901.5544, 93.56995
902.0365, 88.10535
902.5186, 82.53345
903.0007, 76.69128
903.4828, 71.53223
903.9650, 67.80640
904.4471, 65.15906
904.9292, 61.16150
905.4113, 56.05688
905.8935, 51.00977
906.3756, 46.89258
906.8577, 42.68787
907.3398, 37.00562
907.8220, 30.51123
908.3041, 25.60376
908.7862, 23.86035
909.2683, 22.64099
909.7504, 21.52527
910.2325, 20.35742
910.7147, 18.67444
911.1968, 16.47510
911.6789, 14.71619
912.1610, 13.69824
912.6431, 13.31970
913.1252, 13.24451
913.6074, 13.65271
914.0895, 14.97583
914.5716, 18.57227
915.0537, 21.01990
915.5358, 21.45911
916.0179, 20.93848
916.5001, 19.95361
916.9822, 18.40405
917.4643, 19.77856
917.9464, 24.55200
918.4285, 29.60022
918.9106, 31.82544
919.3928, 32.67468
919.8749, 34.10864
920.3570, 36.38464
920.8391, 37.75867
921.3212, 36.47351
921.8033, 35.51978
922.2855, 36.21655
922.7676, 38.44299
923.2497, 40.96802
923.7318, 43.81970
924.2139, 45.66235
924.6960, 46.29663
925.1782, 45.10303
925.6603, 40.17322
926.1424, 32.70752
926.6245, 25.92297
927.1066, 20.62158
927.5887, 16.66235
928.0709, 14.55933
928.5530, 13.22473
929.0351, 10.69141
929.5172, 6.905518
929.9993, 2.707397
930.4814, 2.004150
930.9636, 6.023071
931.4457, 6.944092
931.9278, 6.737305
932.4099, 8.425659
932.8920, 13.71289
933.3741, 17.41418
933.8563, 16.94971
934.3384, 15.79248
934.8205, 16.31177
935.3026, 18.60266
935.7847, 19.96497
936.2668, 20.42749
936.7490, 19.23792
937.2311, 14.09094
937.7132, 8.143921
938.1953, 5.808960
938.6774, 6.544800
939.1595, 6.497437
939.6417, 3.576660
940.1238, 0.8862300
940.6059, 0.4711910
941.0880, 1.120239
941.5701, 2.930298
942.0522, 5.903198
942.5344, 9.522949
943.0165, 13.68079
943.4986, 18.55847
943.9807, 25.11438
944.4628, 32.30579
944.9449, 38.56348
945.4271, 43.53833
945.9092, 47.60852
946.3913, 50.60205
946.8734, 53.16565
947.3555, 56.40771
947.8376, 60.14136
948.3198, 60.82007
948.8019, 58.14160
949.2840, 55.38928
949.7661, 56.72644
950.2482, 58.17957
950.7303, 55.98792
951.2125, 49.91064
951.6946, 42.90710
952.1767, 34.28467
952.6588, 26.59302
953.1409, 20.91150
953.6230, 16.66162
954.1052, 11.72339
954.5873, 6.259277
955.0695, 1.304077
955.5516, 2.892578
956.0337, 6.194458
956.5158, 7.942139
956.9979, 8.893799
957.4800, 10.34766
957.9622, 13.69495
958.4443, 15.21643
958.9264, 14.58362
959.4085, 12.42163
959.8906, 8.795166
960.3727, 4.153076
960.8549, 0.6677250
961.3370, 1.450439
961.8191, 4.575928
962.3012, 10.83105
962.7833, 18.28125
963.2654, 25.30469
963.7476, 31.87427
964.2297, 40.27002
964.7118, 50.59985
965.1939, 61.79956
965.6760, 73.25586
966.1581, 85.41919
966.6403, 99.07764
967.1224, 114.4341
967.6045, 132.5496
968.0866, 155.1182
968.5687, 178.8262
969.0508, 202.9436
969.5330, 227.4866
970.0151, 252.7747
970.4972, 278.4490
970.9793, 306.0933
971.4614, 336.2166
971.9435, 365.7666
972.4257, 393.4426
972.9078, 417.3967
973.3899, 435.6453
973.8720, 447.8127
974.3541, 452.7280
974.8362, 450.0264
975.3184, 439.1497
975.8005, 418.6230
976.2826, 389.6558
976.7647, 361.5286
977.2468, 334.3506
977.7289, 308.4319
978.2111, 283.4780
978.6932, 260.8442
979.1753, 242.4736
979.6574, 227.4521
980.1395, 214.0176
980.6216, 201.2217
981.1038, 190.9729
981.5859, 183.4258
982.0680, 178.4055
982.5501, 176.3171
983.0322, 176.8630
983.5143, 177.7168
983.9965, 178.6416
984.4786, 180.8733
984.9607, 187.3032
985.4428, 193.8325
985.9249, 196.3799
986.4070, 194.5833
986.8892, 196.2539
987.3713, 202.3577
987.8534, 209.0564
988.3355, 214.6995
988.8176, 219.9116
989.2997, 227.0115
989.7819, 235.1296
990.2640, 241.3093
990.7461, 241.5139
991.2282, 243.4221
991.7103, 252.4075
992.1924, 263.8994
992.6746, 271.8806
993.1567, 275.0476
993.6388, 281.8210
994.1209, 293.1289
994.6030, 305.2808
995.0851, 313.1804
995.5673, 321.1846
996.0494, 336.0249
996.5315, 357.4646
997.0136, 377.4805
997.4957, 391.9485
997.9778, 407.1506
998.4600, 424.2954
998.9421, 443.2798
999.4242, 463.2275
999.9063, 484.1082
1000.388, 508.1265
1000.871, 537.3213
1001.353, 566.7542
1001.835, 590.6428
1002.317, 612.9131
1002.799, 638.5439
1003.281, 669.0920
1003.763, 701.4038
1004.245, 735.8813
1004.728, 771.8254
1005.210, 809.1299
1005.692, 847.8411
1006.174, 888.3340
1006.656, 930.7136
1007.138, 975.2102
1007.620, 1023.619
1008.102, 1072.977
1008.584, 1122.618
1009.067, 1172.767
1009.549, 1223.176
1010.031, 1274.376
1010.513, 1326.745
1010.995, 1380.235
1011.477, 1434.821
1011.959, 1488.429
1012.441, 1543.128
1012.924, 1601.949
1013.406, 1665.793
1013.888, 1731.519
1014.370, 1797.544
1014.852, 1866.529
1015.334, 1940.963
1015.816, 2019.893
1016.298, 2100.638
1016.780, 2182.579
1017.263, 2265.409
1017.745, 2347.171
1018.227, 2431.441
1018.709, 2521.284
1019.191, 2614.088
1019.673, 2704.805
1020.155, 2792.443
1020.637, 2881.286
1021.120, 2972.760
1021.602, 3063.595
1022.084, 3150.770
1022.566, 3234.563
1023.048, 3315.595
1023.530, 3393.948
1024.012, 3469.158
1024.494, 3541.267
1024.976, 3608.644
1025.458, 3671.376
1025.941, 3729.464
1026.423, 3781.189
1026.905, 3826.711
1027.387, 3865.474
1027.869, 3897.164
1028.351, 3921.159
1028.833, 3938.508
1029.316, 3946.751
1029.798, 3942.753
1030.280, 3924.539
1030.762, 3895.301
1031.244, 3852.817
1031.726, 3805.141
1032.208, 3760.005
1032.690, 3713.178
1033.172, 3653.272
1033.655, 3581.331
1034.137, 3504.580
1034.619, 3429.012
1035.101, 3347.294
1035.583, 3257.190
1036.065, 3160.631
1036.547, 3060.513
1037.029, 2957.531
1037.511, 2854.891
1037.994, 2754.099
1038.476, 2654.020
1038.958, 2556.496
1039.440, 2459.963
1039.922, 2364.015
1040.404, 2267.438
1040.886, 2176.719
1041.368, 2092.691
1041.851, 2011.450
1042.333, 1930.396
1042.815, 1850.217
1043.297, 1774.040
1043.779, 1700.252
1044.261, 1626.800
1044.743, 1549.866
1045.225, 1477.854
1045.708, 1416.690
1046.190, 1361.053
1046.672, 1305.892
1047.154, 1250.826
1047.636, 1200.531
1048.118, 1154.804
1048.600, 1110.826
1049.082, 1065.679
1049.564, 1021.417
1050.047, 981.2258
1050.529, 944.0032
1051.011, 906.6941
1051.493, 867.5139
1051.975, 831.3315
1052.457, 799.8164
1052.939, 770.0486
1053.421, 737.2490
1053.903, 702.9619
1054.386, 668.9177
1054.868, 635.3464
1055.350, 604.8137
1055.832, 579.5642
1056.314, 556.9646
1056.796, 536.5374
1057.278, 517.5752
1057.760, 494.1272
1058.243, 466.3464
1058.725, 439.9807
1059.207, 417.5850
1059.689, 397.4163
1060.171, 377.7485
1060.653, 359.0681
1061.135, 342.2207
1061.617, 328.7710
1062.099, 313.7292
1062.582, 296.5264
1063.064, 279.3022
1063.546, 263.5642
1064.028, 248.9089
1064.510, 234.4895
1064.992, 220.4004
1065.474, 207.0034
1065.956, 195.0381
1066.438, 182.8284
1066.921, 169.3242
1067.403, 155.9609
1067.885, 145.1240
1068.367, 136.5330
1068.849, 128.7480
1069.331, 121.5557
1069.813, 113.7339
1070.295, 102.7236
1070.778, 91.90942
1071.260, 84.37549
1071.742, 79.91675
1072.224, 75.30493
1072.706, 70.46045
1073.188, 65.86499
1073.670, 61.42114
1074.152, 57.69507
1074.635, 56.45947
1075.117, 56.06470
1075.599, 53.62183
1076.081, 46.95508
1076.563, 41.77148
1077.045, 38.58228
1077.527, 36.73511
1078.009, 36.62036
1078.491, 37.46167
1078.974, 35.82300
1079.456, 32.12256
1079.938, 28.56519
1080.420, 27.24097
1080.902, 25.01001
1081.384, 20.34155
1081.866, 14.23950
1082.348, 7.327393
1082.831, 0.4409180
1083.313, 6.666992
1083.795, 11.01733
1084.277, 14.96973
1084.759, 19.73120
1085.241, 24.52661
1085.723, 28.67993
1086.205, 32.18848
1086.688, 35.74878
1087.170, 39.76074
1087.652, 42.45312
1088.134, 43.19067
1088.616, 42.97534
1089.098, 43.88770
1089.580, 44.61987
1090.062, 42.74292
1090.544, 37.33936
1091.026, 31.85938
1091.509, 26.49048
1091.991, 21.94385
1092.473, 19.08618
1092.955, 17.06323
1093.437, 12.51538
1093.919, 5.922119
1094.401, 0.5988770
1094.883, 6.025635
1095.366, 11.62183
1095.848, 17.00659
1096.330, 23.63721
1096.812, 33.05542
1097.294, 45.55933
1097.776, 57.78369
1098.258, 69.66553
1098.740, 81.66406
1099.223, 94.24536
1099.705, 107.0598
1100.187, 120.1960
1100.669, 133.1628
1101.151, 144.4294
1101.633, 152.8704
1102.115, 163.1619
1102.597, 176.0991
1103.079, 189.8777
1103.562, 203.7068
1104.044, 216.4414
1104.526, 225.2744
1105.008, 230.4463
1105.490, 237.1074
1105.972, 249.4868
1106.454, 258.4417
1106.936, 261.3179
1107.418, 260.3286
1107.901, 259.2197
1108.383, 257.7271
1108.865, 254.8716
1109.347, 250.2114
1109.829, 245.7515
1110.311, 244.0906
1110.793, 240.9360
1111.275, 233.8716
1111.758, 223.4309
1112.240, 212.2617
1112.722, 200.3174
1113.204, 188.8154
1113.686, 178.3621
1114.168, 167.9390
1114.650, 155.5569
1115.132, 143.8809
1115.615, 135.9307
1116.097, 132.4675
1116.579, 127.8232
1117.061, 121.9451
1117.543, 116.5688
1118.025, 113.8083
1118.507, 111.4009
1118.989, 106.7053
1119.471, 100.5579
1119.953, 94.89575
1120.436, 89.98511
1120.918, 85.64185
1121.400, 81.84375
1121.882, 78.63745
1122.364, 76.57593
1122.846, 74.88428
1123.328, 71.62842
1123.810, 67.20825
1124.293, 64.51587
1124.775, 66.72656
1125.257, 67.28442
1125.739, 64.07642
1126.221, 60.41113
1126.703, 62.55957
1127.185, 68.33936
1127.667, 70.95361
1128.150, 69.48120
1128.632, 67.51855
1129.114, 65.86646
1129.596, 65.22876
1130.078, 66.39795
1130.560, 68.44214
1131.042, 67.60156
1131.524, 64.60840
1132.006, 64.67847
1132.489, 69.86499
1132.971, 75.17651
1133.453, 78.18188
1133.935, 79.01123
1134.417, 76.59839
1134.899, 71.32178
1135.381, 72.03491
1135.863, 78.70337
1136.346, 83.87402
1136.828, 83.27637
1137.310, 81.90356
1137.792, 84.55298
1138.274, 89.00879
1138.756, 92.61523
1139.238, 95.59521
1139.720, 95.46802
1140.203, 91.55640
1140.685, 88.77490
1141.167, 91.41577
1141.649, 95.95862
1142.131, 98.89783
1142.613, 100.0547
1143.095, 99.07922
1143.577, 93.82129
1144.059, 90.78442
1144.542, 90.46143
1145.024, 91.48657
1145.506, 94.02808
1145.988, 96.57764
1146.470, 95.62036
1146.952, 91.88428
1147.434, 89.37500
1147.916, 89.59961
1148.398, 91.76929
1148.881, 96.87354
1149.363, 101.8008
1149.845, 100.9404
1150.327, 96.86646
1150.809, 97.66699
1151.291, 103.6394
1151.773, 105.8167
1152.255, 94.08228
1152.738, 85.78882
1153.220, 87.06421
1153.702, 93.14551
1154.184, 94.52393
1154.666, 92.43604
1155.148, 91.76489
1155.630, 93.34570
1156.112, 95.84351
1156.594, 99.95337
1157.077, 103.2119
1157.559, 104.6320
1158.041, 104.2778
1158.523, 101.3287
1159.005, 96.36731
1159.487, 94.20117
1159.969, 96.58533
1160.451, 100.1904
1160.933, 103.2219
1161.416, 106.2538
1161.898, 109.8180
1162.380, 113.8535
1162.862, 117.5894
1163.344, 121.0532
1163.826, 124.0251
1164.308, 125.5363
1164.790, 128.3962
1165.273, 136.3881
1165.755, 145.8829
1166.237, 152.8129
1166.719, 156.6992
1167.201, 162.0533
1167.683, 168.9791
1168.165, 175.3959
1168.647, 179.1040
1169.130, 183.2340
1169.612, 191.3530
1170.094, 201.4696
1170.576, 210.5914
1171.058, 218.3173
1171.540, 225.7446
1172.022, 232.9377
1172.504, 239.2142
1172.986, 243.6226
1173.469, 247.3596
1173.951, 251.8986
1174.433, 256.7865
1174.915, 260.7930
1175.397, 263.8655
1175.879, 266.2483
1176.361, 268.0846
1176.843, 268.6097
1177.326, 266.1981
1177.808, 262.7257
1178.290, 260.8091
1178.772, 259.9423
1179.254, 257.7968
1179.736, 253.2673
1180.218, 249.4412
1180.700, 246.8650
1181.182, 244.0697
1181.665, 239.0582
1182.147, 233.0116
1182.629, 227.6819
1183.111, 223.1689
1183.593, 219.2325
1184.075, 215.8101
1184.557, 213.4199
1185.039, 212.4338
1185.521, 211.4291
1186.004, 208.3994
1186.486, 204.5745
1186.968, 201.9795
1187.450, 200.8546
1187.932, 199.8516
1188.414, 199.0529
1188.896, 196.7660
1189.378, 191.8262
1189.861, 186.8401
1190.343, 187.0281
1190.825, 190.1075
1191.307, 191.6466
1191.789, 190.7220
1192.271, 188.9321
1192.753, 185.9583
1193.235, 183.6466
1193.718, 183.2958
1194.200, 183.3257
1194.682, 179.0940
1195.164, 173.0769
1195.646, 171.3682
1196.128, 176.4097
1196.610, 177.9315
1197.092, 171.1377
1197.574, 165.2764
1198.057, 164.6106
1198.539, 166.4792
1199.021, 164.3042
1199.503, 159.5459
1199.985, 156.0795
1200.467, 155.4783
1200.949, 154.1177
1201.431, 150.7476
1201.913, 147.3496
1202.396, 144.8628
1202.878, 143.0499
1203.360, 141.7097
1203.842, 140.4027
1204.324, 137.6672
1204.806, 131.3800
1205.288, 127.9652
1205.770, 130.3320
1206.253, 132.5356
1206.735, 131.1909
1207.217, 127.2787
1207.699, 122.6293
1208.181, 117.6682
1208.663, 113.2084
1209.145, 108.8280
1209.627, 106.8883
1210.109, 109.0208
1210.592, 110.8690
1211.074, 108.8534
1211.556, 104.5645
1212.038, 103.1151
1212.520, 103.6592
1213.002, 103.9921
1213.484, 103.9269
1213.966, 102.3982
1214.448, 98.73242
1214.931, 94.86365
1215.413, 92.34277
1215.895, 90.85059
1216.377, 89.55176
1216.859, 88.32190
1217.341, 86.77319
1217.823, 84.24927
1218.305, 82.18225
1218.788, 80.91821
1219.270, 79.72327
1219.752, 77.56140
1220.234, 75.09119
1220.716, 74.52893
1221.198, 75.28027
1221.680, 75.19678
1222.162, 73.14392
1222.645, 70.52148
1223.127, 66.91345
1223.609, 63.84509
1224.091, 63.11475
1224.573, 63.83398
1225.055, 64.89355
1225.537, 65.79175
1226.019, 64.79138
1226.501, 59.71790
1226.984, 54.95557
1227.466, 50.52637
1227.948, 47.28564
1228.430, 47.34558
1228.912, 48.55066
1229.394, 46.49048
1229.876, 41.79846
1230.358, 37.90369
1230.841, 35.84192
1231.323, 34.14258
1231.805, 32.71667
1232.287, 31.46411
1232.769, 30.53247
1233.251, 29.54590
1233.733, 28.15002
1234.215, 26.25854
1234.698, 23.49841
1235.180, 18.75977
1235.662, 16.09033
1236.144, 16.47229
1236.626, 16.84937
1237.108, 12.63025
1237.590, 7.510986
1238.072, 7.042847
1238.554, 10.23828
1239.036, 10.55688
1239.519, 6.199951
1240.001, 3.417480
1240.483, 3.251465
1240.965, 3.118408
1241.447, 0.5646970
1241.929, 4.901245
1242.411, 6.347412
1242.893, 5.436646
1243.376, 5.552856
1243.858, 6.904907
1244.340, 9.164429
1244.822, 12.48645
1245.304, 15.15991
1245.786, 14.28345
1246.268, 12.53711
1246.750, 11.26123
1247.233, 10.75342
1247.715, 11.93945
1248.197, 15.25964
1248.679, 15.96545
1249.161, 13.24158
1249.643, 9.618774
1250.125, 6.139404
1250.607, 3.650513
1251.089, 3.596069
1251.572, 4.960083
1252.054, 4.872314
1252.536, 3.350708
1253.018, 1.768677
1253.500, 0.3138430
1253.982, 0.6954350
1254.464, 1.194824
1254.946, 0.9265140
1255.428, 1.138428
1255.911, 3.598511
1256.393, 3.168701
1256.875, 0.1745610
1257.357, 2.175659
1257.839, 3.448730
1258.321, 4.469238
1258.803, 5.923706
1259.285, 7.088013
1259.768, 7.830566
1260.250, 8.061035
1260.732, 6.984131
1261.214, 5.195679
1261.696, 5.236328
1262.178, 7.416382
1262.660, 10.06665
1263.142, 13.68884
1263.625, 15.76550
1264.107, 14.91895
1264.589, 13.19128
1265.071, 14.35046
1265.553, 17.09338
1266.035, 17.66748
1266.517, 15.82861
1266.999, 15.76831
1267.481, 20.12329
1267.964, 24.06958
1268.446, 26.48474
1268.928, 28.49963
1269.410, 32.19031
1269.892, 36.33972
1270.374, 38.92188
1270.856, 39.85059
1271.338, 40.55908
1271.820, 41.25903
1272.303, 41.67896
1272.785, 40.84436
1273.267, 40.40015
1273.749, 41.42957
1274.231, 41.54456
1274.713, 40.06812
1275.195, 40.10181
1275.677, 39.24744
1276.160, 36.70679
1276.642, 37.53540
1277.124, 37.53149
1277.606, 36.41003
1278.088, 36.67126
1278.570, 37.20447
1279.052, 35.99072
1279.534, 32.38440
1280.016, 29.58667
1280.499, 28.71484
1280.981, 29.15369
1281.463, 30.91589
1281.945, 31.09436
1282.427, 24.58057
1282.909, 19.55383
1283.391, 21.23999
1283.873, 25.64722
1284.356, 27.46362
1284.838, 26.95911
1285.320, 26.49207
1285.802, 26.85693
1286.284, 26.54358
1286.766, 23.40332
1287.248, 21.47058
1287.730, 22.48035
1288.213, 24.27722
1288.695, 24.05078
1289.177, 22.56470
1289.659, 21.54724
1290.141, 21.14844
1290.623, 21.33838
1291.105, 23.43677
1291.587, 23.63611
1292.069, 21.01477
1292.552, 17.90259
1293.034, 16.91138
1293.516, 16.80322
1293.998, 14.93762
1294.480, 11.40662
1294.962, 8.601196
1295.444, 6.641968
1295.926, 5.687378
1296.408, 5.797852
1296.891, 6.396729
1297.373, 6.900146
1297.855, 7.656006
1298.337, 10.22546
1298.819, 13.21252
1299.301, 12.43164
1299.783, 7.456299
1300.265, 3.598389
1300.748, 1.106201
1301.230, 0.1907960
1301.712, 0.2452390
1302.194, 0.3336180
1302.676, 0.0000000E+00
##END=



