##NAMES=Datolite
##RRUFFID=R050033
##IDEAL CHEMISTRY=CaBSiO_4_(OH)
##LOCALITY=Westfield, Massachusetts, USA
##OWNER=RRUFF
##SOURCE=University of Arizona Mineral Museum
##DESCRIPTION=Group of pale green single crystals
##STATUS=The identification of this mineral has been confirmed by X-ray diffraction and chemical analysis
##URL=rruff.info/R050033
##MEASURED CHEMISTRY=Ca_1.00_B_1.00_Si_1.00_O_4_(OH) ; trace amounts of Al and Na; B measured and corrected according to stoichiometry;  OH estimated by stoichiometry end charge balance
89.19971, 0.0000000E+00
89.68182, 7.772091
90.16394, 6.479145
90.64606, 5.131350
91.12817, 6.528187
91.61029, 9.804787
92.09241, 14.75934
92.57452, 23.02970
93.05664, 31.83903
93.53876, 34.37318
94.02087, 28.33249
94.50299, 19.18871
94.98511, 12.11124
95.46722, 8.034081
95.94934, 6.288389
96.43146, 6.961970
96.91357, 11.56731
97.39569, 13.94980
97.87781, 8.821091
98.35992, 3.656872
98.84204, 3.748366
99.32416, 10.41009
99.80627, 15.52805
100.2884, 22.45885
100.7705, 28.06402
101.2526, 30.02782
101.7347, 33.60988
102.2169, 36.81771
102.6990, 38.15331
103.1811, 37.14933
103.6632, 37.92621
104.1453, 33.86121
104.6274, 21.19732
105.1096, 13.40653
105.5917, 14.08371
106.0738, 18.69967
106.5559, 20.82795
107.0380, 18.32036
107.5201, 12.90211
108.0023, 7.688419
108.4844, 2.073250
108.9665, 1.830433
109.4486, 1.815117
109.9307, 0.6277660
110.4128, 1.190804
110.8950, 2.596519
111.3771, 7.783714
111.8592, 9.253998
112.3413, 6.120716
112.8234, 2.349377
113.3055, 0.5421750
113.7877, 0.4668430
114.2698, 3.5831001E-02
114.7519, 1.951054
115.2340, 4.389465
115.7161, 6.462128
116.1982, 8.631775
116.6804, 8.870140
117.1625, 3.115395
117.6446, 9.877510
118.1267, 18.94170
118.6088, 15.28157
119.0909, 7.573029
119.5731, 2.734413
120.0552, 3.051437
120.5373, 5.582687
121.0194, 5.915787
121.5015, 3.391014
121.9836, 0.4833150
122.4658, 3.447540
122.9479, 6.829346
123.4300, 7.526459
123.9121, 4.205070
124.3942, 0.8605040
124.8763, 2.184219
125.3585, 1.692871
125.8406, 7.254761
126.3227, 12.67527
126.8048, 19.28173
127.2869, 28.59746
127.7690, 41.30580
128.2512, 57.29930
128.7333, 75.32813
129.2154, 90.48406
129.6975, 114.8713
130.1796, 152.7841
130.6617, 200.3210
131.1439, 253.6820
131.6260, 311.7197
132.1081, 372.4839
132.5902, 420.5003
133.0723, 455.6815
133.5544, 476.7657
134.0366, 482.6356
134.5187, 473.8448
135.0008, 450.0047
135.4829, 409.9569
135.9650, 354.5403
136.4471, 300.4562
136.9293, 237.8051
137.4114, 186.3350
137.8935, 153.5918
138.3756, 137.0541
138.8577, 130.1438
139.3398, 128.7572
139.8220, 132.9729
140.3041, 139.5525
140.7862, 150.8832
141.2683, 161.7722
141.7504, 167.2520
142.2325, 169.3634
142.7147, 175.2449
143.1968, 190.4439
143.6789, 215.4415
144.1610, 244.2456
144.6431, 273.9077
145.1252, 309.0855
145.6074, 346.2922
146.0895, 388.2745
146.5716, 449.3176
147.0537, 541.5539
147.5358, 668.0977
148.0179, 807.2791
148.5001, 962.5911
148.9822, 1127.355
149.4643, 1306.102
149.9464, 1498.269
150.4285, 1677.575
150.9106, 1818.493
151.3928, 1923.487
151.8749, 2039.192
152.3570, 2179.177
152.8391, 2324.147
153.3212, 2455.533
153.8033, 2571.354
154.2855, 2686.225
154.7676, 2809.188
155.2497, 2941.279
155.7318, 3085.104
156.2139, 3232.257
156.6960, 3395.851
157.1782, 3582.902
157.6603, 3789.619
158.1424, 4043.529
158.6245, 4359.455
159.1066, 4738.353
159.5887, 5202.471
160.0709, 5714.688
160.5530, 6330.271
161.0351, 7095.689
161.5172, 7982.502
161.9993, 9119.911
162.4814, 10675.13
162.9636, 12534.54
163.4457, 14592.72
163.9278, 17200.30
164.4099, 19868.09
164.8920, 21804.54
165.3741, 23112.38
165.8563, 23345.37
166.3384, 21789.27
166.8205, 19067.02
167.3026, 16094.28
167.7847, 12928.00
168.2668, 9832.481
168.7490, 7389.618
169.2311, 5695.908
169.7132, 4454.082
170.1953, 3598.099
170.6774, 3025.905
171.1595, 2607.416
171.6417, 2311.647
172.1238, 2119.911
172.6059, 1989.767
173.0880, 1929.047
173.5701, 1920.196
174.0522, 1954.367
174.5344, 2027.515
175.0165, 2138.502
175.4986, 2296.087
175.9807, 2485.205
176.4628, 2677.695
176.9449, 2907.900
177.4271, 3071.958
177.9092, 3158.730
178.3913, 3161.090
178.8734, 3060.045
179.3555, 2829.191
179.8376, 2503.263
180.3197, 2174.474
180.8019, 1818.194
181.2840, 1508.009
181.7661, 1255.616
182.2482, 1054.359
182.7303, 902.8493
183.2124, 804.5873
183.6946, 749.7706
184.1767, 711.5193
184.6588, 692.2866
185.1409, 686.9459
185.6230, 695.3234
186.1051, 713.1776
186.5873, 734.5565
187.0694, 755.7142
187.5515, 782.6710
188.0336, 832.4169
188.5157, 909.6810
188.9978, 1003.934
189.4800, 1113.885
189.9621, 1235.081
190.4442, 1370.654
190.9263, 1523.342
191.4084, 1676.408
191.8905, 1795.484
192.3727, 1907.246
192.8548, 1927.789
193.3369, 1818.913
193.8190, 1640.873
194.3011, 1438.199
194.7832, 1227.632
195.2654, 1025.480
195.7475, 868.0527
196.2296, 762.0422
196.7117, 693.0419
197.1938, 659.8978
197.6759, 653.6165
198.1581, 671.4804
198.6402, 711.9442
199.1223, 766.0251
199.6044, 819.5454
200.0865, 881.3272
200.5686, 923.3375
201.0508, 937.4637
201.5329, 938.8235
202.0150, 935.3397
202.4971, 930.2230
202.9792, 926.9304
203.4613, 930.2485
203.9435, 938.3795
204.4256, 958.3541
204.9077, 989.5027
205.3898, 1030.929
205.8719, 1082.927
206.3540, 1145.221
206.8362, 1216.112
207.3183, 1293.059
207.8004, 1372.194
208.2825, 1467.208
208.7646, 1585.135
209.2467, 1711.390
209.7289, 1839.267
210.2110, 1966.614
210.6931, 2094.354
211.1752, 2223.237
211.6573, 2351.970
212.1395, 2484.224
212.6216, 2581.785
213.1037, 2713.405
213.5858, 2896.437
214.0679, 3141.060
214.5500, 3462.156
215.0322, 3872.894
215.5143, 4371.378
215.9964, 4972.332
216.4785, 5803.094
216.9606, 6619.714
217.4427, 7474.208
217.9249, 8258.786
218.4070, 8747.333
218.8891, 8739.892
219.3712, 8228.538
219.8533, 7501.252
220.3354, 6296.650
220.8176, 5118.290
221.2997, 4041.315
221.7818, 3096.264
222.2639, 2310.629
222.7460, 1714.800
223.2281, 1296.015
223.7103, 968.2830
224.1924, 785.7094
224.6745, 644.8703
225.1566, 536.2028
225.6387, 452.4904
226.1208, 388.2763
226.6030, 341.9836
227.0851, 310.0715
227.5672, 277.7566
228.0493, 242.4758
228.5314, 210.3197
229.0135, 181.3383
229.4957, 156.2188
229.9778, 136.2230
230.4599, 122.0175
230.9420, 111.9540
231.4241, 102.1096
231.9062, 93.26059
232.3884, 83.24802
232.8705, 69.49283
233.3526, 55.89749
233.8347, 46.39001
234.3168, 42.18320
234.7989, 40.22617
235.2811, 34.65369
235.7632, 21.91263
236.2453, 14.16379
236.7274, 19.20007
237.2095, 24.22021
237.6916, 18.41327
238.1738, 0.7421260
238.6559, 18.95370
239.1380, 27.35736
239.6201, 20.29253
240.1022, 17.45981
240.5843, 24.81012
241.0665, 32.21352
241.5486, 35.24489
242.0307, 33.57629
242.5128, 28.99203
242.9949, 21.99614
243.4770, 11.84430
243.9592, 4.947784
244.4413, 4.428558
244.9234, 4.474213
245.4055, 4.024414
245.8876, 2.838409
246.3697, 0.6751100
246.8519, 4.559662
247.3340, 12.86584
247.8161, 17.36911
248.2982, 15.58362
248.7803, 11.87202
249.2624, 5.675415
249.7446, 0.5820010
250.2267, 3.053940
250.7088, 1.1673000E-02
251.1909, 6.628769
251.6730, 14.19470
252.1551, 26.11932
252.6373, 32.20360
253.1194, 24.27283
253.6015, 11.40419
254.0836, 3.442383
254.5657, 4.180496
255.0478, 9.378036
255.5300, 12.63223
256.0121, 13.26749
256.4942, 15.55629
256.9763, 22.31987
257.4584, 30.25977
257.9406, 37.47058
258.4227, 43.49390
258.9048, 49.00528
259.3869, 53.76755
259.8690, 57.62416
260.3511, 65.00012
260.8333, 79.99648
261.3154, 96.10423
261.7975, 108.3607
262.2796, 116.7653
262.7617, 125.0597
263.2438, 135.6549
263.7260, 148.4039
264.2081, 161.8903
264.6902, 174.4342
265.1723, 190.3837
265.6544, 214.0171
266.1365, 243.5807
266.6187, 273.1291
267.1008, 294.8796
267.5829, 315.6287
268.0650, 351.8526
268.5471, 407.6295
269.0292, 466.5622
269.5114, 519.5455
269.9935, 567.5685
270.4756, 612.0446
270.9577, 657.0148
271.4398, 695.5339
271.9219, 719.5226
272.4041, 728.8431
272.8862, 728.4120
273.3683, 719.2587
273.8504, 701.5483
274.3325, 677.8207
274.8146, 649.0944
275.2968, 612.4849
275.7789, 562.1634
276.2610, 501.2413
276.7431, 441.2326
277.2252, 384.5109
277.7073, 332.9508
278.1895, 288.9189
278.6716, 251.8798
279.1537, 221.6857
279.6358, 199.8886
280.1179, 184.6688
280.6000, 173.8377
281.0822, 167.2477
281.5643, 162.7795
282.0464, 158.8065
282.5285, 155.6171
283.0106, 149.4283
283.4927, 130.7158
283.9749, 114.5944
284.4570, 116.0254
284.9391, 135.5883
285.4212, 162.9171
285.9033, 190.8138
286.3854, 219.1600
286.8676, 246.5062
287.3497, 264.6431
287.8318, 289.7424
288.3139, 330.7361
288.7960, 385.2711
289.2781, 447.7166
289.7603, 516.4091
290.2424, 588.3017
290.7245, 648.9048
291.2066, 703.3030
291.6887, 741.3929
292.1708, 761.8328
292.6530, 764.9664
293.1351, 750.7592
293.6172, 719.2477
294.0993, 671.3232
294.5814, 607.8101
295.0635, 516.6438
295.5457, 431.6419
296.0278, 349.2055
296.5099, 274.6175
296.9920, 213.8107
297.4741, 167.4910
297.9562, 131.2267
298.4384, 100.3513
298.9205, 75.17108
299.4026, 53.44220
299.8847, 36.66312
300.3668, 22.48062
300.8489, 10.37463
301.3311, 0.4952700
301.8131, 7.376434
302.2953, 13.77057
302.7774, 18.33221
303.2595, 18.40079
303.7416, 7.347473
304.2237, 1.630035
304.7058, 8.444946
305.1880, 20.14694
305.6701, 27.99109
306.1522, 28.63733
306.6343, 26.67108
307.1164, 30.80817
307.5985, 44.20160
308.0807, 53.19980
308.5628, 50.91769
309.0449, 45.78140
309.5270, 42.74091
310.0091, 42.24210
310.4912, 41.87909
310.9734, 40.09836
311.4555, 37.20569
311.9376, 32.55557
312.4197, 24.00726
312.9018, 15.34647
313.3839, 9.824463
313.8661, 6.388184
314.3482, 2.065643
314.8303, 3.495941
315.3124, 11.38049
315.7945, 23.80383
316.2766, 41.04333
316.7588, 60.50787
317.2409, 79.57645
317.7230, 100.4661
318.2051, 126.9196
318.6872, 160.5087
319.1693, 197.4562
319.6515, 235.2433
320.1336, 273.8638
320.6157, 314.6881
321.0978, 359.2260
321.5799, 404.0232
322.0620, 445.6157
322.5442, 485.4201
323.0263, 516.0979
323.5084, 535.1594
323.9905, 544.2424
324.4726, 541.2296
324.9547, 525.8915
325.4369, 511.7499
325.9190, 510.4568
326.4011, 523.3597
326.8832, 548.0410
327.3653, 587.8027
327.8474, 635.8299
328.3296, 685.6699
328.8117, 740.3062
329.2938, 808.9169
329.7759, 897.7130
330.2580, 1003.885
330.7401, 1111.870
331.2223, 1228.270
331.7044, 1338.937
332.1865, 1459.023
332.6686, 1565.457
333.1507, 1638.776
333.6328, 1671.376
334.1150, 1659.465
334.5971, 1594.223
335.0792, 1462.450
335.5613, 1310.765
336.0434, 1116.994
336.5255, 925.6149
337.0077, 753.5994
337.4898, 604.6812
337.9719, 478.4820
338.4540, 376.4570
338.9361, 297.7478
339.4182, 235.1596
339.9004, 193.8578
340.3825, 163.1566
340.8646, 139.8102
341.3467, 123.5764
341.8288, 115.1596
342.3109, 115.4243
342.7931, 120.4196
343.2752, 123.8369
343.7573, 124.9517
344.2394, 129.6649
344.7215, 138.4272
345.2036, 152.5953
345.6858, 173.7371
346.1679, 201.8690
346.6500, 233.5067
347.1321, 271.2841
347.6142, 310.8123
348.0963, 336.8390
348.5785, 342.7584
349.0606, 351.2595
349.5427, 383.0189
350.0248, 432.1376
350.5069, 482.2889
350.9890, 529.4815
351.4712, 577.8733
351.9533, 629.8926
352.4354, 685.9246
352.9175, 747.3293
353.3996, 813.8795
353.8817, 887.1792
354.3639, 973.0182
354.8460, 1071.355
355.3281, 1177.632
355.8102, 1288.520
356.2923, 1407.747
356.7744, 1538.591
357.2566, 1682.241
357.7387, 1835.314
358.2208, 1993.531
358.7029, 2155.636
359.1850, 2332.395
359.6671, 2557.420
360.1493, 2761.183
360.6314, 2923.010
361.1135, 3039.110
361.5956, 3108.409
362.0777, 3129.521
362.5598, 3103.032
363.0420, 3033.618
363.5241, 2916.015
364.0062, 2759.590
364.4883, 2547.953
364.9704, 2314.114
365.4525, 2077.978
365.9347, 1847.743
366.4168, 1629.705
366.8989, 1430.203
367.3810, 1247.264
367.8631, 1089.399
368.3452, 963.3048
368.8274, 856.4865
369.3095, 760.5472
369.7916, 676.6333
370.2737, 608.6973
370.7558, 561.5330
371.2379, 528.4274
371.7201, 498.4401
372.2022, 471.0789
372.6843, 452.1307
373.1664, 444.4658
373.6485, 446.9570
374.1306, 455.2606
374.6128, 467.6447
375.0949, 491.6580
375.5770, 534.9992
376.0591, 591.9603
376.5412, 652.1864
377.0233, 713.9189
377.5055, 776.3173
377.9876, 838.7748
378.4697, 901.1038
378.9518, 963.1448
379.4339, 1012.845
379.9160, 1072.900
380.3982, 1161.299
380.8803, 1271.526
381.3624, 1383.126
381.8445, 1484.828
382.3266, 1581.026
382.8087, 1686.797
383.2909, 1787.682
383.7730, 1919.318
384.2551, 2091.186
384.7372, 2287.337
385.2193, 2491.052
385.7014, 2702.146
386.1836, 2938.951
386.6657, 3221.562
387.1478, 3549.777
387.6299, 3905.490
388.1120, 4292.340
388.5941, 4709.265
389.0763, 5179.569
389.5584, 5672.528
390.0405, 6146.572
390.5226, 6599.868
391.0047, 6994.323
391.4868, 7294.736
391.9690, 7507.456
392.4511, 7553.989
392.9332, 7392.487
393.4153, 7057.964
393.8974, 6570.652
394.3795, 5932.302
394.8617, 5270.848
395.3438, 4616.654
395.8259, 3990.725
396.3080, 3420.278
396.7901, 2908.692
397.2722, 2460.136
397.7544, 2081.208
398.2365, 1773.831
398.7186, 1511.840
399.2007, 1314.241
399.6828, 1141.850
400.1649, 980.8650
400.6471, 835.3035
401.1292, 712.9011
401.6113, 615.6653
402.0934, 535.5495
402.5755, 459.3247
403.0576, 384.0487
403.5398, 324.3126
404.0219, 290.5673
404.5040, 259.8116
404.9861, 217.6165
405.4682, 168.1708
405.9503, 123.8828
406.4325, 92.21735
406.9146, 72.35400
407.3967, 63.37524
407.8788, 72.58954
408.3609, 77.97754
408.8430, 70.98743
409.3252, 61.55804
409.8073, 56.27502
410.2894, 55.87323
410.7715, 59.83649
411.2536, 70.12097
411.7357, 85.53882
412.2179, 98.13214
412.7000, 103.9738
413.1821, 112.7485
413.6642, 133.9286
414.1463, 163.2094
414.6284, 191.5409
415.1106, 214.4127
415.5927, 239.4872
416.0748, 271.0889
416.5569, 309.2214
417.0390, 352.5234
417.5211, 399.5135
418.0033, 454.9233
418.4854, 526.5033
418.9675, 617.6514
419.4496, 715.1663
419.9317, 810.9637
420.4138, 918.8033
420.8960, 1052.642
421.3781, 1207.989
421.8602, 1372.454
422.3423, 1541.391
422.8244, 1708.185
423.3065, 1846.730
423.7887, 1981.796
424.2708, 2044.039
424.7529, 2025.301
425.2350, 1940.012
425.7171, 1781.698
426.1992, 1558.492
426.6814, 1317.033
427.1635, 1091.840
427.6456, 882.3431
428.1277, 703.6236
428.6098, 560.1575
429.0919, 440.0427
429.5741, 336.4611
430.0562, 250.7560
430.5383, 189.1364
431.0204, 158.0642
431.5025, 140.3883
431.9846, 124.4453
432.4668, 110.5396
432.9489, 98.67938
433.4310, 87.71979
433.9131, 82.70062
434.3952, 89.74780
434.8773, 109.5902
435.3595, 137.5026
435.8416, 180.0029
436.3237, 224.4283
436.8058, 265.5630
437.2879, 302.3091
437.7701, 335.1216
438.2522, 364.5980
438.7343, 387.5371
439.2164, 395.2075
439.6985, 380.2521
440.1806, 362.2541
440.6628, 346.9882
441.1449, 324.8821
441.6270, 286.4470
442.1091, 234.4805
442.5912, 179.8448
443.0733, 127.7296
443.5555, 80.74377
444.0376, 51.36865
444.5197, 45.81738
445.0018, 40.43384
445.4839, 23.32202
445.9660, 3.372314
446.4482, 10.87677
446.9303, 18.01874
447.4124, 21.89578
447.8945, 24.04922
448.3766, 24.74426
448.8587, 26.13324
449.3409, 28.94238
449.8230, 25.69781
450.3051, 9.127930
450.7872, 19.64429
451.2693, 45.90387
451.7514, 64.41589
452.2336, 86.75201
452.7157, 117.1154
453.1978, 153.4843
453.6799, 193.7501
454.1620, 237.0005
454.6441, 281.2459
455.1263, 323.5355
455.6084, 362.8294
456.0905, 405.2058
456.5726, 463.7151
457.0547, 511.5247
457.5368, 545.6435
458.0190, 562.1898
458.5011, 554.2845
458.9832, 517.3664
459.4653, 462.8173
459.9474, 403.2997
460.4295, 338.9451
460.9117, 275.8050
461.3938, 212.7762
461.8759, 154.5688
462.3580, 102.7988
462.8401, 57.91882
463.3222, 24.19031
463.8044, 7.982758
464.2865, 0.8931880
464.7686, 10.21249
465.2507, 19.82089
465.7328, 28.57092
466.2149, 36.23117
466.6971, 41.75107
467.1792, 42.44592
467.6613, 32.86414
468.1434, 30.27264
468.6255, 43.61551
469.1076, 56.08148
469.5898, 58.08484
470.0719, 49.92178
470.5540, 33.97916
471.0361, 10.05585
471.5182, 16.15036
472.0003, 25.96719
472.4825, 10.89893
472.9646, 3.071106
473.4467, 11.53833
473.9288, 28.56122
474.4109, 50.43661
474.8930, 76.29404
475.3752, 105.6404
475.8573, 142.9518
476.3394, 182.0653
476.8215, 209.0404
477.3036, 223.7933
477.7857, 246.7768
478.2679, 289.4785
478.7500, 344.6298
479.2321, 396.4687
479.7142, 443.7032
480.1963, 493.0186
480.6784, 541.6181
481.1606, 593.1745
481.6427, 653.6945
482.1248, 722.8384
482.6069, 792.3582
483.0890, 854.8072
483.5711, 913.7990
484.0533, 991.8369
484.5354, 1097.338
485.0175, 1209.940
485.4996, 1318.412
485.9817, 1437.269
486.4638, 1579.837
486.9460, 1746.705
487.4281, 1923.674
487.9102, 2104.246
488.3923, 2286.351
488.8744, 2470.315
489.3565, 2661.182
489.8387, 2825.315
490.3208, 2960.410
490.8029, 3045.756
491.2850, 3053.183
491.7671, 2980.327
492.2492, 2840.277
492.7314, 2603.823
493.2135, 2321.943
493.6956, 2040.444
494.1777, 1770.396
494.6598, 1517.416
495.1419, 1284.466
495.6241, 1073.958
496.1062, 895.7461
496.5883, 762.9723
497.0704, 648.0461
497.5525, 545.5549
498.0346, 459.9397
498.5168, 400.3704
498.9989, 364.6876
499.4810, 336.1571
499.9631, 301.0772
500.4452, 262.0520
500.9273, 229.8840
501.4095, 205.5589
501.8916, 183.7351
502.3737, 161.3864
502.8558, 140.7236
503.3379, 125.1935
503.8200, 115.7018
504.3022, 107.8312
504.7843, 101.6886
505.2664, 95.50226
505.7485, 85.76013
506.2306, 73.15308
506.7127, 63.54291
507.1949, 61.05203
507.6770, 64.42068
508.1591, 67.70117
508.6412, 74.13715
509.1233, 74.24527
509.6054, 60.81638
510.0876, 46.38043
510.5697, 40.11389
511.0518, 42.09698
511.5339, 46.83783
512.0161, 49.94370
512.4982, 53.25314
512.9803, 62.99261
513.4624, 80.36530
513.9445, 96.80673
514.4266, 110.8969
514.9088, 121.0829
515.3909, 124.1828
515.8730, 119.4274
516.3551, 117.7667
516.8372, 122.4446
517.3193, 131.6808
517.8015, 144.9143
518.2836, 161.4163
518.7657, 179.5337
519.2478, 198.4521
519.7299, 217.8804
520.2120, 236.8134
520.6942, 252.5710
521.1763, 273.2927
521.6584, 306.4779
522.1405, 336.9039
522.6226, 357.1760
523.1047, 367.6135
523.5869, 371.0226
524.0690, 369.1296
524.5511, 360.8017
525.0332, 343.9388
525.5153, 319.1411
525.9974, 287.7124
526.4796, 246.0661
526.9617, 201.9466
527.4438, 163.3238
527.9259, 130.3434
528.4080, 103.6105
528.8901, 87.30109
529.3723, 73.20398
529.8544, 55.71426
530.3365, 36.60504
530.8186, 18.81479
531.3007, 3.564301
531.7828, 7.741699
532.2650, 12.44406
532.7471, 9.289154
533.2292, 7.407074
533.7113, 5.816956
534.1934, 6.817322
534.6755, 14.10855
535.1577, 23.20087
535.6398, 27.23152
536.1219, 23.75186
536.6040, 19.92889
537.0861, 26.11180
537.5682, 37.45845
538.0504, 36.34766
538.5325, 19.40439
539.0146, 0.3162840
539.4967, 11.37720
539.9788, 17.17160
540.4609, 24.49130
540.9431, 36.78210
541.4252, 45.83658
541.9073, 46.76013
542.3894, 45.80301
542.8715, 48.31223
543.3536, 55.14536
543.8358, 65.06012
544.3179, 77.29919
544.8000, 91.60150
545.2821, 106.8936
545.7642, 123.2542
546.2463, 140.2870
546.7285, 155.4886
547.2106, 173.2149
547.6927, 196.7986
548.1748, 226.2150
548.6569, 259.9321
549.1390, 300.8773
549.6211, 343.0255
550.1032, 378.4111
550.5853, 408.6142
551.0674, 440.6643
551.5496, 478.0236
552.0317, 516.9995
552.5138, 552.3000
552.9959, 585.1359
553.4780, 610.1014
553.9601, 629.2271
554.4423, 639.7037
554.9244, 636.8304
555.4065, 625.6877
555.8886, 612.0413
556.3707, 597.7394
556.8528, 587.6566
557.3350, 588.1028
557.8171, 598.3756
558.2992, 614.9275
558.7813, 641.0160
559.2634, 662.2631
559.7455, 665.0540
560.2277, 655.4984
560.7098, 655.9200
561.1919, 678.4029
561.6740, 690.6028
562.1561, 684.5619
562.6382, 662.2986
563.1204, 621.0172
563.6025, 563.7181
564.0846, 501.8798
564.5667, 442.5551
565.0488, 386.6291
565.5309, 336.1027
566.0131, 290.8840
566.4952, 249.4673
566.9773, 209.3977
567.4594, 175.7065
567.9415, 154.1941
568.4236, 142.5813
568.9058, 130.8405
569.3879, 111.9878
569.8700, 94.11298
570.3521, 85.82867
570.8342, 85.26730
571.3163, 86.90543
571.7985, 89.02274
572.2806, 91.62604
572.7627, 94.70309
573.2448, 98.26871
573.7269, 102.3183
574.2090, 106.9871
574.6912, 112.0156
575.1733, 118.9584
575.6554, 125.3773
576.1375, 126.4893
576.6196, 122.1106
577.1017, 120.8972
577.5839, 132.1667
578.0660, 152.8627
578.5481, 173.6435
579.0302, 194.6107
579.5123, 212.5151
579.9944, 222.4304
580.4766, 231.3691
580.9587, 254.5829
581.4408, 295.4328
581.9229, 333.4327
582.4050, 362.7802
582.8871, 390.8734
583.3693, 420.2673
583.8514, 452.4619
584.3335, 490.3599
584.8156, 535.0765
585.2977, 584.6801
585.7798, 636.7640
586.2620, 691.2690
586.7441, 747.1501
587.2262, 802.7411
587.7083, 863.2405
588.1904, 932.1078
588.6725, 1007.435
589.1547, 1088.491
589.6368, 1180.512
590.1189, 1265.297
590.6010, 1335.731
591.0831, 1393.785
591.5652, 1441.809
592.0474, 1479.752
592.5295, 1506.310
593.0116, 1521.014
593.4937, 1522.722
593.9758, 1506.961
594.4579, 1470.477
594.9401, 1423.842
595.4222, 1352.432
595.9043, 1285.570
596.3864, 1241.368
596.8685, 1214.438
597.3506, 1188.771
597.8328, 1157.151
598.3149, 1127.150
598.7970, 1104.412
599.2791, 1088.579
599.7612, 1081.898
600.2433, 1084.817
600.7255, 1085.297
601.2076, 1074.022
601.6897, 1051.166
602.1718, 1018.062
602.6539, 972.5559
603.1360, 918.8026
603.6182, 857.7209
604.1003, 788.2504
604.5824, 702.3555
605.0645, 605.6829
605.5466, 518.9554
606.0287, 455.1016
606.5109, 405.4406
606.9930, 358.4818
607.4751, 313.9601
607.9572, 269.6776
608.4393, 223.8914
608.9214, 182.1434
609.4036, 150.5726
609.8857, 129.2190
610.3678, 108.6969
610.8499, 87.66644
611.3320, 69.14346
611.8141, 53.31403
612.2963, 40.60910
612.7784, 32.28064
613.2605, 27.93262
613.7426, 25.44290
614.2247, 24.03329
614.7068, 22.66733
615.1890, 19.03848
615.6711, 13.16077
616.1532, 3.696381
616.6353, 12.47522
617.1174, 27.38416
617.5995, 30.68555
618.0817, 22.09299
618.5638, 16.01175
619.0459, 12.96707
619.5280, 12.53189
620.0101, 16.68469
620.4922, 22.30750
620.9744, 25.23434
621.4565, 24.93326
621.9386, 24.53455
622.4207, 27.81485
622.9028, 32.83875
623.3849, 30.68613
623.8671, 19.67679
624.3492, 11.55405
624.8313, 11.61209
625.3134, 14.03928
625.7955, 11.01413
626.2776, 2.904877
626.7598, 2.067871
627.2419, 1.940979
627.7240, 4.265015
628.2061, 2.235138
628.6882, 13.10526
629.1703, 21.13535
629.6525, 24.97134
630.1346, 29.29666
630.6167, 39.34659
631.0988, 53.71875
631.5809, 64.19327
632.0630, 69.62881
632.5452, 75.84177
633.0273, 85.22372
633.5094, 95.55435
633.9915, 103.4672
634.4736, 109.1743
634.9557, 118.2832
635.4379, 134.5056
635.9200, 151.5620
636.4021, 161.2827
636.8842, 171.2333
637.3663, 195.8186
637.8484, 237.0228
638.3306, 280.8340
638.8127, 311.5945
639.2948, 333.0275
639.7769, 367.8644
640.2590, 419.0763
640.7411, 473.5190
641.2233, 527.2603
641.7054, 582.7342
642.1875, 642.8288
642.6696, 707.3774
643.1517, 773.6242
643.6339, 838.4713
644.1160, 907.6075
644.5981, 982.9147
645.0802, 1065.099
645.5623, 1154.262
646.0444, 1250.607
646.5266, 1354.756
647.0087, 1466.070
647.4908, 1585.466
647.9729, 1720.309
648.4550, 1873.703
648.9371, 2026.509
649.4193, 2171.664
649.9014, 2316.656
650.3835, 2472.588
650.8656, 2637.137
651.3477, 2797.950
651.8298, 2961.438
652.3120, 3111.878
652.7941, 3250.193
653.2762, 3367.977
653.7583, 3454.578
654.2404, 3508.005
654.7225, 3530.971
655.2047, 3525.271
655.6868, 3491.378
656.1689, 3425.012
656.6510, 3320.118
657.1331, 3220.618
657.6152, 3140.977
658.0974, 3062.120
658.5795, 2953.061
659.0616, 2826.283
659.5437, 2743.147
660.0258, 2729.592
660.5079, 2734.499
660.9901, 2737.169
661.4722, 2751.937
661.9543, 2795.798
662.4364, 2867.938
662.9185, 2955.238
663.4006, 3048.531
663.8828, 3153.475
664.3649, 3286.848
664.8470, 3449.557
665.3291, 3613.705
665.8112, 3783.080
666.2933, 3936.231
666.7755, 4059.821
667.2576, 4153.042
667.7397, 4220.412
668.2218, 4269.300
668.7039, 4280.866
669.1860, 4244.211
669.6682, 4174.939
670.1503, 4084.545
670.6324, 3971.975
671.1145, 3825.931
671.5966, 3637.076
672.0787, 3435.129
672.5609, 3255.862
673.0430, 3098.507
673.5251, 2960.443
674.0072, 2841.228
674.4893, 2738.703
674.9714, 2648.949
675.4536, 2575.431
675.9357, 2528.899
676.4178, 2502.239
676.8999, 2520.859
677.3820, 2609.266
677.8641, 2717.892
678.3463, 2813.285
678.8284, 2913.435
679.3105, 3047.217
679.7926, 3223.635
680.2747, 3440.259
680.7568, 3699.698
681.2390, 3994.232
681.7211, 4302.237
682.2032, 4621.864
682.6853, 4969.663
683.1674, 5349.751
683.6495, 5774.203
684.1317, 6266.145
684.6138, 6830.223
685.0959, 7421.592
685.5780, 8007.545
686.0601, 8671.753
686.5422, 9421.538
687.0244, 10267.24
687.5065, 11227.65
687.9886, 12304.36
688.4707, 13451.76
688.9528, 14647.19
689.4349, 15899.55
689.9171, 17273.00
690.3992, 18709.73
690.8813, 20117.97
691.3634, 21463.45
691.8455, 22536.59
692.3276, 23148.81
692.8098, 23290.75
693.2919, 22834.91
693.7740, 21639.77
694.2561, 20151.89
694.7382, 18259.26
695.2203, 16258.55
695.7025, 14254.10
696.1846, 12292.37
696.6667, 10537.02
697.1488, 9039.985
697.6309, 7739.591
698.1130, 6635.155
698.5952, 5698.778
699.0773, 4914.086
699.5594, 4265.963
700.0415, 3724.541
700.5236, 3272.578
701.0057, 2894.481
701.4879, 2563.010
701.9700, 2277.899
702.4521, 2032.193
702.9342, 1830.977
703.4163, 1654.890
703.8984, 1494.297
704.3806, 1351.122
704.8627, 1228.647
705.3448, 1131.409
705.8269, 1039.736
706.3090, 944.6367
706.7911, 860.0917
707.2733, 800.1867
707.7554, 754.5004
708.2375, 705.5441
708.7196, 647.9261
709.2017, 591.4946
709.6838, 547.0059
710.1660, 510.3510
710.6481, 469.8633
711.1302, 425.9056
711.6123, 386.8794
712.0944, 355.3723
712.5765, 332.0101
713.0587, 319.6866
713.5408, 319.4098
714.0229, 308.4225
714.5050, 274.1294
714.9871, 246.4075
715.4692, 236.5977
715.9514, 229.7229
716.4335, 211.9773
716.9156, 185.2916
717.3977, 162.4279
717.8798, 146.8536
718.3619, 139.2614
718.8441, 149.0918
719.3262, 163.7495
719.8083, 159.9991
720.2904, 136.5323
720.7725, 107.0745
721.2546, 80.17694
721.7368, 57.94702
722.2189, 46.42761
722.7010, 47.87259
723.1831, 46.99377
723.6652, 42.29959
724.1473, 36.55057
724.6295, 29.18179
725.1116, 22.17603
725.5937, 19.58325
726.0758, 23.09573
726.5579, 26.63632
727.0400, 29.38284
727.5222, 30.77499
728.0043, 31.14206
728.4864, 29.99002
728.9685, 25.55402
729.4506, 17.70700
729.9327, 10.32153
730.4149, 10.01770
730.8970, 12.07883
731.3791, 1.764526
731.8612, 18.67392
732.3433, 28.36957
732.8254, 20.10117
733.3076, 7.497711
733.7897, 4.857513
734.2718, 11.07327
734.7539, 12.49988
735.2360, 5.182617
735.7181, 0.2810360
736.2003, 3.923218
736.6824, 3.960327
737.1645, 3.552216
737.6466, 15.39505
738.1287, 23.28061
738.6108, 25.32971
739.0930, 22.54932
739.5751, 8.638275
740.0572, 5.217316
740.5393, 1.348541
741.0214, 15.11481
741.5035, 22.74951
741.9857, 11.37289
742.4678, 5.319183
742.9499, 5.833008
743.4320, 8.205078
743.9141, 12.98917
744.3962, 6.640137
744.8784, 0.8537290
745.3605, 7.227539
745.8426, 10.42636
746.3247, 5.835022
746.8068, 8.330261
747.2889, 13.48248
747.7711, 0.3828430
748.2532, 9.512115
748.7353, 6.539551
749.2174, 1.481140
749.6995, 5.074127
750.1816, 16.59375
750.6638, 27.52658
751.1459, 33.82355
751.6280, 38.22977
752.1101, 41.65735
752.5922, 45.45163
753.0743, 53.37695
753.5565, 65.35999
754.0386, 76.61951
754.5207, 84.22812
755.0028, 90.05865
755.4849, 96.98251
755.9670, 104.6160
756.4492, 117.8615
756.9313, 139.3791
757.4134, 160.0150
757.8955, 174.9420
758.3776, 187.6271
758.8597, 204.0401
759.3419, 224.5898
759.8240, 243.2608
760.3061, 256.1293
760.7882, 271.2012
761.2703, 289.5024
761.7524, 312.7717
762.2346, 349.6927
762.7167, 395.3939
763.1988, 427.0114
763.6809, 428.4875
764.1630, 415.8331
764.6451, 405.1722
765.1273, 395.2089
765.6094, 383.9749
766.0915, 370.6996
766.5736, 350.6419
767.0557, 320.1981
767.5378, 284.3907
768.0200, 253.3978
768.5021, 227.2612
768.9842, 207.7766
769.4663, 201.2782
769.9484, 187.6750
770.4305, 149.6752
770.9127, 105.6532
771.3948, 83.70061
771.8769, 85.51328
772.3590, 85.05952
772.8411, 78.04512
773.3232, 70.02805
773.8054, 62.83057
774.2875, 55.91461
774.7696, 47.81795
775.2517, 39.12766
775.7338, 32.85707
776.2159, 31.47003
776.6981, 31.43918
777.1802, 29.90971
777.6623, 26.45210
778.1444, 17.01476
778.6265, 2.837677
779.1086, 2.715622
779.5908, 8.785309
780.0729, 26.50995
780.5550, 28.60683
781.0371, 12.65169
781.5192, 6.513931
782.0013, 15.05655
782.4835, 20.18314
782.9656, 12.59557
783.4477, 0.5695800
783.9298, 3.375488
784.4119, 0.9742130
784.8940, 2.634628
785.3762, 1.891144
785.8583, 4.108887
786.3404, 2.855469
786.8225, 0.9821320
787.3046, 10.40163
787.7867, 22.01225
788.2689, 26.05690
788.7510, 16.23445
789.2331, 6.855988
789.7152, 10.99908
790.1973, 21.34615
790.6794, 29.48318
791.1616, 34.38876
791.6437, 33.10361
792.1258, 23.95171
792.6079, 14.37547
793.0900, 15.79439
793.5721, 26.86859
794.0543, 34.42352
794.5364, 37.93578
795.0185, 37.90077
795.5006, 32.75946
795.9827, 26.86513
796.4648, 25.85738
796.9470, 29.46666
797.4291, 29.78589
797.9112, 21.35509
798.3933, 15.91397
798.8754, 14.47699
799.3575, 14.40108
799.8397, 15.86893
800.3218, 18.40372
800.8039, 21.21060
801.2860, 23.94904
801.7681, 25.35899
802.2502, 24.59479
802.7324, 23.63368
803.2145, 23.67924
803.6966, 24.58197
804.1787, 26.85893
804.6608, 29.49113
805.1429, 29.07793
805.6251, 21.74391
806.1072, 12.44629
806.5893, 14.96725
807.0714, 27.52103
807.5535, 37.65875
808.0356, 43.39326
808.5178, 43.44467
808.9999, 35.34412
809.4820, 24.49716
809.9641, 25.71561
810.4462, 44.15634
810.9283, 55.71658
811.4105, 57.62964
811.8926, 57.18768
812.3747, 54.80826
812.8568, 53.02304
813.3389, 55.37930
813.8210, 61.86314
814.3032, 67.31207
814.7853, 67.20573
815.2674, 70.73947
815.7495, 83.39304
816.2316, 99.18987
816.7137, 110.6438
817.1959, 120.2869
817.6780, 138.9917
818.1601, 173.9147
818.6422, 206.4086
819.1243, 216.3539
819.6064, 216.4384
820.0886, 223.5857
820.5707, 239.0582
821.0528, 263.5305
821.5349, 297.0199
822.0170, 331.9977
822.4991, 361.2750
822.9813, 384.8787
823.4634, 399.1855
823.9455, 403.1991
824.4276, 423.4607
824.9097, 468.9911
825.3918, 518.0958
825.8740, 556.2111
826.3561, 584.1136
826.8382, 603.9505
827.3203, 616.2416
827.8024, 619.2328
828.2845, 611.3456
828.7667, 595.8298
829.2488, 571.4245
829.7309, 541.6437
830.2130, 510.7610
830.6951, 478.9925
831.1772, 443.9724
831.6594, 403.2909
832.1415, 361.4877
832.6236, 319.2600
833.1057, 277.6259
833.5878, 235.3025
834.0699, 194.2037
834.5521, 159.5152
835.0342, 133.5755
835.5163, 114.1642
835.9984, 101.7169
836.4805, 92.53342
836.9626, 80.82083
837.4448, 68.27628
837.9269, 59.98773
838.4090, 57.07574
838.8911, 51.38358
839.3732, 32.18555
839.8553, 6.193359
840.3375, 2.381165
840.8196, 6.541290
841.3017, 16.51447
841.7838, 27.00192
842.2659, 28.29355
842.7480, 10.30106
843.2302, 18.35840
843.7123, 34.88428
844.1944, 36.00757
844.6765, 34.68002
845.1586, 27.57455
845.6407, 22.45169
846.1229, 24.35101
846.6050, 28.49597
847.0871, 29.49753
847.5692, 27.08438
848.0513, 26.52341
848.5334, 31.47104
849.0156, 34.97763
849.4977, 33.47964
849.9798, 31.70267
850.4619, 34.93265
850.9440, 40.06647
851.4261, 40.47620
851.9083, 34.29248
852.3904, 25.50409
852.8725, 17.18326
853.3546, 7.195557
853.8367, 9.153168
854.3188, 28.52661
854.8010, 44.22083
855.2831, 54.78351
855.7652, 61.81958
856.2473, 65.80396
856.7294, 69.95139
857.2115, 79.65298
857.6937, 94.31488
858.1758, 111.9181
858.6579, 132.1667
859.1400, 152.6578
859.6221, 172.0936
860.1042, 192.9395
860.5864, 220.5971
861.0685, 254.3157
861.5506, 275.6920
862.0327, 281.4486
862.5148, 288.0846
862.9969, 300.3124
863.4791, 312.2340
863.9612, 322.0178
864.4433, 327.5920
864.9254, 319.5970
865.4075, 291.2749
865.8896, 262.4706
866.3718, 231.6003
866.8539, 201.8091
867.3360, 172.6125
867.8181, 146.0627
868.3002, 124.2974
868.7823, 107.2546
869.2645, 94.52032
869.7466, 88.32932
870.2287, 83.48322
870.7108, 77.20831
871.1929, 72.14096
871.6750, 71.22543
872.1572, 73.38309
872.6393, 74.29822
873.1214, 72.23807
873.6035, 76.61298
874.0856, 101.9361
874.5677, 130.8948
875.0499, 143.0068
875.5320, 143.9991
876.0141, 145.1049
876.4962, 149.3365
876.9783, 156.4032
877.4604, 165.7452
877.9426, 179.2307
878.4247, 202.8744
878.9068, 233.1422
879.3889, 257.4041
879.8710, 274.7500
880.3531, 287.3433
880.8353, 296.0439
881.3174, 298.0555
881.7995, 288.3805
882.2816, 269.6514
882.7637, 259.7339
883.2458, 260.3542
883.7280, 258.1757
884.2101, 253.0079
884.6922, 237.0322
885.1743, 199.6191
885.6564, 154.7821
886.1385, 134.7812
886.6207, 147.6097
887.1028, 149.2771
887.5849, 133.7787
888.0670, 116.6634
888.5491, 97.23273
889.0313, 81.98901
889.5134, 78.64209
889.9955, 84.62436
890.4776, 88.12820
890.9597, 87.84445
891.4418, 86.00415
891.9240, 80.56067
892.4061, 76.18542
892.8882, 73.53619
893.3703, 74.41864
893.8524, 83.88385
894.3345, 101.3616
894.8167, 112.9111
895.2988, 104.2435
895.7809, 98.79321
896.2630, 112.1658
896.7451, 132.6804
897.2272, 149.7185
897.7094, 162.7813
898.1915, 172.2836
898.6736, 179.0867
899.1557, 191.9408
899.6378, 222.1420
900.1199, 259.1357
900.6021, 287.5770
901.0842, 312.2357
901.5663, 347.9847
902.0484, 396.4279
902.5305, 444.5580
903.0126, 483.5461
903.4948, 523.2759
903.9769, 576.3722
904.4590, 641.7469
904.9411, 713.5674
905.4232, 793.1097
905.9053, 889.2411
906.3875, 1004.331
906.8696, 1128.469
907.3517, 1251.793
907.8338, 1378.050
908.3159, 1520.947
908.7980, 1680.181
909.2802, 1840.385
909.7623, 1997.155
910.2444, 2177.625
910.7265, 2395.185
911.2086, 2638.349
911.6907, 2891.885
912.1729, 3155.707
912.6550, 3435.342
913.1371, 3735.734
913.6192, 4041.233
914.1013, 4364.534
914.5834, 4664.692
915.0656, 4920.371
915.5477, 5132.755
916.0298, 5311.144
916.5119, 5469.987
916.9940, 5540.671
917.4761, 5518.792
917.9583, 5414.575
918.4404, 5195.555
918.9225, 4925.038
919.4046, 4651.646
919.8867, 4368.229
920.3688, 4041.708
920.8510, 3633.290
921.3331, 3259.794
921.8152, 2952.640
922.2973, 2666.578
922.7794, 2364.104
923.2615, 2079.903
923.7437, 1868.349
924.2258, 1723.626
924.7079, 1580.525
925.1900, 1410.407
925.6721, 1252.482
926.1542, 1124.574
926.6364, 1013.970
927.1185, 910.1668
927.6006, 817.3748
928.0827, 746.1840
928.5648, 697.8395
929.0469, 656.2558
929.5291, 617.6884
930.0112, 576.6631
930.4933, 519.4682
930.9754, 463.7336
931.4575, 435.5392
931.9396, 428.5863
932.4218, 420.0535
932.9039, 401.4830
933.3860, 379.7996
933.8681, 359.3654
934.3502, 340.5012
934.8323, 325.6522
935.3145, 312.0973
935.7966, 292.7586
936.2787, 268.5536
936.7608, 248.1304
937.2429, 236.2081
937.7250, 228.6581
938.2072, 222.0422
938.6893, 215.3499
939.1714, 205.0768
939.6535, 192.4826
940.1356, 182.2332
940.6177, 175.4697
941.0999, 172.9224
941.5820, 175.9302
942.0641, 178.9691
942.5462, 168.3371
943.0283, 148.2704
943.5104, 142.6179
943.9926, 151.2866
944.4747, 159.7741
944.9568, 163.6424
945.4389, 165.5433
945.9210, 167.6624
946.4031, 169.9965
946.8853, 172.4387
947.3674, 174.9971
947.8495, 178.2527
948.3316, 182.1939
948.8137, 187.5260
949.2958, 194.6326
949.7780, 202.8622
950.2601, 212.0769
950.7422, 221.3241
951.2243, 224.5175
951.7064, 220.1793
952.1885, 220.9219
952.6707, 231.2017
953.1528, 233.0974
953.6349, 215.0012
954.1170, 191.3708
954.5991, 182.1676
955.0812, 186.6334
955.5634, 186.7488
956.0455, 181.4559
956.5276, 174.9195
957.0097, 166.9099
957.4918, 159.1857
957.9739, 153.3738
958.4561, 147.6354
958.9382, 138.8168
959.4203, 126.6521
959.9024, 114.7407
960.3845, 103.3647
960.8666, 91.43829
961.3488, 75.80066
961.8309, 65.29089
962.3130, 66.15649
962.7951, 73.09589
963.2772, 76.18860
963.7593, 72.95251
964.2415, 79.14758
964.7236, 99.90826
965.2057, 122.0330
965.6878, 151.2051
966.1699, 175.4395
966.6520, 178.3053
967.1342, 171.1028
967.6163, 183.3729
968.0984, 223.2146
968.5805, 254.8911
969.0626, 269.3561
969.5447, 285.1175
970.0269, 300.2480
970.5090, 324.5563
970.9911, 368.7100
971.4732, 426.5074
971.9553, 482.2686
972.4374, 533.2405
972.9196, 588.9945
973.4017, 642.8381
973.8838, 712.9012
974.3659, 815.1426
974.8480, 927.2251
975.3301, 1027.443
975.8123, 1121.269
976.2944, 1225.532
976.7765, 1342.593
977.2586, 1470.912
977.7407, 1608.282
978.2228, 1758.578
978.7050, 1918.862
979.1871, 2096.047
979.6692, 2301.424
980.1513, 2529.215
980.6334, 2762.510
981.1155, 3001.513
981.5977, 3231.805
982.0798, 3469.450
982.5619, 3673.612
983.0440, 3837.987
983.5261, 3948.573
984.0082, 3991.779
984.4904, 3967.841
984.9725, 3880.490
985.4546, 3723.182
985.9367, 3524.745
986.4188, 3275.360
986.9009, 3008.976
987.3831, 2728.444
987.8652, 2453.110
988.3473, 2209.247
988.8294, 1994.300
989.3115, 1784.157
989.7936, 1563.887
990.2758, 1371.410
990.7579, 1237.524
991.2400, 1120.957
991.7221, 991.4598
992.2042, 866.6835
992.6863, 770.7056
993.1685, 701.7499
993.6506, 638.1981
994.1327, 572.1754
994.6148, 514.0378
995.0969, 469.5527
995.5790, 433.2710
996.0612, 403.6329
996.5433, 378.8661
997.0254, 356.2639
997.5075, 336.3787
997.9896, 323.9988
998.4717, 324.5358
998.9539, 321.1962
999.4360, 299.3965
999.9181, 278.2484
1000.400, 271.9209
1000.882, 273.7927
1001.364, 278.4342
1001.847, 282.5384
1002.329, 278.4318
1002.811, 261.5497
1003.293, 242.2347
1003.775, 217.7582
1004.257, 200.5751
1004.739, 210.7998
1005.221, 226.0511
1005.703, 214.4600
1006.186, 179.7256
1006.668, 150.5188
1007.150, 136.6268
1007.632, 128.7811
1008.114, 128.2997
1008.596, 126.3524
1009.078, 117.6230
1009.560, 103.8220
1010.043, 85.01544
1010.525, 63.35321
1011.007, 44.65292
1011.489, 30.10474
1011.971, 20.46469
1012.453, 17.67810
1012.935, 17.91974
1013.417, 21.24060
1013.899, 24.60815
1014.382, 25.16159
1014.864, 22.75970
1015.346, 17.61505
1015.828, 8.592346
1016.310, 2.152832
1016.792, 2.392334
1017.274, 3.951050
1017.756, 8.204956
1018.239, 8.952423
1018.721, 4.507843
1019.203, 26.53735
1019.685, 39.50552
1020.167, 38.13913
1020.649, 33.92844
1021.131, 29.73279
1021.613, 24.60312
1022.095, 13.92786
1022.578, 5.633575
1023.060, 10.50360
1023.542, 23.11011
1024.024, 28.15930
1024.506, 21.38049
1024.988, 16.77155
1025.470, 19.65192
1025.952, 23.07516
1026.435, 24.54742
1026.917, 25.47900
1027.399, 28.73312
1027.881, 31.85178
1028.363, 28.52264
1028.845, 16.84210
1029.327, 8.343781
1029.809, 6.334625
1030.292, 6.050690
1030.774, 9.027222
1031.256, 10.50452
1031.738, 5.816071
1032.220, 1.986847
1032.702, 6.977753
1033.184, 8.408051
1033.666, 11.84583
1034.148, 23.09650
1034.630, 28.68719
1035.113, 22.53073
1035.595, 14.42627
1036.077, 8.115845
1036.559, 4.057495
1037.041, 2.520782
1037.523, 3.462158
1038.005, 8.554016
1038.487, 26.64352
1038.970, 34.33920
1039.452, 17.23465
1039.934, 6.818481
1040.416, 25.35059
1040.898, 50.33954
1041.380, 53.28033
1041.862, 36.43262
1042.344, 24.67444
1042.826, 17.97046
1043.309, 16.96426
1043.791, 24.80038
1044.273, 32.29556
1044.755, 34.08420
1045.237, 37.30579
1045.719, 51.12991
1046.201, 72.14597
1046.683, 84.31589
1047.166, 85.21808
1047.648, 85.66235
1048.130, 85.82733
1048.612, 84.71051
1049.094, 80.46356
1049.576, 79.14618
1050.058, 87.13562
1050.540, 100.1657
1051.022, 105.5990
1051.505, 101.7508
1051.987, 107.6716
1052.469, 125.8147
1052.951, 136.7646
1053.433, 133.9802
1053.915, 134.6688
1054.397, 150.9258
1054.879, 176.2264
1055.361, 199.9166
1055.844, 221.5474
1056.326, 237.4301
1056.808, 247.7026
1057.290, 256.3325
1057.772, 263.7994
1058.254, 278.6180
1058.736, 305.3950
1059.218, 339.3986
1059.701, 376.1050
1060.183, 413.3336
1060.665, 440.3214
1061.147, 460.5672
1061.629, 491.7582
1062.111, 535.6226
1062.593, 587.9077
1063.075, 647.1174
1063.557, 715.4347
1064.040, 793.5740
1064.522, 881.1850
1065.004, 975.0839
1065.486, 1077.133
1065.968, 1193.215
1066.450, 1323.708
1066.932, 1468.115
1067.414, 1626.548
1067.896, 1797.963
1068.379, 1978.895
1068.861, 2181.032
1069.343, 2413.449
1069.825, 2677.676
1070.307, 2981.109
1070.789, 3317.630
1071.271, 3670.875
1071.753, 4043.171
1072.236, 4464.432
1072.718, 4955.008
1073.200, 5462.777
1073.682, 5993.597
1074.164, 6483.233
1074.646, 6914.435
1075.128, 7249.774
1075.610, 7467.328
1076.093, 7547.065
1076.575, 7437.149
1077.057, 7118.923
1077.539, 6723.754
1078.021, 6272.717
1078.503, 5808.252
1078.985, 5338.965
1079.467, 4874.806
1079.949, 4408.738
1080.432, 3958.032
1080.914, 3550.351
1081.396, 3188.374
1081.878, 2838.576
1082.360, 2473.699
1082.842, 2151.529
1083.324, 1889.976
1083.806, 1662.186
1084.288, 1463.641
1084.771, 1288.821
1085.253, 1136.128
1085.735, 1004.545
1086.217, 889.6291
1086.699, 794.8260
1087.181, 711.2312
1087.663, 638.2636
1088.145, 576.5912
1088.628, 530.2240
1089.110, 487.2954
1089.592, 437.2829
1090.074, 387.6150
1090.556, 354.4694
1091.038, 338.3051
1091.520, 321.9721
1092.002, 306.0344
1092.484, 286.6351
1092.967, 261.9525
1093.449, 242.7611
1093.931, 235.2332
1094.413, 229.9293
1094.895, 214.1409
1095.377, 191.8014
1095.859, 178.1988
1096.341, 172.0660
1096.823, 161.5159
1097.306, 146.3338
1097.788, 134.6663
1098.270, 130.0269
1098.752, 129.2222
1099.234, 131.3445
1099.716, 130.9646
1100.198, 115.7018
1100.680, 93.89636
1101.163, 83.27071
1101.645, 81.13696
1102.127, 78.75482
1102.609, 74.67717
1103.091, 71.34798
1103.573, 69.95563
1104.055, 69.14685
1104.537, 67.75970
1105.020, 66.51913
1105.502, 66.01044
1105.984, 66.10345
1106.466, 69.96985
1106.948, 73.22795
1107.430, 63.66949
1107.912, 39.93158
1108.394, 23.43582
1108.876, 25.84874
1109.359, 32.56174
1109.841, 42.34679
1110.323, 50.09122
1110.805, 53.98822
1111.287, 53.09143
1111.769, 42.16122
1112.251, 24.68723
1112.733, 19.05824
1113.215, 35.37399
1113.698, 42.30435
1114.180, 29.06409
1114.662, 22.40410
1115.144, 34.19766
1115.626, 45.52402
1116.108, 42.18538
1116.590, 31.77026
1117.072, 29.08186
1117.555, 34.17752
1118.037, 31.44624
1118.519, 18.42368
1119.001, 12.90739
1119.483, 18.75160
1119.965, 19.65511
1120.447, 8.109177
1120.929, 7.043457
1121.411, 17.97971
1121.894, 22.64511
1122.376, 11.92296
1122.858, 10.41563
1123.340, 26.37451
1123.822, 35.04657
1124.304, 35.53506
1124.786, 28.57599
1125.268, 19.71136
1125.750, 11.84882
1126.233, 7.549454
1126.715, 14.01808
1127.197, 22.15161
1127.679, 16.92094
1128.161, 6.092484
1128.643, 1.822128
1129.125, 3.446732
1129.607, 5.780457
1130.090, 7.233582
1130.572, 7.430557
1131.054, 3.787766
1131.536, 3.149033
1132.018, 16.41840
1132.500, 25.78386
1132.982, 12.23612
1133.464, 7.208221
1133.947, 11.66183
1134.429, 2.750305
1134.911, 6.667740
1135.393, 16.75487
1135.875, 21.48680
1136.357, 16.97134
1136.839, 11.93919
1137.321, 7.656586
1137.803, 3.348648
1138.286, 2.233444
1138.768, 7.127808
1139.250, 8.206635
1139.732, 5.862015
1140.214, 3.833862
1140.696, 2.207642
1141.178, 0.5683750
1141.660, 0.8726650
1142.142, 6.840805
1142.625, 19.43134
1143.107, 25.55612
1143.589, 13.77190
1144.071, 3.881500
1144.553, 5.051132
1145.035, 4.461578
1145.517, 7.177597
1145.999, 5.211075
1146.482, 5.506546
1146.964, 8.632385
1147.446, 13.18764
1147.928, 18.23134
1148.410, 18.80209
1148.892, 7.572495
1149.374, 3.335526
1149.856, 2.206879
1150.339, 3.622711
1150.821, 8.690063
1151.303, 12.36536
1151.785, 13.92784
1152.267, 14.03723
1152.749, 15.43947
1153.231, 19.09659
1153.713, 22.83066
1154.195, 26.71738
1154.677, 29.86092
1155.160, 29.19026
1155.642, 30.92415
1156.124, 41.83661
1156.606, 54.91026
1157.088, 59.19962
1157.570, 55.63924
1158.052, 55.40352
1158.534, 59.29779
1159.017, 62.38197
1159.499, 63.71246
1159.981, 68.84796
1160.463, 79.86696
1160.945, 91.99573
1161.427, 102.2366
1161.909, 109.5741
1162.391, 109.7923
1162.874, 106.7765
1163.356, 116.4784
1163.838, 133.8069
1164.320, 141.1478
1164.802, 139.0557
1165.284, 137.0006
1165.766, 138.8207
1166.248, 148.4244
1166.730, 172.0305
1167.213, 195.4362
1167.695, 206.2874
1168.177, 212.1799
1168.659, 219.9488
1169.141, 226.8659
1169.623, 228.2238
1170.105, 225.2242
1170.587, 222.3510
1171.069, 220.8245
1171.552, 215.8062
1172.034, 204.1363
1172.516, 192.0539
1172.998, 175.6069
1173.480, 168.2722
1173.962, 179.1217
1174.444, 189.1526
1174.926, 178.2703
1175.409, 153.1575
1175.891, 137.3172
1176.373, 130.7031
1176.855, 123.9731
1177.337, 117.2108
1177.819, 107.2227
1178.301, 94.26730
1178.783, 84.50748
1179.266, 81.76724
1179.748, 82.71426
1180.230, 78.68362
1180.712, 74.23114
1181.194, 79.24951
1181.676, 86.60022
1182.158, 88.35587
1182.640, 84.71027
1183.122, 73.00177
1183.604, 57.11044
1184.087, 52.46429
1184.569, 67.05774
1185.051, 80.07809
1185.533, 82.85458
1186.015, 79.21426
1186.497, 63.31448
1186.979, 48.75861
1187.461, 43.79276
1187.944, 48.40808
1188.426, 66.79660
1188.908, 95.30344
1189.390, 110.4345
1189.872, 105.2777
1190.354, 113.2848
1190.836, 139.6261
1191.318, 155.1412
1191.801, 152.0034
1192.283, 146.2604
1192.765, 146.2483
1193.247, 154.3627
1193.729, 176.4753
1194.211, 204.5453
1194.693, 218.6906
1195.175, 223.1162
1195.657, 227.6427
1196.140, 233.0744
1196.622, 237.1107
1197.104, 241.1572
1197.586, 255.3705
1198.068, 286.0142
1198.550, 308.3194
1199.032, 295.7117
1199.514, 284.5813
1199.996, 304.6867
1200.479, 325.2611
1200.961, 316.5889
1201.443, 295.9674
1201.925, 291.4940
1202.407, 301.8794
1202.889, 305.6494
1203.371, 301.1803
1203.853, 295.2222
1204.336, 288.3817
1204.818, 277.8299
1205.300, 262.4012
1205.782, 245.1383
1206.264, 227.1856
1206.746, 211.4337
1207.228, 201.8360
1207.710, 195.8547
1208.193, 189.4536
1208.675, 180.6709
1209.157, 160.8015
1209.639, 134.1612
1210.121, 113.6569
1210.603, 100.9502
1211.085, 92.38290
1211.567, 86.55627
1212.049, 79.08853
1212.531, 62.31027
1213.014, 49.87747
1213.496, 57.26947
1213.978, 62.38730
1214.460, 43.55173
1214.942, 18.21045
1215.424, 9.595520
1215.906, 13.88846
1216.388, 13.57050
1216.871, 7.170715
1217.353, 5.708710
1217.835, 10.51981
1218.317, 15.07483
1218.799, 18.82910
1219.281, 19.66983
1219.763, 16.58682
1220.245, 12.40189
1220.728, 9.670502
1221.210, 7.513306
1221.692, 3.567444
1222.174, 0.2579190
1222.656, 0.4137730
1223.138, 2.906281
1223.620, 0.0000000E+00
##END=



