##NAMES=Dawsonite
##RRUFFID=R050645
##IDEAL CHEMISTRY=NaAlCO_3_(OH)_2_
##LOCALITY=Cerro Sapo, Cochabamba Department, Bolivia
##OWNER=RRUFF
##SOURCE=Marcus Origlieri
##DESCRIPTION=White fibrous aggregates associated with blue sodalite on pale green ankerite.
##STATUS=The identification of this mineral is confirmed by single-crystal X-ray diffraction and chemical analysis.
##URL=rruff.info/R050645
##MEASURED CHEMISTRY=Na_1.00_(Al_0.99_Fe^3+^_0.01_)_Î£=1_CO_3_(OH)_2_
90.522, 0.000
91.004, 0.395
91.486, 0.005
91.969, 1.753
92.451, 4.695
92.933, 9.553
93.415, 12.293
93.897, 12.476
94.379, 7.518
94.861, 3.886
95.343, 6.186
95.825, 10.828
96.308, 13.587
96.790, 11.635
97.272, 5.921
97.754, 3.218
98.236, 15.845
98.718, 21.850
99.200, 27.533
99.682, 31.165
100.164, 31.563
100.647, 28.745
101.129, 21.729
101.611, 19.625
102.093, 28.650
102.575, 35.912
103.057, 44.728
103.539, 53.025
104.021, 55.030
104.504, 43.619
104.986, 12.758
105.468, 6.126
105.950, 6.729
106.432, 1.809
106.914, 0.818
107.396, 0.241
107.878, 2.301
108.360, 1.829
108.843, 2.974
109.325, 5.672
109.807, 3.055
110.289, 0.386
110.771, 1.657
111.253, 11.330
111.735, 22.200
112.217, 21.602
112.700, 5.395
113.182, 6.406
113.664, 6.534
114.146, 0.365
114.628, 5.190
115.110, 3.827
115.592, 1.293
116.074, 7.591
116.557, 25.201
117.039, 42.355
117.521, 53.803
118.003, 60.331
118.485, 64.940
118.967, 67.646
119.449, 69.915
119.931, 73.944
120.413, 79.793
120.896, 87.252
121.378, 97.745
121.860, 111.161
122.342, 121.736
122.824, 124.863
123.306, 124.480
123.788, 125.638
124.270, 129.750
124.752, 134.540
125.235, 137.202
125.717, 137.385
126.199, 137.209
126.681, 137.325
127.163, 137.678
127.645, 138.440
128.127, 140.091
128.609, 141.673
129.092, 140.198
129.574, 132.326
130.056, 129.551
130.538, 140.750
131.020, 157.978
131.502, 171.498
131.984, 176.360
132.466, 174.593
132.948, 172.895
133.430, 172.987
133.913, 170.166
134.395, 161.720
134.877, 149.908
135.359, 137.907
135.841, 126.704
136.323, 116.804
136.805, 112.772
137.288, 121.429
137.770, 128.591
138.252, 128.000
138.734, 122.798
139.216, 119.718
139.698, 125.114
140.180, 138.973
140.662, 144.438
141.144, 127.912
141.626, 114.931
142.109, 113.840
142.591, 122.708
143.073, 135.030
143.555, 145.205
144.037, 152.710
144.519, 162.928
145.001, 180.405
145.484, 196.354
145.966, 203.632
146.448, 205.045
146.930, 210.445
147.412, 230.807
147.894, 271.077
148.376, 302.647
148.858, 321.289
149.340, 336.415
149.822, 352.726
150.305, 370.480
150.787, 387.595
151.269, 402.996
151.751, 419.914
152.233, 421.098
152.715, 405.862
153.197, 378.608
153.679, 335.510
154.161, 279.378
154.644, 223.306
155.126, 183.691
155.608, 166.967
156.090, 150.668
156.572, 135.866
157.054, 120.712
157.536, 101.859
158.018, 79.491
158.501, 59.206
158.983, 48.659
159.465, 52.540
159.947, 56.281
160.429, 59.592
160.911, 62.962
161.393, 67.598
161.875, 73.605
162.357, 78.745
162.840, 79.592
163.322, 72.878
163.804, 68.237
164.286, 67.732
164.768, 68.955
165.250, 68.750
165.732, 66.318
166.214, 64.715
166.697, 69.185
167.179, 83.097
167.661, 92.210
168.143, 89.963
168.625, 84.332
169.107, 85.575
169.589, 96.705
170.071, 110.898
170.553, 117.941
171.036, 116.341
171.518, 112.770
172.000, 102.677
172.482, 92.969
172.964, 94.707
173.446, 111.770
173.928, 135.200
174.410, 151.149
174.893, 157.234
175.375, 167.664
175.857, 186.919
176.339, 211.810
176.821, 238.486
177.303, 266.268
177.785, 294.307
178.267, 319.377
178.749, 339.425
179.232, 367.296
179.714, 409.566
180.196, 461.480
180.678, 515.055
181.160, 567.320
181.642, 621.294
182.124, 681.330
182.606, 746.909
183.089, 820.000
183.571, 906.462
184.053, 998.926
184.535, 1083.634
185.017, 1154.346
185.499, 1225.287
185.981, 1320.908
186.463, 1441.674
186.945, 1556.589
187.428, 1649.632
187.910, 1728.518
188.392, 1816.055
188.874, 1921.329
189.356, 2022.854
189.838, 2093.091
190.320, 2136.431
190.802, 2152.193
191.285, 2141.506
191.767, 2102.805
192.249, 2027.449
192.731, 1907.449
193.213, 1768.541
193.695, 1640.080
194.177, 1521.806
194.659, 1399.918
195.141, 1264.052
195.624, 1122.958
196.106, 990.349
196.588, 866.768
197.070, 756.088
197.552, 666.182
198.034, 594.849
198.516, 531.282
198.998, 471.879
199.480, 418.205
199.963, 373.332
200.445, 338.988
200.927, 309.266
201.409, 277.060
201.891, 242.853
202.373, 213.115
202.855, 191.468
203.337, 174.748
203.820, 156.998
204.302, 136.347
204.784, 118.979
205.266, 114.357
205.748, 120.106
206.230, 124.049
206.712, 118.857
207.194, 111.754
207.676, 112.746
208.159, 123.273
208.641, 139.650
209.123, 159.950
209.605, 183.849
210.087, 209.950
210.569, 239.215
211.051, 270.120
211.533, 299.980
212.016, 328.292
212.498, 358.653
212.980, 395.419
213.462, 437.213
213.944, 476.532
214.426, 503.693
214.908, 532.688
215.390, 583.507
215.872, 658.014
216.355, 729.134
216.837, 777.760
217.319, 805.225
217.801, 821.840
218.283, 824.411
218.765, 819.064
219.247, 814.089
219.729, 809.230
220.212, 791.616
220.694, 750.207
221.176, 687.501
221.658, 621.576
222.140, 548.131
222.622, 475.665
223.104, 408.099
223.586, 345.682
224.068, 289.418
224.551, 238.614
225.033, 195.796
225.515, 164.405
225.997, 151.307
226.479, 142.153
226.961, 128.335
227.443, 111.736
227.925, 97.757
228.408, 91.159
228.890, 88.975
229.372, 81.974
229.854, 66.921
230.336, 52.130
230.818, 40.625
231.300, 32.181
231.782, 26.665
232.264, 24.858
232.747, 24.849
233.229, 21.321
233.711, 10.850
234.193, 4.101
234.675, 9.202
235.157, 19.820
235.639, 23.515
236.121, 15.171
236.604, 0.454
237.086, 10.491
237.568, 18.398
238.050, 21.690
238.532, 15.350
239.014, 5.715
239.496, 2.224
239.978, 7.779
240.460, 16.392
240.943, 19.508
241.425, 16.107
241.907, 9.673
242.389, 7.532
242.871, 23.518
243.353, 21.916
243.835, 0.586
244.317, 22.459
244.799, 26.158
245.282, 3.927
245.764, 17.542
246.246, 39.881
246.728, 60.225
247.210, 75.529
247.692, 86.264
248.174, 95.654
248.656, 107.566
249.139, 122.664
249.621, 134.490
250.103, 135.672
250.585, 140.631
251.067, 156.824
251.549, 183.453
252.031, 215.516
252.513, 249.145
252.995, 284.716
253.478, 324.182
253.960, 365.097
254.442, 410.023
254.924, 466.002
255.406, 527.335
255.888, 580.946
256.370, 616.802
256.852, 640.176
257.335, 681.350
257.817, 758.892
258.299, 834.713
258.781, 908.547
259.263, 976.058
259.745, 1034.225
260.227, 1081.603
260.709, 1115.955
261.191, 1131.342
261.674, 1128.904
262.156, 1102.125
262.638, 1045.277
263.120, 969.766
263.602, 879.500
264.084, 777.578
264.566, 673.339
265.048, 580.308
265.530, 499.696
266.013, 429.572
266.495, 369.191
266.977, 317.776
267.459, 276.872
267.941, 245.600
268.423, 219.473
268.905, 192.738
269.387, 163.884
269.870, 142.360
270.352, 135.214
270.834, 129.762
271.316, 121.476
271.798, 110.764
272.280, 100.496
272.762, 94.184
273.244, 91.127
273.727, 81.514
274.209, 57.008
274.691, 37.333
275.173, 32.332
275.655, 37.164
276.137, 43.176
276.619, 46.000
277.101, 45.522
277.583, 41.729
278.065, 33.189
278.548, 24.974
279.030, 19.018
279.512, 14.343
279.994, 10.416
280.476, 6.264
280.958, 4.655
281.440, 11.549
281.922, 28.179
282.405, 40.509
282.887, 43.102
283.369, 38.984
283.851, 29.050
284.333, 11.064
284.815, 1.702
285.297, 6.812
285.779, 31.816
286.262, 45.802
286.744, 38.238
287.226, 22.382
287.708, 13.672
288.190, 11.964
288.672, 11.649
289.154, 10.250
289.636, 8.761
290.118, 9.509
290.601, 13.273
291.083, 17.076
291.565, 17.539
292.047, 14.894
292.529, 12.882
293.011, 11.887
293.493, 11.791
293.975, 13.908
294.457, 17.839
294.940, 18.518
295.422, 11.533
295.904, 9.700
296.386, 12.005
296.868, 13.416
297.350, 13.655
297.832, 8.430
298.314, 9.472
298.797, 7.610
299.279, 5.843
299.761, 8.200
300.243, 4.044
300.725, 6.762
301.207, 6.733
301.689, 7.955
302.171, 5.241
302.654, 3.129
303.136, 5.025
303.618, 9.304
304.100, 12.569
304.582, 3.118
305.064, 1.694
305.546, 2.697
306.028, 7.590
306.510, 6.143
306.992, 1.210
307.475, 8.291
307.957, 8.509
308.439, 0.996
308.921, 3.988
309.403, 6.585
309.885, 6.335
310.367, 1.352
310.849, 11.820
311.332, 15.050
311.814, 2.488
312.296, 19.369
312.778, 23.035
313.260, 5.641
313.742, 2.974
314.224, 2.864
314.706, 6.246
315.189, 7.304
315.671, 0.917
316.153, 2.838
316.635, 1.789
317.117, 0.541
317.599, 5.973
318.081, 0.912
318.563, 4.408
319.045, 4.853
319.528, 7.525
320.010, 5.366
320.492, 4.697
320.974, 8.857
321.456, 10.339
321.938, 7.616
322.420, 10.418
322.902, 3.342
323.384, 4.930
323.867, 10.256
324.349, 7.765
324.831, 10.645
325.313, 11.477
325.795, 3.006
326.277, 10.708
326.759, 11.413
327.241, 5.139
327.724, 0.431
328.206, 4.335
328.688, 8.949
329.170, 10.554
329.652, 10.228
330.134, 10.639
330.616, 13.069
331.098, 16.073
331.581, 16.512
332.063, 13.369
332.545, 9.415
333.027, 1.119
333.509, 5.788
333.991, 3.301
334.473, 8.744
334.955, 20.616
335.437, 20.495
335.919, 4.447
336.402, 3.167
336.884, 2.107
337.366, 10.265
337.848, 19.215
338.330, 27.710
338.812, 34.412
339.294, 38.615
339.776, 40.295
340.259, 39.412
340.741, 33.140
341.223, 28.732
341.705, 30.352
342.187, 33.058
342.669, 30.503
343.151, 21.510
343.633, 10.860
344.116, 4.425
344.598, 2.104
345.080, 5.698
345.562, 22.920
346.044, 39.671
346.526, 44.068
347.008, 37.202
347.490, 32.241
347.972, 41.028
348.455, 58.088
348.937, 68.093
349.419, 70.120
349.901, 68.031
350.383, 61.054
350.865, 51.884
351.347, 47.733
351.829, 55.221
352.311, 63.702
352.794, 61.452
353.276, 51.508
353.758, 48.147
354.240, 60.101
354.722, 81.214
355.204, 95.730
355.686, 103.264
356.168, 107.689
356.651, 106.053
357.133, 102.976
357.615, 105.954
358.097, 116.149
358.579, 125.874
359.061, 124.822
359.543, 108.426
360.025, 102.783
360.508, 116.985
360.990, 131.555
361.472, 139.305
361.954, 139.806
362.436, 133.465
362.918, 119.398
363.400, 100.525
363.882, 88.892
364.364, 87.340
364.846, 87.507
365.329, 90.682
365.811, 94.046
366.293, 94.303
366.775, 90.187
367.257, 84.422
367.739, 80.917
368.221, 79.761
368.703, 75.614
369.186, 66.417
369.668, 57.650
370.150, 50.465
370.632, 45.050
371.114, 42.700
371.596, 49.401
372.078, 59.269
372.560, 58.120
373.043, 43.840
373.525, 34.015
374.007, 43.625
374.489, 64.000
374.971, 73.235
375.453, 63.687
375.935, 53.565
376.417, 54.117
376.899, 61.460
377.382, 67.076
377.864, 68.007
378.346, 67.936
378.828, 72.202
379.310, 82.012
379.792, 93.547
380.274, 109.186
380.756, 124.620
381.238, 138.945
381.721, 150.888
382.203, 156.283
382.685, 150.287
383.167, 135.212
383.649, 135.246
384.131, 168.563
384.613, 196.449
385.095, 211.792
385.578, 219.244
386.060, 223.531
386.542, 226.241
387.024, 228.540
387.506, 232.123
387.988, 237.128
388.470, 242.998
388.952, 257.069
389.435, 264.478
389.917, 253.571
390.399, 227.653
390.881, 200.981
391.363, 182.533
391.845, 168.721
392.327, 149.247
392.809, 121.974
393.291, 99.841
393.773, 91.695
394.256, 92.714
394.738, 93.535
395.220, 96.513
395.702, 93.676
396.184, 73.753
396.666, 46.163
397.148, 31.550
397.630, 36.488
398.113, 48.259
398.595, 50.810
399.077, 40.984
399.559, 33.520
400.041, 30.902
400.523, 28.507
401.005, 21.186
401.487, 11.541
401.970, 7.329
402.452, 14.151
402.934, 28.596
403.416, 36.085
403.898, 34.750
404.380, 28.625
404.862, 10.320
405.344, 7.142
405.826, 10.789
406.309, 1.120
406.791, 17.195
407.273, 26.515
407.755, 29.245
408.237, 30.819
408.719, 32.831
409.201, 31.375
409.683, 19.559
410.165, 2.983
410.648, 5.292
411.130, 4.968
411.612, 18.821
412.094, 18.995
412.576, 7.290
413.058, 2.474
413.540, 5.099
414.022, 2.989
414.504, 0.154
414.987, 4.691
415.469, 8.618
415.951, 9.330
416.433, 10.798
416.915, 18.673
417.397, 31.846
417.879, 42.788
418.362, 45.029
418.844, 38.972
419.326, 33.065
419.808, 29.532
420.290, 23.499
420.772, 8.408
421.254, 7.146
421.736, 12.421
422.218, 4.160
422.701, 10.623
423.183, 23.277
423.665, 33.965
424.147, 41.988
424.629, 48.247
425.111, 50.327
425.593, 44.904
426.075, 34.340
426.557, 25.159
427.040, 19.758
427.522, 17.750
428.004, 19.552
428.486, 25.084
428.968, 31.557
429.450, 40.288
429.932, 46.878
430.414, 41.109
430.897, 18.305
431.379, 2.194
431.861, 4.240
432.343, 12.781
432.825, 13.884
433.307, 7.117
433.789, 2.597
434.271, 9.827
434.753, 28.716
435.236, 40.487
435.718, 41.713
436.200, 40.995
436.682, 38.266
437.164, 36.219
437.646, 36.015
438.128, 37.285
438.610, 38.102
439.092, 31.414
439.575, 15.022
440.057, 13.008
440.539, 42.773
441.021, 67.862
441.503, 63.342
441.985, 39.123
442.467, 20.517
442.949, 18.331
443.431, 25.636
443.914, 37.503
444.396, 53.193
444.878, 64.221
445.360, 66.459
445.842, 63.880
446.324, 63.916
446.806, 68.386
447.289, 67.505
447.771, 53.123
448.253, 37.368
448.735, 30.926
449.217, 33.522
449.699, 39.278
450.181, 44.617
450.663, 48.913
451.145, 47.993
451.628, 33.085
452.110, 25.506
452.592, 36.406
453.074, 49.933
453.556, 49.523
454.038, 33.553
454.520, 16.961
455.002, 17.821
455.484, 33.482
455.967, 37.047
456.449, 22.629
456.931, 7.587
457.413, 0.693
457.895, 0.013
458.377, 3.779
458.859, 14.270
459.341, 24.428
459.823, 28.961
460.306, 29.520
460.788, 30.563
461.270, 33.473
461.752, 35.007
462.234, 30.673
462.716, 18.781
463.198, 10.817
463.680, 7.263
464.163, 8.170
464.645, 16.313
465.127, 27.265
465.609, 32.570
466.091, 28.203
466.573, 19.776
467.055, 19.185
467.537, 30.260
468.020, 35.578
468.502, 25.919
468.984, 16.905
469.466, 18.172
469.948, 26.788
470.430, 31.913
470.912, 24.233
471.394, 12.452
471.876, 12.562
472.358, 24.121
472.841, 29.150
473.323, 16.847
473.805, 1.352
474.287, 2.661
474.769, 17.123
475.251, 31.878
475.733, 35.852
476.216, 33.797
476.698, 27.026
477.180, 17.445
477.662, 9.963
478.144, 7.874
478.626, 10.469
479.108, 14.194
479.590, 20.479
480.072, 26.869
480.555, 35.918
481.037, 42.313
481.519, 39.834
482.001, 29.319
482.483, 19.858
482.965, 20.544
483.447, 28.019
483.929, 30.984
484.411, 28.874
484.894, 24.280
485.376, 17.023
485.858, 9.132
486.340, 5.043
486.822, 6.717
487.304, 7.300
487.786, 2.388
488.268, 4.180
488.750, 7.975
489.233, 8.283
489.715, 4.933
490.197, 3.396
490.679, 14.416
491.161, 17.942
491.643, 1.262
492.125, 7.227
492.607, 6.488
493.090, 23.952
493.572, 23.850
494.054, 3.318
494.536, 17.261
495.018, 15.789
495.500, 4.292
495.982, 20.676
496.464, 33.062
496.947, 38.866
497.429, 32.347
497.911, 19.068
498.393, 8.954
498.875, 2.075
499.357, 0.084
499.839, 7.527
500.321, 18.720
500.803, 23.107
501.285, 19.172
501.768, 13.664
502.250, 12.473
502.732, 15.572
503.214, 21.181
503.696, 34.736
504.178, 44.276
504.660, 47.061
505.142, 45.223
505.625, 39.532
506.107, 30.738
506.589, 22.924
507.071, 20.308
507.553, 22.500
508.035, 27.243
508.517, 35.877
508.999, 43.221
509.482, 43.761
509.964, 41.682
510.446, 45.746
510.928, 60.313
511.410, 73.557
511.892, 78.889
512.374, 80.010
512.856, 81.052
513.338, 83.160
513.821, 88.523
514.303, 99.506
514.785, 115.873
515.267, 131.050
515.749, 147.207
516.231, 159.620
516.713, 166.501
517.195, 169.762
517.677, 170.268
518.160, 168.564
518.642, 166.747
519.124, 169.222
519.606, 173.521
520.088, 168.133
520.570, 150.838
521.052, 132.067
521.534, 117.331
522.016, 104.864
522.499, 89.864
522.981, 69.096
523.463, 53.291
523.945, 50.041
524.427, 51.093
524.909, 45.751
525.391, 34.209
525.873, 26.415
526.356, 30.858
526.838, 44.373
527.320, 48.829
527.802, 37.038
528.284, 28.380
528.766, 27.011
529.248, 28.505
529.730, 30.768
530.213, 33.042
530.695, 33.432
531.177, 29.514
531.659, 23.128
532.141, 17.622
532.623, 13.344
533.105, 11.314
533.587, 12.348
534.070, 15.666
534.552, 20.719
535.034, 30.242
535.516, 33.254
535.998, 22.147
536.480, 9.611
536.962, 3.268
537.444, 3.246
537.926, 8.140
538.409, 17.640
538.891, 28.897
539.373, 36.388
539.855, 40.898
540.337, 37.711
540.819, 16.433
541.301, 2.701
541.783, 4.182
542.265, 7.782
542.748, 17.876
543.230, 19.861
543.712, 18.626
544.194, 17.369
544.676, 16.406
545.158, 17.944
545.640, 23.085
546.122, 25.770
546.604, 17.186
547.087, 6.190
547.569, 16.386
548.051, 0.956
548.533, 12.195
549.015, 10.063
549.497, 2.341
549.979, 3.345
550.461, 18.517
550.943, 35.314
551.426, 40.892
551.908, 36.279
552.390, 24.296
552.872, 2.287
553.354, 10.203
553.836, 3.745
554.318, 33.429
554.800, 47.225
555.283, 37.850
555.765, 25.873
556.247, 11.284
556.729, 1.082
557.211, 7.147
557.693, 27.330
558.175, 45.088
558.657, 47.677
559.140, 38.549
559.622, 32.178
560.104, 28.112
560.586, 27.883
561.068, 37.068
561.550, 46.230
562.032, 48.079
562.514, 43.361
562.997, 39.215
563.479, 41.693
563.961, 44.400
564.443, 35.592
564.925, 19.333
565.407, 16.170
565.889, 35.469
566.371, 59.966
566.853, 62.899
567.336, 34.969
567.818, 24.118
568.300, 44.753
568.782, 64.316
569.264, 69.236
569.746, 66.217
570.228, 65.650
570.710, 71.006
571.192, 78.964
571.675, 86.698
572.157, 94.060
572.639, 100.733
573.121, 106.761
573.603, 108.585
574.085, 97.991
574.567, 83.015
575.049, 90.194
575.531, 134.324
576.014, 172.243
576.496, 187.891
576.978, 197.482
577.460, 215.249
577.942, 241.410
578.424, 271.303
578.906, 303.482
579.388, 335.645
579.870, 358.274
580.353, 366.336
580.835, 387.083
581.317, 431.661
581.799, 484.660
582.281, 535.316
582.763, 583.560
583.245, 630.003
583.727, 668.782
584.210, 711.874
584.692, 769.634
585.174, 837.660
585.656, 910.354
586.138, 985.301
586.620, 1056.009
587.102, 1114.843
587.584, 1161.458
588.067, 1205.262
588.549, 1257.443
589.031, 1290.347
589.513, 1295.966
589.995, 1280.807
590.477, 1251.120
590.959, 1208.411
591.441, 1150.712
591.924, 1071.412
592.406, 979.134
592.888, 881.810
593.370, 781.980
593.852, 694.003
594.334, 625.581
594.816, 567.734
595.298, 501.544
595.780, 416.193
596.263, 352.531
596.745, 323.088
597.227, 299.213
597.709, 268.158
598.191, 234.510
598.673, 207.352
599.155, 190.102
599.637, 177.083
600.119, 162.274
600.602, 146.489
601.084, 133.006
601.566, 121.834
602.048, 116.416
602.530, 122.718
603.012, 135.072
603.494, 132.502
603.976, 97.929
604.458, 76.521
604.941, 84.427
605.423, 97.039
605.905, 97.221
606.387, 86.416
606.869, 76.264
607.351, 73.543
607.833, 74.320
608.315, 71.024
608.797, 63.688
609.280, 59.639
609.762, 62.315
610.244, 63.429
610.726, 52.193
611.208, 31.863
611.690, 24.907
612.172, 45.802
612.654, 62.054
613.137, 60.751
613.619, 51.848
614.101, 46.275
614.583, 44.840
615.065, 40.402
615.547, 25.592
616.029, 6.178
616.511, 2.550
616.994, 18.079
617.476, 30.443
617.958, 34.289
618.440, 33.352
618.922, 29.488
619.404, 23.343
619.886, 19.522
620.368, 22.844
620.851, 24.272
621.333, 14.436
621.815, 1.703
622.297, 1.130
622.779, 14.540
623.261, 27.884
623.743, 26.312
624.225, 12.910
624.707, 9.147
625.190, 19.255
625.672, 26.416
626.154, 23.537
626.636, 16.881
627.118, 12.745
627.600, 11.075
628.082, 9.339
628.564, 6.697
629.046, 3.956
629.529, 0.809
630.011, 4.694
630.493, 0.786
630.975, 12.412
631.457, 28.154
631.939, 38.156
632.421, 42.911
632.903, 41.217
633.385, 30.760
633.868, 18.998
634.350, 3.256
634.832, 9.060
635.314, 7.957
635.796, 7.157
636.278, 19.845
636.760, 24.324
637.242, 24.711
637.724, 23.251
638.207, 20.496
638.689, 16.886
639.171, 13.015
639.653, 9.449
640.135, 5.893
640.617, 2.816
641.099, 6.760
641.581, 23.346
642.064, 35.033
642.546, 30.464
643.028, 20.758
643.510, 18.934
643.992, 26.231
644.474, 29.140
644.956, 19.896
645.438, 8.033
645.920, 2.205
646.403, 9.859
646.885, 11.773
647.367, 6.899
647.849, 0.432
648.331, 4.850
648.813, 6.344
649.295, 7.111
649.778, 6.301
650.260, 6.670
650.742, 9.771
651.224, 14.296
651.706, 18.861
652.188, 23.435
652.670, 28.004
653.152, 33.887
653.634, 38.575
654.117, 40.007
654.599, 38.871
655.081, 36.689
655.563, 33.977
656.045, 30.180
656.527, 23.882
657.009, 15.394
657.491, 9.878
657.973, 7.206
658.456, 8.376
658.938, 18.992
659.420, 29.624
659.902, 26.009
660.384, 6.753
660.866, 6.662
661.348, 6.249
661.830, 2.430
662.312, 1.791
662.795, 2.017
663.277, 2.900
663.759, 13.959
664.241, 23.610
664.723, 22.332
665.205, 12.497
665.687, 8.965
666.169, 13.134
666.652, 16.401
667.134, 15.761
667.616, 12.933
668.098, 9.377
668.580, 4.907
669.062, 2.825
669.544, 3.400
670.026, 6.421
670.508, 15.058
670.991, 24.519
671.473, 28.227
671.955, 25.270
672.437, 20.083
672.919, 15.381
673.401, 11.861
673.883, 12.102
674.365, 16.169
674.847, 20.061
675.330, 23.235
675.812, 24.188
676.294, 20.222
676.776, 10.924
677.258, 5.750
677.740, 7.344
678.222, 9.281
678.705, 9.368
679.187, 9.604
679.669, 12.434
680.151, 17.633
680.633, 22.762
681.115, 27.914
681.597, 30.286
682.079, 22.471
682.561, 7.334
683.044, 0.990
683.526, 1.205
684.008, 6.757
684.490, 9.326
684.972, 9.334
685.454, 10.591
685.936, 14.049
686.418, 17.297
686.901, 23.502
687.383, 26.477
687.865, 17.351
688.347, 1.393
688.829, 5.870
689.311, 4.946
689.793, 19.730
690.275, 28.917
690.757, 33.296
691.240, 33.792
691.722, 30.781
692.204, 25.001
692.686, 15.917
693.168, 5.916
693.650, 0.632
694.132, 0.196
694.614, 2.123
695.096, 10.224
695.579, 15.522
696.061, 8.051
696.543, 4.462
697.025, 6.225
697.507, 9.008
697.989, 23.122
698.471, 27.459
698.953, 28.914
699.435, 35.866
699.918, 45.694
700.400, 49.689
700.882, 43.838
701.364, 32.128
701.846, 17.617
702.328, 0.965
702.810, 8.017
703.292, 8.607
703.774, 2.339
704.257, 14.591
704.739, 33.778
705.221, 38.909
705.703, 25.390
706.185, 17.615
706.667, 16.782
707.149, 21.463
707.631, 38.353
708.114, 56.860
708.596, 61.793
709.078, 50.884
709.560, 37.921
710.042, 32.024
710.524, 30.114
711.006, 29.090
711.488, 28.406
711.971, 23.305
712.453, 11.714
712.935, 1.856
713.417, 3.480
713.899, 16.047
714.381, 23.838
714.863, 21.932
715.345, 23.503
715.828, 37.613
716.310, 50.027
716.792, 46.284
717.274, 31.008
717.756, 24.351
718.238, 37.472
718.720, 53.412
719.202, 62.012
719.684, 68.249
720.167, 80.099
720.649, 97.006
721.131, 111.666
721.613, 118.706
722.095, 120.472
722.577, 119.014
723.059, 113.636
723.541, 119.945
724.023, 141.632
724.506, 169.097
724.988, 196.903
725.470, 226.353
725.952, 262.481
726.434, 313.399
726.916, 348.799
727.398, 348.948
727.880, 349.219
728.362, 369.447
728.845, 401.984
729.327, 437.576
729.809, 472.649
730.291, 494.553
730.773, 491.006
731.255, 468.760
731.737, 428.773
732.219, 376.106
732.701, 334.464
733.184, 312.381
733.666, 294.058
734.148, 259.455
734.630, 209.344
735.112, 171.762
735.594, 152.301
736.076, 134.774
736.558, 110.086
737.041, 91.130
737.523, 93.156
738.005, 111.077
738.487, 118.543
738.969, 98.715
739.451, 81.988
739.933, 85.328
740.415, 96.403
740.898, 101.257
741.380, 100.349
741.862, 101.919
742.344, 111.036
742.826, 121.858
743.308, 125.652
743.790, 122.918
744.272, 114.502
744.755, 99.334
745.237, 91.952
745.719, 103.293
746.201, 122.455
746.683, 125.691
747.165, 106.361
747.647, 97.014
748.129, 109.353
748.611, 117.418
749.094, 111.348
749.576, 98.117
750.058, 82.414
750.540, 65.836
751.022, 58.625
751.504, 75.742
751.986, 94.917
752.468, 95.903
752.950, 86.077
753.433, 80.333
753.915, 81.229
754.397, 79.987
754.879, 68.993
755.361, 53.556
755.843, 47.612
756.325, 51.679
756.807, 54.088
757.289, 53.207
757.772, 49.278
758.254, 40.419
758.736, 29.294
759.218, 25.453
759.700, 34.836
760.182, 41.514
760.664, 47.993
761.146, 48.551
761.628, 33.116
762.111, 12.865
762.593, 6.735
763.075, 20.027
763.557, 33.457
764.039, 34.086
764.521, 29.519
765.003, 29.687
765.485, 31.738
765.968, 24.736
766.450, 6.419
766.932, 9.640
767.414, 8.141
767.896, 6.157
768.378, 10.872
768.860, 4.327
769.342, 2.402
769.825, 10.201
770.307, 19.417
770.789, 22.475
771.271, 20.800
771.753, 22.638
772.235, 34.561
772.717, 40.225
773.199, 33.847
773.682, 26.009
774.164, 21.158
774.646, 19.739
775.128, 23.305
775.610, 33.275
776.092, 39.184
776.574, 31.301
777.056, 18.095
777.538, 7.200
778.021, 0.409
778.503, 2.988
778.985, 0.284
779.467, 4.263
779.949, 7.163
780.431, 8.805
780.913, 10.562
781.395, 12.312
781.877, 16.743
782.360, 26.826
782.842, 32.731
783.324, 22.672
783.806, 0.975
784.288, 6.315
784.770, 15.570
785.252, 29.705
785.734, 26.324
786.216, 24.140
786.699, 42.538
787.181, 66.088
787.663, 61.459
788.145, 15.667
788.627, 18.124
789.109, 2.354
789.591, 27.961
790.073, 46.395
790.555, 52.529
791.038, 46.541
791.520, 30.163
792.002, 14.228
792.484, 9.138
792.966, 11.479
793.448, 12.544
793.930, 12.448
794.412, 12.715
794.895, 13.578
795.377, 15.517
795.859, 19.041
796.341, 23.815
796.823, 28.792
797.305, 35.294
797.787, 38.873
798.269, 37.978
798.752, 35.808
799.234, 33.543
799.716, 31.324
800.198, 29.065
800.680, 27.370
801.162, 24.811
801.644, 19.481
802.126, 14.852
802.609, 14.708
803.091, 15.520
803.573, 11.076
804.055, 1.641
804.537, 5.476
805.019, 5.302
805.501, 0.581
805.983, 8.670
806.465, 19.038
806.948, 17.434
807.430, 3.748
807.912, 3.196
808.394, 9.273
808.876, 31.549
809.358, 43.944
809.840, 45.277
810.322, 45.582
810.804, 44.409
811.287, 43.334
811.769, 43.458
812.251, 43.969
812.733, 43.480
813.215, 41.743
813.697, 41.900
814.179, 43.235
814.661, 47.337
815.143, 55.735
815.626, 66.006
816.108, 80.289
816.590, 94.761
817.072, 97.684
817.554, 79.787
818.036, 64.269
818.518, 66.260
819.000, 76.669
819.482, 88.088
819.965, 99.119
820.447, 109.203
820.929, 118.094
821.411, 124.692
821.893, 127.818
822.375, 127.856
822.857, 124.028
823.339, 117.237
823.822, 116.961
824.304, 126.229
824.786, 132.388
825.268, 124.396
825.750, 107.132
826.232, 100.232
826.714, 109.267
827.196, 107.054
827.679, 82.768
828.161, 62.544
828.643, 65.374
829.125, 78.849
829.607, 77.158
830.089, 55.177
830.571, 42.837
831.053, 40.958
831.535, 50.475
832.018, 91.102
832.500, 129.943
832.982, 126.624
833.464, 85.940
833.946, 52.012
834.428, 46.403
834.910, 48.352
835.392, 46.741
835.875, 42.154
836.357, 31.276
836.839, 18.153
837.321, 15.844
837.803, 30.165
838.285, 46.327
838.767, 44.273
839.249, 30.582
839.731, 26.022
840.214, 29.685
840.696, 29.790
841.178, 22.702
841.660, 14.305
842.142, 9.621
842.624, 9.039
843.106, 11.567
843.588, 18.458
844.070, 22.748
844.553, 22.684
845.035, 22.025
845.517, 23.485
845.999, 25.462
846.481, 23.125
846.963, 16.770
847.445, 13.161
847.927, 11.542
848.409, 13.403
848.892, 22.742
849.374, 33.237
849.856, 40.482
850.338, 43.382
850.820, 39.093
851.302, 20.111
851.784, 4.235
852.266, 1.753
852.748, 5.382
853.231, 8.452
853.713, 11.334
854.195, 19.031
854.677, 33.114
855.159, 42.013
855.641, 29.860
856.123, 8.916
856.606, 2.936
857.088, 5.631
857.570, 3.217
858.052, 22.705
858.534, 38.833
859.016, 39.798
859.498, 31.987
859.980, 32.356
860.462, 40.593
860.945, 41.813
861.427, 33.723
861.909, 25.274
862.391, 20.196
862.873, 18.139
863.355, 19.154
863.837, 23.584
864.319, 22.482
864.802, 13.171
865.284, 3.619
865.766, 6.759
866.248, 14.553
866.730, 17.019
867.212, 15.002
867.694, 11.098
868.176, 4.164
868.658, 2.267
869.141, 9.543
869.623, 14.295
870.105, 12.941
870.587, 8.918
871.069, 6.685
871.551, 7.090
872.033, 10.471
872.515, 19.458
872.997, 28.657
873.480, 35.593
873.962, 40.207
874.444, 43.497
874.926, 44.489
875.408, 38.088
875.890, 20.880
876.372, 7.392
876.854, 18.467
877.336, 39.812
877.819, 45.184
878.301, 37.982
878.783, 34.488
879.265, 39.001
879.747, 43.177
880.229, 38.964
880.711, 30.564
881.193, 30.469
881.675, 37.679
882.158, 37.492
882.640, 27.790
883.122, 16.990
883.604, 8.536
884.086, 5.080
884.568, 12.539
885.050, 31.573
885.532, 42.580
886.015, 44.012
886.497, 41.646
886.979, 35.033
887.461, 27.675
887.943, 20.004
888.425, 14.115
888.907, 19.608
889.389, 53.057
889.872, 66.675
890.354, 41.735
890.836, 20.077
891.318, 16.761
891.800, 24.865
892.282, 38.968
892.764, 58.051
893.246, 73.094
893.729, 82.430
894.211, 87.077
894.693, 81.724
895.175, 76.723
895.657, 83.487
896.139, 96.693
896.621, 103.530
897.103, 100.101
897.585, 93.165
898.068, 81.068
898.550, 72.415
899.032, 78.498
899.514, 91.223
899.996, 98.809
900.478, 99.259
900.960, 95.695
901.442, 89.641
901.924, 81.457
902.407, 66.303
902.889, 51.914
903.371, 59.211
903.853, 81.573
904.335, 92.606
904.817, 84.099
905.299, 64.505
905.781, 38.099
906.263, 11.435
906.746, 3.810
907.228, 12.707
907.710, 20.155
908.192, 23.595
908.674, 28.117
909.156, 36.597
909.638, 43.190
910.120, 35.692
910.602, 15.535
911.085, 4.027
911.567, 2.130
912.049, 6.174
912.531, 16.704
913.013, 28.344
913.495, 36.000
913.977, 40.925
914.459, 49.064
914.942, 65.516
915.424, 70.040
915.906, 54.275
916.388, 41.138
916.870, 41.019
917.352, 45.535
917.834, 45.763
918.316, 41.803
918.799, 36.457
919.281, 25.603
919.763, 19.506
920.245, 18.555
920.727, 22.759
921.209, 39.839
921.691, 58.670
922.173, 58.128
922.656, 34.315
923.138, 22.160
923.620, 44.225
924.102, 57.350
924.584, 36.673
925.066, 10.225
925.548, 3.310
926.030, 10.924
926.512, 13.207
926.995, 2.507
927.477, 1.816
927.959, 13.382
928.441, 33.289
928.923, 54.529
929.405, 70.316
929.887, 67.246
930.369, 49.216
930.851, 38.946
931.334, 49.399
931.816, 63.702
932.298, 69.400
932.780, 71.126
933.262, 73.355
933.744, 76.334
934.226, 80.818
934.708, 86.264
935.190, 87.963
935.673, 81.297
936.155, 71.208
936.637, 62.998
937.119, 56.549
937.601, 51.871
938.083, 48.815
938.565, 47.695
939.047, 48.462
939.529, 47.661
940.012, 39.437
940.494, 28.730
940.976, 26.251
941.458, 31.257
941.940, 42.968
942.422, 60.221
942.904, 74.966
943.386, 82.793
943.869, 85.543
944.351, 88.363
944.833, 89.008
945.315, 69.523
945.797, 31.331
946.279, 4.266
946.761, 4.887
947.243, 1.586
947.726, 13.049
948.208, 32.439
948.690, 41.125
949.172, 39.028
949.654, 30.549
950.136, 14.066
950.618, 8.455
951.100, 22.423
951.583, 38.162
952.065, 39.737
952.547, 30.117
953.029, 18.650
953.511, 2.737
953.993, 1.750
954.475, 22.504
954.957, 37.418
955.439, 33.167
955.922, 23.163
956.404, 24.279
956.886, 34.698
957.368, 34.316
957.850, 14.691
958.332, 7.068
958.814, 23.288
959.296, 34.029
959.778, 20.828
960.261, 1.419
960.743, 11.757
961.225, 9.998
961.707, 0.498
962.189, 27.972
962.671, 42.419
963.153, 27.450
963.635, 12.725
964.117, 20.275
964.600, 36.031
965.082, 33.990
965.564, 8.433
966.046, 1.817
966.528, 23.348
967.010, 36.203
967.492, 12.070
967.974, 11.711
968.456, 2.098
968.939, 25.317
969.421, 33.233
969.903, 12.327
970.385, 0.746
970.867, 0.573
971.349, 3.953
971.831, 15.523
972.313, 5.692
972.796, 11.154
973.278, 14.298
973.760, 15.248
974.242, 7.436
974.724, 10.937
975.206, 9.902
975.688, 8.681
976.170, 13.772
976.653, 7.429
977.135, 12.905
977.617, 13.290
978.099, 15.781
978.581, 13.709
979.063, 13.045
979.545, 20.761
980.027, 15.650
980.510, 13.509
980.992, 13.171
981.474, 13.554
981.956, 14.210
982.438, 13.372
982.920, 6.560
983.402, 7.461
983.884, 32.327
984.366, 52.815
984.849, 47.735
985.331, 31.509
985.813, 20.486
986.295, 18.112
986.777, 22.203
987.259, 24.482
987.741, 25.047
988.223, 18.764
988.705, 21.322
989.188, 20.336
989.670, 19.204
990.152, 23.004
990.634, 17.714
991.116, 21.434
991.598, 21.557
992.080, 23.326
992.562, 21.529
993.044, 20.832
993.527, 23.702
994.009, 24.596
994.491, 22.386
994.973, 24.256
995.455, 18.836
995.937, 19.812
996.419, 23.547
996.901, 21.514
997.383, 23.447
997.866, 23.868
998.348, 17.425
998.830, 30.947
999.312, 21.197
999.794, 13.876
1000.276, 15.525
1000.758, 19.097
1001.240, 23.896
1001.723, 26.716
1002.205, 24.761
1002.687, 19.039
1003.169, 8.787
1003.651, 4.819
1004.133, 10.808
1004.615, 1.698
1005.097, 11.602
1005.580, 29.910
1006.062, 44.121
1006.544, 46.127
1007.026, 39.095
1007.508, 25.121
1007.990, 6.276
1008.472, 2.512
1008.954, 13.199
1009.436, 28.673
1009.919, 33.768
1010.401, 32.831
1010.883, 24.369
1011.365, 14.608
1011.847, 15.532
1012.329, 27.776
1012.811, 34.025
1013.293, 23.279
1013.776, 10.942
1014.258, 0.148
1014.740, 6.659
1015.222, 3.314
1015.704, 5.132
1016.186, 10.567
1016.668, 12.113
1017.150, 16.036
1017.632, 29.470
1018.115, 38.486
1018.597, 34.045
1019.079, 26.993
1019.561, 26.744
1020.043, 27.917
1020.525, 18.506
1021.007, 1.007
1021.489, 8.644
1021.971, 14.506
1022.454, 32.268
1022.936, 32.368
1023.418, 24.235
1023.900, 5.747
1024.382, 12.376
1024.864, 13.266
1025.346, 2.549
1025.828, 10.001
1026.311, 5.228
1026.793, 12.601
1027.275, 5.857
1027.757, 22.011
1028.239, 14.477
1028.721, 1.515
1029.203, 5.696
1029.685, 2.153
1030.167, 8.252
1030.650, 8.323
1031.132, 9.742
1031.614, 16.352
1032.096, 21.519
1032.578, 23.075
1033.060, 20.755
1033.542, 10.641
1034.024, 5.071
1034.507, 10.116
1034.989, 4.769
1035.471, 16.301
1035.953, 20.718
1036.435, 23.967
1036.917, 27.143
1037.399, 31.099
1037.881, 38.118
1038.364, 47.093
1038.846, 51.711
1039.328, 53.252
1039.810, 47.436
1040.292, 20.051
1040.774, 6.213
1041.256, 30.167
1041.738, 57.203
1042.220, 53.735
1042.703, 28.689
1043.185, 15.442
1043.667, 18.108
1044.149, 19.795
1044.631, 19.351
1045.113, 20.442
1045.595, 25.613
1046.077, 30.083
1046.559, 30.369
1047.042, 26.825
1047.524, 19.114
1048.006, 4.675
1048.488, 3.215
1048.970, 21.120
1049.452, 31.227
1049.934, 24.827
1050.416, 16.716
1050.899, 16.666
1051.381, 21.850
1051.863, 26.977
1052.345, 32.074
1052.827, 35.360
1053.309, 36.255
1053.791, 40.257
1054.273, 49.293
1054.755, 55.101
1055.238, 52.087
1055.720, 46.868
1056.202, 50.683
1056.684, 61.452
1057.166, 63.083
1057.648, 55.810
1058.130, 51.041
1058.612, 50.303
1059.094, 56.684
1059.577, 72.202
1060.059, 86.292
1060.541, 84.852
1061.023, 74.707
1061.505, 76.548
1061.987, 88.146
1062.469, 97.657
1062.951, 104.489
1063.434, 117.525
1063.916, 139.500
1064.398, 159.462
1064.880, 166.925
1065.362, 168.682
1065.844, 177.503
1066.326, 189.325
1066.808, 196.542
1067.291, 198.368
1067.773, 193.957
1068.255, 184.141
1068.737, 174.728
1069.219, 169.324
1069.701, 166.482
1070.183, 168.416
1070.665, 169.004
1071.147, 157.208
1071.630, 138.496
1072.112, 120.921
1072.594, 107.687
1073.076, 105.507
1073.558, 118.469
1074.040, 134.000
1074.522, 142.012
1075.004, 149.964
1075.486, 167.658
1075.969, 186.400
1076.451, 191.073
1076.933, 187.347
1077.415, 195.725
1077.897, 222.985
1078.379, 245.560
1078.861, 244.357
1079.343, 247.461
1079.825, 268.346
1080.308, 300.219
1080.790, 341.256
1081.272, 387.951
1081.754, 436.247
1082.236, 484.848
1082.718, 529.076
1083.200, 552.390
1083.682, 595.533
1084.165, 679.359
1084.647, 768.224
1085.129, 845.777
1085.611, 919.233
1086.093, 1000.319
1086.575, 1087.887
1087.057, 1169.885
1087.539, 1241.431
1088.021, 1319.852
1088.504, 1417.046
1088.986, 1498.134
1089.468, 1549.323
1089.950, 1586.432
1090.432, 1627.208
1090.914, 1660.766
1091.396, 1651.112
1091.878, 1591.305
1092.360, 1544.960
1092.843, 1516.190
1093.325, 1482.875
1093.807, 1442.006
1094.289, 1382.570
1094.771, 1294.511
1095.253, 1199.678
1095.735, 1135.613
1096.217, 1095.628
1096.700, 1039.714
1097.182, 970.856
1097.664, 916.991
1098.146, 880.351
1098.628, 844.778
1099.110, 803.423
1099.592, 760.567
1100.074, 719.906
1100.557, 681.423
1101.039, 647.039
1101.521, 614.352
1102.003, 574.919
1102.485, 532.689
1102.967, 502.435
1103.449, 485.691
1103.931, 467.855
1104.413, 439.776
1104.896, 408.987
1105.378, 382.290
1105.860, 357.417
1106.342, 332.579
1106.824, 309.619
1107.306, 287.739
1107.788, 268.957
1108.270, 259.546
1108.752, 278.083
1109.235, 287.844
1109.717, 287.630
1110.199, 277.956
1110.681, 230.467
1111.163, 231.810
1111.645, 213.586
1112.127, 194.569
1112.609, 202.785
1113.092, 160.775
1113.574, 168.775
1114.056, 134.611
1114.538, 120.053
1115.020, 128.094
1115.502, 129.780
1115.984, 107.931
1116.466, 82.658
1116.948, 77.674
1117.431, 86.561
1117.913, 80.353
1118.395, 52.144
1118.877, 43.255
1119.359, 58.365
1119.841, 72.075
1120.323, 79.917
1120.805, 74.283
1121.287, 47.615
1121.770, 14.620
1122.252, 1.983
1122.734, 3.178
1123.216, 12.799
1123.698, 41.342
1124.180, 47.992
1124.662, 31.936
1125.144, 21.251
1125.627, 26.632
1126.109, 35.825
1126.591, 38.650
1127.073, 37.785
1127.555, 36.398
1128.037, 34.237
1128.519, 30.717
1129.001, 26.545
1129.484, 22.113
1129.966, 16.615
1130.448, 11.890
1130.930, 8.475
1131.412, 5.770
1131.894, 1.304
1132.376, 2.205
1132.858, 18.912
1133.340, 41.797
1133.823, 43.955
1134.305, 32.606
1134.787, 27.193
1135.269, 30.885
1135.751, 29.194
1136.233, 11.552
1136.715, 1.233
1137.197, 6.355
1137.679, 13.049
1138.162, 16.674
1138.644, 18.312
1139.126, 18.637
1139.608, 18.083
1140.090, 18.436
1140.572, 19.699
1141.054, 22.688
1141.536, 28.481
1142.019, 27.799
1142.501, 17.191
1142.983, 11.826
1143.465, 22.394
1143.947, 34.941
1144.429, 25.411
1144.911, 3.936
1145.393, 8.805
1145.875, 28.564
1146.358, 29.695
1146.840, 13.222
1147.322, 0.364
1147.804, 1.955
1148.286, 1.334
1148.768, 6.687
1149.250, 12.246
1149.732, 17.295
1150.214, 21.505
1150.697, 26.567
1151.179, 29.243
1151.661, 22.549
1152.143, 9.255
1152.625, 0.348
1153.107, 3.420
1153.589, 4.215
1154.071, 2.934
1154.554, 1.281
1155.036, 0.273
1155.518, 1.945
1156.000, 3.932
1156.482, 6.081
1156.964, 7.624
1157.446, 8.952
1157.928, 13.349
1158.411, 22.646
1158.893, 29.364
1159.375, 33.030
1159.857, 35.284
1160.339, 36.323
1160.821, 38.325
1161.303, 44.420
1161.785, 45.027
1162.267, 16.824
1162.750, 27.454
1163.232, 23.769
1163.714, 15.018
1164.196, 25.047
1164.678, 5.937
1165.160, 5.176
1165.642, 3.334
1166.124, 17.100
1166.606, 27.972
1167.089, 33.270
1167.571, 27.275
1168.053, 17.231
1168.535, 8.531
1169.017, 2.475
1169.499, 1.715
1169.981, 4.390
1170.463, 3.865
1170.946, 2.139
1171.428, 2.111
1171.910, 17.797
1172.392, 28.394
1172.874, 11.984
1173.356, 3.088
1173.838, 0.517
1174.320, 8.587
1174.802, 10.833
1175.285, 9.774
1175.767, 23.904
1176.249, 60.269
1176.731, 68.874
1177.213, 45.680
1177.695, 23.968
1178.177, 10.212
1178.659, 8.542
1179.141, 22.230
1179.624, 35.736
1180.106, 27.123
1180.588, 8.623
1181.070, 6.842
1181.552, 16.393
1182.034, 26.373
1182.516, 35.304
1182.998, 41.958
1183.481, 45.892
1183.963, 46.597
1184.445, 43.936
1184.927, 37.493
1185.409, 23.777
1185.891, 10.248
1186.373, 3.695
1186.855, 10.562
1187.338, 3.013
1187.820, 24.813
1188.302, 31.880
1188.784, 23.060
1189.266, 19.734
1189.748, 23.905
1190.230, 30.295
1190.712, 41.747
1191.194, 47.151
1191.677, 41.199
1192.159, 36.017
1192.641, 40.668
1193.123, 49.428
1193.605, 53.241
1194.087, 52.427
1194.569, 46.540
1195.051, 37.361
1195.533, 33.977
1196.016, 35.525
1196.498, 32.739
1196.980, 24.013
1197.462, 17.992
1197.944, 19.501
1198.426, 27.784
1198.908, 54.037
1199.390, 73.659
1199.873, 55.291
1200.355, 28.146
1200.837, 30.944
1201.319, 48.716
1201.801, 38.680
1202.283, 4.231
1202.765, 22.677
1203.247, 10.900
1203.729, 34.287
1204.212, 47.704
1204.694, 45.581
1205.176, 18.079
1205.658, 5.810
1206.140, 3.182
1206.622, 14.399
1207.104, 28.081
1207.586, 37.303
1208.068, 37.657
1208.551, 30.460
1209.033, 20.370
1209.515, 9.876
1209.997, 9.887
1210.479, 21.696
1210.961, 29.690
1211.443, 23.456
1211.925, 15.278
1212.408, 13.120
1212.890, 16.377
1213.372, 30.500
1213.854, 44.611
1214.336, 44.202
1214.818, 35.729
1215.300, 35.738
1215.782, 45.567
1216.265, 48.797
1216.747, 38.930
1217.229, 30.416
1217.711, 21.333
1218.193, 16.918
1218.675, 22.921
1219.157, 32.665
1219.639, 39.987
1220.121, 42.079
1220.604, 29.949
1221.086, 10.449
1221.568, 11.868
1222.050, 27.520
1222.532, 30.879
1223.014, 24.707
1223.496, 22.964
1223.978, 28.554
1224.460, 32.777
1224.943, 30.908
1225.425, 30.142
1225.907, 41.339
1226.389, 47.518
1226.871, 29.182
1227.353, 11.090
1227.835, 18.184
1228.317, 35.597
1228.800, 38.859
1229.282, 30.086
1229.764, 28.340
1230.246, 35.857
1230.728, 35.926
1231.210, 24.186
1231.692, 17.059
1232.174, 17.946
1232.656, 19.314
1233.139, 17.351
1233.621, 17.224
1234.103, 25.329
1234.585, 35.758
1235.067, 38.932
1235.549, 36.148
1236.031, 25.955
1236.513, 13.660
1236.995, 11.012
1237.478, 15.617
1237.960, 12.809
1238.442, 2.379
1238.924, 6.778
1239.406, 11.255
1239.888, 25.536
1240.370, 34.246
1240.852, 38.175
1241.335, 37.501
1241.817, 33.575
1242.299, 26.186
1242.781, 18.085
1243.263, 14.935
1243.745, 16.304
1244.227, 18.167
1244.709, 20.641
1245.192, 20.897
1245.674, 27.342
1246.156, 31.186
1246.638, 32.544
1247.120, 23.916
1247.602, 28.166
1248.084, 27.260
1248.566, 26.146
1249.048, 32.228
1249.531, 25.049
1250.013, 31.008
1250.495, 31.701
1250.977, 34.804
1251.459, 32.702
1251.941, 32.219
1252.423, 36.951
1252.905, 38.800
1253.387, 36.119
1253.870, 39.385
1254.352, 32.014
1254.834, 33.968
1255.316, 39.912
1255.798, 37.477
1256.280, 39.289
1256.762, 40.495
1257.244, 35.923
1257.727, 40.415
1258.209, 45.870
1258.691, 46.009
1259.173, 43.726
1259.655, 44.811
1260.137, 47.499
1260.619, 45.369
1261.101, 37.819
1261.583, 32.677
1262.066, 33.213
1262.548, 33.729
1263.030, 34.601
1263.512, 33.277
1263.994, 26.947
1264.476, 23.142
1264.958, 26.201
1265.440, 34.611
1265.922, 48.603
1266.405, 62.119
1266.887, 53.889
1267.369, 30.930
1267.851, 15.773
1268.333, 8.199
1268.815, 5.431
1269.297, 6.182
1269.779, 9.450
1270.262, 14.635
1270.744, 16.861
1271.226, 2.767
1271.708, 0.707
1272.190, 34.038
1272.672, 28.885
1273.154, 0.000
##END=



