##NAMES=Derriksite
##RRUFFID=R100223
##IDEAL CHEMISTRY=Cu_4_(UO_2_)(Se^4+^O_3_)_2_(OH)_6_
##LOCALITY=Musonoi mine, Kolwezi, Katanga, Congo
##OWNER=RRUFF
##SOURCE=William W. Pinch
##DESCRIPTION=Dark green crystal associated with metatorbernite, malachite and brochantite
##STATUS=The identification of this mineral has been confirmed by single-crystal X-ray diffraction.
##URL=rruff.info/R100223
145.5144, 0.0000000E+00
145.9965, 0.9301870
146.4786, 2.158665
146.9608, 2.926788
147.4429, 2.913240
147.9250, 2.810423
148.4071, 4.045958
148.8892, 4.340897
149.3713, 3.791214
149.8535, 2.147223
150.3356, 0.7356450
150.8177, 0.2259100
151.2998, 1.175003
151.7819, 0.7298090
152.2640, 2.721840
152.7462, 7.412186
153.2283, 10.10137
153.7104, 8.711433
154.1925, 6.827053
154.6746, 5.752815
155.1567, 6.372093
155.6389, 6.445450
156.1210, 4.810360
156.6031, 2.373581
157.0852, 1.350323
157.5673, 3.440399
158.0495, 6.158657
158.5316, 8.320324
159.0137, 9.521938
159.4958, 10.40461
159.9779, 10.79206
160.4600, 10.91674
160.9422, 11.53930
161.4243, 13.79145
161.9064, 16.12307
162.3885, 17.43743
162.8706, 16.47681
163.3527, 15.64603
163.8349, 16.29633
164.3170, 18.08812
164.7991, 19.39880
165.2812, 18.55630
165.7633, 17.28030
166.2454, 17.13106
166.7276, 19.13661
167.2097, 21.89938
167.6918, 25.16027
168.1739, 28.75461
168.6560, 31.58215
169.1381, 32.78997
169.6203, 32.88933
170.1024, 32.00824
170.5845, 29.72468
171.0666, 27.78229
171.5487, 27.80387
172.0309, 29.63040
172.5130, 31.28357
172.9951, 30.67214
173.4772, 29.10080
173.9593, 28.60966
174.4414, 30.75610
174.9236, 33.92912
175.4057, 36.48201
175.8878, 38.43287
176.3699, 40.00079
176.8520, 41.13176
177.3341, 42.03042
177.8163, 43.15104
178.2984, 45.25433
178.7805, 47.49113
179.2626, 48.11056
179.7447, 46.91213
180.2268, 45.99241
180.7090, 47.97390
181.1911, 52.07449
181.6732, 55.88539
182.1553, 57.99446
182.6374, 59.09485
183.1195, 60.50898
183.6017, 62.28445
184.0838, 64.38731
184.5659, 67.17514
185.0480, 70.44430
185.5301, 73.29506
186.0123, 75.14071
186.4944, 76.21347
186.9765, 77.15266
187.4586, 77.99705
187.9407, 78.69422
188.4228, 79.17375
188.9050, 79.44099
189.3871, 79.54412
189.8692, 79.67613
190.3513, 79.72671
190.8334, 79.00398
191.3155, 77.35562
191.7977, 75.25738
192.2798, 73.40897
192.7619, 71.80942
193.2440, 70.28484
193.7261, 68.81251
194.2082, 67.38093
194.6904, 65.75166
195.1725, 63.94668
195.6546, 61.88223
196.1367, 59.19808
196.6188, 55.79481
197.1009, 52.86498
197.5831, 51.33912
198.0652, 51.19301
198.5473, 50.60748
199.0294, 49.54034
199.5115, 47.91134
199.9937, 45.12709
200.4758, 40.94612
200.9579, 37.33588
201.4400, 35.89371
201.9221, 36.85527
202.4042, 36.43920
202.8864, 33.89688
203.3685, 30.30040
203.8506, 28.79768
204.3327, 29.89552
204.8148, 31.05540
205.2969, 30.66882
205.7791, 28.42115
206.2612, 26.98346
206.7433, 26.72355
207.2254, 27.20168
207.7075, 27.21840
208.1896, 26.55527
208.6718, 26.05335
209.1539, 26.25223
209.6360, 27.39078
210.1181, 28.37971
210.6002, 29.17980
211.0823, 29.75375
211.5645, 29.93904
212.0466, 29.61050
212.5287, 29.19617
213.0108, 28.84304
213.4929, 28.43999
213.9750, 28.54449
214.4572, 29.31025
214.9393, 30.55004
215.4214, 31.84512
215.9035, 33.43253
216.3856, 34.60139
216.8678, 34.84148
217.3499, 33.82613
217.8320, 32.97534
218.3141, 32.42383
218.7962, 32.00425
219.2783, 31.51868
219.7605, 30.76736
220.2426, 30.31425
220.7247, 30.69345
221.2068, 32.63902
221.6889, 33.20163
222.1710, 31.60034
222.6532, 28.68903
223.1353, 27.20814
223.6174, 27.56207
224.0995, 28.64374
224.5816, 30.01189
225.0637, 31.97400
225.5459, 33.46069
226.0280, 34.30572
226.5101, 34.69057
226.9922, 35.17795
227.4743, 36.01097
227.9564, 36.57401
228.4386, 36.34782
228.9207, 34.35817
229.4028, 34.12557
229.8849, 36.54338
230.3670, 40.43025
230.8492, 42.58094
231.3313, 42.24162
231.8134, 41.34611
232.2955, 40.61988
232.7776, 39.78591
233.2597, 39.54474
233.7419, 40.39196
234.2240, 41.83817
234.7061, 42.38164
235.1882, 41.55725
235.6703, 40.34258
236.1524, 39.19303
236.6346, 38.28516
237.1167, 37.11551
237.5988, 35.47060
238.0809, 33.63851
238.5630, 32.28928
239.0451, 31.65630
239.5273, 31.17151
240.0094, 30.69201
240.4915, 30.47202
240.9736, 29.53837
241.4557, 27.58476
241.9378, 25.14376
242.4200, 23.05869
242.9021, 20.95586
243.3842, 19.49264
243.8663, 19.19105
244.3484, 20.87732
244.8306, 21.22787
245.3127, 19.63484
245.7948, 16.99015
246.2769, 14.84661
246.7590, 13.00007
247.2411, 12.05278
247.7233, 12.56146
248.2054, 15.31583
248.6875, 16.70177
249.1696, 15.99435
249.6517, 14.27050
250.1338, 13.33657
250.6160, 13.56669
251.0981, 13.97159
251.5802, 14.28546
252.0623, 14.51528
252.5444, 14.66403
253.0265, 14.80341
253.5087, 14.80852
253.9908, 14.43074
254.4729, 13.31999
254.9550, 12.45653
255.4371, 12.16463
255.9192, 12.51653
256.4014, 12.93496
256.8835, 13.61709
257.3656, 14.16775
257.8477, 14.01916
258.3298, 12.76927
258.8120, 11.72128
259.2941, 11.14440
259.7762, 11.02961
260.2583, 11.48532
260.7404, 13.04659
261.2225, 14.55382
261.7047, 14.64511
262.1868, 12.71601
262.6689, 10.93538
263.1510, 9.735519
263.6331, 9.114567
264.1152, 8.696178
264.5974, 8.541027
265.0795, 8.499668
265.5616, 8.565582
266.0437, 8.981071
266.5258, 8.628349
267.0079, 6.896217
267.4901, 4.056740
267.9722, 2.791302
268.4543, 3.474751
268.9364, 4.895454
269.4185, 6.262493
269.9006, 7.773399
270.3828, 8.505459
270.8649, 7.956177
271.3470, 6.491451
271.8291, 5.985130
272.3112, 6.773937
272.7933, 7.639442
273.2755, 7.826580
273.7576, 7.336792
274.2397, 5.943081
274.7218, 2.954327
275.2039, 0.6215440
275.6860, 1.612335
276.1682, 0.5447200
276.6503, 3.132999
277.1324, 4.519985
277.6145, 4.637505
278.0966, 4.274529
278.5787, 3.286175
279.0609, 2.116474
279.5430, 1.851776
280.0251, 2.630260
280.5072, 3.437199
280.9893, 3.777195
281.4715, 3.715878
281.9536, 3.270454
282.4357, 2.299557
282.9178, 1.219601
283.3999, 0.8070450
283.8820, 1.092995
284.3642, 1.465691
284.8463, 1.775928
285.3284, 1.992004
285.8105, 1.578285
286.2926, 0.3335380
286.7747, 0.9121820
287.2569, 0.6337390
287.7390, 1.091145
288.2211, 2.190861
288.7032, 1.312622
289.1853, 0.9575540
289.6674, 1.848969
290.1496, 1.213612
290.6317, 0.2167320
291.1138, 0.3419040
291.5959, 1.394970
292.0780, 2.007229
292.5602, 1.521358
293.0423, 0.3724940
293.5244, 0.3523980
294.0065, 0.6396290
294.4886, 0.7438350
294.9707, 0.8319850
295.4529, 0.9170990
295.9350, 1.043171
296.4171, 1.223423
296.8992, 1.450977
297.3813, 1.962387
297.8634, 2.691967
298.3456, 2.884972
298.8277, 1.358578
299.3098, 1.102413
299.7919, 2.711956
300.2740, 2.895130
300.7561, 2.431980
301.2383, 2.258133
301.7204, 2.304996
302.2025, 2.272575
302.6846, 1.931946
303.1667, 1.403324
303.6488, 0.7733760
304.1310, 4.6238001E-02
304.6131, 0.6291850
305.0952, 0.2342570
305.5773, 0.7937090
306.0594, 1.520271
306.5415, 1.288933
307.0237, 0.5925290
307.5058, 7.0460998E-02
307.9879, 0.6432570
308.4700, 1.230721
308.9521, 2.255093
309.4343, 3.317280
309.9164, 3.746704
310.3985, 2.557972
310.8806, 1.102253
311.3627, 0.4595260
311.8448, 0.6797140
312.3270, 1.045822
312.8091, 1.161552
313.2912, 1.170536
313.7733, 1.242393
314.2554, 1.636337
314.7375, 1.936695
315.2197, 1.826935
315.7018, 1.360352
316.1839, 0.9964030
316.6660, 0.6208690
317.1481, 0.6025350
317.6302, 1.304111
318.1124, 3.982845
318.5945, 5.936199
319.0766, 5.515934
319.5587, 3.469036
320.0408, 2.382214
320.5229, 4.384724
321.0051, 6.645432
321.4872, 7.438583
321.9693, 5.295158
322.4514, 3.932625
322.9335, 5.212837
323.4156, 7.690800
323.8978, 8.581169
324.3799, 5.457588
324.8620, 2.363716
325.3441, 0.8942640
325.8262, 1.849232
326.3083, 2.293888
326.7905, 1.498116
327.2726, 0.2366790
327.7547, 0.5273970
328.2368, 0.3488920
328.7189, 0.1068990
329.2010, 0.1051640
329.6832, 0.3041800
330.1653, 0.2479590
330.6474, 0.5501400
331.1295, 1.253227
331.6116, 1.123062
332.0938, 0.7122760
332.5759, 1.985218
333.0580, 2.213821
333.5401, 1.518608
334.0222, 1.166363
334.5043, 1.280022
334.9865, 1.431465
335.4686, 1.358562
335.9507, 0.9779550
336.4328, 0.5449260
336.9149, 0.1348880
337.3970, 0.7618980
337.8792, 0.3718410
338.3613, 1.450424
338.8434, 3.133053
339.3255, 3.753746
339.8076, 3.057827
340.2898, 3.572414
340.7719, 5.918350
341.2540, 8.420589
341.7361, 8.074383
342.2182, 4.504944
342.7003, 1.733566
343.1825, 1.481213
343.6646, 3.330074
344.1467, 4.473984
344.6288, 4.773388
345.1109, 4.871349
345.5930, 5.532848
346.0752, 6.622074
346.5573, 7.240082
347.0394, 7.033287
347.5215, 6.238064
348.0036, 5.006065
348.4857, 3.397858
348.9679, 2.649105
349.4500, 4.344791
349.9321, 7.683266
350.4142, 10.30438
350.8963, 11.79467
351.3784, 12.70144
351.8606, 13.40771
352.3427, 14.02098
352.8248, 14.97788
353.3069, 16.96391
353.7890, 19.25735
354.2711, 21.01883
354.7533, 22.20218
355.2354, 22.66476
355.7175, 22.16970
356.1996, 20.86864
356.6817, 19.02535
357.1638, 16.10707
357.6460, 12.98559
358.1281, 10.17495
358.6102, 7.765358
359.0923, 6.094349
359.5744, 5.869232
360.0565, 6.264236
360.5387, 6.504356
361.0208, 6.409935
361.5029, 6.104118
361.9850, 5.468658
362.4671, 4.612957
362.9492, 3.920193
363.4314, 3.530422
363.9135, 3.281334
364.3956, 3.110607
364.8777, 2.930050
365.3598, 3.099422
365.8419, 4.173664
366.3241, 5.509892
366.8062, 6.140461
367.2883, 4.715199
367.7704, 3.739445
368.2526, 4.163925
368.7347, 6.376427
369.2168, 7.774719
369.6989, 7.171394
370.1810, 6.495251
370.6631, 7.386875
371.1453, 11.33367
371.6274, 14.63095
372.1095, 16.67402
372.5916, 17.66460
373.0737, 18.90063
373.5558, 20.48103
374.0380, 22.16483
374.5201, 23.87276
375.0022, 25.65490
375.4843, 27.27420
375.9664, 28.62487
376.4485, 29.86320
376.9307, 31.22176
377.4128, 32.56812
377.8949, 34.56844
378.3770, 37.84941
378.8591, 42.28761
379.3412, 45.47620
379.8234, 47.13037
380.3055, 48.44226
380.7876, 50.70125
381.2697, 53.88586
381.7518, 57.27737
382.2339, 60.79471
382.7161, 64.36686
383.1982, 67.83503
383.6803, 71.15340
384.1624, 74.30421
384.6445, 77.22436
385.1266, 79.94482
385.6088, 82.72476
386.0909, 85.82666
386.5730, 88.53049
387.0551, 89.69579
387.5372, 89.62656
388.0193, 89.29475
388.5015, 89.54315
388.9836, 89.55926
389.4657, 88.53481
389.9478, 86.51315
390.4299, 83.73349
390.9120, 79.90431
391.3942, 75.58846
391.8763, 71.50275
392.3584, 68.28076
392.8405, 64.95398
393.3226, 60.66900
393.8047, 55.70356
394.2869, 51.34143
394.7690, 48.07684
395.2511, 45.54022
395.7332, 43.80563
396.2154, 43.93230
396.6975, 42.71250
397.1796, 38.01009
397.6617, 31.75647
398.1438, 27.29736
398.6259, 26.30757
399.1081, 25.90406
399.5902, 25.48829
400.0723, 25.09985
400.5544, 24.33097
401.0365, 23.10765
401.5186, 21.54988
402.0008, 19.62937
402.4829, 16.39256
402.9650, 14.64737
403.4471, 15.28963
403.9292, 17.65382
404.4113, 18.94088
404.8935, 18.97609
405.3756, 18.36998
405.8577, 16.92612
406.3398, 14.26196
406.8219, 14.13087
407.3040, 17.45799
407.7862, 21.63412
408.2683, 22.55547
408.7504, 20.12048
409.2325, 17.87011
409.7146, 16.93797
410.1967, 17.12054
410.6789, 17.98908
411.1610, 19.57932
411.6431, 20.96181
412.1252, 20.90417
412.6073, 19.96333
413.0894, 19.73299
413.5716, 20.57730
414.0537, 22.11199
414.5358, 24.46462
415.0179, 27.24464
415.5000, 29.25728
415.9821, 28.99927
416.4643, 28.07540
416.9464, 28.23922
417.4285, 29.67986
417.9106, 31.25495
418.3927, 31.99411
418.8748, 32.52584
419.3570, 33.58148
419.8391, 36.61348
420.3212, 39.06245
420.8033, 39.37743
421.2854, 38.01934
421.7675, 37.17633
422.2497, 37.86040
422.7318, 38.97900
423.2139, 39.98245
423.6960, 40.80424
424.1781, 41.51854
424.6602, 42.25060
425.1424, 42.84472
425.6245, 43.08173
426.1066, 43.30571
426.5887, 42.73163
427.0709, 41.00624
427.5530, 38.12954
428.0351, 35.36965
428.5172, 32.84635
428.9993, 30.22899
429.4814, 27.09344
429.9636, 23.06730
430.4457, 20.04773
430.9278, 18.47458
431.4099, 17.70710
431.8920, 16.33947
432.3741, 14.28767
432.8563, 12.19402
433.3384, 10.37263
433.8205, 8.764336
434.3026, 6.881065
434.7847, 4.638748
435.2668, 2.709923
435.7490, 1.981838
436.2311, 2.178345
436.7132, 2.367313
437.1953, 2.358799
437.6774, 2.151455
438.1595, 1.723667
438.6417, 1.088871
439.1238, 0.3019330
439.6059, 1.074871
440.0880, 2.346180
440.5701, 2.676849
441.0522, 1.885334
441.5344, 0.7960930
442.0165, 0.6475720
442.4986, 1.906662
442.9807, 2.308399
443.4628, 0.5203670
443.9449, 1.078602
444.4271, 1.412418
444.9092, 0.6762960
445.3913, 4.2309001E-02
445.8734, 0.2772790
446.3555, 0.3551030
446.8376, 0.2032850
447.3198, 0.2969670
447.8019, 0.8057670
448.2840, 1.691338
448.7661, 2.422989
449.2482, 2.178879
449.7303, 0.2313120
450.2125, 1.464981
450.6946, 2.545544
451.1767, 3.026241
451.6588, 2.973995
452.1409, 2.083443
452.6230, 1.366367
453.1052, 1.845116
453.5873, 3.684235
454.0694, 4.373703
454.5515, 3.378380
455.0337, 1.870255
455.5158, 1.983280
455.9979, 3.610538
456.4800, 5.158646
456.9621, 5.807678
457.4442, 5.957901
457.9264, 6.771957
458.4085, 8.210358
458.8906, 9.263577
459.3727, 8.344288
459.8548, 6.677341
460.3369, 6.390701
460.8191, 8.405228
461.3012, 10.77413
461.7833, 11.90609
462.2654, 12.23875
462.7475, 12.67861
463.2296, 14.28519
463.7118, 15.56676
464.1939, 15.10214
464.6760, 12.77280
465.1581, 11.78787
465.6402, 14.40548
466.1223, 17.97489
466.6045, 20.60540
467.0866, 21.18616
467.5687, 21.87174
468.0508, 23.17165
468.5329, 24.62041
469.0150, 25.14029
469.4972, 24.11416
469.9793, 23.07595
470.4614, 22.40135
470.9435, 22.08015
471.4256, 22.48180
471.9077, 23.97291
472.3899, 25.45825
472.8720, 25.81113
473.3541, 24.91586
473.8362, 24.35372
474.3183, 24.45506
474.8004, 24.81198
475.2826, 24.61320
475.7647, 23.88642
476.2468, 23.02589
476.7289, 22.33080
477.2110, 21.61941
477.6931, 20.27518
478.1753, 18.29302
478.6574, 16.62068
479.1395, 16.22066
479.6216, 16.57819
480.1037, 16.99297
480.5858, 17.45388
481.0680, 17.61600
481.5501, 17.03632
482.0322, 15.99425
482.5143, 15.07859
482.9964, 14.59045
483.4786, 14.22369
483.9607, 13.92295
484.4428, 13.70364
484.9249, 13.21516
485.4070, 11.61702
485.8892, 10.21491
486.3713, 10.00079
486.8534, 12.71703
487.3355, 14.02229
487.8176, 12.92141
488.2997, 10.61939
488.7819, 9.824162
489.2640, 11.35474
489.7461, 12.53974
490.2282, 12.42606
490.7103, 10.84737
491.1924, 10.01823
491.6746, 10.08448
492.1567, 10.35112
492.6388, 10.11512
493.1209, 9.456501
493.6030, 9.429203
494.0851, 10.30487
494.5673, 11.28269
495.0494, 11.13977
495.5315, 10.17570
496.0136, 9.460709
496.4957, 9.597107
496.9778, 10.18994
497.4600, 10.85818
497.9421, 11.54256
498.4242, 12.16354
498.9063, 12.75439
499.3884, 13.30797
499.8705, 13.78926
500.3527, 14.13367
500.8348, 14.28855
501.3169, 14.10249
501.7990, 13.73178
502.2811, 13.43858
502.7632, 12.67829
503.2454, 12.71331
503.7275, 14.47108
504.2096, 17.69226
504.6917, 19.44751
505.1738, 18.91651
505.6559, 17.89776
506.1381, 17.20113
506.6202, 16.72575
507.1023, 17.11593
507.5844, 18.83689
508.0665, 20.85962
508.5486, 21.49039
509.0308, 20.58476
509.5129, 20.13438
509.9950, 20.88597
510.4771, 22.17262
510.9592, 22.41067
511.4413, 21.70667
511.9235, 21.08212
512.4056, 21.47992
512.8877, 22.26012
513.3698, 22.33392
513.8519, 21.56780
514.3340, 20.87792
514.8162, 21.25484
515.2983, 21.92797
515.7804, 21.96341
516.2625, 20.57138
516.7446, 19.19176
517.2267, 18.41588
517.7089, 18.09275
518.1910, 17.85736
518.6731, 17.97966
519.1552, 17.86385
519.6373, 17.20692
520.1194, 15.96960
520.6016, 14.95573
521.0837, 14.45179
521.5658, 13.76130
522.0479, 12.12663
522.5300, 8.925991
523.0121, 7.274879
523.4943, 7.756054
523.9764, 9.352947
524.4585, 10.41467
524.9406, 10.93356
525.4227, 11.05029
525.9048, 10.51244
526.3870, 9.725346
526.8691, 10.03665
527.3513, 11.35191
527.8334, 12.20427
528.3155, 11.04578
528.7976, 8.952450
529.2797, 7.436897
529.7618, 6.694298
530.2440, 6.422890
530.7261, 6.744461
531.2082, 7.310658
531.6903, 7.666779
532.1724, 8.035213
532.6545, 7.809479
533.1367, 6.244141
533.6188, 3.824291
534.1009, 2.220001
534.5830, 2.259384
535.0651, 2.618015
535.5472, 2.876240
536.0294, 2.997791
536.5115, 3.366447
536.9936, 4.324291
537.4757, 5.052742
537.9578, 4.645298
538.4399, 2.807152
538.9221, 1.763775
539.4042, 1.929050
539.8863, 2.633869
540.3684, 2.628220
540.8505, 1.978085
541.3326, 1.476868
541.8148, 1.524826
542.2969, 1.873806
542.7790, 2.223560
543.2611, 2.538193
543.7432, 2.551796
544.2253, 1.291069
544.7075, 5.8949001E-02
545.1896, 0.7318690
545.6717, 4.098492
546.1538, 6.296246
546.6359, 3.898388
547.1180, 1.0639000E-02
547.6002, 2.122707
548.0823, 0.6237450
548.5644, 2.580811
549.0465, 2.261715
549.5286, 0.4053610
550.0107, 0.8660770
550.4929, 1.513256
550.9750, 1.617626
551.4571, 1.027863
551.9392, 0.2640530
552.4213, 1.115078
552.9034, 1.501656
553.3856, 1.542439
553.8677, 1.110310
554.3498, 0.2786520
554.8319, 6.0084999E-02
555.3140, 0.6896400
555.7961, 1.447376
556.2783, 1.048691
556.7604, 2.1519000E-02
557.2425, 0.3358760
557.7246, 1.284512
558.2067, 3.207932
558.6888, 3.907486
559.1710, 3.580311
559.6531, 2.866920
560.1352, 1.730961
560.6173, 0.5808410
561.0994, 0.3971710
561.5815, 1.213863
562.0637, 1.664494
562.5458, 1.518333
563.0279, 1.109901
563.5100, 0.6569020
563.9921, 0.1835780
564.4742, 0.3745000
564.9564, 0.6171040
565.4385, 1.871052
565.9206, 1.599186
566.4027, 0.5723270
566.8848, 2.391502
567.3669, 3.212135
567.8491, 3.216805
568.3312, 2.816013
568.8133, 2.025459
569.2954, 1.195415
569.7775, 0.5260390
570.2596, 1.7002000E-02
570.7418, 0.5304110
571.2239, 1.030354
571.7060, 1.298214
572.1881, 1.109612
572.6702, 0.6282350
573.1523, 4.8139999E-03
573.6345, 0.9284170
574.1166, 1.672302
574.5987, 2.074783
575.0808, 2.175842
575.5629, 2.043961
576.0450, 1.529163
576.5272, 0.9471740
577.0093, 0.1934700
577.4914, 0.6341820
577.9735, 0.8170510
578.4556, 4.1065000E-02
578.9377, 0.7343940
579.4199, 0.9816470
579.9020, 0.6840860
580.3841, 0.6865920
580.8662, 1.050098
581.3483, 1.388157
581.8304, 1.126823
582.3126, 0.4898190
582.7947, 0.2770960
583.2768, 0.6873740
583.7589, 1.401989
584.2410, 2.296745
584.7231, 3.229095
585.2053, 3.916882
585.6874, 4.140133
586.1696, 4.178852
586.6517, 4.092995
587.1338, 3.921749
587.6159, 3.831547
588.0980, 3.279446
588.5801, 3.338673
589.0623, 4.888336
589.5444, 8.359489
590.0265, 10.31202
590.5086, 10.11296
590.9907, 9.205742
591.4728, 8.591454
591.9550, 8.263916
592.4371, 8.344074
592.9192, 8.910820
593.4013, 9.718632
593.8834, 10.48543
594.3655, 11.20041
594.8477, 11.74569
595.3298, 11.85999
595.8119, 12.06165
596.2940, 13.44250
596.7761, 15.58715
597.2582, 17.15073
597.7404, 16.72630
598.2225, 15.99700
598.7046, 16.19046
599.1867, 17.36741
599.6688, 18.53527
600.1509, 19.14814
600.6331, 19.85074
601.1152, 21.10554
601.5973, 23.38139
602.0794, 25.11150
602.5615, 25.99853
603.0436, 26.61565
603.5258, 27.43425
604.0079, 28.32398
604.4900, 30.14627
604.9721, 33.31189
605.4542, 36.87185
605.9363, 39.40620
606.4185, 40.84820
606.9006, 41.95642
607.3827, 42.67298
607.8648, 43.40956
608.3469, 44.58529
608.8290, 46.33327
609.3112, 49.17858
609.7933, 55.13459
610.2754, 61.10941
610.7575, 64.24371
611.2396, 63.62992
611.7217, 64.56058
612.2039, 69.61246
612.6860, 76.02422
613.1681, 81.77156
613.6502, 85.96538
614.1323, 90.85331
614.6144, 96.88496
615.0966, 103.1365
615.5787, 108.1826
616.0608, 111.5909
616.5429, 116.2357
617.0250, 123.0816
617.5071, 131.2023
617.9893, 138.5234
618.4714, 145.1126
618.9535, 151.2058
619.4356, 156.5183
619.9177, 161.7536
620.3998, 168.0788
620.8820, 175.4133
621.3641, 182.7165
621.8462, 189.4807
622.3283, 196.0506
622.8104, 202.6687
623.2925, 209.5349
623.7747, 215.9316
624.2568, 222.1318
624.7389, 227.5741
625.2210, 231.7802
625.7031, 233.9931
626.1852, 236.7457
626.6674, 240.6605
627.1495, 244.6082
627.6316, 246.5876
628.1137, 246.5154
628.5958, 245.7828
629.0779, 244.7996
629.5601, 243.3801
630.0422, 241.2022
630.5243, 238.2324
631.0064, 234.5285
631.4885, 229.8404
631.9706, 224.7490
632.4528, 219.5879
632.9349, 214.3173
633.4170, 208.8292
633.8991, 203.1385
634.3812, 197.2846
634.8633, 191.1747
635.3455, 184.7214
635.8276, 178.4482
636.3097, 172.1653
636.7918, 166.2672
637.2739, 161.1612
637.7560, 157.1098
638.2382, 152.7188
638.7203, 147.9302
639.2024, 142.8787
639.6845, 137.4287
640.1666, 131.6467
640.6487, 126.4396
641.1309, 122.2618
641.6130, 118.4497
642.0951, 114.0042
642.5772, 109.1876
643.0594, 104.9306
643.5415, 102.2809
644.0236, 99.75578
644.5057, 96.26459
644.9879, 91.90202
645.4700, 87.96456
645.9521, 85.18455
646.4342, 82.46012
646.9163, 79.23558
647.3984, 75.34251
647.8806, 71.85483
648.3627, 68.74912
648.8448, 66.04556
649.3269, 64.03484
649.8090, 62.71315
650.2911, 60.27806
650.7733, 56.38209
651.2554, 52.18296
651.7375, 48.81826
652.2196, 46.19410
652.7017, 44.06656
653.1838, 42.44360
653.6660, 41.14302
654.1481, 40.31737
654.6302, 39.67146
655.1123, 38.67207
655.5944, 36.41971
656.0765, 34.55763
656.5587, 34.16120
657.0408, 34.73273
657.5229, 33.84991
658.0050, 30.59471
658.4871, 27.45140
658.9692, 25.24811
659.4514, 23.92979
659.9335, 22.88576
660.4156, 22.10687
660.8977, 21.68980
661.3798, 22.11956
661.8619, 22.93333
662.3441, 22.89812
662.8262, 21.93721
663.3083, 20.40939
663.7904, 17.69789
664.2725, 15.00854
664.7546, 13.85503
665.2368, 15.18092
665.7189, 16.29033
666.2010, 16.20787
666.6831, 15.48266
667.1652, 14.71706
667.6473, 13.82925
668.1295, 13.13668
668.6116, 12.88024
669.0937, 12.66383
669.5758, 11.51759
670.0579, 9.291481
670.5400, 7.553864
671.0222, 6.838425
671.5043, 6.810745
671.9864, 7.062744
672.4685, 7.470268
672.9506, 7.421646
673.4327, 5.898094
673.9149, 4.255745
674.3970, 4.007210
674.8791, 4.944901
675.3612, 5.407272
675.8433, 3.916695
676.3254, 2.473030
676.8076, 2.248329
677.2897, 3.541634
677.7718, 4.535568
678.2539, 5.197838
678.7360, 5.593681
679.2181, 5.779396
679.7003, 5.765411
680.1824, 5.304420
680.6645, 4.279549
681.1466, 3.278252
681.6287, 3.089310
682.1108, 3.437096
682.5930, 3.598259
683.0751, 3.464180
683.5572, 2.999329
684.0393, 1.894203
684.5214, 0.5175550
685.0035, 0.6072620
685.4857, 1.298431
685.9678, 1.740974
686.4499, 2.046837
686.9320, 2.111412
687.4141, 1.643944
687.8962, 3.2600001E-02
688.3784, 0.8799820
688.8605, 7.1983002E-02
689.3426, 1.724594
689.8247, 2.038315
690.3068, 0.8119890
690.7889, 0.3564680
691.2711, 0.7409900
691.7532, 0.5259860
692.2353, 0.1738430
692.7174, 1.256317
693.1995, 2.107216
693.6816, 2.511360
694.1638, 2.423569
694.6459, 1.676956
695.1280, 0.2404860
695.6101, 1.224014
696.0922, 3.164383
696.5743, 4.556213
697.0565, 4.710182
697.5386, 3.152473
698.0207, 2.378014
698.5028, 2.520546
698.9849, 3.164268
699.4670, 4.061028
699.9492, 5.176071
700.4313, 6.245285
700.9135, 7.369865
701.3956, 8.006004
701.8777, 7.046417
702.3598, 5.516808
702.8419, 5.282616
703.3240, 7.369743
703.8062, 9.736565
704.2883, 11.41528
704.7704, 12.71803
705.2525, 14.03532
705.7346, 15.99795
706.2167, 17.19767
706.6989, 17.26276
707.1810, 16.61646
707.6631, 15.98557
708.1452, 15.23836
708.6273, 15.63760
709.1094, 17.81902
709.5916, 20.96239
710.0737, 23.64416
710.5558, 25.85541
711.0379, 27.47467
711.5200, 27.45872
712.0021, 27.48094
712.4843, 29.33089
712.9664, 32.62456
713.4485, 35.57993
713.9306, 37.28350
714.4127, 38.85672
714.8948, 40.75065
715.3770, 42.99265
715.8591, 45.32994
716.3412, 47.52094
716.8233, 50.15573
717.3054, 54.02773
717.7875, 59.07399
718.2697, 62.45262
718.7518, 64.06178
719.2339, 65.58169
719.7160, 68.30660
720.1981, 71.98478
720.6802, 76.34070
721.1624, 81.33237
721.6445, 86.63277
722.1266, 92.33350
722.6087, 98.04153
723.0908, 103.3212
723.5729, 107.5690
724.0551, 112.3487
724.5372, 117.6271
725.0193, 123.4910
725.5014, 130.0804
725.9835, 137.5345
726.4656, 144.8255
726.9478, 151.8730
727.4299, 158.8969
727.9120, 166.1053
728.3941, 173.5486
728.8762, 181.0954
729.3583, 188.7706
729.8405, 196.4228
730.3226, 203.8212
730.8047, 211.1878
731.2868, 218.6459
731.7689, 226.2464
732.2510, 234.0233
732.7332, 242.7515
733.2153, 251.4790
733.6974, 258.2392
734.1795, 262.3271
734.6616, 266.3314
735.1437, 271.2548
735.6259, 276.1467
736.1080, 278.6766
736.5901, 278.8911
737.0722, 277.2086
737.5543, 273.6297
738.0364, 268.4060
738.5186, 261.5113
739.0007, 253.1802
739.4828, 244.0593
739.9649, 235.2788
740.4470, 224.9782
740.9291, 211.2297
741.4113, 194.4619
741.8934, 180.0410
742.3755, 169.1452
742.8576, 158.3293
743.3397, 145.8133
743.8218, 131.9951
744.3040, 120.2656
744.7861, 110.7752
745.2682, 101.6607
745.7503, 90.97764
746.2324, 80.11793
746.7145, 71.82183
747.1967, 65.92266
747.6788, 60.70538
748.1609, 55.38551
748.6430, 50.40823
749.1251, 45.99063
749.6072, 42.18947
750.0894, 38.59146
750.5715, 35.10184
751.0536, 31.85997
751.5357, 29.19876
752.0178, 27.23643
752.4999, 24.37151
752.9821, 20.46991
753.4642, 16.73502
753.9463, 14.25495
754.4284, 12.75050
754.9105, 12.00330
755.3926, 12.09283
755.8748, 11.73002
756.3569, 9.959557
756.8390, 7.439011
757.3211, 4.514359
757.8032, 0.2131810
758.2853, 1.931396
758.7675, 0.2648470
759.2496, 2.070549
759.7318, 1.917183
760.2139, 1.227219
760.6960, 2.873779
761.1781, 2.444618
761.6602, 1.238792
762.1423, 0.7758330
762.6245, 0.7734070
763.1066, 0.4452670
763.5887, 0.5744400
764.0708, 1.272354
764.5529, 0.7994840
765.0350, 0.3457410
765.5172, 1.574310
765.9993, 3.532066
766.4814, 4.450531
766.9635, 3.588326
767.4456, 2.178040
767.9277, 1.942841
768.4099, 3.110680
768.8920, 4.016556
769.3741, 4.511749
769.8562, 4.374077
770.3383, 2.693733
770.8204, 0.1085050
771.3026, 1.643967
771.7847, 1.883499
772.2668, 1.417793
772.7489, 0.1075590
773.2310, 1.369736
773.7131, 1.939407
774.1953, 2.6718000E-02
774.6774, 1.017715
775.1595, 0.3231810
775.6416, 1.108353
776.1237, 1.529922
776.6058, 0.9119570
777.0880, 0.6495360
777.5701, 3.477081
778.0522, 6.568382
778.5343, 8.192963
779.0164, 8.662010
779.4985, 8.863533
779.9807, 8.915558
780.4628, 9.093872
780.9449, 9.369690
781.4270, 9.912926
781.9091, 11.08746
782.3912, 14.52962
782.8734, 16.48811
783.3555, 15.54583
783.8376, 13.22620
784.3197, 13.57332
784.8018, 16.83049
785.2839, 19.93742
785.7661, 21.99842
786.2482, 23.31689
786.7303, 24.20714
787.2124, 24.74026
787.6945, 25.14369
788.1766, 25.18359
788.6588, 25.45971
789.1409, 26.31201
789.6230, 27.63845
790.1051, 29.20351
790.5872, 31.37218
791.0693, 33.08780
791.5515, 33.80254
792.0336, 34.09811
792.5157, 35.91863
792.9978, 39.27431
793.4799, 42.16992
793.9620, 43.89532
794.4442, 44.76305
794.9263, 44.44539
795.4084, 43.61691
795.8905, 44.14238
796.3726, 48.59590
796.8547, 52.74821
797.3369, 54.49060
797.8190, 54.46556
798.3011, 55.05981
798.7832, 56.21158
799.2653, 58.26005
799.7474, 61.55305
800.2296, 65.60204
800.7117, 69.11935
801.1938, 72.12360
801.6759, 74.82318
802.1580, 77.22512
802.6401, 79.45502
803.1223, 81.47899
803.6044, 83.42358
804.0865, 85.58012
804.5686, 88.11424
805.0507, 90.83441
805.5328, 94.02447
806.0150, 97.35102
806.4971, 99.77766
806.9792, 100.7931
807.4613, 102.5824
807.9434, 105.8786
808.4255, 110.1701
808.9077, 114.6031
809.3898, 119.1103
809.8719, 123.3902
810.3540, 127.1986
810.8361, 130.8398
811.3182, 134.4059
811.8004, 137.9776
812.2825, 141.8262
812.7646, 146.0292
813.2467, 150.5171
813.7288, 155.3071
814.2109, 160.3664
814.6931, 165.5805
815.1752, 171.0228
815.6573, 176.3618
816.1394, 181.5051
816.6215, 186.5245
817.1037, 191.1205
817.5858, 195.4178
818.0679, 199.8432
818.5500, 204.7350
819.0322, 209.7206
819.5143, 214.0975
819.9964, 218.4082
820.4785, 223.9525
820.9606, 232.1424
821.4427, 238.7927
821.9249, 242.6736
822.4070, 245.2839
822.8891, 250.0215
823.3712, 256.5888
823.8533, 261.8552
824.3354, 264.6249
824.8176, 266.7308
825.2997, 270.0484
825.7818, 274.0822
826.2639, 277.9385
826.7460, 281.6925
827.2281, 284.9024
827.7103, 287.6346
828.1924, 289.8373
828.6745, 291.1147
829.1566, 290.8593
829.6387, 291.9505
830.1208, 295.3412
830.6030, 298.9202
831.0851, 298.8420
831.5672, 296.2538
832.0493, 294.3711
832.5314, 294.2265
833.0135, 294.2855
833.4957, 293.2423
833.9778, 291.9114
834.4599, 291.2484
834.9420, 293.1829
835.4241, 293.1212
835.9063, 290.1038
836.3884, 286.2483
836.8705, 284.5381
837.3526, 284.8729
837.8347, 283.2071
838.3168, 278.7744
838.7990, 273.6400
839.2811, 269.6585
839.7632, 266.3920
840.2453, 263.2594
840.7274, 260.0845
841.2095, 257.1139
841.6917, 255.3960
842.1738, 253.1820
842.6559, 248.9238
843.1380, 241.7059
843.6201, 235.6299
844.1022, 230.7189
844.5844, 226.8731
845.0665, 224.6176
845.5486, 223.2888
846.0307, 221.0501
846.5128, 217.7141
846.9949, 214.1337
847.4771, 210.4698
847.9592, 207.0877
848.4413, 204.4921
848.9234, 203.0395
849.4055, 200.5132
849.8876, 196.1584
850.3698, 192.0667
850.8519, 189.4969
851.3340, 188.3205
851.8161, 187.7074
852.2982, 187.6990
852.7803, 187.6283
853.2625, 186.9508
853.7446, 185.7526
854.2267, 184.0036
854.7088, 181.8598
855.1909, 180.0852
855.6730, 179.5391
856.1552, 178.5995
856.6373, 176.7612
857.1194, 174.2481
857.6015, 171.4288
858.0836, 168.1226
858.5657, 164.4585
859.0479, 160.7364
859.5300, 156.6569
860.0121, 151.2934
860.4942, 144.8154
860.9763, 138.1244
861.4584, 132.1068
861.9406, 125.9588
862.4227, 119.1449
862.9048, 111.7319
863.3869, 104.5767
863.8690, 97.62391
864.3511, 91.11499
864.8333, 85.08651
865.3154, 78.98752
865.7975, 73.61310
866.2796, 67.69562
866.7617, 62.24820
867.2438, 57.21648
867.7260, 53.06099
868.2081, 50.60597
868.6902, 49.07493
869.1723, 47.18941
869.6544, 43.74855
870.1365, 41.37610
870.6187, 40.63407
871.1008, 40.28444
871.5829, 38.34125
872.0650, 34.96679
872.5471, 33.25149
873.0292, 33.90337
873.5114, 34.93266
873.9935, 34.36453
874.4756, 32.94437
874.9577, 31.53083
875.4399, 30.15647
875.9220, 29.16734
876.4041, 28.81931
876.8862, 28.72660
877.3683, 28.66836
877.8505, 28.63605
878.3326, 28.89342
878.8147, 29.49333
879.2968, 29.88489
879.7789, 28.85612
880.2610, 27.62782
880.7432, 28.63427
881.2253, 31.91026
881.7074, 34.59542
882.1895, 36.22732
882.6716, 36.09464
883.1537, 32.95338
883.6359, 27.09259
884.1180, 23.10222
884.6001, 21.28811
885.0822, 20.07392
885.5643, 18.77798
886.0464, 17.51270
886.5286, 16.74273
887.0107, 16.32143
887.4928, 15.41481
887.9749, 12.87479
888.4570, 10.55389
888.9391, 9.058121
889.4213, 8.485764
889.9034, 9.247932
890.3855, 12.56989
890.8676, 14.19667
891.3497, 12.82566
891.8318, 9.987175
892.3140, 8.246826
892.7961, 7.480000
893.2782, 7.244343
893.7603, 7.563866
894.2424, 8.032051
894.7245, 8.439423
895.2067, 8.782028
895.6888, 9.049019
896.1709, 9.272587
896.6530, 9.347778
897.1351, 9.185314
897.6172, 9.007500
898.0994, 9.366013
898.5815, 10.06663
899.0636, 8.936245
899.5457, 5.610981
900.0278, 3.618008
900.5099, 8.415630
900.9921, 14.20174
901.4742, 14.73118
901.9563, 8.322548
902.4384, 4.927006
902.9205, 7.482418
903.4026, 10.50929
903.8848, 11.22231
904.3669, 10.03094
904.8490, 11.27028
905.3311, 14.76926
905.8132, 16.09176
906.2953, 10.14950
906.7775, 2.551613
907.2596, 1.316715
907.7417, 2.082397
908.2238, 2.333263
908.7059, 2.149399
909.1880, 2.260330
909.6702, 3.155827
910.1523, 4.275345
910.6344, 4.018848
911.1165, 2.412586
911.5986, 1.336098
912.0807, 1.500534
912.5629, 1.880821
913.0450, 0.8120420
913.5271, 0.6503180
914.0092, 0.8121070
914.4913, 2.062019
914.9734, 3.915524
915.4556, 3.519596
915.9377, 2.490402
916.4198, 2.393822
916.9019, 3.329838
917.3840, 3.203239
917.8661, 1.785866
918.3483, 0.4419060
918.8304, 0.8727990
919.3125, 1.826248
919.7946, 1.541283
920.2767, 0.1642420
920.7589, 1.370602
921.2410, 1.125935
921.7231, 0.6421430
922.2052, 0.2407800
922.6873, 2.4742000E-02
923.1694, 0.5906110
923.6516, 2.123058
924.1337, 3.148415
924.6158, 2.679871
925.0979, 1.548759
925.5800, 0.7193640
926.0621, 0.1188620
926.5443, 0.4431800
927.0264, 1.718494
927.5085, 2.016838
927.9906, 0.4359250
928.4727, 1.851971
928.9548, 2.758759
929.4370, 2.221674
929.9191, 2.166323
930.4012, 3.060667
930.8833, 3.920431
931.3654, 3.466324
931.8475, 2.368956
932.3297, 1.481070
932.8118, 0.9439430
933.2939, 0.7520940
933.7761, 1.238205
934.2582, 1.733303
934.7403, 1.691404
935.2224, 1.076813
935.7045, 1.649775
936.1866, 3.467987
936.6688, 4.932888
937.1509, 4.369778
937.6330, 3.235189
938.1151, 3.365448
938.5972, 4.514635
939.0793, 5.205296
939.5615, 4.460443
940.0436, 3.890879
940.5257, 4.107201
941.0078, 4.639343
941.4899, 4.092810
941.9720, 2.517708
942.4542, 1.051437
942.9363, 0.2429160
943.4184, 0.6857190
943.9005, 1.644972
944.3826, 4.811054
944.8647, 6.051010
945.3469, 3.039631
945.8290, 1.259737
946.3111, 1.457706
946.7932, 2.564329
947.2753, 3.976610
947.7574, 5.654150
948.2396, 6.230074
948.7217, 5.654907
949.2038, 5.214533
949.6859, 6.382629
950.1680, 7.784956
950.6501, 7.911207
951.1323, 6.796131
951.6144, 6.618244
952.0965, 8.603348
952.5786, 9.835815
953.0607, 9.117689
953.5428, 7.230835
954.0250, 6.727348
954.5071, 7.346910
954.9892, 7.513878
955.4713, 6.299576
955.9534, 4.989925
956.4355, 4.110357
956.9177, 3.907703
957.3998, 4.837523
957.8819, 8.462170
958.3640, 10.21196
958.8461, 9.541393
959.3282, 7.891241
959.8104, 6.294037
960.2925, 5.000967
960.7746, 5.369081
961.2567, 7.483919
961.7388, 9.091930
962.2209, 8.180944
962.7031, 6.745501
963.1852, 5.924191
963.6673, 5.799814
964.1494, 6.751375
964.6315, 9.488453
965.1136, 10.63503
965.5958, 8.208487
966.0779, 4.270679
966.5600, 2.868551
967.0421, 3.452637
967.5242, 4.617882
968.0063, 6.894793
968.4885, 8.246117
968.9706, 6.852474
969.4527, 4.765753
969.9348, 4.640928
970.4169, 7.120796
970.8990, 8.267754
971.3812, 7.685909
971.8633, 6.688229
972.3454, 6.314493
972.8275, 6.369127
973.3096, 6.914028
973.7917, 7.951494
974.2739, 8.344238
974.7560, 7.147890
975.2381, 5.738087
975.7202, 4.603664
976.2023, 3.748047
976.6844, 2.933159
977.1666, 2.128714
977.6487, 2.185980
978.1308, 4.034180
978.6129, 6.055637
979.0950, 6.459209
979.5771, 5.894329
980.0593, 5.444426
980.5414, 5.737339
981.0235, 5.651117
981.5056, 4.906946
981.9877, 4.092213
982.4698, 3.763239
982.9520, 3.874895
983.4341, 4.411726
983.9162, 5.355543
984.3983, 5.986391
984.8804, 5.574471
985.3625, 4.815811
985.8447, 4.187017
986.3268, 3.728270
986.8089, 3.499643
987.2910, 3.505152
987.7731, 3.679789
988.2552, 4.112843
988.7374, 4.578953
989.2195, 4.374487
989.7016, 3.817677
990.1837, 3.848125
990.6658, 5.364180
991.1479, 6.369482
991.6301, 5.163313
992.1122, 3.665701
992.5944, 4.023401
993.0765, 6.924091
993.5586, 7.508465
994.0407, 5.502232
994.5228, 3.129223
995.0049, 1.966160
995.4871, 1.653791
995.9692, 2.084114
996.4513, 3.083870
996.9334, 3.585012
997.4155, 2.304560
997.8976, 1.711491
998.3798, 2.818317
998.8619, 4.685587
999.3440, 4.929670
999.8261, 3.686348
1000.308, 2.318665
1000.790, 0.9858680
1001.272, 0.2080020
1001.755, 1.037252
1002.237, 2.424618
1002.719, 3.238214
1003.201, 3.080643
1003.683, 2.979956
1004.165, 2.916990
1004.647, 3.154108
1005.129, 4.249521
1005.612, 5.679970
1006.094, 5.654108
1006.576, 4.474682
1007.058, 3.595470
1007.540, 4.152056
1008.022, 4.820763
1008.504, 5.218239
1008.986, 5.167234
1009.468, 3.989895
1009.951, 1.341820
1010.433, 0.6278970
1010.915, 2.783566
1011.397, 5.330864
1011.879, 5.438824
1012.361, 4.313683
1012.843, 3.332853
1013.325, 2.697800
1013.807, 2.206224
1014.290, 1.977642
1014.772, 1.714149
1015.254, 1.161144
1015.736, 0.4954220
1016.218, 0.1946260
1016.700, 0.2129500
1017.182, 0.2625940
1017.664, 0.1517140
1018.147, 0.1048890
1018.629, 1.620304
1019.111, 3.962376
1019.593, 5.296440
1020.075, 5.371365
1020.557, 5.021404
1021.039, 4.247353
1021.521, 3.188234
1022.003, 1.293726
1022.486, 0.5043180
1022.968, 1.4006000E-02
1023.450, 2.618872
1023.932, 4.504782
1024.414, 4.062395
1024.896, 3.209486
1025.378, 2.380629
1025.860, 1.697540
1026.343, 1.630417
1026.825, 2.118391
1027.307, 2.363430
1027.789, 2.060701
1028.271, 1.805370
1028.753, 2.356319
1029.235, 3.088795
1029.717, 3.272152
1030.199, 2.644205
1030.682, 1.951456
1031.164, 0.9502720
1031.646, 0.5610810
1032.128, 1.934963
1032.610, 4.131550
1033.092, 4.426794
1033.574, 3.312172
1034.056, 2.598392
1034.539, 3.265280
1035.021, 4.283298
1035.503, 6.003250
1035.985, 7.487041
1036.467, 7.185911
1036.949, 5.040228
1037.431, 3.350727
1037.913, 2.369320
1038.396, 1.954315
1038.878, 2.462017
1039.360, 3.120756
1039.842, 3.156958
1040.324, 2.503654
1040.806, 1.890371
1041.288, 1.267437
1041.770, 0.9100020
1042.252, 0.9455890
1042.734, 1.225286
1043.217, 1.558306
1043.699, 1.875320
1044.181, 2.045307
1044.663, 1.864542
1045.145, 1.608187
1045.627, 1.430567
1046.109, 1.341106
1046.591, 1.359053
1047.074, 1.488073
1047.556, 1.554564
1048.038, 1.561602
1048.520, 1.794188
1049.002, 2.769102
1049.484, 3.756149
1049.966, 4.026575
1050.448, 3.799353
1050.931, 3.712111
1051.413, 3.887699
1051.895, 4.130629
1052.377, 4.522787
1052.859, 4.711760
1053.341, 4.068106
1053.823, 2.956316
1054.305, 2.113846
1054.787, 1.624311
1055.270, 1.469011
1055.752, 1.774214
1056.234, 2.317675
1056.716, 3.090797
1057.198, 3.976622
1057.680, 4.661877
1058.162, 5.111301
1058.644, 4.723806
1059.126, 2.960712
1059.609, 1.192783
1060.091, 0.7351490
1060.573, 0.9009380
1061.055, 0.8911290
1061.537, 0.4283960
1062.019, 0.6490970
1062.501, 1.709709
1062.983, 2.885412
1063.466, 4.208006
1063.948, 5.048208
1064.430, 3.574455
1064.912, 0.5736310
1065.394, 1.602280
1065.876, 1.459259
1066.358, 1.188229
1066.840, 1.440367
1067.323, 1.448261
1067.805, 0.3054680
1068.287, 3.391361
1068.769, 4.279530
1069.251, 2.696962
1069.733, 1.116394
1070.215, 1.809584
1070.697, 2.593901
1071.179, 1.492476
1071.661, 0.8415600
1072.144, 1.298206
1072.626, 0.4422400
1073.108, 1.875286
1073.590, 2.269011
1074.072, 2.369843
1074.554, 3.464016
1075.036, 4.658569
1075.518, 4.579197
1076.001, 2.572491
1076.483, 1.311069
1076.965, 1.186472
1077.447, 1.380001
1077.929, 1.491047
1078.411, 1.616703
1078.893, 2.175970
1079.375, 3.008070
1079.858, 3.574606
1080.340, 3.258875
1080.822, 3.198551
1081.304, 4.111252
1081.786, 5.207697
1082.268, 5.877035
1082.750, 6.046616
1083.232, 5.444418
1083.714, 4.109188
1084.197, 2.919621
1084.679, 2.474108
1085.161, 2.571114
1085.643, 3.171032
1086.125, 3.809692
1086.607, 3.729061
1087.089, 2.587830
1087.571, 1.965069
1088.054, 2.211071
1088.536, 2.596045
1089.018, 1.917774
1089.500, 0.9344040
1089.982, 0.8209400
1090.464, 1.710325
1090.946, 2.587709
1091.428, 3.354408
1091.911, 3.911703
1092.393, 4.198370
1092.875, 4.285210
1093.357, 4.365671
1093.839, 4.390635
1094.321, 4.115450
1094.803, 3.249327
1095.285, 2.809778
1095.767, 4.161934
1096.250, 5.274551
1096.732, 4.431431
1097.214, 1.816870
1097.696, 1.514284
1098.178, 3.390293
1098.660, 4.682362
1099.142, 3.404909
1099.624, 1.682899
1100.106, 1.212416
1100.589, 1.356482
1101.071, 0.8277780
1101.553, 1.085861
1102.035, 1.142952
1102.517, 0.9853310
1102.999, 3.453682
1103.481, 5.274887
1103.963, 6.140377
1104.446, 4.932394
1104.928, 2.243881
1105.410, 0.5163020
1105.892, 0.7169000
1106.374, 1.308764
1106.856, 2.340998
1107.338, 3.230661
1107.820, 2.889990
1108.302, 1.862913
1108.785, 1.442678
1109.267, 1.782467
1109.749, 2.412239
1110.231, 3.754675
1110.713, 4.581575
1111.195, 4.236767
1111.677, 3.232597
1112.159, 3.164242
1112.641, 3.825872
1113.124, 3.812510
1113.606, 2.567045
1114.088, 1.483418
1114.570, 1.746202
1115.052, 2.352421
1115.534, 2.427238
1116.016, 2.000128
1116.498, 2.266094
1116.981, 3.260664
1117.463, 3.867405
1117.945, 3.271173
1118.427, 2.601450
1118.909, 3.266684
1119.391, 4.454632
1119.873, 4.993626
1120.355, 4.610880
1120.838, 3.943989
1121.320, 2.868200
1121.802, 2.047024
1122.284, 2.223999
1122.766, 2.762676
1123.248, 2.314615
1123.730, 1.434822
1124.212, 1.427916
1124.694, 4.128668
1125.177, 5.368193
1125.659, 4.418777
1126.141, 2.939943
1126.623, 2.727312
1127.105, 3.409391
1127.587, 4.270653
1128.069, 5.166948
1128.551, 5.416519
1129.033, 4.125143
1129.516, 2.834614
1129.998, 1.917059
1130.480, 1.386507
1130.962, 1.143923
1131.444, 1.153887
1131.926, 1.304579
1132.408, 1.595774
1132.890, 1.657984
1133.373, 0.8431530
1133.855, 0.1524730
1134.337, 0.1579020
1134.819, 0.7236730
1135.301, 1.698458
1135.783, 3.031307
1136.265, 3.234650
1136.747, 1.727558
1137.229, 0.2208860
1137.712, 0.8763140
1138.194, 1.966574
1138.676, 1.625647
1139.158, 0.1734960
1139.640, 0.9243680
1140.122, 0.5619130
1140.604, 0.2713380
1141.086, 1.790606
1141.569, 2.794985
1142.051, 0.8187450
1142.533, 1.962528
1143.015, 2.326035
1143.497, 1.418474
1143.979, 3.154795
1144.461, 2.493113
1144.943, 1.285589
1145.426, 0.3638650
1145.908, 0.1609290
1146.390, 0.1936040
1146.872, 1.054098
1147.354, 1.643724
1147.836, 1.254210
1148.318, 1.420265
1148.800, 2.454315
1149.282, 3.396147
1149.765, 3.258469
1150.247, 2.501516
1150.729, 2.183554
1151.211, 2.208042
1151.693, 2.069010
1152.175, 0.7426680
1152.657, 0.5854400
1153.139, 2.598356
1153.621, 4.823126
1154.104, 4.547188
1154.586, 2.566011
1155.068, 1.463604
1155.550, 1.372572
1156.032, 1.755390
1156.514, 3.438782
1156.996, 4.070086
1157.478, 2.184330
1157.961, 0.3629530
1158.443, 0.3682540
1158.925, 3.622255
1159.407, 4.784782
1159.889, 3.223877
1160.371, 1.859226
1160.853, 2.878431
1161.335, 3.912003
1161.818, 3.578325
1162.300, 2.405987
1162.782, 1.967026
1163.264, 2.198408
1163.746, 2.283737
1164.228, 1.999737
1164.710, 1.820906
1165.192, 1.990084
1165.674, 2.503933
1166.156, 3.652224
1166.639, 5.200476
1167.121, 5.481634
1167.603, 4.502243
1168.085, 3.686535
1168.567, 3.519718
1169.049, 3.542994
1169.531, 3.390669
1170.013, 3.214407
1170.496, 3.079138
1170.978, 2.972912
1171.460, 3.762777
1171.942, 5.559258
1172.424, 6.249107
1172.906, 4.260246
1173.388, 1.970526
1173.870, 1.806335
1174.353, 2.734221
1174.835, 3.407665
1175.317, 3.727913
1175.799, 3.763912
1176.281, 3.480261
1176.763, 3.207781
1177.245, 3.306307
1177.727, 3.320623
1178.209, 2.170189
1178.692, 0.7625890
1179.174, 0.7866130
1179.656, 3.241159
1180.138, 4.855150
1180.620, 5.612631
1181.102, 5.673618
1181.584, 4.495159
1182.066, 3.191124
1182.548, 3.499306
1183.031, 4.740929
1183.513, 5.384094
1183.995, 4.815281
1184.477, 4.566847
1184.959, 4.804796
1185.441, 4.952030
1185.923, 4.232342
1186.405, 3.295156
1186.888, 2.977919
1187.370, 3.236917
1187.852, 3.906839
1188.334, 5.731436
1188.816, 6.157223
1189.298, 4.639215
1189.780, 2.753193
1190.262, 1.971642
1190.745, 1.958303
1191.227, 2.420776
1191.709, 3.209833
1192.191, 3.902403
1192.673, 5.038851
1193.155, 4.538061
1193.637, 1.398392
1194.119, 1.590088
1194.601, 0.4327600
1195.084, 2.705486
1195.566, 4.528378
1196.048, 4.835861
1196.530, 4.567093
1197.012, 3.374321
1197.494, 2.719475
1197.976, 3.140932
1198.458, 3.837391
1198.941, 3.498388
1199.423, 2.645510
1199.905, 2.224125
1200.387, 2.186974
1200.869, 1.889711
1201.351, 0.9587210
1201.833, 0.6609440
1202.315, 1.530638
1202.797, 2.807732
1203.280, 3.265547
1203.762, 3.238831
1204.244, 3.393110
1204.726, 3.820194
1205.208, 4.089577
1205.690, 4.033880
1206.172, 3.990246
1206.654, 3.982243
1207.136, 4.179935
1207.619, 5.652964
1208.101, 7.253706
1208.583, 6.518366
1209.065, 2.554005
1209.547, 5.2345000E-02
1210.029, 0.1188870
1210.511, 0.7047900
1210.993, 2.505486
1211.476, 4.325932
1211.958, 3.972841
1212.440, 2.557161
1212.922, 2.314587
1213.404, 4.135212
1213.886, 4.465981
1214.368, 2.128525
1214.850, 0.3265760
1215.333, 0.5819530
1215.815, 1.804581
1216.297, 2.330418
1216.779, 2.389980
1217.261, 2.508842
1217.743, 2.939089
1218.225, 2.716919
1218.707, 1.393682
1219.189, 0.6525940
1219.672, 1.358353
1220.154, 2.633762
1220.636, 2.564728
1221.118, 1.778652
1221.600, 1.388920
1222.082, 1.766693
1222.564, 2.220222
1223.046, 2.678246
1223.528, 3.333151
1224.011, 4.503983
1224.493, 5.708239
1224.975, 6.075836
1225.457, 5.755478
1225.939, 4.821417
1226.421, 2.671663
1226.903, 1.801802
1227.385, 2.582159
1227.868, 3.397602
1228.350, 3.446184
1228.832, 2.901020
1229.314, 1.578917
1229.796, 9.3769999E-03
1230.278, 0.9406570
1230.760, 1.258862
1231.242, 0.1173420
1231.724, 2.931980
1232.207, 5.323538
1232.689, 5.133385
1233.171, 3.879688
1233.653, 3.294331
1234.135, 3.112040
1234.617, 2.858898
1235.099, 2.339478
1235.581, 2.261461
1236.063, 2.699236
1236.546, 3.064529
1237.028, 2.851860
1237.510, 2.531469
1237.992, 2.911356
1238.474, 3.400360
1238.956, 2.813406
1239.438, 0.5179630
1239.920, 0.1557870
1240.403, 0.8974210
1240.885, 2.244238
1241.367, 3.215801
1241.849, 3.827852
1242.331, 4.053770
1242.813, 3.916452
1243.295, 3.367973
1243.777, 2.215858
1244.260, 1.800863
1244.742, 2.120762
1245.224, 2.840300
1245.706, 4.456400
1246.188, 5.665888
1246.670, 5.516375
1247.152, 4.425323
1247.634, 2.858774
1248.116, 0.6789700
1248.599, 0.1343560
1249.081, 0.5314620
1249.563, 1.149067
1250.045, 0.3994010
1250.527, 0.2548240
1251.009, 0.1024700
1251.491, 0.8520770
1251.973, 1.398127
1252.455, 1.744888
1252.938, 2.165710
1253.420, 2.607798
1253.902, 2.662827
1254.384, 1.590115
1254.866, 0.7500970
1255.348, 0.6143230
1255.830, 0.9389530
1256.313, 1.782433
1256.795, 2.960970
1257.277, 3.150204
1257.759, 2.552588
1258.241, 2.324078
1258.723, 3.558050
1259.205, 4.435520
1259.687, 4.696161
1260.169, 4.399637
1260.651, 3.262602
1261.134, 1.671518
1261.616, 0.7235340
1262.098, 0.4302560
1262.580, 0.7446630
1263.062, 2.504471
1263.544, 3.542212
1264.026, 3.582100
1264.508, 3.132069
1264.991, 2.246843
1265.473, 1.364828
1265.955, 1.449673
1266.437, 2.219061
1266.919, 2.736441
1267.401, 3.431664
1267.883, 3.895458
1268.365, 4.167128
1268.848, 3.919014
1269.330, 2.126600
1269.812, 0.2790660
1270.294, 0.7970280
1270.776, 2.627651
1271.258, 3.312937
1271.740, 1.927147
1272.222, 1.931129
1272.704, 3.523886
1273.187, 4.728079
1273.669, 3.382034
1274.151, 1.832727
1274.633, 3.005569
1275.115, 4.914602
1275.597, 4.044676
1276.079, 0.4518090
1276.561, 1.719397
1277.043, 0.1077100
1277.526, 1.900488
1278.008, 1.116018
1278.490, 0.2984700
1278.972, 1.108826
1279.454, 2.531336
1279.936, 3.820080
1280.418, 4.915827
1280.900, 3.808670
1281.383, 0.9607180
1281.865, 0.6726760
1282.347, 1.753824
1282.829, 3.644609
1283.311, 3.021385
1283.793, 1.875942
1284.275, 1.596899
1284.757, 2.035913
1285.240, 2.927904
1285.722, 4.012766
1286.204, 4.411654
1286.686, 3.017862
1287.168, 2.389788
1287.650, 3.172569
1288.132, 3.866251
1288.614, 3.153570
1289.096, 1.862953
1289.578, 1.620728
1290.061, 1.741329
1290.543, 2.166220
1291.025, 2.093903
1291.507, 2.157602
1291.989, 2.354929
1292.471, 2.491064
1292.953, 3.216265
1293.435, 3.858456
1293.918, 3.692305
1294.400, 3.169989
1294.882, 3.001259
1295.364, 3.282808
1295.846, 3.280365
1296.328, 2.994333
1296.810, 2.590807
1297.292, 1.796139
1297.775, 1.415810
1298.257, 2.388231
1298.739, 3.844013
1299.221, 5.159443
1299.703, 6.255575
1300.185, 5.972071
1300.667, 4.500824
1301.149, 2.809649
1301.631, 0.8131180
1302.114, 2.4393000E-02
1302.596, 0.0000000E+00
##END=



