##NAMES=Destinezite
##RRUFFID=R050631
##IDEAL CHEMISTRY=Fe^3+^_2_(PO_4_)(SO_4_)(OH)&#183;6H_2_O
##LOCALITY=Patagonia Mountains, Arizona, USA
##OWNER=RRUFF
##SOURCE=University of Arizona Mineral Museum
##DESCRIPTION=Colorless acicular crystal
##STATUS=The identification of this mineral has been confirmed by X-ray diffraction.
##URL=rruff.info/R050631
151.0105, 0.0000000E+00
151.4926, 7.532349
151.9747, 6.963989
152.4568, 7.936157
152.9389, 12.01685
153.4210, 17.41553
153.9032, 20.24805
154.3853, 17.28406
154.8674, 13.90393
155.3495, 13.10132
155.8316, 16.07996
156.3137, 18.37219
156.7959, 18.36255
157.2780, 17.06702
157.7601, 16.31482
158.2422, 18.36572
158.7243, 21.80640
159.2065, 26.51440
159.6886, 28.30676
160.1707, 29.65613
160.6528, 34.31812
161.1349, 38.76636
161.6170, 38.31140
162.0992, 36.72986
162.5813, 34.93054
163.0634, 32.85400
163.5455, 31.38574
164.0276, 29.69141
164.5097, 26.48438
164.9919, 21.58508
165.4740, 16.19678
165.9561, 9.869141
166.4382, 4.053711
166.9203, 5.1879998E-02
167.4024, 1.406860
167.8846, 1.971069
168.3667, 2.235596
168.8488, 2.243408
169.3309, 2.526733
169.8130, 4.541382
170.2952, 6.715576
170.7773, 7.045776
171.2594, 2.829712
171.7415, 1.904175
172.2236, 3.468384
172.7057, 2.031128
173.1879, 0.1840820
173.6700, 0.6325680
174.1521, 0.5350340
174.6342, 0.2762450
175.1163, 3.072998
175.5984, 5.880493
176.0806, 5.669556
176.5627, 2.416626
177.0448, 0.7316890
177.5269, 0.9088130
178.0090, 1.152588
178.4911, 3.753052
178.9733, 6.793213
179.4554, 9.714355
179.9375, 11.59106
180.4196, 12.36755
180.9017, 12.62988
181.3838, 12.61792
181.8660, 12.49866
182.3481, 12.86023
182.8302, 13.57092
183.3123, 15.00427
183.7944, 18.50623
184.2766, 24.49402
184.7587, 30.76550
185.2408, 34.33313
185.7229, 35.59326
186.2050, 37.15491
186.6871, 40.59216
187.1693, 45.42395
187.6514, 49.58179
188.1335, 52.91321
188.6156, 55.95239
189.0977, 59.24756
189.5798, 62.79773
190.0620, 67.16052
190.5441, 73.45569
191.0262, 81.21399
191.5083, 87.01001
191.9904, 90.27075
192.4725, 92.64014
192.9547, 96.87744
193.4368, 103.0598
193.9189, 110.0121
194.4010, 116.9596
194.8831, 123.9788
195.3652, 132.3624
195.8474, 142.5168
196.3295, 153.5802
196.8116, 164.0126
197.2937, 173.7820
197.7758, 182.9552
198.2579, 190.8744
198.7401, 197.4705
199.2222, 205.9211
199.7043, 216.7994
200.1864, 229.0455
200.6685, 240.6012
201.1507, 251.4594
201.6328, 261.2842
202.1149, 270.1842
202.5970, 278.3057
203.0791, 283.9586
203.5612, 286.7738
204.0434, 287.1809
204.5255, 286.4185
205.0076, 284.7501
205.4897, 281.0726
205.9718, 274.3313
206.4539, 264.1000
206.9361, 253.4014
207.4182, 242.2720
207.9003, 230.9917
208.3824, 220.2131
208.8645, 210.9852
209.3466, 201.5999
209.8288, 191.2061
210.3109, 179.3848
210.7930, 168.4756
211.2751, 159.0177
211.7572, 150.5586
212.2393, 140.7457
212.7215, 128.8656
213.2036, 117.3931
213.6857, 108.2581
214.1678, 102.3541
214.6499, 95.48523
215.1320, 86.57336
215.6142, 76.39673
216.0963, 68.77673
216.5784, 64.72913
217.0605, 61.31006
217.5426, 56.34314
218.0247, 48.76294
218.5069, 43.01379
218.9890, 39.90112
219.4711, 38.98206
219.9532, 37.98059
220.4353, 36.68188
220.9175, 35.66602
221.3996, 35.31213
221.8817, 35.73865
222.3638, 36.54956
222.8459, 37.84827
223.3280, 39.51074
223.8102, 40.67578
224.2923, 40.86621
224.7744, 41.16418
225.2565, 42.44031
225.7386, 45.15466
226.2207, 47.84473
226.7029, 50.27478
227.1850, 52.54810
227.6671, 55.20642
228.1492, 58.98450
228.6313, 62.19104
229.1134, 63.93005
229.5956, 63.53027
230.0777, 62.81018
230.5598, 61.62646
231.0419, 60.16882
231.5240, 59.41333
232.0062, 59.69678
232.4883, 60.33374
232.9704, 60.85669
233.4525, 60.84875
233.9346, 61.66736
234.4167, 63.81702
234.8989, 66.88892
235.3810, 68.94592
235.8631, 69.35608
236.3452, 69.66064
236.8273, 70.72571
237.3094, 72.64148
237.7916, 75.02136
238.2737, 77.98071
238.7558, 81.38013
239.2379, 84.83423
239.7200, 88.89954
240.2021, 92.24805
240.6843, 94.05505
241.1664, 93.42651
241.6485, 93.25085
242.1306, 93.87561
242.6127, 95.05933
243.0948, 95.83716
243.5770, 95.84937
244.0591, 96.01550
244.5412, 96.94287
245.0233, 99.42249
245.5054, 100.9243
245.9876, 100.8964
246.4697, 99.92346
246.9518, 99.95508
247.4339, 101.8370
247.9160, 103.4673
248.3981, 103.4589
248.8803, 99.96777
249.3624, 99.32837
249.8445, 102.6841
250.3266, 108.6633
250.8087, 113.6698
251.2908, 117.6476
251.7730, 120.6145
252.2551, 122.3549
252.7372, 122.1914
253.2193, 122.6031
253.7014, 124.0753
254.1835, 125.8933
254.6657, 126.2355
255.1478, 124.1846
255.6299, 122.2841
256.1120, 121.7504
256.5941, 123.3058
257.0763, 123.8711
257.5584, 122.9164
258.0405, 121.3314
258.5226, 121.0625
259.0047, 122.8972
259.4868, 124.4126
259.9690, 124.2010
260.4511, 121.3052
260.9332, 121.3149
261.4153, 125.3523
261.8974, 131.3124
262.3795, 135.4241
262.8617, 136.8356
263.3438, 138.5551
263.8259, 141.5376
264.3080, 145.8346
264.7901, 151.0548
265.2722, 157.7653
265.7544, 164.7412
266.2365, 169.8832
266.7186, 172.5841
267.2007, 175.6805
267.6828, 180.3785
268.1649, 186.8000
268.6471, 191.6062
269.1292, 193.9032
269.6113, 195.6438
270.0934, 198.7815
270.5755, 203.6952
271.0576, 209.1538
271.5398, 214.7563
272.0219, 220.4478
272.5040, 225.2188
272.9861, 228.7123
273.4682, 231.8525
273.9503, 235.5795
274.4325, 239.9170
274.9146, 244.6257
275.3967, 249.6528
275.8788, 254.9885
276.3610, 260.4869
276.8431, 265.9330
277.3252, 271.7004
277.8073, 278.5192
278.2894, 286.6158
278.7715, 293.8076
279.2537, 299.1879
279.7358, 303.4155
280.2179, 309.7164
280.7000, 318.5562
281.1821, 327.4791
281.6642, 334.5786
282.1464, 339.8499
282.6285, 344.4384
283.1106, 348.2170
283.5927, 351.7335
284.0748, 356.6450
284.5569, 363.0865
285.0391, 369.7996
285.5212, 375.9683
286.0033, 381.6185
286.4854, 387.4731
286.9675, 393.8809
287.4496, 399.9470
287.9318, 403.8619
288.4139, 405.6467
288.8960, 406.7675
289.3781, 408.1118
289.8602, 409.5872
290.3423, 410.6910
290.8245, 411.3962
291.3066, 411.7482
291.7887, 411.5601
292.2708, 410.9242
292.7529, 410.6108
293.2350, 410.8630
293.7172, 411.7667
294.1993, 414.0203
294.6814, 417.9899
295.1635, 421.7532
295.6456, 422.0682
296.1277, 419.7434
296.6099, 418.2502
297.0920, 420.0317
297.5741, 423.5541
298.0562, 426.1567
298.5383, 427.8142
299.0204, 428.0753
299.5026, 426.4939
299.9847, 423.1646
300.4668, 418.2250
300.9489, 411.2504
301.4311, 403.0431
301.9132, 395.4821
302.3953, 388.4202
302.8774, 379.5796
303.3595, 365.4783
303.8416, 348.5271
304.3238, 332.7109
304.8059, 321.2969
305.2880, 309.9972
305.7701, 293.6736
306.2522, 272.9968
306.7343, 253.0792
307.2165, 237.6047
307.6986, 224.5073
308.1807, 211.1628
308.6628, 196.5052
309.1449, 181.7910
309.6270, 167.2935
310.1092, 153.1569
310.5913, 140.3353
311.0734, 129.8986
311.5555, 120.6378
312.0376, 111.6649
312.5197, 102.7579
313.0019, 94.22083
313.4840, 85.78149
313.9661, 77.72119
314.4482, 70.53455
314.9303, 64.35962
315.4124, 59.17871
315.8946, 55.60437
316.3767, 54.23401
316.8588, 51.73608
317.3409, 45.84607
317.8230, 38.25586
318.3051, 31.21814
318.7873, 25.87646
319.2694, 20.75024
319.7515, 14.38770
320.2336, 6.456787
320.7157, 1.375488
321.1978, 3.157715
321.6800, 7.108398
322.1621, 8.988281
322.6442, 6.130249
323.1263, 2.992432
323.6084, 0.4151610
324.0905, 1.591431
324.5727, 3.227417
325.0548, 6.122314
325.5369, 7.609009
326.0190, 6.057983
326.5012, 5.405273
326.9833, 12.06799
327.4654, 10.20129
327.9475, 1.968994
328.4296, 3.940796
328.9117, 6.288208
329.3939, 7.400757
329.8760, 8.169800
330.3581, 8.406860
330.8402, 8.696167
331.3223, 9.157837
331.8044, 9.673950
332.2866, 10.04285
332.7687, 10.61499
333.2508, 10.56250
333.7329, 9.312500
334.2150, 6.315063
334.6971, 4.955078
335.1793, 5.939453
335.6614, 7.855835
336.1435, 8.857056
336.6256, 8.671997
337.1077, 8.236206
337.5898, 7.768555
338.0720, 7.229004
338.5541, 6.281860
339.0362, 4.722046
339.5183, 3.097412
340.0004, 1.945313
340.4825, 1.289917
340.9647, 0.6778560
341.4468, 4.6997000E-02
341.9289, 0.7471920
342.4110, 0.8106690
342.8931, 0.1121830
343.3752, 0.4890140
343.8574, 0.6444090
344.3395, 0.3375240
344.8216, 1.082275
345.3037, 3.831177
345.7858, 7.344482
346.2679, 10.81726
346.7501, 14.25586
347.2322, 17.46094
347.7143, 19.82178
348.1964, 21.84631
348.6785, 25.97729
349.1607, 32.84204
349.6428, 38.88342
350.1249, 38.85645
350.6070, 34.52905
351.0891, 31.44446
351.5713, 32.36646
352.0534, 35.63428
352.5355, 39.33850
353.0176, 43.40662
353.4997, 47.07947
353.9818, 49.10583
354.4640, 50.47791
354.9461, 52.89685
355.4282, 57.76538
355.9103, 62.64270
356.3924, 64.85681
356.8745, 65.06152
357.3567, 65.77698
357.8388, 69.25635
358.3209, 73.41931
358.8030, 76.35730
359.2851, 77.23999
359.7672, 78.15723
360.2494, 80.50439
360.7315, 83.65637
361.2136, 86.41931
361.6957, 87.63879
362.1778, 88.95618
362.6599, 91.54065
363.1421, 95.74292
363.6242, 99.04114
364.1063, 100.2451
364.5884, 100.3390
365.0705, 100.3138
365.5526, 100.6725
366.0348, 100.5983
366.5169, 99.45874
366.9990, 97.35938
367.4811, 96.17175
367.9632, 97.24121
368.4453, 98.46069
368.9275, 98.62524
369.4096, 97.42358
369.8917, 95.58826
370.3738, 92.83557
370.8559, 89.45630
371.3380, 86.29797
371.8202, 83.39575
372.3023, 80.64343
372.7844, 78.14038
373.2665, 76.13550
373.7487, 73.34961
374.2308, 69.38293
374.7129, 65.05139
375.1950, 61.35571
375.6771, 58.32556
376.1592, 55.87158
376.6414, 54.13367
377.1235, 53.02612
377.6056, 51.58765
378.0877, 49.79236
378.5698, 47.71973
379.0519, 45.02063
379.5341, 41.71716
380.0162, 40.14319
380.4983, 41.56885
380.9804, 43.87939
381.4625, 41.58887
381.9446, 34.66357
382.4268, 27.50513
382.9089, 22.45972
383.3910, 19.28577
383.8731, 17.31519
384.3552, 17.07666
384.8373, 16.83618
385.3195, 14.28723
385.8016, 10.32202
386.2837, 7.345703
386.7658, 7.626587
387.2479, 9.383545
387.7300, 10.46716
388.2122, 10.90710
388.6943, 11.05774
389.1764, 11.32837
389.6585, 11.39160
390.1406, 10.75525
390.6227, 8.813110
391.1049, 6.818481
391.5870, 5.629272
392.0691, 5.219482
392.5512, 5.075684
393.0333, 4.802124
393.5154, 4.572632
393.9976, 4.593872
394.4797, 4.981201
394.9618, 5.641235
395.4439, 6.691406
395.9260, 7.962769
396.4081, 9.244141
396.8903, 10.40125
397.3724, 11.76562
397.8545, 13.50818
398.3366, 15.61938
398.8188, 17.58337
399.3009, 19.39941
399.7830, 21.04297
400.2651, 22.42896
400.7472, 22.97986
401.2293, 24.03345
401.7115, 25.85779
402.1936, 28.26550
402.6757, 30.69421
403.1578, 33.13965
403.6399, 35.44995
404.1220, 37.46301
404.6042, 39.07568
405.0863, 41.16321
405.5684, 44.09558
406.0505, 46.86133
406.5326, 47.92615
407.0147, 47.07227
407.4969, 46.15076
407.9790, 45.44934
408.4611, 45.11865
408.9432, 46.03406
409.4253, 48.31494
409.9074, 50.63123
410.3896, 51.72949
410.8717, 51.92627
411.3538, 52.67639
411.8359, 54.30469
412.3180, 56.24756
412.8001, 58.04260
413.2823, 59.53821
413.7644, 60.29211
414.2465, 59.35730
414.7286, 57.83508
415.2107, 57.02429
415.6928, 56.97888
416.1750, 57.76306
416.6571, 60.11841
417.1392, 63.12354
417.6213, 65.64099
418.1034, 67.39282
418.5855, 68.40332
419.0677, 68.19324
419.5498, 67.10486
420.0319, 66.41174
420.5140, 67.39429
420.9961, 68.39050
421.4782, 68.07104
421.9604, 65.20630
422.4425, 63.87708
422.9246, 66.61353
423.4067, 70.93359
423.8889, 73.46631
424.3710, 71.31653
424.8531, 69.94141
425.3352, 70.94067
425.8173, 74.32483
426.2994, 76.64685
426.7816, 77.10327
427.2637, 77.28748
427.7458, 78.30237
428.2279, 80.74500
428.7100, 82.57629
429.1921, 83.50012
429.6743, 83.83972
430.1564, 84.36523
430.6385, 85.22034
431.1206, 85.70630
431.6027, 85.34790
432.0848, 84.19824
432.5670, 83.73438
433.0491, 84.17847
433.5312, 84.39905
434.0133, 82.41467
434.4954, 78.73096
434.9775, 76.87903
435.4597, 78.17700
435.9418, 81.19592
436.4239, 83.86169
436.9060, 86.11731
437.3881, 87.75684
437.8702, 88.64441
438.3524, 88.81384
438.8345, 87.75708
439.3166, 85.07947
439.7987, 83.44092
440.2808, 85.81348
440.7629, 90.44702
441.2451, 94.59204
441.7272, 96.68115
442.2093, 98.41113
442.6914, 100.5720
443.1735, 103.1368
443.6556, 105.8597
444.1378, 108.2332
444.6199, 111.0559
445.1020, 114.9011
445.5841, 120.4559
446.0662, 125.9160
446.5483, 130.9364
447.0305, 135.7904
447.5126, 140.9418
447.9947, 145.9648
448.4768, 151.7102
448.9590, 158.5228
449.4411, 166.4092
449.9232, 174.3387
450.4053, 182.2607
450.8874, 190.2651
451.3695, 198.0834
451.8517, 205.4341
452.3338, 214.6046
452.8159, 226.3226
453.2980, 239.1371
453.7801, 250.2463
454.2622, 259.4750
454.7444, 268.5962
455.2265, 278.1448
455.7086, 288.0634
456.1907, 298.3861
456.6728, 309.3241
457.1549, 319.5278
457.6371, 327.4324
458.1192, 333.9341
458.6013, 341.5020
459.0834, 351.2498
459.5655, 360.8500
460.0476, 367.5035
460.5298, 372.1121
461.0119, 376.8676
461.4940, 383.5643
461.9761, 390.6611
462.4582, 397.3900
462.9403, 403.8008
463.4225, 408.1340
463.9046, 409.1372
464.3867, 408.1145
464.8688, 406.2692
465.3509, 403.3501
465.8330, 400.2717
466.3152, 397.9492
466.7973, 395.7512
467.2794, 391.4904
467.7615, 382.9368
468.2436, 374.3195
468.7257, 367.2704
469.2079, 362.5826
469.6900, 356.1500
470.1721, 347.4509
470.6542, 337.6097
471.1363, 327.8771
471.6184, 318.5076
472.1006, 308.0631
472.5827, 295.7830
473.0648, 282.5812
473.5469, 271.7363
474.0291, 263.4989
474.5112, 254.7427
474.9933, 242.9246
475.4754, 228.9327
475.9575, 216.7317
476.4396, 206.5942
476.9218, 197.2028
477.4039, 186.9254
477.8860, 176.3901
478.3681, 167.2611
478.8502, 160.8021
479.3323, 155.0343
479.8145, 148.1608
480.2966, 140.2753
480.7787, 132.1117
481.2608, 122.9153
481.7429, 114.1711
482.2250, 107.1008
482.7072, 102.0857
483.1893, 97.28455
483.6714, 92.29675
484.1535, 87.10571
484.6356, 81.70483
485.1177, 75.60193
485.5999, 69.83496
486.0820, 64.48022
486.5641, 59.61243
487.0462, 55.43848
487.5283, 52.85254
488.0104, 49.77466
488.4926, 44.97595
488.9747, 37.95300
489.4568, 32.86304
489.9389, 30.18396
490.4210, 28.65295
490.9031, 26.92590
491.3853, 24.94861
491.8674, 23.57434
492.3495, 23.33887
492.8316, 23.35840
493.3137, 21.16492
493.7958, 16.97424
494.2780, 13.39832
494.7601, 12.73840
495.2422, 13.54321
495.7243, 12.81299
496.2064, 10.33252
496.6885, 8.088135
497.1707, 8.296387
497.6528, 9.490356
498.1349, 9.473389
498.6170, 5.981079
499.0992, 3.551514
499.5813, 6.583740
500.0634, 12.62769
500.5455, 15.70752
501.0276, 11.05408
501.5097, 5.575317
501.9919, 1.906250
502.4740, 0.4228520
502.9561, 0.4337160
503.4382, 0.1763920
503.9203, 0.2294920
504.4024, 0.1036380
504.8846, 0.8859860
505.3667, 1.685791
505.8488, 2.117798
506.3309, 2.385742
506.8130, 3.046753
507.2951, 4.260132
507.7773, 5.082275
508.2594, 4.865845
508.7415, 3.907715
509.2236, 4.124512
509.7057, 5.596436
510.1878, 7.184082
510.6700, 7.852417
511.1521, 7.885620
511.6342, 8.310181
512.1163, 9.484741
512.5984, 10.32019
513.0806, 9.419067
513.5627, 7.333862
514.0448, 5.220581
514.5269, 3.140137
515.0090, 1.579712
515.4911, 1.413330
515.9733, 2.354980
516.4554, 2.477417
516.9375, 0.3776860
517.4196, 3.221313
517.9017, 4.117310
518.3839, 1.852173
518.8660, 4.3334998E-02
519.3481, 1.090088
519.8302, 1.497559
520.3123, 0.9754640
520.7944, 1.381714
521.2766, 3.041992
521.7587, 3.494263
522.2408, 3.011597
522.7229, 2.388184
523.2050, 1.359985
523.6871, 1.261597
524.1693, 3.319214
524.6514, 7.286743
525.1335, 10.11853
525.6156, 11.68640
526.0977, 13.04858
526.5798, 15.70972
527.0620, 19.09204
527.5441, 21.23340
528.0262, 21.05493
528.5083, 20.71777
528.9904, 22.68335
529.4725, 26.28625
529.9547, 29.92822
530.4368, 32.50537
530.9189, 35.05347
531.4010, 38.48572
531.8831, 42.81921
532.3652, 46.36548
532.8474, 47.06116
533.3295, 47.88281
533.8116, 50.90955
534.2937, 58.84631
534.7758, 64.71313
535.2579, 67.32910
535.7401, 68.32312
536.2222, 69.82104
536.7043, 71.70813
537.1864, 74.61633
537.6685, 79.28259
538.1506, 85.05090
538.6328, 88.07825
539.1149, 87.88757
539.5970, 88.23193
540.0791, 91.89844
540.5612, 98.18091
541.0433, 103.6814
541.5255, 108.2659
542.0076, 112.0956
542.4897, 114.2833
542.9718, 115.9719
543.4539, 119.7666
543.9360, 127.5634
544.4182, 135.4331
544.9003, 139.8188
545.3824, 141.8606
545.8645, 144.1094
546.3466, 148.3733
546.8287, 152.3551
547.3109, 154.8458
547.7930, 155.7446
548.2751, 156.5245
548.7572, 156.9043
549.2393, 157.6201
549.7214, 159.1759
550.2036, 162.3628
550.6857, 164.5956
551.1678, 165.5732
551.6499, 165.9449
552.1320, 166.6127
552.6141, 167.6736
553.0963, 168.6311
553.5784, 169.6954
554.0605, 170.3350
554.5426, 168.5013
555.0247, 164.3555
555.5068, 160.6982
555.9890, 160.2837
556.4711, 161.1442
556.9532, 159.5575
557.4353, 155.3794
557.9174, 150.7385
558.3995, 147.7769
558.8817, 144.9933
559.3638, 140.5721
559.8459, 133.2345
560.3281, 126.0380
560.8102, 120.3486
561.2923, 115.6058
561.7744, 110.9125
562.2565, 106.6777
562.7386, 101.7390
563.2208, 95.13904
563.7029, 87.38721
564.1850, 81.65601
564.6671, 79.04395
565.1492, 76.52832
565.6313, 72.59863
566.1135, 67.22852
566.5956, 62.18762
567.0777, 57.50793
567.5598, 52.76831
568.0419, 46.77515
568.5240, 40.16125
569.0062, 36.08044
569.4883, 35.86279
569.9704, 36.60730
570.4525, 34.80615
570.9346, 31.20276
571.4167, 27.58911
571.8989, 24.27002
572.3810, 21.57251
572.8631, 19.71887
573.3452, 18.60156
573.8273, 17.79919
574.3094, 17.99451
574.7916, 18.09143
575.2737, 17.20020
575.7558, 14.81641
576.2379, 12.61646
576.7200, 10.05640
577.2021, 8.071777
577.6843, 7.774536
578.1664, 10.13269
578.6485, 11.43994
579.1306, 10.80005
579.6127, 9.243896
580.0948, 9.098267
580.5770, 10.36377
581.0591, 11.10571
581.5412, 10.38245
582.0233, 8.778564
582.5054, 6.765015
582.9875, 4.605225
583.4697, 4.155762
583.9518, 9.012817
584.4339, 15.02527
584.9160, 17.08911
585.3981, 14.21155
585.8802, 11.78943
586.3624, 13.33777
586.8445, 16.22766
587.3266, 18.01990
587.8087, 15.89062
588.2908, 15.65063
588.7729, 19.82947
589.2551, 25.79761
589.7372, 28.99915
590.2193, 27.89307
590.7014, 27.04651
591.1835, 27.69250
591.6656, 29.46594
592.1478, 30.56177
592.6299, 30.94312
593.1120, 30.76575
593.5941, 29.59094
594.0762, 27.86963
594.5583, 27.41980
595.0405, 28.32910
595.5226, 29.63513
596.0047, 30.27148
596.4868, 30.85046
596.9689, 32.39575
597.4510, 35.50464
597.9332, 38.69666
598.4153, 41.16931
598.8974, 43.19153
599.3795, 45.23413
599.8616, 47.59106
600.3438, 49.82458
600.8259, 51.55493
601.3080, 53.01331
601.7901, 55.15320
602.2722, 58.14539
602.7543, 61.53503
603.2365, 65.66125
603.7186, 70.42578
604.2007, 72.19482
604.6828, 70.24622
605.1649, 68.52502
605.6470, 70.87744
606.1292, 76.31921
606.6113, 81.14746
607.0934, 84.99500
607.5755, 87.45496
608.0576, 86.81848
608.5398, 84.71448
609.0219, 84.06677
609.5040, 87.61658
609.9861, 90.40479
610.4683, 88.23987
610.9504, 83.43530
611.4325, 80.94714
611.9146, 84.76172
612.3967, 88.22815
612.8788, 89.55737
613.3610, 88.96130
613.8431, 87.50427
614.3252, 83.91907
614.8073, 81.35010
615.2894, 82.06116
615.7715, 86.40588
616.2537, 88.23743
616.7358, 87.10071
617.2179, 85.46765
617.7000, 86.09131
618.1821, 88.23523
618.6642, 89.42090
619.1464, 88.94495
619.6285, 88.65015
620.1106, 90.39966
620.5927, 93.09131
621.0748, 95.17981
621.5569, 96.41296
622.0391, 96.72595
622.5212, 95.42065
623.0033, 93.13550
623.4854, 91.74500
623.9675, 92.54504
624.4496, 93.30396
624.9318, 93.49121
625.4139, 93.13110
625.8960, 92.45618
626.3781, 91.70923
626.8602, 90.46997
627.3423, 88.11755
627.8245, 84.63135
628.3066, 81.71045
628.7887, 79.31519
629.2708, 77.48499
629.7529, 76.36938
630.2350, 75.70520
630.7172, 75.00256
631.1993, 74.31165
631.6814, 72.99780
632.1635, 70.11511
632.6456, 66.35474
633.1277, 62.78528
633.6099, 59.85291
634.0920, 57.13562
634.5741, 54.23120
635.0562, 51.23792
635.5383, 49.02344
636.0204, 48.57068
636.5026, 47.56506
636.9847, 44.99341
637.4668, 41.06946
637.9489, 38.90259
638.4310, 38.56958
638.9131, 37.72705
639.3953, 33.76953
639.8774, 27.64319
640.3595, 23.87732
640.8416, 22.71167
641.3237, 22.57812
641.8058, 22.66565
642.2880, 22.63391
642.7701, 21.89624
643.2522, 20.01648
643.7343, 18.23157
644.2164, 16.83167
644.6985, 15.98071
645.1807, 15.91467
645.6628, 18.23645
646.1449, 19.39819
646.6270, 18.36108
647.1091, 15.99463
647.5912, 14.66211
648.0734, 14.90930
648.5555, 14.55945
649.0376, 12.50171
649.5197, 9.356934
650.0018, 8.117065
650.4839, 8.749268
650.9661, 9.638916
651.4482, 9.932373
651.9303, 9.742676
652.4124, 9.095825
652.8945, 8.014771
653.3766, 7.111694
653.8588, 7.342407
654.3409, 7.601929
654.8230, 6.710205
655.3051, 3.720459
655.7872, 1.783325
656.2693, 2.794312
656.7515, 4.486206
657.2336, 4.495850
657.7158, 1.088623
658.1979, 8.5937999E-02
658.6800, 2.151123
659.1621, 5.912109
659.6442, 7.942749
660.1263, 8.206055
660.6085, 8.009155
661.0906, 7.680176
661.5727, 7.151001
662.0548, 6.079590
662.5369, 4.634766
663.0190, 3.479858
663.5012, 2.907593
663.9833, 2.831055
664.4654, 3.664185
664.9475, 5.209229
665.4296, 5.908936
665.9117, 4.837646
666.3939, 3.209839
666.8760, 1.483643
667.3581, 0.3916020
667.8402, 1.808838
668.3223, 2.789673
668.8044, 3.279419
669.2866, 2.993530
669.7687, 1.882202
670.2508, 1.632202
670.7329, 2.542847
671.2150, 3.458374
671.6971, 2.779541
672.1793, 1.109131
672.6614, 2.4780000E-02
673.1435, 4.4188999E-02
673.6256, 0.3695070
674.1077, 0.6508790
674.5898, 0.7573240
675.0720, 0.4777830
675.5541, 1.560669
676.0362, 2.538818
676.5183, 0.6036380
677.0004, 2.924316
677.4825, 4.378540
677.9647, 2.655640
678.4468, 0.8927000
678.9289, 0.1560060
679.4110, 0.5828860
679.8931, 0.6420900
680.3752, 0.3077390
680.8574, 0.2277830
681.3395, 1.227783
681.8216, 2.619263
682.3037, 2.871582
682.7858, 2.014160
683.2679, 0.7574460
683.7501, 1.173706
684.2322, 2.832764
684.7143, 3.485229
685.1964, 2.994507
685.6785, 1.783447
686.1606, 1.347656
686.6428, 4.219238
687.1249, 5.190186
687.6070, 2.938477
688.0891, 1.829346
688.5712, 2.107666
689.0533, 3.172241
689.5355, 4.928345
690.0176, 7.294922
690.4997, 7.348877
690.9818, 3.922363
691.4639, 0.1019290
691.9460, 0.8111570
692.4282, 0.9199220
692.9103, 3.285156
693.3924, 7.293945
693.8745, 9.735352
694.3566, 6.671997
694.8387, 0.6480710
695.3209, 2.341675
695.8030, 3.074097
696.2851, 7.057495
696.7672, 6.421265
697.2493, 2.358276
697.7314, 1.482788
698.2136, 4.943726
698.6957, 7.734009
699.1778, 7.008545
699.6599, 3.870605
700.1420, 3.724365
700.6241, 6.408325
701.1063, 8.729614
701.5884, 7.804443
702.0705, 5.607788
702.5526, 4.499512
703.0347, 4.657593
703.5168, 5.228149
703.9990, 6.064331
704.4811, 6.970703
704.9632, 7.960693
705.4453, 9.520996
705.9274, 9.593750
706.4095, 7.151978
706.8917, 4.369751
707.3738, 3.032959
707.8560, 3.239624
708.3381, 4.397705
708.8202, 6.710083
709.3023, 9.134155
709.7844, 10.42065
710.2665, 10.75049
710.7487, 10.55786
711.2308, 9.738770
711.7129, 8.991211
712.1950, 8.809082
712.6771, 9.068237
713.1592, 9.582153
713.6414, 10.61548
714.1235, 11.58496
714.6056, 12.38135
715.0877, 12.77588
715.5698, 12.85913
716.0519, 12.44739
716.5341, 12.39856
717.0162, 13.17712
717.4983, 14.23108
717.9804, 13.47888
718.4625, 11.08594
718.9446, 9.533569
719.4268, 10.73865
719.9089, 12.97607
720.3910, 14.04834
720.8731, 14.15588
721.3552, 14.20386
721.8373, 14.82446
722.3195, 15.35254
722.8016, 15.43445
723.2837, 15.05408
723.7658, 14.44177
724.2479, 13.09082
724.7300, 12.27271
725.2122, 12.77905
725.6943, 14.60339
726.1764, 15.49060
726.6585, 15.43127
727.1406, 14.82898
727.6227, 13.73987
728.1049, 12.36304
728.5870, 11.29321
729.0691, 10.58777
729.5512, 9.914429
730.0333, 8.874512
730.5154, 7.819458
730.9976, 7.000977
731.4797, 6.337769
731.9618, 6.228638
732.4439, 7.268799
732.9260, 8.569946
733.4081, 9.553955
733.8903, 10.18286
734.3724, 10.15527
734.8545, 8.989746
735.3366, 7.774048
735.8187, 8.243164
736.3008, 9.896606
736.7830, 10.88770
737.2651, 10.55273
737.7472, 10.17590
738.2293, 11.18713
738.7114, 12.94629
739.1935, 14.52185
739.6757, 15.47205
740.1578, 16.30200
740.6399, 17.54663
741.1220, 18.58728
741.6041, 18.25928
742.0862, 15.77673
742.5684, 13.71045
743.0505, 12.56250
743.5326, 12.10522
744.0147, 11.74573
744.4968, 11.37744
744.9789, 11.59595
745.4611, 13.12927
745.9432, 14.73767
746.4253, 15.14819
746.9074, 14.38135
747.3895, 12.43494
747.8716, 7.297974
748.3538, 3.051147
748.8359, 1.777344
749.3180, 2.989502
749.8001, 4.253174
750.2822, 5.938477
750.7643, 7.217529
751.2465, 7.947632
751.7286, 8.065674
752.2107, 6.748657
752.6928, 3.926025
753.1749, 1.648438
753.6570, 1.845947
754.1392, 3.424194
754.6213, 5.398438
755.1034, 7.588745
755.5855, 8.977783
756.0676, 8.430542
756.5498, 7.433350
757.0319, 6.796509
757.5140, 6.569824
757.9962, 6.281250
758.4783, 5.289063
758.9604, 5.079712
759.4425, 6.869629
759.9246, 10.53784
760.4067, 11.46423
760.8889, 9.348145
761.3710, 7.156006
761.8531, 7.463623
762.3352, 9.110229
762.8173, 10.13037
763.2994, 10.40979
763.7816, 9.870728
764.2637, 7.286865
764.7458, 4.733643
765.2279, 4.069702
765.7100, 6.068115
766.1921, 6.948364
766.6743, 5.996216
767.1564, 4.554199
767.6385, 3.234863
768.1206, 1.919800
768.6027, 2.108154
769.0848, 4.086792
769.5670, 5.869873
770.0491, 5.583008
770.5312, 3.797485
771.0133, 0.9873050
771.4954, 3.025879
771.9775, 5.250488
772.4597, 2.146729
772.9418, 2.528931
773.4239, 5.689697
773.9060, 6.589722
774.3881, 6.558838
774.8702, 4.950317
775.3524, 3.278809
775.8345, 3.004028
776.3166, 4.298706
776.7987, 4.897217
777.2808, 4.533325
777.7629, 4.163696
778.2451, 5.639771
778.7272, 7.694580
779.2093, 7.322510
779.6914, 3.266479
780.1735, 0.1020510
780.6556, 0.4731450
781.1378, 1.302246
781.6199, 4.580078
782.1020, 11.80042
782.5841, 16.07605
783.0662, 16.80518
783.5483, 15.21790
784.0305, 11.91833
784.5126, 6.763062
784.9947, 3.548584
785.4768, 2.912842
785.9589, 3.410645
786.4410, 3.944458
786.9232, 4.304321
787.4053, 4.017212
787.8874, 2.698853
788.3695, 1.477417
788.8516, 0.9810790
789.3337, 0.8273930
789.8159, 0.5411380
790.2980, 0.5595700
790.7801, 0.4617920
791.2622, 1.744263
791.7443, 4.028564
792.2264, 2.808716
792.7086, 1.602783
793.1907, 3.124146
793.6728, 0.2723390
794.1549, 3.643188
794.6370, 5.490723
795.1191, 5.736694
795.6013, 4.985840
796.0834, 2.576294
796.5655, 0.8990480
797.0476, 1.298828
797.5297, 2.673584
798.0118, 3.668213
798.4940, 4.200684
798.9761, 4.443115
799.4582, 4.215454
799.9403, 4.039307
800.4224, 4.992188
800.9045, 6.775391
801.3867, 7.503174
801.8688, 6.541504
802.3509, 5.360229
802.8330, 5.554688
803.3151, 6.378174
803.7972, 6.767090
804.2794, 5.850586
804.7615, 5.450317
805.2436, 6.830811
805.7258, 8.411743
806.2079, 8.265381
806.6900, 5.648438
807.1721, 4.319336
807.6542, 4.870850
808.1364, 6.257813
808.6185, 7.449829
809.1006, 8.342407
809.5827, 8.498169
810.0648, 7.571045
810.5469, 6.720703
811.0291, 6.989990
811.5112, 7.732788
811.9933, 8.189331
812.4754, 7.610718
812.9575, 7.724243
813.4396, 9.219482
813.9218, 10.83130
814.4039, 11.03809
814.8860, 9.754761
815.3681, 8.361816
815.8502, 6.977051
816.3323, 5.707275
816.8145, 4.442139
817.2966, 3.460938
817.7787, 3.297485
818.2608, 4.209961
818.7429, 5.458008
819.2250, 7.458618
819.7072, 9.234863
820.1893, 9.718018
820.6714, 8.212036
821.1535, 6.719116
821.6356, 4.817017
822.1177, 3.695679
822.5999, 5.292358
823.0820, 9.067627
823.5641, 11.53552
824.0462, 12.23792
824.5283, 12.17590
825.0104, 12.02039
825.4926, 11.71204
825.9747, 11.06409
826.4568, 9.762939
826.9389, 9.034424
827.4210, 9.084595
827.9031, 9.870239
828.3853, 11.78162
828.8674, 15.49524
829.3495, 16.58936
829.8316, 14.55725
830.3137, 12.01453
830.7958, 11.02161
831.2780, 11.11951
831.7601, 11.52820
832.2422, 12.18494
832.7243, 12.91541
833.2064, 13.61572
833.6885, 14.34534
834.1707, 15.29504
834.6528, 16.72534
835.1349, 17.06714
835.6170, 15.94775
836.0991, 14.54700
836.5812, 13.64331
837.0634, 13.07397
837.5455, 11.54968
838.0276, 9.044800
838.5097, 7.832886
838.9918, 11.30676
839.4739, 15.88171
839.9561, 17.15527
840.4382, 14.85767
840.9203, 13.25500
841.4024, 14.31580
841.8845, 15.84290
842.3666, 16.83044
842.8488, 17.29810
843.3309, 18.44727
843.8130, 20.60620
844.2951, 21.74390
844.7772, 19.53784
845.2593, 15.79333
845.7415, 15.19934
846.2236, 17.22375
846.7057, 18.93274
847.1878, 18.69763
847.6699, 17.62524
848.1520, 15.71643
848.6342, 13.31689
849.1163, 12.67151
849.5984, 15.00391
850.0805, 16.69739
850.5626, 16.07239
851.0447, 13.84045
851.5269, 13.40845
852.0090, 14.58557
852.4911, 15.93201
852.9732, 16.93201
853.4553, 17.47534
853.9374, 17.36609
854.4196, 16.75903
854.9017, 16.02478
855.3839, 14.26550
855.8660, 13.71680
856.3481, 15.79089
856.8302, 18.91760
857.3123, 19.06409
857.7944, 15.85510
858.2766, 13.44373
858.7587, 13.11719
859.2408, 13.66541
859.7229, 13.63904
860.2050, 12.91406
860.6871, 11.34290
861.1693, 7.437622
861.6514, 5.067383
862.1335, 6.572021
862.6156, 10.10657
863.0977, 13.35498
863.5798, 17.06128
864.0620, 17.66797
864.5441, 13.97693
865.0262, 9.452637
865.5083, 8.668701
865.9904, 10.50757
866.4725, 11.73486
866.9547, 11.84546
867.4368, 12.00244
867.9189, 13.18042
868.4010, 14.27527
868.8831, 14.24622
869.3652, 12.20374
869.8474, 11.06067
870.3295, 11.26050
870.8116, 11.86719
871.2937, 12.02405
871.7758, 11.80762
872.2579, 12.38574
872.7401, 13.76636
873.2222, 15.02588
873.7043, 15.79285
874.1864, 15.99915
874.6685, 15.07104
875.1506, 12.86987
875.6328, 11.43323
876.1149, 12.37207
876.5970, 13.16272
877.0791, 12.66919
877.5612, 11.10767
878.0433, 10.40173
878.5255, 10.58887
879.0076, 10.65942
879.4897, 9.665283
879.9718, 8.454224
880.4539, 8.379272
880.9360, 9.162231
881.4182, 9.839478
881.9003, 9.917847
882.3824, 9.931641
882.8645, 9.967651
883.3466, 10.08301
883.8287, 10.48877
884.3109, 11.25464
884.7930, 11.88623
885.2751, 12.24255
885.7572, 12.39624
886.2393, 12.32568
886.7214, 12.15308
887.2036, 12.22327
887.6857, 13.01514
888.1678, 13.46387
888.6499, 13.09521
889.1320, 12.10864
889.6141, 10.71973
890.0963, 8.646484
890.5784, 7.021606
891.0605, 5.906860
891.5426, 5.306030
892.0247, 5.688843
892.5068, 6.566650
892.9890, 6.147461
893.4711, 4.018311
893.9532, 2.366943
894.4353, 3.231079
894.9174, 4.832764
895.3995, 5.699219
895.8817, 5.425781
896.3638, 5.399414
896.8459, 5.160278
897.3280, 6.105957
897.8101, 9.924072
898.2922, 15.85022
898.7744, 19.97156
899.2565, 22.22791
899.7386, 22.13818
900.2207, 17.19067
900.7028, 11.63037
901.1849, 8.419189
901.6671, 7.489136
902.1492, 7.328003
902.6313, 8.597656
903.1134, 9.075562
903.5955, 7.864624
904.0776, 5.723877
904.5598, 4.958862
905.0419, 5.384644
905.5240, 5.385132
906.0062, 4.187622
906.4883, 2.661865
906.9704, 0.9403080
907.4525, 0.3887940
907.9346, 0.3868410
908.4167, 3.233154
908.8989, 5.270020
909.3810, 4.775146
909.8631, 3.302490
910.3452, 2.787720
910.8273, 3.153687
911.3094, 3.374512
911.7916, 3.300293
912.2737, 3.214355
912.7558, 3.774170
913.2379, 4.226563
913.7200, 3.523438
914.2021, 1.174805
914.6843, 0.4003910
915.1664, 0.3964840
915.6485, 0.1129150
916.1306, 0.3901370
916.6127, 1.132080
917.0948, 0.2624510
917.5770, 2.216553
918.0591, 3.963257
918.5412, 2.917358
919.0233, 0.7976070
919.5054, 0.9516600
919.9875, 2.213135
920.4697, 2.873047
920.9518, 2.281128
921.4339, 1.899292
921.9160, 2.200439
922.3981, 2.838379
922.8802, 2.563721
923.3624, 1.446899
923.8445, 1.865112
924.3266, 5.167114
924.8087, 8.659058
925.2908, 9.263916
925.7729, 8.166260
926.2551, 7.072021
926.7372, 6.038330
927.2193, 5.734375
927.7014, 6.544800
928.1835, 7.641602
928.6656, 8.370728
929.1478, 8.723877
929.6299, 8.409180
930.1120, 7.346680
930.5941, 6.446167
931.0762, 7.159424
931.5583, 8.030518
932.0405, 7.132935
932.5226, 4.357910
933.0047, 2.323364
933.4868, 2.630249
933.9689, 2.512939
934.4510, 0.7454830
934.9332, 2.153198
935.4153, 3.244385
935.8974, 2.627686
936.3795, 2.418213
936.8616, 4.045288
937.3438, 5.931763
937.8259, 6.239502
938.3080, 5.681152
938.7901, 5.637573
939.2722, 7.278687
939.7543, 8.297607
940.2365, 8.192749
940.7186, 7.677124
941.2007, 7.770264
941.6828, 8.423340
942.1649, 8.730347
942.6470, 8.485962
943.1292, 8.688843
943.6113, 11.10669
944.0934, 13.88892
944.5755, 14.88647
945.0576, 13.25647
945.5397, 13.34717
946.0219, 16.33667
946.5040, 19.62317
946.9861, 22.03247
947.4682, 23.62134
947.9503, 23.73669
948.4324, 22.70483
948.9146, 23.37268
949.3967, 28.30908
949.8788, 34.76697
950.3609, 41.78333
950.8430, 48.70764
951.3251, 53.37939
951.8073, 53.49536
952.2894, 55.82764
952.7715, 61.68127
953.2536, 69.63916
953.7357, 77.72205
954.2179, 85.94873
954.7000, 94.29944
955.1821, 102.6318
955.6642, 111.6274
956.1464, 121.4254
956.6285, 132.1544
957.1106, 144.1920
957.5927, 157.7717
958.0748, 171.5216
958.5569, 185.2753
959.0391, 199.7595
959.5212, 215.0435
960.0033, 231.5077
960.4854, 250.5778
960.9675, 271.9894
961.4496, 293.7417
961.9318, 315.1575
962.4139, 336.5682
962.8960, 357.4808
963.3781, 378.3997
963.8602, 401.4623
964.3423, 427.5267
964.8245, 451.0620
965.3066, 470.8199
965.7887, 488.4052
966.2708, 505.7023
966.7529, 522.8226
967.2350, 540.4202
967.7172, 560.1921
968.1993, 575.4314
968.6814, 582.9965
969.1635, 585.6161
969.6456, 585.5194
970.1277, 582.8180
970.6099, 575.1649
971.0920, 562.4752
971.5741, 546.0658
972.0562, 525.2690
972.5383, 502.3905
973.0204, 479.7640
973.5026, 457.5311
973.9847, 435.5706
974.4668, 412.6447
974.9489, 391.7175
975.4310, 373.3094
975.9131, 357.0541
976.3953, 342.0928
976.8774, 328.3452
977.3595, 317.1241
977.8416, 308.9543
978.3237, 303.0072
978.8058, 298.8779
979.2880, 296.4310
979.7701, 295.4532
980.2522, 295.9342
980.7343, 298.1425
981.2164, 302.3450
981.6985, 307.8105
982.1807, 313.8729
982.6628, 320.7040
983.1449, 329.7036
983.6270, 340.7463
984.1091, 352.4467
984.5912, 364.6063
985.0734, 376.5073
985.5555, 389.0262
986.0376, 400.7468
986.5197, 408.6915
987.0018, 412.8240
987.4839, 413.3956
987.9661, 410.4340
988.4482, 404.1266
988.9303, 395.1863
989.4124, 382.9447
989.8945, 365.9348
990.3766, 343.6921
990.8588, 318.8762
991.3409, 289.5447
991.8230, 260.6125
992.3051, 234.9227
992.7872, 212.6924
993.2693, 189.4927
993.7515, 165.1625
994.2336, 144.3849
994.7157, 131.2511
995.1978, 121.6250
995.6799, 110.9883
996.1620, 99.85278
996.6442, 89.58032
997.1263, 80.38208
997.6084, 72.34021
998.0905, 65.31738
998.5726, 59.58948
999.0547, 56.08179
999.5369, 54.32324
1000.019, 51.41284
1000.501, 46.98950
1000.983, 42.02087
1001.465, 36.34253
1001.947, 31.05127
1002.430, 26.84302
1002.912, 23.80493
1003.394, 22.81396
1003.876, 24.73511
1004.358, 25.81433
1004.840, 24.05359
1005.322, 21.27930
1005.804, 21.03235
1006.287, 22.66589
1006.769, 24.65222
1007.251, 27.18420
1007.733, 28.79895
1008.215, 27.23755
1008.697, 25.89172
1009.179, 28.48792
1009.661, 35.56946
1010.143, 39.81641
1010.626, 40.89001
1011.108, 41.13171
1011.590, 41.63110
1012.072, 42.86816
1012.554, 45.57617
1013.036, 49.62183
1013.518, 53.86389
1014.000, 58.42639
1014.483, 62.58215
1014.965, 65.91833
1015.447, 69.02405
1015.929, 73.20911
1016.411, 78.27454
1016.893, 83.51770
1017.375, 88.90674
1017.857, 94.10449
1018.339, 99.22241
1018.822, 103.8060
1019.304, 107.3394
1019.786, 109.6143
1020.268, 112.4636
1020.750, 115.8483
1021.232, 119.9585
1021.714, 125.5409
1022.196, 131.5472
1022.679, 136.6283
1023.161, 140.7297
1023.643, 143.6318
1024.125, 143.5217
1024.607, 144.5922
1025.089, 147.9620
1025.571, 152.2889
1026.053, 155.3965
1026.535, 157.5518
1027.018, 161.5229
1027.500, 167.7390
1027.982, 174.0231
1028.464, 178.0271
1028.946, 181.9939
1029.428, 187.6115
1029.910, 195.0642
1030.392, 202.9889
1030.875, 211.2960
1031.357, 220.6011
1031.839, 231.2446
1032.321, 242.9675
1032.803, 254.8940
1033.285, 267.5233
1033.767, 281.8040
1034.249, 298.8416
1034.731, 315.7903
1035.214, 331.7518
1035.696, 347.6130
1036.178, 363.9801
1036.660, 380.7443
1037.142, 399.0796
1037.624, 418.7485
1038.106, 440.6541
1038.588, 467.9055
1039.071, 495.2694
1039.553, 517.8643
1040.035, 537.4791
1040.517, 560.6180
1040.999, 588.5175
1041.481, 617.6703
1041.963, 648.2660
1042.445, 679.2805
1042.927, 711.4138
1043.410, 742.7960
1043.892, 769.2725
1044.374, 790.1544
1044.856, 810.7620
1045.338, 834.5255
1045.820, 857.2515
1046.302, 877.3728
1046.784, 894.6664
1047.266, 907.1365
1047.749, 915.3281
1048.231, 924.7264
1048.713, 938.4570
1049.195, 952.2749
1049.677, 964.2307
1050.159, 973.7401
1050.641, 979.6874
1051.123, 980.9363
1051.606, 982.5432
1052.088, 985.2047
1052.570, 985.7688
1053.052, 982.0964
1053.534, 974.5007
1054.016, 963.1836
1054.498, 948.4390
1054.980, 931.5947
1055.463, 915.7972
1055.945, 893.5500
1056.427, 862.7595
1056.909, 826.3240
1057.391, 788.4868
1057.873, 749.3015
1058.355, 709.3057
1058.837, 668.5807
1059.319, 626.6819
1059.802, 581.9893
1060.284, 538.1946
1060.766, 498.7068
1061.248, 463.4028
1061.730, 428.6230
1062.212, 393.7870
1062.694, 362.7151
1063.176, 338.0629
1063.658, 316.2584
1064.141, 290.7087
1064.623, 264.4767
1065.105, 242.8325
1065.587, 229.0688
1066.069, 216.3794
1066.551, 204.1130
1067.033, 192.3156
1067.515, 180.6646
1067.998, 169.4186
1068.480, 160.7557
1068.962, 154.3558
1069.444, 148.8585
1069.926, 144.6204
1070.408, 139.9297
1070.890, 133.1343
1071.372, 125.9141
1071.854, 121.2510
1072.337, 119.6053
1072.819, 116.3217
1073.301, 110.8331
1073.783, 105.3104
1074.265, 101.4347
1074.747, 98.90710
1075.229, 97.41602
1075.711, 96.99280
1076.193, 98.22717
1076.676, 102.6504
1077.158, 104.7238
1077.640, 102.3047
1078.122, 98.00525
1078.604, 95.89209
1079.086, 95.74756
1079.568, 97.58899
1080.051, 102.3011
1080.533, 103.9100
1081.015, 98.22961
1081.497, 91.43848
1081.979, 86.34790
1082.461, 82.56787
1082.943, 77.47522
1083.425, 71.33752
1083.907, 66.39746
1084.390, 64.55200
1084.872, 63.07361
1085.354, 60.28210
1085.836, 56.53320
1086.318, 52.29944
1086.800, 47.24707
1087.282, 43.87476
1087.764, 42.36121
1088.246, 40.91016
1088.729, 38.39246
1089.211, 35.14099
1089.693, 30.58679
1090.175, 25.12146
1090.657, 21.05164
1091.139, 19.43713
1091.621, 18.19971
1092.103, 17.35144
1092.586, 16.32446
1093.068, 13.87183
1093.550, 10.68384
1094.032, 8.527832
1094.514, 7.566772
1094.996, 6.133057
1095.478, 2.539795
1095.960, 0.3995360
1096.443, 1.207520
1096.925, 0.7905270
1097.407, 2.497437
1097.889, 5.890137
1098.371, 7.394775
1098.853, 5.585571
1099.335, 3.392456
1099.817, 2.687256
1100.299, 2.722290
1100.781, 2.910645
1101.264, 3.240479
1101.746, 3.479248
1102.228, 3.571533
1102.710, 4.044067
1103.192, 5.583252
1103.674, 7.072021
1104.156, 6.977661
1104.638, 6.020264
1105.121, 5.358154
1105.603, 5.276978
1106.085, 5.289917
1106.567, 5.424927
1107.049, 5.601074
1107.531, 5.895142
1108.013, 6.093750
1108.495, 5.816162
1108.978, 5.096436
1109.460, 4.126221
1109.942, 2.967163
1110.424, 1.464844
1110.906, 1.016235
1111.388, 2.996704
1111.870, 1.469482
1112.352, 2.367310
1112.834, 2.778809
1113.317, 0.5972900
1113.799, 3.649780
1114.281, 3.213379
1114.763, 2.690430
1115.245, 4.249756
1115.727, 6.748901
1116.209, 6.806396
1116.691, 4.540894
1117.173, 3.938354
1117.656, 6.254761
1118.138, 8.174438
1118.620, 5.517822
1119.102, 2.255981
1119.584, 2.550171
1120.066, 6.361328
1120.548, 7.264282
1121.030, 4.737183
1121.513, 3.016724
1121.995, 4.127197
1122.477, 5.778442
1122.959, 4.743896
1123.441, 2.593018
1123.923, 1.607788
1124.405, 2.797119
1124.887, 3.318848
1125.370, 2.720337
1125.852, 2.623413
1126.334, 4.436646
1126.816, 7.080322
1127.298, 8.533569
1127.780, 8.966309
1128.262, 8.747437
1128.744, 6.910156
1129.226, 6.171021
1129.709, 7.516113
1130.191, 8.802856
1130.673, 7.658081
1131.155, 4.904541
1131.637, 3.524292
1132.119, 3.529663
1132.601, 4.582764
1133.083, 8.867432
1133.566, 11.16040
1134.048, 8.572266
1134.530, 4.184204
1135.012, 2.189575
1135.494, 2.342651
1135.976, 1.384399
1136.458, 0.9434810
1136.940, 2.408325
1137.422, 3.4912001E-02
1137.905, 2.330322
1138.387, 1.398315
1138.869, 1.403931
1139.351, 2.645752
1139.833, 2.270142
1140.315, 1.907471
1140.797, 1.849121
1141.279, 1.828735
1141.761, 2.536499
1142.244, 2.470947
1142.726, 0.6350100
1143.208, 6.435791
1143.690, 9.004761
1144.172, 7.746826
1144.654, 6.693237
1145.136, 7.279297
1145.618, 7.884521
1146.101, 5.300537
1146.583, 2.241089
1147.065, 2.504639
1147.547, 7.687622
1148.029, 10.54834
1148.511, 10.61145
1148.993, 9.444702
1149.475, 7.250977
1149.958, 4.905518
1150.440, 3.527100
1150.922, 3.138184
1151.404, 3.839722
1151.886, 6.200684
1152.368, 8.539063
1152.850, 11.18616
1153.332, 12.88733
1153.814, 12.41821
1154.297, 10.69055
1154.779, 9.987793
1155.261, 9.933838
1155.743, 9.578003
1156.225, 8.167725
1156.707, 7.301147
1157.189, 7.017578
1157.671, 7.361938
1158.153, 8.945679
1158.636, 11.23267
1159.118, 11.81396
1159.600, 10.93335
1160.082, 10.03345
1160.564, 9.101074
1161.046, 9.050415
1161.528, 10.92065
1162.010, 13.07971
1162.493, 13.25049
1162.975, 11.82666
1163.457, 11.43823
1163.939, 12.21094
1164.421, 13.76843
1164.903, 16.74988
1165.385, 19.50061
1165.867, 21.39539
1166.349, 22.54761
1166.832, 22.77075
1167.314, 22.17346
1167.796, 22.22546
1168.278, 23.10144
1168.760, 24.19617
1169.242, 24.40393
1169.724, 25.22644
1170.206, 28.00354
1170.688, 31.96057
1171.171, 35.28284
1171.653, 37.85999
1172.135, 39.99243
1172.617, 41.71338
1173.099, 42.93481
1173.581, 42.58069
1174.063, 42.54199
1174.545, 45.01257
1175.028, 49.21802
1175.510, 51.10352
1175.992, 50.54333
1176.474, 51.12842
1176.956, 54.10474
1177.438, 57.15417
1177.920, 57.88623
1178.402, 57.78796
1178.885, 58.04102
1179.367, 58.76294
1179.849, 60.76709
1180.331, 64.19861
1180.813, 66.77600
1181.295, 67.54370
1181.777, 67.70007
1182.259, 68.28882
1182.741, 69.20068
1183.224, 70.39282
1183.706, 71.88965
1184.188, 73.48279
1184.670, 75.45374
1185.152, 75.36560
1185.634, 70.94031
1186.116, 66.01770
1186.598, 65.53711
1187.081, 67.00220
1187.563, 66.98657
1188.045, 64.73181
1188.527, 62.04651
1189.009, 58.76550
1189.491, 56.08215
1189.973, 54.98608
1190.455, 54.51599
1190.938, 53.41968
1191.420, 52.10364
1191.902, 51.40710
1192.384, 52.31494
1192.866, 50.81042
1193.348, 46.46289
1193.830, 42.24915
1194.312, 40.54443
1194.794, 39.62329
1195.276, 37.23962
1195.759, 34.12585
1196.241, 31.71973
1196.723, 30.25867
1197.205, 29.25317
1197.687, 28.94409
1198.169, 28.51685
1198.651, 26.74500
1199.133, 24.87500
1199.616, 25.30798
1200.098, 26.90564
1200.580, 26.66577
1201.062, 22.30420
1201.544, 20.70923
1202.026, 22.65186
1202.508, 24.98694
1202.990, 25.09839
1203.473, 23.97229
1203.955, 22.34229
1204.437, 20.44690
1204.919, 19.25891
1205.401, 19.47656
1205.883, 19.36682
1206.365, 18.67786
1206.847, 17.85815
1207.329, 17.78601
1207.812, 17.48486
1208.294, 14.87341
1208.776, 10.82166
1209.258, 9.356201
1209.740, 12.43799
1210.222, 13.96375
1210.704, 13.05908
1211.186, 11.35876
1211.668, 9.875854
1212.151, 8.987061
1212.633, 10.08057
1213.115, 12.55652
1213.597, 12.40784
1214.079, 7.601563
1214.561, 5.670532
1215.043, 8.143066
1215.525, 11.62524
1216.008, 13.59497
1216.490, 13.78235
1216.972, 10.35156
1217.454, 4.156616
1217.936, 1.919189
1218.418, 5.031128
1218.900, 8.448853
1219.382, 11.71045
1219.865, 13.70508
1220.347, 11.81763
1220.829, 8.939331
1221.311, 8.824829
1221.793, 11.30493
1222.275, 12.10303
1222.757, 10.64612
1223.239, 9.196411
1223.721, 8.131714
1224.203, 7.482666
1224.686, 7.500488
1225.168, 7.796875
1225.650, 8.140869
1226.132, 8.468018
1226.614, 8.463867
1227.096, 8.337036
1227.578, 7.723145
1228.061, 6.421265
1228.543, 5.167969
1229.025, 4.152588
1229.507, 4.008667
1229.989, 6.307739
1230.471, 10.52380
1230.953, 11.35486
1231.435, 8.299805
1231.917, 6.305786
1232.400, 6.636597
1232.882, 7.566650
1233.364, 7.978638
1233.846, 7.790894
1234.328, 6.319458
1234.810, 4.022949
1235.292, 4.192017
1235.774, 7.032104
1236.256, 7.434326
1236.739, 3.674072
1237.221, 7.9346001E-02
1237.703, 5.0170999E-02
1238.185, 1.262329
1238.667, 2.117432
1239.149, 2.492920
1239.631, 2.212036
1240.113, 1.332520
1240.596, 1.481079
1241.078, 3.294556
1241.560, 4.772217
1242.042, 3.532104
1242.524, 2.284790
1243.006, 3.406860
1243.488, 2.335327
1243.970, 5.254639
1244.453, 1.999146
1244.935, 0.1440430
1245.417, 0.4595950
1245.899, 1.256958
1246.381, 7.984009
1246.863, 13.74524
1247.345, 15.31165
1247.827, 13.57800
1248.309, 10.29028
1248.792, 6.103638
1249.274, 3.984131
1249.756, 4.920044
1250.238, 6.228027
1250.720, 7.447388
1251.202, 7.656494
1251.684, 5.942871
1252.166, 3.470947
1252.648, 3.640015
1253.131, 5.553589
1253.613, 6.466309
1254.095, 5.612671
1254.577, 4.957031
1255.059, 5.599121
1255.541, 5.738281
1256.023, 4.404907
1256.505, 2.654907
1256.988, 2.630615
1257.470, 3.847046
1257.952, 5.535156
1258.434, 7.657349
1258.916, 8.911133
1259.398, 8.847778
1259.880, 8.459351
1260.362, 7.989624
1260.844, 7.742310
1261.327, 8.194092
1261.809, 8.637207
1262.291, 7.592407
1262.773, 4.606445
1263.255, 3.463867
1263.737, 4.838989
1264.219, 6.196289
1264.701, 6.642578
1265.183, 6.896484
1265.666, 7.940186
1266.148, 9.282227
1266.630, 10.35413
1267.112, 10.99622
1267.594, 11.38147
1268.076, 11.51074
1268.558, 11.33228
1269.040, 10.86035
1269.523, 10.28040
1270.005, 9.873901
1270.487, 9.319214
1270.969, 7.384644
1271.451, 4.431885
1271.933, 3.325073
1272.415, 3.915161
1272.897, 4.356445
1273.380, 4.131836
1273.862, 3.959595
1274.344, 5.990967
1274.826, 7.503784
1275.308, 6.439087
1275.790, 3.687866
1276.272, 1.822021
1276.754, 0.8999020
1277.236, 1.597046
1277.719, 4.282471
1278.201, 6.554565
1278.683, 7.440796
1279.165, 6.993652
1279.647, 4.387207
1280.129, 1.508179
1280.611, 3.387817
1281.093, 7.907349
1281.576, 9.080688
1282.058, 5.834351
1282.540, 2.325684
1283.022, 1.746338
1283.504, 3.014038
1283.986, 0.3276370
1284.468, 4.882080
1284.950, 5.040894
1285.432, 2.957153
1285.915, 2.036987
1286.397, 2.656494
1286.879, 3.158325
1287.361, 3.327881
1287.843, 3.426147
1288.325, 3.397949
1288.807, 3.799072
1289.289, 6.355835
1289.771, 8.861450
1290.254, 8.267212
1290.736, 9.160889
1291.218, 9.334839
1291.700, 7.480835
1292.182, 8.277344
1292.664, 5.406982
1293.146, 2.157104
1293.628, 3.797607
1294.111, 5.903809
1294.593, 6.161743
1295.075, 5.137085
1295.557, 3.550049
1296.039, 1.544067
1296.521, 1.083496
1297.003, 2.447754
1297.485, 3.389893
1297.968, 1.448120
1298.450, 5.8350001E-02
1298.932, 0.6778560
1299.414, 2.307861
1299.896, 4.004761
1300.378, 5.396484
1300.860, 3.851807
1301.342, 2.9300000E-03
1301.824, 0.0000000E+00
##END=



