##NAMES=Diamond
##RRUFFID=R050207
##IDEAL CHEMISTRY=C
##LOCALITY=Unknown
##OWNER=RRUFF
##SOURCE=Eric Van Valkenburg
##DESCRIPTION=Single crystal,  type I
##STATUS=The identification of this mineral has been confirmed by single-crystal X-ray diffraction.
##URL=rruff.info/R050207
155.8960, 0.0000000E+00
157.2840, 20.16028
158.6710, 16.28394
160.0580, 27.76526
161.4440, 2.214355
162.8300, 11.44861
164.2170, 30.78186
165.6020, 26.21667
166.9880, 59.36731
168.3740, 48.01672
169.7590, 43.81897
171.1440, 4.559570
172.5280, 34.52539
173.9130, 14.82788
175.2970, 17.22131
176.6810, 21.01453
178.0650, 38.83850
179.4490, 27.64746
180.8320, 34.25330
182.2150, 13.43250
183.5980, 9.610718
184.9810, 11.56921
186.3630, 44.78198
187.7450, 27.74707
189.1270, 29.43335
190.5090, 63.43713
191.8910, 33.57117
193.2720, 27.43665
194.6530, 75.63806
196.0340, 66.11438
197.4140, 57.32544
198.7950, 62.36414
200.1750, 66.29297
201.5550, 45.94641
202.9350, 11.67407
204.3140, 71.67444
205.6930, 63.83813
207.0720, 52.45093
208.4510, 21.18140
209.8300, 23.75085
211.2080, 37.42773
212.5860, 30.96167
213.9640, 26.55078
215.3420, 14.27551
216.7190, 60.72778
218.0960, 35.28552
219.4730, 16.78918
220.8500, 30.41516
222.2260, 5.124146
223.6030, 79.42322
224.9790, 39.86438
226.3550, 30.32715
227.7300, 45.75098
229.1050, 17.17383
230.4810, 12.63208
231.8560, 39.16382
233.2300, 19.83777
234.6050, 22.30811
235.9790, 16.91553
237.3530, 12.59363
238.7270, 45.00647
240.1000, 20.44116
241.4740, 6.6650003E-02
242.8470, 5.592041
244.2200, 43.71338
245.5920, 52.24207
246.9650, 52.33972
248.3370, 36.90125
249.7090, 44.55652
251.0800, 19.03638
252.4520, 37.50317
253.8230, 53.12195
255.1940, 7.565918
256.5650, 52.00317
257.9360, 45.43945
259.3060, 23.87610
260.6760, 10.68750
262.0460, 34.79321
263.4160, 50.27795
264.7850, 34.70850
266.1550, 29.13647
267.5240, 35.58936
268.8920, 62.01550
270.2610, 40.44287
271.6290, 29.86426
272.9970, 0.7187500
274.3650, 3.699829
275.7330, 40.11841
277.1000, 45.53613
278.4680, 42.95117
279.8350, 27.36389
281.2010, 47.77332
282.5680, 31.39246
283.9340, 61.64185
285.3000, 19.10498
286.6660, 34.50513
288.0320, 35.90686
289.3970, 59.32190
290.7620, 24.75134
292.1270, 45.16101
293.4920, 34.56934
294.8570, 31.97729
296.2210, 55.38538
297.5850, 50.81201
298.9490, 49.75684
300.3120, 39.66650
301.6760, 38.06909
303.0390, 36.47083
304.4020, 30.87134
305.7650, 34.27051
307.1270, 22.66833
308.4890, 6.064941
309.8510, 42.47705
311.2130, 38.94946
312.5750, 27.34351
313.9360, 23.73608
315.2970, 21.08655
316.6580, 16.51599
318.0190, 19.44824
319.3790, 40.82959
320.7400, 43.01147
322.1000, 58.17334
323.4600, 45.14355
324.8190, 48.01111
326.1780, 31.03052
327.5380, 36.73560
328.8970, 60.45496
330.2550, 20.07080
331.6140, 12.27332
332.9720, 25.36523
334.3300, 72.98083
335.6880, 18.87402
337.0450, 11.52979
338.4030, 52.92834
339.7600, 15.39929
341.1170, 26.88623
342.4730, 11.91931
343.8300, 37.46338
345.1860, 29.98340
346.5420, 31.39001
347.8980, 63.75488
349.2530, 9.173218
350.6090, 67.68506
351.9640, 80.13977
353.3190, 33.57361
354.6730, 69.05725
356.0280, 78.50342
357.3820, 48.91797
358.7360, 60.38818
360.0900, 38.85364
361.4430, 68.31543
362.7970, 44.76978
364.1500, 54.21289
365.5030, 26.65466
366.8560, 45.94006
368.2080, 25.37695
369.5600, 39.81091
370.9120, 49.24329
372.2640, 72.56592
373.6160, 65.91492
374.9670, 52.30493
376.3180, 28.66772
377.6690, 36.01172
379.0200, 61.28271
380.3700, 85.23389
381.7200, 79.60864
383.0700, 64.90503
384.4200, 75.25928
385.7700, 44.07056
387.1190, 102.4757
388.4680, 63.88379
389.8170, 104.2554
391.1660, 104.1086
392.5140, 68.41174
393.8630, 80.68616
395.2110, 97.18347
396.5580, 120.4971
397.9060, 114.8414
399.2530, 89.14233
400.6000, 109.4192
401.9470, 91.84424
403.2940, 67.15918
404.6410, 53.28113
405.9870, 74.13147
407.3330, 26.51514
408.6790, 22.90649
410.0240, 129.3977
411.3700, 18.75439
412.7150, 82.12561
414.0600, 73.40613
415.4050, 38.33704
416.7490, 50.70532
418.0930, 56.97852
419.4370, 61.74414
420.7810, 37.15320
422.1250, 97.49524
423.4680, 26.94995
424.8110, 65.95447
426.1540, 51.36292
427.4970, 53.71082
428.8400, 65.03552
430.1820, 73.45605
431.5240, 74.09314
432.8660, 57.32153
434.2080, 66.76550
435.5490, 51.88232
436.8900, 26.06775
438.2310, 46.52478
439.5720, 54.13867
440.9130, 41.49670
442.2530, 20.88293
443.5930, 59.23901
444.9330, 37.62329
446.2730, 45.00415
447.6120, 44.28491
448.9510, 51.70044
450.2900, 48.05090
451.6290, 37.40906
452.9680, 70.71204
454.3060, 46.06213
455.6440, 65.40576
456.9820, 41.74854
458.3200, 61.10608
459.6570, 26.46265
460.9950, 43.81799
462.3320, 52.29028
463.6680, 12.64722
465.0050, 37.00317
466.3410, 64.34155
467.6780, 34.69385
469.0140, 51.99683
470.3490, 50.22705
471.6850, 66.57886
473.0200, 53.92944
474.3550, 54.25073
475.6900, 23.55615
477.0250, 7.146973
478.3590, 58.12817
479.6930, 34.41089
481.0270, 34.75488
482.3610, 5.094482
483.6950, 20.42969
485.0280, 75.76294
486.3610, 20.90649
487.6940, 91.39209
489.0270, 16.70630
490.3590, 81.01831
491.6920, 55.26538
493.0240, 37.65015
494.3560, 53.91748
495.6870, 75.22290
497.0190, 22.46631
498.3500, 59.91846
499.6810, 32.22290
501.0120, 52.45435
502.3420, 23.26709
503.6720, 16.92920
505.0020, 44.30640
506.3320, 42.57520
507.6620, 90.84912
508.9920, 18.18018
510.3210, 104.3591
511.6500, 79.64429
512.9790, 44.92773
514.3070, 101.2058
515.6360, 57.48633
516.9640, 95.76514
518.2920, 86.04614
519.6190, 71.33765
520.9470, 74.61572
522.2740, 87.91650
523.6010, 96.19092
524.9280, 39.46387
526.2550, 56.70557
527.5810, 68.97607
528.9070, 48.31470
530.2330, 74.58154
531.5590, 35.84692
532.8850, 24.11084
534.2100, 49.37378
535.5350, 61.63574
536.8600, 67.87744
538.1850, 47.17432
539.5090, 8.437744
540.8340, 33.81836
542.1580, 31.12427
543.4820, 92.37817
544.8050, 8.652588
546.1290, 54.57593
547.4520, 25.82690
548.7750, 25.09521
550.0980, 6.656494
551.4200, 48.59326
552.7420, 50.83472
554.0650, 4.090820
555.3860, 53.34937
556.7080, 23.58716
558.0300, 34.82373
559.3510, 63.05933
560.6720, 21.29346
561.9930, 46.52539
563.3130, 43.75586
564.6340, 11.98584
565.9540, 55.21606
567.2740, 26.42603
568.5940, 0.6193850
569.9130, 41.84326
571.2330, 29.01514
572.5520, 55.23608
573.8710, 8.544678
575.1890, 43.77222
576.5080, 13.06738
577.8260, 21.67212
579.1440, 18.53345
580.4620, 18.73657
581.7800, 20.93823
583.0970, 9.875732
584.4140, 18.98755
585.7310, 48.33618
587.0480, 52.60645
588.3650, 12.89233
589.6810, 9.134521
590.9970, 16.34985
592.3130, 1.534912
593.6290, 21.71558
594.9440, 33.89526
596.2600, 6.053467
597.5750, 2.740479
598.8900, 71.54175
600.2040, 12.71045
601.5190, 57.83521
602.8330, 17.10962
604.1470, 23.27100
605.4610, 38.60571
606.7740, 12.76318
608.0880, 35.91821
609.4010, 28.07178
610.7140, 38.27148
612.0260, 39.09985
613.3390, 41.38647
614.6510, 35.29980
615.9630, 53.44214
617.2750, 46.61060
618.5870, 54.73218
619.8980, 3.867432
621.2100, 81.84937
622.5210, 34.01465
623.8320, 137.1758
625.1420, 51.37769
626.4530, 110.5046
627.7630, 92.73682
629.0730, 60.88867
630.3830, 88.00879
631.6920, 127.2864
633.0010, 126.4021
634.3110, 155.1838
635.6190, 135.8789
636.9280, 152.9941
638.2370, 182.1921
639.5450, 127.2961
640.8530, 164.4509
642.1610, 167.8164
643.4690, 132.0303
644.7760, 132.7625
646.0830, 82.86938
647.3900, 123.0168
648.6970, 94.13379
650.0040, 96.21753
651.3100, 118.7229
652.6160, 61.84521
653.9220, 131.2605
655.2280, 48.37036
656.5340, 56.44873
657.8390, 143.0513
659.1440, 61.20508
660.4490, 52.79785
661.7540, 12.84863
663.0580, 83.91309
664.3620, 57.98340
665.6660, 23.04199
666.9700, 81.16040
668.2740, 42.33228
669.5770, 43.38281
670.8810, 90.51489
672.1840, 60.55933
673.4870, 82.60132
674.7890, 56.47339
676.0920, 31.50928
677.3940, 59.63232
678.6960, 28.66260
679.9970, 51.72046
681.2990, 50.74438
682.6000, 39.76562
683.9010, 47.73291
685.2020, 9.799561
686.5030, 44.81128
687.8040, 60.82007
689.1040, 65.82617
690.4040, 40.96094
691.7040, 44.96094
693.0040, 88.95801
694.3030, 28.09912
695.6020, 6.105713
696.9010, 68.55103
698.2000, 23.64331
699.4990, 105.6265
700.7970, 30.60645
702.0950, 7.497314
703.3930, 77.47046
704.6910, 31.51685
705.9890, 43.46436
707.2860, 33.98193
708.5830, 72.07397
709.8800, 32.16968
711.1770, 31.16235
712.4730, 69.25610
713.7700, 59.27417
715.0660, 69.29102
716.3620, 91.22803
717.6580, 89.80640
718.9530, 73.06201
720.2480, 88.04614
721.5430, 50.93774
722.8380, 64.68042
724.1330, 47.85303
725.4270, 70.70947
726.7220, 59.62109
728.0160, 53.60132
729.3100, 48.50708
730.6030, 12.74390
731.8970, 17.64233
733.1900, 25.47144
734.4830, 74.55444
735.7760, 66.46216
737.0680, 40.30444
738.3610, 58.15796
739.6530, 7.623779
740.9450, 1.300781
742.2360, 18.16455
743.5280, 14.16748
744.8190, 24.14990
746.1100, 29.91211
747.4010, 36.82056
748.6920, 58.59937
749.9830, 76.41040
751.2730, 46.25073
752.5630, 29.99023
753.8530, 10.56836
755.1430, 65.39868
756.4320, 70.15527
757.7210, 10.97949
759.0100, 49.74756
760.2990, 0.6828610
761.5880, 77.58423
762.8760, 53.32251
764.1650, 69.30298
765.4530, 26.09839
766.7400, 10.89673
768.0280, 86.69116
769.3150, 36.51782
770.6030, 47.24878
771.8900, 31.01172
773.1760, 51.77148
774.4630, 80.70068
775.7490, 10.66431
777.0360, 12.14429
778.3220, 30.03198
779.6070, 19.76636
780.8930, 69.51880
782.1780, 13.24561
783.4630, 31.98120
784.7480, 47.69995
786.0330, 1.476807
787.3180, 40.31128
788.6020, 7.900146
789.8860, 15.79712
791.1700, 37.49243
792.4540, 17.18433
793.7370, 58.92651
795.0200, 1.611572
796.3030, 1.708008
797.5860, 11.14111
798.8690, 35.93896
800.1510, 35.61182
801.4340, 12.28125
802.7160, 31.94678
803.9980, 42.62061
805.2790, 3.720459
806.5610, 29.93140
807.8420, 2.335449
809.1230, 25.30566
810.4040, 51.94287
811.6850, 21.42310
812.9650, 20.19409
814.2450, 51.89673
815.5250, 32.51294
816.8050, 58.04004
818.0850, 37.64868
819.3640, 69.25391
820.6430, 14.81201
821.9220, 11.41064
823.2010, 41.00586
824.4800, 19.60693
825.7580, 55.21533
827.0360, 44.82129
828.3140, 10.57520
829.5920, 83.01831
830.8690, 18.59595
832.1470, 43.18140
833.4240, 32.73926
834.7010, 47.31763
835.9780, 52.49976
837.2540, 53.68604
838.5310, 54.05591
839.8070, 67.52637
841.0830, 52.09814
842.3580, 68.66699
843.6340, 5.232422
844.9090, 52.79321
846.1840, 76.35156
847.4590, 15.46484
848.7340, 38.04443
850.0080, 53.45776
851.2830, 15.99487
852.5570, 82.47754
853.8310, 57.00708
855.1040, 81.51147
856.3780, 82.65894
857.6510, 18.88403
858.9240, 60.38135
860.1970, 38.89453
861.4700, 8.398926
862.7420, 6.906494
864.0150, 6.393311
865.2870, 5.797852
866.5590, 18.36597
867.8300, 23.00293
869.1020, 49.48853
870.3730, 54.97144
871.6440, 49.45093
872.9150, 27.92700
874.1850, 32.84839
875.4560, 29.56958
876.7260, 33.36377
877.9960, 27.82739
879.2660, 43.28687
880.5360, 24.82935
881.8050, 68.28247
883.0740, 12.23242
884.3430, 51.10693
885.6120, 60.46240
886.8810, 23.14673
888.1490, 27.28101
889.4180, 56.70410
890.6860, 41.12378
891.9530, 84.53906
893.2210, 18.36255
894.4880, 45.61890
895.7560, 7.947754
897.0230, 17.44629
898.2900, 21.86548
899.5560, 15.15454
900.8230, 30.70801
902.0890, 60.09375
903.3550, 61.62939
904.6210, 59.02075
905.8860, 47.37769
907.1520, 64.85693
908.4170, 57.23779
909.6820, 106.7266
910.9470, 46.04712
912.2110, 8.416504
913.4760, 21.69946
914.7400, 66.05908
916.0040, 1.414795
917.2680, 44.78540
918.5310, 89.10327
919.7950, 43.35303
921.0580, 81.71387
922.3210, 50.59448
923.5840, 53.95630
924.8460, 96.27637
926.1090, 0.6220700
927.3710, 95.96289
928.6330, 25.44995
929.8950, 5.685059
931.1560, 109.9800
932.4180, 15.77246
933.6790, 93.53955
934.9400, 38.73999
936.2010, 90.01489
937.4610, 27.31396
938.7220, 12.44873
939.9820, 22.73755
941.2420, 119.3264
942.5020, 68.50806
943.7610, 117.7764
945.0210, 28.97070
946.2800, 48.43018
947.5390, 102.5457
948.7980, 0.6774900
950.0560, 11.82397
951.3150, 67.17163
952.5730, 69.40967
953.8310, 114.7034
955.0890, 39.92383
956.3460, 65.35547
957.6040, 108.1772
958.8610, 22.37524
960.1180, 91.27271
961.3750, 99.47339
962.6310, 60.75391
963.8880, 58.52466
965.1440, 20.66064
966.4000, 101.9619
967.6560, 47.14014
968.9110, 71.34424
970.1670, 47.53491
971.4220, 55.72974
972.6770, 60.17236
973.9320, 93.51978
975.1860, 53.92310
976.4410, 119.7075
977.6950, 50.16504
978.9490, 113.7327
980.2030, 64.22827
981.4560, 48.38818
982.7100, 74.45337
983.9630, 76.75879
985.2160, 47.87256
986.4690, 116.9338
987.7210, 86.15308
988.9740, 163.3284
990.2260, 151.0605
991.4780, 112.2986
992.7300, 137.6636
993.9820, 68.85083
995.2330, 122.8801
996.4840, 106.2820
997.7350, 7.432373
998.9860, 94.67725
1000.237, 81.79883
1001.487, 95.91870
1002.738, 86.05688
1003.988, 82.21216
1005.237, 93.04712
1006.487, 93.50952
1007.737, 95.75244
1008.986, 125.8713
1010.235, 102.1538
1011.484, 101.3596
1012.732, 94.31470
1013.981, 69.32446
1015.229, 117.2671
1016.477, 82.39307
1017.725, 16.38159
1018.973, 101.4197
1020.220, 70.65796
1021.468, 78.79004
1022.715, 104.9370
1023.962, 64.68286
1025.208, 119.8101
1026.455, 47.72900
1027.701, 113.6948
1028.947, 109.6106
1030.193, 32.92383
1031.439, 111.8806
1032.684, 45.09814
1033.930, 97.11255
1035.175, 95.02881
1036.420, 73.45435
1037.665, 78.88721
1038.909, 107.7236
1040.154, 73.68115
1041.398, 84.57739
1042.642, 36.04248
1043.885, 95.82031
1045.129, 104.7239
1046.372, 8.596191
1047.615, 75.35059
1048.858, 74.21826
1050.101, 15.11450
1051.344, 130.9033
1052.586, 23.96484
1053.828, 74.83862
1055.070, 141.7104
1056.312, 8.722900
1057.554, 115.5261
1058.795, 31.35449
1060.036, 44.21802
1061.277, 146.0762
1062.518, 35.91724
1063.759, 125.5974
1064.999, 85.49219
1066.240, 79.90869
1067.480, 96.72461
1068.719, 91.54297
1069.959, 69.89404
1071.199, 106.6836
1072.438, 61.62891
1073.677, 151.5088
1074.916, 120.3916
1076.154, 101.1584
1077.393, 124.9871
1078.631, 61.70508
1079.869, 105.5354
1081.107, 109.3669
1082.345, 102.2915
1083.582, 157.0527
1084.820, 169.7791
1086.057, 204.4456
1087.294, 218.4922
1088.530, 247.5581
1089.767, 215.1152
1091.003, 129.7498
1092.239, 77.43750
1093.475, 61.16138
1094.711, 18.72046
1095.947, 72.97388
1097.182, 26.57324
1098.417, 67.01709
1099.652, 42.76709
1100.887, 73.34473
1102.122, 30.21436
1103.356, 97.13281
1104.590, 24.69409
1105.824, 112.2644
1107.058, 89.95630
1108.292, 72.40918
1109.525, 62.45752
1110.758, 56.69482
1111.991, 51.51685
1113.224, 77.12744
1114.457, 48.63550
1115.689, 100.2974
1116.922, 100.8335
1118.154, 76.32373
1119.385, 109.8735
1120.617, 4.375977
1121.849, 9.912354
1123.080, 26.23267
1124.311, 33.70874
1125.542, 9.900879
1126.773, 3.406982
1128.003, 31.83008
1129.234, 78.21143
1130.464, 81.58887
1131.694, 33.95508
1132.923, 116.3228
1134.153, 21.32715
1135.382, 50.99829
1136.612, 60.31543
1137.841, 0.3754880
1139.069, 42.92017
1140.298, 14.20679
1141.526, 52.49341
1142.755, 53.77808
1143.983, 8.048828
1145.210, 25.30908
1146.438, 29.93433
1147.665, 57.21191
1148.893, 59.45020
1150.120, 28.68042
1151.347, 48.52002
1152.573, 42.11499
1153.800, 54.31934
1155.026, 24.51562
1156.252, 30.70215
1157.478, 14.88062
1158.704, 27.22192
1159.929, 55.20752
1161.155, 39.35889
1162.380, 53.50220
1163.605, 12.63770
1164.829, 51.76392
1166.054, 42.73535
1167.278, 14.84521
1168.503, 35.94556
1169.727, 31.03711
1170.950, 3.880371
1172.174, 24.18701
1173.397, 69.24561
1174.621, 60.27466
1175.844, 65.31787
1177.066, 4.353271
1178.289, 49.29224
1179.512, 10.30859
1180.734, 79.27930
1181.956, 96.28174
1183.178, 14.72339
1184.399, 43.25049
1185.621, 84.22241
1186.842, 56.18701
1188.063, 68.14355
1189.284, 9.2041001E-02
1190.505, 93.95312
1191.726, 63.88159
1192.946, 35.80176
1194.166, 108.5229
1195.386, 47.42700
1196.606, 32.32373
1197.826, 96.04663
1199.045, 42.07349
1200.264, 59.63135
1201.483, 58.46826
1202.702, 23.29761
1203.921, 79.91138
1205.139, 63.72388
1206.357, 53.41650
1207.575, 53.15430
1208.793, 20.94238
1210.011, 82.62793
1211.228, 39.39990
1212.446, 67.83594
1213.663, 54.87988
1214.880, 52.58789
1216.097, 0.7119140
1217.313, 55.97510
1218.529, 19.65479
1219.746, 33.31641
1220.962, 30.97852
1222.177, 16.63184
1223.393, 40.27686
1224.608, 49.91406
1225.824, 9.533203
1227.039, 35.16943
1228.254, 11.76758
1229.468, 48.37695
1230.683, 51.97852
1231.897, 67.57666
1233.111, 90.16846
1234.325, 86.75488
1235.539, 71.33447
1236.752, 98.90674
1237.965, 54.47217
1239.179, 44.06787
1240.392, 105.5928
1241.604, 33.82666
1242.817, 146.6870
1244.029, 62.01758
1245.241, 7.510254
1246.453, 113.0229
1247.665, 6.500977
1248.877, 12.88867
1250.088, 65.56689
1251.300, 63.85791
1252.511, 33.29980
1253.722, 89.73193
1254.932, 0.1562500
1256.143, 64.68018
1257.353, 105.7886
1258.563, 46.21436
1259.773, 47.61279
1260.983, 29.91357
1262.192, 58.61670
1263.402, 75.99268
1264.611, 51.36230
1265.820, 60.86035
1267.029, 49.93457
1268.237, 1.929199
1269.446, 38.16455
1270.654, 19.65820
1271.862, 37.70264
1273.070, 54.86377
1274.278, 69.01465
1275.485, 62.32373
1276.692, 71.86279
1277.900, 60.39990
1279.106, 72.14258
1280.313, 69.50586
1281.520, 69.70117
1282.726, 66.90186
1283.932, 66.33887
1285.138, 64.06104
1286.344, 69.95654
1287.550, 60.12891
1288.755, 67.30127
1289.960, 61.23730
1291.165, 60.34814
1292.370, 53.50830
1293.575, 64.50830
1294.779, 85.68213
1295.984, 102.5923
1297.188, 131.8394
1298.392, 112.9258
1299.595, 117.0581
1300.799, 89.06104
1302.002, 127.0859
1303.206, 135.0298
1304.409, 107.0308
1305.611, 197.1450
1306.814, 141.1885
1308.016, 245.2871
1309.219, 165.1899
1310.421, 248.2725
1311.623, 252.3120
1312.824, 343.2197
1314.026, 257.2217
1315.227, 305.1880
1316.428, 408.4888
1317.629, 435.4189
1318.830, 537.5327
1320.031, 585.5972
1321.231, 773.6797
1322.431, 947.4092
1323.631, 1133.413
1324.831, 1513.219
1326.031, 1988.289
1327.230, 3031.352
1328.429, 4961.897
1329.628, 9399.835
1330.827, 20023.88
1332.026, 38537.88
1333.225, 46641.90
1334.423, 36405.32
1335.621, 19509.34
1336.819, 9573.311
1338.017, 5247.163
1339.214, 3131.162
1340.412, 2129.058
1341.609, 1587.885
1342.806, 1076.874
1344.003, 939.6294
1345.200, 697.5615
1346.396, 537.4858
1347.592, 530.2598
1348.788, 388.2324
1349.984, 280.1709
1351.180, 374.0635
1352.376, 228.9526
1353.571, 219.7061
1354.766, 206.6675
1355.961, 166.4961
1357.156, 280.6201
1358.351, 143.5137
1359.545, 96.39990
1360.739, 200.7476
1361.933, 167.6523
1363.127, 128.4092
1364.321, 137.2275
1365.515, 169.0410
1366.708, 150.7969
1367.901, 140.6641
1369.094, 93.58105
1370.287, 103.4463
1371.479, 165.1924
1372.672, 107.9653
1373.864, 112.9341
1375.056, 119.7905
1376.248, 73.88770
1377.440, 107.0239
1378.631, 87.91064
1379.822, 130.5552
1381.014, 96.61084
1382.205, 31.61328
1383.395, 77.99707
1384.586, 3.261719
1385.776, 61.48584
1386.966, 83.08984
1388.157, 74.93555
1389.346, 4.394531
1390.536, 66.37598
1391.725, 23.83105
1392.915, 70.92822
1394.104, 28.81738
1395.293, 71.66455
1396.482, 36.04883
1397.670, 100.6821
1398.858, 1.604004
1400.047, 15.44238
1401.235, 10.49756
1402.422, 33.46338
1403.610, 48.42773
1404.798, 6.620117
1405.985, 131.3096
1407.172, 63.24121
1408.359, 1.135254
1409.546, 82.06348
1410.732, 90.98779
1411.918, 5.909180
1413.105, 33.17090
1414.291, 37.74658
1415.476, 4.338867
1416.662, 81.57373
1417.848, 70.48486
1419.033, 29.39355
1420.218, 46.31006
1421.403, 15.22363
1422.587, 97.13574
1423.772, 140.0483
1424.956, 56.95850
1426.140, 91.88574
1427.324, 52.81055
1428.508, 39.26270
1429.692, 162.6660
1430.875, 42.59570
1432.059, 155.5254
1433.242, 116.4771
1434.425, 48.45068
1435.607, 118.4282
1436.790, 156.4058
1437.972, 167.3872
1439.154, 130.3716
1440.336, 122.4287
1441.518, 112.4956
1442.700, 136.5718
1443.881, 116.6562
1445.062, 173.7490
1446.243, 165.8486
1447.424, 151.5039
1448.605, 102.0601
1449.786, 129.1558
1450.966, 129.2573
1452.146, 165.2876
1453.326, 190.9438
1454.506, 91.11719
1455.685, 194.0327
1456.865, 84.39795
1458.044, 121.5093
1459.223, 152.6968
1460.402, 110.5859
1461.581, 159.7793
1462.759, 227.9531
1463.938, 63.35156
1465.116, 242.1953
1466.294, 93.38281
1467.472, 129.4248
1468.649, 98.88135
1469.827, 89.96826
1471.004, 128.0278
1472.181, 136.9243
1473.358, 201.0283
1474.535, 93.14062
1475.711, 140.3726
1476.887, 80.31738
1478.064, 113.2598
1479.240, 111.1978
1480.415, 67.13184
1481.591, 55.05615
1482.767, 95.96826
1483.942, 131.8662
1485.117, 147.7471
1486.292, 113.6099
1487.467, 95.46387
1488.641, 196.3057
1489.815, 72.23633
1490.990, 152.1494
1492.164, 37.12842
1493.337, 70.13037
1494.511, 67.23584
1495.685, 101.4917
1496.858, 83.76221
1498.031, 106.0479
1499.204, 48.73047
1500.377, 61.48779
1501.549, 63.98438
1502.722, 115.2905
1503.894, 94.38037
1505.066, 47.63721
1506.238, 83.09180
1507.409, 194.7793
1508.581, 147.7349
1509.752, 75.00293
1510.923, 108.6094
1512.094, 46.61230
1513.265, 166.1035
1514.436, 170.1953
1515.606, 2.973145
1516.776, 122.5703
1517.946, 84.46387
1519.116, 94.09521
1520.286, 0.0000000E+00
##END=



