##NAMES=Diamond
##RRUFFID=R150088
##IDEAL CHEMISTRY=C
##LOCALITY=unknown
##OWNER=RRUFF
##SOURCE=Michael Scott
##DESCRIPTION=Colorless faceted crystals
##STATUS=The identification of this mineral has been determined only by Raman spectroscopy
##URL=rruff.info/R150088
98.39966, 0.0000000E+00
100.3281, 21.04270
102.2566, 16.11505
104.1851, 12.38256
106.1135, 9.271778
108.0420, 6.884659
109.9705, 5.177408
111.8989, 4.022461
113.8274, 3.578350
115.7559, 4.107132
117.6843, 7.185055
119.6128, 9.934761
121.5413, 11.01783
123.4697, 10.28599
125.3982, 9.722725
127.3267, 9.872417
129.2551, 10.53861
131.1836, 10.84125
133.1121, 10.28257
135.0405, 9.589233
136.9690, 9.167034
138.8975, 9.101051
140.8259, 9.172913
142.7544, 9.387714
144.6829, 9.722572
146.6113, 10.04438
148.5398, 10.34403
150.4683, 10.61360
152.3967, 10.83768
154.3252, 10.92988
156.2537, 11.06913
158.1821, 11.35607
160.1106, 11.79192
162.0391, 12.10392
163.9675, 12.00101
165.8960, 11.77962
167.8245, 11.97752
169.7529, 12.95833
171.6814, 13.80265
173.6099, 14.09755
175.5383, 13.56619
177.4668, 13.08425
179.3953, 12.52414
181.3237, 12.08957
183.2522, 12.15039
185.1807, 13.40459
187.1091, 14.49722
189.0376, 14.74263
190.9661, 13.05579
192.8945, 12.26820
194.8230, 13.44972
196.7515, 15.69185
198.6799, 16.91371
200.6084, 15.79677
202.5369, 14.34628
204.4653, 13.59573
206.3938, 13.74106
208.3223, 13.86110
210.2507, 13.80768
212.1792, 13.59248
214.1077, 13.10126
216.0361, 11.76052
217.9646, 10.54870
219.8931, 10.25626
221.8215, 11.15471
223.7500, 11.93466
225.6785, 12.26821
227.6069, 12.15737
229.5354, 11.91634
231.4639, 11.25419
233.3923, 10.67311
235.3208, 10.59940
237.2493, 11.62634
239.1777, 11.96487
241.1062, 10.79250
243.0347, 8.228462
244.9631, 6.650261
246.8916, 6.932106
248.8201, 7.641335
250.7485, 7.741608
252.6770, 6.037453
254.6055, 5.141518
256.5339, 6.017029
258.4624, 8.208778
260.3909, 9.554115
262.3193, 9.059570
264.2478, 8.091072
266.1763, 7.529739
268.1047, 7.604034
270.0332, 7.799042
271.9617, 8.282440
273.8901, 8.914742
275.8186, 9.149094
277.7471, 8.602676
279.6755, 7.846138
281.6040, 7.153030
283.5325, 6.377586
285.4609, 6.004059
287.3894, 6.529205
289.3179, 7.723389
291.2463, 8.341057
293.1748, 7.540245
295.1033, 6.755913
297.0317, 7.129944
298.9602, 8.936089
300.8887, 10.23327
302.8171, 10.24584
304.7456, 9.286682
306.6741, 8.602127
308.6025, 8.488945
310.5310, 8.417831
312.4595, 7.919014
314.3879, 6.760262
316.3164, 6.454773
318.2449, 8.046967
320.1733, 10.54973
322.1018, 11.90000
324.0303, 11.53016
325.9587, 10.98797
327.8872, 10.82754
329.8157, 10.77454
331.7441, 11.02612
333.6726, 11.81895
335.6011, 12.72989
337.5295, 13.14441
339.4580, 12.71693
341.3865, 12.47929
343.3149, 12.80700
345.2434, 13.75591
347.1719, 14.77174
349.1003, 16.08175
351.0288, 17.26646
352.9573, 17.99357
354.8857, 18.31126
356.8142, 18.10716
358.7427, 17.08788
360.6711, 15.21510
362.5996, 14.25963
364.5281, 14.76168
366.4565, 15.72881
368.3850, 16.78601
370.3135, 18.03870
372.2419, 18.51098
374.1704, 17.72301
376.0989, 16.14471
378.0273, 15.06453
379.9558, 14.59697
381.8843, 14.33266
383.8127, 14.15598
385.7412, 14.08579
387.6697, 14.09841
389.5981, 14.10986
391.5266, 14.28194
393.4551, 14.80293
395.3835, 15.78555
397.3120, 16.42089
399.2405, 16.47975
401.1689, 15.95497
403.0974, 15.24229
405.0259, 13.52975
406.9543, 12.21238
408.8828, 12.73122
410.8113, 15.67106
412.7397, 17.45034
414.6682, 16.31942
416.5967, 13.42014
418.5251, 11.96606
420.4536, 13.45812
422.3821, 14.71835
424.3105, 14.26640
426.2390, 12.17775
428.1675, 10.59615
430.0959, 9.983688
432.0244, 9.915749
433.9529, 10.08778
435.8813, 10.67877
437.8098, 11.13960
439.7383, 11.19242
441.6667, 10.97468
443.5952, 10.93972
445.5237, 11.40407
447.4521, 11.81701
449.3806, 11.86651
451.3091, 11.49146
453.2375, 11.21924
455.1660, 11.42227
457.0945, 11.66424
459.0229, 11.42597
460.9514, 9.621681
462.8799, 8.468224
464.8083, 8.738815
466.7368, 10.12685
468.6653, 10.98766
470.5938, 10.76141
472.5222, 10.41275
474.4507, 10.45440
476.3792, 11.13119
478.3076, 11.78559
480.2361, 11.94238
482.1646, 12.26309
484.0930, 13.75410
486.0215, 17.58754
487.9500, 20.34470
489.8784, 21.04696
491.8069, 19.66261
493.7354, 17.56820
495.6638, 13.63350
497.5923, 9.917336
499.5208, 7.714516
501.4492, 7.217148
503.3777, 6.521515
505.3062, 5.064789
507.2346, 3.336914
509.1631, 2.024467
511.0916, 1.260796
513.0200, 0.6578750
514.9485, 0.1298600
516.8770, 0.3386150
518.8054, 0.7218250
520.7339, 0.8909610
522.6624, 1.042595
524.5908, 1.299416
526.5193, 1.703316
528.4478, 1.957230
530.3762, 1.897301
532.3047, 1.762733
534.2332, 1.805229
536.1616, 2.408958
538.0901, 2.519272
540.0186, 1.742050
541.9470, 0.4134060
543.8755, 0.6981200
545.8040, 1.880402
547.7324, 2.492752
549.6609, 2.116829
551.5894, 0.5659480
553.5178, 0.3580400
555.4463, 0.2855000
557.3748, 6.8660001E-03
559.3032, 0.1200870
561.2317, 0.7069780
563.1602, 0.9458770
565.0886, 8.5487001E-02
567.0171, 1.042419
568.9456, 1.397636
570.8740, 0.2062760
572.8025, 1.348557
574.7310, 1.874603
576.6594, 1.649223
578.5879, 0.2852940
580.5164, 4.020096
582.4448, 7.125969
584.3733, 6.747803
586.3018, 1.878036
588.2302, 0.8140340
590.1587, 0.6950530
592.0872, 2.790993
594.0156, 2.700409
595.9441, 3.5705999E-02
597.8726, 1.822487
599.8010, 1.536285
601.7295, 0.3388060
603.6580, 0.2259370
605.5864, 0.5333790
607.5149, 0.9329070
609.4434, 0.2542950
611.3718, 0.9361270
613.3003, 1.457390
615.2288, 0.8891980
617.1572, 5.2634999E-02
619.0857, 1.165794
621.0142, 2.777122
622.9426, 3.091537
624.8711, 0.6554260
626.7996, 1.789436
628.7280, 2.667679
630.6565, 1.877335
632.5850, 1.362694
634.5134, 1.696327
636.4419, 2.244766
638.3704, 2.480507
640.2988, 2.337471
642.2273, 2.053932
644.1558, 1.129562
646.0842, 0.2633290
648.0127, 0.4304890
649.9412, 2.559952
651.8696, 4.165649
653.7981, 4.479355
655.7266, 3.824341
657.6550, 3.402634
659.5835, 3.260376
661.5120, 3.332993
663.4404, 3.862343
665.3689, 4.727081
667.2974, 5.057739
669.2258, 4.144531
671.1543, 3.209183
673.0828, 2.717552
675.0112, 2.725502
676.9397, 2.878738
678.8682, 3.357323
680.7966, 3.795418
682.7251, 3.972183
684.6536, 3.842392
686.5820, 3.651794
688.5105, 3.302155
690.4390, 3.024048
692.3674, 3.166321
694.2959, 3.943184
696.2244, 4.281555
698.1528, 3.788422
700.0813, 2.926750
702.0098, 2.212051
703.9382, 1.574219
705.8667, 1.242783
707.7952, 1.253006
709.7236, 1.594429
711.6521, 2.317154
713.5806, 3.887604
715.5090, 4.941322
717.4375, 4.682343
719.3660, 3.526054
721.2944, 2.705368
723.2229, 2.082794
725.1514, 2.082596
727.0798, 3.244446
729.0083, 5.361237
730.9368, 6.577469
732.8652, 6.638908
734.7937, 6.146339
736.7222, 5.197227
738.6506, 3.826744
740.5791, 2.782227
742.5076, 2.027939
744.4360, 1.619820
746.3645, 1.802841
748.2930, 2.712563
750.2214, 3.287941
752.1499, 3.220680
754.0784, 3.015396
756.0068, 2.998215
757.9353, 3.232552
759.8638, 3.507111
761.7922, 4.056923
763.7207, 4.335251
765.6492, 3.744987
767.5776, 1.876114
769.5061, 0.8450470
771.4346, 1.395111
773.3630, 2.547096
775.2915, 3.534515
777.2200, 4.443703
779.1484, 4.715065
781.0769, 3.618393
783.0054, 2.235954
784.9338, 1.826759
786.8623, 2.972771
788.7908, 3.781799
790.7192, 3.709862
792.6477, 3.179832
794.5762, 2.487747
796.5046, 1.425453
798.4331, 1.045555
800.3616, 2.042107
802.2900, 3.491920
804.2185, 4.057785
806.1470, 3.369965
808.0754, 2.642250
810.0039, 1.726646
811.9324, 1.032333
813.8608, 1.127747
815.7893, 2.408669
817.7178, 3.373344
819.6462, 3.408272
821.5747, 3.056541
823.5032, 2.920921
825.4316, 3.142197
827.3601, 3.338791
829.2886, 3.412651
831.2170, 3.489822
833.1455, 3.658905
835.0740, 3.929543
837.0024, 4.095284
838.9309, 4.082237
840.8594, 4.026627
842.7878, 4.062912
844.7163, 4.415321
846.6448, 4.466339
848.5732, 3.882751
850.5017, 3.028748
852.4302, 2.434326
854.3586, 2.226631
856.2871, 2.240356
858.2156, 2.267242
860.1440, 2.380623
862.0725, 2.802795
864.0010, 4.289474
865.9294, 4.928345
867.8579, 3.966415
869.7864, 2.397270
871.7148, 1.444138
873.6433, 1.117828
875.5718, 1.128387
877.5002, 1.881577
879.4287, 2.675812
881.3572, 2.710678
883.2856, 1.257652
885.2141, 0.6558460
887.1426, 1.975594
889.0710, 3.641167
890.9995, 3.917244
892.9280, 2.568947
894.8564, 1.555885
896.7849, 1.204628
898.7134, 1.307411
900.6418, 1.800674
902.5703, 2.811264
904.4988, 3.487831
906.4272, 3.698166
908.3557, 3.575661
910.2842, 3.131241
912.2126, 2.278580
914.1411, 1.408798
916.0696, 0.3372500
917.9980, 0.5879060
919.9265, 1.277992
921.8550, 1.722549
923.7834, 1.582962
925.7119, 7.0983998E-02
927.6404, 1.300560
929.5688, 1.847534
931.4973, 1.573082
933.4258, 1.442795
935.3542, 1.756233
937.2827, 1.871246
939.2112, 1.187042
941.1396, 0.1109240
943.0681, 6.8680003E-02
944.9966, 1.342796
946.9250, 2.458778
948.8535, 2.544197
950.7820, 1.852333
952.7104, 1.108490
954.6389, 0.3012080
956.5674, 0.9898530
958.4958, 9.6802004E-02
960.4243, 1.429932
962.3528, 1.948112
964.2813, 1.248749
966.2097, 0.5150150
968.1382, 0.1024400
970.0667, 0.4933010
971.9951, 0.4821550
973.9236, 0.1351700
975.8521, 0.4753110
977.7805, 0.2039490
979.7090, 0.1338730
981.6375, 5.1254001E-02
983.5659, 0.5778120
985.4944, 0.6627040
987.4229, 0.5233310
989.3513, 1.610306
991.2798, 1.646263
993.2083, 0.8158800
995.1367, 0.3648680
997.0652, 1.038216
998.9937, 1.298035
1000.922, 3.2623000E-02
1002.851, 2.386322
1004.779, 3.402435
1006.708, 1.533943
1008.636, 0.1359410
1010.564, 0.3424530
1012.493, 1.264580
1014.421, 1.132484
1016.350, 0.5641400
1018.278, 1.424866
1020.207, 0.4373780
1022.135, 2.730843
1024.064, 3.109161
1025.992, 0.3110350
1027.921, 0.8644870
1029.849, 1.204597
1031.778, 3.706291
1033.706, 4.729637
1035.635, 4.163300
1037.563, 3.526764
1039.491, 2.508324
1041.420, 1.814514
1043.348, 2.001839
1045.277, 2.817085
1047.205, 3.428940
1049.134, 3.562393
1051.062, 3.825348
1052.991, 4.721138
1054.919, 5.775108
1056.848, 6.074028
1058.776, 4.996658
1060.705, 4.218254
1062.633, 3.995842
1064.562, 4.001587
1066.490, 3.823395
1068.418, 3.435631
1070.347, 3.529167
1072.275, 4.694771
1074.204, 5.790863
1076.132, 6.303230
1078.061, 6.232414
1079.989, 5.729324
1081.918, 3.778343
1083.846, 2.589455
1085.775, 3.140327
1087.703, 4.750641
1089.632, 5.849983
1091.560, 6.478722
1093.489, 6.623589
1095.417, 5.799774
1097.345, 4.828468
1099.274, 4.393257
1101.202, 4.515762
1103.131, 4.893036
1105.059, 5.782547
1106.988, 6.626900
1108.916, 7.059753
1110.845, 7.105453
1112.773, 7.483368
1114.702, 8.515755
1116.630, 9.403862
1118.559, 10.13908
1120.487, 10.59163
1122.416, 10.46545
1124.344, 9.586884
1126.272, 9.029396
1128.201, 9.615784
1130.129, 10.11845
1132.058, 9.148598
1133.986, 6.637100
1135.915, 6.015747
1137.843, 9.717331
1139.772, 13.02728
1141.700, 14.15300
1143.629, 13.65601
1145.557, 13.58184
1147.486, 14.34824
1149.414, 14.79026
1151.343, 14.46278
1153.271, 13.96410
1155.199, 14.10811
1157.128, 14.98906
1159.056, 15.32354
1160.985, 14.03017
1162.913, 13.21597
1164.842, 14.55871
1166.770, 17.51418
1168.699, 18.57826
1170.627, 15.98626
1172.556, 14.17611
1174.484, 14.59669
1176.413, 15.92516
1178.341, 16.28888
1180.270, 15.06403
1182.198, 14.80000
1184.126, 16.54285
1186.055, 18.25681
1187.983, 18.95261
1189.912, 18.83869
1191.840, 18.09048
1193.769, 16.15721
1195.697, 14.87264
1197.626, 15.48708
1199.554, 16.74274
1201.483, 17.26990
1203.411, 16.93069
1205.340, 16.55724
1207.268, 16.21227
1209.197, 15.76514
1211.125, 14.84592
1213.053, 13.63554
1214.982, 13.36789
1216.910, 14.45083
1218.839, 15.54891
1220.767, 16.36815
1222.696, 17.11546
1224.624, 18.05201
1226.553, 19.17186
1228.481, 20.13560
1230.410, 21.20892
1232.338, 21.86088
1234.267, 21.39372
1236.195, 20.23402
1238.124, 19.85493
1240.052, 20.63036
1241.980, 21.41164
1243.909, 21.79132
1245.837, 22.28381
1247.766, 23.48668
1249.694, 25.49554
1251.623, 26.83299
1253.551, 27.02155
1255.480, 27.01831
1257.408, 26.61766
1259.337, 26.35233
1261.265, 27.30711
1263.194, 29.62148
1265.122, 31.81623
1267.051, 32.95809
1268.979, 34.50330
1270.907, 37.40642
1272.836, 41.44777
1274.764, 45.33043
1276.693, 48.05505
1278.621, 52.63898
1280.550, 57.99030
1282.478, 66.41528
1284.407, 76.42959
1286.335, 83.83091
1288.264, 119.4364
1290.192, 147.7068
1292.121, 243.4319
1294.049, 437.9674
1295.978, 713.1188
1297.906, 1066.391
1299.834, 1525.890
1301.763, 1879.011
1303.691, 2095.150
1305.620, 2190.887
1307.548, 2100.054
1309.477, 1899.940
1311.405, 1788.940
1313.334, 1748.325
1315.262, 1877.857
1317.191, 2207.377
1319.119, 2716.151
1321.048, 3352.845
1322.976, 4103.822
1324.905, 5239.802
1326.833, 6242.825
1328.761, 8324.765
1330.690, 12354.74
1332.618, 17219.25
1334.547, 22365.03
1336.475, 28676.45
1338.404, 30218.04
1340.332, 23016.84
1342.261, 15664.75
1344.189, 10944.81
1346.118, 8122.819
1348.046, 6000.195
1349.975, 4620.602
1351.903, 3484.613
1353.832, 2542.678
1355.760, 1780.328
1357.688, 1206.550
1359.617, 796.0892
1361.545, 506.3040
1363.474, 359.7976
1365.402, 257.5218
1367.331, 201.5409
1369.259, 164.6994
1371.188, 137.0569
1373.116, 117.5911
1375.045, 99.49047
1376.973, 81.20346
1378.902, 66.66821
1380.830, 57.49512
1382.759, 51.01480
1384.687, 45.82771
1386.615, 41.83212
1388.544, 37.65231
1390.472, 32.66101
1392.401, 28.71215
1394.329, 26.60985
1396.258, 25.39821
1398.186, 24.73502
1400.115, 24.39268
1402.043, 22.65572
1403.972, 18.40804
1405.900, 15.17659
1407.829, 15.28041
1409.757, 16.09476
1411.686, 15.03626
1413.614, 12.29855
1415.542, 10.64544
1417.471, 10.96531
1419.399, 10.98936
1421.328, 9.699387
1423.256, 8.088142
1425.185, 7.084633
1427.113, 6.737053
1429.042, 6.483643
1430.970, 6.458183
1432.899, 6.344780
1434.827, 6.170906
1436.756, 5.850121
1438.684, 5.304573
1440.613, 4.546280
1442.541, 3.575203
1444.469, 1.505714
1446.398, 0.4392470
1448.326, 1.514389
1450.255, 3.273399
1452.183, 4.379753
1454.112, 4.807251
1456.040, 4.587868
1457.969, 3.109879
1459.897, 2.188759
1461.826, 2.675148
1463.754, 3.732040
1465.683, 4.943497
1467.611, 6.168015
1469.540, 6.420074
1471.468, 5.234612
1473.396, 4.191002
1475.325, 4.001724
1477.253, 3.941185
1479.182, 3.281982
1481.110, 2.203125
1483.039, 1.895378
1484.967, 2.900757
1486.896, 3.345337
1488.824, 2.288239
1490.753, 0.9954680
1492.681, 0.1961060
1494.610, 1.079414
1496.538, 0.3804780
1498.467, 3.144135
1500.395, 5.447327
1502.323, 6.051292
1504.252, 5.494690
1506.180, 3.153625
1508.109, 6.0279999E-02
1510.037, 1.516563
1511.966, 0.3279500
1513.894, 0.8052830
1515.823, 2.247719
1517.751, 3.221893
1519.680, 3.198494
1521.608, 2.587318
1523.537, 1.917786
1525.465, 1.006660
1527.394, 1.032784
1529.322, 3.141479
1531.250, 4.731377
1533.179, 4.677071
1535.107, 3.981468
1537.036, 3.713768
1538.964, 3.857040
1540.893, 4.275574
1542.821, 5.460350
1544.750, 5.783096
1546.678, 3.827408
1548.607, 1.664574
1550.535, 0.7575840
1552.464, 0.9333720
1554.392, 2.025452
1556.321, 4.401955
1558.249, 5.842117
1560.177, 5.277946
1562.106, 4.413216
1564.034, 4.359497
1565.963, 4.601501
1567.891, 4.214333
1569.820, 3.152596
1571.748, 2.111877
1573.677, 1.269844
1575.605, 0.2844540
1577.534, 1.249161
1579.462, 2.821724
1581.391, 4.002892
1583.319, 4.786613
1585.248, 5.059280
1587.176, 4.747345
1589.104, 4.077354
1591.033, 2.835960
1592.961, 1.500023
1594.890, 0.2371520
1596.818, 0.9083180
1598.747, 1.787407
1600.675, 2.370758
1602.604, 2.823990
1604.532, 3.459167
1606.461, 3.600769
1608.389, 2.684784
1610.318, 1.403923
1612.246, 0.5032650
1614.175, 2.7702000E-02
1616.103, 2.8206000E-02
1618.031, 1.021187
1619.960, 1.979149
1621.888, 2.888618
1623.817, 3.547554
1625.745, 3.658012
1627.674, 3.422768
1629.602, 3.484772
1631.531, 4.021950
1633.459, 4.446335
1635.388, 4.907127
1637.316, 5.110336
1639.245, 5.027657
1641.173, 4.623680
1643.102, 3.205482
1645.030, 0.9107360
1646.958, 1.182411
1648.887, 7.655769
1650.815, 11.15469
1652.744, 8.906204
1654.672, 6.355522
1656.601, 6.517502
1658.529, 8.073074
1660.458, 8.668365
1662.386, 8.179070
1664.315, 7.392860
1666.243, 5.564125
1668.172, 4.531685
1670.100, 5.158119
1672.029, 6.172546
1673.957, 6.549049
1675.885, 6.559715
1677.814, 7.185242
1679.742, 8.930153
1681.671, 9.874908
1683.599, 9.553658
1685.528, 9.022095
1687.456, 8.432236
1689.385, 7.873558
1691.313, 7.364105
1693.242, 6.939064
1695.170, 6.881950
1697.099, 7.439445
1699.027, 7.822548
1700.956, 8.131157
1702.884, 8.118050
1704.813, 7.560860
1706.741, 6.734451
1708.669, 5.842743
1710.598, 4.911110
1712.526, 4.414558
1714.455, 4.671387
1716.383, 4.752396
1718.312, 4.067268
1720.240, 3.820320
1722.169, 4.861618
1724.097, 6.442123
1726.026, 7.636894
1727.954, 8.522820
1729.883, 8.841553
1731.811, 8.408119
1733.740, 7.695724
1735.668, 6.033501
1737.596, 4.914757
1739.525, 5.751213
1741.453, 7.127975
1743.382, 6.760010
1745.310, 4.518654
1747.239, 4.550613
1749.167, 9.353729
1751.096, 12.46265
1753.024, 12.76784
1754.953, 12.24728
1756.881, 11.11290
1758.810, 10.03502
1760.738, 10.37412
1762.667, 12.11911
1764.595, 12.35545
1766.523, 9.156479
1768.452, 7.861351
1770.380, 10.04492
1772.309, 12.17845
1774.237, 12.88093
1776.166, 12.87769
1778.094, 12.88924
1780.023, 12.92126
1781.951, 13.15402
1783.880, 13.81949
1785.808, 14.16419
1787.737, 14.14261
1789.665, 13.79098
1791.594, 12.83806
1793.522, 11.77052
1795.450, 10.86939
1797.379, 10.22162
1799.307, 10.50366
1801.236, 12.26237
1803.164, 12.61355
1805.093, 10.02713
1807.021, 8.212868
1808.950, 8.499374
1810.878, 9.376968
1812.807, 10.10052
1814.735, 10.48547
1816.664, 9.797913
1818.592, 7.969398
1820.521, 7.702179
1822.449, 10.19931
1824.377, 11.83866
1826.306, 10.85217
1828.234, 9.719696
1830.163, 9.726997
1832.091, 10.20682
1834.020, 10.28336
1835.948, 10.08012
1837.877, 10.43416
1839.805, 11.64599
1841.734, 11.84108
1843.662, 10.02866
1845.591, 8.281830
1847.519, 7.386421
1849.448, 7.094109
1851.376, 7.481346
1853.304, 8.164314
1855.233, 8.133087
1857.161, 7.409752
1859.090, 7.672241
1861.018, 9.629547
1862.947, 11.03777
1864.875, 11.01672
1866.804, 10.57721
1868.732, 10.02760
1870.661, 9.493431
1872.589, 9.284470
1874.518, 9.288193
1876.446, 8.522415
1878.375, 6.418449
1880.303, 5.721626
1882.231, 8.141510
1884.160, 9.650536
1886.088, 8.782799
1888.017, 7.436188
1889.945, 6.576050
1891.874, 6.008881
1893.802, 5.658051
1895.731, 5.629799
1897.659, 6.192932
1899.588, 8.080338
1901.516, 9.130859
1903.445, 8.711609
1905.373, 7.880127
1907.302, 6.637993
1909.230, 5.541290
1911.158, 5.085716
1913.087, 5.082634
1915.015, 5.095749
1916.944, 5.132782
1918.872, 5.231834
1920.801, 5.285713
1922.729, 5.843552
1924.658, 7.641113
1926.586, 8.856918
1928.515, 8.358673
1930.443, 7.286285
1932.372, 6.307983
1934.300, 5.525215
1936.229, 5.037529
1938.157, 4.882919
1940.085, 5.736595
1942.014, 8.225365
1943.942, 9.317711
1945.871, 7.407066
1947.799, 5.519516
1949.728, 4.734962
1951.656, 4.543243
1953.585, 4.880646
1955.513, 5.392639
1957.442, 5.291817
1959.370, 4.571548
1961.299, 3.919823
1963.227, 2.979622
1965.156, 2.800873
1967.084, 3.936737
1969.012, 5.056160
1970.941, 6.107719
1972.869, 6.693787
1974.798, 6.369766
1976.726, 5.504753
1978.655, 4.580536
1980.583, 3.623520
1982.512, 2.882309
1984.440, 2.321381
1986.369, 2.387093
1988.297, 3.553329
1990.226, 4.311028
1992.154, 4.272873
1994.083, 3.665756
1996.011, 1.703926
1997.939, 4.3205000E-02
1999.868, 0.3202740
2001.796, 2.056976
2003.725, 3.520645
2005.653, 4.693100
2007.582, 5.330269
2009.510, 5.370865
2011.439, 5.048294
2013.367, 4.093796
2015.296, 3.200089
2017.224, 2.252930
2019.153, 1.768463
2021.081, 2.671265
2023.010, 3.919281
2024.938, 3.688705
2026.866, 2.239532
2028.795, 1.551895
2030.723, 1.760513
2032.652, 2.302139
2034.580, 3.750336
2036.509, 4.080505
2038.437, 1.855576
2040.366, 4.6448000E-02
2042.294, 0.1398620
2044.223, 0.8497160
2046.151, 1.667679
2048.080, 2.180222
2050.008, 1.457825
2051.937, 0.2109380
2053.865, 1.463379
2055.793, 2.267548
2057.722, 2.316238
2059.650, 1.001785
2061.579, 0.1568300
2063.507, 0.4453430
2065.436, 0.8958590
2067.364, 1.144150
2069.293, 1.397522
2071.221, 2.023361
2073.150, 2.666824
2075.078, 2.500702
2077.007, 1.659561
2078.935, 1.629288
2080.864, 2.588577
2082.792, 2.804535
2084.720, 1.729324
2086.649, 1.318649
2088.577, 2.435211
2090.506, 3.397369
2092.434, 3.553238
2094.363, 3.255966
2096.291, 2.564316
2098.220, 1.715240
2100.148, 0.9687650
2102.077, 0.3478550
2104.005, 0.1982570
2105.934, 0.7214810
2107.862, 0.4286960
2109.791, 1.490738
2111.719, 2.644836
2113.647, 2.186005
2115.576, 2.158905
2117.504, 3.962296
2119.433, 4.937881
2121.361, 2.981049
2123.290, 0.5127560
2125.218, 0.5660100
2127.147, 0.5543670
2129.075, 0.5655820
2131.004, 2.336670
2132.932, 2.418365
2134.861, 0.6808780
2136.789, 0.3392940
2138.718, 5.2108999E-02
2140.646, 0.1874540
2142.574, 1.441589
2144.503, 2.591995
2146.431, 3.368439
2148.360, 3.900345
2150.288, 4.166245
2152.217, 4.311783
2154.145, 4.304993
2156.074, 4.364166
2158.002, 4.912125
2159.931, 5.930893
2161.859, 7.475876
2163.788, 9.570663
2165.716, 11.10449
2167.645, 11.95117
2169.573, 12.36020
2171.501, 11.92050
2173.430, 12.08688
2175.358, 13.88139
2177.287, 15.70569
2179.215, 16.68164
2181.144, 17.46349
2183.072, 18.91389
2185.001, 20.33047
2186.929, 20.31512
2188.858, 19.27684
2190.786, 19.19235
2192.715, 20.07570
2194.643, 19.80757
2196.572, 18.19580
2198.500, 16.54146
2200.428, 14.71201
2202.357, 13.86510
2204.285, 14.75885
2206.214, 15.82925
2208.142, 16.45317
2210.071, 17.06577
2211.999, 17.95387
2213.928, 18.91869
2215.856, 19.83171
2217.785, 20.67233
2219.713, 21.21338
2221.642, 21.60237
2223.570, 22.93475
2225.499, 25.21352
2227.427, 26.02130
2229.355, 24.87357
2231.284, 25.05394
2233.212, 27.44669
2235.141, 29.63126
2237.069, 30.78848
2238.998, 32.00728
2240.926, 34.06531
2242.855, 35.80238
2244.783, 36.10501
2246.712, 36.36751
2248.640, 38.04396
2250.569, 40.31778
2252.497, 42.01152
2254.426, 43.29207
2256.354, 44.81082
2258.282, 46.44666
2260.211, 47.00735
2262.139, 46.41963
2264.068, 47.12546
2265.996, 49.80363
2267.925, 51.70679
2269.853, 51.67372
2271.782, 52.05412
2273.710, 54.02068
2275.639, 55.62224
2277.567, 55.50989
2279.496, 55.63716
2281.424, 57.68040
2283.353, 59.81566
2285.281, 60.03787
2287.209, 59.72491
2289.138, 60.86342
2291.066, 63.05952
2292.995, 65.49364
2294.923, 67.95509
2296.852, 69.19890
2298.780, 69.03032
2300.709, 69.36519
2302.637, 70.11172
2304.566, 71.51244
2306.494, 73.92398
2308.423, 76.31834
2310.351, 78.43567
2312.280, 80.56387
2314.208, 83.38190
2316.136, 85.44194
2318.065, 85.08478
2319.993, 84.65746
2321.922, 85.78944
2323.850, 87.68965
2325.779, 89.97839
2327.707, 92.24438
2329.636, 93.46205
2331.564, 94.18289
2333.493, 96.41678
2335.421, 99.77843
2337.350, 101.3520
2339.278, 101.1936
2341.207, 101.1455
2343.135, 101.3997
2345.063, 101.2069
2346.992, 100.3847
2348.920, 99.29634
2350.849, 96.98140
2352.777, 96.42735
2354.706, 99.70596
2356.634, 102.2364
2358.563, 101.5992
2360.491, 101.3350
2362.420, 103.8235
2364.348, 106.0439
2366.277, 105.4819
2368.205, 104.2032
2370.134, 104.3584
2372.062, 105.0093
2373.990, 104.0512
2375.919, 102.8295
2377.847, 105.2502
2379.776, 110.4267
2381.704, 113.2599
2383.633, 113.9519
2385.561, 116.3510
2387.490, 120.5426
2389.418, 123.5990
2391.347, 125.1064
2393.275, 126.7654
2395.204, 128.9787
2397.132, 130.7924
2399.061, 130.8521
2400.989, 132.5093
2402.917, 137.3996
2404.846, 142.2316
2406.774, 146.6377
2408.703, 150.1511
2410.631, 151.4595
2412.560, 153.4125
2414.488, 158.6311
2416.417, 164.2699
2418.345, 167.7289
2420.274, 170.6240
2422.202, 174.2834
2424.131, 178.9115
2426.059, 185.0228
2427.988, 192.2979
2429.916, 200.1038
2431.844, 208.4181
2433.773, 217.5821
2435.701, 227.3048
2437.630, 235.7465
2439.558, 242.8405
2441.487, 248.8624
2443.415, 253.7579
2445.344, 257.7044
2447.272, 260.3727
2449.201, 263.3377
2451.129, 266.7168
2453.058, 270.3369
2454.986, 274.2376
2456.915, 278.2446
2458.843, 283.8636
2460.771, 286.7264
2462.700, 284.3495
2464.628, 281.0366
2466.557, 277.4337
2468.485, 274.3629
2470.414, 274.3523
2472.342, 272.4372
2474.271, 264.0286
2476.199, 254.5791
2478.128, 247.5871
2480.056, 242.2576
2481.985, 238.5720
2483.913, 235.4695
2485.842, 231.1147
2487.770, 226.6557
2489.698, 224.4557
2491.627, 223.5302
2493.555, 222.3047
2495.484, 220.4409
2497.412, 216.3879
2499.341, 210.8474
2501.269, 206.6507
2503.198, 203.4678
2505.126, 199.9409
2507.055, 196.1929
2508.983, 190.3836
2510.912, 182.3150
2512.840, 177.6011
2514.769, 176.8875
2516.697, 174.0469
2518.625, 167.9377
2520.554, 161.6985
2522.482, 155.9540
2524.411, 149.5813
2526.339, 141.4279
2528.268, 135.6085
2530.196, 133.8354
2532.125, 130.6485
2534.053, 123.7375
2535.982, 118.1522
2537.910, 116.0295
2539.839, 114.3598
2541.767, 112.7162
2543.696, 110.7377
2545.624, 107.6801
2547.552, 105.2400
2549.481, 104.3901
2551.409, 103.8608
2553.338, 103.6286
2555.266, 102.6581
2557.195, 98.72986
2559.123, 95.76477
2561.052, 98.69351
2562.980, 101.3723
2564.909, 97.62105
2566.837, 92.34485
2568.766, 89.54349
2570.694, 88.19658
2572.623, 87.82707
2574.551, 87.83913
2576.479, 87.29935
2578.408, 86.76605
2580.336, 87.70135
2582.265, 88.93860
2584.193, 87.82088
2586.122, 85.65053
2588.050, 85.22200
2589.979, 85.91766
2591.907, 86.66290
2593.836, 87.14473
2595.764, 86.31665
2597.693, 84.35912
2599.621, 81.74625
2601.550, 78.88689
2603.478, 77.89764
2605.406, 78.50008
2607.335, 79.63428
2609.263, 81.10944
2611.192, 80.72571
2613.120, 78.42419
2615.049, 78.55495
2616.977, 81.12802
2618.906, 81.02641
2620.834, 78.40059
2622.763, 77.96965
2624.691, 80.02075
2626.620, 79.80833
2628.548, 76.62500
2630.477, 75.63043
2632.405, 77.21257
2634.333, 77.60910
2636.262, 76.57526
2638.190, 76.41516
2640.119, 77.44493
2642.047, 77.79869
2643.976, 76.72916
2645.904, 77.19910
2647.833, 80.31168
2649.761, 81.12183
2651.690, 79.09039
2653.618, 76.99734
2655.547, 74.84361
2657.475, 74.88075
2659.404, 78.35486
2661.332, 80.99689
2663.260, 81.49402
2665.189, 84.17380
2667.117, 90.70627
2669.046, 92.74777
2670.974, 88.88278
2672.903, 82.14420
2674.831, 72.26819
2676.760, 61.80284
2678.688, 49.86967
2680.617, 39.90430
2682.545, 32.24864
2684.474, 26.04811
2686.402, 21.54111
2688.331, 16.87987
2690.259, 11.55557
2692.188, 6.471939
2694.116, 0.6924740
2696.044, 2.470299
2697.973, 1.816711
2699.901, 2.168900
2701.830, 4.837044
2703.758, 6.014931
2705.687, 4.254517
2707.615, 2.712334
2709.544, 1.689911
2711.472, 1.289169
2713.401, 1.852974
2715.329, 1.771309
2717.258, 0.5507740
2719.186, 0.2470170
2721.115, 0.3751830
2723.043, 4.9973000E-02
2724.971, 1.254265
2726.900, 2.593117
2728.828, 4.504829
2730.757, 4.229828
2732.685, 0.5766600
2734.614, 1.205963
2736.542, 0.7366560
2738.471, 2.060669
2740.399, 2.185616
2742.328, 2.642487
2744.256, 3.728180
2746.185, 3.725204
2748.113, 2.138092
2750.042, 1.160538
2751.970, 1.425484
2753.898, 1.292992
2755.827, 0.5782240
2757.755, 7.2440997E-02
2759.684, 0.2164230
2761.612, 0.2297440
2763.541, 1.656410
2765.469, 2.065887
2767.398, 0.9128650
2769.326, 0.6851040
2771.255, 1.626617
2773.183, 0.7127690
2775.112, 2.170250
2777.040, 2.532906
2778.969, 0.2108610
2780.897, 0.1266170
2782.825, 3.243187
2784.754, 3.943901
2786.682, 2.134254
2788.611, 0.7656400
2790.539, 1.4778000E-02
2792.468, 1.070663
2794.396, 3.628647
2796.325, 4.320709
2798.253, 3.341232
2800.182, 2.083305
2802.110, 0.7804490
2804.039, 0.4954530
2805.967, 1.089615
2807.896, 2.529709
2809.824, 4.156532
2811.752, 3.051376
2813.681, 0.6059270
2815.609, 1.069481
2817.538, 2.957031
2819.466, 3.425400
2821.395, 3.029259
2823.323, 2.281082
2825.252, 1.743446
2827.180, 2.758827
2829.109, 4.218437
2831.037, 4.878311
2832.966, 4.999084
2834.894, 5.178520
2836.823, 4.857582
2838.751, 2.325310
2840.679, 0.2164460
2842.608, 1.050858
2844.536, 2.827919
2846.465, 5.156731
2848.393, 6.470451
2850.322, 4.778839
2852.250, 3.120476
2854.179, 3.662659
2856.107, 3.709328
2858.036, 1.324486
2859.964, 0.4722290
2861.893, 0.6858290
2863.821, 0.3849720
2865.750, 3.675659
2867.678, 6.089638
2869.606, 6.605995
2871.535, 7.188881
2873.463, 8.979729
2875.392, 9.457840
2877.320, 7.487007
2879.249, 6.588165
2881.177, 7.324913
2883.106, 6.911728
2885.034, 4.571152
2886.963, 4.379669
2888.891, 7.166344
2890.820, 8.377434
2892.748, 8.008949
2894.677, 8.323341
2896.605, 9.316093
2898.533, 10.17237
2900.462, 10.78227
2902.390, 10.08462
2904.319, 8.480675
2906.247, 7.532135
2908.176, 7.360184
2910.104, 8.992813
2912.033, 10.98522
2913.961, 10.14861
2915.890, 8.111382
2917.818, 6.872391
2919.747, 6.469963
2921.675, 7.493774
2923.604, 8.611427
2925.532, 7.987648
2927.460, 7.661545
2929.389, 9.944427
2931.317, 12.21840
2933.246, 13.39347
2935.174, 13.57899
2937.103, 12.35537
2939.031, 11.35080
2940.960, 11.15710
2942.888, 10.73376
2944.817, 9.454224
2946.745, 9.227722
2948.674, 11.33648
2950.602, 12.49712
2952.531, 11.98104
2954.459, 13.74483
2956.387, 18.14163
2958.316, 18.63296
2960.244, 14.45804
2962.173, 13.18071
2964.101, 14.76469
2966.030, 15.28170
2967.958, 14.65778
2969.887, 11.84410
2971.815, 8.450211
2973.744, 8.663185
2975.672, 10.34955
2977.601, 9.932922
2979.529, 8.748322
2981.458, 8.008347
2983.386, 7.293335
2985.314, 6.105309
2987.243, 5.170914
2989.171, 5.056488
2991.100, 5.136978
2993.028, 4.828621
2994.957, 5.200500
2996.885, 7.751022
2998.814, 8.583191
3000.742, 6.224190
3002.671, 5.039658
3004.599, 6.170753
3006.528, 7.044250
3008.456, 7.187332
3010.385, 7.296509
3012.313, 7.433044
3014.241, 6.491829
3016.170, 4.684639
3018.098, 4.740257
3020.027, 6.040245
3021.955, 6.670700
3023.884, 6.655403
3025.812, 5.106773
3027.741, 3.505302
3029.669, 4.284409
3031.598, 5.327965
3033.526, 3.941589
3035.455, 2.864922
3037.383, 4.465858
3039.312, 5.604805
3041.240, 4.417763
3043.168, 2.957504
3045.097, 1.216721
3047.025, 0.7865370
3048.954, 2.304840
3050.882, 3.544167
3052.811, 4.316933
3054.739, 4.206482
3056.668, 3.198318
3058.596, 0.9114610
3060.525, 2.026413
3062.453, 1.588440
3064.382, 1.249504
3066.310, 4.286926
3068.239, 6.547798
3070.167, 5.517822
3072.095, 3.510391
3074.024, 2.925354
3075.952, 3.023674
3077.881, 3.524651
3079.809, 3.943954
3081.738, 4.055122
3083.666, 4.125870
3085.595, 4.593239
3087.523, 4.169571
3089.452, 2.243011
3091.380, 1.903046
3093.309, 3.967995
3095.237, 4.019699
3097.166, 1.857147
3099.094, 2.762482
3101.022, 5.690773
3102.951, 5.847710
3104.879, 4.556389
3106.808, 4.605911
3108.736, 5.101463
3110.665, 5.308746
3112.593, 4.693871
3114.522, 1.714790
3116.450, 0.1489940
3118.379, 2.242798
3120.307, 4.069283
3122.236, 3.811447
3124.164, 3.706566
3126.093, 4.525673
3128.021, 4.680214
3129.949, 3.984230
3131.878, 3.970062
3133.806, 4.655701
3135.735, 5.969727
3137.663, 7.537651
3139.592, 8.520966
3141.520, 8.465233
3143.449, 5.302452
3145.377, 2.316299
3147.306, 3.209221
3149.234, 4.930397
3151.163, 6.274643
3153.091, 6.519356
3155.020, 4.295967
3156.948, 3.654297
3158.876, 6.810318
3160.805, 7.597641
3162.733, 5.639107
3164.662, 4.405922
3166.590, 4.110909
3168.519, 4.534332
3170.447, 5.454903
3172.376, 6.500015
3174.304, 7.252968
3176.233, 6.793396
3178.161, 5.577164
3180.090, 2.590744
3182.018, 1.157425
3183.947, 4.370041
3185.875, 6.099823
3187.803, 2.342140
3189.732, 1.034210
3191.660, 3.161804
3193.589, 4.206955
3195.517, 3.756729
3197.446, 2.948769
3199.374, 2.097572
3201.303, 3.250206
3203.231, 5.094353
3205.160, 5.514236
3207.088, 5.223167
3209.017, 4.714073
3210.945, 4.178047
3212.874, 3.535133
3214.802, 3.280945
3216.730, 4.055527
3218.659, 4.260925
3220.587, 3.782784
3222.516, 1.831558
3224.444, 1.531525
3226.373, 0.3546830
3228.301, 3.844093
3230.230, 4.421875
3232.158, 3.258904
3234.087, 2.706779
3236.015, 2.720390
3237.944, 4.230118
3239.872, 4.563042
3241.801, 1.439018
3243.729, 0.2981870
3245.657, 1.752792
3247.586, 3.455017
3249.514, 4.700508
3251.443, 4.840500
3253.371, 4.101891
3255.300, 4.433083
3257.228, 5.256042
3259.157, 4.765602
3261.085, 4.191795
3263.014, 5.516739
3264.942, 6.152588
3266.871, 3.453468
3268.799, 2.041458
3270.728, 3.885536
3272.656, 4.902718
3274.584, 4.383942
3276.513, 3.597740
3278.441, 2.710136
3280.370, 2.919601
3282.298, 3.743652
3284.227, 4.373001
3286.155, 4.425919
3288.084, 2.587990
3290.012, 1.457832
3291.941, 3.649666
3293.869, 4.820145
3295.798, 3.741394
3297.726, 2.851868
3299.655, 2.565498
3301.583, 2.665161
3303.511, 3.040833
3305.440, 2.778763
3307.368, 2.014992
3309.297, 0.6185460
3311.225, 0.5699540
3313.154, 0.8041150
3315.082, 0.2197490
3317.011, 1.914368
3318.939, 3.402039
3320.868, 4.007172
3322.796, 2.756348
3324.725, 0.3381960
3326.653, 0.8863750
3328.582, 0.5871200
3330.510, 2.308044
3332.438, 3.717552
3334.367, 4.411507
3336.295, 3.963989
3338.224, 0.5388870
3340.152, 1.265228
3342.081, 0.3852390
3344.009, 1.848946
3345.938, 2.610451
3347.866, 2.259010
3349.795, 1.242729
3351.723, 2.069801
3353.652, 3.368553
3355.580, 2.089012
3357.509, 0.4040150
3359.437, 0.3724750
3361.365, 0.1568760
3363.294, 1.689499
3365.222, 3.427681
3367.151, 4.954514
3369.079, 4.783333
3371.008, 3.063164
3372.936, 2.317383
3374.865, 2.233406
3376.793, 2.254257
3378.722, 2.342430
3380.650, 2.100189
3382.579, 2.647789
3384.507, 4.911720
3386.436, 6.129974
3388.364, 5.282745
3390.292, 4.681511
3392.221, 4.282173
3394.149, 3.759750
3396.078, 3.188568
3398.006, 3.101303
3399.935, 2.469032
3401.863, 0.6622160
3403.792, 2.297981
3405.720, 0.3373490
3407.649, 2.630478
3409.577, 4.254692
3411.506, 3.816315
3413.434, 2.092712
3415.363, 4.610733
3417.291, 7.976402
3419.219, 6.451317
3421.148, 4.273117
3423.076, 4.211105
3425.005, 4.992668
3426.933, 6.610428
3428.862, 7.627747
3430.790, 7.949493
3432.719, 6.131378
3434.647, 3.428604
3436.576, 3.466553
3438.504, 4.475739
3440.433, 4.084518
3442.361, 4.591995
3444.290, 8.394913
3446.218, 9.289993
3448.146, 5.601517
3450.075, 2.907120
3452.003, 1.509415
3453.932, 2.050232
3455.860, 3.384369
3457.789, 4.721191
3459.717, 5.054932
3461.646, 2.623199
3463.574, 1.257187
3465.503, 2.089127
3467.431, 2.224182
3469.360, 1.422897
3471.288, 1.812805
3473.217, 2.788712
3475.145, 3.166351
3477.073, 2.851990
3479.002, 0.9470830
3480.930, 0.4193730
3482.859, 0.8042300
3484.787, 0.6873930
3486.716, 4.547607
3488.644, 4.776535
3490.573, 2.877136
3492.501, 3.704971
3494.430, 4.861816
3496.358, 3.098923
3498.287, 2.016388
3500.215, 3.683258
3502.144, 3.668518
3504.072, 1.018784
3506.000, 0.6372070
3507.929, 1.949753
3509.857, 2.876953
3511.786, 3.567551
3513.714, 4.331131
3515.643, 4.637848
3517.571, 4.258133
3519.500, 3.152222
3521.428, 1.312546
3523.357, 3.8589001E-02
3525.285, 0.7730410
3527.214, 0.4772190
3529.142, 0.3760530
3531.071, 1.087448
3532.999, 2.413666
3534.927, 5.442230
3536.856, 7.458588
3538.784, 8.181793
3540.713, 5.254456
3542.641, 0.5754240
3544.570, 0.6703950
3546.498, 2.286316
3548.427, 3.015259
3550.355, 3.449203
3552.284, 4.031525
3554.212, 2.816925
3556.141, 0.5023190
3558.069, 0.5006260
3559.998, 1.423904
3561.926, 1.787613
3563.854, 2.028275
3565.783, 3.716721
3567.711, 4.780396
3569.640, 4.588943
3571.568, 4.362961
3573.497, 4.254913
3575.425, 2.332092
3577.354, 0.1055300
3579.282, 0.6544490
3581.211, 1.486404
3583.139, 1.210388
3585.068, 1.309753
3586.996, 2.291855
3588.925, 2.928345
3590.853, 3.055511
3592.781, 1.639297
3594.710, 0.3659210
3596.638, 1.587906
3598.567, 2.745865
3600.495, 2.753647
3602.424, 3.422379
3604.352, 4.765854
3606.281, 4.630768
3608.209, 3.714752
3610.138, 2.881714
3612.066, 2.719604
3613.995, 4.283081
3615.923, 4.426178
3617.852, 2.062653
3619.780, 2.449585
3621.708, 4.662186
3623.637, 4.364670
3625.565, 3.327011
3627.494, 3.337769
3629.422, 3.191330
3631.351, 2.085983
3633.279, 1.311356
3635.208, 1.040665
3637.136, 3.728714
3639.065, 6.922058
3640.993, 6.023163
3642.922, 4.753632
3644.850, 5.217255
3646.779, 5.470306
3648.707, 5.281586
3650.635, 3.148178
3652.564, 0.5571290
3654.492, 2.599121
3656.421, 4.721634
3658.349, 2.509338
3660.278, 2.001053
3662.206, 4.526230
3664.135, 5.351776
3666.063, 4.654785
3667.992, 3.251190
3669.920, 2.994873
3671.849, 7.444519
3673.777, 9.266907
3675.706, 5.260849
3677.634, 5.052536
3679.563, 8.024887
3681.491, 4.274384
3683.419, 0.3412020
3685.348, 2.136688
3687.276, 5.376587
3689.205, 7.362427
3691.133, 7.605026
3693.062, 6.177658
3694.990, 3.946045
3696.919, 2.506424
3698.847, 5.471069
3700.776, 7.860413
3702.704, 6.847443
3704.633, 5.412369
3706.561, 3.884109
3708.490, 3.955292
3710.418, 4.707214
3712.346, 4.338043
3714.275, 4.238632
3716.203, 5.294952
3718.132, 7.021866
3720.060, 9.173111
3721.989, 8.679932
3723.917, 6.879532
3725.846, 6.193573
3727.774, 5.401199
3729.703, 3.129593
3731.631, 2.568954
3733.560, 3.792847
3735.488, 4.666260
3737.417, 5.179352
3739.345, 5.477493
3741.273, 5.414581
3743.202, 5.046188
3745.130, 3.513046
3747.059, 1.140762
3748.987, 1.847214
3750.916, 3.964783
3752.844, 5.494217
3754.773, 5.773056
3756.701, 3.204132
3758.630, 2.427368
3760.558, 3.421539
3762.487, 4.880829
3764.415, 5.584793
3766.344, 2.722595
3768.272, 0.9614720
3770.200, 3.982285
3772.129, 2.815262
3774.057, 1.199753
3775.986, 0.4662170
3777.914, 3.516830
3779.843, 3.348831
3781.771, 2.567566
3783.700, 1.676834
3785.628, 1.696564
3787.557, 2.183990
3789.485, 1.670868
3791.414, 0.8769680
3793.342, 0.2096710
3795.271, 0.1632390
3797.199, 0.2542270
3799.127, 1.014694
3801.056, 2.394424
3802.984, 0.1174160
3804.913, 1.509781
3806.841, 1.478714
3808.770, 3.497406
3810.698, 3.742279
3812.627, 5.952454
3814.555, 8.154221
3816.484, 6.883514
3818.412, 5.398911
3820.341, 4.984085
3822.269, 3.737961
3824.198, 1.919388
3826.126, 2.823654
3828.054, 4.152634
3829.983, 3.387741
3831.911, 3.234131
3833.840, 4.412415
3835.768, 3.931793
3837.697, 2.463257
3839.625, 1.878006
3841.554, 1.466293
3843.482, 0.7095640
3845.411, 0.4813840
3847.339, 0.8296810
3849.268, 0.4406590
3851.196, 1.035477
3853.125, 3.744446
3855.053, 5.530670
3856.981, 1.302338
3858.910, 0.9785000
3860.838, 3.518295
3862.767, 2.728638
3864.695, 1.679321
3866.624, 2.942078
3868.552, 3.917114
3870.481, 4.216202
3872.409, 2.338684
3874.338, 5.8899000E-02
3876.266, 0.3938600
3878.195, 0.2700960
3880.123, 0.6050720
3882.052, 1.229584
3883.980, 4.015442
3885.908, 2.803528
3887.837, 1.330795
3889.765, 2.419846
3891.694, 3.147842
3893.622, 3.081116
3895.551, 1.669449
3897.479, 0.2739260
3899.408, 1.257278
3901.336, 2.048569
3903.265, 1.703033
3905.193, 2.557983
3907.122, 3.746521
3909.050, 1.359268
3910.979, 0.2695470
3912.907, 1.989700
3914.835, 3.454727
3916.764, 3.598816
3918.692, 3.053375
3920.621, 2.319824
3922.549, 1.871750
3924.478, 1.499893
3926.406, 1.154892
3928.335, 2.709351
3930.263, 5.024704
3932.192, 6.372787
3934.120, 6.066040
3936.049, 2.806305
3937.977, 1.029175
3939.906, 0.7396090
3941.834, 1.307037
3943.762, 2.146362
3945.691, 3.095367
3947.619, 3.110382
3949.548, 2.354858
3951.476, 4.572433
3953.405, 6.745514
3955.333, 4.814987
3957.262, 2.900009
3959.190, 1.807495
3961.119, 3.330505
3963.047, 5.536743
3964.976, 5.088730
3966.904, 3.880814
3968.833, 2.319443
3970.761, 4.208633
3972.689, 7.447235
3974.618, 3.457230
3976.546, 0.3406220
3978.475, 3.741867
3980.403, 5.201279
3982.332, 4.638199
3984.260, 5.909531
3986.189, 6.645981
3988.117, 4.730225
3990.046, 2.334854
3991.974, 3.8146999E-02
3993.903, 0.3329620
3995.831, 0.2711180
3997.760, 0.1305690
3999.688, 1.921585
4001.616, 6.760071
4003.545, 6.903076
4005.473, 4.929718
4007.402, 3.965164
4009.330, 4.717133
4011.259, 7.744263
4013.187, 7.174500
4015.116, 4.845169
4017.044, 4.127533
4018.973, 4.441498
4020.901, 5.716293
4022.830, 4.930542
4024.758, 3.141708
4026.687, 4.563705
4028.615, 6.011246
4030.543, 6.171478
4032.472, 5.249207
4034.400, 3.573563
4036.329, 1.420105
4038.257, 0.6421660
4040.186, 2.531143
4042.114, 5.518433
4044.043, 8.279739
4045.971, 5.008987
4047.900, 2.178040
4049.828, 4.702713
4051.757, 4.650940
4053.685, 2.126938
4055.614, 3.749237
4057.542, 5.198242
4059.470, 2.204346
4061.399, 1.371536
4063.327, 2.764221
4065.256, 1.771881
4067.184, 1.312943
4069.113, 5.049377
4071.041, 5.789474
4072.970, 3.724579
4074.898, 3.585190
4076.827, 4.121292
4078.755, 4.716141
4080.684, 3.312332
4082.612, 0.2096560
4084.541, 1.386795
4086.469, 3.029022
4088.397, 1.612183
4090.326, 2.167664
4092.254, 4.808685
4094.183, 5.699997
4096.111, 5.246597
4098.040, 2.867798
4099.968, 1.559479
4101.896, 1.593643
4103.825, 3.003525
4105.754, 4.285263
4107.682, 4.130722
4109.610, 4.687622
4111.539, 5.754562
4113.468, 5.781219
4115.396, 4.515381
4117.324, 1.250153
4119.253, 3.1372000E-02
4121.182, 0.9321590
4123.110, 4.222977
4125.038, 5.962006
4126.967, 3.107635
4128.896, 1.532440
4130.824, 1.374832
4132.752, 2.285553
4134.681, 2.424484
4136.609, 3.1615999E-02
4138.538, 1.325653
4140.466, 1.300095
4142.395, 0.6649170
4144.323, 2.650848
4146.251, 3.997467
4148.180, 3.904236
4150.108, 2.812592
4152.037, 1.023071
4153.965, 0.3603970
4155.894, 1.301682
4157.822, 1.874695
4159.751, 1.934250
4161.679, 0.7992710
4163.607, 0.8586730
4165.536, 2.556717
4167.465, 4.723755
4169.393, 5.844070
4171.321, 3.309326
4173.250, 3.103241
4175.179, 5.885086
4177.107, 3.905045
4179.035, 1.154526
4180.964, 0.7624210
4182.893, 0.8581850
4184.821, 1.230118
4186.749, 0.9274600
4188.678, 0.8852080
4190.606, 1.951691
4192.535, 1.589874
4194.463, 1.592865
4196.392, 1.550507
4198.320, 1.385605
4200.249, 0.8257290
4202.177, 2.606949
4204.105, 4.963043
4206.034, 5.032181
4207.962, 4.915268
4209.891, 4.991943
4211.819, 1.875168
4213.748, 0.4778440
4215.676, 3.272858
4217.604, 4.954697
4219.533, 4.219528
4221.462, 4.175446
4223.390, 4.254379
4225.318, 4.239441
4227.247, 2.722687
4229.176, 0.5227810
4231.104, 3.257996
4233.032, 5.077332
4234.961, 4.068405
4236.890, 3.251236
4238.818, 2.486435
4240.746, 0.8282010
4242.675, 0.0000000E+00
##END=



