##NAMES=Diamond
##RRUFFID=R150089
##IDEAL CHEMISTRY=C
##LOCALITY=unknown
##OWNER=RRUFF
##SOURCE=Michael Scott
##DESCRIPTION=Faceted pale-yellow
##STATUS=unconfirmed
##URL=rruff.info/R150089
76.87793, 0.0000000E+00
78.80640, 64.41351
80.73486, 42.85416
82.66333, 16.09326
84.59180, 0.6972050
86.52026, 70.45972
88.44873, 191.9110
90.37720, 371.3261
92.30566, 626.9442
94.23413, 819.4664
96.16260, 961.2604
98.09106, 1103.628
100.0195, 1229.571
101.9480, 1347.735
103.8765, 1445.895
105.8049, 1523.507
107.7334, 1590.416
109.6619, 1648.864
111.5903, 1698.238
113.5188, 1737.689
115.4473, 1767.056
117.3757, 1788.450
119.3042, 1796.594
121.2327, 1801.139
123.1611, 1803.401
125.0896, 1801.691
127.0181, 1794.402
128.9465, 1781.031
130.8750, 1763.732
132.8035, 1740.766
134.7319, 1714.816
136.6604, 1683.746
138.5889, 1650.893
140.5173, 1620.661
142.4458, 1592.677
144.3743, 1559.780
146.3027, 1517.334
148.2312, 1475.314
150.1597, 1437.126
152.0881, 1398.074
154.0166, 1353.694
155.9451, 1304.786
157.8735, 1257.923
159.8020, 1213.316
161.7305, 1171.052
163.6589, 1131.487
165.5874, 1094.265
167.5159, 1059.964
169.4443, 1027.761
171.3728, 994.5969
173.3013, 957.3403
175.2297, 924.8408
177.1582, 898.5088
179.0867, 875.0322
181.0151, 854.3674
182.9436, 834.6931
184.8721, 812.7866
186.8005, 787.8418
188.7290, 763.4373
190.6575, 738.8098
192.5859, 716.1536
194.5144, 696.8123
196.4429, 679.3508
198.3713, 662.3645
200.2998, 645.8110
202.2283, 632.4722
204.1567, 623.9324
206.0852, 613.3628
208.0137, 596.5493
209.9421, 579.6802
211.8706, 567.6514
213.7991, 558.8872
215.7275, 546.9778
217.6560, 531.5049
219.5845, 516.8384
221.5129, 502.5596
223.4414, 491.1797
225.3699, 485.9221
227.2983, 482.4526
229.2268, 473.9424
231.1553, 460.3391
233.0837, 450.2351
235.0122, 444.9841
236.9407, 439.3638
238.8691, 431.2913
240.7976, 422.5552
242.7261, 414.4292
244.6545, 406.5383
246.5830, 397.4663
248.5115, 387.2070
250.4399, 377.3928
252.3684, 368.2271
254.2969, 359.9321
256.2253, 353.2913
258.1538, 347.0669
260.0823, 339.6731
262.0107, 331.3223
263.9392, 322.9551
265.8677, 314.2529
267.7961, 306.7480
269.7246, 301.5012
271.6531, 296.6345
273.5815, 291.1865
275.5100, 285.6353
277.4385, 281.3164
279.3669, 278.0938
281.2954, 273.0645
283.2239, 264.3623
285.1523, 256.8792
287.0808, 251.8850
289.0093, 248.0398
290.9377, 244.2595
292.8662, 241.0896
294.7947, 240.1621
296.7231, 241.6353
298.6516, 240.0488
300.5801, 230.2603
302.5085, 223.5059
304.4370, 224.0125
306.3655, 226.5476
308.2939, 221.6228
310.2224, 214.5120
312.1509, 205.4771
314.0793, 193.5942
316.0078, 185.6968
317.9363, 181.8284
319.8647, 177.7317
321.7932, 172.2410
323.7217, 166.7107
325.6501, 161.6045
327.5786, 157.1448
329.5071, 154.4441
331.4355, 154.0728
333.3640, 154.5850
335.2925, 157.9143
337.2209, 158.8826
339.1494, 153.7117
341.0779, 148.1804
343.0063, 146.6326
344.9348, 147.7493
346.8633, 147.3813
348.7917, 144.1958
350.7202, 144.2500
352.6487, 149.6809
354.5771, 154.3042
356.5056, 156.9456
358.4341, 157.8967
360.3625, 156.4768
362.2910, 153.8533
364.2195, 152.8774
366.1479, 153.8635
368.0764, 154.2390
370.0049, 153.3779
371.9333, 153.0757
373.8618, 154.6704
375.7903, 155.6929
377.7188, 153.9824
379.6472, 150.9773
381.5757, 148.9941
383.5042, 148.2256
385.4326, 148.9602
387.3611, 152.1614
389.2896, 152.3789
391.2180, 147.5068
393.1465, 141.3892
395.0750, 133.7717
397.0034, 127.7495
398.9319, 127.2100
400.8604, 131.0366
402.7888, 134.7273
404.7173, 138.3015
406.6458, 138.5991
408.5742, 133.0669
410.5027, 129.1238
412.4312, 130.2300
414.3596, 132.3857
416.2881, 134.0942
418.2166, 135.1052
420.1450, 135.2454
422.0735, 134.5117
424.0020, 131.6660
425.9304, 126.1929
427.8589, 121.8525
429.7874, 119.1887
431.7158, 118.3677
433.6443, 120.2937
435.5728, 123.1995
437.5012, 126.7971
439.4297, 129.7354
441.3582, 128.8110
443.2866, 124.3550
445.2151, 120.2361
447.1436, 117.1692
449.0720, 113.6399
451.0005, 108.2734
452.9290, 103.8691
454.8574, 101.6008
456.7859, 100.7078
458.7144, 101.3218
460.6428, 102.5144
462.5713, 102.8398
464.4998, 102.3311
466.4282, 98.52563
468.3567, 89.11987
470.2852, 80.46973
472.2136, 72.24048
474.1421, 66.16138
476.0706, 64.90747
477.9990, 64.25244
479.9275, 58.52710
481.8560, 50.89014
483.7844, 48.92139
485.7129, 53.26440
487.6414, 54.50879
489.5698, 52.77954
491.4983, 46.70776
493.4268, 31.41602
495.3552, 18.65405
497.2837, 13.99316
499.2122, 12.32568
501.1406, 11.53369
503.0691, 10.42114
504.9976, 5.894531
506.9260, 2.038086
508.8545, 7.446045
510.7830, 10.13525
512.7114, 11.01733
514.6399, 8.791504
516.5684, 8.059814
518.4968, 11.29443
520.4253, 14.89624
522.3538, 15.63428
524.2822, 16.16357
526.2107, 19.96533
528.1392, 26.06445
530.0676, 30.87061
531.9961, 34.25635
533.9246, 35.51343
535.8530, 33.85742
537.7815, 32.87329
539.7100, 33.72388
541.6384, 34.37549
543.5669, 35.02515
545.4954, 34.21753
547.4238, 28.88599
549.3523, 23.06641
551.2808, 23.94287
553.2092, 30.15259
555.1377, 32.85352
557.0662, 31.98315
558.9946, 31.68896
560.9231, 33.10034
562.8516, 31.88452
564.7800, 24.13232
566.7085, 18.63477
568.6370, 21.05957
570.5654, 24.02515
572.4939, 21.64185
574.4224, 17.19580
576.3508, 16.11084
578.2793, 17.43848
580.2078, 16.76050
582.1362, 14.22876
584.0647, 14.58276
585.9932, 19.35083
587.9216, 20.91650
589.8501, 14.42676
591.7786, 10.03223
593.7070, 12.73804
595.6355, 14.87134
597.5640, 11.52832
599.4924, 6.197266
601.4209, 1.572021
603.3494, 1.950195
605.2778, 2.036133
607.2063, 6.1039999E-03
609.1348, 3.604736
611.0632, 14.15039
612.9917, 21.33936
614.9202, 21.46509
616.8486, 22.91235
618.7771, 28.38818
620.7056, 32.85620
622.6340, 33.70483
624.5625, 34.07471
626.4910, 36.07397
628.4194, 38.76440
630.3479, 40.83472
632.2764, 42.93750
634.2048, 47.01270
636.1333, 52.78906
638.0618, 56.20972
639.9902, 56.90161
641.9187, 55.86304
643.8472, 49.88525
645.7756, 48.28271
647.7041, 55.67969
649.6326, 60.89014
651.5610, 58.12695
653.4895, 55.50269
655.4180, 60.27466
657.3464, 64.71191
659.2749, 61.29419
661.2034, 53.69141
663.1318, 46.16455
665.0603, 40.02344
666.9888, 43.67920
668.9172, 59.05347
670.8457, 63.90991
672.7742, 54.60815
674.7026, 48.55347
676.6311, 45.56250
678.5596, 49.61646
680.4880, 67.31274
682.4165, 80.03491
684.3450, 78.53003
686.2734, 71.65308
688.2019, 58.32251
690.1304, 48.53198
692.0588, 56.56519
693.9873, 71.18628
695.9158, 71.46558
697.8442, 61.58472
699.7727, 58.25391
701.7012, 61.25293
703.6296, 62.38745
705.5581, 61.17700
707.4866, 61.95483
709.4150, 66.10449
711.3435, 69.07446
713.2720, 70.01318
715.2004, 69.16797
717.1289, 65.86523
719.0574, 62.63989
720.9858, 59.65991
722.9143, 57.94043
724.8428, 60.49072
726.7712, 63.06299
728.6997, 59.92944
730.6282, 54.00220
732.5566, 49.57812
734.4851, 47.34546
736.4136, 50.02734
738.3420, 56.23804
740.2705, 59.01196
742.1990, 57.77563
744.1274, 55.50830
746.0559, 52.48291
747.9844, 49.01392
749.9128, 44.71582
751.8413, 40.50562
753.7698, 35.56763
755.6982, 33.09375
757.6267, 35.37354
759.5552, 38.59473
761.4836, 42.89868
763.4121, 45.55054
765.3406, 43.52710
767.2690, 40.17603
769.1975, 36.18604
771.1260, 34.29663
773.0544, 41.87207
774.9829, 52.60938
776.9114, 50.72534
778.8398, 38.95215
780.7683, 33.53296
782.6968, 34.73706
784.6252, 31.93555
786.5537, 23.29858
788.4822, 18.11108
790.4106, 19.48657
792.3391, 18.73853
794.2676, 14.69141
796.1960, 12.35962
798.1245, 14.70776
800.0530, 13.83838
801.9814, 3.921875
803.9099, 2.343994
805.8384, 1.889160
807.7668, 8.631348
809.6953, 15.71826
811.6238, 20.16382
813.5522, 17.75024
815.4807, 13.75757
817.4092, 13.72266
819.3376, 14.81274
821.2661, 11.88770
823.1946, 7.083008
825.1230, 6.592529
827.0515, 9.705078
828.9800, 13.89185
830.9084, 19.07397
832.8369, 22.01440
834.7654, 22.89746
836.6938, 22.26562
838.6223, 19.65918
840.5508, 16.78760
842.4792, 13.66479
844.4077, 12.75000
846.3362, 14.54688
848.2646, 15.92603
850.1931, 15.62695
852.1216, 17.13281
854.0500, 22.73535
855.9785, 26.65771
857.9070, 27.59570
859.8354, 26.35034
861.7639, 21.68213
863.6924, 17.60376
865.6208, 13.19165
867.5493, 12.77686
869.4778, 24.44360
871.4063, 34.12646
873.3347, 27.63477
875.2632, 17.65991
877.1917, 15.55469
879.1201, 17.40210
881.0486, 20.85327
882.9771, 23.79663
884.9055, 21.52368
886.8340, 17.24609
888.7625, 17.75684
890.6909, 20.43188
892.6194, 19.03369
894.5479, 15.09253
896.4763, 13.52026
898.4048, 13.78125
900.3333, 13.06982
902.2617, 11.47095
904.1902, 9.426758
906.1187, 6.992676
908.0471, 4.465332
909.9756, 1.771973
911.9041, 0.3049320
913.8325, 2.272705
915.7610, 2.408936
917.6895, 0.7817380
919.6179, 1.935547
921.5464, 6.965576
923.4749, 11.06787
925.4033, 15.73779
927.3318, 16.66089
929.2603, 11.42432
931.1887, 7.462646
933.1172, 3.679688
935.0457, 6.559570
936.9741, 24.17554
938.9026, 31.56982
940.8311, 15.41211
942.7595, 4.764893
944.6880, 12.17310
946.6165, 18.59863
948.5449, 15.87720
950.4734, 13.98535
952.4019, 19.49927
954.3303, 21.99878
956.2588, 12.50000
958.1873, 5.965820
960.1157, 12.75244
962.0442, 20.21167
963.9727, 21.59692
965.9011, 21.38574
967.8296, 20.29004
969.7581, 20.66089
971.6865, 27.41284
973.6150, 31.57202
975.5435, 23.37061
977.4719, 14.46899
979.4004, 13.96973
981.3289, 16.56104
983.2573, 19.78076
985.1858, 21.93335
987.1143, 20.72510
989.0427, 18.80688
990.9712, 18.99414
992.8997, 19.27930
994.8281, 15.30396
996.7566, 12.19531
998.6851, 17.90405
1000.614, 25.37402
1002.542, 25.60986
1004.470, 23.78418
1006.399, 26.87671
1008.327, 30.63208
1010.256, 30.08447
1012.184, 26.56812
1014.113, 20.91064
1016.041, 14.46606
1017.970, 8.207764
1019.898, 3.147461
1021.827, 1.448975
1023.755, 1.489746
1025.684, 0.9472660
1027.612, 0.7268070
1029.541, 2.718506
1031.469, 4.955566
1033.397, 3.459229
1035.326, 1.124756
1037.254, 2.452148
1039.183, 5.509766
1041.111, 9.721680
1043.040, 12.36572
1044.968, 9.052246
1046.897, 3.208984
1048.825, 3.239502
1050.754, 7.042480
1052.682, 1.866211
1054.611, 5.685303
1056.539, 8.208008
1058.468, 8.273193
1060.396, 8.666016
1062.324, 8.200684
1064.253, 2.228516
1066.181, 2.024414
1068.110, 7.072510
1070.038, 18.03784
1071.967, 18.90552
1073.895, 15.69922
1075.824, 12.87061
1077.752, 10.60132
1079.681, 7.994629
1081.609, 7.085693
1083.538, 11.08936
1085.466, 15.83081
1087.395, 19.20874
1089.323, 20.13159
1091.251, 14.21753
1093.180, 10.17285
1095.108, 18.10718
1097.037, 24.22021
1098.965, 17.18408
1100.894, 10.26050
1102.822, 10.31909
1104.751, 12.91187
1106.679, 19.54272
1108.608, 22.54077
1110.536, 14.13232
1112.465, 8.182861
1114.393, 11.90820
1116.322, 15.23779
1118.250, 13.12109
1120.178, 13.23364
1122.107, 20.89429
1124.035, 24.80176
1125.964, 20.03516
1127.892, 16.36084
1129.821, 16.78369
1131.749, 16.31250
1133.678, 12.62061
1135.606, 12.25952
1137.535, 17.79199
1139.463, 20.58423
1141.392, 18.67993
1143.320, 17.17407
1145.249, 16.03418
1147.177, 20.08667
1149.105, 31.46509
1151.034, 33.88599
1152.962, 25.56299
1154.891, 25.20288
1156.819, 33.46509
1158.748, 37.61035
1160.676, 37.03857
1162.605, 30.64233
1164.533, 19.95215
1166.462, 17.88647
1168.390, 22.53784
1170.319, 22.91333
1172.247, 21.08228
1174.176, 24.88403
1176.104, 31.83398
1178.032, 36.60791
1179.961, 38.69946
1181.889, 35.83081
1183.818, 31.70508
1185.746, 30.88208
1187.675, 30.61743
1189.603, 27.25439
1191.532, 25.49609
1193.460, 30.16699
1195.389, 34.82544
1197.317, 35.46631
1199.246, 35.02295
1201.174, 34.51074
1203.103, 34.25244
1205.031, 34.76318
1206.959, 34.17773
1208.888, 31.86426
1210.816, 28.91626
1212.745, 24.82837
1214.673, 25.28223
1216.602, 32.22852
1218.530, 35.84595
1220.459, 34.45605
1222.387, 35.97681
1224.316, 40.84253
1226.244, 39.49121
1228.173, 32.58179
1230.101, 35.58130
1232.030, 45.77808
1233.958, 46.39331
1235.886, 40.93848
1237.815, 39.63110
1239.743, 40.52295
1241.672, 39.87891
1243.600, 38.80103
1245.529, 39.03809
1247.457, 39.62451
1249.386, 39.58691
1251.314, 39.67725
1253.243, 40.42358
1255.171, 41.86865
1257.100, 42.78931
1259.028, 45.51782
1260.957, 52.76392
1262.885, 58.16602
1264.813, 58.93726
1266.742, 60.05615
1268.670, 61.53052
1270.599, 65.84082
1272.527, 73.69946
1274.456, 81.88013
1276.384, 90.28125
1278.313, 93.09326
1280.241, 92.27441
1282.170, 101.6689
1284.098, 119.5872
1286.027, 139.5225
1287.955, 161.2932
1289.884, 185.6545
1291.812, 211.3806
1293.740, 229.9238
1295.669, 258.8452
1297.597, 299.2339
1299.526, 374.3579
1301.454, 468.5801
1303.383, 658.6221
1305.311, 953.8857
1307.240, 1415.708
1309.168, 2116.990
1311.097, 2763.022
1313.025, 3311.316
1314.954, 3786.664
1316.882, 4167.585
1318.811, 4776.229
1320.739, 5715.449
1322.667, 7492.175
1324.596, 10421.63
1326.524, 15634.43
1328.453, 22431.14
1330.381, 31230.32
1332.310, 39050.26
1334.238, 44288.73
1336.167, 45357.04
1338.095, 39420.70
1340.024, 32099.06
1341.952, 24276.56
1343.881, 17961.92
1345.809, 13736.57
1347.738, 10430.75
1349.666, 7896.484
1351.594, 5801.543
1353.523, 4114.179
1355.451, 2848.054
1357.380, 1966.407
1359.308, 1369.670
1361.237, 986.6843
1363.165, 729.6099
1365.094, 556.6909
1367.022, 440.7827
1368.951, 354.8230
1370.879, 284.9463
1372.808, 228.9023
1374.736, 188.8044
1376.665, 157.1223
1378.593, 135.3748
1380.521, 113.1711
1382.450, 88.45459
1384.378, 76.87646
1386.307, 77.85400
1388.235, 76.84790
1390.164, 72.99219
1392.092, 60.62866
1394.021, 48.29443
1395.949, 51.02417
1397.878, 56.28589
1399.806, 53.69458
1401.735, 49.34839
1403.663, 44.72583
1405.592, 42.98022
1407.520, 47.13965
1409.448, 49.21558
1411.377, 47.72412
1413.305, 47.69019
1415.234, 48.99561
1417.162, 43.98853
1419.091, 35.65649
1421.019, 34.00366
1422.948, 36.61816
1424.876, 43.99561
1426.805, 48.19458
1428.733, 39.71973
1430.662, 34.80737
1432.590, 43.31250
1434.519, 44.14355
1436.447, 29.92188
1438.375, 24.66309
1440.304, 31.24609
1442.232, 35.03149
1444.161, 36.05078
1446.089, 36.73389
1448.018, 37.00073
1449.946, 36.90259
1451.875, 35.74316
1453.803, 31.47510
1455.732, 28.31177
1457.660, 28.45776
1459.589, 29.71948
1461.517, 32.15967
1463.446, 32.74512
1465.374, 31.22046
1467.302, 29.59619
1469.231, 28.15356
1471.159, 28.92041
1473.088, 28.24951
1475.016, 16.11621
1476.945, 4.301270
1478.873, 6.383057
1480.802, 7.811279
1482.730, 1.122070
1484.659, 5.706787
1486.587, 2.031738
1488.516, 0.3596190
1490.444, 1.394531
1492.373, 2.954590
1494.301, 4.093750
1496.229, 1.389160
1498.158, 2.280762
1500.086, 4.010498
1502.015, 4.385498
1503.943, 4.459961
1505.872, 2.344482
1507.800, 4.870850
1509.729, 7.828369
1511.657, 5.175293
1513.586, 4.770508
1515.514, 5.787598
1517.443, 2.833496
1519.371, 2.079834
1521.300, 7.150635
1523.228, 10.34155
1525.156, 9.717041
1527.085, 8.391602
1529.013, 7.138428
1530.942, 7.008301
1532.870, 8.384521
1534.799, 11.07129
1536.727, 13.72583
1538.656, 6.044678
1540.584, 4.546143
1542.513, 6.473633
1544.441, 4.323242
1546.370, 0.2707520
1548.298, 4.614990
1550.227, 10.31934
1552.155, 12.84351
1554.083, 11.67480
1556.012, 17.24951
1557.940, 26.77197
1559.869, 30.62109
1561.797, 30.69336
1563.726, 28.21387
1565.654, 25.61621
1567.583, 24.30957
1569.511, 24.07788
1571.440, 25.10669
1573.368, 26.56909
1575.297, 28.45386
1577.225, 32.64111
1579.154, 36.53320
1581.082, 32.86230
1583.010, 29.34741
1584.939, 34.39111
1586.867, 39.08667
1588.796, 39.52832
1590.724, 40.69360
1592.653, 43.04419
1594.581, 42.52759
1596.510, 39.80322
1598.438, 36.15210
1600.367, 33.59595
1602.295, 35.76611
1604.224, 37.44263
1606.152, 33.94971
1608.081, 34.23901
1610.009, 40.98315
1611.938, 46.51758
1613.866, 49.82324
1615.794, 41.34375
1617.723, 30.50366
1619.651, 30.02832
1621.580, 33.27539
1623.508, 39.93384
1625.437, 39.11694
1627.365, 26.01953
1629.294, 19.53735
1631.222, 19.59814
1633.151, 25.40112
1635.079, 31.33813
1637.008, 27.70312
1638.936, 22.55176
1640.865, 19.59009
1642.793, 16.64404
1644.721, 13.10840
1646.650, 15.20142
1648.578, 21.06299
1650.507, 18.82837
1652.435, 14.70337
1654.364, 17.77100
1656.292, 20.94312
1658.221, 20.50586
1660.149, 21.55151
1662.078, 24.60376
1664.006, 19.65918
1665.935, 10.19824
1667.863, 10.12964
1669.792, 12.12305
1671.720, 7.245850
1673.648, 4.495117
1675.577, 9.508545
1677.505, 6.330566
1679.434, 5.006104
1681.362, 3.240234
1683.291, 4.235107
1685.219, 0.6127930
1687.148, 4.482422
1689.076, 3.810059
1691.005, 2.583008
1692.933, 2.097656
1694.862, 0.4616700
1696.790, 1.760254
1698.719, 0.6228030
1700.647, 1.326904
1702.575, 1.130859
1704.504, 9.5702998E-02
1706.432, 2.762695
1708.361, 2.800049
1710.289, 0.2531740
1712.218, 0.6730960
1714.146, 2.9300000E-03
1716.075, 3.975830
1718.003, 6.044434
1719.932, 1.258301
1721.860, 2.659180
1723.789, 3.483154
1725.717, 3.824463
1727.646, 3.619873
1729.574, 2.323975
1731.502, 1.235596
1733.431, 1.221924
1735.359, 3.107910
1737.288, 7.006348
1739.216, 12.13525
1741.145, 17.81348
1743.073, 20.03833
1745.002, 20.45557
1746.930, 19.55054
1748.859, 22.50195
1750.787, 32.73340
1752.716, 37.06299
1754.644, 34.85278
1756.573, 35.03662
1758.501, 38.31665
1760.429, 47.82788
1762.358, 56.30859
1764.286, 59.13477
1766.215, 61.14917
1768.143, 63.00146
1770.072, 69.51367
1772.000, 77.56104
1773.929, 81.13721
1775.857, 84.30151
1777.786, 90.72583
1779.714, 94.77051
1781.643, 96.08203
1783.571, 99.38062
1785.500, 103.8005
1787.428, 107.7068
1789.356, 110.6965
1791.285, 112.0256
1793.213, 112.5623
1795.142, 112.0349
1797.070, 115.3398
1798.999, 120.1682
1800.927, 123.3225
1802.856, 123.4309
1804.784, 118.0645
1806.713, 114.3413
1808.641, 113.1846
1810.570, 117.3584
1812.498, 123.0620
1814.427, 121.5203
1816.355, 122.5049
1818.283, 131.8704
1820.212, 137.7170
1822.140, 139.2007
1824.069, 145.0469
1825.997, 154.0217
1827.926, 166.8882
1829.854, 175.8562
1831.783, 176.9248
1833.711, 184.0508
1835.640, 196.9814
1837.568, 206.9548
1839.497, 216.0603
1841.425, 229.5161
1843.354, 236.2585
1845.282, 233.6438
1847.210, 234.1545
1849.139, 237.4995
1851.067, 238.3765
1852.996, 242.7256
1854.924, 261.6064
1856.853, 266.1514
1858.781, 253.8291
1860.710, 248.3879
1862.638, 244.0061
1864.567, 227.3765
1866.495, 210.3943
1868.424, 198.4072
1870.352, 187.6672
1872.281, 178.0811
1874.209, 171.3335
1876.137, 164.7786
1878.066, 156.9038
1879.994, 145.2285
1881.923, 127.8999
1883.851, 119.3291
1885.780, 114.9951
1887.708, 103.6194
1889.637, 91.14380
1891.565, 80.00464
1893.494, 72.45020
1895.422, 68.00464
1897.351, 55.26611
1899.279, 43.33301
1901.208, 41.68359
1903.136, 42.93140
1905.064, 46.02368
1906.993, 41.01855
1908.921, 31.04224
1910.850, 22.26953
1912.778, 17.13647
1914.707, 18.34082
1916.635, 14.09619
1918.564, 4.640625
1920.492, 1.732178
1922.421, 2.260254
1924.349, 3.894531
1926.278, 5.041504
1928.206, 5.245361
1930.135, 6.664063
1932.063, 8.247070
1933.991, 9.137939
1935.920, 7.142822
1937.848, 0.9960940
1939.777, 0.7641600
1941.705, 0.7648930
1943.634, 0.4587400
1945.562, 2.201172
1947.491, 2.997314
1949.419, 4.252441
1951.348, 5.587158
1953.276, 6.350586
1955.205, 5.622559
1957.133, 0.9685060
1959.062, 2.103760
1960.990, 2.535889
1962.918, 8.2275003E-02
1964.847, 1.878906
1966.775, 3.665771
1968.704, 7.714844
1970.632, 6.662598
1972.561, 7.954102
1974.489, 9.636230
1976.418, 3.945313
1978.346, 0.1142580
1980.275, 2.720459
1982.203, 9.767334
1984.132, 18.76587
1986.060, 18.32861
1987.989, 17.82617
1989.917, 23.28149
1991.845, 30.80640
1993.774, 39.15942
1995.702, 41.42212
1997.631, 41.67773
1999.559, 43.19702
2001.488, 47.22314
2003.416, 53.65454
2005.345, 53.66992
2007.273, 55.08228
2009.202, 68.79126
2011.130, 78.86646
2013.059, 81.89673
2014.987, 80.85693
2016.916, 80.92163
2018.844, 91.31812
2020.772, 100.7686
2022.701, 107.2490
2024.629, 110.1633
2026.558, 112.7163
2028.486, 118.7498
2030.415, 129.0137
2032.343, 143.4343
2034.272, 151.3970
2036.200, 158.3782
2038.129, 175.9517
2040.057, 189.6360
2041.986, 195.6213
2043.914, 209.0647
2045.843, 222.9805
2047.771, 221.3469
2049.699, 225.4392
2051.628, 241.7551
2053.556, 262.3586
2055.485, 285.6704
2057.413, 312.0132
2059.342, 333.1187
2061.270, 344.1875
2063.199, 365.3350
2065.127, 390.9285
2067.056, 410.5989
2068.984, 437.1089
2070.913, 476.1365
2072.841, 503.9061
2074.770, 529.6444
2076.698, 565.7700
2078.626, 602.6821
2080.555, 637.7046
2082.483, 680.5752
2084.412, 725.6747
2086.340, 764.9883
2088.269, 809.6842
2090.197, 861.4242
2092.126, 898.7874
2094.054, 935.1838
2095.983, 986.3601
2097.911, 1030.615
2099.840, 1064.160
2101.768, 1090.228
2103.697, 1112.725
2105.625, 1137.450
2107.553, 1144.478
2109.482, 1134.658
2111.410, 1123.871
2113.339, 1111.954
2115.267, 1101.016
2117.196, 1075.664
2119.124, 1038.205
2121.053, 998.3467
2122.981, 954.8569
2124.910, 906.8201
2126.838, 857.4653
2128.767, 809.4502
2130.695, 770.2756
2132.624, 725.5264
2134.552, 671.3304
2136.480, 622.2664
2138.409, 576.4429
2140.337, 528.9884
2142.266, 489.2893
2144.194, 457.7864
2146.123, 429.6414
2148.051, 399.1616
2149.980, 359.0194
2151.908, 325.9283
2153.837, 300.3335
2155.765, 282.4224
2157.694, 263.6862
2159.622, 239.9072
2161.551, 217.6388
2163.479, 200.1692
2165.407, 197.7303
2167.336, 188.3422
2169.264, 165.9222
2171.193, 152.8018
2173.121, 144.2891
2175.050, 135.7998
2176.978, 127.0414
2178.907, 118.1299
2180.835, 109.1233
2182.764, 101.5187
2184.692, 96.48303
2186.621, 87.59485
2188.549, 77.88831
2190.478, 73.85925
2192.406, 71.58691
2194.334, 69.53674
2196.263, 60.74976
2198.191, 51.71765
2200.120, 52.05725
2202.048, 43.10815
2203.977, 27.90112
2205.905, 23.79907
2207.834, 22.52356
2209.762, 20.34778
2211.691, 17.37744
2213.619, 14.72974
2215.548, 14.92468
2217.476, 12.94507
2219.405, 8.339478
2221.333, 7.266602
2223.261, 5.628296
2225.190, 2.575439
2227.118, 2.959229
2229.047, 14.02112
2230.975, 7.723145
2232.904, 3.145752
2234.832, 6.162109
2236.761, 3.177979
2238.689, 1.697754
2240.618, 5.532715
2242.546, 7.172852
2244.475, 6.854248
2246.403, 4.742554
2248.332, 1.884521
2250.260, 1.439087
2252.188, 1.326172
2254.117, 3.540283
2256.045, 16.51270
2257.974, 17.40698
2259.902, 7.901611
2261.831, 2.701904
2263.759, 0.3597410
2265.688, 2.218750
2267.616, 1.079224
2269.545, 1.426270
2271.473, 4.295532
2273.402, 6.844116
2275.330, 8.338135
2277.259, 6.615723
2279.187, 3.687622
2281.115, 0.2565920
2283.044, 1.685303
2284.972, 3.143799
2286.901, 6.745239
2288.829, 3.706177
2290.758, 3.052368
2292.686, 5.504395
2294.615, 6.176025
2296.543, 5.888916
2298.472, 0.9348140
2300.400, 2.042236
2302.329, 3.774902
2304.257, 6.633789
2306.186, 7.961426
2308.114, 12.41418
2310.042, 13.68958
2311.971, 10.89880
2313.899, 6.713379
2315.828, 4.818726
2317.756, 7.218506
2319.685, 12.16138
2321.613, 15.38245
2323.542, 11.13379
2325.470, 9.080200
2327.399, 10.24658
2329.327, 15.30591
2331.256, 15.36609
2333.184, 8.633301
2335.113, 10.52563
2337.041, 12.42273
2338.969, 7.232788
2340.898, 10.89270
2342.826, 18.93396
2344.755, 23.14343
2346.683, 22.67908
2348.612, 19.07764
2350.540, 19.26453
2352.469, 20.28406
2354.397, 21.06348
2356.326, 22.51404
2358.254, 24.00525
2360.183, 25.44580
2362.111, 24.76318
2364.040, 23.21753
2365.968, 22.34973
2367.896, 23.74500
2369.825, 26.46582
2371.753, 24.23755
2373.682, 26.02710
2375.610, 36.13599
2377.539, 31.70569
2379.467, 26.26807
2381.396, 30.33582
2383.324, 32.58655
2385.253, 33.64673
2387.181, 35.44641
2389.110, 34.97961
2391.038, 33.84424
2392.967, 39.54639
2394.895, 44.58386
2396.823, 47.04468
2398.752, 47.66797
2400.680, 48.51880
2402.609, 50.43250
2404.537, 52.91187
2406.466, 52.96411
2408.394, 47.48315
2410.323, 46.76855
2412.251, 49.03052
2414.180, 49.42529
2416.108, 52.88391
2418.037, 57.79016
2419.965, 56.25903
2421.894, 53.75830
2423.822, 52.21057
2425.750, 55.54285
2427.679, 58.05811
2429.607, 57.13806
2431.536, 63.17542
2433.464, 69.12939
2435.393, 67.81738
2437.321, 70.15125
2439.250, 73.11829
2441.178, 70.00891
2443.107, 74.18689
2445.035, 82.81714
2446.964, 88.66187
2448.892, 90.06799
2450.821, 88.72961
2452.749, 92.75549
2454.677, 95.65015
2456.606, 95.38184
2458.534, 95.23816
2460.463, 101.0417
2462.391, 116.4222
2464.320, 112.3125
2466.248, 106.7424
2468.177, 111.9227
2470.105, 115.9197
2472.034, 117.0084
2473.962, 113.8639
2475.891, 115.6499
2477.819, 118.1976
2479.748, 112.3683
2481.676, 112.2899
2483.604, 115.2822
2485.533, 111.4436
2487.461, 111.0300
2489.390, 113.7747
2491.318, 112.4558
2493.247, 111.4078
2495.175, 111.3936
2497.104, 109.4380
2499.032, 109.1095
2500.961, 111.4093
2502.889, 112.7023
2504.818, 113.1506
2506.746, 111.8044
2508.675, 111.4706
2510.603, 110.0548
2512.531, 105.9391
2514.460, 101.5551
2516.388, 97.71472
2518.317, 94.71063
2520.245, 95.77747
2522.174, 96.41956
2524.102, 90.10791
2526.031, 87.29132
2527.959, 85.68640
2529.888, 81.43896
2531.816, 78.74261
2533.745, 77.50000
2535.673, 75.34985
2537.602, 75.50580
2539.530, 76.24170
2541.458, 73.62939
2543.387, 68.31903
2545.315, 63.31635
2547.244, 67.60168
2549.172, 67.04144
2551.101, 62.54547
2553.029, 64.29871
2554.958, 61.87708
2556.886, 55.59753
2558.815, 53.02509
2560.743, 50.17126
2562.672, 48.20349
2564.600, 56.04236
2566.529, 60.92499
2568.457, 60.22137
2570.385, 54.52795
2572.314, 49.70929
2574.242, 47.25000
2576.171, 48.05206
2578.099, 49.44934
2580.028, 50.56952
2581.956, 51.47528
2583.885, 50.56592
2585.813, 48.53064
2587.742, 56.71851
2589.670, 60.09985
2591.599, 55.46875
2593.527, 53.93097
2595.456, 50.13116
2597.384, 43.61560
2599.313, 42.99890
2601.241, 45.82324
2603.169, 50.20087
2605.098, 46.80280
2607.026, 45.68365
2608.955, 49.23572
2610.883, 54.35101
2612.812, 57.00873
2614.740, 56.16791
2616.669, 51.84290
2618.597, 50.09613
2620.526, 51.51123
2622.454, 51.89673
2624.383, 49.28784
2626.311, 45.77087
2628.240, 50.12091
2630.168, 56.95135
2632.096, 61.78326
2634.025, 54.14813
2635.953, 49.27850
2637.882, 48.78986
2639.810, 48.35205
2641.739, 50.48120
2643.667, 53.82910
2645.596, 54.40704
2647.524, 54.83081
2649.453, 53.76648
2651.381, 46.50385
2653.310, 44.19818
2655.238, 44.97784
2657.167, 44.73663
2659.095, 40.68512
2661.023, 38.59955
2662.952, 46.26227
2664.880, 48.74786
2666.809, 47.86816
2668.737, 46.56873
2670.666, 46.07635
2672.594, 43.55975
2674.523, 36.95789
2676.451, 32.17059
2678.380, 28.32819
2680.308, 24.72705
2682.237, 21.67126
2684.165, 17.33875
2686.094, 11.82703
2688.022, 13.64783
2689.950, 13.64850
2691.879, 9.588013
2693.807, 7.209473
2695.736, 8.321228
2697.664, 11.11676
2699.593, 7.755127
2701.521, 6.424133
2703.450, 7.057861
2705.378, 5.770508
2707.307, 2.856995
2709.235, 0.5039670
2711.164, 4.176086
2713.092, 0.5900880
2715.021, 6.899109
2716.949, 5.848999
2718.877, 2.884705
2720.806, 0.9149780
2722.734, 2.687195
2724.663, 1.357727
2726.591, 3.702576
2728.520, 0.2909550
2730.448, 4.003174
2732.377, 1.818359
2734.305, 6.301453
2736.234, 1.2390000E-02
2738.162, 6.945251
2740.091, 9.983093
2742.019, 3.376526
2743.948, 4.287537
2745.876, 8.090881
2747.804, 3.883057
2749.733, 4.770752
2751.661, 8.992310
2753.590, 1.120300
2755.518, 4.343628
2757.447, 6.493408
2759.375, 5.489929
2761.304, 0.6317140
2763.232, 3.245300
2765.161, 1.372437
2767.089, 3.267883
2769.018, 4.292419
2770.946, 2.569519
2772.875, 5.255981
2774.803, 8.419373
2776.731, 7.540222
2778.660, 4.344513
2780.588, 2.752197
2782.517, 2.298737
2784.445, 2.599670
2786.374, 3.123291
2788.302, 4.735718
2790.231, 7.016205
2792.159, 3.311523
2794.088, 2.027191
2796.016, 2.981415
2797.945, 1.468445
2799.873, 0.5731810
2801.802, 1.423553
2803.730, 0.3554080
2805.658, 4.111603
2807.587, 5.081726
2809.515, 1.908569
2811.444, 6.502716
2813.372, 8.611389
2815.301, 6.160461
2817.229, 4.237091
2819.158, 3.625824
2821.086, 3.856628
2823.015, 3.981750
2824.943, 4.310455
2826.872, 4.638428
2828.800, 4.757874
2830.729, 5.653290
2832.657, 8.466309
2834.585, 11.84012
2836.514, 6.579651
2838.442, 4.686432
2840.371, 6.790558
2842.299, 11.10303
2844.228, 11.40314
2846.156, 9.114227
2848.085, 5.468109
2850.013, 6.982422
2851.942, 8.466797
2853.870, 7.980499
2855.799, 5.065582
2857.727, 5.806610
2859.656, 7.392853
2861.584, 4.423950
2863.512, 4.009277
2865.441, 5.869110
2867.369, 8.744537
2869.298, 7.470673
2871.226, 3.684021
2873.155, 0.5671690
2875.083, 7.098297
2877.012, 8.107758
2878.940, 5.942291
2880.869, 4.698944
2882.797, 6.037170
2884.726, 6.679230
2886.654, 5.786682
2888.583, 6.467468
2890.511, 4.910400
2892.439, 2.572449
2894.368, 3.463959
2896.296, 0.8921200
2898.225, 0.1635740
2900.153, 3.368500
2902.082, 1.926239
2904.010, 2.629456
2905.939, 5.933136
2907.867, 9.905457
2909.796, 6.336517
2911.724, 1.770477
2913.653, 1.746979
2915.581, 2.077606
2917.510, 2.083862
2919.438, 2.145416
2921.366, 4.012360
2923.295, 4.635742
2925.223, 4.188385
2927.152, 3.337769
2929.080, 5.015625
2931.009, 6.706451
2932.937, 7.442871
2934.866, 6.626984
2936.794, 7.986206
2938.723, 9.723083
2940.651, 9.803802
2942.580, 8.511658
2944.508, 6.445923
2946.437, 4.665894
2948.365, 6.819458
2950.293, 6.992706
2952.222, 6.829895
2954.150, 8.531372
2956.079, 9.071350
2958.007, 10.15717
2959.936, 11.14444
2961.864, 7.450546
2963.793, 7.109146
2965.721, 6.999039
2967.650, 5.523788
2969.578, 7.263077
2971.507, 10.33617
2973.435, 12.72723
2975.364, 11.51918
2977.292, 9.606903
2979.220, 7.610382
2981.149, 5.711044
2983.077, 7.628433
2985.006, 10.47551
2986.934, 11.73976
2988.863, 9.737213
2990.791, 8.686691
2992.720, 8.859924
2994.648, 9.220718
2996.577, 5.846756
2998.505, 7.321075
3000.434, 9.065994
3002.362, 6.700439
3004.291, 10.81297
3006.219, 11.88821
3008.147, 9.802628
3010.076, 9.098251
3012.004, 11.49171
3013.933, 13.38358
3015.861, 13.11095
3017.790, 12.89151
3019.718, 11.74437
3021.647, 11.48441
3023.575, 13.97757
3025.504, 13.07068
3027.432, 13.46826
3029.361, 14.43390
3031.289, 11.18347
3033.218, 12.31108
3035.146, 14.20844
3037.074, 14.33510
3039.003, 12.55791
3040.931, 12.91968
3042.860, 13.34975
3044.788, 11.83575
3046.717, 13.47377
3048.645, 15.74300
3050.574, 16.98674
3052.502, 15.49895
3054.431, 16.38292
3056.359, 16.54671
3058.288, 15.16516
3060.216, 13.33334
3062.145, 15.25920
3064.073, 17.70537
3066.001, 18.29700
3067.930, 18.64195
3069.858, 19.24318
3071.787, 19.14359
3073.715, 16.76831
3075.644, 20.42120
3077.572, 20.44037
3079.501, 17.96387
3081.429, 19.02975
3083.358, 22.90630
3085.286, 23.11087
3087.215, 20.11034
3089.143, 22.62515
3091.072, 19.14957
3093.000, 18.11600
3094.928, 22.66580
3096.857, 22.71848
3098.785, 18.57883
3100.714, 17.82164
3102.642, 23.59459
3104.571, 22.24017
3106.499, 20.54407
3108.428, 20.25995
3110.356, 21.37347
3112.285, 19.39934
3114.213, 17.80795
3116.142, 17.27663
3118.070, 17.33620
3119.999, 19.34720
3121.927, 22.15265
3123.855, 23.53893
3125.784, 20.03711
3127.712, 18.62813
3129.641, 18.18138
3131.569, 17.94606
3133.498, 17.51868
3135.426, 15.00829
3137.355, 14.60422
3139.283, 16.32434
3141.212, 15.33063
3143.140, 13.02820
3145.069, 11.76212
3146.997, 11.69717
3148.926, 10.97632
3150.854, 10.25124
3152.782, 10.61472
3154.711, 11.75282
3156.639, 10.42788
3158.568, 12.37926
3160.496, 11.82149
3162.425, 7.665321
3164.353, 7.878105
3166.282, 9.084785
3168.210, 9.233391
3170.139, 7.882904
3172.067, 7.034332
3173.996, 5.885399
3175.924, 4.740341
3177.853, 4.023636
3179.781, 4.663750
3181.709, 4.230453
3183.638, 3.692711
3185.566, 3.309563
3187.495, 0.9635620
3189.423, 0.9890980
3191.352, 0.2607650
3193.280, 1.531952
3195.209, 1.732979
3197.137, 1.354706
3199.066, 2.409630
3200.994, 0.7088240
3202.923, 0.2087860
3204.851, 1.466393
3206.780, 0.7493740
3208.708, 1.466331
3210.636, 0.3591000
3212.565, 0.3933410
3214.493, 1.443855
3216.422, 2.847130
3218.350, 6.2240999E-02
3220.279, 11.69014
3222.207, 8.965088
3224.136, 0.4958650
3226.064, 10.55082
3227.993, 4.856308
3229.921, 1.189331
3231.850, 0.5435410
3233.778, 1.902069
3235.707, 1.881325
3237.635, 0.1193700
3239.563, 1.963776
3241.492, 2.035660
3243.420, 7.7056997E-02
3245.349, 0.6477810
3247.277, 0.7134400
3249.206, 0.8720250
3251.134, 1.110924
3253.063, 0.5177380
3254.991, 2.312508
3256.920, 3.215706
3258.848, 3.143669
3260.777, 0.9872440
3262.705, 8.8767998E-02
3264.634, 0.6573940
3266.562, 1.081909
3268.490, 2.697571
3270.419, 4.640213
3272.347, 5.408241
3274.276, 4.169220
3276.204, 6.657722
3278.133, 5.086311
3280.061, 3.548363
3281.990, 5.043999
3283.918, 6.138924
3285.847, 3.303719
3287.775, 3.554176
3289.704, 6.960205
3291.632, 6.746689
3293.561, 4.825920
3295.489, 3.882931
3297.417, 5.130692
3299.346, 8.493076
3301.274, 8.886082
3303.203, 6.773277
3305.131, 6.780731
3307.060, 9.485447
3308.988, 5.619320
3310.917, 6.704727
3312.845, 7.383751
3314.774, 6.936569
3316.702, 8.569122
3318.631, 5.737003
3320.559, 5.430962
3322.488, 7.103592
3324.416, 8.201973
3326.344, 5.883949
3328.273, 5.024536
3330.201, 3.509304
3332.130, 1.827999
3334.058, 5.753853
3335.987, 4.962898
3337.915, 5.239971
3339.844, 6.642132
3341.772, 6.826477
3343.701, 4.427525
3345.629, 3.069046
3347.558, 4.258266
3349.486, 6.146774
3351.415, 3.421967
3353.343, 3.790970
3355.271, 5.547516
3357.200, 5.057468
3359.128, 1.070644
3361.057, 2.546539
3362.985, 5.207916
3364.914, 5.143093
3366.842, 2.825272
3368.771, 1.667534
3370.699, 4.072601
3372.628, 1.130898
3374.556, 1.850750
3376.485, 0.3225210
3378.413, 0.4689670
3380.342, 3.726757
3382.270, 4.383602
3384.198, 2.562466
3386.127, 1.330452
3388.055, 4.219414
3389.984, 2.241859
3391.912, 8.152355
3393.841, 18.19351
3395.769, 7.374916
3397.698, 6.123024
3399.626, 3.651653
3401.555, 1.825729
3403.483, 4.117664
3405.412, 5.656433
3407.340, 6.334122
3409.269, 5.601185
3411.197, 6.460896
3413.125, 11.15306
3415.054, 14.87024
3416.982, 18.96349
3418.911, 20.58687
3420.839, 18.47701
3422.768, 15.51942
3424.696, 16.74063
3426.625, 13.52633
3428.553, 10.59770
3430.482, 10.72395
3432.410, 10.96797
3434.339, 13.68999
3436.267, 8.968971
3438.196, 3.339039
3440.124, 2.346855
3442.052, 3.640041
3443.981, 1.348923
3445.909, 1.982811
3447.838, 2.472313
3449.766, 6.8001002E-02
3451.695, 0.2478330
3453.623, 0.2773090
3455.552, 0.0000000E+00
##END=



