##NAMES=Dickite
##RRUFFID=R060298
##IDEAL CHEMISTRY=Al_2_Si_2_O_5_(OH)_4_
##LOCALITY=Piast mine, Nowa Ruda, Sudety Mountains, Poland
##OWNER=RRUFF
##SOURCE=Herb Obodda
##DESCRIPTION=Greenish-blue massive
##STATUS=The identification of this mineral has been confirmed by X-ray diffraction and chemical analysis
##URL=rruff.info/R060298
##MEASURED CHEMISTRY=Al_2.00_Si_2.00_O_5_(OH)_4_ ; OH estimated by difference and charge balance
171.0057, 0.0000000E+00
171.4878, 0.1069340
171.9699, 2.137939
172.4520, 4.947266
172.9341, 7.684570
173.4163, 9.816406
173.8984, 10.49561
174.3805, 8.601074
174.8626, 6.649170
175.3447, 7.974731
175.8268, 11.75757
176.3090, 14.30566
176.7911, 11.46545
177.2732, 6.017090
177.7553, 2.516846
178.2374, 2.606689
178.7195, 4.483887
179.2017, 6.162598
179.6838, 7.655762
180.1659, 8.992920
180.6480, 9.899414
181.1301, 10.67725
181.6122, 12.09961
182.0944, 14.69336
182.5765, 17.80176
183.0586, 20.82141
183.5407, 23.64563
184.0228, 26.02295
184.5049, 27.57629
184.9871, 28.45264
185.4692, 29.13733
185.9513, 30.16296
186.4334, 30.97498
186.9155, 29.24341
187.3976, 24.65796
187.8798, 21.23828
188.3619, 25.05664
188.8440, 34.81982
189.3261, 41.79431
189.8082, 41.52234
190.2903, 36.29333
190.7725, 35.15515
191.2546, 38.16711
191.7367, 41.77222
192.2188, 41.65894
192.7009, 37.12756
193.1830, 32.70374
193.6652, 32.27332
194.1473, 35.65222
194.6294, 41.69934
195.1115, 49.97766
195.5936, 57.32434
196.0757, 61.19385
196.5579, 61.47607
197.0400, 61.64404
197.5221, 63.37939
198.0042, 66.50879
198.4863, 68.52844
198.9684, 69.51697
199.4506, 69.21753
199.9327, 67.06433
200.4148, 62.95752
200.8969, 57.99292
201.3790, 52.37097
201.8611, 46.08154
202.3433, 39.56018
202.8254, 32.39136
203.3075, 25.56531
203.7896, 21.07520
204.2717, 19.20605
204.7538, 17.90588
205.2360, 16.36475
205.7181, 14.53979
206.2002, 12.69580
206.6823, 10.75110
207.1644, 8.877441
207.6465, 7.563232
208.1287, 7.082153
208.6108, 6.274658
209.0929, 4.203979
209.5750, 0.3001710
210.0571, 1.329468
210.5392, 0.2410890
211.0214, 3.300659
211.5035, 4.162964
211.9856, 2.259521
212.4677, 0.1622310
212.9498, 2.425049
213.4319, 4.867920
213.9140, 5.453003
214.3962, 3.488037
214.8783, 0.1042480
215.3604, 2.123779
215.8425, 3.089844
216.3246, 3.129028
216.8067, 2.092163
217.2889, 0.6505130
217.7710, 2.471924
218.2531, 3.489868
218.7352, 3.545898
219.2173, 1.847290
219.6994, 2.879028
220.1816, 6.883667
220.6637, 8.075562
221.1458, 4.685425
221.6279, 3.667603
222.1100, 5.756592
222.5921, 10.04932
223.0743, 14.44360
223.5564, 19.28418
224.0385, 23.65295
224.5206, 26.88904
225.0027, 28.41711
225.4848, 30.69678
225.9670, 34.24133
226.4491, 38.40857
226.9312, 41.21973
227.4133, 40.94971
227.8954, 42.09900
228.3775, 47.26819
228.8597, 59.52393
229.3418, 68.30579
229.8239, 72.03784
230.3060, 72.39539
230.7881, 73.91858
231.2702, 76.01514
231.7524, 80.19006
232.2345, 87.28918
232.7166, 98.82251
233.1987, 110.1255
233.6808, 122.3088
234.1629, 133.9427
234.6451, 140.8210
235.1272, 139.6753
235.6093, 138.4764
236.0914, 141.0677
236.5735, 149.9397
237.0556, 157.2415
237.5378, 162.7677
238.0199, 166.7501
238.5020, 169.7963
238.9841, 171.7363
239.4662, 173.1730
239.9483, 174.2687
240.4305, 174.5966
240.9126, 175.8945
241.3947, 178.8936
241.8768, 182.5050
242.3589, 184.2581
242.8410, 183.9940
243.3232, 181.6792
243.8053, 176.9398
244.2874, 167.8822
244.7695, 161.2828
245.2516, 158.4950
245.7337, 157.6178
246.2159, 154.2960
246.6980, 147.3181
247.1801, 139.9156
247.6622, 132.9513
248.1443, 125.5837
248.6264, 121.0289
249.1086, 119.4908
249.5907, 120.2809
250.0728, 122.3630
250.5549, 126.8754
251.0370, 130.8022
251.5191, 132.6903
252.0013, 131.4308
252.4834, 131.6893
252.9655, 133.7714
253.4476, 137.1271
253.9297, 140.7499
254.4118, 144.3809
254.8940, 148.6333
255.3761, 154.1307
255.8582, 161.7594
256.3403, 166.9625
256.8224, 168.7158
257.3046, 168.8613
257.7867, 170.5570
258.2688, 174.8098
258.7509, 178.5920
259.2330, 180.6292
259.7151, 180.4878
260.1973, 181.3153
260.6794, 182.6259
261.1615, 185.3977
261.6436, 190.8556
262.1257, 198.8953
262.6078, 210.0355
263.0900, 224.9587
263.5721, 244.2587
264.0542, 263.0564
264.5363, 282.5320
265.0184, 300.2522
265.5005, 313.7773
265.9827, 322.7177
266.4648, 328.1903
266.9469, 330.6423
267.4290, 330.1067
267.9111, 324.3478
268.3932, 312.3477
268.8754, 297.0607
269.3575, 282.2292
269.8396, 268.5522
270.3217, 252.1328
270.8038, 231.2047
271.2859, 205.8892
271.7681, 181.9020
272.2502, 159.2601
272.7323, 138.5216
273.2144, 120.3331
273.6965, 104.4839
274.1786, 91.73853
274.6608, 82.69299
275.1429, 76.89966
275.6250, 71.43103
276.1071, 66.55225
276.5892, 61.53113
277.0714, 55.14246
277.5535, 46.96082
278.0356, 41.57922
278.5177, 40.78870
278.9998, 43.25195
279.4819, 43.47900
279.9641, 41.27112
280.4462, 37.77368
280.9283, 33.24365
281.4104, 27.64709
281.8925, 23.65308
282.3746, 22.28369
282.8568, 22.31140
283.3389, 19.76794
283.8210, 14.27856
284.3031, 9.023193
284.7852, 6.617798
285.2673, 6.874268
285.7495, 6.246460
286.2316, 3.758545
286.7137, 0.8833010
287.1958, 1.406860
287.6779, 5.429321
288.1600, 9.029297
288.6422, 9.281250
289.1243, 6.659790
289.6064, 4.670288
290.0885, 3.663086
290.5706, 3.177124
291.0527, 2.321411
291.5349, 1.170654
292.0170, 0.6226810
292.4991, 1.959473
292.9812, 4.458862
293.4633, 5.051758
293.9454, 3.275024
294.4276, 1.019531
294.9097, 0.9215090
295.3918, 2.650146
295.8739, 4.450073
296.3560, 6.038330
296.8381, 7.014893
297.3203, 5.948242
297.8024, 2.618164
298.2845, 1.060913
298.7666, 3.507324
299.2487, 4.733398
299.7308, 4.796875
300.2130, 2.941528
300.6951, 0.2176510
301.1772, 1.872559
301.6593, 3.333496
302.1414, 4.127563
302.6235, 4.047363
303.1057, 3.291504
303.5878, 2.205688
304.0699, 0.6910400
304.5520, 0.8898930
305.0341, 2.780884
305.5162, 4.772339
305.9984, 5.086914
306.4805, 1.051758
306.9626, 5.095093
307.4447, 10.26245
307.9268, 14.06787
308.4089, 16.07300
308.8911, 14.38623
309.3732, 10.00403
309.8553, 7.097046
310.3374, 9.287842
310.8195, 13.60461
311.3016, 16.92749
311.7838, 17.92822
312.2659, 19.29199
312.7480, 23.21667
313.2301, 28.88245
313.7122, 34.31104
314.1943, 40.10974
314.6765, 44.46033
315.1586, 44.98804
315.6407, 39.56665
316.1228, 36.74829
316.6049, 42.62317
317.0870, 53.55884
317.5692, 63.44861
318.0513, 68.99744
318.5334, 73.94629
319.0155, 80.48425
319.4976, 89.23010
319.9797, 96.54138
320.4619, 99.10205
320.9440, 100.4645
321.4261, 104.5250
321.9082, 115.8193
322.3903, 126.8285
322.8724, 135.1018
323.3546, 140.5121
323.8367, 145.5505
324.3188, 149.7653
324.8009, 154.3557
325.2830, 160.2217
325.7651, 168.0017
326.2473, 176.7268
326.7294, 185.3347
327.2115, 194.3666
327.6936, 207.1855
328.1757, 227.6121
328.6578, 248.8973
329.1400, 267.7659
329.6221, 281.4508
330.1042, 296.4788
330.5863, 313.5737
331.0684, 332.0029
331.5505, 349.5820
332.0327, 366.4663
332.5148, 382.6416
332.9969, 398.8422
333.4790, 416.9771
333.9611, 428.8315
334.4432, 433.2756
334.9254, 432.0513
335.4075, 428.2233
335.8896, 422.5123
336.3717, 412.6694
336.8538, 397.5787
337.3359, 376.7329
337.8180, 354.7184
338.3001, 330.7958
338.7823, 307.0437
339.2644, 286.5148
339.7465, 269.8042
340.2286, 251.2709
340.7107, 228.9133
341.1928, 203.6533
341.6750, 184.9323
342.1571, 173.7804
342.6392, 164.2673
343.1213, 150.2488
343.6034, 131.6929
344.0855, 117.0100
344.5677, 108.5953
345.0498, 103.9248
345.5319, 96.72327
346.0140, 86.84521
346.4961, 77.26038
346.9782, 70.09216
347.4604, 64.91016
347.9425, 59.16980
348.4246, 51.73938
348.9067, 46.37280
349.3888, 52.02979
349.8709, 66.35425
350.3531, 76.14319
350.8352, 71.41968
351.3173, 58.36292
351.7994, 48.55920
352.2815, 42.53247
352.7636, 38.24829
353.2458, 33.19727
353.7279, 28.41394
354.2100, 26.21582
354.6921, 29.47888
355.1742, 34.31213
355.6563, 36.64148
356.1385, 36.48706
356.6206, 35.57983
357.1027, 34.69312
357.5848, 34.01941
358.0669, 33.96423
358.5490, 35.44995
359.0312, 36.32214
359.5133, 34.40723
359.9954, 30.55176
360.4775, 27.44629
360.9596, 26.01575
361.4417, 25.97791
361.9239, 27.44763
362.4060, 31.10107
362.8881, 34.10730
363.3702, 34.91931
363.8523, 34.61340
364.3344, 34.94971
364.8166, 38.70325
365.2987, 40.82019
365.7808, 38.38647
366.2629, 30.57385
366.7450, 24.61743
367.2271, 23.94495
367.7093, 24.52869
368.1914, 22.83105
368.6735, 15.05151
369.1556, 8.866211
369.6377, 5.483154
370.1198, 4.696533
370.6020, 5.201904
371.0841, 8.344849
371.5662, 11.54517
372.0483, 13.42749
372.5304, 13.79749
373.0125, 13.16663
373.4947, 10.98425
373.9768, 7.998413
374.4589, 5.950928
374.9410, 5.023804
375.4231, 4.681030
375.9052, 5.189819
376.3874, 6.946167
376.8695, 5.927734
377.3516, 0.7979740
377.8337, 4.842407
378.3158, 6.035767
378.7979, 2.126831
379.2801, 1.355347
379.7622, 2.750977
380.2443, 2.566406
380.7264, 3.648438
381.2085, 6.285034
381.6906, 7.981323
382.1728, 5.481201
382.6549, 0.3972170
383.1370, 4.058472
383.6191, 4.042114
384.1012, 2.396118
384.5833, 2.806641
385.0655, 4.952881
385.5476, 6.417847
386.0297, 4.876953
386.5118, 1.926758
386.9939, 0.7207030
387.4760, 1.743652
387.9582, 2.912354
388.4403, 1.853760
388.9224, 0.5137940
389.4045, 2.265869
389.8866, 1.962158
390.3687, 1.175171
390.8509, 1.179077
391.3330, 1.932007
391.8151, 2.937744
392.2972, 4.640503
392.7793, 6.087036
393.2614, 6.326782
393.7436, 4.612305
394.2257, 2.352051
394.7078, 0.2153320
395.1899, 2.904785
395.6720, 5.236328
396.1541, 9.239014
396.6363, 11.08960
397.1184, 7.896729
397.6005, 3.308716
398.0826, 11.13757
398.5647, 11.75537
399.0468, 8.835449
399.5290, 6.829712
400.0111, 5.591064
400.4932, 5.796753
400.9753, 7.605835
401.4574, 11.03430
401.9395, 15.87451
402.4217, 23.94446
402.9038, 31.52905
403.3859, 35.85522
403.8680, 35.04883
404.3501, 35.47559
404.8322, 38.03748
405.3144, 41.84509
405.7965, 44.35156
406.2786, 45.19214
406.7607, 45.97583
407.2428, 47.08459
407.7249, 48.49060
408.2071, 51.98645
408.6892, 58.16357
409.1713, 64.72668
409.6534, 68.40723
410.1355, 69.34912
410.6176, 70.87720
411.0998, 74.36389
411.5819, 78.84070
412.0640, 81.93103
412.5461, 83.64404
413.0282, 85.00208
413.5103, 86.70190
413.9925, 88.58337
414.4746, 90.20752
414.9567, 91.29297
415.4388, 92.74841
415.9209, 96.59619
416.4030, 101.6476
416.8852, 105.0688
417.3673, 103.2565
417.8494, 100.5938
418.3315, 101.3552
418.8136, 105.8116
419.2957, 109.6143
419.7779, 108.5903
420.2600, 106.4089
420.7421, 106.7533
421.2242, 113.9114
421.7063, 120.4103
422.1884, 123.3632
422.6706, 123.6270
423.1527, 124.5667
423.6348, 127.3015
424.1169, 130.6069
424.5990, 133.8733
425.0811, 136.4827
425.5633, 140.3943
426.0454, 146.2563
426.5275, 153.1836
427.0096, 160.2747
427.4917, 168.4006
427.9738, 175.1719
428.4560, 178.9749
428.9381, 180.1389
429.4202, 185.9080
429.9023, 198.1980
430.3844, 211.3521
430.8665, 221.4014
431.3487, 228.1785
431.8308, 232.3186
432.3129, 232.8579
432.7950, 232.0613
433.2771, 235.8098
433.7592, 244.3259
434.2414, 250.3247
434.7235, 249.4502
435.2056, 243.1467
435.6877, 236.9038
436.1698, 231.0027
436.6519, 225.0042
437.1341, 218.2434
437.6162, 210.6899
438.0983, 202.2986
438.5804, 192.3940
439.0625, 182.6472
439.5446, 175.7344
440.0268, 170.8716
440.5089, 165.1140
440.9910, 154.1282
441.4731, 143.0574
441.9552, 136.9873
442.4373, 137.3179
442.9195, 137.5649
443.4016, 133.4209
443.8837, 127.9380
444.3658, 124.6963
444.8479, 125.5503
445.3300, 127.6895
445.8122, 130.2273
446.2943, 133.3196
446.7764, 137.8123
447.2585, 144.2913
447.7406, 151.6560
448.2227, 159.6672
448.7049, 170.0706
449.1870, 177.4365
449.6691, 179.5698
450.1512, 179.7207
450.6333, 182.9441
451.1154, 190.1121
451.5976, 198.5659
452.0797, 207.7725
452.5618, 217.7031
453.0439, 227.5630
453.5260, 237.0918
454.0081, 246.6023
454.4903, 256.3501
454.9724, 266.5288
455.4545, 278.4546
455.9366, 292.4841
456.4187, 306.4958
456.9008, 315.0542
457.3830, 319.1521
457.8651, 325.4268
458.3472, 340.2683
458.8293, 358.4978
459.3114, 370.7979
459.7935, 377.0022
460.2757, 380.9385
460.7578, 385.1599
461.2399, 389.0918
461.7220, 392.0769
462.2041, 394.7131
462.6862, 395.3992
463.1684, 392.0269
463.6505, 385.6738
464.1326, 379.0093
464.6147, 375.7637
465.0968, 370.6829
465.5789, 359.7126
466.0611, 341.2422
466.5432, 325.7837
467.0253, 319.1951
467.5074, 314.7712
467.9895, 306.9431
468.4716, 292.7185
468.9538, 278.2495
469.4359, 263.6394
469.9180, 249.1853
470.4001, 235.4238
470.8822, 221.1187
471.3643, 210.0530
471.8465, 205.3547
472.3286, 208.2087
472.8107, 204.4873
473.2928, 192.6599
473.7749, 178.2883
474.2570, 167.5208
474.7392, 160.3486
475.2213, 153.9128
475.7034, 147.4880
476.1855, 141.5740
476.6676, 137.0618
477.1497, 133.9333
477.6319, 132.2039
478.1140, 132.7810
478.5961, 134.4148
479.0782, 135.2444
479.5603, 135.1458
480.0424, 133.9158
480.5246, 131.1040
481.0067, 127.1023
481.4888, 122.4136
481.9709, 115.9585
482.4530, 110.2292
482.9352, 106.8091
483.4173, 105.2024
483.8994, 103.8538
484.3815, 102.7634
484.8636, 101.3728
485.3457, 99.58569
485.8279, 97.63550
486.3100, 94.33960
486.7921, 87.50806
487.2742, 80.44922
487.7563, 76.18457
488.2384, 77.11621
488.7206, 76.71289
489.2027, 74.02173
489.6848, 69.58325
490.1669, 64.94482
490.6490, 59.89819
491.1311, 55.26392
491.6133, 51.66821
492.0954, 49.09985
492.5775, 46.07983
493.0596, 42.41284
493.5417, 39.17407
494.0238, 38.24609
494.5060, 38.97852
494.9881, 38.13037
495.4702, 34.20996
495.9523, 29.44092
496.4344, 27.11694
496.9165, 26.76196
497.3987, 26.60278
497.8808, 25.53467
498.3629, 24.24170
498.8450, 23.29346
499.3271, 22.71509
499.8092, 22.60693
500.2914, 22.92798
500.7735, 23.58765
501.2556, 24.47021
501.7377, 25.81543
502.2198, 26.99658
502.7019, 27.75220
503.1841, 28.33960
503.6662, 29.20532
504.1483, 31.12134
504.6304, 32.11304
505.1125, 31.32202
505.5946, 28.56592
506.0768, 27.37183
506.5589, 28.74487
507.0410, 30.25708
507.5231, 29.94043
508.0052, 27.64355
508.4873, 24.57275
508.9695, 20.65503
509.4516, 16.57007
509.9337, 12.99463
510.4158, 9.636475
510.8979, 7.684814
511.3800, 8.682861
511.8622, 10.98413
512.3443, 10.41357
512.8264, 7.108887
513.3085, 3.898682
513.7906, 3.447998
514.2728, 4.171875
514.7549, 3.877441
515.2370, 1.787842
515.7191, 0.2441410
516.2012, 1.434570
516.6833, 1.719727
517.1655, 1.030029
517.6476, 3.269043
518.1297, 6.206299
518.6118, 4.958008
519.0939, 0.2761230
519.5760, 4.515625
520.0582, 7.414307
520.5403, 8.567871
521.0224, 7.403564
521.5045, 2.446045
521.9866, 2.3925999E-02
522.4688, 2.171143
522.9509, 5.097168
523.4330, 3.997070
523.9151, 2.108154
524.3972, 6.776611
524.8793, 8.164795
525.3615, 7.387695
525.8436, 7.660156
526.3257, 8.978516
526.8078, 9.858398
527.2899, 8.525635
527.7720, 6.302246
528.2542, 6.804199
528.7363, 10.29370
529.2184, 13.27808
529.7005, 12.07544
530.1826, 8.784180
530.6647, 6.261963
531.1469, 5.743652
531.6290, 5.454590
532.1111, 3.110596
532.5932, 0.3710940
533.0753, 0.6296390
533.5574, 9.364990
534.0396, 16.90063
534.5217, 19.02588
535.0038, 15.18262
535.4859, 13.23389
535.9680, 15.04370
536.4501, 17.11035
536.9323, 17.45898
537.4144, 15.70850
537.8965, 12.94287
538.3786, 8.206543
538.8607, 3.788574
539.3428, 4.012451
539.8250, 9.311035
540.3071, 13.65479
540.7892, 15.45166
541.2713, 15.10986
541.7534, 12.59888
542.2355, 8.181885
542.7177, 4.547363
543.1998, 4.126221
543.6819, 5.288330
544.1640, 5.527344
544.6461, 4.618164
545.1282, 3.453613
545.6104, 2.566406
546.0925, 1.797363
546.5746, 0.9445800
547.0567, 0.3872070
547.5388, 1.367188
548.0209, 1.605713
548.5031, 1.306641
548.9852, 0.9150390
549.4673, 0.7302250
549.9494, 0.2060550
550.4315, 0.9211430
550.9136, 2.652588
551.3958, 4.026855
551.8779, 4.641846
552.3600, 5.587646
552.8421, 8.010742
553.3242, 12.24951
553.8063, 14.76025
554.2885, 15.31641
554.7706, 14.35034
555.2527, 11.80811
555.7348, 7.982178
556.2169, 4.575684
556.6990, 1.709229
557.1812, 6.4208999E-02
557.6633, 1.792480
558.1454, 5.943848
558.6275, 8.952881
559.1096, 8.229736
559.5917, 5.890381
560.0739, 3.035889
560.5560, 0.2775880
561.0381, 2.229248
561.5202, 1.111816
562.0023, 1.092285
562.4844, 2.938965
562.9666, 3.719238
563.4487, 4.888428
563.9308, 6.772461
564.4129, 8.972412
564.8950, 11.14331
565.3771, 14.42798
565.8593, 14.67358
566.3414, 9.171631
566.8235, 0.1157230
567.3056, 1.649414
567.7877, 4.826904
568.2698, 11.63892
568.7520, 13.83423
569.2341, 12.47021
569.7162, 11.65381
570.1983, 11.55591
570.6804, 11.41748
571.1625, 10.34961
571.6447, 8.839844
572.1268, 7.616943
572.6089, 6.770752
573.0910, 6.465088
573.5731, 8.028320
574.0552, 10.01636
574.5374, 9.961426
575.0195, 4.081787
575.5016, 0.8752440
575.9837, 1.809570
576.4658, 0.8933110
576.9479, 1.696777
577.4301, 0.9479980
577.9122, 4.080811
578.3943, 6.966064
578.8764, 10.11084
579.3585, 8.154785
579.8406, 0.8146970
580.3228, 10.00854
580.8049, 11.26221
581.2870, 5.255127
581.7691, 1.329590
582.2512, 1.238770
582.7333, 2.901123
583.2155, 3.098877
583.6975, 2.387451
584.1796, 2.608887
584.6617, 4.954102
585.1439, 8.310791
585.6260, 12.37378
586.1081, 16.80859
586.5902, 20.00903
587.0723, 21.16064
587.5544, 20.90259
588.0366, 19.41211
588.5187, 16.40674
589.0008, 13.44702
589.4829, 9.355957
589.9650, 6.380859
590.4471, 6.520020
590.9293, 11.78320
591.4114, 15.68262
591.8935, 17.98120
592.3756, 18.64819
592.8577, 16.66797
593.3398, 11.79834
593.8220, 9.002441
594.3041, 10.99829
594.7862, 15.25293
595.2683, 15.34229
595.7504, 11.80615
596.2325, 8.602295
596.7147, 8.843750
597.1968, 10.44385
597.6789, 10.80420
598.1610, 9.721680
598.6431, 9.177002
599.1252, 11.69458
599.6074, 14.41553
600.0895, 14.84839
600.5716, 10.72827
601.0537, 7.521729
601.5358, 6.344482
602.0179, 6.417725
602.5001, 6.791016
602.9822, 7.291504
603.4643, 8.468750
603.9464, 10.97681
604.4285, 13.98218
604.9106, 14.17676
605.3928, 11.11987
605.8749, 8.930420
606.3570, 10.36743
606.8391, 14.18555
607.3212, 16.23950
607.8033, 16.67334
608.2855, 17.06665
608.7676, 18.52319
609.2497, 19.98438
609.7318, 20.86865
610.2139, 21.28271
610.6960, 21.04810
611.1782, 17.95581
611.6603, 14.04248
612.1424, 12.31738
612.6245, 15.92822
613.1066, 18.79590
613.5887, 20.52490
614.0709, 21.02954
614.5530, 19.70093
615.0351, 15.25317
615.5172, 11.58960
615.9993, 9.744873
616.4814, 9.484375
616.9636, 9.714600
617.4457, 10.50879
617.9278, 11.12695
618.4099, 11.27515
618.8920, 10.96411
619.3741, 9.422607
619.8563, 6.136719
620.3384, 3.646484
620.8205, 5.011230
621.3026, 8.529297
621.7847, 11.87769
622.2668, 14.64917
622.7490, 16.26514
623.2311, 16.35205
623.7132, 15.50586
624.1953, 14.49268
624.6774, 12.45898
625.1595, 11.22974
625.6417, 11.54980
626.1238, 12.89160
626.6059, 14.73511
627.0880, 17.82935
627.5701, 19.16284
628.0522, 16.83789
628.5344, 11.91870
629.0165, 9.652100
629.4986, 10.05957
629.9807, 11.93188
630.4628, 16.32739
630.9449, 21.03369
631.4271, 21.13672
631.9092, 16.09692
632.3913, 10.97290
632.8734, 8.459229
633.3555, 7.989014
633.8376, 9.647461
634.3198, 15.45410
634.8019, 19.72827
635.2840, 19.28564
635.7661, 16.75244
636.2482, 16.02319
636.7303, 19.22729
637.2125, 21.05322
637.6946, 20.91357
638.1767, 19.00928
638.6588, 16.84009
639.1409, 14.32568
639.6230, 12.09326
640.1052, 10.61865
640.5873, 9.742432
641.0694, 8.711914
641.5515, 7.566895
642.0336, 6.731689
642.5157, 6.454834
642.9979, 6.724854
643.4800, 8.130859
643.9621, 10.84619
644.4442, 12.16992
644.9263, 7.874512
645.4084, 3.390381
645.8906, 3.356445
646.3727, 12.04761
646.8548, 18.57007
647.3369, 21.48071
647.8190, 22.49146
648.3011, 23.59668
648.7833, 25.09912
649.2654, 25.46655
649.7475, 24.27051
650.2296, 21.97974
650.7117, 18.85962
651.1938, 15.07349
651.6760, 13.07446
652.1581, 15.45679
652.6402, 18.94385
653.1223, 18.14673
653.6044, 13.92114
654.0865, 9.771973
654.5687, 7.372314
655.0508, 6.016602
655.5329, 4.977539
656.0150, 4.193359
656.4971, 5.253174
656.9792, 11.17505
657.4614, 16.86182
657.9435, 19.69751
658.4256, 19.43604
658.9077, 16.47070
659.3898, 8.929443
659.8719, 1.928223
660.3541, 2.127441
660.8362, 9.213867
661.3183, 13.19824
661.8004, 12.12842
662.2825, 8.985352
662.7646, 7.339600
663.2468, 6.693115
663.7289, 5.839600
664.2110, 4.412109
664.6931, 2.594482
665.1752, 0.4179690
665.6573, 3.672363
666.1395, 5.009277
666.6216, 0.6064450
667.1037, 2.598877
667.5858, 0.6999510
668.0679, 5.139893
668.5500, 6.249268
669.0322, 0.1513670
669.5143, 5.748047
669.9964, 6.357178
670.4785, 2.349365
670.9606, 0.1840820
671.4427, 1.229004
671.9249, 1.162598
672.4070, 0.2324220
672.8891, 1.552002
673.3712, 4.791260
673.8533, 9.789795
674.3354, 13.44507
674.8176, 13.90332
675.2997, 11.71118
675.7818, 6.995850
676.2639, 3.228516
676.7460, 10.30835
677.2281, 9.796387
677.7103, 6.054688
678.1924, 4.518555
678.6745, 6.923828
679.1566, 7.223633
679.6387, 3.908691
680.1208, 1.178467
680.6030, 4.098389
681.0851, 4.798096
681.5672, 5.114746
682.0493, 5.724365
682.5314, 6.265381
683.0135, 5.927734
683.4957, 4.890137
683.9778, 3.903320
684.4599, 3.529541
684.9420, 3.202393
685.4241, 1.974609
685.9063, 2.5146000E-02
686.3884, 0.2673340
686.8705, 3.456787
687.3526, 7.467041
687.8347, 10.42749
688.3168, 12.45532
688.7990, 12.36523
689.2811, 9.209961
689.7632, 6.152344
690.2453, 6.213623
690.7274, 9.067139
691.2095, 10.29028
691.6917, 9.466309
692.1738, 8.035400
692.6559, 7.008789
693.1380, 6.532959
693.6201, 6.985840
694.1022, 8.705322
694.5844, 10.54346
695.0665, 11.06909
695.5486, 11.54077
696.0307, 13.59717
696.5128, 18.81470
696.9949, 24.16968
697.4771, 31.19434
697.9592, 37.42139
698.4413, 36.48926
698.9234, 25.69507
699.4055, 19.00073
699.8876, 21.63599
700.3698, 29.26562
700.8519, 30.29346
701.3340, 25.68457
701.8161, 21.69458
702.2982, 22.37231
702.7803, 24.85474
703.2625, 26.35425
703.7446, 26.97412
704.2267, 27.18872
704.7088, 26.18579
705.1909, 25.72827
705.6730, 27.37915
706.1552, 31.49829
706.6373, 33.14917
707.1194, 30.28198
707.6015, 27.76880
708.0836, 28.71436
708.5657, 33.33496
709.0479, 35.87842
709.5300, 35.98950
710.0121, 35.89185
710.4942, 38.21777
710.9763, 41.73438
711.4584, 43.37231
711.9406, 42.47290
712.4227, 41.52295
712.9048, 42.61182
713.3869, 44.47217
713.8690, 45.94824
714.3511, 47.71436
714.8333, 47.42456
715.3154, 42.95923
715.7975, 37.19922
716.2796, 33.13086
716.7617, 31.31738
717.2438, 29.79858
717.7260, 28.21191
718.2081, 27.15405
718.6902, 27.85327
719.1723, 30.15991
719.6544, 32.86694
720.1365, 35.99048
720.6187, 38.71045
721.1008, 39.75415
721.5829, 39.62549
722.0650, 39.56787
722.5471, 39.62964
723.0292, 40.19214
723.5114, 41.68433
723.9935, 43.87500
724.4756, 45.66968
724.9577, 45.84595
725.4398, 46.85742
725.9219, 49.63965
726.4041, 53.85352
726.8862, 55.54956
727.3683, 54.01929
727.8504, 53.98047
728.3325, 60.88599
728.8146, 70.34229
729.2968, 71.56079
729.7789, 65.48804
730.2610, 60.35791
730.7431, 60.95654
731.2252, 64.66748
731.7073, 70.58691
732.1895, 78.88208
732.6716, 85.36572
733.1537, 87.71460
733.6358, 89.41016
734.1179, 92.15454
734.6000, 96.19360
735.0822, 97.79077
735.5643, 96.13232
736.0464, 95.50977
736.5285, 101.0474
737.0106, 111.0364
737.4927, 118.6067
737.9749, 122.9319
738.4570, 126.1626
738.9391, 130.1611
739.4212, 134.3359
739.9033, 137.9536
740.3854, 140.6914
740.8676, 143.4575
741.3497, 146.3638
741.8318, 149.5686
742.3139, 153.3933
742.7960, 158.5598
743.2781, 162.3157
743.7603, 164.0840
744.2424, 164.9675
744.7245, 166.1130
745.2066, 167.5776
745.6887, 170.8032
746.1708, 177.0759
746.6530, 182.6111
747.1351, 182.0479
747.6172, 177.8391
748.0993, 174.3157
748.5814, 174.2922
749.0635, 173.7717
749.5457, 171.6975
750.0278, 168.1184
750.5099, 163.0354
750.9920, 154.2886
751.4741, 148.5349
751.9562, 148.4043
752.4384, 151.0046
752.9205, 148.7290
753.4026, 141.7100
753.8847, 133.8315
754.3668, 125.8701
754.8489, 118.7593
755.3311, 114.8818
755.8132, 113.0835
756.2953, 110.1055
756.7774, 102.4751
757.2595, 95.16504
757.7416, 91.28052
758.2238, 90.11255
758.7059, 86.89062
759.1880, 80.12134
759.6701, 73.35156
760.1522, 67.31055
760.6343, 62.10376
761.1165, 58.02100
761.5986, 55.07520
762.0807, 53.27539
762.5628, 54.09961
763.0449, 55.41211
763.5270, 52.54590
764.0092, 46.27148
764.4913, 41.34180
764.9734, 42.39746
765.4555, 43.90210
765.9376, 42.77612
766.4197, 38.85986
766.9019, 33.78296
767.3840, 26.07227
767.8661, 19.58911
768.3482, 16.24390
768.8303, 15.90698
769.3124, 16.12476
769.7946, 17.04248
770.2767, 16.80322
770.7588, 11.64868
771.2409, 5.459229
771.7230, 5.799316
772.2051, 12.69360
772.6873, 19.43896
773.1694, 23.12085
773.6515, 24.42700
774.1336, 22.85400
774.6157, 17.41187
775.0978, 15.45142
775.5800, 19.30298
776.0621, 23.73975
776.5442, 25.62451
777.0263, 24.64087
777.5084, 24.87817
777.9905, 26.57935
778.4727, 28.94385
778.9548, 32.11548
779.4369, 35.18628
779.9190, 36.55859
780.4011, 35.88062
780.8832, 34.56909
781.3654, 31.47485
781.8475, 29.43628
782.3296, 30.94165
782.8117, 37.81421
783.2938, 43.80811
783.7759, 48.72852
784.2581, 53.45361
784.7402, 58.32983
785.2223, 63.53638
785.7044, 68.91089
786.1865, 74.85352
786.6686, 79.84619
787.1508, 81.20288
787.6329, 80.84253
788.1150, 82.03027
788.5971, 85.51587
789.0792, 89.63501
789.5613, 94.37695
790.0435, 98.88403
790.5256, 102.2810
791.0077, 103.4102
791.4898, 106.5127
791.9719, 112.5056
792.4540, 118.8813
792.9362, 123.6963
793.4183, 126.9558
793.9004, 127.4805
794.3825, 125.0476
794.8646, 121.3992
795.3467, 117.9807
795.8289, 114.4629
796.3110, 110.3274
796.7931, 105.2734
797.2752, 100.4355
797.7573, 96.64307
798.2394, 92.93994
798.7216, 88.40991
799.2037, 82.21826
799.6858, 77.91040
800.1679, 75.64185
800.6500, 74.45044
801.1321, 74.27563
801.6143, 74.58789
802.0964, 72.10864
802.5785, 66.29980
803.0606, 59.17163
803.5427, 50.09668
804.0248, 41.97705
804.5070, 38.79175
804.9891, 43.88525
805.4712, 45.79102
805.9533, 39.04468
806.4354, 30.46948
806.9175, 24.80664
807.3997, 22.53979
807.8818, 21.46558
808.3639, 21.83276
808.8460, 22.43286
809.3281, 22.03003
809.8102, 20.89746
810.2924, 19.77979
810.7745, 18.83301
811.2566, 17.43311
811.7387, 14.37744
812.2208, 11.14185
812.7029, 9.061035
813.1851, 8.597900
813.6672, 8.684570
814.1493, 9.951660
814.6314, 10.82617
815.1135, 9.311035
815.5956, 5.195801
816.0778, 4.966553
816.5599, 9.290283
817.0420, 14.02979
817.5241, 15.05322
818.0062, 13.93872
818.4883, 13.48853
818.9705, 14.33057
819.4526, 13.50635
819.9347, 7.382813
820.4168, 0.6962890
820.8989, 2.928223
821.3810, 2.741211
821.8632, 2.445313
822.3453, 2.281006
822.8274, 1.005859
823.3095, 3.767090
823.7916, 10.70264
824.2737, 11.89185
824.7559, 6.926270
825.2380, 2.237305
825.7201, 4.350098
826.2022, 8.541504
826.6843, 10.23779
827.1664, 8.726318
827.6486, 6.392578
828.1307, 1.231689
828.6128, 2.161621
829.0949, 0.7277830
829.5770, 6.013184
830.0591, 9.217285
830.5413, 8.339111
831.0234, 7.143311
831.5055, 9.832520
831.9876, 13.70117
832.4697, 12.51001
832.9518, 6.385010
833.4340, 0.6872560
833.9161, 2.768799
834.3982, 3.688965
834.8803, 0.2829590
835.3624, 7.933350
835.8445, 10.86011
836.3267, 6.085205
836.8088, 0.7221680
837.2909, 1.949707
837.7730, 2.264160
838.2551, 1.997070
838.7372, 1.159424
839.2194, 0.2717290
839.7015, 1.035889
840.1836, 1.767822
840.6657, 6.8359999E-03
841.1478, 3.667480
841.6299, 5.423340
842.1121, 0.8049320
842.5942, 2.263672
843.0763, 9.7660003E-03
843.5584, 6.165283
844.0405, 8.043213
844.5226, 5.210205
845.0048, 1.207275
845.4869, 3.236816
845.9690, 7.156494
846.4511, 8.166260
846.9332, 6.911377
847.4153, 5.545166
847.8975, 5.049072
848.3796, 4.733398
848.8617, 4.152100
849.3438, 3.494141
849.8259, 3.417480
850.3080, 4.277100
850.7902, 4.938965
851.2723, 4.825439
851.7544, 4.810303
852.2365, 8.152100
852.7186, 13.93628
853.2007, 16.36597
853.6829, 11.55054
854.1650, 5.596924
854.6471, 4.173096
855.1292, 5.203857
855.6113, 5.191650
856.0934, 2.362549
856.5756, 0.6198730
857.0577, 4.529053
857.5398, 7.621582
858.0219, 6.775391
858.5040, 1.712158
858.9861, 1.777100
859.4683, 2.315918
859.9504, 2.590088
860.4325, 7.341797
860.9146, 13.72095
861.3967, 16.54712
861.8788, 13.31494
862.3610, 9.808838
862.8431, 7.211182
863.3252, 5.986084
863.8073, 6.799316
864.2894, 11.15967
864.7715, 12.70117
865.2537, 10.78760
865.7358, 7.894775
866.2179, 6.172852
866.7000, 5.477295
867.1821, 5.567139
867.6642, 6.476807
868.1464, 7.337891
868.6285, 7.964355
869.1106, 8.082764
869.5927, 7.386230
870.0748, 5.648193
870.5569, 3.965332
871.0391, 1.909912
871.5212, 0.6687010
872.0033, 1.153809
872.4854, 3.120605
872.9675, 5.000244
873.4496, 6.775146
873.9318, 8.245850
874.4139, 9.129395
874.8960, 9.701904
875.3781, 10.18872
875.8602, 10.57373
876.3423, 10.73511
876.8245, 10.32251
877.3066, 10.13062
877.7887, 10.95630
878.2708, 12.09741
878.7529, 9.665527
879.2350, 3.812744
879.7172, 0.8374020
880.1993, 2.502441
880.6814, 1.537109
881.1635, 2.911621
881.6456, 9.493896
882.1277, 15.08569
882.6099, 20.51343
883.0920, 22.41626
883.5741, 17.05835
884.0562, 8.941650
884.5383, 5.455078
885.0204, 7.500977
885.5026, 8.128906
885.9847, 5.568359
886.4668, 2.630127
886.9489, 4.132813
887.4310, 8.314209
887.9131, 11.59814
888.3953, 12.75171
888.8774, 13.86255
889.3595, 16.96289
889.8416, 19.70117
890.3237, 19.63794
890.8058, 15.23926
891.2880, 12.20435
891.7701, 10.14478
892.2522, 10.05615
892.7343, 14.64209
893.2164, 21.71094
893.6985, 25.04614
894.1807, 24.19312
894.6628, 24.30786
895.1449, 31.13696
895.6270, 37.91382
896.1091, 39.32666
896.5912, 34.58789
897.0734, 32.17212
897.5555, 32.76880
898.0376, 34.00317
898.5197, 34.64575
899.0018, 34.85693
899.4839, 35.67310
899.9661, 37.59009
900.4482, 40.94238
900.9303, 48.74536
901.4124, 54.93335
901.8945, 54.91235
902.3766, 50.71948
902.8588, 48.26465
903.3409, 47.82690
903.8230, 49.48755
904.3051, 54.17798
904.7872, 59.99902
905.2693, 63.11377
905.7515, 63.87134
906.2336, 64.34521
906.7157, 64.78101
907.1978, 65.91675
907.6799, 68.78564
908.1620, 72.50537
908.6442, 76.01392
909.1263, 78.16797
909.6084, 82.04980
910.0905, 89.59644
910.5726, 96.27173
911.0547, 96.63696
911.5369, 91.51562
912.0190, 91.19385
912.5011, 96.43896
912.9832, 102.1409
913.4653, 104.1096
913.9474, 104.5310
914.4296, 105.4585
914.9117, 107.0310
915.3938, 107.3853
915.8759, 105.6375
916.3580, 104.3054
916.8401, 104.3950
917.3223, 105.4653
917.8044, 105.1292
918.2865, 103.3289
918.7686, 100.6592
919.2507, 96.91675
919.7328, 92.70898
920.2150, 89.12231
920.6971, 85.82324
921.1792, 81.88452
921.6613, 76.93408
922.1434, 71.42749
922.6255, 64.85400
923.1077, 58.31030
923.5898, 53.73608
924.0719, 51.10376
924.5540, 49.30566
925.0361, 48.31445
925.5182, 47.27173
926.0004, 45.33813
926.4825, 42.79419
926.9646, 39.78882
927.4467, 35.78345
927.9288, 32.90015
928.4109, 31.74341
928.8931, 31.11426
929.3752, 30.37109
929.8573, 29.59595
930.3394, 30.30542
930.8215, 32.46899
931.3036, 32.73706
931.7858, 26.56274
932.2679, 18.90698
932.7500, 14.13403
933.2321, 12.42480
933.7142, 12.51196
934.1964, 16.74194
934.6785, 19.28027
935.1606, 18.07300
935.6427, 14.51221
936.1248, 12.36719
936.6069, 11.61255
937.0891, 12.49536
937.5712, 16.00757
938.0533, 18.96582
938.5354, 17.67920
939.0175, 14.30322
939.4996, 11.75220
939.9818, 10.05420
940.4639, 10.00781
940.9460, 12.19897
941.4281, 15.22119
941.9102, 18.21777
942.3923, 20.94409
942.8745, 20.52466
943.3566, 16.66748
943.8387, 12.55396
944.3208, 9.425781
944.8029, 8.230957
945.2850, 11.07178
945.7672, 18.25488
946.2493, 21.73535
946.7314, 18.80322
947.2135, 16.22632
947.6956, 16.91650
948.1777, 19.79932
948.6599, 21.07959
949.1420, 20.92310
949.6241, 20.21997
950.1062, 19.44678
950.5883, 18.20068
951.0704, 14.82642
951.5526, 11.09253
952.0347, 10.69141
952.5168, 16.46411
952.9989, 20.17822
953.4810, 20.85254
953.9631, 20.06421
954.4453, 19.34473
954.9274, 18.79761
955.4095, 18.97559
955.8916, 20.00928
956.3737, 20.79272
956.8558, 19.10547
957.3380, 18.01294
957.8201, 21.14453
958.3022, 29.11206
958.7843, 30.95386
959.2664, 24.73218
959.7485, 18.40918
960.2307, 16.11572
960.7128, 16.24951
961.1949, 15.03638
961.6770, 12.95923
962.1591, 11.72559
962.6412, 14.03760
963.1234, 15.23657
963.6055, 11.96069
964.0876, 6.996094
964.5697, 5.240723
965.0518, 7.698730
965.5339, 8.878418
966.0161, 8.001709
966.4982, 6.264160
966.9803, 4.145508
967.4624, 2.482422
967.9445, 3.222168
968.4266, 7.030273
968.9088, 9.838379
969.3909, 9.711914
969.8730, 8.460449
970.3551, 6.757568
970.8372, 4.650635
971.3193, 2.817627
971.8015, 1.193359
972.2836, 1.292969
972.7657, 6.482422
973.2478, 11.61792
973.7299, 9.338379
974.2120, 2.196777
974.6942, 3.465088
975.1763, 5.472168
975.6584, 6.100342
976.1405, 5.665283
976.6226, 4.032471
977.1047, 0.3461910
977.5869, 5.135986
978.0690, 9.009521
978.5511, 10.68799
979.0332, 11.61157
979.5153, 11.91455
979.9974, 12.78955
980.4796, 16.33716
980.9617, 23.51880
981.4438, 25.81055
981.9259, 20.74976
982.4080, 15.63818
982.8901, 14.00659
983.3723, 14.66968
983.8544, 14.51660
984.3365, 13.43262
984.8186, 10.95410
985.3007, 3.201416
985.7828, 1.999512
986.2650, 1.195801
986.7471, 8.597412
987.2292, 13.07935
987.7113, 14.00928
988.1934, 13.85327
988.6755, 12.55737
989.1577, 11.10522
989.6398, 10.99878
990.1219, 11.32837
990.6040, 9.944824
991.0861, 6.578125
991.5682, 4.947510
992.0504, 8.799316
992.5325, 12.44727
993.0146, 13.54419
993.4967, 12.35669
993.9788, 9.779053
994.4609, 5.854980
994.9431, 2.842041
995.4252, 2.214844
995.9073, 2.161377
996.3894, 0.1318360
996.8715, 2.511475
997.3536, 3.589844
997.8358, 2.156494
998.3179, 0.6335450
998.8000, 5.676270
999.2821, 10.52612
999.7642, 11.94263
1000.246, 10.86572
1000.728, 13.36646
1001.211, 19.54712
1001.693, 24.12915
1002.175, 21.38696
1002.657, 17.88916
1003.139, 18.84180
1003.621, 23.38623
1004.103, 24.15234
1004.585, 20.05640
1005.068, 16.18774
1005.550, 13.85718
1006.032, 12.82666
1006.514, 14.75342
1006.996, 17.64453
1007.478, 16.31348
1007.960, 6.636719
1008.442, 0.3901370
1008.924, 0.4907230
1009.407, 2.558105
1009.889, 7.333496
1010.371, 13.97803
1010.853, 17.12915
1011.335, 16.84717
1011.817, 15.84375
1012.299, 15.54712
1012.781, 15.45654
1013.263, 15.59814
1013.746, 15.89600
1014.228, 15.55688
1014.710, 13.67358
1015.192, 12.80737
1015.674, 13.89624
1016.156, 15.29419
1016.638, 14.11475
1017.120, 11.18994
1017.603, 8.730957
1018.085, 6.963379
1018.567, 6.924072
1019.049, 11.75269
1019.531, 16.34741
1020.013, 16.50049
1020.495, 12.39282
1020.977, 10.98853
1021.459, 12.68335
1021.942, 13.58179
1022.424, 10.83325
1022.906, 7.531738
1023.388, 8.736328
1023.870, 12.44092
1024.352, 14.70386
1024.834, 13.10034
1025.316, 11.76074
1025.799, 11.14380
1026.281, 10.86304
1026.763, 9.991943
1027.245, 8.941895
1027.727, 11.59302
1028.209, 17.92798
1028.691, 21.92261
1029.173, 15.17944
1029.656, 8.537354
1030.138, 11.20093
1030.620, 21.08716
1031.102, 25.20752
1031.584, 22.04565
1032.066, 19.41919
1032.548, 19.25317
1033.030, 19.84839
1033.512, 17.21655
1033.995, 14.15967
1034.477, 16.77539
1034.959, 29.43018
1035.441, 36.19336
1035.923, 27.61304
1036.405, 18.60254
1036.887, 17.68530
1037.369, 23.76807
1037.851, 27.43970
1038.334, 28.71997
1038.816, 28.17554
1039.298, 24.02124
1039.780, 20.30273
1040.262, 20.41724
1040.744, 22.74146
1041.226, 23.94482
1041.708, 23.55127
1042.191, 23.14648
1042.673, 22.85425
1043.155, 22.56274
1043.637, 22.23193
1044.119, 21.81714
1044.601, 20.07983
1045.083, 17.11279
1045.565, 16.56909
1046.047, 23.90283
1046.530, 28.67798
1047.012, 26.50854
1047.494, 20.24097
1047.976, 18.47095
1048.458, 20.43140
1048.940, 19.49097
1049.422, 12.35864
1049.904, 6.665771
1050.386, 11.47314
1050.869, 18.55005
1051.351, 18.48706
1051.833, 9.032227
1052.315, 4.322021
1052.797, 4.942871
1053.279, 7.619141
1053.761, 11.43945
1054.243, 15.40894
1054.726, 18.78979
1055.208, 20.84082
1055.690, 19.64697
1056.172, 8.001709
1056.654, 2.334961
1057.136, 7.184326
1057.618, 15.43506
1058.100, 19.22998
1058.583, 19.02539
1059.065, 17.01465
1059.547, 13.43701
1060.029, 10.68066
1060.511, 12.39990
1060.993, 13.67896
1061.475, 10.62915
1061.957, 4.405518
1062.439, 0.4858400
1062.922, 4.421387
1063.404, 3.974854
1063.886, 2.931885
1064.368, 10.80298
1064.850, 13.26978
1065.332, 12.30444
1065.814, 10.28564
1066.296, 7.324219
1066.778, 4.713135
1067.261, 3.030273
1067.743, 0.8493650
1068.225, 3.365479
1068.707, 8.235352
1069.189, 8.839111
1069.671, 5.901855
1070.153, 1.882080
1070.635, 4.576416
1071.118, 8.579346
1071.600, 5.020996
1072.082, 4.1260000E-02
1072.564, 0.6579590
1073.046, 7.670898
1073.528, 9.194824
1074.010, 4.674316
1074.492, 0.2287600
1074.974, 1.598389
1075.457, 4.250488
1075.939, 3.905273
1076.421, 1.245605
1076.903, 0.3161620
1077.385, 0.4428710
1077.867, 8.9354999E-02
1078.349, 1.148682
1078.831, 2.840820
1079.313, 6.008057
1079.796, 9.658203
1080.278, 12.19116
1080.760, 13.42480
1081.242, 13.16504
1081.724, 9.523926
1082.206, 6.457764
1082.688, 5.451660
1083.170, 5.996338
1083.652, 6.389404
1084.135, 6.835205
1084.617, 8.704102
1085.099, 13.62256
1085.581, 17.04321
1086.063, 15.73169
1086.545, 11.90527
1087.027, 6.874268
1087.509, 0.1628420
1087.992, 0.7978520
1088.474, 4.393799
1088.956, 9.628418
1089.438, 10.94824
1089.920, 10.65283
1090.402, 11.00220
1090.884, 11.58911
1091.366, 11.49316
1091.849, 9.314453
1092.331, 8.948730
1092.813, 11.00098
1093.295, 13.50049
1093.777, 13.73584
1094.259, 13.22632
1094.741, 16.14453
1095.223, 21.98901
1095.705, 25.81763
1096.188, 23.86694
1096.670, 21.78125
1097.152, 20.80981
1097.634, 20.80396
1098.116, 22.50439
1098.598, 25.22583
1099.080, 23.80127
1099.562, 16.87598
1100.044, 12.32251
1100.527, 18.36499
1101.009, 25.86841
1101.491, 28.74146
1101.973, 27.60596
1102.455, 25.87476
1102.937, 23.46997
1103.419, 21.89600
1103.901, 21.83301
1104.384, 22.26318
1104.866, 22.17456
1105.348, 21.91772
1105.830, 21.91699
1106.312, 22.23877
1106.794, 22.66187
1107.276, 23.20898
1107.758, 23.69238
1108.240, 23.98071
1108.723, 24.15894
1109.205, 24.61328
1109.687, 25.08960
1110.169, 25.00049
1110.651, 23.44775
1111.133, 22.46265
1111.615, 22.37012
1112.097, 22.63477
1112.579, 22.63281
1113.062, 22.60791
1113.544, 24.44092
1114.026, 27.58716
1114.508, 28.11768
1114.990, 18.73584
1115.472, 12.92847
1115.954, 18.90869
1116.436, 28.66309
1116.919, 29.18555
1117.401, 21.19312
1117.883, 16.32739
1118.365, 15.89990
1118.847, 17.56396
1119.329, 22.10327
1119.811, 25.75806
1120.293, 24.82520
1120.776, 20.35303
1121.258, 17.49756
1121.740, 16.48755
1122.222, 17.65137
1122.704, 21.81104
1123.186, 25.90479
1123.668, 26.15723
1124.150, 24.29492
1124.632, 21.61719
1125.115, 18.09277
1125.597, 17.18481
1126.079, 19.83203
1126.561, 21.13721
1127.043, 19.39648
1127.525, 16.07690
1128.007, 11.83643
1128.489, 7.919189
1128.971, 6.693359
1129.454, 9.676514
1129.936, 12.89575
1130.418, 15.91772
1130.900, 19.24634
1131.382, 24.27612
1131.864, 29.35840
1132.346, 28.95508
1132.828, 24.63403
1133.311, 20.64575
1133.793, 17.37769
1134.275, 16.51978
1134.757, 19.86450
1135.239, 24.15894
1135.721, 26.97607
1136.203, 28.29468
1136.685, 27.56372
1137.167, 25.07715
1137.650, 23.44312
1138.132, 24.91333
1138.614, 26.75757
1139.096, 28.71069
1139.578, 29.74805
1140.060, 27.54395
1140.542, 22.01709
1141.024, 19.97485
1141.506, 22.02515
1141.989, 24.13818
1142.471, 22.91772
1142.953, 21.04199
1143.435, 20.63745
1143.917, 21.14648
1144.399, 20.10181
1144.881, 17.05908
1145.363, 16.35571
1145.846, 19.05347
1146.328, 21.97754
1146.810, 22.36206
1147.292, 20.82080
1147.774, 16.37891
1148.256, 9.455811
1148.738, 8.468018
1149.220, 15.37573
1149.703, 20.79883
1150.185, 21.95972
1150.667, 21.18823
1151.149, 21.27197
1151.631, 21.49121
1152.113, 20.52246
1152.595, 17.80981
1153.077, 16.65356
1153.559, 17.26318
1154.042, 19.47168
1154.524, 24.44189
1155.006, 29.12573
1155.488, 26.88379
1155.970, 20.40430
1156.452, 14.78296
1156.934, 10.97876
1157.416, 9.124512
1157.898, 10.24316
1158.381, 11.00391
1158.863, 9.020752
1159.345, 5.696777
1159.827, 5.145508
1160.309, 6.667236
1160.791, 8.453369
1161.273, 11.21753
1161.755, 11.61206
1162.238, 7.215820
1162.720, 2.899170
1163.202, 2.574219
1163.684, 5.488770
1164.166, 8.261475
1164.648, 10.64038
1165.130, 11.38550
1165.612, 8.486816
1166.094, 5.559082
1166.577, 2.222168
1167.059, 0.5625000
1167.541, 4.589355
1168.023, 13.25000
1168.505, 16.48169
1168.987, 14.38062
1169.469, 11.92603
1169.951, 11.33643
1170.433, 11.75342
1170.916, 13.99707
1171.398, 16.25610
1171.880, 15.62134
1172.362, 12.33569
1172.844, 11.23340
1173.326, 12.65796
1173.808, 14.13794
1174.290, 15.33618
1174.773, 14.74634
1175.255, 9.861572
1175.737, 3.198242
1176.219, 0.5039060
1176.701, 1.242920
1177.183, 1.181396
1177.665, 0.6066890
1178.147, 1.086914
1178.630, 7.612061
1179.112, 12.43091
1179.594, 8.390625
1180.076, 1.071289
1180.558, 4.467041
1181.040, 1.521240
1181.522, 1.610107
1182.004, 3.906738
1182.486, 4.986572
1182.969, 1.897705
1183.451, 0.4477540
1183.933, 4.019043
1184.415, 13.77856
1184.897, 17.27222
1185.379, 13.74512
1185.861, 10.61987
1186.343, 9.677979
1186.825, 10.02417
1187.308, 12.58691
1187.790, 14.77563
1188.272, 13.70752
1188.754, 9.384033
1189.236, 4.680908
1189.718, 0.5834960
1190.200, 3.761475
1190.682, 3.872314
1191.165, 1.843018
1191.647, 3.958496
1192.129, 9.692871
1192.611, 10.34399
1193.093, 5.072021
1193.575, 2.435303
1194.057, 2.628662
1194.539, 3.939209
1195.021, 6.175049
1195.504, 8.136719
1195.986, 6.779297
1196.468, 5.190674
1196.950, 8.577637
1197.432, 19.02832
1197.914, 21.43848
1198.396, 14.46704
1198.878, 8.490479
1199.360, 9.514404
1199.843, 12.39795
1200.325, 9.749023
1200.807, 5.618652
1201.289, 6.781738
1201.771, 16.43604
1202.253, 18.83398
1202.735, 12.87134
1203.217, 7.022949
1203.700, 6.165039
1204.182, 7.794922
1204.664, 10.62231
1205.146, 13.36182
1205.628, 13.49023
1206.110, 9.005859
1206.592, 8.561523
1207.074, 12.77734
1207.557, 16.84692
1208.039, 17.21680
1208.521, 16.24536
1209.003, 16.40503
1209.485, 17.13647
1209.967, 17.43066
1210.449, 17.16943
1210.931, 16.23584
1211.413, 14.37402
1211.896, 13.46851
1212.378, 15.05005
1212.860, 18.07129
1213.342, 23.33862
1213.824, 28.72974
1214.306, 29.23657
1214.788, 22.63892
1215.270, 18.77466
1215.752, 18.18799
1216.235, 17.71533
1216.717, 14.63184
1217.199, 10.64526
1217.681, 6.499023
1218.163, 3.403564
1218.645, 4.669678
1219.127, 11.90039
1219.609, 15.70215
1220.092, 14.76416
1220.574, 13.41455
1221.056, 16.40210
1221.538, 19.51440
1222.020, 19.00317
1222.502, 15.50244
1222.984, 10.13037
1223.466, 1.265137
1223.948, 1.033691
1224.431, 5.963867
1224.913, 12.26685
1225.395, 6.623291
1225.877, 0.1208500
1226.359, 2.317383
1226.841, 10.33008
1227.323, 14.38086
1227.805, 13.97998
1228.287, 11.77612
1228.770, 7.759766
1229.252, 6.201660
1229.734, 14.14038
1230.216, 22.26196
1230.698, 23.61548
1231.180, 19.79565
1231.662, 14.33643
1232.144, 6.771973
1232.627, 4.135742
1233.109, 7.113525
1233.591, 10.79346
1234.073, 12.24121
1234.555, 12.41650
1235.037, 11.29346
1235.519, 9.627930
1236.001, 8.668701
1236.484, 8.439697
1236.966, 8.999756
1237.448, 10.36572
1237.930, 11.20068
1238.412, 9.938965
1238.894, 8.764160
1239.376, 9.958740
1239.858, 11.46948
1240.340, 9.039307
1240.823, 2.982910
1241.305, 0.9516600
1241.787, 2.991699
1242.269, 1.943604
1242.751, 6.236816
1243.233, 12.49219
1243.715, 11.45752
1244.197, 7.627441
1244.679, 8.195557
1245.162, 12.24341
1245.644, 15.45972
1246.126, 17.38159
1246.608, 17.25952
1247.090, 11.05103
1247.572, 7.690430
1248.054, 11.13037
1248.536, 16.83862
1249.019, 17.11328
1249.501, 10.59814
1249.983, 7.807861
1250.465, 9.487549
1250.947, 12.67603
1251.429, 20.92212
1251.911, 24.25635
1252.393, 18.83057
1252.875, 10.98901
1253.358, 10.79541
1253.840, 14.87134
1254.322, 13.95435
1254.804, 7.990479
1255.286, 3.047852
1255.768, 0.7958980
1256.250, 4.9805000E-02
1256.732, 0.0000000E+00
##END=



