##NAMES=Diegogattaite
##RRUFFID=R120156
##IDEAL CHEMISTRY=Na_2_CaCu_2_Si_8_O_20_&#183;H_2_O
##LOCALITY=Wessels mine, Kalahari Manganese Field, Northern Cape Province, South Africa
##OWNER=RRUFF
##SOURCE=Marcus Origlieri
##DESCRIPTION=Lighter greenish blue massive, associated with darker blue wesselsite and quartz
##STATUS=The identification of this mineral is confirmed by single-crystal X-ray diffraction and chemical analysis.
##URL=rruff.info/R120156
##MEASURED CHEMISTRY=(Na_1.98_Mg_0.01_)_Σ=1.99_(Ca_0.98_Cu_0.02_)_Σ=1.00_Cu_2.00_Si_8_O_20.00_·H_2_O; The mineral is medium gray, associated with wesselsite (white) and quartz (dark gray); Normalized to 8 Si atoms; water assumed from crystal structure solution
102.8004, 0.0000000E+00
103.2825, 0.7098240
103.7646, 1.672043
104.2467, 1.691589
104.7288, 0.9707340
105.2109, 0.5077670
105.6931, 0.1397090
106.1752, 9.4025001E-02
106.6573, 1.010452
107.1394, 3.733536
107.6215, 6.383682
108.1036, 8.725403
108.5858, 10.87149
109.0679, 13.69185
109.5500, 16.77670
110.0321, 20.66605
110.5142, 25.61697
110.9963, 31.84164
111.4785, 38.87656
111.9606, 46.91263
112.4427, 55.96985
112.9248, 66.11230
113.4069, 76.99094
113.8890, 88.50061
114.3712, 100.8130
114.8533, 113.5027
115.3354, 127.3740
115.8175, 142.1999
116.2996, 158.0375
116.7817, 176.4769
117.2639, 199.0783
117.7460, 224.4833
118.2281, 250.9709
118.7102, 283.9692
119.1923, 313.7943
119.6744, 335.6422
120.1566, 350.6116
120.6387, 357.7956
121.1208, 348.1452
121.6029, 327.5146
122.0850, 309.3414
122.5671, 298.0351
123.0493, 292.3589
123.5314, 291.3240
124.0135, 296.0361
124.4956, 304.8605
124.9777, 318.9063
125.4598, 336.6936
125.9420, 351.5840
126.4241, 360.6714
126.9062, 363.7286
127.3883, 359.5381
127.8704, 345.5530
128.3525, 327.2461
128.8347, 312.3122
129.3168, 300.5953
129.7989, 290.3166
130.2810, 282.9577
130.7631, 276.7128
131.2452, 263.6141
131.7274, 240.2635
132.2095, 209.4516
132.6916, 177.0006
133.1737, 142.1482
133.6558, 109.4875
134.1379, 82.55636
134.6201, 61.32293
135.1022, 43.87120
135.5843, 30.31917
136.0664, 20.33076
136.5485, 12.01300
137.0306, 5.363861
137.5128, 0.3335800
137.9949, 3.102867
138.4770, 4.759071
138.9591, 5.752975
139.4412, 6.311569
139.9233, 6.391251
140.4055, 6.663353
140.8876, 7.297226
141.3697, 7.955254
141.8518, 8.137779
142.3339, 7.908951
142.8160, 7.074860
143.2982, 5.477570
143.7803, 2.919098
144.2624, 0.3034360
144.7445, 2.178993
145.2266, 4.788887
145.7087, 8.023026
146.1909, 12.35377
146.6730, 16.77758
147.1551, 20.94984
147.6372, 24.65770
148.1193, 28.40741
148.6014, 32.25613
149.0836, 36.14716
149.5657, 40.05859
150.0478, 43.77162
150.5299, 47.58239
151.0120, 51.65239
151.4941, 55.34877
151.9763, 59.98546
152.4584, 65.88481
152.9405, 72.87774
153.4226, 80.18940
153.9047, 87.70026
154.3868, 95.55399
154.8690, 103.8277
155.3511, 113.1125
155.8332, 122.1907
156.3153, 130.8677
156.7974, 139.1428
157.2795, 147.0341
157.7617, 155.2489
158.2438, 162.7215
158.7259, 168.6808
159.2080, 172.0739
159.6901, 174.7744
160.1722, 176.9273
160.6544, 178.8597
161.1365, 181.3899
161.6186, 185.6988
162.1007, 190.4058
162.5828, 194.3391
163.0649, 198.7493
163.5471, 200.8884
164.0292, 199.6028
164.5113, 194.8441
164.9934, 186.9805
165.4755, 175.1909
165.9576, 160.5880
166.4398, 144.7397
166.9219, 126.2002
167.4040, 107.8265
167.8861, 91.49475
168.3682, 77.21490
168.8503, 64.81162
169.3325, 54.31361
169.8146, 45.56769
170.2967, 38.46272
170.7788, 33.18066
171.2609, 29.27310
171.7430, 26.50636
172.2252, 24.87909
172.7073, 24.05717
173.1894, 23.82019
173.6715, 24.19658
174.1536, 25.23093
174.6357, 26.99319
175.1179, 29.40800
175.6000, 32.40736
176.0821, 35.96182
176.5642, 40.07137
177.0463, 44.84122
177.5284, 50.20638
178.0106, 55.87572
178.4927, 62.31859
178.9748, 68.84685
179.4569, 74.31509
179.9390, 78.76514
180.4211, 81.79966
180.9033, 82.47015
181.3854, 81.13731
181.8675, 79.47852
182.3496, 77.74605
182.8317, 76.42358
183.3138, 76.55727
183.7960, 78.25013
184.2781, 81.43851
184.7602, 85.93468
185.2423, 91.80265
185.7244, 99.18008
186.2065, 108.2174
186.6887, 118.8892
187.1708, 131.1946
187.6529, 145.0494
188.1350, 160.6357
188.6171, 178.1641
189.0992, 197.7638
189.5814, 218.4988
190.0635, 241.1708
190.5456, 265.3777
191.0277, 286.7401
191.5098, 305.6963
191.9919, 320.4666
192.4741, 326.0497
192.9562, 322.2251
193.4383, 314.1812
193.9204, 303.4476
194.4025, 290.2984
194.8846, 280.1827
195.3668, 274.0602
195.8489, 270.7605
196.3310, 268.1503
196.8131, 266.4177
197.2952, 264.3273
197.7773, 260.5158
198.2595, 254.9021
198.7416, 250.3340
199.2237, 246.6765
199.7058, 244.7061
200.1879, 246.7365
200.6700, 253.1440
201.1522, 262.4186
201.6343, 273.7322
202.1164, 287.0866
202.5985, 302.5242
203.0806, 320.5333
203.5627, 340.0747
204.0449, 357.5810
204.5270, 372.6722
205.0091, 386.9597
205.4912, 401.6657
205.9733, 417.0236
206.4554, 431.6519
206.9376, 446.2853
207.4197, 459.7802
207.9018, 468.7767
208.3839, 473.8126
208.8660, 472.9559
209.3481, 464.4425
209.8303, 447.4395
210.3124, 426.2687
210.7945, 400.5053
211.2766, 371.1486
211.7587, 340.7566
212.2408, 308.3821
212.7230, 277.1645
213.2051, 248.6088
213.6872, 222.6130
214.1693, 199.2452
214.6514, 178.7978
215.1335, 160.9796
215.6157, 145.5366
216.0978, 132.4820
216.5799, 121.5742
217.0620, 112.6240
217.5441, 105.8056
218.0262, 100.4984
218.5084, 96.88902
218.9905, 94.75212
219.4726, 93.04143
219.9547, 91.82907
220.4368, 90.76730
220.9189, 89.87985
221.4011, 89.77646
221.8832, 88.25749
222.3653, 84.98888
222.8474, 80.20020
223.3295, 74.44893
223.8116, 67.32095
224.2938, 60.09180
224.7759, 53.38205
225.2580, 46.87988
225.7401, 41.80737
226.2222, 38.40353
226.7043, 36.48289
227.1865, 35.13216
227.6686, 34.24266
228.1507, 34.11743
228.6328, 34.99248
229.1149, 37.11818
229.5970, 39.65962
230.0792, 42.63773
230.5613, 45.99908
231.0434, 49.43726
231.5255, 52.89238
232.0076, 56.45218
232.4897, 60.14975
232.9719, 64.09982
233.4540, 67.90680
233.9361, 71.47040
234.4182, 74.90923
234.9003, 78.69926
235.3824, 82.97578
235.8646, 87.41260
236.3467, 91.73248
236.8288, 95.33954
237.3109, 100.1711
237.7930, 106.4422
238.2751, 113.9611
238.7573, 121.8847
239.2394, 129.7829
239.7215, 138.7198
240.2036, 149.2401
240.6857, 161.5185
241.1678, 174.9814
241.6500, 189.6601
242.1321, 205.4330
242.6142, 222.4166
243.0963, 241.0576
243.5784, 260.1497
244.0605, 279.2876
244.5427, 299.5328
245.0248, 317.6254
245.5069, 334.7360
245.9890, 349.2744
246.4711, 357.7786
246.9532, 360.7253
247.4354, 357.0060
247.9175, 345.5941
248.3996, 324.5436
248.8817, 301.8853
249.3638, 277.0808
249.8459, 250.9842
250.3281, 225.0032
250.8102, 198.5493
251.2923, 173.1406
251.7744, 148.8411
252.2565, 125.6320
252.7386, 104.5190
253.2208, 85.43802
253.7029, 68.51611
254.1850, 53.66899
254.6671, 41.04344
255.1492, 30.15623
255.6313, 20.97551
256.1135, 13.55998
256.5956, 7.659790
257.0777, 3.614105
257.5598, 0.8196110
258.0419, 1.502136
258.5240, 3.441864
259.0062, 4.658691
259.4883, 5.040489
259.9704, 4.572174
260.4525, 3.414703
260.9346, 1.428223
261.4167, 1.054581
261.8989, 3.709290
262.3810, 6.583420
262.8631, 9.476547
263.3452, 12.60361
263.8273, 16.08934
264.3094, 18.88530
264.7916, 21.05168
265.2737, 22.29720
265.7558, 22.31934
266.2379, 20.97318
266.7200, 18.76419
267.2021, 15.43452
267.6843, 11.12481
268.1664, 7.185020
268.6485, 3.540276
269.1306, 0.3802640
269.6127, 2.110085
270.0948, 3.941711
270.5770, 5.073387
271.0591, 5.380287
271.5412, 4.947838
272.0233, 4.298553
272.5054, 3.347763
272.9875, 2.397903
273.4697, 1.659790
273.9518, 1.140167
274.4339, 0.7481080
274.9160, 0.4567030
275.3981, 0.2941440
275.8802, 0.4383540
276.3624, 0.9878390
276.8445, 1.440720
277.3266, 1.442314
277.8087, 0.9638820
278.2908, 0.5004810
278.7729, 0.1997680
279.2551, 0.1920780
279.7372, 1.282761
280.2193, 3.136261
280.7014, 5.319839
281.1835, 7.419678
281.6656, 9.451981
282.1478, 12.55704
282.6299, 16.86015
283.1120, 22.09111
283.5941, 27.79671
284.0762, 33.99557
284.5583, 40.85205
285.0405, 48.73090
285.5226, 57.51955
286.0047, 66.35535
286.4868, 75.38148
286.9689, 83.95893
287.4510, 91.87772
287.9332, 99.04349
288.4153, 103.5911
288.8974, 104.9065
289.3795, 103.0035
289.8616, 97.20278
290.3438, 87.23447
290.8259, 75.22720
291.3080, 62.40345
291.7901, 49.19400
292.2722, 37.41673
292.7543, 27.75325
293.2365, 19.99172
293.7186, 13.87566
294.2007, 9.463249
294.6828, 6.361000
295.1649, 4.331902
295.6470, 3.376038
296.1292, 3.481804
296.6113, 4.854614
297.0934, 7.061226
297.5755, 9.581764
298.0576, 12.41071
298.5397, 15.34116
299.0219, 18.15868
299.5040, 21.01071
299.9861, 24.23141
300.4682, 28.01600
300.9503, 31.91455
301.4324, 35.57276
301.9146, 38.93965
302.3967, 41.95117
302.8788, 44.54883
303.3609, 46.74742
303.8430, 48.44736
304.3251, 49.55354
304.8073, 50.47321
305.2894, 51.56302
305.7715, 52.75880
306.2536, 53.93562
306.7357, 54.66673
307.2178, 55.52155
307.7000, 56.89164
308.1821, 58.75369
308.6642, 61.65486
309.1463, 66.45518
309.6284, 72.46221
310.1105, 78.67812
310.5927, 84.76624
311.0748, 90.76059
311.5569, 96.88736
312.0390, 103.1368
312.5211, 108.9455
313.0032, 115.2727
313.4854, 120.6057
313.9675, 123.2460
314.4496, 123.1022
314.9317, 119.7478
315.4138, 112.1431
315.8959, 100.7070
316.3781, 87.92358
316.8602, 73.49784
317.3423, 59.09784
317.8244, 45.93526
318.3065, 34.00707
318.7886, 23.79012
319.2708, 15.82721
319.7529, 9.772270
320.2350, 4.687492
320.7171, 0.4552150
321.1992, 2.936623
321.6813, 5.399094
322.1635, 6.618507
322.6456, 7.611839
323.1277, 8.726433
323.6098, 9.713699
324.0919, 10.15868
324.5740, 9.750534
325.0562, 9.009956
325.5383, 8.070595
326.0204, 6.931236
326.5025, 5.624329
326.9846, 4.198776
327.4667, 2.693680
327.9489, 1.039841
328.4310, 1.037010
328.9131, 3.114983
329.3952, 5.008797
329.8773, 6.710808
330.3594, 9.254105
330.8416, 13.01331
331.3237, 17.25013
331.8058, 21.45595
332.2879, 25.71845
332.7700, 29.81749
333.2521, 33.98222
333.7343, 38.02164
334.2164, 41.12041
334.6985, 43.37622
335.1806, 44.52367
335.6627, 44.27954
336.1448, 42.21776
336.6270, 40.00306
337.1091, 37.55121
337.5912, 35.09822
338.0733, 32.99899
338.5554, 31.21392
339.0375, 29.97581
339.5197, 29.44058
340.0018, 29.63583
340.4839, 30.08587
340.9660, 30.74278
341.4481, 31.73905
341.9302, 33.39610
342.4124, 35.79054
342.8945, 37.99706
343.3766, 39.84085
343.8587, 41.27931
344.3408, 42.11887
344.8229, 42.30940
345.3051, 42.20152
345.7872, 41.91553
346.2693, 41.52394
346.7514, 41.50272
347.2335, 41.93350
347.7156, 42.80867
348.1978, 44.15474
348.6799, 45.96100
349.1620, 48.07823
349.6441, 50.24010
350.1262, 52.65044
350.6083, 55.79819
351.0905, 59.80775
351.5726, 64.44231
352.0547, 69.47392
352.5368, 74.92123
353.0189, 80.84072
353.5010, 87.35513
353.9832, 94.31288
354.4653, 101.5767
354.9474, 109.2105
355.4295, 116.9554
355.9116, 124.9334
356.3937, 132.8772
356.8759, 140.2768
357.3580, 147.2245
357.8401, 153.4241
358.3222, 158.7201
358.8043, 163.1437
359.2864, 166.5794
359.7686, 169.3285
360.2507, 170.8895
360.7328, 170.7318
361.2149, 168.1947
361.6970, 164.8683
362.1791, 160.7906
362.6613, 156.3649
363.1434, 152.5218
363.6255, 149.2242
364.1076, 146.8367
364.5897, 145.5188
365.0718, 145.3436
365.5540, 146.1512
366.0361, 148.1651
366.5182, 151.0655
367.0003, 154.4698
367.4824, 158.3547
367.9645, 162.9682
368.4467, 168.2615
368.9288, 174.0952
369.4109, 181.0602
369.8930, 189.4314
370.3751, 198.7560
370.8572, 208.7614
371.3394, 219.3183
371.8215, 230.5301
372.3036, 242.2808
372.7857, 254.6944
373.2678, 268.3659
373.7499, 283.6946
374.2321, 299.6933
374.7142, 315.9612
375.1963, 332.8531
375.6784, 348.8896
376.1605, 364.0388
376.6426, 378.2078
377.1248, 391.1947
377.6069, 403.4520
378.0890, 412.8547
378.5711, 418.7742
379.0532, 421.1060
379.5353, 418.9224
380.0175, 412.1378
380.4996, 401.6448
380.9817, 387.8273
381.4638, 370.8944
381.9459, 351.5516
382.4280, 329.4907
382.9102, 306.0757
383.3923, 283.7855
383.8744, 262.5214
384.3565, 243.0363
384.8386, 225.9919
385.3207, 211.0782
385.8029, 198.2077
386.2850, 187.2561
386.7671, 178.3871
387.2492, 171.7642
387.7313, 167.2415
388.2134, 164.6653
388.6956, 164.1573
389.1777, 165.4438
389.6598, 168.5319
390.1419, 173.3743
390.6240, 179.2819
391.1061, 186.0404
391.5883, 193.6240
392.0704, 202.0469
392.5525, 211.5179
393.0346, 221.5308
393.5167, 232.1311
393.9988, 243.2326
394.4810, 254.7041
394.9631, 266.7615
395.4452, 278.9797
395.9273, 291.0394
396.4094, 302.6456
396.8915, 314.9302
397.3737, 327.8225
397.8558, 341.5935
398.3379, 356.5762
398.8200, 372.6344
399.3021, 390.0854
399.7842, 409.0647
400.2664, 429.5527
400.7485, 451.2591
401.2306, 474.3618
401.7127, 498.2182
402.1948, 522.4820
402.6769, 547.6497
403.1591, 572.2818
403.6412, 597.1752
404.1233, 621.0190
404.6054, 641.6162
405.0875, 659.2778
405.5696, 672.2362
406.0518, 679.9865
406.5339, 682.5610
407.0160, 679.2150
407.4981, 670.1743
407.9802, 654.7817
408.4623, 631.6615
408.9445, 600.7502
409.4266, 564.8489
409.9087, 523.5816
410.3908, 478.8287
410.8729, 434.3314
411.3550, 389.9740
411.8372, 348.0397
412.3193, 309.2791
412.8014, 273.8054
413.2835, 241.5733
413.7656, 212.3703
414.2477, 186.2570
414.7299, 164.1453
415.2120, 145.3196
415.6941, 128.6817
416.1762, 114.0816
416.6583, 100.9526
417.1404, 88.73667
417.6226, 77.33102
418.1047, 67.23882
418.5868, 59.08871
419.0689, 52.13406
419.5510, 45.54636
420.0331, 39.21521
420.5153, 33.15694
420.9974, 27.26992
421.4795, 21.69450
421.9616, 17.03075
422.4437, 14.10602
422.9258, 11.48988
423.4080, 8.542557
423.8901, 4.997467
424.3722, 1.840591
424.8543, 0.8793490
425.3364, 3.159706
425.8185, 4.964638
426.3007, 5.988235
426.7828, 7.013138
427.2649, 8.204636
427.7470, 9.505241
428.2291, 10.56580
428.7112, 11.34895
429.1934, 11.94754
429.6755, 12.45470
430.1576, 12.91613
430.6397, 13.03323
431.1218, 12.76934
431.6039, 12.21137
432.0861, 11.46098
432.5682, 10.51275
433.0503, 9.418907
433.5324, 8.141647
434.0145, 6.732841
434.4966, 5.482712
434.9788, 4.403328
435.4609, 3.063698
435.9430, 0.8927150
436.4251, 1.857391
436.9072, 4.413376
437.3893, 6.562355
437.8715, 8.724541
438.3536, 11.28761
438.8357, 14.24161
439.3178, 17.55721
439.7999, 21.37246
440.2820, 25.46215
440.7642, 29.42503
441.2463, 33.27253
441.7284, 37.67043
442.2105, 43.13704
442.6926, 49.29694
443.1747, 55.78881
443.6569, 62.42760
444.1390, 69.51414
444.6211, 77.19070
445.1032, 85.39387
445.5853, 93.69298
446.0674, 102.3371
446.5496, 110.8514
447.0317, 119.1432
447.5138, 127.4032
447.9959, 134.9035
448.4780, 141.9444
448.9601, 148.0807
449.4423, 152.9684
449.9244, 156.4382
450.4065, 158.9372
450.8886, 160.5534
451.3707, 161.2399
451.8528, 160.7962
452.3350, 159.1031
452.8171, 156.5883
453.2992, 153.3274
453.7813, 149.2932
454.2634, 144.8351
454.7455, 139.7313
455.2277, 134.8029
455.7098, 130.8921
456.1919, 128.0129
456.6740, 126.0236
457.1561, 124.8950
457.6382, 124.6709
458.1204, 125.6283
458.6025, 127.7008
459.0846, 130.3275
459.5667, 133.0320
460.0488, 136.1377
460.5309, 140.2130
461.0131, 145.4719
461.4952, 151.0000
461.9773, 155.7862
462.4594, 160.4451
462.9415, 165.9514
463.4236, 173.8540
463.9058, 181.4897
464.3879, 187.6955
464.8700, 192.4882
465.3521, 197.0620
465.8342, 202.1954
466.3163, 206.8772
466.7985, 210.5263
467.2806, 212.6225
467.7627, 214.5393
468.2448, 216.6752
468.7269, 218.4676
469.2090, 219.1374
469.6912, 218.4421
470.1733, 217.0915
470.6554, 215.4069
471.1375, 213.2803
471.6196, 209.5734
472.1017, 204.0555
472.5839, 197.5864
473.0660, 190.5107
473.5481, 182.8550
474.0302, 174.8000
474.5123, 166.3222
474.9944, 157.5633
475.4766, 148.3882
475.9587, 138.9557
476.4408, 130.2422
476.9229, 122.8956
477.4050, 116.4437
477.8871, 109.9868
478.3693, 103.6175
478.8514, 98.16893
479.3335, 94.36877
479.8156, 91.74870
480.2977, 89.71581
480.7798, 88.02609
481.2620, 87.39230
481.7441, 88.49281
482.2262, 90.85703
482.7083, 93.68130
483.1904, 96.61145
483.6725, 100.0771
484.1547, 104.6172
484.6368, 110.0974
485.1189, 115.0294
485.6010, 119.3538
486.0831, 122.9632
486.5652, 125.7938
487.0474, 127.7971
487.5295, 129.2121
488.0116, 130.0195
488.4937, 130.2562
488.9758, 129.9404
489.4579, 129.0083
489.9401, 127.7294
490.4222, 125.8451
490.9043, 123.7245
491.3864, 123.0880
491.8685, 124.0514
492.3506, 125.7902
492.8328, 127.4814
493.3149, 129.3971
493.7970, 132.9553
494.2791, 138.3324
494.7612, 144.6061
495.2433, 150.8050
495.7255, 157.1798
496.2076, 164.4602
496.6897, 173.4165
497.1718, 182.9023
497.6539, 192.0869
498.1360, 200.8405
498.6182, 208.8539
499.1003, 216.7972
499.5824, 223.3044
500.0645, 227.2277
500.5466, 228.3686
501.0287, 227.6206
501.5109, 224.9835
501.9930, 220.7001
502.4751, 215.0363
502.9572, 207.0060
503.4393, 198.7757
503.9214, 190.2864
504.4036, 181.8596
504.8857, 174.2137
505.3678, 167.0067
505.8499, 160.9689
506.3320, 156.4990
506.8141, 153.6865
507.2963, 151.4230
507.7784, 149.5008
508.2605, 148.5155
508.7426, 149.1228
509.2247, 151.2875
509.7068, 154.4767
510.1890, 158.7802
510.6711, 163.7449
511.1532, 168.5654
511.6353, 173.2888
512.1174, 178.1102
512.5995, 183.5419
513.0817, 188.9317
513.5638, 193.7964
514.0459, 198.0849
514.5280, 201.1068
515.0101, 202.3070
515.4922, 202.1041
515.9744, 200.8237
516.4565, 198.2705
516.9386, 195.1864
517.4207, 191.3464
517.9028, 187.1866
518.3849, 183.4440
518.8671, 180.1708
519.3492, 177.4193
519.8313, 174.7800
520.3134, 172.3715
520.7955, 171.8641
521.2776, 173.7560
521.7598, 176.8834
522.2419, 180.5967
522.7240, 184.8705
523.2061, 189.9776
523.6882, 196.0512
524.1703, 202.7355
524.6525, 209.6713
525.1346, 216.8740
525.6167, 224.1463
526.0988, 231.2738
526.5809, 238.5254
527.0630, 246.2560
527.5452, 254.4673
528.0273, 263.2741
528.5094, 272.6611
528.9915, 282.7836
529.4736, 293.8327
529.9557, 305.8606
530.4379, 319.1055
530.9200, 334.1945
531.4021, 350.4962
531.8842, 367.4910
532.3663, 385.5508
532.8484, 403.5259
533.3306, 421.3342
533.8127, 438.8043
534.2948, 455.1306
534.7769, 471.8617
535.2590, 485.9001
535.7411, 497.2364
536.2233, 505.7785
536.7054, 508.5372
537.1875, 505.1650
537.6696, 496.6664
538.1517, 483.2544
538.6339, 464.9478
539.1160, 442.7194
539.5981, 416.0363
540.0802, 387.3184
540.5623, 358.1489
541.0444, 328.8685
541.5266, 300.6726
542.0087, 273.8619
542.4908, 248.4070
542.9729, 224.4710
543.4550, 202.3099
543.9371, 182.1341
544.4193, 164.1442
544.9014, 147.9519
545.3835, 133.2585
545.8656, 120.0491
546.3477, 108.1386
546.8298, 97.58855
547.3120, 88.05949
547.7941, 79.35354
548.2762, 71.52820
548.7583, 64.29450
549.2404, 57.60419
549.7225, 51.48445
550.2047, 45.99796
550.6868, 41.19403
551.1689, 36.94056
551.6510, 33.40332
552.1331, 30.44101
552.6152, 27.10488
553.0974, 23.24963
553.5795, 19.75152
554.0616, 17.35227
554.5437, 15.87599
555.0258, 14.31006
555.5079, 12.58576
555.9901, 10.84859
556.4722, 9.079926
556.9543, 7.403854
557.4364, 6.104172
557.9185, 5.397552
558.4006, 4.867882
558.8828, 4.256737
559.3649, 3.560913
559.8470, 2.754181
560.3291, 1.705147
560.8112, 0.6493910
561.2933, 0.3878020
561.7755, 1.404579
562.2576, 2.173691
562.7397, 2.415955
563.2218, 2.592773
563.7039, 2.956871
564.1860, 3.688393
564.6682, 4.120453
565.1503, 4.146690
565.6324, 4.013374
566.1145, 3.995804
566.5966, 4.090515
567.0787, 4.374313
567.5609, 4.946548
568.0430, 5.609222
568.5251, 5.929840
569.0072, 5.930962
569.4893, 5.754570
569.9714, 5.364868
570.4536, 4.898735
570.9357, 4.542313
571.4178, 4.297867
571.8999, 4.123154
572.3820, 4.034340
572.8641, 3.980003
573.3463, 3.941620
573.8284, 3.990250
574.3105, 3.857841
574.7926, 3.351234
575.2747, 2.661453
575.7568, 2.031250
576.2390, 1.621933
576.7211, 1.074326
577.2032, 0.2916410
577.6853, 0.6558000
578.1674, 1.500496
578.6495, 2.206711
579.1317, 2.910805
579.6138, 3.597900
580.0959, 4.306831
580.5780, 5.472321
581.0601, 7.149094
581.5422, 8.774277
582.0244, 9.706833
582.5065, 10.24406
582.9886, 11.12293
583.4707, 12.48156
583.9528, 14.02232
584.4349, 15.44511
584.9171, 16.88821
585.3992, 18.55664
585.8813, 20.53835
586.3634, 22.74895
586.8455, 25.10364
587.3276, 27.65479
587.8098, 30.47311
588.2919, 33.56068
588.7740, 36.93799
589.2561, 40.60143
589.7382, 44.55069
590.2203, 48.69858
590.7025, 52.73334
591.1846, 57.44511
591.6667, 63.38890
592.1488, 70.63953
592.6309, 78.36053
593.1130, 86.47655
593.5952, 95.37595
594.0773, 105.5245
594.5594, 116.9086
595.0415, 129.2256
595.5236, 142.5401
596.0057, 156.7072
596.4879, 171.5455
596.9700, 187.0350
597.4521, 202.9819
597.9342, 219.7836
598.4163, 236.6158
598.8984, 252.6117
599.3806, 268.0226
599.8627, 284.5583
600.3448, 302.4449
600.8269, 321.6959
601.3090, 342.3146
601.7911, 364.1566
602.2733, 388.1550
602.7554, 414.3457
603.2375, 442.5840
603.7196, 472.3643
604.2017, 503.9543
604.6838, 536.9751
605.1660, 571.5660
605.6481, 607.8057
606.1302, 646.2062
606.6123, 686.2732
607.0944, 725.6728
607.5765, 764.9866
608.0587, 802.1608
608.5408, 837.3541
609.0229, 869.1423
609.5050, 893.7359
609.9871, 911.9005
610.4692, 919.6302
610.9514, 914.4786
611.4335, 896.1589
611.9156, 866.6558
612.3977, 821.3524
612.8798, 768.5028
613.3619, 712.9951
613.8441, 650.9953
614.3262, 593.7474
614.8083, 540.8668
615.2904, 492.7254
615.7725, 450.7190
616.2546, 414.9371
616.7368, 384.0316
617.2189, 357.6755
617.7010, 335.5091
618.1831, 317.2549
618.6652, 302.7608
619.1473, 291.4422
619.6295, 283.9757
620.1116, 279.0232
620.5937, 275.5194
621.0758, 273.4459
621.5579, 272.6563
622.0400, 273.5530
622.5222, 275.3597
623.0043, 277.8124
623.4864, 281.0129
623.9685, 284.1573
624.4506, 287.6432
624.9327, 290.6300
625.4149, 292.6107
625.8970, 293.6170
626.3791, 293.5641
626.8612, 292.6884
627.3433, 290.4141
627.8254, 286.0023
628.3076, 279.4631
628.7897, 270.8474
629.2718, 259.9871
629.7539, 247.2866
630.2360, 233.0046
630.7181, 217.4420
631.2003, 201.7309
631.6824, 185.9903
632.1645, 170.6424
632.6466, 155.9747
633.1287, 141.9337
633.6108, 129.0606
634.0930, 117.7269
634.5751, 107.2699
635.0572, 97.45813
635.5393, 88.15326
636.0214, 79.79959
636.5035, 72.46850
636.9857, 65.91902
637.4678, 60.11626
637.9499, 55.14896
638.4320, 50.36479
638.9141, 45.68914
639.3962, 41.42822
639.8784, 38.24518
640.3605, 35.94001
640.8426, 33.46609
641.3247, 30.40316
641.8068, 27.36009
642.2889, 25.02789
642.7711, 23.21296
643.2532, 21.41048
643.7353, 19.27220
644.2174, 17.24913
644.6995, 15.59158
645.1816, 14.26832
645.6638, 12.97929
646.1459, 11.58751
646.6280, 10.32558
647.1101, 9.309059
647.5922, 8.568451
648.0743, 7.624458
648.5565, 6.366432
649.0386, 5.206963
649.5207, 4.608955
650.0028, 4.486916
650.4849, 4.051216
650.9670, 3.215103
651.4492, 2.313080
651.9313, 1.625107
652.4134, 1.147346
652.8955, 0.9306640
653.3776, 1.134636
653.8597, 1.251938
654.3419, 0.8343960
654.8240, 0.1549450
655.3061, 0.3609620
655.7882, 0.4447710
656.2703, 0.5300060
656.7524, 0.7210690
657.2346, 0.9817660
657.7167, 1.224945
658.1988, 1.505188
658.6809, 1.638504
659.1630, 1.535103
659.6451, 1.230843
660.1273, 0.9081040
660.6094, 0.5608060
661.0915, 0.2632370
661.5736, 9.5946997E-02
662.0557, 2.4339999E-03
662.5378, 0.1017300
663.0200, 0.2212220
663.5021, 0.4255910
663.9842, 0.8186040
664.4663, 1.289764
664.9484, 1.741074
665.4305, 2.170853
665.9127, 2.543610
666.3948, 2.882553
666.8769, 3.141243
667.3590, 3.269386
667.8411, 3.175400
668.3232, 3.154205
668.8054, 3.279335
669.2875, 3.430794
669.7696, 3.381531
670.2517, 3.127960
670.7338, 2.838326
671.2159, 2.533333
671.6981, 2.260330
672.1802, 2.119408
672.6623, 2.088974
673.1444, 2.086586
673.6265, 2.188919
674.1086, 2.207352
674.5908, 1.934799
675.0729, 1.418930
675.5550, 0.9675900
676.0371, 0.6267170
676.5192, 0.4204860
677.0013, 0.3630290
677.4835, 0.4580230
677.9656, 0.6662600
678.4477, 1.092766
678.9298, 1.446632
679.4119, 1.451088
679.8940, 1.102028
680.3762, 0.9812390
680.8583, 1.123924
681.3404, 1.372246
681.8225, 1.658157
682.3046, 1.913788
682.7867, 1.996773
683.2689, 1.860138
683.7510, 1.603783
684.2331, 1.193649
684.7152, 0.7463380
685.1973, 0.4204330
685.6794, 0.3545990
686.1616, 0.2934570
686.6437, 0.1928100
687.1258, 6.8664998E-02
687.6079, 4.3990999E-02
688.0900, 0.1199720
688.5721, 0.2622380
689.0543, 0.5595470
689.5364, 0.8961260
690.0185, 0.8526000
690.5006, 0.4443280
690.9827, 0.1100390
691.4648, 0.2185750
691.9470, 0.4611280
692.4291, 0.3295750
692.9112, 0.1243360
693.3933, 0.6127170
693.8754, 1.000801
694.3575, 1.356316
694.8397, 1.680237
695.3218, 1.962646
695.8039, 2.417625
696.2860, 3.200958
696.7681, 4.044327
697.2502, 4.811127
697.7324, 5.458733
698.2145, 6.262436
698.6966, 7.284073
699.1787, 8.289291
699.6608, 8.914635
700.1429, 9.281075
700.6251, 10.03280
701.1072, 11.27695
701.5893, 12.77441
702.0714, 14.41588
702.5535, 16.11801
703.0356, 17.73773
703.5178, 19.01881
703.9999, 20.55601
704.4820, 22.64708
704.9641, 25.10635
705.4462, 27.67723
705.9283, 30.17245
706.4105, 33.05290
706.8926, 36.50787
707.3747, 40.31358
707.8568, 43.89213
708.3389, 47.22016
708.8210, 50.80824
709.3032, 54.74516
709.7853, 59.14485
710.2674, 64.28277
710.7495, 70.11067
711.2316, 76.22071
711.7137, 82.20439
712.1959, 88.51303
712.6780, 95.52453
713.1601, 103.2152
713.6422, 111.0979
714.1243, 119.0731
714.6064, 127.2781
715.0886, 135.6905
715.5707, 144.3703
716.0528, 153.4992
716.5349, 163.1987
717.0170, 173.2804
717.4991, 183.5551
717.9813, 194.0603
718.4634, 205.9323
718.9455, 219.1702
719.4276, 233.2403
719.9097, 247.6911
720.3918, 262.7282
720.8740, 278.3174
721.3561, 294.5804
721.8382, 311.5215
722.3203, 329.9287
722.8024, 348.7264
723.2845, 367.2354
723.7667, 386.6010
724.2488, 403.8688
724.7309, 419.5641
725.2130, 432.7863
725.6951, 443.0245
726.1772, 450.3955
726.6594, 452.8930
727.1415, 450.3028
727.6236, 442.3455
728.1057, 427.4662
728.5878, 406.7971
729.0699, 382.9541
729.5521, 355.5241
730.0342, 327.2259
730.5163, 298.9039
730.9984, 271.1611
731.4805, 245.0712
731.9626, 220.4981
732.4448, 198.1894
732.9269, 178.4675
733.4090, 160.8797
733.8911, 144.6481
734.3732, 129.8615
734.8553, 116.6835
735.3375, 105.3156
735.8196, 95.50262
736.3017, 86.73802
736.7838, 78.98023
737.2659, 71.98385
737.7480, 65.81538
738.2302, 60.20559
738.7123, 54.74200
739.1944, 49.50877
739.6765, 44.93567
740.1586, 41.43014
740.6407, 38.37286
741.1229, 35.64269
741.6050, 33.18966
742.0871, 30.63137
742.5692, 27.75928
743.0513, 25.24010
743.5334, 23.57216
744.0156, 22.62869
744.4977, 21.36924
744.9798, 19.78886
745.4619, 18.21814
745.9440, 16.92970
746.4261, 15.80795
746.9083, 14.68550
747.3904, 13.54017
747.8725, 12.48571
748.3546, 11.57138
748.8367, 10.79209
749.3188, 10.14467
749.8010, 9.646347
750.2831, 9.255127
750.7652, 9.054199
751.2473, 8.833374
751.7294, 8.380524
752.2115, 7.703979
752.6937, 7.142990
753.1758, 6.709763
753.6579, 6.436584
754.1400, 6.528091
754.6221, 6.747932
755.1042, 6.660179
755.5864, 6.099678
756.0685, 5.577057
756.5506, 5.416412
757.0327, 5.405190
757.5148, 5.336899
757.9969, 5.139694
758.4791, 4.953812
758.9612, 4.803192
759.4433, 4.636909
759.9254, 4.403923
760.4075, 4.101639
760.8896, 3.711098
761.3718, 3.212357
761.8539, 2.675888
762.3360, 2.109276
762.8181, 1.585068
763.3002, 1.274101
763.7823, 1.326408
764.2645, 1.412529
764.7466, 1.368660
765.2287, 1.239571
765.7108, 1.092125
766.1929, 1.103516
766.6750, 0.8419270
767.1572, 7.7087000E-02
767.6393, 0.8371280
768.1214, 1.216782
768.6035, 1.030945
769.0856, 0.7402110
769.5677, 0.4324420
770.0499, 0.1352620
770.5320, 6.6863999E-02
771.0141, 0.2285770
771.4962, 0.4835210
771.9783, 0.9510650
772.4604, 1.466286
772.9426, 1.966530
773.4247, 2.404289
773.9068, 2.711060
774.3889, 2.646461
774.8710, 2.816399
775.3531, 3.346893
775.8353, 4.159782
776.3174, 5.049156
776.7995, 6.008919
777.2816, 7.043716
777.7637, 8.166206
778.2458, 9.351990
778.7280, 10.54227
779.2101, 11.76336
779.6922, 13.07239
780.1743, 14.54318
780.6564, 16.07936
781.1385, 17.62350
781.6207, 19.20267
782.1028, 20.90660
782.5849, 22.82870
783.0670, 24.73502
783.5491, 26.47000
784.0313, 28.16182
784.5134, 30.38403
784.9955, 33.16056
785.4776, 36.02646
785.9597, 38.86320
786.4418, 41.62826
786.9240, 44.09638
787.4061, 46.37869
787.8882, 48.87247
788.3703, 51.93992
788.8524, 55.05143
789.3345, 58.00681
789.8167, 60.78751
790.2988, 63.25432
790.7809, 65.60180
791.2630, 67.33067
791.7451, 68.31228
792.2272, 68.54464
792.7094, 68.01323
793.1915, 66.73280
793.6736, 64.92568
794.1557, 62.56682
794.6378, 59.85739
795.1199, 56.95107
795.6021, 53.93933
796.0842, 51.02826
796.5663, 48.27115
797.0484, 45.70885
797.5305, 43.33782
798.0126, 41.18134
798.4948, 39.46981
798.9769, 38.36246
799.4590, 37.31951
799.9411, 36.04163
800.4232, 34.67516
800.9053, 33.90316
801.3875, 33.68948
801.8696, 33.67519
802.3517, 33.77595
802.8338, 33.87472
803.3159, 33.85896
803.7980, 33.73505
804.2802, 33.55987
804.7623, 33.54642
805.2444, 33.27063
805.7265, 32.57541
806.2086, 31.48608
806.6907, 30.23972
807.1729, 28.85378
807.6550, 27.19873
808.1371, 25.10590
808.6192, 22.72813
809.1013, 20.38699
809.5834, 18.10547
810.0656, 16.01160
810.5477, 14.17188
811.0298, 12.55793
811.5119, 11.22216
811.9940, 10.12170
812.4761, 8.940361
812.9583, 7.367859
813.4404, 6.048576
813.9225, 5.231392
814.4046, 4.842026
814.8867, 4.373589
815.3688, 3.821953
815.8510, 3.361961
816.3331, 3.174484
816.8152, 3.081284
817.2973, 2.704712
817.7794, 2.136337
818.2615, 1.748711
818.7437, 1.966904
819.2258, 2.182747
819.7079, 2.087097
820.1900, 1.709343
820.6721, 1.377312
821.1542, 1.089882
821.6364, 0.8469620
822.1185, 0.6632610
822.6006, 0.5199430
823.0827, 0.3197330
823.5648, 7.4707001E-02
824.0469, 0.1337050
824.5291, 0.2654110
825.0112, 0.3378070
825.4933, 0.3674620
825.9754, 0.3612290
826.4575, 0.3370510
826.9396, 0.2263950
827.4218, 0.1866840
827.9039, 0.2550280
828.3860, 0.4305800
828.8681, 0.7295150
829.3502, 1.212883
829.8323, 1.413040
830.3145, 1.064568
830.7966, 0.4751050
831.2787, 0.2177730
831.7608, 0.2097020
832.2429, 0.2004240
832.7250, 2.9175000E-02
833.2072, 0.1380230
833.6893, 0.1952510
834.1714, 0.1799770
834.6535, 0.1985930
835.1356, 0.3025670
835.6177, 0.3595660
836.0999, 0.3242570
836.5820, 0.2620320
837.0641, 0.3187790
837.5462, 0.4667430
838.0283, 0.5828020
838.5104, 0.6602250
838.9926, 0.6695250
839.4747, 0.4808960
839.9568, 0.2207340
840.4389, 0.1037750
840.9210, 0.3434600
841.4031, 0.5466920
841.8853, 0.5898360
842.3674, 0.5852130
842.8495, 0.7047200
843.3316, 0.9468310
843.8137, 1.167755
844.2958, 1.343048
844.7780, 1.504379
845.2601, 1.678322
845.7422, 1.857250
846.2243, 2.092354
846.7064, 2.522141
847.1885, 2.761787
847.6707, 2.229980
848.1528, 1.507668
848.6349, 1.312191
849.1170, 2.178524
849.5991, 2.663319
850.0812, 2.576153
850.5634, 2.361725
851.0455, 2.601887
851.5276, 3.249603
852.0097, 3.692097
852.4918, 3.781696
852.9739, 3.774017
853.4561, 3.898762
853.9382, 4.022015
854.4203, 3.938942
854.9024, 3.477325
855.3845, 3.358349
855.8666, 4.098152
856.3488, 4.845428
856.8309, 4.994930
857.3130, 4.454437
857.7951, 4.280285
858.2772, 4.502430
858.7593, 4.788376
859.2415, 4.901596
859.7236, 4.883781
860.2057, 4.692039
860.6878, 4.319057
861.1699, 4.183823
861.6520, 4.851730
862.1342, 5.546654
862.6163, 5.799141
863.0984, 5.603973
863.5805, 5.082375
864.0626, 4.036613
864.5447, 3.264591
865.0269, 3.415031
865.5090, 4.171089
865.9911, 4.418449
866.4732, 4.212166
866.9553, 3.928921
867.4374, 3.691860
867.9196, 3.554001
868.4017, 3.637062
868.8838, 3.895004
869.3659, 3.991215
869.8480, 3.868259
870.3301, 3.623718
870.8123, 3.199116
871.2944, 2.708702
871.7765, 2.613510
872.2586, 2.875099
872.7407, 3.072197
873.2228, 3.019371
873.7050, 2.816135
874.1871, 2.418602
874.6692, 1.963425
875.1513, 1.743229
875.6334, 2.023693
876.1155, 2.348881
876.5977, 2.686611
877.0798, 2.988586
877.5619, 3.201500
878.0440, 3.336998
878.5261, 3.178143
879.0082, 2.594749
879.4904, 1.938839
879.9725, 1.643581
880.4546, 1.599545
880.9367, 1.617607
881.4188, 1.640114
881.9009, 1.720192
882.3831, 1.961704
882.8652, 2.226521
883.3473, 2.403507
883.8294, 2.552273
884.3115, 2.322475
884.7936, 1.592747
885.2758, 0.9084820
885.7579, 1.019978
886.2400, 1.554047
886.7221, 1.598991
887.2042, 1.006966
887.6863, 0.4604190
888.1685, 0.3861080
888.6506, 0.5306700
889.1327, 0.7357330
889.6148, 1.005234
890.0969, 1.061474
890.5790, 0.8338620
891.0612, 0.5970500
891.5433, 0.5227010
892.0254, 0.5644260
892.5075, 0.5823210
892.9896, 0.5699960
893.4717, 0.4850690
893.9539, 0.1535840
894.4360, 0.1293410
894.9181, 0.1154210
895.4002, 0.1510350
895.8823, 0.3412900
896.3644, 0.4262010
896.8466, 0.4483380
897.3287, 0.3804170
897.8108, 0.2912860
898.2929, 0.4702450
898.7750, 0.8515660
899.2571, 0.9426190
899.7393, 0.3616750
900.2214, 0.2810480
900.7035, 0.4648780
901.1856, 0.3600810
901.6677, 0.2484660
902.1498, 0.2163430
902.6320, 0.1301160
903.1141, 0.1028750
903.5962, 0.2912410
904.0783, 9.7038001E-02
904.5604, 0.4439810
905.0425, 0.8275380
905.5247, 0.9758000
906.0068, 0.9929240
906.4889, 0.9307820
906.9710, 0.8167270
907.4531, 0.6650430
907.9352, 0.4465030
908.4174, 0.3251000
908.8995, 0.6440240
909.3816, 0.6772840
909.8637, 0.3245240
910.3458, 2.368576
910.8279, 2.777477
911.3101, 1.522507
911.7922, 0.1102370
912.2743, 0.4629290
912.7564, 0.5499880
913.2385, 0.3760450
913.7206, 1.3126000E-02
914.2028, 0.1668740
914.6849, 0.1597790
915.1670, 0.4420360
915.6491, 0.4996450
916.1312, 0.3926620
916.6133, 0.3686790
917.0955, 0.4291270
917.5776, 0.4173660
918.0597, 0.2298390
918.5418, 9.9950004E-03
919.0239, 9.5980000E-03
919.5060, 6.0970001E-02
919.9882, 1.0380000E-02
920.4703, 0.4463730
920.9524, 0.7412640
921.4345, 0.6857910
921.9166, 0.5054020
922.3987, 0.4913020
922.8809, 0.6581270
923.3630, 0.7215420
923.8451, 0.6331440
924.3272, 0.5348890
924.8093, 0.5460890
925.2914, 0.6549420
925.7736, 0.8888320
926.2557, 1.289837
926.7378, 1.566082
927.2199, 1.438141
927.7020, 1.350517
928.1841, 1.576870
928.6663, 2.115906
929.1484, 2.364864
929.6305, 2.309547
930.1126, 2.330524
930.5947, 2.760876
931.0768, 3.349907
931.5590, 3.759956
932.0411, 4.037609
932.5232, 4.369537
933.0053, 4.904358
933.4874, 5.405071
933.9695, 5.771156
934.4517, 6.083618
934.9338, 6.617802
935.4159, 7.377964
935.8980, 7.901299
936.3801, 7.954082
936.8622, 7.985718
937.3444, 8.517563
937.8265, 9.374340
938.3086, 10.32516
938.7907, 11.39647
939.2728, 12.36509
939.7549, 13.06848
940.2371, 13.77480
940.7192, 14.73962
941.2013, 15.96657
941.6834, 17.12845
942.1655, 18.19833
942.6476, 19.41929
943.1298, 21.13979
943.6119, 23.00726
944.0940, 24.59656
944.5761, 25.90339
945.0582, 27.36211
945.5403, 28.98601
946.0225, 30.90372
946.5046, 33.19794
946.9867, 35.80550
947.4688, 38.54082
947.9509, 41.37385
948.4330, 44.40974
948.9152, 47.88193
949.3973, 51.30947
949.8794, 53.98149
950.3615, 56.33548
950.8436, 59.15953
951.3257, 62.91137
951.8079, 66.74617
952.2900, 70.67592
952.7721, 74.59572
953.2542, 78.32524
953.7363, 81.89373
954.2184, 85.51646
954.7006, 89.21193
955.1827, 93.21149
955.6648, 97.76154
956.1469, 102.7398
956.6290, 107.9030
957.1111, 113.2068
957.5933, 119.3247
958.0754, 126.5516
958.5575, 133.9606
959.0396, 140.8584
959.5217, 147.6253
960.0038, 155.9019
960.4860, 165.4804
960.9681, 175.3057
961.4502, 184.3623
961.9323, 193.8264
962.4144, 204.3024
962.8965, 215.6451
963.3787, 227.2738
963.8608, 239.3594
964.3429, 251.3780
964.8250, 263.2257
965.3071, 275.3347
965.7892, 288.6553
966.2714, 302.4867
966.7535, 315.4649
967.2356, 327.3271
967.7177, 337.8417
968.1998, 347.4482
968.6819, 354.8798
969.1641, 359.3582
969.6462, 361.0520
970.1283, 358.8762
970.6104, 352.7038
971.0925, 343.5019
971.5746, 331.4339
972.0568, 316.8039
972.5389, 299.2444
973.0210, 279.3558
973.5031, 259.6583
973.9852, 240.7604
974.4673, 222.7376
974.9495, 205.3417
975.4316, 188.8960
975.9137, 174.3803
976.3958, 161.9095
976.8779, 150.4956
977.3600, 139.9833
977.8422, 130.5320
978.3243, 122.2411
978.8064, 115.0094
979.2885, 108.8911
979.7706, 103.9940
980.2527, 99.54246
980.7349, 95.44033
981.2170, 91.75269
981.6991, 88.55767
982.1812, 85.81393
982.6633, 83.52695
983.1454, 81.68563
983.6276, 80.15955
984.1097, 78.89463
984.5918, 77.91119
985.0739, 77.19734
985.5560, 76.75470
986.0381, 76.64339
986.5203, 76.79932
987.0024, 77.34161
987.4845, 78.28230
987.9666, 79.67315
988.4487, 81.79271
988.9308, 84.39335
989.4130, 86.74316
989.8951, 88.65751
990.3772, 90.75379
990.8593, 93.67027
991.3414, 96.70528
991.8235, 99.41955
992.3057, 101.8358
992.7878, 103.7757
993.2699, 105.2811
993.7520, 106.2160
994.2341, 106.7971
994.7162, 106.5399
995.1984, 104.4279
995.6805, 100.7756
996.1626, 96.50619
996.6447, 91.57838
997.1268, 86.49495
997.6089, 81.17191
998.0911, 75.84543
998.5732, 70.83755
999.0553, 66.12834
999.5374, 61.93672
1000.020, 58.37779
1000.502, 55.17656
1000.984, 52.02138
1001.466, 49.21623
1001.948, 47.06748
1002.430, 45.65365
1002.912, 44.76293
1003.394, 44.48550
1003.876, 44.47175
1004.359, 44.61777
1004.841, 44.89893
1005.323, 45.17711
1005.805, 45.50724
1006.287, 46.11039
1006.769, 47.42072
1007.251, 48.60180
1007.733, 48.93157
1008.216, 49.00741
1008.698, 49.73111
1009.180, 51.47511
1009.662, 52.45684
1010.144, 52.52429
1010.626, 52.13025
1011.108, 51.59895
1011.590, 50.95496
1012.072, 50.16838
1012.555, 49.24990
1013.037, 48.49313
1013.519, 48.11567
1014.001, 47.78963
1014.483, 47.40975
1014.965, 46.99664
1015.447, 46.53765
1015.929, 46.06202
1016.411, 45.97102
1016.894, 46.59589
1017.376, 47.17252
1017.858, 47.01339
1018.340, 46.41629
1018.822, 45.80625
1019.304, 45.64295
1019.786, 44.34371
1020.268, 41.67087
1020.751, 38.49975
1021.233, 35.40918
1021.715, 32.34639
1022.197, 29.12135
1022.679, 25.78745
1023.161, 22.74482
1023.643, 20.25838
1024.125, 18.03554
1024.607, 16.03343
1025.090, 14.18063
1025.572, 12.31943
1026.054, 10.42159
1026.536, 8.761696
1027.018, 7.393372
1027.500, 6.153412
1027.982, 4.812210
1028.464, 3.532028
1028.947, 2.510891
1029.429, 1.821838
1029.911, 1.229980
1030.393, 0.6898000
1030.875, 0.2743570
1031.357, 6.6399001E-02
1031.839, 1.4270000E-03
1032.321, 0.1185190
1032.803, 0.2925000
1033.286, 0.5649340
1033.768, 1.150970
1034.250, 1.613087
1034.732, 1.635178
1035.214, 1.478489
1035.696, 1.566765
1036.178, 2.005619
1036.660, 2.039742
1037.143, 1.554726
1037.625, 1.093246
1038.107, 1.304886
1038.589, 1.737980
1039.071, 1.808918
1039.553, 1.497646
1040.035, 1.207672
1040.517, 0.9583050
1041.000, 0.8556100
1041.482, 0.9971350
1041.964, 1.238503
1042.446, 1.237041
1042.928, 1.025604
1043.410, 0.7014960
1043.892, 0.2067070
1044.374, 0.1398660
1044.856, 2.4738001E-02
1045.339, 0.2520900
1045.821, 0.4420320
1046.303, 0.5460930
1046.785, 0.4982070
1047.267, 0.2902450
1047.749, 5.1730000E-03
1048.231, 0.3897020
1048.713, 0.7644160
1049.195, 0.8918840
1049.677, 0.8560180
1050.160, 0.8971290
1050.642, 0.9682660
1051.124, 1.328110
1051.606, 2.134686
1052.088, 3.044186
1052.570, 3.495476
1053.052, 3.640156
1053.534, 4.042351
1054.017, 4.770496
1054.499, 5.682037
1054.981, 6.849804
1055.463, 8.030079
1055.945, 9.070198
1056.427, 9.985012
1056.909, 10.74158
1057.391, 11.29878
1057.874, 12.21157
1058.356, 13.78267
1058.838, 15.55064
1059.320, 16.93302
1059.802, 18.15034
1060.284, 19.54618
1060.766, 21.16731
1061.248, 23.04558
1061.730, 25.13325
1062.213, 27.55270
1062.695, 30.68616
1063.177, 34.20124
1063.659, 36.85780
1064.141, 38.79489
1064.623, 40.62910
1065.105, 42.56949
1065.587, 44.58194
1066.070, 46.85600
1066.552, 49.11227
1067.034, 50.87289
1067.516, 52.11747
1067.998, 53.29383
1068.480, 54.43491
1068.962, 55.58614
1069.444, 56.43419
1069.927, 57.56677
1070.409, 59.74949
1070.891, 62.99421
1071.373, 65.87148
1071.855, 68.32394
1072.337, 70.46806
1072.819, 72.33838
1073.301, 73.96588
1073.783, 75.52811
1074.266, 76.89828
1074.748, 77.88795
1075.230, 78.64391
1075.712, 78.43604
1076.194, 76.57295
1076.676, 74.23344
1077.158, 71.90007
1077.640, 69.63271
1078.122, 67.87813
1078.604, 66.64935
1079.087, 66.05806
1079.569, 66.13826
1080.051, 66.90317
1080.533, 68.26766
1081.015, 70.40598
1081.497, 73.47377
1081.979, 77.37385
1082.461, 82.54917
1082.944, 89.07361
1083.426, 96.43831
1083.908, 103.9725
1084.390, 112.0961
1084.872, 121.4469
1085.354, 132.0257
1085.836, 142.8265
1086.318, 153.3370
1086.801, 165.0802
1087.283, 178.6083
1087.765, 193.2792
1088.247, 207.8094
1088.729, 222.5963
1089.211, 238.3967
1089.693, 255.4812
1090.175, 273.4750
1090.657, 291.9557
1091.140, 311.6501
1091.622, 332.9954
1092.104, 355.8640
1092.586, 379.3453
1093.068, 403.5211
1093.550, 428.0262
1094.032, 453.6909
1094.514, 478.5229
1094.997, 503.0873
1095.479, 524.8510
1095.961, 541.0139
1096.443, 552.0284
1096.925, 556.5806
1097.407, 554.7509
1097.889, 546.3607
1098.371, 529.8098
1098.854, 507.7342
1099.336, 482.4665
1099.818, 454.4116
1100.300, 425.1060
1100.782, 393.4754
1101.264, 362.8871
1101.746, 333.5915
1102.228, 306.4379
1102.710, 282.7139
1103.193, 262.2248
1103.675, 244.1349
1104.157, 228.4406
1104.639, 214.3915
1105.121, 201.5693
1105.603, 190.4328
1106.085, 181.1562
1106.567, 173.3884
1107.049, 166.4091
1107.531, 160.0869
1108.014, 154.2133
1108.496, 148.8471
1108.978, 143.2315
1109.460, 136.6199
1109.942, 129.6149
1110.424, 122.8250
1110.906, 116.2245
1111.388, 109.4207
1111.871, 102.3908
1112.353, 95.78853
1112.835, 89.90087
1113.317, 84.62696
1113.799, 79.95679
1114.281, 75.89533
1114.763, 72.41766
1115.245, 69.58289
1115.728, 67.21463
1116.210, 65.22652
1116.692, 63.98028
1117.174, 63.97587
1117.656, 64.80989
1118.138, 65.64957
1118.620, 66.58827
1119.102, 68.17442
1119.584, 70.86427
1120.067, 73.89737
1120.549, 77.15417
1121.031, 80.67335
1121.513, 84.57115
1121.995, 88.79285
1122.477, 92.92930
1122.959, 97.00908
1123.441, 101.6174
1123.924, 106.6541
1124.406, 112.8060
1124.888, 120.4784
1125.370, 129.3099
1125.852, 138.2484
1126.334, 147.3995
1126.816, 157.7814
1127.298, 169.9511
1127.781, 181.5963
1128.263, 191.8353
1128.745, 200.1310
1129.227, 206.4369
1129.709, 210.8145
1130.191, 210.4940
1130.673, 205.3912
1131.155, 196.6571
1131.637, 183.9900
1132.120, 169.1980
1132.602, 152.9506
1133.084, 136.2044
1133.566, 120.6463
1134.048, 106.0709
1134.530, 93.37586
1135.012, 82.67375
1135.494, 73.28483
1135.976, 64.75409
1136.458, 57.09897
1136.941, 50.53310
1137.423, 44.94173
1137.905, 40.05580
1138.387, 35.93286
1138.869, 32.30928
1139.351, 29.19102
1139.833, 26.58899
1140.315, 24.79822
1140.798, 23.48898
1141.280, 21.84561
1141.762, 19.88776
1142.244, 18.06942
1142.726, 16.53556
1143.208, 15.19546
1143.690, 14.00807
1144.172, 12.99324
1144.655, 12.22710
1145.137, 11.65299
1145.619, 10.98447
1146.101, 10.19246
1146.583, 9.366039
1147.065, 8.399315
1147.547, 7.575417
1148.029, 7.063786
1148.511, 6.754055
1148.994, 6.337070
1149.476, 5.821335
1149.958, 5.277523
1150.440, 4.693329
1150.922, 4.215797
1151.404, 4.140472
1151.886, 4.041855
1152.368, 3.468819
1152.851, 2.514851
1153.333, 2.188461
1153.815, 2.492207
1154.297, 2.737686
1154.779, 2.687431
1155.261, 2.444584
1155.743, 1.892242
1156.225, 1.323578
1156.708, 1.152954
1157.190, 1.470055
1157.672, 1.503780
1158.154, 1.222225
1158.636, 0.9392090
1159.118, 0.8887290
1159.600, 0.8659860
1160.082, 0.5711560
1160.564, 0.1649890
1161.047, 6.0345002E-02
1161.529, 3.8086001E-02
1162.011, 6.2119000E-02
1162.493, 4.7720000E-03
1162.975, 8.1084996E-02
1163.457, 0.1134260
1163.939, 0.1116560
1164.421, 6.0009998E-03
1164.903, 0.1238630
1165.385, 2.9415000E-02
1165.868, 0.5856590
1166.350, 0.9727590
1166.832, 1.054195
1167.314, 0.9543300
1167.796, 0.6542740
1168.278, 0.3300480
1168.760, 0.3600620
1169.242, 0.7041740
1169.725, 0.9717030
1170.207, 1.015766
1170.689, 1.010994
1171.171, 0.9634440
1171.653, 0.9131620
1172.135, 1.093731
1172.617, 1.266273
1173.099, 0.6456220
1173.582, 0.8214040
1174.064, 1.683945
1174.546, 0.8124960
1175.028, 9.1899997E-03
1175.510, 0.2641640
1175.992, 0.2212330
1176.474, 0.2401390
1176.956, 0.2951700
1177.438, 0.3010670
1177.921, 0.2353060
1178.403, 0.1824720
1178.885, 0.1191370
1179.367, 0.1616130
1179.849, 0.4345170
1180.331, 0.7932930
1180.813, 0.7338410
1181.295, 0.3546680
1181.778, 2.1060999E-02
1182.260, 0.1652680
1182.742, 0.3011020
1183.224, 0.4218370
1183.706, 0.5100440
1184.188, 0.5473330
1184.670, 0.5451130
1185.152, 0.5760800
1185.635, 0.6304280
1186.117, 0.6470680
1186.599, 0.5475580
1187.081, 0.5222740
1187.563, 0.7496380
1188.045, 1.017559
1188.527, 1.165657
1189.009, 1.202991
1189.491, 1.262623
1189.974, 1.336391
1190.456, 1.362915
1190.938, 1.273418
1191.420, 1.182106
1191.902, 1.194042
1192.384, 1.192245
1192.866, 0.9872780
1193.348, 0.5670620
1193.830, 0.6784360
1194.313, 1.270409
1194.795, 1.708279
1195.277, 1.449978
1195.759, 1.116535
1196.241, 1.015163
1196.723, 1.054291
1197.205, 1.141510
1197.687, 1.280018
1198.169, 1.353859
1198.652, 1.358570
1199.134, 1.304935
1199.616, 1.072845
1200.098, 0.9211010
1200.580, 1.158466
1201.062, 1.507881
1201.544, 1.440239
1202.026, 0.9365880
1202.509, 0.8053780
1202.991, 1.120483
1203.473, 1.439335
1203.955, 1.399361
1204.437, 1.297913
1204.919, 1.350399
1205.401, 1.475163
1205.883, 1.441910
1206.365, 1.242439
1206.848, 1.305714
1207.330, 1.706535
1207.812, 2.041016
1208.294, 1.877903
1208.776, 1.652428
1209.258, 1.720852
1209.740, 1.963142
1210.222, 2.012810
1210.705, 1.867226
1211.187, 1.834942
1211.669, 1.985924
1212.151, 2.115318
1212.633, 2.031155
1213.115, 1.889008
1213.597, 1.786377
1214.079, 1.726322
1214.562, 1.715263
1215.044, 1.754013
1215.526, 1.776279
1216.008, 1.763462
1216.490, 1.748234
1216.972, 1.703171
1217.454, 1.713257
1217.936, 1.858894
1218.418, 2.114922
1218.901, 2.394405
1219.383, 2.701069
1219.865, 2.958481
1220.347, 3.162766
1220.829, 3.228867
1221.311, 2.944817
1221.793, 2.636726
1222.275, 2.564896
1222.757, 2.694611
1223.240, 2.775860
1223.722, 2.776100
1224.204, 2.770897
1224.686, 2.842113
1225.168, 2.818501
1225.650, 2.406975
1226.132, 2.034401
1226.614, 2.036816
1227.096, 2.340492
1227.579, 2.471611
1228.061, 2.454548
1228.543, 2.383259
1229.025, 2.303520
1229.507, 2.166885
1229.989, 1.807053
1230.471, 1.475437
1230.953, 1.438564
1231.436, 1.678478
1231.918, 1.781353
1232.400, 1.766216
1232.882, 1.753269
1233.364, 1.812588
1233.846, 1.883007
1234.328, 2.007172
1234.810, 2.036030
1235.292, 1.814678
1235.775, 1.397396
1236.257, 1.116222
1236.739, 0.9911270
1237.221, 1.126114
1237.703, 1.896263
1238.185, 2.361431
1238.667, 1.928085
1239.149, 1.362381
1239.632, 1.173534
1240.114, 1.297184
1240.596, 1.436985
1241.078, 1.575863
1241.560, 1.651524
1242.042, 1.558964
1242.524, 1.513783
1243.006, 1.640011
1243.489, 1.734272
1243.971, 1.556713
1244.453, 1.212284
1244.935, 1.186604
1245.417, 1.419579
1245.899, 1.642735
1246.381, 1.775829
1246.863, 1.841949
1247.345, 1.856148
1247.828, 1.795246
1248.310, 1.586647
1248.792, 1.342136
1249.274, 1.360851
1249.756, 1.586807
1250.238, 1.788548
1250.720, 1.946569
1251.202, 1.934368
1251.684, 1.716763
1252.167, 1.444885
1252.649, 1.197306
1253.131, 1.038033
1253.613, 1.122375
1254.095, 1.366501
1254.577, 1.473507
1255.059, 1.205532
1255.541, 1.167643
1256.023, 1.457291
1256.506, 1.759596
1256.988, 1.797169
1257.470, 1.679876
1257.952, 1.506811
1258.434, 1.307190
1258.916, 1.148401
1259.398, 0.9918800
1259.880, 1.040508
1260.363, 1.355806
1260.845, 1.609108
1261.327, 1.410095
1261.809, 1.096895
1262.291, 1.060797
1262.773, 1.184702
1263.255, 1.111515
1263.737, 0.7489780
1264.219, 0.6088790
1264.702, 0.7386510
1265.184, 0.8850920
1265.666, 0.8330610
1266.148, 0.7386170
1266.630, 0.7280690
1267.112, 0.7594810
1267.594, 0.7439940
1268.076, 0.6801610
1268.559, 0.6083090
1269.041, 0.5315020
1269.523, 0.4406320
1270.005, 0.3104440
1270.487, 0.1883510
1270.969, 5.0320001E-03
1271.451, 9.1963001E-02
1271.933, 0.2280080
1272.416, 0.9057580
1272.898, 1.152189
1273.380, 0.9436820
1273.862, 0.6297910
1274.344, 0.2525440
1274.826, 1.0822000E-02
1275.308, 1.8944001E-02
1275.790, 9.1720998E-02
1276.272, 0.3346650
1276.755, 0.6412870
1277.237, 0.7256340
1277.719, 0.5983010
1278.201, 0.4554390
1278.683, 0.3758620
1279.165, 0.2973650
1279.647, 0.1894780
1280.129, 0.1123600
1280.611, 0.1365360
1281.094, 0.2373490
1281.576, 0.4291610
1282.058, 0.6654830
1282.540, 0.7158810
1283.022, 0.3221840
1283.504, 0.1450410
1283.986, 0.3042870
1284.468, 0.4960230
1284.950, 0.3884470
1285.433, 0.1516340
1285.915, 3.7569001E-02
1286.397, 0.1573540
1286.879, 0.1640890
1287.361, 6.7540002E-03
1287.843, 0.1424670
1288.325, 0.2768990
1288.807, 0.3362960
1289.290, 0.1712360
1289.772, 3.0400001E-03
1290.254, 5.8077000E-02
1290.736, 0.2534810
1291.218, 0.3630240
1291.700, 0.3759350
1292.182, 0.4737610
1292.664, 0.6674880
1293.146, 0.7983340
1293.629, 0.6745970
1294.111, 0.5388740
1294.593, 0.5231910
1295.075, 0.6158450
1295.557, 0.5150680
1296.039, 0.2522470
1296.521, 0.1031380
1297.003, 7.1214996E-02
1297.486, 6.0022000E-02
1297.968, 7.8539997E-03
1298.450, 1.5510001E-03
1298.932, 5.9232999E-02
1299.414, 0.1534420
1299.896, 0.2974830
1300.378, 0.4373050
1300.860, 0.3773230
1301.343, 0.1607740
1301.825, 0.0000000E+00
##END=



