##NAMES=Dietzeite
##RRUFFID=R130292
##IDEAL CHEMISTRY=Ca_2_(I^5+^O_3_)_2_Cr^6+^O_4_&#183;H_2_O
##LOCALITY=Maria Elena mine, Atacama Desert, Tocopilla Province, Antofagasta Region, Chile
##OWNER=RRUFF
##SOURCE=Rock Currier
##DESCRIPTION=Yellow tabular crystals, associated with colorless nitratine
##STATUS=The identification of this mineral is confirmed by single-crystal X-ray diffraction and chemical analysis.
##URL=rruff.info/R130292
##MEASURED CHEMISTRY=Ca_1.63_(I_0.93_O_3_)_2.00_(Cr_1.21_S_0.03_O_4_)_1.00_Â·H_2_O ; The total is low due to possible dehydration during the probe
91.19958, 0.0000000E+00
91.68170, 0.5776370
92.16382, 21.62415
92.64594, 46.44775
93.12805, 72.90747
93.61017, 100.1738
94.09229, 121.4996
94.57440, 135.8412
95.05651, 144.8121
95.53863, 144.9703
96.02074, 142.3368
96.50286, 140.9716
96.98498, 141.5649
97.46709, 144.0789
97.94921, 160.6669
98.43133, 192.5725
98.91344, 231.6511
99.39556, 275.8318
99.87768, 323.7828
100.3598, 373.7330
100.8419, 426.4816
101.3240, 480.3806
101.8061, 528.3408
102.2883, 569.8389
102.7704, 607.5838
103.2525, 643.3065
103.7346, 678.9654
104.2167, 727.1046
104.6988, 784.4686
105.1810, 843.1425
105.6631, 898.6493
106.1452, 954.8909
106.6273, 1005.765
107.1094, 1035.108
107.5915, 1048.728
108.0737, 1037.501
108.5558, 996.9064
109.0379, 931.1229
109.5200, 849.1700
110.0021, 754.8584
110.4842, 644.1760
110.9664, 544.1221
111.4485, 453.7487
111.9306, 372.7668
112.4127, 302.6341
112.8948, 243.3555
113.3769, 192.6397
113.8591, 147.9965
114.3412, 110.6058
114.8233, 78.00116
115.3054, 50.13538
115.7875, 26.57172
116.2696, 6.973694
116.7517, 8.830566
117.2339, 21.01349
117.7160, 29.17358
118.1981, 33.35663
118.6802, 34.95221
119.1623, 33.82385
119.6444, 30.32422
120.1266, 25.31464
120.6087, 18.94427
121.0908, 11.21417
121.5729, 2.615356
122.0550, 6.955872
122.5371, 17.17395
123.0193, 28.20557
123.5014, 40.29303
123.9835, 51.25867
124.4656, 59.55603
124.9477, 66.27661
125.4298, 72.21350
125.9120, 77.65100
126.3941, 82.36444
126.8762, 85.68854
127.3583, 86.92023
127.8404, 87.80426
128.3225, 88.30243
128.8047, 88.94690
129.2868, 90.35596
129.7689, 92.84344
130.2510, 96.43494
130.7331, 101.5349
131.2152, 108.4206
131.6974, 116.7083
132.1795, 126.6100
132.6616, 137.9094
133.1437, 150.2244
133.6258, 163.4681
134.1079, 178.0837
134.5901, 191.0915
135.0722, 202.0005
135.5543, 212.0706
136.0364, 222.2090
136.5185, 232.4169
137.0006, 241.8071
137.4828, 249.2471
137.9649, 254.4233
138.4470, 258.5516
138.9291, 262.2449
139.4112, 264.8589
139.8933, 265.7779
140.3755, 264.9698
140.8576, 262.0367
141.3397, 255.8300
141.8218, 246.7436
142.3039, 236.7449
142.7860, 226.3631
143.2681, 215.7081
143.7503, 204.8829
144.2324, 193.4467
144.7145, 182.3210
145.1966, 171.9651
145.6787, 162.4458
146.1608, 153.9749
146.6430, 146.4916
147.1251, 139.9033
147.6072, 134.9130
148.0893, 131.6268
148.5714, 129.8593
149.0535, 131.5472
149.5357, 135.3760
150.0178, 140.8688
150.4999, 147.5307
150.9820, 155.7893
151.4641, 164.3675
151.9462, 172.4363
152.4284, 181.0441
152.9105, 191.1899
153.3926, 203.1887
153.8747, 216.5028
154.3568, 229.7396
154.8389, 240.6666
155.3211, 254.4388
155.8032, 271.7827
156.2853, 291.8736
156.7674, 313.9654
157.2495, 337.7920
157.7316, 362.9565
158.2138, 387.7913
158.6959, 413.3978
159.1780, 437.5724
159.6601, 461.3996
160.1422, 483.4877
160.6243, 501.0388
161.1065, 512.8332
161.5886, 517.9217
162.0707, 515.1163
162.5528, 504.1758
163.0349, 486.6481
163.5170, 461.6347
163.9991, 429.6498
164.4813, 395.6470
164.9634, 360.9217
165.4455, 326.7667
165.9276, 295.7079
166.4097, 267.9285
166.8918, 243.2522
167.3740, 221.8628
167.8561, 204.0105
168.3382, 188.4492
168.8203, 174.9744
169.3024, 163.3036
169.7845, 153.3668
170.2667, 145.2926
170.7488, 138.9133
171.2309, 133.9881
171.7130, 130.9240
172.1951, 128.4489
172.6772, 126.3803
173.1594, 124.2794
173.6415, 121.4821
174.1236, 117.3581
174.6057, 111.7126
175.0878, 105.7634
175.5699, 100.4865
176.0521, 94.58582
176.5342, 87.65414
177.0163, 80.16196
177.4984, 72.77899
177.9805, 65.86261
178.4626, 59.48294
178.9448, 54.58264
179.4269, 51.79016
179.9090, 49.92703
180.3911, 48.27164
180.8732, 46.90097
181.3553, 46.27551
181.8375, 46.78098
182.3196, 48.43970
182.8017, 50.75919
183.2838, 53.57770
183.7659, 56.97549
184.2480, 61.07507
184.7301, 65.82584
185.2123, 71.00699
185.6944, 76.37082
186.1765, 81.91891
186.6586, 88.17941
187.1407, 95.81061
187.6228, 103.6228
188.1050, 111.1622
188.5871, 118.2910
189.0692, 124.3000
189.5513, 128.4388
190.0334, 130.6377
190.5155, 131.4138
190.9977, 131.0613
191.4798, 129.1440
191.9619, 125.0580
192.4440, 118.6332
192.9261, 110.4940
193.4082, 100.1057
193.8904, 88.17093
194.3725, 76.87772
194.8546, 66.76019
195.3367, 57.71234
195.8188, 49.56827
196.3009, 42.48965
196.7831, 35.99200
197.2652, 29.56601
197.7473, 23.30301
198.2294, 17.69772
198.7115, 13.05600
199.1936, 9.259430
199.6758, 5.809784
200.1579, 2.389435
200.6400, 0.1571350
201.1221, 1.215393
201.6042, 1.145325
202.0863, 0.7904970
202.5685, 0.6455990
203.0506, 0.6948550
203.5327, 0.9030150
204.0148, 2.180420
204.4969, 2.595367
204.9790, 1.048431
205.4612, 1.981079
205.9433, 5.331543
206.4254, 8.136902
206.9075, 10.37750
207.3896, 12.20554
207.8717, 13.09338
208.3539, 14.03229
208.8360, 15.50348
209.3181, 17.36212
209.8002, 19.13724
210.2823, 20.35794
210.7644, 20.92279
211.2466, 21.65512
211.7287, 22.72797
212.2108, 23.85956
212.6929, 24.85010
213.1750, 25.71994
213.6571, 26.64639
214.1393, 27.87357
214.6214, 29.50238
215.1035, 30.88138
215.5856, 31.48328
216.0677, 32.37512
216.5498, 34.24573
217.0320, 36.95105
217.5141, 39.76517
217.9962, 42.06140
218.4783, 43.79166
218.9604, 45.64749
219.4425, 47.23691
219.9247, 49.20978
220.4068, 52.15683
220.8889, 56.00027
221.3710, 60.00299
221.8531, 63.52209
222.3352, 66.52417
222.8174, 69.77914
223.2995, 73.56229
223.7816, 77.36685
224.2637, 80.66208
224.7458, 83.48428
225.2279, 86.52377
225.7100, 90.33575
226.1922, 94.78842
226.6743, 99.22894
227.1564, 103.6288
227.6385, 108.1287
228.1206, 112.8187
228.6027, 117.6882
229.0849, 122.5774
229.5670, 127.2252
230.0491, 131.6635
230.5312, 136.2881
231.0133, 141.5589
231.4954, 146.9920
231.9776, 151.9227
232.4597, 156.2625
232.9418, 160.5489
233.4239, 164.9541
233.9060, 169.5850
234.3881, 174.6853
234.8703, 180.4314
235.3524, 186.6024
235.8345, 193.0759
236.3166, 200.0259
236.7987, 206.6825
237.2808, 212.3951
237.7630, 217.6985
238.2451, 223.2062
238.7272, 229.1589
239.2093, 235.3243
239.6914, 241.3848
240.1735, 247.4645
240.6557, 253.1191
241.1378, 257.8744
241.6199, 262.2784
242.1020, 266.8974
242.5841, 271.9905
243.0662, 277.1315
243.5484, 281.4751
244.0305, 284.6534
244.5126, 287.9703
244.9947, 292.7036
245.4768, 297.2600
245.9589, 300.4793
246.4410, 302.0079
246.9232, 301.6406
247.4053, 298.9711
247.8874, 293.7806
248.3695, 286.5591
248.8516, 277.0559
249.3337, 266.1063
249.8159, 254.0426
250.2980, 240.9832
250.7801, 227.4413
251.2622, 214.0472
251.7443, 200.6804
252.2264, 187.9483
252.7086, 175.6911
253.1907, 164.0489
253.6728, 153.1768
254.1549, 143.1120
254.6370, 133.5842
255.1191, 124.0612
255.6013, 114.2224
256.0834, 105.2385
256.5655, 97.45648
257.0476, 90.12003
257.5297, 82.58504
258.0118, 74.81361
258.4940, 67.30070
258.9761, 60.76604
259.4582, 55.61382
259.9403, 50.57309
260.4224, 45.32391
260.9045, 40.34146
261.3867, 36.07875
261.8688, 32.45343
262.3509, 28.99530
262.8330, 25.09975
263.3151, 20.40291
263.7972, 16.67270
264.2794, 14.18399
264.7615, 12.21321
265.2436, 10.55167
265.7257, 9.084534
266.2078, 7.630707
266.6899, 5.990707
267.1721, 4.097427
267.6542, 2.512161
268.1363, 1.457932
268.6184, 0.4316100
269.1005, 0.9365080
269.5826, 2.536057
270.0648, 3.912598
270.5469, 4.656754
271.0290, 4.736115
271.5111, 5.062698
271.9932, 5.720657
272.4753, 6.482986
272.9575, 7.381805
273.4396, 8.328384
273.9217, 9.079544
274.4038, 9.430298
274.8859, 9.427261
275.3680, 9.696243
275.8501, 10.45966
276.3322, 11.19302
276.8144, 11.73305
277.2965, 12.11191
277.7786, 12.40239
278.2607, 12.63217
278.7428, 12.80922
279.2249, 12.97766
279.7071, 13.20697
280.1892, 13.35721
280.6713, 13.30345
281.1534, 13.16653
281.6355, 13.22670
282.1176, 13.66116
282.5998, 14.17554
283.0819, 13.91956
283.5640, 12.33263
284.0461, 11.14864
284.5282, 11.00047
285.0103, 11.38939
285.4925, 11.72566
285.9746, 11.86546
286.4567, 11.57565
286.9388, 10.21353
287.4209, 7.269989
287.9030, 5.087250
288.3852, 4.561707
288.8673, 4.786880
289.3494, 4.739853
289.8315, 4.191360
290.3136, 3.353912
290.7957, 2.437683
291.2779, 1.446625
291.7600, 0.3655400
292.2421, 0.6858520
292.7242, 1.897064
293.2063, 3.499298
293.6884, 5.525879
294.1706, 7.719635
294.6527, 9.833099
295.1348, 11.88052
295.6169, 14.16531
296.0990, 16.58075
296.5811, 19.32324
297.0633, 22.55060
297.5454, 26.25052
298.0275, 30.35291
298.5096, 34.79562
298.9917, 39.64786
299.4738, 44.98010
299.9560, 50.84201
300.4381, 57.07098
300.9202, 63.73279
301.4023, 70.75403
301.8844, 77.95129
302.3665, 85.35709
302.8487, 92.82269
303.3308, 99.92276
303.8129, 106.2709
304.2950, 112.9502
304.7771, 120.6862
305.2592, 129.1428
305.7414, 137.3344
306.2235, 144.6946
306.7056, 151.9717
307.1877, 160.6672
307.6698, 170.9483
308.1519, 181.4785
308.6341, 191.2883
309.1162, 201.1592
309.5983, 212.4052
310.0804, 225.3855
310.5625, 239.4677
311.0446, 253.7177
311.5268, 268.0949
312.0089, 283.3963
312.4910, 299.7081
312.9731, 317.0453
313.4552, 335.3882
313.9373, 354.6652
314.4195, 375.5129
314.9016, 399.1771
315.3837, 425.5625
315.8658, 451.3744
316.3479, 475.8415
316.8300, 500.0031
317.3121, 525.1078
317.7943, 551.1370
318.2764, 576.3525
318.7585, 600.2872
319.2406, 622.1253
319.7227, 640.2496
320.2048, 655.0275
320.6870, 666.0306
321.1691, 672.7654
321.6512, 675.4651
322.1333, 674.5293
322.6154, 669.2081
323.0975, 661.4092
323.5797, 655.8682
324.0618, 652.1583
324.5439, 650.7903
325.0260, 651.9702
325.5081, 655.5753
325.9902, 661.5507
326.4724, 669.9971
326.9545, 680.3887
327.4366, 692.1178
327.9187, 704.9999
328.4008, 719.5917
328.8829, 735.9950
329.3651, 754.1613
329.8472, 774.1121
330.3293, 795.8453
330.8114, 818.9467
331.2935, 842.6755
331.7756, 867.1150
332.2578, 895.9414
332.7399, 930.2570
333.2220, 968.0392
333.7041, 1007.524
334.1862, 1048.731
334.6683, 1094.137
335.1505, 1145.305
335.6326, 1202.328
336.1147, 1262.197
336.5968, 1325.575
337.0789, 1391.333
337.5610, 1459.230
338.0432, 1529.360
338.5253, 1601.640
339.0074, 1676.320
339.4895, 1752.308
339.9716, 1826.609
340.4537, 1901.368
340.9359, 1970.964
341.4180, 2033.969
341.9001, 2091.536
342.3822, 2145.469
342.8643, 2196.083
343.3464, 2241.005
343.8286, 2277.215
344.3107, 2304.272
344.7928, 2319.806
345.2749, 2324.416
345.7570, 2316.969
346.2391, 2295.494
346.7213, 2260.487
347.2034, 2214.149
347.6855, 2157.948
348.1676, 2091.156
348.6497, 2022.641
349.1318, 1947.929
349.6140, 1876.263
350.0961, 1810.785
350.5782, 1751.991
351.0603, 1699.709
351.5424, 1654.062
352.0245, 1615.196
352.5067, 1583.763
352.9888, 1562.388
353.4709, 1545.196
353.9530, 1533.761
354.4351, 1525.306
354.9172, 1517.553
355.3994, 1509.567
355.8815, 1499.968
356.3636, 1486.478
356.8457, 1469.434
357.3278, 1446.777
357.8099, 1419.253
358.2920, 1386.156
358.7741, 1346.878
359.2563, 1301.403
359.7384, 1250.683
360.2205, 1195.068
360.7026, 1134.200
361.1847, 1071.612
361.6668, 1005.175
362.1490, 939.5111
362.6311, 875.3051
363.1132, 812.8596
363.5953, 753.3073
364.0774, 697.0801
364.5595, 644.4470
365.0417, 596.5409
365.5238, 554.0751
366.0059, 516.1586
366.4880, 483.4716
366.9701, 454.6904
367.4522, 428.4930
367.9344, 404.5786
368.4165, 383.4268
368.8986, 365.7541
369.3807, 351.7895
369.8628, 341.0484
370.3449, 333.9684
370.8271, 329.4298
371.3092, 326.9294
371.7913, 326.4515
372.2734, 328.2185
372.7555, 332.8269
373.2376, 340.1812
373.7198, 347.5326
374.2019, 355.6622
374.6840, 362.7472
375.1661, 369.6529
375.6482, 374.9283
376.1303, 376.3755
376.6125, 372.8730
377.0946, 365.1058
377.5767, 354.2061
378.0588, 339.4393
378.5409, 323.5512
379.0230, 305.6325
379.5052, 287.8832
379.9873, 271.7168
380.4694, 257.4365
380.9515, 245.2931
381.4336, 235.8874
381.9157, 229.1663
382.3979, 223.6527
382.8800, 219.0646
383.3621, 215.9477
383.8442, 214.5616
384.3263, 214.7515
384.8084, 215.9133
385.2906, 217.4819
385.7727, 219.8423
386.2548, 224.0130
386.7369, 230.2050
387.2190, 237.4152
387.7011, 245.3850
388.1833, 254.0023
388.6654, 263.4663
389.1475, 274.7531
389.6296, 285.2610
390.1117, 292.9740
390.5938, 297.9771
391.0760, 300.7230
391.5581, 301.5997
392.0402, 299.7860
392.5223, 294.1507
393.0044, 284.6751
393.4865, 273.4925
393.9687, 260.9839
394.4508, 247.4565
394.9329, 233.1015
395.4150, 217.6639
395.8971, 202.8390
396.3792, 189.9214
396.8614, 178.9967
397.3435, 169.3043
397.8256, 160.7744
398.3077, 153.3900
398.7898, 147.5222
399.2719, 142.8491
399.7540, 138.3353
400.2361, 133.5189
400.7183, 128.4588
401.2004, 123.3807
401.6825, 118.2961
402.1646, 113.1642
402.6467, 107.8030
403.1288, 102.4499
403.6110, 97.44171
404.0931, 92.87683
404.5752, 88.51688
405.0573, 84.01260
405.5394, 79.19922
406.0215, 75.26068
406.5037, 72.37054
406.9858, 70.09659
407.4679, 68.08401
407.9500, 66.46753
408.4321, 65.65454
408.9142, 65.92358
409.3964, 67.17056
409.8785, 68.76331
410.3606, 70.47122
410.8427, 72.82224
411.3248, 75.69498
411.8069, 79.33090
412.2891, 84.10791
412.7712, 90.04260
413.2533, 96.59375
413.7354, 103.0409
414.2175, 109.2950
414.6996, 115.9935
415.1818, 123.4020
415.6639, 130.9214
416.1460, 138.4906
416.6281, 146.0612
417.1102, 153.4511
417.5923, 160.6281
418.0745, 167.4837
418.5566, 174.0140
419.0387, 180.9344
419.5208, 185.8436
420.0029, 188.4297
420.4850, 188.5921
420.9672, 185.7664
421.4493, 179.7907
421.9314, 172.0313
422.4135, 163.7766
422.8956, 155.0140
423.3777, 144.9867
423.8599, 132.6387
424.3420, 120.3333
424.8241, 109.7057
425.3062, 100.5295
425.7883, 91.96393
426.2704, 83.59143
426.7526, 75.66559
427.2347, 68.52901
427.7168, 62.11099
428.1989, 56.63535
428.6810, 52.39120
429.1631, 49.21017
429.6453, 46.44397
430.1274, 43.99393
430.6095, 42.17877
431.0916, 41.39282
431.5737, 41.31772
432.0558, 41.30106
432.5380, 41.17380
433.0201, 41.20753
433.5022, 41.74985
433.9843, 42.87309
434.4664, 44.05801
434.9485, 45.34637
435.4307, 46.64160
435.9128, 48.06178
436.3949, 49.45578
436.8770, 50.40269
437.3591, 50.65518
437.8412, 50.28976
438.3234, 49.60159
438.8055, 48.88300
439.2876, 47.44424
439.7697, 44.94345
440.2518, 41.87952
440.7339, 38.77509
441.2160, 35.72760
441.6982, 32.36569
442.1803, 28.20114
442.6624, 23.03462
443.1445, 18.43140
443.6266, 14.47842
444.1087, 11.02969
444.5909, 8.293030
445.0730, 6.025223
445.5551, 3.789001
446.0372, 1.377640
446.5193, 1.039734
447.0014, 3.061996
447.4836, 4.574554
447.9657, 6.030853
448.4478, 7.667953
448.9299, 9.177185
449.4120, 10.42380
449.8941, 11.37192
450.3763, 11.95456
450.8584, 11.84081
451.3405, 11.26306
451.8226, 11.30460
452.3047, 12.28543
452.7868, 13.12184
453.2690, 12.97780
453.7511, 12.32990
454.2332, 11.82475
454.7153, 11.63474
455.1974, 11.54930
455.6795, 11.47113
456.1617, 11.37413
456.6438, 11.13681
457.1259, 10.67821
457.6080, 10.15756
458.0901, 9.796600
458.5722, 9.591461
459.0544, 9.369278
459.5365, 9.131668
460.0186, 8.840897
460.5007, 8.415802
460.9828, 7.883469
461.4649, 7.414902
461.9471, 7.150024
462.4292, 6.997971
462.9113, 6.588715
463.3934, 5.699554
463.8755, 4.864319
464.3576, 4.255417
464.8398, 3.668976
465.3219, 2.797806
465.8040, 1.632889
466.2861, 0.5527040
466.7682, 1.2329000E-02
467.2503, 9.6755996E-02
467.7325, 6.4773999E-02
468.2146, 0.7933960
468.6967, 1.425644
469.1788, 1.681076
469.6609, 1.759567
470.1430, 1.989182
470.6252, 2.518387
471.1073, 3.167709
471.5894, 3.551193
472.0715, 3.532059
472.5536, 3.860489
473.0357, 5.112915
473.5179, 6.346329
474.0000, 6.939804
474.4821, 7.005142
474.9642, 7.108871
475.4463, 7.682205
475.9284, 8.484451
476.4106, 8.956223
476.8927, 9.047623
477.3748, 9.130753
477.8569, 9.362656
478.3390, 9.698273
478.8211, 10.06044
479.3033, 10.44525
479.7854, 10.86270
480.2675, 11.33467
480.7496, 11.83774
481.2317, 12.31425
481.7138, 12.75110
482.1959, 13.23604
482.6780, 13.91362
483.1602, 14.76370
483.6423, 15.23999
484.1244, 14.86377
484.6065, 14.65527
485.0886, 15.15976
485.5707, 16.08472
486.0529, 16.94017
486.5350, 17.54240
487.0171, 17.94740
487.4992, 18.22041
487.9813, 18.22461
488.4634, 18.47775
488.9456, 19.21077
489.4277, 19.92935
489.9098, 20.42216
490.3919, 20.70538
490.8740, 20.85648
491.3561, 20.91064
491.8383, 20.90062
492.3204, 20.87656
492.8025, 20.74062
493.2846, 20.86638
493.7667, 21.55357
494.2488, 22.37460
494.7310, 23.13795
495.2131, 23.79567
495.6952, 24.24465
496.1773, 24.32002
496.6594, 24.13945
497.1415, 24.00540
497.6237, 23.91617
498.1058, 23.90656
498.5879, 23.98618
499.0700, 24.16321
499.5521, 24.44058
500.0342, 24.82034
500.5164, 25.29451
500.9985, 25.98869
501.4806, 26.74059
501.9627, 27.25514
502.4448, 27.47232
502.9269, 27.52110
503.4091, 27.48714
503.8912, 27.36118
504.3733, 27.34424
504.8554, 27.44774
505.3375, 27.57088
505.8196, 27.69232
506.3018, 27.77992
506.7839, 27.83696
507.2660, 27.86586
507.7481, 27.81490
508.2302, 27.58849
508.7123, 27.17961
509.1945, 26.82465
509.6766, 26.52834
510.1587, 26.16348
510.6408, 25.27697
511.1229, 24.41518
511.6050, 24.73805
512.0872, 27.08276
512.5693, 29.91592
513.0514, 30.28358
513.5335, 27.85683
514.0156, 25.49554
514.4977, 23.75767
514.9799, 22.37038
515.4620, 21.06395
515.9441, 19.84829
516.4262, 18.86636
516.9083, 18.32579
517.3904, 17.96895
517.8726, 17.46480
518.3547, 16.83052
518.8368, 16.24703
519.3189, 15.79446
519.8010, 15.41258
520.2831, 15.00705
520.7653, 14.60110
521.2474, 14.22662
521.7295, 13.89738
522.2116, 13.55853
522.6937, 13.11873
523.1758, 12.63704
523.6580, 12.31165
524.1401, 12.27644
524.6222, 12.45499
525.1043, 12.59572
525.5864, 12.89561
526.0685, 12.91673
526.5507, 12.34599
527.0328, 11.65700
527.5149, 11.20171
527.9970, 11.05067
528.4791, 11.12424
528.9612, 11.44659
529.4434, 11.91707
529.9255, 12.02856
530.4076, 11.75558
530.8897, 11.29675
531.3718, 10.28447
531.8539, 9.292557
532.3361, 9.043640
532.8182, 9.747589
533.3003, 10.48598
533.7824, 10.63597
534.2645, 10.39218
534.7466, 10.13403
535.2288, 9.899506
535.7109, 9.776855
536.1930, 9.862930
536.6751, 10.12967
537.1572, 10.36314
537.6393, 10.54160
538.1215, 10.71581
538.6036, 10.94769
539.0857, 11.16362
539.5678, 11.28426
540.0499, 11.29128
540.5320, 11.18088
541.0142, 10.90729
541.4963, 10.44859
541.9784, 10.23727
542.4604, 10.69334
542.9426, 10.91896
543.4247, 10.52283
543.9068, 9.908829
544.3889, 9.570831
544.8710, 9.629410
545.3531, 9.744263
545.8353, 9.470535
546.3174, 8.860611
546.7995, 8.521637
547.2816, 8.563553
547.7637, 8.704544
548.2458, 8.885178
548.7280, 9.017731
549.2101, 8.939667
549.6922, 8.556671
550.1743, 8.100769
550.6564, 7.628250
551.1385, 7.205673
551.6207, 7.013443
552.1028, 7.091187
552.5849, 7.240097
553.0670, 7.303452
553.5491, 7.278534
554.0313, 7.071686
554.5134, 6.490112
554.9955, 5.982895
555.4776, 5.704407
555.9597, 5.550980
556.4418, 5.416718
556.9240, 5.266037
557.4061, 5.090042
557.8882, 4.858429
558.3703, 4.567032
558.8524, 4.394348
559.3345, 4.550903
559.8167, 4.505020
560.2988, 3.790009
560.7809, 2.921936
561.2630, 2.605042
561.7451, 3.060074
562.2272, 3.601105
562.7094, 3.576889
563.1915, 3.147964
563.6736, 2.868637
564.1557, 2.823898
564.6378, 2.845779
565.1199, 2.863525
565.6021, 2.844101
566.0842, 2.677261
566.5663, 2.272598
567.0484, 1.850601
567.5305, 1.366180
568.0126, 0.9679720
568.4948, 0.9255070
568.9769, 1.240967
569.4590, 1.577728
569.9411, 1.618912
570.4232, 1.369949
570.9053, 1.148163
571.3875, 0.9740450
571.8696, 0.8035280
572.3517, 0.6174320
572.8338, 0.4313350
573.3159, 0.2379610
573.7980, 4.7591999E-02
574.2802, 7.4326001E-02
574.7623, 9.7200004E-03
575.2444, 0.2201230
575.7265, 0.1714020
576.2086, 0.2211150
576.6907, 0.5085450
577.1729, 0.3493960
577.6550, 3.2867000E-02
578.1371, 8.2595997E-02
578.6192, 0.6261900
579.1013, 1.005096
579.5834, 0.8474730
580.0656, 0.4670720
580.5477, 0.1674350
581.0298, 1.0071000E-02
581.5119, 4.9072001E-02
581.9940, 8.4137000E-02
582.4761, 0.3226170
582.9583, 0.4355320
583.4404, 0.2795560
583.9225, 0.2148440
584.4046, 0.3064730
584.8867, 0.4388430
585.3688, 0.6416020
585.8510, 0.8249660
586.3331, 0.7262730
586.8152, 8.1940003E-02
587.2973, 0.7615050
587.7794, 0.9180450
588.2615, 0.2699130
588.7437, 0.2764590
589.2258, 0.5739140
589.7079, 0.6244350
590.1900, 0.2816160
590.6721, 0.3696440
591.1542, 0.7293400
591.6364, 0.3516850
592.1185, 0.1728360
592.6006, 0.3409420
593.0827, 0.2349400
593.5648, 0.1253200
594.0469, 0.1097410
594.5291, 0.1044920
595.0112, 1.7059000E-02
595.4933, 0.2972560
595.9754, 0.5058290
596.4575, 0.7177730
596.9396, 0.7911070
597.4218, 0.5281830
597.9039, 0.1508330
598.3860, 1.4040000E-03
598.8681, 0.1886140
599.3502, 0.4615480
599.8323, 0.4515380
600.3145, 0.1758880
600.7966, 0.1881710
601.2787, 0.6280360
601.7608, 1.110870
602.2429, 1.499939
602.7250, 1.763535
603.2072, 1.794846
603.6893, 1.487518
604.1714, 1.226578
604.6535, 1.033707
605.1356, 1.081360
605.6177, 1.901352
606.0999, 3.427155
606.5820, 4.582489
607.0641, 4.526718
607.5462, 3.546188
608.0283, 2.929626
608.5104, 2.872864
608.9926, 2.933380
609.4747, 3.223297
609.9568, 3.517410
610.4389, 3.661484
610.9210, 3.662796
611.4031, 3.593826
611.8853, 3.461075
612.3674, 3.349411
612.8495, 3.494919
613.3316, 3.931580
613.8137, 4.232971
614.2958, 4.255203
614.7780, 4.157440
615.2601, 4.042755
615.7422, 3.924652
616.2243, 3.922592
616.7064, 4.114166
617.1885, 4.382347
617.6707, 4.770866
618.1528, 5.155579
618.6349, 5.197670
619.1170, 4.818169
619.5991, 4.466240
620.0812, 4.721596
620.5634, 5.646713
621.0455, 6.167625
621.5276, 5.855965
622.0097, 5.657135
622.4918, 5.747589
622.9739, 6.054459
623.4561, 6.584084
623.9382, 7.303284
624.4203, 7.948067
624.9023, 8.295593
625.3845, 8.402138
625.8666, 8.343918
626.3487, 8.100479
626.8308, 8.065384
627.3129, 8.511086
627.7950, 9.164490
628.2772, 9.485870
628.7593, 9.403107
629.2414, 9.393906
629.7235, 9.651527
630.2056, 9.903870
630.6877, 9.890594
631.1699, 9.718628
631.6520, 9.642883
632.1341, 9.780586
632.6162, 10.11057
633.0983, 10.69794
633.5804, 11.68781
634.0626, 12.17204
634.5447, 11.70790
635.0268, 11.29726
635.5089, 11.40681
635.9910, 11.82755
636.4731, 12.30244
636.9553, 12.83447
637.4374, 13.16924
637.9195, 12.93454
638.4016, 12.41965
638.8837, 12.18748
639.3658, 12.29723
639.8480, 12.52364
640.3301, 12.77515
640.8122, 12.99854
641.2943, 12.97683
641.7764, 12.34369
642.2585, 11.94977
642.7407, 11.94836
643.2228, 12.06886
643.7049, 12.21046
644.1870, 12.31697
644.6691, 12.27089
645.1512, 11.96445
645.6334, 11.65404
646.1155, 11.89095
646.5976, 12.66517
647.0797, 12.99611
647.5618, 12.52092
648.0439, 12.09606
648.5261, 12.53656
649.0082, 13.52232
649.4903, 14.08038
649.9724, 13.86187
650.4545, 13.66720
650.9366, 13.81519
651.4188, 14.13811
651.9009, 14.48358
652.3830, 14.81963
652.8651, 15.14277
653.3472, 15.45616
653.8293, 15.72250
654.3115, 15.80807
654.7936, 15.65109
655.2757, 15.49328
655.7578, 15.20227
656.2399, 15.02773
656.7220, 15.14117
657.2042, 15.50663
657.6863, 16.01613
658.1684, 16.78597
658.6505, 17.45320
659.1326, 17.50426
659.6147, 17.17400
660.0969, 17.17215
660.5790, 17.66264
661.0611, 18.27551
661.5432, 18.72241
662.0253, 19.01494
662.5074, 19.24393
662.9896, 19.14919
663.4717, 19.23357
663.9538, 19.69428
664.4359, 20.32800
664.9180, 20.99267
665.4001, 21.63885
665.8823, 22.24339
666.3644, 22.79736
666.8465, 23.33994
667.3286, 23.95648
667.8107, 24.63048
668.2928, 25.18062
668.7750, 25.55325
669.2571, 25.97452
669.7392, 26.69602
670.2213, 27.65022
670.7034, 28.35290
671.1855, 28.45277
671.6677, 28.70942
672.1498, 29.39287
672.6319, 30.31693
673.1140, 31.41888
673.5961, 32.55833
674.0782, 33.36409
674.5604, 33.50018
675.0425, 33.22404
675.5246, 33.38707
676.0067, 34.09949
676.4888, 34.75523
676.9709, 35.20358
677.4531, 35.54755
677.9352, 35.90056
678.4173, 36.21489
678.8994, 36.34044
679.3815, 36.24031
679.8636, 35.93858
680.3458, 35.48752
680.8279, 34.97849
681.3100, 34.49107
681.7921, 34.05677
682.2742, 33.77563
682.7563, 33.77477
683.2385, 33.93697
683.7206, 33.64716
684.2027, 32.58944
684.6848, 31.76631
685.1669, 31.38772
685.6490, 31.21872
686.1312, 31.31438
686.6133, 31.51548
687.0954, 31.38798
687.5775, 30.63221
688.0596, 29.74113
688.5417, 29.09341
689.0239, 28.65151
689.5060, 28.38995
689.9881, 28.29944
690.4702, 28.16922
690.9523, 27.82405
691.4344, 27.31384
691.9166, 26.89244
692.3987, 26.62559
692.8808, 26.34503
693.3629, 26.14393
693.8450, 25.83819
694.3271, 25.18027
694.8093, 24.33086
695.2914, 23.70860
695.7735, 23.53555
696.2556, 23.52404
696.7377, 23.53851
697.2198, 23.46358
697.7020, 22.72723
698.1841, 21.18851
698.6662, 19.81140
699.1483, 19.33800
699.6304, 19.50249
700.1125, 19.30051
700.5947, 18.39523
701.0768, 17.63741
701.5589, 17.08586
702.0410, 16.64104
702.5231, 16.28119
703.0052, 15.97279
703.4874, 15.70166
703.9695, 15.47513
704.4516, 15.16368
704.9337, 14.44885
705.4158, 13.46188
705.8979, 12.95476
706.3801, 13.07590
706.8622, 13.13997
707.3442, 12.71513
707.8264, 11.98573
708.3085, 11.44139
708.7906, 11.20049
709.2727, 10.83279
709.7548, 10.19588
710.2369, 9.537247
710.7191, 9.053726
711.2012, 8.637512
711.6833, 8.030106
712.1654, 7.146011
712.6475, 6.275711
713.1296, 5.812561
713.6118, 5.675461
714.0939, 5.443161
714.5760, 5.103302
715.0581, 4.657013
715.5402, 4.058258
716.0223, 3.394882
716.5045, 2.828308
716.9866, 2.380066
717.4687, 1.862686
717.9508, 1.275284
718.4329, 0.6020660
718.9150, 0.4198150
719.3972, 1.430038
719.8793, 1.793060
720.3614, 1.417053
720.8435, 0.9769740
721.3256, 1.157791
721.8077, 1.798294
722.2899, 2.259567
722.7720, 2.506409
723.2541, 2.845886
723.7362, 3.416473
724.2183, 4.059418
724.7004, 4.518997
725.1826, 4.799698
725.6647, 5.446869
726.1468, 6.900024
726.6289, 8.229660
727.1110, 9.081833
727.5931, 9.643326
728.0753, 10.11865
728.5574, 10.54250
729.0395, 10.86662
729.5216, 11.07486
730.0037, 11.11934
730.4858, 10.79192
730.9680, 10.07585
731.4501, 9.532410
731.9322, 9.297363
732.4143, 9.205399
732.8964, 9.231934
733.3785, 9.300629
733.8607, 9.048370
734.3428, 8.471680
734.8249, 7.601440
735.3070, 6.485809
735.7891, 5.030960
736.2712, 3.077789
736.7534, 0.7022550
737.2355, 1.899826
737.7176, 4.674438
738.1997, 7.574631
738.6818, 10.34769
739.1639, 13.08238
739.6461, 16.78313
740.1282, 21.56059
740.6103, 27.06638
741.0924, 33.04596
741.5745, 39.63521
742.0566, 47.06668
742.5388, 55.06494
743.0209, 64.72665
743.5030, 75.79019
743.9851, 88.91077
744.4672, 104.2821
744.9493, 121.9963
745.4315, 142.4589
745.9136, 165.5843
746.3957, 190.4510
746.8778, 216.9074
747.3599, 244.1510
747.8420, 269.4817
748.3242, 292.9151
748.8063, 315.2651
749.2884, 336.1948
749.7705, 357.5169
750.2526, 381.3301
750.7347, 407.5503
751.2169, 436.9888
751.6990, 468.7448
752.1811, 504.4754
752.6632, 544.0074
753.1453, 588.2381
753.6274, 637.2958
754.1096, 691.6708
754.5917, 753.0862
755.0738, 822.7307
755.5559, 900.2261
756.0380, 984.2998
756.5201, 1075.666
757.0023, 1177.071
757.4844, 1289.586
757.9665, 1407.638
758.4486, 1530.817
758.9307, 1653.442
759.4128, 1758.296
759.8950, 1861.534
760.3771, 1915.988
760.8592, 1919.847
761.3413, 1880.444
761.8234, 1787.909
762.3055, 1659.331
762.7877, 1513.594
763.2698, 1355.258
763.7519, 1202.209
764.2340, 1064.061
764.7161, 941.4764
765.1982, 836.3022
765.6804, 747.5659
766.1625, 673.9183
766.6446, 614.7235
767.1267, 567.4434
767.6088, 529.6245
768.0909, 501.1830
768.5731, 478.0316
769.0552, 460.1738
769.5373, 447.6411
770.0194, 440.2570
770.5015, 438.0126
770.9836, 442.0256
771.4658, 451.6290
771.9479, 463.6739
772.4300, 477.2209
772.9121, 492.6580
773.3942, 509.4505
773.8763, 528.5742
774.3585, 550.1582
774.8406, 575.1586
775.3227, 606.6874
775.8048, 646.5818
776.2869, 696.4003
776.7690, 759.1484
777.2512, 834.8185
777.7333, 925.1793
778.2154, 1034.975
778.6975, 1151.823
779.1796, 1283.293
779.6617, 1410.989
780.1439, 1508.843
780.6260, 1581.857
781.1081, 1600.515
781.5902, 1538.487
782.0723, 1439.288
782.5544, 1305.972
783.0366, 1163.396
783.5187, 1043.929
784.0008, 957.8393
784.4829, 904.2509
784.9650, 887.3677
785.4471, 899.3045
785.9293, 922.7651
786.4114, 958.0096
786.8935, 981.2415
787.3756, 987.1835
787.8577, 977.3251
788.3398, 949.9880
788.8220, 907.1709
789.3040, 866.4546
789.7861, 821.2208
790.2682, 787.2442
790.7504, 763.7607
791.2325, 753.6805
791.7146, 759.0511
792.1967, 779.6201
792.6788, 814.2518
793.1609, 862.4946
793.6431, 924.0563
794.1252, 996.8251
794.6073, 1083.406
795.0894, 1185.101
795.5715, 1303.922
796.0536, 1446.334
796.5358, 1615.078
797.0179, 1814.076
797.5000, 2050.823
797.9821, 2328.068
798.4642, 2612.743
798.9464, 2940.555
799.4285, 3212.829
799.9106, 3447.830
800.3927, 3582.018
800.8748, 3550.664
801.3569, 3367.222
801.8391, 3099.696
802.3212, 2717.075
802.8033, 2326.111
803.2854, 1962.390
803.7675, 1636.416
804.2496, 1362.635
804.7318, 1139.882
805.2139, 956.3358
805.6960, 807.8594
806.1781, 689.5471
806.6602, 596.7449
807.1423, 528.6445
807.6245, 478.2719
808.1066, 446.0802
808.5887, 427.0202
809.0708, 419.7398
809.5529, 423.3089
810.0350, 436.5470
810.5172, 459.8193
810.9993, 492.5240
811.4814, 532.0516
811.9635, 583.8744
812.4456, 646.2700
812.9277, 723.8092
813.4099, 820.4138
813.8920, 935.8256
814.3741, 1068.421
814.8562, 1222.063
815.3383, 1382.028
815.8204, 1551.235
816.3026, 1708.749
816.7847, 1815.459
817.2668, 1864.003
817.7489, 1840.071
818.2310, 1732.367
818.7131, 1565.472
819.1953, 1379.202
819.6774, 1165.707
820.1595, 980.4772
820.6416, 822.6226
821.1237, 692.1599
821.6058, 595.1547
822.0880, 522.5473
822.5701, 466.7957
823.0522, 427.3863
823.5343, 398.6031
824.0164, 384.3119
824.4985, 374.6902
824.9807, 367.9127
825.4628, 361.8977
825.9449, 355.9544
826.4270, 348.7984
826.9091, 337.3315
827.3912, 319.5592
827.8734, 297.6820
828.3555, 274.0925
828.8376, 248.9952
829.3197, 222.7481
829.8018, 195.5162
830.2839, 168.9403
830.7661, 143.7095
831.2482, 120.2670
831.7303, 99.12039
832.2124, 80.41669
832.6945, 63.64938
833.1766, 48.93500
833.6588, 36.24515
834.1409, 25.44958
834.6230, 16.71957
835.1051, 10.38104
835.5872, 6.255524
836.0693, 3.313354
836.5515, 0.8408200
837.0336, 0.1365360
837.5157, 2.066315
837.9978, 6.038940
838.4799, 11.60660
838.9620, 18.56421
839.4442, 26.45984
839.9263, 35.05777
840.4084, 45.14777
840.8905, 58.07156
841.3726, 73.44809
841.8547, 89.39386
842.3369, 105.9019
842.8190, 121.7326
843.3011, 137.0629
843.7832, 149.5519
844.2653, 156.8908
844.7474, 159.0586
845.2296, 154.0926
845.7117, 139.3152
846.1938, 121.0982
846.6759, 97.59100
847.1580, 73.15479
847.6401, 48.98962
848.1223, 26.17303
848.6044, 6.289856
849.0865, 10.44598
849.5686, 23.35916
850.0507, 31.29694
850.5328, 35.93790
851.0150, 39.25958
851.4971, 40.74014
851.9792, 38.87250
852.4613, 33.24750
852.9434, 24.67331
853.4255, 14.27829
853.9077, 1.318451
854.3898, 16.60748
854.8719, 39.52161
855.3540, 65.35220
855.8361, 93.61249
856.3182, 124.8511
856.8004, 160.0585
857.2825, 197.8815
857.7646, 234.3741
858.2467, 269.6547
858.7288, 303.0694
859.2109, 332.7128
859.6931, 362.7435
860.1752, 392.3667
860.6573, 424.5947
861.1394, 462.5841
861.6215, 506.8512
862.1036, 556.8712
862.5858, 612.1111
863.0679, 674.0475
863.5500, 742.0740
864.0321, 818.1758
864.5142, 903.5554
864.9963, 999.5707
865.4785, 1106.983
865.9606, 1226.099
866.4427, 1357.720
866.9248, 1504.847
867.4069, 1665.087
867.8890, 1834.253
868.3712, 2012.650
868.8533, 2173.035
869.3354, 2310.782
869.8175, 2405.264
870.2996, 2429.769
870.7817, 2384.396
871.2639, 2272.339
871.7459, 2067.414
872.2280, 1841.810
872.7101, 1582.877
873.1923, 1330.692
873.6744, 1102.405
874.1565, 901.3004
874.6386, 729.8792
875.1207, 592.3324
875.6028, 477.2321
876.0850, 386.3766
876.5671, 311.8977
877.0492, 250.5638
877.5313, 200.6677
878.0134, 160.7726
878.4955, 130.1624
878.9777, 107.1964
879.4598, 91.73163
879.9419, 81.93130
880.4240, 75.16943
880.9061, 71.41470
881.3882, 71.10126
881.8704, 74.14307
882.3525, 78.42746
882.8346, 82.65707
883.3167, 87.22513
883.7988, 92.58899
884.2809, 98.45346
884.7631, 107.6234
885.2452, 120.3397
885.7273, 135.6914
886.2094, 153.3102
886.6915, 173.4786
887.1736, 196.0593
887.6558, 221.2212
888.1379, 252.3271
888.6200, 289.7440
889.1021, 332.5963
889.5842, 380.1221
890.0663, 433.8620
890.5485, 496.0403
891.0306, 564.8671
891.5127, 638.4316
891.9948, 717.0753
892.4769, 790.7177
892.9590, 861.7613
893.4412, 917.3975
893.9233, 946.0817
894.4054, 948.0065
894.8875, 920.5010
895.3696, 865.4639
895.8517, 792.8077
896.3339, 708.0184
896.8160, 618.0850
897.2981, 535.1177
897.7802, 459.6935
898.2623, 394.6346
898.7444, 340.4831
899.2266, 296.0038
899.7087, 260.8858
900.1908, 233.7990
900.6729, 213.1246
901.1550, 199.0370
901.6371, 188.0692
902.1193, 181.3801
902.6014, 175.5979
903.0835, 171.4323
903.5656, 166.6151
904.0477, 159.9484
904.5298, 151.4841
905.0120, 141.2612
905.4941, 128.7097
905.9762, 116.1605
906.4583, 104.3047
906.9404, 92.33353
907.4225, 79.08344
907.9047, 65.89828
908.3868, 54.24881
908.8689, 44.58820
909.3510, 36.91321
909.8331, 31.47766
910.3152, 28.08029
910.7974, 26.62695
911.2795, 26.98761
911.7616, 28.97556
912.2437, 32.22125
912.7258, 36.48312
913.2079, 41.65991
913.6901, 47.70366
914.1722, 54.63107
914.6543, 62.39453
915.1364, 70.74448
915.6185, 79.66782
916.1006, 89.66190
916.5828, 100.9486
917.0649, 113.2483
917.5470, 126.4647
918.0291, 140.5166
918.5112, 155.0302
918.9933, 169.5431
919.4755, 186.0653
919.9576, 205.9568
920.4397, 225.9282
920.9218, 244.2858
921.4039, 262.3624
921.8860, 281.9812
922.3682, 303.0246
922.8503, 322.3239
923.3324, 339.9419
923.8145, 355.0947
924.2966, 368.4615
924.7787, 378.4133
925.2609, 384.1006
925.7430, 385.2202
926.2251, 381.4063
926.7072, 372.5439
927.1893, 358.9002
927.6714, 339.2153
928.1536, 316.2448
928.6357, 291.3683
929.1178, 265.5907
929.5999, 240.2190
930.0820, 215.5415
930.5641, 191.7064
931.0463, 168.7087
931.5284, 147.2062
932.0105, 128.5817
932.4926, 112.5082
932.9747, 97.58328
933.4568, 83.79257
933.9390, 71.84885
934.4211, 62.17256
934.9032, 53.90646
935.3853, 46.18875
935.8674, 39.05888
936.3495, 32.74580
936.8317, 27.24771
937.3138, 22.57535
937.7959, 18.93138
938.2780, 15.61440
938.7601, 12.06853
939.2422, 8.688904
939.7244, 6.243164
940.2065, 4.937103
940.6886, 3.343719
941.1707, 1.091888
941.6528, 0.9292300
942.1349, 2.653763
942.6171, 4.015381
943.0992, 4.796356
943.5813, 5.205856
944.0634, 5.775391
944.5455, 6.715088
945.0276, 7.390091
945.5098, 7.498383
945.9919, 7.366333
946.4740, 6.941437
946.9561, 6.546432
947.4382, 6.723633
947.9203, 7.400009
948.4025, 7.891678
948.8846, 7.815353
949.3667, 7.480331
949.8488, 7.099350
950.3309, 6.706589
950.8130, 6.370911
951.2952, 6.080795
951.7773, 5.798111
952.2594, 5.506088
952.7415, 5.182884
953.2236, 4.827866
953.7057, 4.410522
954.1878, 3.836655
954.6699, 3.125542
955.1520, 2.318527
955.6342, 1.426498
956.1163, 0.9318390
956.5984, 1.156784
957.0805, 1.570854
957.5626, 1.271370
958.0447, 0.2803960
958.5269, 0.4011150
959.0090, 0.6929020
959.4911, 0.9780650
959.9732, 1.247047
960.4553, 1.760956
960.9374, 2.859512
961.4196, 4.271851
961.9017, 5.216560
962.3838, 5.530533
962.8659, 5.870331
963.3480, 6.212830
963.8301, 6.614754
964.3123, 6.923157
964.7944, 7.431107
965.2765, 8.598747
965.7586, 10.23013
966.2407, 11.40850
966.7228, 11.78822
967.2050, 12.19024
967.6871, 12.72281
968.1692, 13.39394
968.6513, 14.24133
969.1334, 15.21186
969.6155, 16.26896
970.0977, 17.39081
970.5798, 18.50883
971.0619, 19.70038
971.5440, 20.70660
972.0261, 21.08434
972.5082, 21.41677
972.9904, 22.36650
973.4725, 23.79002
973.9546, 25.25160
974.4367, 26.61746
974.9188, 28.03487
975.4009, 29.57977
975.8831, 31.27829
976.3652, 33.23345
976.8473, 35.34475
977.3294, 37.35735
977.8115, 39.29925
978.2936, 41.44584
978.7758, 43.93526
979.2579, 46.57509
979.7400, 49.32028
980.2221, 51.96329
980.7042, 53.88795
981.1863, 55.05699
981.6685, 55.08575
982.1506, 53.90356
982.6327, 51.87810
983.1148, 49.17344
983.5969, 46.15473
984.0790, 43.43042
984.5612, 41.00158
985.0433, 39.17800
985.5254, 38.01977
986.0075, 37.13743
986.4896, 36.42885
986.9717, 35.97396
987.4539, 35.90017
987.9360, 36.07037
988.4181, 36.03376
988.9002, 35.67372
989.3823, 35.54150
989.8644, 35.78207
990.3466, 35.96706
990.8287, 35.90433
991.3108, 35.79388
991.7929, 35.81588
992.2750, 35.95675
992.7571, 36.13772
993.2393, 36.28967
993.7214, 36.60695
994.2035, 37.31914
994.6856, 37.92751
995.1677, 38.19041
995.6498, 38.28985
996.1320, 38.33131
996.6141, 38.36462
997.0962, 38.66330
997.5783, 39.62354
998.0604, 40.26770
998.5425, 40.00798
999.0247, 39.60456
999.5068, 39.41122
999.9889, 39.44843
1000.471, 39.92858
1000.953, 40.78170
1001.435, 41.10780
1001.917, 40.27892
1002.399, 39.16341
1002.882, 37.97570
1003.364, 37.01727
1003.846, 36.76952
1004.328, 36.90396
1004.810, 36.71551
1005.292, 36.01633
1005.774, 35.19308
1006.256, 34.50160
1006.739, 33.86876
1007.221, 33.22615
1007.703, 32.58801
1008.185, 31.97953
1008.667, 31.38752
1009.149, 30.77100
1009.631, 30.11932
1010.113, 29.47485
1010.595, 28.89854
1011.078, 28.33124
1011.560, 27.63548
1012.042, 26.90432
1012.524, 26.37069
1013.006, 26.02730
1013.488, 25.69805
1013.970, 25.27695
1014.452, 24.73284
1014.935, 23.99178
1015.417, 23.23359
1015.899, 22.88136
1016.381, 22.85095
1016.863, 22.92276
1017.345, 23.02334
1017.827, 22.71041
1018.309, 21.74915
1018.791, 20.65446
1019.274, 20.11039
1019.756, 20.00352
1020.238, 19.88902
1020.720, 19.76512
1021.202, 19.54279
1021.684, 19.20249
1022.166, 18.87180
1022.648, 18.62986
1023.130, 18.47050
1023.613, 18.36845
1024.095, 18.30759
1024.577, 18.25272
1025.059, 18.21151
1025.541, 18.10820
1026.023, 17.92091
1026.505, 17.69252
1026.987, 17.42384
1027.469, 17.19221
1027.952, 17.18177
1028.434, 17.41470
1028.916, 17.28648
1029.398, 16.64930
1029.880, 16.13424
1030.362, 15.87730
1030.844, 15.73483
1031.326, 15.63679
1031.809, 15.57008
1032.291, 15.50738
1032.773, 15.45117
1033.255, 15.38040
1033.737, 15.23980
1034.219, 15.21758
1034.701, 15.38749
1035.183, 15.60838
1035.666, 15.86685
1036.148, 16.07057
1036.630, 15.98564
1037.112, 15.52721
1037.594, 15.25492
1038.076, 15.29874
1038.558, 15.31951
1039.040, 15.27561
1039.522, 15.17491
1040.005, 15.03608
1040.487, 14.83767
1040.969, 14.46932
1041.451, 13.82036
1041.933, 13.57695
1042.415, 14.10042
1042.897, 14.53545
1043.379, 14.70423
1043.861, 14.75681
1044.344, 14.83960
1044.826, 14.86520
1045.308, 14.59978
1045.790, 13.96621
1046.272, 13.53548
1046.754, 13.55569
1047.236, 13.53573
1047.718, 13.30894
1048.201, 13.03049
1048.683, 12.79365
1049.165, 12.59329
1049.647, 12.39192
1050.129, 12.18050
1050.611, 12.04171
1051.093, 12.08933
1051.575, 12.07918
1052.057, 11.84922
1052.540, 11.62866
1053.022, 11.59459
1053.504, 11.67916
1053.986, 11.57867
1054.468, 11.22989
1054.950, 11.69948
1055.432, 14.60489
1055.914, 16.57246
1056.396, 15.89606
1056.879, 14.39444
1057.361, 13.08503
1057.843, 12.08453
1058.325, 11.39327
1058.807, 11.00678
1059.289, 10.82426
1059.771, 10.89359
1060.253, 11.04651
1060.736, 11.29099
1061.218, 11.53085
1061.700, 11.59426
1062.182, 11.65185
1062.664, 12.05399
1063.146, 12.81754
1063.628, 13.43578
1064.110, 13.39064
1064.593, 13.63837
1065.075, 14.29485
1065.557, 15.67639
1066.039, 18.50441
1066.521, 21.98468
1067.003, 25.49902
1067.485, 28.61024
1067.967, 29.41344
1068.449, 26.35964
1068.932, 22.33648
1069.414, 17.63284
1069.896, 13.43745
1070.378, 10.69611
1070.860, 9.000008
1071.342, 7.785088
1071.824, 6.914726
1072.306, 6.273033
1072.788, 5.866776
1073.271, 5.559349
1073.753, 5.334686
1074.235, 5.139496
1074.717, 4.941650
1075.199, 4.751457
1075.681, 4.591072
1076.163, 4.439079
1076.645, 4.231987
1077.127, 3.927353
1077.610, 3.684380
1078.092, 3.555649
1078.574, 3.532440
1079.056, 3.710381
1079.538, 3.935081
1080.020, 4.053337
1080.502, 4.048027
1080.984, 3.925629
1081.467, 3.668755
1081.949, 3.406235
1082.431, 3.135277
1082.913, 2.949951
1083.395, 2.908073
1083.877, 2.967842
1084.359, 3.244484
1084.841, 3.574615
1085.323, 3.479256
1085.806, 2.775322
1086.288, 2.282433
1086.770, 2.445229
1087.252, 2.756813
1087.734, 3.084846
1088.216, 3.310509
1088.698, 3.344147
1089.180, 3.223129
1089.662, 2.993172
1090.145, 2.654419
1090.627, 2.383163
1091.109, 2.201797
1091.591, 2.176697
1092.073, 2.525764
1092.555, 2.862144
1093.037, 2.839394
1093.519, 2.583351
1094.002, 2.327667
1094.484, 2.119446
1094.966, 2.021889
1095.448, 2.163857
1095.930, 2.241402
1096.412, 2.139626
1096.894, 1.981987
1097.376, 1.795380
1097.859, 1.631477
1098.341, 1.629189
1098.823, 1.735153
1099.305, 1.528725
1099.787, 0.6017380
1100.269, 2.1194000E-02
1100.751, 0.2854160
1101.233, 0.6912000
1101.715, 1.115837
1102.198, 1.369102
1102.680, 1.154434
1103.162, 0.5487980
1103.644, 7.5478002E-02
1104.126, 0.7728500
1104.608, 1.141388
1105.090, 0.8087080
1105.572, 0.4978100
1106.054, 0.5822750
1106.537, 0.6859590
1107.019, 0.4445190
1107.501, 1.1719000E-02
1107.983, 0.3536220
1108.465, 0.5608440
1108.947, 0.6085740
1109.429, 0.3066640
1109.911, 0.1202700
1110.394, 0.2313540
1110.876, 0.3858570
1111.358, 0.4722600
1111.840, 0.4866100
1112.322, 0.4161000
1112.804, 0.2578130
1113.286, 7.7499002E-02
1113.768, 0.1801910
1114.250, 0.3747410
1114.733, 0.5005110
1115.215, 0.5511550
1115.697, 0.4768750
1116.179, 0.3675840
1116.661, 0.3158870
1117.143, 0.3205410
1117.625, 0.3821640
1118.107, 0.5617290
1118.589, 0.6445310
1119.072, 0.5698240
1119.554, 0.5169750
1120.036, 0.5596010
1120.518, 0.6208880
1121.000, 0.6808170
1121.482, 0.6734310
1121.964, 0.3426670
1122.446, 0.4519040
1122.929, 0.6569600
1123.411, 5.4793999E-02
1123.893, 0.3764880
1124.375, 0.3619770
1124.857, 0.3659440
1125.339, 0.7284320
1125.821, 1.187737
1126.303, 1.290520
1126.786, 1.051514
1127.268, 0.6855160
1127.750, 0.1559600
1128.232, 0.1490710
1128.714, 0.1668090
1129.196, 9.4990004E-03
1129.678, 0.3036650
1130.160, 0.5768360
1130.642, 0.5626220
1131.125, 0.3642270
1131.607, 0.3488620
1132.089, 0.5066990
1132.571, 0.7357560
1133.053, 1.020119
1133.535, 0.9656680
1134.017, 0.4605330
1134.499, 9.9815004E-02
1134.981, 0.4343490
1135.464, 0.5008470
1135.946, 3.9085001E-02
1136.428, 0.7355040
1136.910, 0.9366680
1137.392, 0.6577840
1137.874, 0.3758540
1138.356, 0.1924360
1138.838, 8.4899999E-02
1139.321, 4.2015001E-02
1139.803, 4.9004000E-02
1140.285, 0.1537630
1140.767, 0.2363890
1141.249, 2.7672000E-02
1141.731, 0.4429780
1142.213, 0.5972750
1142.695, 0.4793400
1143.177, 0.1613850
1143.660, 0.2949830
1144.142, 0.6367720
1144.624, 0.6926800
1145.106, 0.5364000
1145.588, 2.4329999E-02
1146.070, 0.4757690
1146.552, 0.3669590
1147.034, 4.9637001E-02
1147.516, 0.1628110
1147.999, 5.7792999E-02
1148.481, 0.2219540
1148.963, 0.1603320
1149.445, 5.6984000E-02
1149.927, 8.2970001E-02
1150.409, 8.9850999E-02
1150.891, 0.3740390
1151.373, 0.8524860
1151.856, 0.7083210
1152.338, 0.2017520
1152.820, 4.7286998E-02
1153.302, 0.3940280
1153.784, 0.6818920
1154.266, 0.6301040
1154.748, 0.6215590
1155.230, 0.4269260
1155.713, 0.7043000
1156.195, 2.770638
1156.677, 4.960869
1157.159, 4.804512
1157.641, 2.559258
1158.123, 0.9971160
1158.605, 0.7241060
1159.087, 0.3878100
1159.569, 0.3590770
1160.052, 0.8144000
1160.534, 0.6834870
1161.016, 0.3271330
1161.498, 0.1122590
1161.980, 0.5158840
1162.462, 0.6089320
1162.944, 0.3676680
1163.426, 0.2432860
1163.908, 0.2679900
1164.391, 0.2835160
1164.873, 0.2517320
1165.355, 0.2941820
1165.837, 0.4917760
1166.319, 0.7099080
1166.801, 0.7837830
1167.283, 0.7515950
1167.765, 0.7933350
1168.247, 0.9178310
1168.730, 0.9428410
1169.212, 0.8525310
1169.694, 0.7416690
1170.176, 0.6409840
1170.658, 0.6566770
1171.140, 0.8724060
1171.622, 1.174095
1172.104, 1.433319
1172.587, 1.612083
1173.069, 1.508209
1173.551, 1.217018
1174.033, 1.034897
1174.515, 1.025528
1174.997, 1.360359
1175.479, 2.061615
1175.961, 2.553741
1176.443, 2.269867
1176.926, 1.757164
1177.408, 1.677658
1177.890, 1.820992
1178.372, 1.941879
1178.854, 2.016357
1179.336, 2.031212
1179.818, 2.003166
1180.300, 2.038490
1180.782, 2.211914
1181.265, 2.269318
1181.747, 1.882439
1182.229, 1.542099
1182.711, 1.636284
1183.193, 1.878868
1183.675, 2.059265
1184.157, 2.127121
1184.639, 1.987480
1185.122, 1.645576
1185.604, 1.477783
1186.086, 1.687683
1186.568, 1.880363
1187.050, 2.100632
1187.532, 2.148193
1188.014, 1.727608
1188.496, 1.300545
1188.979, 1.380600
1189.461, 1.728661
1189.943, 1.679611
1190.425, 1.117569
1190.907, 0.8647770
1191.389, 1.051575
1191.871, 1.257584
1192.353, 1.432297
1192.835, 1.540924
1193.318, 1.569176
1193.800, 1.519119
1194.282, 1.349220
1194.764, 1.132446
1195.246, 1.143837
1195.728, 1.372856
1196.210, 1.549278
1196.692, 1.658195
1197.174, 1.738548
1197.657, 1.800598
1198.139, 1.834724
1198.621, 1.822662
1199.103, 1.807159
1199.585, 1.775833
1200.067, 1.802132
1200.549, 2.169838
1201.031, 2.659866
1201.514, 2.355736
1201.996, 1.761658
1202.478, 3.166435
1202.960, 6.700584
1203.442, 8.613480
1203.924, 6.178467
1204.406, 3.093369
1204.888, 1.847633
1205.370, 1.442238
1205.853, 1.451462
1206.335, 1.542259
1206.817, 1.266167
1207.299, 0.7934040
1207.781, 0.7084730
1208.263, 1.160988
1208.745, 1.433128
1209.227, 1.122009
1209.709, 0.9272540
1210.192, 1.008179
1210.674, 1.208931
1211.156, 1.679382
1211.638, 2.048157
1212.120, 1.820122
1212.602, 1.206528
1213.084, 1.043976
1213.566, 1.475334
1214.049, 1.653984
1214.531, 1.512985
1215.013, 1.378456
1215.495, 1.304596
1215.977, 1.278397
1216.459, 1.302010
1216.941, 1.308563
1217.423, 1.182152
1217.906, 0.9946440
1218.388, 1.011909
1218.870, 1.190453
1219.352, 1.245171
1219.834, 1.185379
1220.316, 1.165565
1220.798, 1.202354
1221.280, 1.221420
1221.762, 1.187729
1222.245, 1.143661
1222.727, 1.090187
1223.209, 1.088699
1223.691, 1.342873
1224.173, 1.591621
1224.655, 1.418480
1225.137, 0.9929430
1225.619, 0.6287690
1226.101, 0.4148100
1226.584, 0.4105220
1227.066, 0.7406850
1227.548, 1.025909
1228.030, 1.210854
1228.512, 1.269249
1228.994, 1.097816
1229.476, 0.8889770
1229.958, 0.8032150
1230.441, 0.7765880
1230.923, 0.6783750
1231.405, 0.5119550
1231.887, 0.4083250
1232.369, 0.3850170
1232.851, 0.3596950
1233.333, 0.3032070
1233.815, 0.3449400
1234.297, 0.5422290
1234.780, 0.7822110
1235.262, 1.010353
1235.744, 1.113747
1236.226, 0.8038020
1236.708, 0.2517320
1237.190, 0.2414550
1237.672, 0.6399460
1238.154, 0.9605330
1238.636, 1.121368
1239.119, 1.039436
1239.601, 0.7193530
1240.083, 0.3322910
1240.565, 4.3152001E-02
1241.047, 0.2934720
1241.529, 0.2892610
1242.011, 0.1280210
1242.493, 0.1725230
1242.975, 0.5123980
1243.458, 0.8408810
1243.940, 1.090286
1244.422, 1.128471
1244.904, 0.9485780
1245.386, 0.7310100
1245.868, 0.3838650
1246.350, 0.2452850
1246.832, 0.5209430
1247.315, 0.8289870
1247.797, 1.145111
1248.279, 1.341286
1248.761, 1.280220
1249.243, 1.088043
1249.725, 0.9741440
1250.207, 0.9345020
1250.689, 0.9127270
1251.172, 0.9008940
1251.654, 0.9947890
1252.136, 1.206627
1252.618, 1.327713
1253.100, 1.297188
1253.582, 1.277672
1254.064, 1.392189
1254.546, 1.472588
1255.028, 1.124596
1255.510, 0.6700740
1255.993, 0.9261700
1256.475, 1.517456
1256.957, 1.800873
1257.439, 1.818329
1257.921, 1.847115
1258.403, 1.921753
1258.885, 1.872726
1259.367, 1.598351
1259.850, 1.429100
1260.332, 1.559311
1260.814, 1.613785
1261.296, 1.550995
1261.778, 1.475922
1262.260, 1.414246
1262.742, 1.269432
1263.224, 1.356003
1263.707, 1.781212
1264.189, 1.813759
1264.671, 1.146492
1265.153, 0.8059160
1265.635, 0.8744430
1266.117, 1.089577
1266.599, 1.336533
1267.081, 1.404587
1267.563, 1.166267
1268.046, 0.9212270
1268.528, 1.054855
1269.010, 1.391479
1269.492, 1.609581
1269.974, 1.663933
1270.456, 1.554184
1270.938, 1.314903
1271.420, 0.9612200
1271.902, 0.5964580
1272.385, 0.5386430
1272.867, 0.9226000
1273.349, 1.381424
1273.831, 1.916130
1274.313, 2.224464
1274.795, 1.978127
1275.277, 1.644119
1275.759, 1.596443
1276.242, 1.557617
1276.724, 1.085724
1277.206, 0.3649600
1277.688, 1.9805999E-02
1278.170, 6.5254003E-02
1278.652, 0.3096080
1279.134, 0.8872220
1279.616, 1.203018
1280.099, 1.158440
1280.581, 1.042084
1281.063, 0.8542020
1281.545, 0.6153870
1282.027, 0.2974400
1282.509, 9.8110000E-03
1282.991, 0.1366120
1283.473, 0.2634120
1283.955, 0.0000000E+00
##END=



