##NAMES=Diopside
##RRUFFID=R060061
##IDEAL CHEMISTRY=CaMgSi_2_O_6_
##LOCALITY=Oka, near Montreal, Quebec, Canada
##OWNER=RRUFF
##SOURCE=University of Arizona Mineral Museum
##DESCRIPTION=Pale green prismatic single crystal
##STATUS=The identification of this mineral is confirmed by single-crystal X-ray diffraction and chemical analysis.
##URL=rruff.info/R060061
##MEASURED CHEMISTRY=(Ca_0.99_Mn_0.01_)_Σ=1_(Mg_0.92_Fe^2+^_0.06_Mn_0.02_)_Σ=1_(Si_1.99_Al_0.01_)_Σ=2_O_6_
107.1171, 0.0000000E+00
107.5992, 0.4819490
108.0813, 0.5475460
108.5634, 0.2317200
109.0455, 7.7209003E-02
109.5276, 3.9260998E-02
110.0098, 0.1716770
110.4919, 0.1865540
110.9740, 0.2955470
111.4561, 1.550079
111.9382, 2.722992
112.4203, 3.196655
112.9025, 3.037552
113.3846, 3.045349
113.8667, 3.671875
114.3488, 4.702667
114.8309, 5.841843
115.3130, 7.065384
115.7952, 8.349091
116.2773, 9.716202
116.7594, 11.23529
117.2415, 12.63028
117.7236, 13.68933
118.2057, 14.60068
118.6879, 15.58372
119.1700, 16.78711
119.6521, 18.17207
120.1342, 19.41061
120.6163, 20.37724
121.0984, 21.29446
121.5805, 22.16995
122.0627, 23.02887
122.5448, 23.90878
123.0269, 24.84497
123.5090, 25.84402
123.9911, 26.83725
124.4732, 27.54016
124.9554, 28.45435
125.4375, 29.91531
125.9196, 31.91577
126.4017, 34.16054
126.8838, 36.33241
127.3659, 38.39729
127.8481, 40.41708
128.3302, 42.28200
128.8123, 44.14423
129.2944, 46.15778
129.7765, 48.35168
130.2586, 50.75909
130.7408, 53.49934
131.2229, 56.56313
131.7050, 59.68335
132.1871, 62.49823
132.6692, 65.20055
133.1513, 68.57950
133.6335, 73.05634
134.1156, 78.17047
134.5977, 83.48903
135.0798, 89.04803
135.5619, 94.47624
136.0440, 99.60759
136.5262, 104.5582
137.0083, 108.4952
137.4904, 112.1971
137.9725, 114.2236
138.4546, 113.2164
138.9367, 108.7497
139.4189, 101.7648
139.9010, 93.80841
140.3831, 84.29913
140.8652, 74.86391
141.3473, 65.33028
141.8294, 56.18010
142.3116, 47.90784
142.7937, 40.70476
143.2758, 34.57585
143.7579, 29.36459
144.2400, 25.57245
144.7221, 22.28720
145.2043, 19.45926
145.6864, 17.04997
146.1685, 15.09047
146.6506, 13.62286
147.1327, 12.62035
147.6148, 11.57584
148.0969, 10.40025
148.5791, 9.278412
149.0612, 8.138733
149.5433, 7.055069
150.0254, 6.361237
150.5075, 6.413223
150.9896, 7.184509
151.4718, 7.801834
151.9539, 8.298477
152.4360, 8.603134
152.9181, 8.667145
153.4002, 8.472488
153.8823, 8.149765
154.3645, 7.762909
154.8466, 7.373672
155.3287, 7.058853
155.8108, 6.578522
156.2929, 6.051941
156.7750, 5.642990
157.2572, 5.174683
157.7393, 4.996704
158.2214, 5.248215
158.7035, 5.748840
159.1856, 6.228607
159.6677, 6.628754
160.1499, 6.948807
160.6320, 6.907379
161.1141, 6.033051
161.5962, 5.242355
162.0783, 4.931549
162.5604, 5.030472
163.0426, 5.255936
163.5247, 5.324707
164.0068, 5.172684
164.4889, 5.205444
164.9710, 5.647247
165.4531, 6.073837
165.9353, 6.278503
166.4174, 6.259384
166.8995, 6.159477
167.3816, 6.115814
167.8637, 6.022644
168.3458, 6.317436
168.8279, 7.315475
169.3101, 8.435074
169.7922, 9.203384
170.2743, 9.535492
170.7564, 9.754349
171.2385, 10.35567
171.7206, 11.57976
172.2028, 12.64592
172.6849, 13.40657
173.1670, 14.03234
173.6491, 14.73717
174.1312, 15.59858
174.6133, 16.48494
175.0955, 17.08109
175.5776, 17.29570
176.0597, 17.76070
176.5418, 18.78949
177.0239, 20.20110
177.5060, 21.63432
177.9882, 23.04879
178.4703, 24.33675
178.9524, 25.68490
179.4345, 27.26198
179.9166, 27.78748
180.3987, 25.90377
180.8809, 21.91082
181.3630, 18.33585
181.8451, 15.96299
182.3272, 14.22324
182.8093, 12.56709
183.2914, 10.95486
183.7736, 9.559883
184.2557, 8.586990
184.7378, 8.073456
185.2199, 7.690369
185.7020, 7.497314
186.1841, 7.338013
186.6663, 7.152618
187.1484, 6.923347
187.6305, 6.612579
188.1126, 6.091911
188.5947, 5.161301
189.0768, 4.584595
189.5589, 4.735123
190.0411, 5.045509
190.5232, 5.070755
191.0053, 4.688644
191.4874, 4.173470
191.9695, 4.081947
192.4516, 4.919868
192.9338, 5.341949
193.4159, 5.226723
193.8980, 4.754257
194.3801, 3.908966
194.8622, 2.711372
195.3443, 1.491776
195.8265, 1.009682
196.3086, 2.581589
196.7907, 3.370300
197.2728, 2.813126
197.7549, 1.639282
198.2370, 0.6392440
198.7192, 0.1418760
199.2013, 6.2870001E-03
199.6834, 0.1218640
200.1655, 0.2336200
200.6476, 0.3529890
201.1297, 0.4292220
201.6119, 0.5235210
202.0940, 0.7689360
202.5761, 1.252502
203.0582, 1.845894
203.5403, 2.123184
204.0224, 2.080132
204.5046, 2.041183
204.9867, 2.153618
205.4688, 2.283638
205.9509, 2.119850
206.4330, 1.427345
206.9151, 0.5277330
207.3973, 5.4024000E-02
207.8794, 0.1245800
208.3615, 0.2094650
208.8436, 5.3238001E-02
209.3257, 0.2645720
209.8078, 0.6103590
210.2899, 1.009468
210.7721, 1.445282
211.2542, 1.859863
211.7363, 2.212135
212.2184, 2.491081
212.7005, 2.667587
213.1826, 2.767700
213.6648, 3.066269
214.1469, 3.947113
214.6290, 4.847000
215.1111, 5.193268
215.5932, 4.867851
216.0753, 4.463890
216.5575, 4.740990
217.0396, 5.854187
217.5217, 6.608910
218.0038, 6.098976
218.4859, 5.507652
218.9680, 5.626823
219.4502, 6.609085
219.9323, 7.921982
220.4144, 8.897552
220.8965, 9.437874
221.3786, 9.963493
221.8607, 10.38344
222.3429, 10.90471
222.8250, 11.76692
223.3071, 12.99099
223.7892, 14.26155
224.2713, 15.01511
224.7534, 14.77674
225.2356, 15.17303
225.7177, 16.67859
226.1998, 18.46768
226.6819, 20.00909
227.1640, 21.17082
227.6461, 22.17046
228.1283, 23.31221
228.6104, 24.57167
229.0925, 26.06252
229.5746, 28.15198
230.0567, 30.19393
230.5388, 31.86116
231.0210, 33.02409
231.5031, 33.60802
231.9852, 33.47742
232.4673, 32.30542
232.9494, 30.95062
233.4315, 29.56490
233.9137, 27.92886
234.3958, 25.65542
234.8779, 22.73625
235.3600, 19.74619
235.8421, 17.48093
236.3242, 16.21004
236.8064, 15.20905
237.2885, 14.86256
237.7706, 14.54937
238.2527, 13.49398
238.7348, 11.59489
239.2169, 9.760605
239.6991, 9.233231
240.1812, 10.53946
240.6633, 11.39600
241.1454, 11.54247
241.6275, 11.32105
242.1096, 10.91486
242.5918, 10.36768
243.0739, 9.951843
243.5560, 10.02320
244.0381, 10.62863
244.5202, 11.28339
245.0023, 12.10717
245.4845, 12.88140
245.9666, 13.31928
246.4487, 13.36871
246.9308, 13.31488
247.4129, 13.33392
247.8950, 13.44881
248.3772, 13.91689
248.8593, 15.22722
249.3414, 16.69653
249.8235, 17.45562
250.3056, 17.37891
250.7877, 17.10828
251.2698, 17.23936
251.7520, 17.61515
252.2341, 17.72665
252.7162, 17.52637
253.1983, 16.97990
253.6804, 15.94473
254.1625, 14.35133
254.6447, 12.67069
255.1268, 11.07779
255.6089, 9.636238
256.0910, 8.492729
256.5731, 7.862587
257.0552, 7.428955
257.5374, 6.741600
258.0195, 5.757912
258.5016, 4.746696
258.9837, 3.933197
259.4658, 3.157822
259.9479, 2.142792
260.4301, 0.5605850
260.9122, 0.9756700
261.3943, 1.425941
261.8764, 0.5071110
262.3585, 0.2634890
262.8406, 4.1678999E-02
263.3228, 0.5989760
263.8049, 1.176453
264.2870, 1.534988
264.7691, 1.771957
265.2512, 2.137253
265.7333, 2.763802
266.2155, 3.083679
266.6976, 2.453613
267.1797, 1.658592
267.6618, 1.358849
268.1439, 1.731735
268.6260, 2.227715
269.1082, 2.096931
269.5903, 1.187569
270.0724, 0.4601900
270.5545, 0.3890530
271.0366, 0.3919750
271.5187, 0.1188890
272.0009, 0.4821170
272.4830, 1.221825
272.9651, 1.892227
273.4472, 2.468445
273.9293, 3.117081
274.4114, 3.989723
274.8936, 4.841911
275.3757, 5.594139
275.8578, 6.220497
276.3399, 6.710312
276.8220, 6.990257
277.3041, 7.011467
277.7863, 7.173935
278.2684, 7.606964
278.7505, 8.091454
279.2326, 8.682518
279.7147, 9.282852
280.1968, 9.651665
280.6789, 9.536873
281.1610, 8.923653
281.6432, 8.326538
282.1253, 7.877106
282.6074, 7.306084
283.0895, 6.309555
283.5716, 5.120239
284.0537, 4.241821
284.5359, 4.095329
285.0180, 4.601051
285.5001, 4.836716
285.9822, 4.565491
286.4643, 4.264496
286.9464, 3.980339
287.4286, 3.750519
287.9107, 3.594238
288.3928, 3.507111
288.8749, 3.531937
289.3570, 3.885315
289.8391, 5.068558
290.3213, 5.920265
290.8034, 5.919434
291.2855, 5.636185
291.7676, 5.790794
292.2497, 6.718216
292.7318, 8.062164
293.2140, 8.852440
293.6961, 8.318008
294.1782, 8.468071
294.6603, 9.800537
295.1424, 11.63324
295.6245, 13.39412
296.1067, 14.89568
296.5888, 16.29170
297.0709, 17.87025
297.5530, 19.78815
298.0351, 21.58098
298.5172, 22.94701
298.9994, 24.40689
299.4815, 26.33416
299.9636, 28.78744
300.4457, 31.57541
300.9278, 34.51482
301.4099, 37.70146
301.8921, 40.73029
302.3742, 43.60336
302.8563, 46.38039
303.3384, 49.12503
303.8205, 51.82465
304.3026, 54.37575
304.7848, 56.66476
305.2669, 58.68434
305.7490, 60.69936
306.2311, 62.26583
306.7132, 64.26814
307.1953, 67.40115
307.6775, 71.23019
308.1596, 74.77707
308.6417, 77.33125
309.1238, 78.99874
309.6059, 80.90211
310.0880, 82.99136
310.5702, 85.39658
311.0523, 88.32351
311.5344, 91.53390
312.0165, 94.71810
312.4986, 97.71951
312.9807, 100.5950
313.4629, 103.6049
313.9450, 106.8455
314.4271, 110.0793
314.9092, 112.9569
315.3913, 115.9626
315.8734, 119.7178
316.3556, 124.4031
316.8377, 129.4618
317.3198, 133.9106
317.8019, 137.4826
318.2840, 140.8406
318.7661, 144.2928
319.2483, 147.2843
319.7304, 149.5812
320.2125, 151.0611
320.6946, 151.6663
321.1767, 151.4575
321.6588, 150.7221
322.1409, 147.8160
322.6230, 141.7322
323.1052, 134.7794
323.5873, 127.7462
324.0694, 120.7491
324.5515, 113.7904
325.0336, 106.7483
325.5157, 99.62125
325.9979, 92.75244
326.4800, 86.08836
326.9621, 79.78687
327.4442, 74.04115
327.9263, 68.72189
328.4084, 63.60333
328.8906, 58.54689
329.3727, 53.70665
329.8548, 49.72833
330.3369, 47.19159
330.8190, 44.88651
331.3011, 42.71548
331.7833, 40.70151
332.2654, 38.83817
332.7475, 37.13559
333.2296, 35.64899
333.7117, 34.54275
334.1938, 34.24562
334.6760, 33.49356
335.1581, 31.67103
335.6402, 29.88316
336.1223, 28.92938
336.6044, 28.88106
337.0865, 29.22910
337.5687, 29.41484
338.0508, 29.39523
338.5329, 29.41393
339.0150, 29.52914
339.4971, 29.62698
339.9792, 29.48763
340.4614, 29.27490
340.9435, 29.43408
341.4256, 30.41097
341.9077, 32.09106
342.3898, 33.03527
342.8719, 32.39028
343.3541, 31.95549
343.8362, 32.00342
344.3183, 32.51051
344.8004, 33.53211
345.2825, 35.13242
345.7646, 36.97980
346.2468, 38.16687
346.7289, 38.23714
347.2110, 38.48257
347.6931, 38.91840
348.1752, 39.65628
348.6573, 40.95836
349.1395, 42.83121
349.6216, 44.76759
350.1037, 46.10359
350.5858, 46.70204
351.0679, 47.13483
351.5500, 47.04287
352.0322, 47.11459
352.5143, 47.89000
352.9964, 49.22462
353.4785, 50.44725
353.9606, 50.91501
354.4427, 50.63630
354.9249, 50.41631
355.4070, 50.43536
355.8891, 50.28194
356.3712, 50.03661
356.8533, 49.50838
357.3354, 48.31525
357.8176, 46.10548
358.2997, 43.34966
358.7818, 41.22276
359.2639, 39.94324
359.7460, 38.72412
360.2281, 37.51558
360.7103, 36.17393
361.1924, 34.45558
361.6745, 32.28152
362.1566, 30.12873
362.6387, 28.60850
363.1208, 27.75591
363.6029, 26.93573
364.0851, 25.99651
364.5672, 25.17139
365.0493, 24.62711
365.5314, 24.32162
366.0135, 24.05898
366.4956, 23.62761
366.9778, 23.11864
367.4599, 22.95218
367.9420, 23.19052
368.4241, 23.62840
368.9062, 24.16008
369.3883, 24.81122
369.8705, 25.65944
370.3526, 26.90741
370.8347, 28.17828
371.3168, 28.84788
371.7989, 28.84194
372.2810, 28.86919
372.7632, 29.17226
373.2453, 29.68787
373.7274, 30.39462
374.2095, 31.35408
374.6916, 32.30482
375.1737, 32.83238
375.6559, 33.08560
376.1380, 33.90051
376.6201, 35.74441
377.1022, 37.81245
377.5843, 39.17627
378.0664, 39.92638
378.5486, 40.77623
379.0307, 41.98083
379.5128, 43.41961
379.9949, 44.91743
380.4770, 46.44820
380.9591, 48.09673
381.4413, 50.01909
381.9234, 52.13098
382.4055, 54.02946
382.8876, 55.43484
383.3697, 56.89101
383.8518, 58.82945
384.3340, 61.15321
384.8161, 63.59083
385.2982, 66.16338
385.7803, 68.54449
386.2624, 69.92451
386.7445, 70.29176
387.2267, 70.05652
387.7088, 69.35750
388.1909, 68.12862
388.6730, 66.26722
389.1551, 63.74240
389.6372, 60.61549
390.1194, 56.84857
390.6015, 52.31483
391.0836, 47.96851
391.5657, 43.66643
392.0478, 39.67770
392.5299, 36.37816
393.0121, 33.59135
393.4942, 30.65073
393.9763, 27.04346
394.4584, 23.01900
394.9405, 19.90099
395.4226, 18.39947
395.9048, 16.87785
396.3869, 14.99063
396.8690, 12.98890
397.3511, 11.06486
397.8332, 9.311409
398.3153, 7.890427
398.7975, 7.150017
399.2796, 7.648880
399.7617, 7.338890
400.2438, 5.441368
400.7259, 3.535789
401.2080, 2.588348
401.6902, 2.487167
402.1723, 2.539406
402.6544, 2.183380
403.1365, 1.471878
403.6186, 1.061699
404.1007, 1.200729
404.5828, 1.369972
405.0649, 1.653030
405.5471, 1.847794
406.0292, 1.634735
406.5113, 0.8911820
406.9934, 1.7097000E-02
407.4755, 0.4373020
407.9576, 0.1866530
408.4398, 4.9210000E-03
408.9219, 0.1464610
409.4040, 0.1468510
409.8861, 0.2174070
410.3682, 0.8402790
410.8503, 1.264030
411.3325, 1.008614
411.8146, 0.1838840
412.2967, 0.3759080
412.7788, 0.6374740
413.2609, 0.6727220
413.7430, 0.3121950
414.2252, 0.1670150
414.7073, 0.3488080
415.1894, 2.8357999E-02
415.6715, 0.4761890
416.1536, 0.7945330
416.6357, 0.9249040
417.1179, 0.8639980
417.6000, 0.4875790
418.0821, 2.3758000E-02
418.5642, 0.3485410
419.0463, 0.6244130
419.5284, 0.7370150
420.0106, 0.4746400
420.4927, 5.1337998E-02
420.9748, 9.4990004E-03
421.4569, 0.4069370
421.9390, 0.8680500
422.4211, 1.006706
422.9033, 0.9298930
423.3854, 0.9911730
423.8675, 1.477623
424.3496, 1.874115
424.8317, 1.721771
425.3138, 1.156479
425.7960, 0.6647260
426.2781, 0.4476470
426.7602, 0.3954850
427.2423, 0.2851030
427.7244, 5.2276999E-02
428.2065, 2.2307999E-02
428.6887, 0.2645260
429.1708, 0.6443180
429.6529, 0.8048930
430.1350, 0.7279660
430.6171, 0.6850050
431.0992, 0.9634320
431.5814, 1.569061
432.0635, 1.728226
432.5456, 1.174248
433.0277, 0.5715030
433.5098, 5.0400000E-04
433.9919, 0.4522090
434.4741, 0.6330800
434.9562, 0.4781270
435.4383, 0.1512760
435.9204, 6.9960002E-03
436.4025, 0.2039570
436.8846, 0.1942440
437.3668, 0.3943250
437.8489, 0.8775180
438.3310, 0.6961980
438.8131, 3.5477001E-02
439.2952, 0.7459030
439.7773, 0.9626240
440.2595, 0.7299190
440.7416, 0.4835970
441.2237, 0.1763530
441.7058, 7.1341999E-02
442.1879, 0.2631840
442.6700, 0.3709110
443.1522, 0.3705980
443.6343, 0.2544480
444.1164, 1.6845999E-02
444.5985, 0.4199750
445.0806, 1.081459
445.5627, 1.586807
446.0448, 1.890541
446.5269, 1.995033
447.0091, 1.838936
447.4912, 1.485268
447.9733, 1.164406
448.4554, 0.8907240
448.9375, 0.7612690
449.4196, 1.091095
449.9018, 1.963074
450.3839, 2.573441
450.8660, 2.282249
451.3481, 1.614830
451.8302, 1.552734
452.3123, 2.344254
452.7945, 3.091637
453.2766, 3.252640
453.7587, 3.049492
454.2408, 2.913483
454.7229, 2.931999
455.2050, 3.046150
455.6872, 3.232552
456.1693, 3.496246
456.6514, 3.637054
457.1335, 3.535385
457.6156, 3.420738
458.0977, 3.398567
458.5799, 3.469101
459.0620, 3.657211
459.5441, 3.993294
460.0262, 4.354118
460.5083, 4.428574
460.9904, 3.906662
461.4726, 3.569626
461.9547, 3.518494
462.4368, 3.573097
462.9189, 3.636375
463.4010, 3.680412
463.8831, 3.694786
464.3653, 3.672928
464.8474, 3.613098
465.3295, 3.480751
465.8116, 3.131844
466.2937, 2.936172
466.7758, 3.064262
467.2580, 3.327362
467.7401, 3.565544
468.2222, 3.698997
468.7043, 3.659096
469.1864, 3.282356
469.6685, 2.543785
470.1507, 2.170837
470.6328, 2.507469
471.1149, 2.898201
471.5970, 2.992767
472.0791, 2.841042
472.5612, 2.585678
473.0434, 2.202538
473.5255, 1.858582
474.0076, 1.871056
474.4897, 2.249641
474.9718, 2.621140
475.4539, 2.883408
475.9361, 3.022896
476.4182, 2.995575
476.9003, 2.784180
477.3824, 2.576889
477.8645, 2.461609
478.3466, 2.424011
478.8288, 2.413231
479.3109, 2.395828
479.7930, 2.370277
480.2751, 2.360069
480.7572, 2.377304
481.2393, 2.399490
481.7215, 2.380692
482.2036, 2.367004
482.6857, 2.293579
483.1678, 2.333931
483.6499, 2.751488
484.1320, 3.585144
484.6142, 4.532898
485.0963, 5.197510
485.5784, 5.477127
486.0605, 5.988297
486.5426, 6.963547
487.0247, 7.859673
487.5068, 8.451988
487.9890, 8.860313
488.4711, 9.275696
488.9532, 9.766800
489.4353, 10.30136
489.9174, 10.93486
490.3995, 11.82152
490.8817, 12.46458
491.3638, 12.45465
491.8459, 12.41774
492.3280, 12.68570
492.8101, 13.23362
493.2922, 13.83782
493.7744, 14.29568
494.2565, 14.77129
494.7386, 15.60162
495.2207, 16.78219
495.7028, 18.10254
496.1849, 19.71490
496.6671, 21.36324
497.1492, 22.55068
497.6313, 23.11045
498.1134, 23.71584
498.5955, 24.63810
499.0776, 25.81403
499.5598, 27.25448
500.0419, 28.96096
500.5240, 30.55527
501.0061, 31.61912
501.4882, 32.24030
501.9703, 33.50015
502.4525, 35.92995
502.9346, 38.29065
503.4167, 40.43065
503.8988, 42.17456
504.3809, 43.27592
504.8630, 43.66914
505.3452, 43.51033
505.8273, 43.01996
506.3094, 42.25045
506.7915, 40.86633
507.2736, 38.50908
507.7557, 35.93347
508.2379, 33.16138
508.7200, 30.37753
509.2021, 27.84375
509.6842, 25.67437
510.1663, 23.74948
510.6484, 21.81122
511.1306, 19.82105
511.6127, 18.14142
512.0948, 16.93040
512.5769, 15.95640
513.0590, 15.07420
513.5411, 14.29135
514.0233, 13.65673
514.5054, 13.23434
514.9875, 12.94358
515.4696, 12.72975
515.9517, 12.58637
516.4338, 12.35281
516.9160, 11.91651
517.3981, 11.42165
517.8802, 11.09824
518.3623, 10.93959
518.8444, 10.91389
519.3265, 11.12934
519.8087, 11.39395
520.2908, 11.60521
520.7729, 11.71795
521.2550, 11.56614
521.7371, 10.98471
522.2192, 10.15575
522.7014, 9.805756
523.1835, 10.43980
523.6656, 10.90926
524.1477, 11.01781
524.6298, 11.06403
525.1119, 11.30385
525.5941, 11.74057
526.0762, 12.20435
526.5583, 12.58563
527.0404, 12.86550
527.5225, 12.88461
528.0046, 12.45068
528.4868, 12.13319
528.9689, 12.25720
529.4510, 12.48013
529.9331, 12.46145
530.4152, 12.14393
530.8973, 11.81261
531.3795, 11.71534
531.8616, 11.79780
532.3437, 11.89820
532.8258, 12.00574
533.3079, 12.01292
533.7900, 11.80364
534.2722, 11.45661
534.7543, 11.24241
535.2364, 11.33369
535.7185, 11.26704
536.2006, 10.63551
536.6827, 9.818199
537.1649, 9.414413
537.6470, 9.501419
538.1291, 9.737770
538.6112, 9.834351
539.0933, 9.808380
539.5754, 9.772072
540.0576, 9.532761
540.5397, 9.496513
541.0218, 9.918358
541.5039, 10.47768
541.9860, 10.82603
542.4681, 10.88084
542.9503, 10.82099
543.4324, 10.84936
543.9145, 10.99122
544.3966, 11.18153
544.8787, 11.29681
545.3608, 11.42092
545.8430, 11.83102
546.3251, 12.31962
546.8072, 12.58050
547.2892, 12.45377
547.7714, 12.28046
548.2535, 12.46645
548.7356, 12.89124
549.2177, 13.07157
549.6998, 12.88988
550.1819, 12.61111
550.6641, 12.41190
551.1462, 12.30592
551.6283, 12.31409
552.1104, 12.49781
552.5925, 12.72733
553.0746, 12.99724
553.5568, 13.26456
554.0389, 13.49855
554.5210, 13.68181
555.0031, 13.72872
555.4852, 13.51419
555.9673, 13.00512
556.4495, 12.62583
556.9316, 12.53172
557.4137, 12.39292
557.8958, 12.08660
558.3779, 11.71770
558.8600, 11.40430
559.3422, 11.18298
559.8243, 11.03551
560.3064, 11.03604
560.7885, 11.15726
561.2706, 10.89772
561.7527, 9.968109
562.2349, 9.194664
562.7170, 9.377060
563.1991, 9.980209
563.6812, 10.15164
564.1633, 9.631958
564.6454, 8.954178
565.1276, 8.287369
565.6097, 7.731232
566.0918, 7.558022
566.5739, 7.818176
567.0560, 8.144890
567.5381, 8.227867
568.0203, 8.075218
568.5024, 7.893509
568.9845, 7.808563
569.4666, 7.542374
569.9487, 6.831047
570.4308, 6.016167
570.9130, 5.464081
571.3951, 5.241119
571.8772, 5.188919
572.3593, 5.162750
572.8414, 5.163116
573.3235, 5.229645
573.8057, 5.533089
574.2878, 5.586319
574.7699, 5.091660
575.2520, 4.369705
575.7341, 3.672745
576.2162, 3.043800
576.6984, 2.577850
577.1805, 2.438339
577.6626, 2.485130
578.1447, 2.360489
578.6268, 2.024864
579.1089, 1.885544
579.5911, 2.303139
580.0732, 3.012924
580.5553, 3.202347
581.0374, 2.638992
581.5195, 2.135605
582.0016, 1.939857
582.4838, 1.802376
582.9659, 1.454147
583.4480, 0.9278490
583.9301, 0.4687960
584.4122, 0.2417980
584.8943, 0.2145310
585.3765, 0.2986680
585.8586, 0.6653440
586.3407, 0.7788160
586.8228, 0.3027650
587.3049, 0.2022250
587.7870, 0.3591920
588.2692, 0.2145390
588.7513, 7.4294999E-02
589.2334, 0.1573940
589.7155, 0.2992940
590.1976, 0.1747210
590.6797, 0.2095110
591.1619, 0.4864200
591.6440, 0.5176010
592.1261, 0.4295580
592.6082, 0.4019780
593.0903, 0.4391250
593.5724, 0.3397060
594.0546, 0.1206210
594.5367, 0.5376280
595.0188, 0.5700680
595.5009, 0.3798830
595.9830, 0.3409040
596.4651, 0.5973130
596.9473, 0.9822310
597.4294, 1.257843
597.9115, 1.428833
598.3936, 1.469391
598.8757, 1.210808
599.3578, 0.9971470
599.8400, 0.8738940
600.3221, 0.8768540
600.8042, 1.175446
601.2863, 1.854942
601.7684, 2.313194
602.2505, 1.609322
602.7327, 8.2801998E-02
603.2148, 0.6185610
603.6969, 0.1661830
604.1790, 0.4198990
604.6611, 0.5144120
605.1432, 0.2136920
605.6254, 8.9446999E-02
606.1075, 0.3024140
606.5896, 0.6884000
607.0717, 1.600151
607.5538, 2.563889
608.0359, 3.043159
608.5181, 3.013916
609.0002, 2.744225
609.4823, 2.395203
609.9644, 2.025955
610.4465, 1.906998
610.9286, 2.194862
611.4108, 2.430557
611.8929, 2.449890
612.3750, 2.499603
612.8571, 2.708061
613.3392, 3.085968
613.8214, 3.643860
614.3035, 4.555443
614.7856, 5.454765
615.2677, 5.657440
615.7498, 5.226143
616.2319, 4.917038
616.7141, 4.915916
617.1962, 5.181549
617.6783, 5.797958
618.1604, 6.774071
618.6425, 7.364586
619.1246, 7.298500
619.6068, 7.099487
620.0889, 6.816933
620.5710, 6.623672
621.0531, 6.775261
621.5352, 7.332657
622.0173, 8.168289
622.4995, 9.232338
622.9816, 10.52551
623.4637, 11.21076
623.9458, 10.90045
624.4279, 10.60880
624.9100, 10.51479
625.3922, 10.65747
625.8743, 11.17864
626.3564, 12.08633
626.8385, 12.93747
627.3206, 13.31644
627.8027, 13.52639
628.2849, 14.16329
628.7670, 15.20585
629.2491, 16.06280
629.7311, 16.36794
630.2133, 16.48588
630.6954, 17.14220
631.1775, 18.66865
631.6596, 19.87136
632.1417, 20.48560
632.6238, 21.02988
633.1060, 21.77229
633.5881, 22.64641
634.0702, 23.43775
634.5523, 24.05771
635.0344, 24.77409
635.5165, 26.04260
635.9987, 27.88223
636.4808, 29.67037
636.9629, 31.43962
637.4450, 33.06329
637.9271, 34.23508
638.4092, 35.30426
638.8914, 36.78158
639.3735, 38.77728
639.8556, 41.05792
640.3377, 43.65477
640.8198, 46.40452
641.3019, 48.92908
641.7841, 51.30624
642.2662, 54.18811
642.7483, 58.00809
643.2304, 62.50769
643.7125, 66.92287
644.1946, 70.91078
644.6768, 75.47600
645.1589, 80.75475
645.6410, 86.38886
646.1231, 92.32073
646.6052, 98.45605
647.0873, 104.7217
647.5695, 111.1137
648.0516, 117.4587
648.5337, 123.2172
649.0158, 128.6389
649.4979, 135.4156
649.9800, 144.1906
650.4622, 152.8845
650.9443, 159.8215
651.4264, 165.4315
651.9085, 171.9144
652.3906, 179.8746
652.8727, 187.6743
653.3549, 194.4986
653.8370, 201.3735
654.3191, 209.1670
654.8012, 217.9516
655.2833, 227.4462
655.7654, 237.5389
656.2476, 248.0116
656.7297, 258.2439
657.2118, 268.0741
657.6939, 278.3120
658.1760, 289.0579
658.6581, 300.2142
659.1403, 311.8447
659.6224, 323.7286
660.1045, 335.4925
660.5866, 347.4298
661.0687, 358.3871
661.5508, 367.9070
662.0330, 375.8089
662.5151, 381.9577
662.9972, 386.2792
663.4793, 387.8597
663.9614, 385.9431
664.4435, 380.7462
664.9257, 373.1974
665.4078, 363.3177
665.8899, 350.9022
666.3720, 335.0102
666.8541, 317.7193
667.3362, 299.6711
667.8184, 281.3060
668.3005, 263.2910
668.7826, 246.0138
669.2647, 229.0747
669.7468, 211.6584
670.2289, 194.0048
670.7111, 178.0424
671.1932, 164.2467
671.6753, 151.6700
672.1574, 139.4117
672.6395, 127.5948
673.1216, 117.1439
673.6038, 108.6804
674.0859, 100.6230
674.5680, 92.19145
675.0501, 84.41685
675.5322, 78.54194
676.0143, 74.26824
676.4965, 70.18228
676.9786, 65.32211
677.4607, 60.28212
677.9428, 56.44133
678.4249, 53.91582
678.9070, 51.03931
679.3892, 47.28482
679.8713, 43.60756
680.3534, 40.69701
680.8355, 38.48248
681.3176, 36.76249
681.7997, 36.01578
682.2819, 34.89848
682.7640, 32.46672
683.2461, 29.65331
683.7282, 27.47659
684.2103, 26.00888
684.6924, 24.91185
685.1746, 23.99115
685.6567, 23.16272
686.1388, 22.19377
686.6209, 21.03514
687.1030, 19.92181
687.5851, 18.76274
688.0673, 17.77569
688.5494, 17.20334
689.0315, 16.86190
689.5136, 16.33609
689.9957, 15.41962
690.4778, 14.59038
690.9600, 14.36562
691.4421, 14.33855
691.9242, 13.72495
692.4063, 12.54165
692.8884, 11.58252
693.3705, 11.37732
693.8527, 11.63874
694.3348, 11.56826
694.8169, 10.98156
695.2990, 10.47649
695.7811, 9.988205
696.2632, 9.652046
696.7454, 9.649956
697.2275, 9.807663
697.7096, 9.829887
698.1917, 9.619659
698.6738, 9.324303
699.1559, 9.108917
699.6381, 8.882072
700.1202, 8.365448
700.6023, 7.562141
701.0844, 6.910194
701.5665, 6.661194
702.0486, 6.684792
702.5308, 6.712898
703.0129, 6.804657
703.4950, 6.742790
703.9771, 6.315460
704.4592, 5.980682
704.9413, 6.051025
705.4235, 6.285576
705.9056, 6.297112
706.3877, 5.978889
706.8698, 5.632172
707.3519, 5.517250
707.8340, 5.578293
708.3162, 5.607307
708.7983, 5.597542
709.2804, 5.999115
709.7625, 7.216835
710.2446, 8.505386
710.7267, 8.555603
711.2089, 6.893448
711.6909, 6.002228
712.1730, 6.486206
712.6552, 7.005608
713.1373, 7.209213
713.6194, 7.105698
714.1015, 6.642342
714.5836, 5.864853
715.0657, 5.108368
715.5479, 4.770760
716.0300, 4.620323
716.5121, 3.958107
716.9942, 2.773270
717.4763, 1.798729
717.9584, 1.262939
718.4406, 1.024200
718.9227, 0.9975810
719.4048, 1.198112
719.8869, 1.195709
720.3690, 0.7292100
720.8511, 0.3925860
721.3333, 0.4905620
721.8154, 0.7090530
722.2975, 0.6923140
722.7796, 0.4453660
723.2617, 0.2508700
723.7438, 0.3331830
724.2260, 0.5388490
724.7081, 0.5493620
725.1902, 0.3694460
725.6723, 0.1668170
726.1544, 5.8159001E-02
726.6365, 0.2020800
727.1187, 0.1019290
727.6008, 0.1630860
728.0829, 0.1320880
728.5650, 0.5322490
729.0471, 0.9733120
729.5292, 0.9000630
730.0114, 0.6709290
730.4935, 0.5713040
730.9756, 0.5649800
731.4577, 0.4209060
731.9398, 4.4999999E-04
732.4219, 0.3931660
732.9041, 0.1737750
733.3862, 0.5534590
733.8683, 0.8165360
734.3504, 0.4486010
734.8325, 9.8799998E-03
735.3146, 0.3020780
735.7968, 0.4541850
736.2789, 0.5384670
736.7610, 0.6125260
737.2431, 0.4497220
737.7252, 0.3375850
738.2073, 0.9916230
738.6895, 0.9708020
739.1716, 0.5762940
739.6537, 0.2947690
740.1358, 0.3008880
740.6179, 0.4081880
741.1000, 0.3940890
741.5822, 0.2784040
742.0643, 0.1257020
742.5464, 7.1869001E-02
743.0285, 0.1851430
743.5106, 0.1458820
743.9927, 4.8629999E-02
744.4749, 7.9299998E-04
744.9570, 2.4870001E-03
745.4391, 7.5553998E-02
745.9212, 0.2354130
746.4033, 0.3638000
746.8854, 0.3502880
747.3676, 0.3581010
747.8497, 0.6697460
748.3318, 1.212463
748.8139, 1.522057
749.2960, 1.156433
749.7781, 0.5539320
750.2603, 0.4974290
750.7424, 0.9140240
751.2245, 1.236969
751.7066, 1.360336
752.1887, 1.352989
752.6708, 1.171577
753.1530, 0.9392320
753.6351, 1.179405
754.1172, 2.454468
754.5993, 3.290993
755.0814, 3.422142
755.5635, 3.332901
756.0457, 3.285461
756.5278, 3.227867
757.0099, 2.948090
757.4920, 2.362404
757.9741, 1.877747
758.4562, 2.072258
758.9384, 2.607857
759.4205, 2.576805
759.9026, 1.972801
760.3847, 1.426857
760.8668, 1.180840
761.3489, 1.231987
761.8311, 1.634132
762.3132, 2.469543
762.7953, 3.058556
763.2774, 3.355995
763.7595, 3.453522
764.2416, 3.245468
764.7238, 2.927460
765.2059, 2.651970
765.6880, 2.441345
766.1701, 2.267731
766.6522, 2.057083
767.1343, 1.952751
767.6165, 2.281013
768.0986, 2.820419
768.5807, 2.885719
769.0628, 2.376472
769.5449, 1.960152
770.0270, 2.190498
770.5092, 2.826172
770.9913, 2.964149
771.4734, 2.258339
771.9555, 1.904877
772.4376, 2.142662
772.9197, 2.565224
773.4019, 3.195160
773.8840, 3.819786
774.3661, 4.088058
774.8482, 3.909431
775.3303, 3.533440
775.8124, 2.857460
776.2946, 2.218643
776.7767, 1.982819
777.2588, 2.094849
777.7409, 2.408524
778.2230, 2.857086
778.7051, 3.268066
779.1873, 3.443954
779.6694, 3.392540
780.1515, 3.200760
780.6336, 2.821045
781.1157, 2.433647
781.5978, 1.949699
782.0800, 1.622086
782.5621, 1.874901
783.0442, 2.546623
783.5263, 2.806908
784.0084, 2.002266
784.4905, 1.440079
784.9727, 1.871178
785.4548, 2.588493
785.9369, 2.911530
786.4190, 2.787041
786.9011, 2.483841
787.3832, 2.159630
787.8654, 1.863548
788.3475, 1.677574
788.8296, 1.573784
789.3117, 1.353088
789.7938, 0.9886170
790.2759, 0.7199940
790.7581, 0.6852260
791.2402, 0.7360310
791.7223, 0.7057650
792.2044, 0.5985340
792.6865, 0.6175840
793.1686, 0.9186710
793.6508, 1.101173
794.1328, 0.8878170
794.6149, 0.5907440
795.0970, 0.6409760
795.5792, 0.9646070
796.0613, 1.009575
796.5434, 0.3098680
797.0255, 0.4902500
797.5076, 0.5585020
797.9897, 0.1357270
798.4719, 0.1171490
798.9540, 9.6169002E-02
799.4361, 9.2240004E-03
799.9182, 1.2398000E-02
800.4003, 3.3675998E-02
800.8824, 0.1762700
801.3646, 0.5556950
801.8467, 0.5842670
802.3288, 0.1143880
802.8109, 0.6896900
803.2930, 0.7293170
803.7751, 0.4827270
804.2573, 0.2169110
804.7394, 4.4075001E-02
805.2215, 0.1222530
805.7036, 0.3258670
806.1857, 0.7083510
806.6678, 0.3922810
807.1500, 0.2466430
807.6321, 0.4793470
808.1142, 0.1954120
808.5963, 0.1283420
809.0784, 0.1083370
809.5605, 0.1745990
810.0427, 0.6011810
810.5248, 1.194862
811.0069, 1.349335
811.4890, 0.8110500
811.9711, 0.2788770
812.4532, 0.2712250
812.9354, 0.6179280
813.4175, 0.7796020
813.8996, 0.6408310
814.3817, 0.5985260
814.8638, 0.7806850
815.3459, 0.9491420
815.8281, 0.9303280
816.3102, 0.8502580
816.7923, 0.8870930
817.2744, 1.080475
817.7565, 1.361755
818.2386, 1.855850
818.7208, 2.294243
819.2029, 2.102554
819.6850, 1.511322
820.1671, 1.403984
820.6492, 1.972107
821.1313, 2.513603
821.6135, 2.400696
822.0956, 1.856575
822.5777, 1.790848
823.0598, 2.410942
823.5419, 2.839798
824.0240, 2.885315
824.5062, 2.894569
824.9883, 3.233253
825.4704, 3.583672
825.9525, 3.374016
826.4346, 2.448456
826.9167, 1.633904
827.3989, 1.072037
827.8810, 0.7912750
828.3631, 0.9821620
828.8452, 1.394363
829.3273, 1.673988
829.8094, 1.743301
830.2916, 1.688309
830.7737, 1.472511
831.2558, 1.332253
831.7379, 1.950600
832.2200, 3.194389
832.7021, 3.891708
833.1843, 3.812714
833.6664, 3.492119
834.1485, 3.218590
834.6306, 3.063927
835.1127, 3.255096
835.5948, 4.017311
836.0770, 4.526627
836.5591, 4.532661
837.0412, 4.573143
837.5233, 4.753029
838.0054, 5.087898
838.4875, 5.625145
838.9697, 6.356804
839.4518, 7.128662
839.9339, 7.938034
840.4160, 8.702217
840.8981, 9.413475
841.3802, 10.02093
841.8624, 10.35275
842.3445, 10.47082
842.8266, 10.73430
843.3087, 11.37978
843.7908, 12.22044
844.2729, 12.89041
844.7551, 13.41437
845.2372, 14.18311
845.7193, 15.27546
846.2014, 16.27012
846.6835, 16.96149
847.1656, 17.45663
847.6478, 17.80170
848.1299, 17.86583
848.6120, 18.82275
849.0941, 21.85995
849.5762, 24.18710
850.0583, 24.78714
850.5405, 24.89662
851.0226, 25.57922
851.5047, 26.66714
851.9868, 27.35038
852.4689, 27.34410
852.9510, 26.89944
853.4332, 25.99353
853.9153, 24.86953
854.3974, 23.73405
854.8795, 22.63528
855.3616, 21.77534
855.8438, 21.23909
856.3259, 20.75978
856.8080, 20.02547
857.2901, 19.08838
857.7722, 18.27531
858.2543, 17.62723
858.7365, 16.53384
859.2186, 14.59450
859.7007, 12.88134
860.1828, 12.44844
860.6649, 12.98814
861.1470, 13.08009
861.6292, 12.42606
862.1113, 11.83343
862.5934, 11.31905
863.0755, 10.82624
863.5576, 10.25474
864.0397, 9.702194
864.5219, 9.388786
865.0040, 9.337509
865.4861, 9.321274
865.9682, 9.224037
866.4503, 9.129921
866.9324, 9.259903
867.4146, 9.386269
867.8967, 9.013420
868.3788, 8.161491
868.8609, 7.388077
869.3430, 7.068878
869.8251, 6.976158
870.3073, 6.660210
870.7894, 6.158287
871.2715, 5.835114
871.7536, 5.713005
872.2357, 5.859161
872.7178, 6.416542
873.2000, 6.988861
873.6821, 6.945221
874.1642, 6.225883
874.6463, 5.806618
875.1284, 5.888863
875.6105, 5.961334
876.0927, 5.971275
876.5747, 5.937546
877.0568, 5.845901
877.5389, 5.708824
878.0211, 5.557869
878.5032, 5.384987
878.9853, 5.298637
879.4674, 5.520111
879.9495, 5.688103
880.4316, 5.420082
880.9138, 4.891411
881.3959, 4.417770
881.8780, 4.110954
882.3601, 4.002480
882.8422, 4.150314
883.3243, 4.448059
883.8065, 4.786789
884.2886, 5.150124
884.7707, 5.321152
885.2528, 5.297920
885.7349, 4.955307
886.2170, 4.110558
886.6992, 3.180054
887.1813, 3.089546
887.6634, 4.025391
888.1455, 4.630905
888.6276, 4.841995
889.1097, 4.827202
889.5919, 4.454865
890.0740, 4.058784
890.5561, 4.081894
891.0382, 4.443649
891.5203, 4.546608
892.0024, 4.181633
892.4846, 3.741341
892.9667, 3.115669
893.4488, 2.631065
893.9309, 2.650627
894.4130, 2.943336
894.8951, 3.026100
895.3773, 2.765755
895.8594, 2.534294
896.3415, 2.756432
896.8236, 3.042824
897.3057, 2.704010
897.7878, 2.069199
898.2700, 2.072968
898.7521, 2.819962
899.2342, 3.578697
899.7163, 3.832008
900.1984, 3.754478
900.6805, 3.690552
901.1627, 3.641563
901.6448, 3.526512
902.1269, 3.328423
902.6090, 3.214989
903.0911, 3.282867
903.5732, 3.326073
904.0554, 3.115959
904.5375, 2.653908
905.0196, 2.302925
905.5017, 2.162430
905.9838, 1.984093
906.4659, 1.541306
906.9481, 1.278984
907.4302, 1.590179
907.9123, 2.215546
908.3944, 2.655052
908.8765, 2.847839
909.3586, 2.859200
909.8408, 2.552521
910.3229, 2.250717
910.8050, 2.208260
911.2871, 2.251289
911.7692, 2.114349
912.2513, 1.803329
912.7335, 1.536140
913.2156, 1.409897
913.6977, 1.443253
914.1798, 1.747505
914.6619, 2.191750
915.1440, 2.547516
915.6262, 2.787659
916.1083, 2.902985
916.5904, 2.890015
917.0725, 2.746758
917.5546, 2.433861
918.0367, 2.009125
918.5189, 1.761314
919.0010, 1.702377
919.4831, 1.664970
919.9652, 1.622902
920.4473, 1.580467
920.9294, 1.518013
921.4116, 1.485382
921.8937, 1.622757
922.3758, 2.028488
922.8579, 2.220360
923.3400, 1.813843
923.8221, 1.740494
924.3043, 2.807083
924.7864, 3.825706
925.2685, 3.594147
925.7506, 2.389412
926.2327, 1.541908
926.7148, 1.437050
927.1970, 1.385979
927.6791, 1.112137
928.1612, 0.8904040
928.6433, 0.9615630
929.1254, 1.198914
929.6075, 1.456497
930.0897, 1.667236
930.5718, 1.646370
931.0539, 1.096901
931.5360, 0.4820940
932.0181, 0.3511430
932.5002, 0.4761120
932.9824, 0.4317930
933.4645, 0.2059940
933.9466, 3.9900001E-03
934.4287, 0.1023180
934.9108, 4.4968002E-02
935.3929, 0.3504180
935.8751, 0.9482120
936.3572, 1.088951
936.8393, 0.7871090
937.3214, 0.5063170
937.8035, 0.3627850
938.2856, 0.2008440
938.7678, 0.1264270
939.2499, 0.5196380
939.7320, 0.6960300
940.2141, 0.6481400
940.6962, 0.3582760
941.1783, 0.4521870
941.6605, 0.8842090
942.1426, 0.3133010
942.6247, 0.4751280
943.1068, 0.5368960
943.5889, 5.7091001E-02
944.0710, 0.2964550
944.5532, 0.1650090
945.0353, 0.4681550
945.5174, 0.4233250
945.9995, 0.3190310
946.4816, 0.2666630
946.9637, 0.2754140
947.4459, 0.3726960
947.9280, 0.5563130
948.4101, 0.6850510
948.8922, 0.7566760
949.3743, 0.6971280
949.8564, 0.3429950
950.3386, 7.7499002E-02
950.8207, 0.3108060
951.3028, 0.3772280
951.7849, 0.4212490
952.2670, 0.4993060
952.7491, 0.5320280
953.2313, 0.4903490
953.7134, 0.3310090
954.1955, 0.2019880
954.6776, 0.8785250
955.1597, 0.9900590
955.6418, 0.4781950
956.1240, 2.8214000E-02
956.6061, 0.1184540
957.0882, 5.2260002E-03
957.5703, 5.4090000E-03
958.0524, 0.1249310
958.5345, 0.1822050
959.0166, 0.1719210
959.4987, 6.3781999E-02
959.9808, 0.1878590
960.4630, 0.2586670
960.9451, 0.2433010
961.4272, 1.081635
961.9093, 1.189705
962.3914, 0.2904360
962.8735, 0.1478350
963.3557, 8.3595000E-02
963.8378, 0.4805680
964.3199, 0.9968870
964.8020, 1.373756
965.2841, 1.125031
965.7662, 0.2620010
966.2484, 5.5305000E-02
966.7305, 1.206139
967.2126, 1.988380
967.6947, 2.203560
968.1768, 2.129036
968.6589, 1.577950
969.1411, 0.9796680
969.6232, 1.063049
970.1053, 1.924774
970.5874, 2.634171
971.0695, 2.862617
971.5516, 3.035156
972.0338, 3.474579
972.5159, 3.805107
972.9980, 3.492828
973.4801, 2.834496
973.9622, 2.519638
974.4443, 2.754204
974.9265, 3.330002
975.4086, 4.522896
975.8907, 5.610039
976.3728, 5.786278
976.8549, 5.499222
977.3370, 5.424637
977.8192, 5.625740
978.3013, 5.827248
978.7834, 5.882782
979.2655, 5.994789
979.7476, 6.392258
980.2297, 6.999779
980.7119, 7.777542
981.1940, 8.630028
981.6761, 9.123428
982.1582, 9.230568
982.6403, 9.684631
983.1224, 11.06494
983.6046, 12.79597
984.0867, 13.74683
984.5688, 14.03921
985.0509, 14.46844
985.5330, 15.06676
986.0151, 15.92520
986.4973, 17.08529
986.9794, 18.39635
987.4615, 19.71048
987.9436, 21.07967
988.4257, 22.71656
988.9078, 24.67995
989.3900, 26.37940
989.8721, 27.58672
990.3542, 29.24857
990.8363, 31.77414
991.3184, 34.81944
991.8005, 38.01090
992.2827, 41.36480
992.7648, 44.96162
993.2469, 48.74670
993.7290, 52.89676
994.2111, 57.45503
994.6932, 62.28614
995.1754, 67.18952
995.6575, 72.45464
996.1396, 78.51804
996.6217, 85.34286
997.1038, 92.23349
997.5859, 99.38325
998.0681, 106.3770
998.5502, 113.0070
999.0323, 119.7192
999.5144, 126.6481
999.9965, 133.8114
1000.479, 141.0790
1000.961, 148.5147
1001.443, 156.2772
1001.925, 164.8057
1002.407, 173.0633
1002.889, 180.0375
1003.371, 187.2244
1003.853, 195.9153
1004.336, 205.6922
1004.818, 215.8194
1005.300, 226.0813
1005.782, 236.3803
1006.264, 246.7240
1006.746, 257.0390
1007.228, 267.3093
1007.710, 277.4738
1008.193, 287.7669
1008.675, 297.7903
1009.157, 307.1034
1009.639, 315.5126
1010.121, 321.5748
1010.603, 325.0679
1011.085, 324.8440
1011.567, 319.1479
1012.049, 309.0456
1012.532, 295.9694
1013.014, 280.3974
1013.496, 262.8492
1013.978, 243.5275
1014.460, 223.0754
1014.942, 201.1740
1015.424, 179.4357
1015.906, 160.9380
1016.388, 145.1376
1016.871, 130.4085
1017.353, 116.5696
1017.835, 104.0279
1018.317, 93.00184
1018.799, 83.45178
1019.281, 75.26276
1019.763, 68.39308
1020.245, 62.99881
1020.728, 58.86961
1021.210, 54.75716
1021.692, 50.45775
1022.174, 46.65225
1022.656, 43.74681
1023.138, 41.41747
1023.620, 39.21319
1024.102, 37.15946
1024.584, 35.50594
1025.067, 34.25556
1025.549, 33.32674
1026.031, 32.75134
1026.513, 32.00208
1026.995, 30.70779
1027.477, 29.26414
1027.959, 28.37083
1028.441, 28.00467
1028.923, 27.50217
1029.406, 26.78893
1029.888, 26.36354
1030.370, 26.31791
1030.852, 26.59074
1031.334, 27.23052
1031.816, 28.01366
1032.298, 28.50418
1032.780, 28.67294
1033.263, 29.24889
1033.745, 30.49471
1034.227, 31.32850
1034.709, 31.33865
1035.191, 31.37609
1035.673, 32.02589
1036.155, 32.96219
1036.637, 33.56455
1037.120, 33.78799
1037.602, 34.12844
1038.084, 34.46867
1038.566, 35.18449
1039.048, 36.64564
1039.530, 38.05348
1040.012, 38.86787
1040.494, 39.36465
1040.976, 40.05997
1041.458, 41.00570
1041.941, 41.72588
1042.423, 42.34266
1042.905, 42.54888
1043.387, 42.00428
1043.869, 41.35882
1044.351, 41.08218
1044.833, 40.87247
1045.315, 40.27317
1045.798, 39.27399
1046.280, 37.89017
1046.762, 36.06416
1047.244, 33.93062
1047.726, 31.12772
1048.208, 28.42599
1048.690, 26.45492
1049.172, 24.79123
1049.655, 22.69066
1050.137, 20.10413
1050.619, 17.92551
1051.101, 16.58975
1051.583, 15.24500
1052.065, 13.52453
1052.547, 11.96240
1053.029, 11.05215
1053.511, 10.42234
1053.994, 9.423981
1054.476, 8.039169
1054.958, 7.101860
1055.440, 7.281670
1055.922, 7.227005
1056.404, 6.349892
1056.886, 5.413101
1057.368, 4.944496
1057.850, 4.665894
1058.333, 4.101364
1058.815, 3.252403
1059.297, 2.612953
1059.779, 2.441185
1060.261, 2.273918
1060.743, 1.966331
1061.225, 1.619476
1061.707, 1.308372
1062.190, 0.9896160
1062.672, 0.5353930
1063.154, 9.4529996E-03
1063.636, 0.3506390
1064.118, 0.3246150
1064.600, 0.2491680
1065.082, 0.2463530
1065.564, 0.2256620
1066.047, 3.1509001E-02
1066.529, 0.2336730
1067.011, 0.1080630
1067.493, 0.8776170
1067.975, 1.391266
1068.457, 1.384102
1068.939, 1.284119
1069.421, 1.279495
1069.903, 1.224861
1070.385, 0.9412310
1070.868, 0.6186600
1071.350, 0.5495220
1071.832, 0.6492610
1072.314, 0.5581130
1072.796, 0.1512450
1073.278, 0.3557970
1073.760, 1.165977
1074.242, 1.699135
1074.725, 1.200897
1075.207, 0.5443950
1075.689, 0.8389510
1076.171, 1.781944
1076.653, 2.256538
1077.135, 1.901855
1077.617, 1.729797
1078.099, 2.331528
1078.582, 3.080254
1079.064, 3.457008
1079.546, 3.953491
1080.028, 5.234795
1080.510, 6.989189
1080.992, 8.377266
1081.474, 9.211937
1081.956, 10.39247
1082.438, 12.29111
1082.921, 14.66315
1083.403, 17.15819
1083.885, 20.27135
1084.367, 24.80437
1084.849, 30.08454
1085.331, 35.77878
1085.813, 41.43383
1086.295, 43.91755
1086.777, 40.91882
1087.260, 36.07115
1087.742, 29.52934
1088.224, 23.27598
1088.706, 18.90519
1089.188, 15.82001
1089.670, 13.02674
1090.152, 10.44483
1090.634, 8.546753
1091.116, 7.709625
1091.599, 7.099480
1092.081, 6.359810
1092.563, 5.744354
1093.045, 5.327431
1093.527, 5.182068
1094.009, 5.513016
1094.491, 6.189270
1094.973, 6.698936
1095.456, 6.833382
1095.938, 7.104660
1096.420, 7.896164
1096.902, 8.629723
1097.384, 9.083923
1097.866, 9.273766
1098.348, 8.994217
1098.830, 8.521706
1099.313, 8.526459
1099.795, 9.177483
1100.277, 9.903526
1100.759, 10.68552
1101.241, 11.32275
1101.723, 11.70965
1102.205, 11.94275
1102.687, 11.92599
1103.169, 11.88366
1103.651, 12.27036
1104.134, 13.13350
1104.616, 13.79990
1105.098, 13.99462
1105.580, 14.16281
1106.062, 14.26550
1106.544, 14.53277
1107.026, 15.37823
1107.508, 16.28519
1107.991, 16.43070
1108.473, 15.90318
1108.955, 15.80643
1109.437, 16.55150
1109.919, 17.22239
1110.401, 17.71305
1110.883, 18.11021
1111.365, 18.40569
1111.848, 18.64790
1112.330, 18.97307
1112.812, 19.30979
1113.294, 19.32672
1113.776, 18.82876
1114.258, 18.49348
1114.740, 18.62499
1115.222, 18.54644
1115.704, 17.94283
1116.187, 17.25393
1116.669, 16.73350
1117.151, 16.33634
1117.633, 15.99419
1118.115, 15.71056
1118.597, 15.44968
1119.079, 15.13933
1119.561, 15.03530
1120.043, 15.52328
1120.526, 15.59949
1121.008, 14.43890
1121.490, 12.97601
1121.972, 12.50159
1122.454, 12.92603
1122.936, 13.11858
1123.418, 13.03033
1123.900, 12.81612
1124.383, 12.44131
1124.865, 12.04758
1125.347, 11.67297
1125.829, 11.23535
1126.311, 10.64949
1126.793, 9.983093
1127.275, 9.408295
1127.757, 8.910431
1128.240, 8.782234
1128.722, 9.138634
1129.204, 9.319946
1129.686, 9.172714
1130.168, 8.802742
1130.650, 8.246910
1131.132, 7.624992
1131.614, 7.167458
1132.096, 6.858505
1132.578, 6.448540
1133.061, 5.921646
1133.543, 5.732437
1134.025, 5.959831
1134.507, 6.232727
1134.989, 6.419708
1135.471, 6.266380
1135.953, 5.398758
1136.435, 4.201950
1136.918, 3.831627
1137.400, 4.143654
1137.882, 4.223572
1138.364, 4.042633
1138.846, 3.727669
1139.328, 3.330360
1139.810, 3.012085
1140.292, 2.885895
1140.775, 2.859024
1141.257, 2.799690
1141.739, 2.721748
1142.221, 2.695580
1142.703, 2.680969
1143.185, 2.479752
1143.667, 2.136246
1144.149, 2.011383
1144.631, 2.248123
1145.114, 2.527435
1145.596, 2.547821
1146.078, 2.465408
1146.560, 2.538040
1147.042, 2.639801
1147.524, 2.509338
1148.006, 2.180847
1148.488, 1.721581
1148.970, 1.212502
1149.453, 0.9629060
1149.935, 1.222260
1150.417, 1.475471
1150.899, 1.219963
1151.381, 0.8714290
1151.863, 0.8820040
1152.345, 1.006989
1152.827, 0.8772050
1153.310, 0.5469590
1153.792, 0.2463230
1154.274, 5.7457000E-02
1154.756, 1.2627000E-02
1155.238, 0.1618580
1155.720, 0.3084180
1156.202, 0.1030270
1156.684, 2.6093001E-02
1157.167, 0.4695210
1157.649, 1.170906
1158.131, 1.317642
1158.613, 0.9022670
1159.095, 0.6472240
1159.577, 0.8378980
1160.059, 0.9181290
1160.541, 0.6849290
1161.023, 0.4713210
1161.505, 0.3946610
1161.988, 0.3993990
1162.470, 0.4718320
1162.952, 0.5779570
1163.434, 0.5997160
1163.916, 0.4788060
1164.398, 0.6211170
1164.880, 1.379311
1165.362, 1.638771
1165.844, 0.9330140
1166.327, 0.2755740
1166.809, 0.2571640
1167.291, 0.4641570
1167.773, 0.3485260
1168.255, 1.7982000E-02
1168.737, 0.1928710
1169.219, 0.1397020
1169.701, 0.1649930
1170.184, 0.3134920
1170.666, 0.2854920
1171.148, 2.5665000E-02
1171.630, 0.3868260
1172.112, 0.6484600
1172.594, 0.7746580
1173.076, 0.6316990
1173.558, 0.2919010
1174.041, 0.2129290
1174.523, 0.3575820
1175.005, 0.4468380
1175.487, 0.4363480
1175.969, 0.3116530
1176.451, 7.6247998E-02
1176.933, 0.1157910
1177.415, 0.1143880
1177.897, 1.5007000E-02
1178.380, 9.2864998E-02
1178.862, 0.1539310
1179.344, 7.4684002E-02
1179.826, 0.3997960
1180.308, 0.2116170
1180.790, 0.4333950
1181.272, 0.7775120
1181.754, 0.4562760
1182.236, 1.5297000E-02
1182.719, 0.2135620
1183.201, 0.2949370
1183.683, 0.2665020
1184.165, 0.1360930
1184.647, 0.1889720
1185.129, 0.5644990
1185.611, 0.6939930
1186.093, 0.5619200
1186.576, 0.4896390
1187.058, 0.6209490
1187.540, 0.7363280
1188.022, 0.8413310
1188.504, 0.8245540
1188.986, 0.4363020
1189.468, 6.7290999E-02
1189.950, 0.2002790
1190.432, 0.6228260
1190.915, 0.7338490
1191.397, 0.4527210
1191.879, 0.1926880
1192.361, 5.6694001E-02
1192.843, 0.2789920
1193.325, 0.5702360
1193.807, 0.6308140
1194.289, 0.2073670
1194.771, 0.2926100
1195.254, 0.3592830
1195.736, 0.1689830
1196.218, 0.5189900
1196.700, 1.530334
1197.182, 1.787148
1197.664, 1.199699
1198.146, 0.7875900
1198.628, 0.7686000
1199.111, 0.8995360
1199.593, 1.055840
1200.075, 1.181625
1200.557, 1.203300
1201.039, 1.125801
1201.521, 0.9129940
1202.003, 0.6407850
1202.485, 0.6546940
1202.968, 0.8523180
1203.450, 0.6803670
1203.932, 9.1057003E-02
1204.414, 0.2910610
1204.896, 9.5406003E-02
1205.378, 0.2577290
1205.860, 0.4279480
1206.342, 0.4962230
1206.824, 0.4760890
1207.307, 0.4597090
1207.789, 0.6303560
1208.271, 0.8806230
1208.753, 0.9793400
1209.235, 0.8743520
1209.717, 0.6062620
1210.199, 8.2550002E-03
1210.681, 0.3742220
1211.163, 2.9160000E-02
1211.646, 0.2991790
1212.128, 0.2140430
1212.610, 2.3848999E-02
1213.092, 0.2848740
1213.574, 0.4717330
1214.056, 0.2605290
1214.538, 0.3071820
1215.020, 0.8694080
1215.503, 1.481293
1215.985, 1.957336
1216.467, 2.305321
1216.949, 2.425537
1217.431, 2.218636
1217.913, 1.918861
1218.395, 1.733521
1218.877, 1.647758
1219.359, 1.704903
1219.842, 1.885880
1220.324, 1.954979
1220.806, 1.928131
1221.288, 1.715523
1221.770, 1.353050
1222.252, 1.005531
1222.734, 0.7612530
1223.216, 0.9663160
1223.698, 2.073174
1224.181, 3.301140
1224.663, 3.578308
1225.145, 3.297440
1225.627, 2.787567
1226.109, 2.298531
1226.591, 2.116417
1227.073, 2.099518
1227.555, 1.933151
1228.038, 1.579453
1228.520, 1.471848
1229.002, 2.000710
1229.484, 2.514397
1229.966, 2.549538
1230.448, 2.567719
1230.930, 3.242615
1231.412, 3.928589
1231.895, 3.552734
1232.377, 2.353264
1232.859, 1.764198
1233.341, 2.162506
1233.823, 2.528816
1234.305, 2.952187
1234.787, 3.243752
1235.269, 3.315636
1235.751, 3.484322
1236.234, 3.950821
1236.716, 4.393822
1237.198, 4.483459
1237.680, 4.282143
1238.162, 4.033371
1238.644, 3.902725
1239.126, 3.540482
1239.608, 2.972725
1240.090, 2.656212
1240.573, 2.613617
1241.055, 2.452919
1241.537, 2.248352
1242.019, 2.115479
1242.501, 2.181404
1242.983, 2.344627
1243.465, 2.125191
1243.947, 1.815720
1244.430, 2.039246
1244.912, 2.456612
1245.394, 2.406036
1245.876, 1.991577
1246.358, 1.808510
1246.840, 2.011848
1247.322, 2.157013
1247.804, 2.160393
1248.286, 2.130363
1248.769, 2.041252
1249.251, 1.959831
1249.733, 1.965874
1250.215, 1.966507
1250.697, 1.948059
1251.179, 1.831039
1251.661, 1.333107
1252.143, 0.2664790
1252.625, 0.2081760
1253.108, 1.562057
1253.590, 2.021584
1254.072, 1.127075
1254.554, 0.4825820
1255.036, 0.7451170
1255.518, 1.358688
1256.000, 1.899384
1256.482, 2.166618
1256.964, 1.484306
1257.447, 0.3223950
1257.929, 1.0643000E-02
1258.411, 0.2901840
1258.893, 0.6627500
1259.375, 1.010353
1259.857, 1.225113
1260.339, 1.269012
1260.821, 1.172226
1261.304, 0.8718570
1261.786, 0.5818180
1262.268, 0.6282120
1262.750, 0.7530140
1263.232, 0.6561660
1263.714, 0.5638660
1264.196, 0.5515520
1264.678, 0.4997710
1265.161, 0.4730760
1265.643, 0.4765780
1266.125, 0.6600040
1266.607, 1.247139
1267.089, 1.494705
1267.571, 1.315453
1268.053, 0.9522020
1268.535, 0.3873370
1269.017, 1.6228000E-02
1269.500, 8.0260001E-03
1269.982, 0.2211690
1270.464, 0.1678010
1270.946, 0.0000000E+00
##END=



