##NAMES=Dixenite
##RRUFFID=R100044
##IDEAL CHEMISTRY=Cu^1+^Mn^2+^_14_Fe^3+^(As^3+^O_3_)_5_(SiO_4_)_2_(As^5+^O_4_)(OH)_6_
##LOCALITY=Moss mine, Nordmark, Varmland, Sweden
##OWNER=RRUFF
##SOURCE=William W Pinch
##DESCRIPTION=Thin tabular reddish-brown hexagonal plates, associated with synadelphite and colorless or grey allactite
##STATUS=The identification of this mineral has been confirmed only by single crystal X-ray diffraction.
##URL=rruff.info/R100044
165.7633, 0.0000000E+00
166.2454, 7.8491002E-02
166.7276, 2.659203
167.2097, 5.958099
167.6918, 7.398186
168.1739, 7.114906
168.6560, 6.907982
169.1381, 7.955521
169.6203, 9.568695
170.1024, 10.32812
170.5845, 10.34430
171.0666, 10.05787
171.5487, 9.281143
172.0309, 8.068993
172.5130, 7.243568
172.9951, 7.951988
173.4772, 9.324524
173.9593, 10.00516
174.4414, 8.906158
174.9236, 7.165985
175.4057, 5.920799
175.8878, 5.160812
176.3699, 4.773514
176.8520, 4.797310
177.3341, 5.113693
177.8163, 5.472672
178.2984, 5.909042
178.7805, 6.279541
179.2626, 6.349182
179.7447, 6.107956
180.2268, 5.633560
180.7090, 4.834930
181.1911, 3.827339
181.6732, 2.977707
182.1553, 2.266846
182.6374, 1.849998
183.1195, 2.254196
183.6017, 3.608818
184.0838, 5.121674
184.5659, 6.067337
185.0480, 6.452660
185.5301, 6.335869
186.0123, 5.230125
186.4944, 3.590065
186.9765, 3.084389
187.4586, 3.972145
187.9407, 5.204987
188.4228, 5.150810
188.9050, 3.935890
189.3871, 2.881950
189.8692, 2.825790
190.3513, 3.582275
190.8334, 4.178177
191.3155, 4.430130
191.7977, 4.394539
192.2798, 4.609947
192.7619, 5.076408
193.2440, 5.461830
193.7261, 5.556076
194.2082, 5.382782
194.6904, 5.130890
195.1725, 4.630646
195.6546, 4.421951
196.1367, 6.114479
196.6188, 9.930710
197.1009, 12.86597
197.5831, 12.54695
198.0652, 8.992775
198.5473, 7.285355
199.0294, 8.063118
199.5115, 10.28851
199.9937, 12.00941
200.4758, 13.19197
200.9579, 13.98336
201.4400, 14.35381
201.9221, 14.27196
202.4042, 14.24318
202.8864, 14.38892
203.3685, 14.51084
203.8506, 14.01080
204.3327, 12.71938
204.8148, 11.51014
205.2969, 10.98987
205.7791, 11.30740
206.2612, 11.20954
206.7433, 10.54143
207.2254, 9.482567
207.7075, 8.466072
208.1896, 7.488602
208.6718, 6.552635
209.1539, 5.639824
209.6360, 4.748642
210.1181, 3.915192
210.6002, 3.079269
211.0823, 2.335480
211.5645, 2.041023
212.0466, 2.420586
212.5287, 2.718597
213.0108, 2.482864
213.4929, 1.562164
213.9750, 0.6999970
214.4572, 9.6473999E-02
214.9393, 0.7949910
215.4214, 1.373138
215.9035, 1.970474
216.3856, 2.166458
216.8678, 1.569618
217.3499, 0.2507170
217.8320, 1.432793
218.3141, 1.678764
218.7962, 1.285332
219.2783, 1.223274
219.7605, 1.760132
220.2426, 2.135941
220.7247, 1.828247
221.2068, 0.4076160
221.6889, 0.4522170
222.1710, 0.5292740
222.6532, 3.3546001E-02
223.1353, 0.3719330
223.6174, 0.5186310
224.0995, 0.7502060
224.5816, 1.310829
225.0637, 2.547935
225.5459, 3.171982
226.0280, 2.860306
226.5101, 1.974586
226.9922, 1.667480
227.4743, 2.270988
227.9564, 2.923805
228.4386, 3.172836
228.9207, 2.727852
229.4028, 2.572067
229.8849, 2.787949
230.3670, 3.282143
230.8492, 3.863449
231.3313, 4.775230
231.8134, 5.399727
232.2955, 5.375069
232.7776, 4.190659
233.2597, 3.517746
233.7419, 3.483086
234.2240, 3.974541
234.7061, 4.620621
235.1882, 5.396446
235.6703, 6.251137
236.1524, 7.264305
236.6346, 8.735435
237.1167, 9.650009
237.5988, 9.734138
238.0809, 9.363716
238.5630, 9.455078
239.0451, 10.33013
239.5273, 11.22458
240.0094, 11.76826
240.4915, 11.73485
240.9736, 11.82030
241.4557, 12.10369
241.9378, 12.49619
242.4200, 12.74549
242.9021, 12.53123
243.3842, 12.64257
243.8663, 13.40771
244.3484, 15.00795
244.8306, 16.78115
245.3127, 18.94337
245.7948, 21.19585
246.2769, 22.88409
246.7590, 23.72997
247.2411, 24.30910
247.7233, 24.75024
248.2054, 24.89831
248.6875, 25.62167
249.1696, 27.08979
249.6517, 28.97140
250.1338, 30.82038
250.6160, 32.93365
251.0981, 34.45975
251.5802, 34.93571
252.0623, 34.03897
252.5444, 33.84276
253.0265, 34.59003
253.5087, 35.86995
253.9908, 37.08313
254.4729, 38.21541
254.9550, 39.28143
255.4371, 40.31268
255.9192, 41.33852
256.4014, 42.25543
256.8835, 42.98550
257.3656, 43.56915
257.8477, 44.11884
258.3298, 44.89442
258.8120, 45.03151
259.2941, 44.12085
259.7762, 42.07011
260.2583, 40.47011
260.7404, 39.35361
261.2225, 38.65199
261.7047, 38.39303
262.1868, 38.87585
262.6689, 38.94710
263.1510, 38.27866
263.6331, 36.88545
264.1152, 35.20434
264.5974, 33.07792
265.0795, 30.95018
265.5616, 29.32238
266.0437, 28.29688
266.5258, 27.38927
267.0079, 26.63102
267.4901, 25.99445
267.9722, 25.18677
268.4543, 24.05451
268.9364, 22.84716
269.4185, 21.78226
269.9006, 20.97814
270.3828, 20.03781
270.8649, 18.80568
271.3470, 17.45144
271.8291, 16.59743
272.3112, 16.35120
272.7933, 16.24138
273.2755, 15.92137
273.7576, 15.41507
274.2397, 14.81524
274.7218, 14.07538
275.2039, 13.19522
275.6860, 12.04512
276.1682, 10.52245
276.6503, 9.111450
277.1324, 8.145401
277.6145, 7.661957
278.0966, 7.253258
278.5787, 6.913589
279.0609, 6.611267
279.5430, 6.240959
280.0251, 5.810982
280.5072, 5.450455
280.9893, 5.161667
281.4715, 4.920975
281.9536, 5.011757
282.4357, 5.635292
282.9178, 6.263382
283.3999, 5.540703
283.8820, 3.360451
284.3642, 1.719353
284.8463, 2.015907
285.3284, 4.016304
285.8105, 4.848022
286.2926, 4.283844
286.7747, 3.237595
287.2569, 3.132927
287.7390, 3.919258
288.2211, 4.270096
288.7032, 3.308777
289.1853, 1.419342
289.6674, 0.3706970
290.1496, 0.2358550
290.6317, 0.4204860
291.1138, 0.1920390
291.5959, 0.3662490
292.0780, 0.6099090
292.5602, 0.1572340
293.0423, 0.6887280
293.5244, 1.142143
294.0065, 1.189789
294.4886, 1.105560
294.9707, 1.205528
295.4529, 1.397873
295.9350, 1.308678
296.4171, 0.6535490
296.8992, 0.1572800
297.3813, 0.2906720
297.8634, 0.1993870
298.3456, 0.7104340
298.8277, 0.6951220
299.3098, 0.3639760
299.7919, 0.1781850
300.2740, 0.2523270
300.7561, 0.4760740
301.2383, 0.8679660
301.7204, 1.352776
302.2025, 1.551300
302.6846, 0.8762210
303.1667, 0.1336140
303.6488, 0.6086040
304.1310, 0.2891390
304.6131, 0.1864930
305.0952, 0.1462630
305.5773, 0.2538220
306.0594, 0.5912630
306.5415, 0.6464610
307.0237, 0.5266190
307.5058, 0.2929460
307.9879, 7.2540000E-02
308.4700, 0.3718950
308.9521, 0.4494930
309.4343, 0.3585360
309.9164, 0.1992190
310.3985, 0.2438960
310.8806, 0.5641940
311.3627, 0.2662730
311.8448, 0.6826710
312.3270, 1.390358
312.8091, 0.8912280
313.2912, 1.1627000E-02
313.7733, 0.3696670
314.2554, 0.8303220
314.7375, 2.075150
315.2197, 2.496979
315.7018, 2.183708
316.1839, 1.882843
316.6660, 2.155167
317.1481, 2.467888
317.6302, 2.368240
318.1124, 1.379799
318.5945, 0.4265060
319.0766, 0.3143080
319.5587, 0.8051680
320.0408, 0.9315110
320.5229, 0.3667530
321.0051, 0.3682330
321.4872, 1.021385
321.9693, 1.666359
322.4514, 1.999535
322.9335, 1.917336
323.4156, 1.485764
323.8978, 0.8314060
324.3799, 0.6382450
324.8620, 1.794014
325.3441, 2.181976
325.8262, 1.558929
326.3083, 0.8269580
326.7905, 0.3774490
327.2726, 1.520576
327.7547, 1.931030
328.2368, 0.3228680
328.7189, 0.6905820
329.2010, 0.2087940
329.6832, 2.005089
330.1653, 3.000648
330.6474, 1.794052
331.1295, 7.7843003E-02
331.6116, 0.7720640
332.0938, 0.1947400
332.5759, 0.3653260
333.0580, 0.7622910
333.5401, 1.006470
334.0222, 1.120796
334.5043, 1.002708
334.9865, 0.8984830
335.4686, 1.014336
335.9507, 1.574158
336.4328, 1.715836
336.9149, 1.250771
337.3970, 0.4083560
337.8792, 0.2736430
338.3613, 0.9177170
338.8434, 1.085106
339.3255, 0.3200840
339.8076, 1.614250
340.2898, 2.578156
340.7719, 2.310753
341.2540, 1.544197
341.7361, 1.437912
342.2182, 2.079170
342.7003, 2.519089
343.1825, 2.151062
343.6646, 1.216904
344.1467, 1.614815
344.6288, 3.589386
345.1109, 5.678818
345.5930, 6.424377
346.0752, 5.899246
346.5573, 4.925140
347.0394, 3.435974
347.5215, 1.826942
348.0036, 0.8640520
348.4857, 0.5628740
348.9679, 0.9783480
349.4500, 2.640160
349.9321, 5.091751
350.4142, 7.000778
350.8963, 8.145958
351.3784, 8.734955
351.8606, 8.753174
352.3427, 8.359940
352.8248, 8.155006
353.3069, 8.825043
353.7890, 9.746902
354.2711, 9.933258
354.7533, 9.201080
355.2354, 8.496727
355.7175, 8.762802
356.1996, 9.610443
356.6817, 10.37276
357.1638, 10.72626
357.6460, 10.91275
358.1281, 10.91637
358.6102, 10.79388
359.0923, 11.16834
359.5744, 13.22936
360.0565, 15.56812
360.5387, 16.81340
361.0208, 15.83012
361.5029, 14.56849
361.9850, 13.58859
362.4671, 13.00356
362.9492, 13.12789
363.4314, 14.95137
363.9135, 16.84887
364.3956, 17.91145
364.8777, 17.75034
365.3598, 17.43169
365.8419, 17.02367
366.3241, 16.62958
366.8062, 16.40733
367.2883, 16.33929
367.7704, 16.46831
368.2526, 16.90861
368.7347, 17.78870
369.2168, 18.31355
369.6989, 18.12373
370.1810, 17.80341
370.6631, 17.86633
371.1453, 18.80366
371.6274, 19.32757
372.1095, 19.20746
372.5916, 18.53232
373.0737, 18.15565
373.5558, 18.17867
374.0380, 18.34085
374.5201, 18.48246
375.0022, 18.51772
375.4843, 18.86603
375.9664, 19.76700
376.4485, 20.76306
376.9307, 20.83952
377.4128, 19.77538
377.8949, 18.78616
378.3770, 18.38451
378.8591, 18.55559
379.3412, 18.99014
379.8234, 19.74287
380.3055, 20.50349
380.7876, 20.88342
381.2697, 20.90259
381.7518, 20.86654
382.2339, 20.74525
382.7161, 20.60165
383.1982, 20.75960
383.6803, 21.26358
384.1624, 21.67663
384.6445, 21.51598
385.1266, 20.98940
385.6088, 20.74802
386.0909, 20.94231
386.5730, 21.13169
387.0551, 20.81421
387.5372, 20.18970
388.0193, 19.69846
388.5015, 19.49932
388.9836, 19.58416
389.4657, 20.12128
389.9478, 21.22015
390.4299, 22.25941
390.9120, 22.84912
391.3942, 23.09949
391.8763, 23.13670
392.3584, 22.80955
392.8405, 22.46150
393.3226, 22.25475
393.8047, 22.17776
394.2869, 22.16545
394.7690, 22.31473
395.2511, 22.42342
395.7332, 22.35344
396.2154, 22.02998
396.6975, 21.66377
397.1796, 21.18372
397.6617, 20.77114
398.1438, 20.67165
398.6259, 21.83222
399.1081, 22.48608
399.5902, 21.81369
400.0723, 19.49168
400.5544, 17.87794
401.0365, 17.28859
401.5186, 17.17845
402.0008, 17.16995
402.4829, 17.72414
402.9650, 17.45650
403.4471, 15.73811
403.9292, 13.11212
404.4113, 11.98886
404.8935, 12.97099
405.3756, 14.03452
405.8577, 14.09141
406.3398, 12.99101
406.8219, 11.62751
407.3040, 9.873634
407.7862, 8.242996
408.2683, 7.523415
408.7504, 7.742462
409.2325, 8.000214
409.7146, 8.104431
410.1967, 7.994385
410.6789, 7.300369
411.1610, 5.998138
411.6431, 4.773560
412.1252, 4.451859
412.6073, 4.701096
413.0894, 4.499802
413.5716, 3.480881
414.0537, 2.329163
414.5358, 2.060440
415.0179, 2.410706
415.5000, 2.513367
415.9821, 1.401733
416.4643, 6.6086002E-02
416.9464, 0.3719640
417.4285, 0.2176670
417.9106, 0.9709320
418.3927, 1.414932
418.8748, 1.675491
419.3570, 1.893341
419.8391, 1.876892
420.3212, 2.060623
420.8033, 2.978149
421.2854, 4.382126
421.7675, 5.133987
422.2497, 3.819687
422.7318, 2.562012
423.2139, 2.652191
423.6960, 5.199539
424.1781, 6.975296
424.6602, 7.111649
425.1424, 6.416428
425.6245, 6.041473
426.1066, 5.813889
426.5887, 6.162674
427.0709, 7.496674
427.5530, 9.813583
428.0351, 11.16245
428.5172, 11.16467
428.9993, 10.73308
429.4814, 10.44003
429.9636, 10.22789
430.4457, 10.38962
430.9278, 11.00810
431.4099, 11.95314
431.8920, 13.02226
432.3741, 14.26163
432.8563, 15.34502
433.3384, 16.18874
433.8205, 16.77350
434.3026, 16.81387
434.7847, 16.24644
435.2668, 15.65143
435.7490, 15.64378
436.2311, 16.10866
436.7132, 16.67287
437.1953, 17.35345
437.6774, 17.92668
438.1595, 17.89354
438.6417, 17.42194
439.1238, 17.20566
439.6059, 18.28542
440.0880, 19.51718
440.5701, 19.48347
441.0522, 17.85518
441.5344, 16.21466
442.0165, 15.65811
442.4986, 15.63005
442.9807, 15.45438
443.4628, 14.93547
443.9449, 14.20006
444.4271, 13.10138
444.9092, 11.74275
445.3913, 10.69109
445.8734, 10.39542
446.3555, 10.22522
446.8376, 9.879303
447.3198, 9.295074
447.8019, 8.605362
448.2840, 7.722366
448.7661, 6.780609
449.2482, 5.973206
449.7303, 5.382324
450.2125, 4.806488
450.6946, 4.245010
451.1767, 3.681671
451.6588, 2.795166
452.1409, 1.301865
452.6230, 0.1276090
453.1052, 0.1733550
453.5873, 1.571045
454.0694, 2.453156
454.5515, 2.673538
455.0337, 2.330093
455.5158, 1.284882
455.9979, 0.4019780
456.4800, 1.696457
456.9621, 1.999222
457.4442, 1.662109
457.9264, 1.525986
458.4085, 1.580673
458.8906, 1.541946
459.3727, 0.8952330
459.8548, 7.0556998E-02
460.3369, 0.1958470
460.8191, 0.3747410
461.3012, 1.234482
461.7833, 2.256165
462.2654, 3.232834
462.7475, 3.733154
463.2296, 3.676392
463.7118, 3.010223
464.1939, 1.278946
464.6760, 1.574677
465.1581, 3.598526
465.6402, 3.603180
466.1223, 2.891312
466.6045, 2.370819
467.0866, 2.037933
467.5687, 2.053986
468.0508, 2.485687
468.5329, 3.261826
469.0150, 4.292450
469.4972, 5.972168
469.9793, 7.287354
470.4614, 7.851028
470.9435, 7.627380
471.4256, 7.322037
471.9077, 6.799469
472.3899, 6.469803
472.8720, 6.893158
473.3541, 8.181702
473.8362, 8.836029
474.3183, 8.423660
474.8004, 7.630188
475.2826, 8.210236
475.7647, 10.01808
476.2468, 11.17622
476.7289, 9.852570
477.2110, 7.368286
477.6931, 6.863586
478.1753, 8.351303
478.6574, 10.27260
479.1395, 11.60191
479.6216, 12.47173
480.1037, 13.02054
480.5858, 13.08165
481.0680, 13.21516
481.5501, 14.05498
482.0322, 15.24426
482.5143, 16.02977
482.9964, 15.47856
483.4786, 15.01035
483.9607, 15.43431
484.4428, 16.86905
484.9249, 18.11020
485.4070, 18.64214
485.8892, 19.07077
486.3713, 19.82884
486.8534, 21.08995
487.3355, 22.42938
487.8176, 23.93289
488.2997, 25.47281
488.7819, 26.77209
489.2640, 27.68385
489.7461, 28.67430
490.2282, 29.74770
490.7103, 30.95341
491.1924, 33.11955
491.6746, 36.41096
492.1567, 40.02344
492.6388, 43.32137
493.1209, 46.34956
493.6030, 49.07346
494.0851, 51.44547
494.5673, 53.74748
495.0494, 56.28351
495.5315, 59.06841
496.0136, 62.06328
496.4957, 65.06879
496.9778, 68.40125
497.4600, 72.60696
497.9421, 77.62239
498.4242, 82.92670
498.9063, 88.78261
499.3884, 94.50009
499.8705, 99.30324
500.3527, 102.1622
500.8348, 106.2119
501.3169, 113.0903
501.7990, 121.5912
502.2811, 130.0865
502.7632, 138.3567
503.2454, 146.4126
503.7275, 154.1827
504.2096, 161.6909
504.6917, 169.6212
505.1738, 178.0243
505.6559, 186.6535
506.1381, 195.2284
506.6202, 203.5886
507.1023, 212.6848
507.5844, 222.7554
508.0665, 233.1163
508.5486, 242.6184
509.0308, 251.2798
509.5129, 260.0773
509.9950, 269.7353
510.4771, 279.2799
510.9592, 286.7746
511.4413, 292.2472
511.9235, 296.4075
512.4056, 299.1968
512.8877, 301.1228
513.3698, 303.1830
513.8519, 305.4961
514.3340, 306.9177
514.8162, 306.9149
515.2983, 305.5319
515.7804, 302.7061
516.2625, 297.1041
516.7446, 291.7127
517.2267, 288.5870
517.7089, 286.6727
518.1910, 283.3004
518.6731, 276.6012
519.1552, 269.4254
519.6373, 262.8660
520.1194, 257.0143
520.6016, 250.4640
521.0837, 242.3528
521.5658, 234.7094
522.0479, 229.3572
522.5300, 227.2848
523.0121, 223.7089
523.4943, 217.8613
523.9764, 210.9343
524.4585, 204.9978
524.9406, 200.1900
525.4227, 195.6511
525.9048, 191.2248
526.3870, 186.7977
526.8691, 181.6489
527.3513, 175.8171
527.8334, 170.2360
528.3155, 165.7367
528.7976, 161.7801
529.2797, 157.6201
529.7618, 153.2172
530.2440, 148.5720
530.7261, 143.5954
531.2082, 138.3320
531.6903, 132.9564
532.1724, 127.1050
532.6545, 121.6162
533.1367, 116.5767
533.6188, 112.0458
534.1009, 108.0311
534.5830, 105.3882
535.0651, 102.4887
535.5472, 98.63995
536.0294, 93.53316
536.5115, 89.36810
536.9936, 86.65379
537.4757, 84.20502
537.9578, 80.91314
538.4399, 76.52211
538.9221, 72.77270
539.4042, 69.91393
539.8863, 67.56403
540.3684, 65.13000
540.8505, 62.60591
541.3326, 59.90874
541.8148, 56.81476
542.2969, 53.65289
542.7790, 51.03803
543.2611, 48.92770
543.7432, 46.87112
544.2253, 44.54278
544.7075, 42.11148
545.1896, 39.71075
545.6717, 37.36604
546.1538, 35.19167
546.6359, 33.47810
547.1180, 31.86035
547.6002, 29.98638
548.0823, 26.88203
548.5644, 24.51489
549.0465, 23.53014
549.5286, 23.55402
550.0107, 23.47533
550.4929, 23.39590
550.9750, 23.05407
551.4571, 22.31400
551.9392, 21.16893
552.4213, 20.07050
552.9034, 19.04553
553.3856, 17.96138
553.8677, 16.55438
554.3498, 14.88622
554.8319, 13.79317
555.3140, 13.46149
555.7961, 13.32832
556.2783, 12.60255
556.7604, 11.47927
557.2425, 10.52889
557.7246, 10.11444
558.2067, 9.803139
558.6888, 9.096352
559.1710, 8.122658
559.6531, 7.327644
560.1352, 6.978439
560.6173, 6.844444
561.0994, 6.847404
561.5815, 6.996880
562.0637, 7.102615
562.5458, 7.499908
563.0279, 7.589058
563.5100, 6.890312
563.9921, 4.459358
564.4742, 2.937874
564.9564, 2.728363
565.4385, 3.180695
565.9206, 3.226982
566.4027, 2.811508
566.8848, 2.214493
567.3669, 1.298988
567.8491, 0.3744960
568.3312, 0.7968290
568.8133, 2.505882
569.2954, 3.952568
569.7775, 3.890923
570.2596, 2.952438
570.7418, 2.275200
571.2239, 1.925804
571.7060, 1.603188
572.1881, 0.8620990
572.6702, 0.1222230
573.1523, 8.9980997E-02
573.6345, 0.8099520
574.1166, 1.401421
574.5987, 0.6686100
575.0808, 0.5937190
575.5629, 1.078957
576.0450, 0.5925600
576.5272, 1.755791
577.0093, 1.761681
577.4914, 0.7926480
577.9735, 4.5722999E-02
578.4556, 0.4468540
578.9377, 0.8439480
579.4199, 1.172188
579.9020, 1.392868
580.3841, 1.267487
580.8662, 0.7275540
581.3483, 0.2097780
581.8304, 0.3761670
582.3126, 0.9567030
582.7947, 0.9275130
583.2768, 5.8983002E-02
583.7589, 1.213127
584.2410, 1.773338
584.7231, 1.884346
585.2053, 1.826813
585.6874, 1.779572
586.1696, 1.461746
586.6517, 0.4606480
587.1338, 0.9826350
587.6159, 1.820435
588.0980, 1.484673
588.5801, 0.7494660
589.0623, 0.1693650
589.5444, 1.344429
590.0265, 2.179085
590.5086, 2.782684
590.9907, 3.000053
591.4728, 2.596466
591.9550, 1.292778
592.4371, 0.3715590
592.9192, 5.9875000E-02
593.4013, 0.2444150
593.8834, 0.9798660
594.3655, 2.084579
594.8477, 2.750961
595.3298, 2.536140
595.8119, 2.005394
596.2940, 1.924141
596.7761, 2.201736
597.2582, 2.486458
597.7404, 2.592293
598.2225, 2.630798
598.7046, 2.752052
599.1867, 2.966354
599.6688, 2.951935
600.1509, 2.336128
600.6331, 1.604057
601.1152, 1.032303
601.5973, 0.4574510
602.0794, 0.4932400
602.5615, 1.617882
603.0436, 2.939705
603.5258, 3.380379
604.0079, 2.735046
604.4900, 1.965637
604.9721, 1.113579
605.4542, 0.5159530
605.9363, 0.9844670
606.4185, 2.243256
606.9006, 3.257500
607.3827, 3.583580
607.8648, 3.505440
608.3469, 3.193489
608.8290, 2.768806
609.3112, 2.744362
609.7933, 3.751984
610.2754, 4.874901
610.7575, 5.600418
611.2396, 5.875610
611.7217, 6.009369
612.2039, 5.392830
612.6860, 4.921623
613.1681, 5.446388
613.6502, 8.288033
614.1323, 9.825272
614.6144, 9.447929
615.0966, 8.326653
615.5787, 8.120857
616.0608, 8.895294
616.5429, 9.282501
617.0250, 8.939819
617.5071, 8.286919
617.9893, 8.023170
618.4714, 8.054428
618.9535, 8.276817
619.4356, 8.996422
619.9177, 9.741707
620.3998, 9.789482
620.8820, 9.193352
621.3641, 8.504150
621.8462, 7.736954
622.3283, 7.188156
622.8104, 7.151474
623.2925, 7.805283
623.7747, 8.377426
624.2568, 8.880501
624.7389, 9.132027
625.2210, 8.964737
625.7031, 8.153923
626.1852, 7.418968
626.6674, 6.796120
627.1495, 6.263374
627.6316, 5.807014
628.1137, 5.428902
628.5958, 5.095947
629.0779, 4.807610
629.5601, 4.549423
630.0422, 4.108864
630.5243, 3.602783
631.0064, 3.568848
631.4885, 5.074821
631.9706, 6.678551
632.4528, 6.712456
632.9349, 5.266014
633.4170, 4.169731
633.8991, 5.184578
634.3812, 6.155266
634.8633, 5.494583
635.3455, 1.995689
635.8276, 0.4066160
636.3097, 1.976631
636.7918, 4.277161
637.2739, 5.257858
637.7560, 4.533958
638.2382, 4.095955
638.7203, 4.197357
639.2024, 4.508423
639.6845, 4.488220
640.1666, 4.146500
640.6487, 3.805130
641.1309, 3.637360
641.6130, 3.455971
642.0951, 2.741081
642.5772, 1.805489
643.0594, 1.571434
643.5415, 3.827087
644.0236, 5.746201
644.5057, 5.095009
644.9879, 2.095924
645.4700, 4.6654001E-02
645.9521, 0.1659010
646.4342, 0.5230410
646.9163, 1.779205
647.3984, 3.883606
647.8806, 4.173279
648.3627, 1.772797
648.8448, 0.7838670
649.3269, 1.115852
649.8090, 0.7757420
650.2911, 1.432281
650.7733, 0.4058690
651.2554, 0.9768300
651.7375, 1.208267
652.2196, 0.5902790
652.7017, 0.2102360
653.1838, 1.164124
653.6660, 1.938034
654.1481, 2.185463
654.6302, 2.085983
655.1123, 1.958466
655.5944, 2.066963
656.0765, 1.990135
656.5587, 1.381950
657.0408, 0.4204860
657.5229, 6.8191998E-02
658.0050, 9.2064001E-02
658.4871, 0.4552000
658.9692, 0.9910890
659.4514, 1.635414
659.9335, 1.625313
660.4156, 0.8943180
660.8977, 0.2744520
661.3798, 0.7720410
661.8619, 1.817406
662.3441, 1.545135
662.8262, 0.2070920
663.3083, 1.607498
663.7904, 0.4589770
664.2725, 1.534302
664.7546, 2.394806
665.2368, 1.351944
665.7189, 0.1923140
666.2010, 0.8723220
666.6831, 1.578209
667.1652, 1.556221
667.6473, 7.4943997E-02
668.1295, 0.9140780
668.6116, 0.4091720
669.0937, 0.6824490
669.5758, 0.7761840
670.0579, 0.2458800
670.5400, 1.137146
671.0222, 1.615150
671.5043, 1.647705
671.9864, 0.7935030
672.4685, 0.7109450
672.9506, 1.692940
673.4327, 0.8010410
673.9149, 0.4051900
674.3970, 0.2872240
674.8791, 0.9694290
675.3612, 1.806015
675.8433, 1.319710
676.3254, 0.4998090
676.8076, 0.1553880
677.2897, 0.5737080
677.7718, 1.120140
678.2539, 1.914528
678.7360, 2.664742
679.2181, 3.260712
679.7003, 3.736931
680.1824, 3.505974
680.6645, 2.393715
681.1466, 1.240631
681.6287, 1.195084
682.1108, 1.844734
682.5930, 1.958069
683.0751, 1.125412
683.5572, 0.2954710
684.0393, 0.2492220
684.5214, 0.7167360
685.0035, 1.309013
685.4857, 2.391350
685.9678, 3.018845
686.4499, 2.491386
686.9320, 1.397865
687.4141, 1.085854
687.8962, 2.161247
688.3784, 2.855766
688.8605, 2.685997
689.3426, 1.927406
689.8247, 1.338745
690.3068, 0.9069750
690.7889, 0.9101720
691.2711, 2.054199
691.7532, 3.467682
692.2353, 2.896652
692.7174, 0.6754760
693.1995, 1.165413
693.6816, 0.9705510
694.1638, 0.1021580
694.6459, 0.2167360
695.1280, 0.1799160
695.6101, 0.1198580
696.0922, 1.226700
696.5743, 2.669296
697.0565, 3.623436
697.5386, 4.094070
698.0207, 3.982910
698.5028, 3.059692
698.9849, 2.045578
699.4670, 1.638168
699.9492, 1.779640
700.4313, 2.031776
700.9135, 2.420937
701.3956, 2.617096
701.8777, 1.942543
702.3598, 0.8082120
702.8419, 0.1099010
703.3240, 0.6760940
703.8062, 0.9414670
704.2883, 0.7276690
704.7704, 0.2634660
705.2525, 9.8174997E-02
705.7346, 9.7342998E-02
706.2167, 0.1578450
706.6989, 0.1912990
707.1810, 0.3428040
707.6631, 0.9318470
708.1452, 1.939262
708.6273, 2.784279
709.1094, 3.340721
709.5916, 3.581596
710.0737, 3.012337
710.5558, 1.856750
711.0379, 1.188034
711.5200, 2.035889
712.0021, 3.240707
712.4843, 3.672012
712.9664, 3.488846
713.4485, 3.613853
713.9306, 4.980072
714.4127, 6.173759
714.8948, 6.413353
715.3770, 5.695602
715.8591, 5.016388
716.3412, 4.165497
716.8233, 3.796799
717.3054, 4.580124
717.7875, 6.432655
718.2697, 7.177658
718.7518, 6.739807
719.2339, 6.241013
719.7160, 6.704033
720.1981, 7.653740
720.6802, 8.400093
721.1624, 8.852997
721.6445, 9.047615
722.1266, 8.235863
722.6087, 7.464577
723.0908, 7.807106
723.5729, 10.49548
724.0551, 11.96780
724.5372, 11.59734
725.0193, 10.49242
725.5014, 9.676704
725.9835, 9.010384
726.4656, 9.036789
726.9478, 9.934334
727.4299, 11.10160
727.9120, 11.48117
728.3941, 11.35314
728.8762, 11.80421
729.3583, 13.48549
729.8405, 15.05730
730.3226, 15.23997
730.8047, 14.53505
731.2868, 13.86188
731.7689, 13.19487
732.2510, 12.85452
732.7332, 13.10303
733.2153, 13.63360
733.6974, 13.91304
734.1795, 13.96445
734.6616, 13.71243
735.1437, 12.95698
735.6259, 11.98707
736.1080, 11.62312
736.5901, 11.80457
737.0722, 12.01304
737.5543, 12.10828
738.0364, 12.01719
738.5186, 11.67888
739.0007, 11.08178
739.4828, 10.19693
739.9649, 8.473442
740.4470, 6.977028
740.9291, 6.253212
741.4113, 6.285439
741.8934, 6.371971
742.3755, 6.704453
742.8576, 6.732246
743.3397, 6.023567
743.8218, 4.745377
744.3040, 4.579529
744.7861, 5.563911
745.2682, 6.177994
745.7503, 4.843826
746.2324, 2.695686
746.7145, 1.660088
747.1967, 1.736374
747.6788, 1.909943
748.1609, 1.552238
748.6430, 1.153496
749.1251, 1.007240
749.6072, 1.156128
750.0894, 1.559616
750.5715, 2.500519
751.0536, 3.271805
751.5357, 3.473328
752.0178, 3.083801
752.4999, 2.486824
752.9821, 1.606392
753.4642, 0.9641570
753.9463, 1.366035
754.4284, 2.287987
754.9105, 2.517830
755.3926, 1.811768
755.8748, 1.377609
756.3569, 2.153488
756.8390, 3.456039
757.3211, 4.693077
757.8032, 5.693558
758.2853, 6.782379
758.7675, 8.082787
759.2496, 9.364456
759.7318, 10.50258
760.2139, 11.53253
760.6960, 11.92078
761.1781, 11.42661
761.6602, 10.95827
762.1423, 11.60074
762.6245, 13.14622
763.1066, 15.13210
763.5887, 17.51826
764.0708, 20.08904
764.5529, 22.90811
765.0350, 25.71318
765.5172, 28.19199
765.9993, 29.66489
766.4814, 31.64029
766.9635, 34.29228
767.4456, 37.39359
767.9277, 40.67807
768.4099, 44.19298
768.8920, 47.77679
769.3741, 51.45357
769.8562, 55.08795
770.3383, 58.42537
770.8204, 61.60651
771.3026, 65.01749
771.7847, 68.81588
772.2668, 72.80585
772.7489, 77.32985
773.2310, 81.85358
773.7131, 85.47936
774.1953, 87.85727
774.6774, 89.54940
775.1595, 90.68222
775.6416, 91.15727
776.1237, 90.73531
776.6058, 89.36362
777.0880, 87.40248
777.5701, 84.74517
778.0522, 81.92708
778.5343, 80.19777
779.0164, 79.09643
779.4985, 77.26507
779.9807, 73.76956
780.4628, 69.87804
780.9449, 65.94050
781.4270, 62.22913
781.9091, 59.21465
782.3912, 57.86715
782.8734, 56.16619
783.3555, 53.66953
783.8376, 50.72372
784.3197, 48.11028
784.8018, 45.78403
785.2839, 44.20325
785.7661, 43.87972
786.2482, 43.83707
786.7303, 42.24084
787.2124, 39.55546
787.6945, 37.06163
788.1766, 35.36581
788.6588, 34.00492
789.1409, 32.79372
789.6230, 31.71339
790.1051, 30.68673
790.5872, 29.78326
791.0693, 28.79661
791.5515, 27.55608
792.0336, 26.28069
792.5157, 25.75606
792.9978, 25.98635
793.4799, 26.16039
793.9620, 26.02575
794.4442, 25.61833
794.9263, 24.74795
795.4084, 23.62733
795.8905, 22.83820
796.3726, 23.07717
796.8547, 23.24678
797.3369, 22.58952
797.8190, 21.48712
798.3011, 21.28231
798.7832, 22.51760
799.2653, 23.71619
799.7474, 24.54762
800.2296, 24.99599
800.7117, 24.73161
801.1938, 23.86500
801.6759, 23.52505
802.1580, 24.52909
802.6401, 25.88954
803.1223, 26.25543
803.6044, 26.12728
804.0865, 26.72857
804.5686, 29.60647
805.0507, 32.13427
805.5328, 33.11340
806.0150, 33.11543
806.4971, 33.62518
806.9792, 34.76666
807.4613, 36.19775
807.9434, 37.94012
808.4255, 39.79607
808.9077, 41.29655
809.3898, 42.49171
809.8719, 43.65564
810.3540, 44.94843
810.8361, 46.32768
811.3182, 48.19161
811.8004, 50.11508
812.2825, 51.09819
812.7646, 49.70044
813.2467, 49.00793
813.7288, 50.02654
814.2109, 51.93825
814.6931, 52.51500
815.1752, 51.57339
815.6573, 50.94720
816.1394, 51.37669
816.6215, 52.13167
817.1037, 51.76285
817.5858, 50.73219
818.0679, 50.20512
818.5500, 51.27862
819.0322, 52.25847
819.5143, 52.16277
819.9964, 51.45958
820.4785, 51.20939
820.9606, 51.62312
821.4427, 51.96041
821.9249, 52.15127
822.4070, 52.16824
822.8891, 51.69408
823.3712, 50.82427
823.8533, 50.70789
824.3354, 51.97269
824.8176, 53.49225
825.2997, 53.83927
825.7818, 53.56563
826.2639, 53.61229
826.7460, 55.16545
827.2281, 56.00433
827.7103, 55.33154
828.1924, 53.82464
828.6745, 52.18707
829.1566, 50.25107
829.6387, 49.07242
830.1208, 49.12215
830.6030, 49.24930
831.0851, 47.45161
831.5672, 44.31917
832.0493, 41.45126
832.5314, 39.35854
833.0135, 37.49575
833.4957, 35.48328
833.9778, 33.52747
834.4599, 31.82954
834.9420, 30.85329
835.4241, 29.47510
835.9063, 27.51575
836.3884, 25.43763
836.8705, 23.94807
837.3526, 23.00614
837.8347, 21.35270
838.3168, 18.66338
838.7990, 16.09090
839.2811, 14.82767
839.7632, 14.39884
840.2453, 14.33727
840.7274, 14.87122
841.2095, 14.61044
841.6917, 11.98765
842.1738, 9.169876
842.6559, 7.916092
843.1380, 8.850571
843.6201, 9.069427
844.1022, 8.418060
844.5844, 7.583359
845.0665, 7.382225
845.5486, 7.488144
846.0307, 6.908806
846.5128, 5.556381
846.9949, 4.228851
847.4771, 2.914337
847.9592, 2.060661
848.4413, 2.339050
848.9234, 4.181412
849.4055, 5.201088
849.8876, 5.062889
850.3698, 4.436134
850.8519, 3.533401
851.3340, 2.435287
851.8161, 2.019547
852.2982, 2.130630
852.7803, 2.063454
853.2625, 0.7661670
853.7446, 0.5051570
854.2267, 0.1213840
854.7088, 2.414032
855.1909, 3.542717
855.6730, 1.201294
856.1552, 1.007317
856.6373, 1.693924
857.1194, 1.110786
857.6015, 0.6016460
858.0836, 0.1324690
858.5657, 3.4935001E-02
859.0479, 0.5263750
859.5300, 1.255943
860.0121, 0.7374570
860.4942, 0.6494290
860.9763, 1.509804
861.4584, 0.5803300
861.9406, 0.5071870
862.4227, 1.174309
862.9048, 1.399490
863.3869, 1.161629
863.8690, 0.2125700
864.3511, 0.4483800
864.8333, 0.5567170
865.3154, 0.2840120
865.7975, 0.2288360
866.2796, 0.8528210
866.7617, 0.9820860
867.2438, 1.1658000E-02
867.7260, 0.8472370
868.2081, 0.2545240
868.6902, 0.9286270
869.1723, 1.368576
869.6544, 0.1224750
870.1365, 1.080193
870.6187, 1.276062
871.1008, 1.007538
871.5829, 0.4956210
872.0650, 0.2237780
872.5471, 0.3875200
873.0292, 0.2229310
873.5114, 0.8762510
873.9935, 0.7548220
874.4756, 0.2569730
874.9577, 0.1446000
875.4399, 0.3984150
875.9220, 0.4282150
876.4041, 0.2877270
876.8862, 0.8085630
877.3683, 0.3124240
877.8505, 1.510406
878.3326, 2.121277
878.8147, 1.407234
879.2968, 0.3090440
879.7789, 0.6100770
880.2610, 1.242859
880.7432, 1.323532
881.2253, 0.8613130
881.7074, 0.4161000
882.1895, 0.2112270
882.6716, 0.1341020
883.1537, 0.1170350
883.6359, 0.1589580
884.1180, 0.3619000
884.6001, 0.7751620
885.0822, 1.151314
885.5643, 1.376923
886.0464, 1.491508
886.5286, 1.591988
887.0107, 1.652580
887.4928, 1.576370
887.9749, 1.121002
888.4570, 0.7223430
888.9391, 0.7027280
889.4213, 0.9162980
889.9034, 0.8709560
890.3855, 0.4293750
890.8676, 4.3182001E-02
891.3497, 0.2654800
891.8318, 0.4057310
892.3140, 6.1446998E-02
892.7961, 0.6150050
893.2782, 0.9913410
893.7603, 0.7580030
894.2424, 0.4699100
894.7245, 0.5220720
895.2067, 0.7484440
895.6888, 0.9598240
896.1709, 1.094086
896.6530, 1.304581
897.1351, 1.664406
897.6172, 1.984306
898.0994, 2.006241
898.5815, 1.781532
899.0636, 1.706200
899.5457, 1.826775
900.0278, 1.949928
900.5099, 1.874863
900.9921, 1.757050
901.4742, 1.773781
901.9563, 1.979431
902.4384, 2.034378
902.9205, 1.932365
903.4026, 1.626259
903.8848, 0.8895340
904.3669, 0.1341170
904.8490, 2.0416001E-02
905.3311, 1.181801
905.8132, 2.151627
906.2953, 1.632881
906.7775, 0.8501130
907.2596, 1.415657
907.7417, 2.826294
908.2238, 3.280960
908.7059, 0.6333240
909.1880, 0.9059300
909.6702, 5.6107000E-02
910.1523, 2.308487
910.6344, 2.744621
911.1165, 1.412811
911.5986, 0.7153090
912.0807, 1.611038
912.5629, 2.708885
913.0450, 2.047134
913.5271, 0.6836090
914.0092, 0.2064130
914.4913, 1.796524
914.9734, 3.042580
915.4556, 3.571648
915.9377, 3.610451
916.4198, 3.228882
916.9019, 2.372330
917.3840, 1.562782
917.8661, 0.8350300
918.3483, 0.6454540
918.8304, 2.146507
919.3125, 3.959541
919.7946, 4.007854
920.2767, 2.057129
920.7589, 0.8199390
921.2410, 2.042545
921.7231, 3.247475
922.2052, 3.331722
922.6873, 2.443699
923.1694, 1.946308
923.6516, 1.869625
924.1337, 1.973618
924.6158, 2.292805
925.0979, 2.750557
925.5800, 3.267387
926.0621, 3.706718
926.5443, 3.701382
927.0264, 2.543507
927.5085, 1.848648
927.9906, 2.080788
928.4727, 2.692101
928.9548, 2.563683
929.4370, 1.640373
929.9191, 1.803074
930.4012, 3.636078
930.8833, 5.589985
931.3654, 5.826527
931.8475, 5.062092
932.3297, 4.134380
932.8118, 2.997223
933.2939, 2.476089
933.7761, 3.413452
934.2582, 4.451405
934.7403, 4.755074
935.2224, 4.304676
935.7045, 3.382221
936.1866, 2.021961
936.6688, 0.9165990
937.1509, 0.6316600
937.6330, 0.7469750
938.1151, 0.7644080
938.5972, 0.7266810
939.0793, 0.9209140
939.5615, 1.745358
940.0436, 2.439362
940.5257, 2.879318
941.0078, 3.041229
941.4899, 2.739231
941.9720, 1.998791
942.4542, 1.284763
942.9363, 0.6324730
943.4184, 0.2445180
943.9005, 0.5996820
944.3826, 1.253387
944.8647, 1.574039
945.3469, 1.124634
945.8290, 0.8922960
946.3111, 1.129055
946.7932, 1.373066
947.2753, 1.078285
947.7574, 0.2893560
948.2396, 0.2146840
948.7217, 0.8921620
949.2038, 1.617565
949.6859, 2.031799
950.1680, 2.151436
950.6501, 1.807537
951.1323, 1.020176
951.6144, 0.5214540
952.0965, 0.2508540
952.5786, 0.5537490
953.0607, 1.783997
953.5428, 3.499268
954.0250, 4.461720
954.5071, 4.709267
954.9892, 4.407005
955.4713, 3.309135
955.9534, 2.213478
956.4355, 1.653130
956.9177, 1.498154
957.3998, 1.574162
957.8819, 2.073559
958.3640, 2.389706
958.8461, 2.511848
959.3282, 2.446819
959.8104, 1.932335
960.2925, 1.235298
960.7746, 1.532383
961.2567, 2.910534
961.7388, 3.999325
962.2209, 3.682541
962.7031, 2.982723
963.1852, 2.382175
963.6673, 1.911572
964.1494, 2.333660
964.6315, 4.105911
965.1136, 5.062119
965.5958, 3.978539
966.0779, 1.973763
966.5600, 1.248562
967.0421, 1.443111
967.5242, 1.921646
968.0063, 2.724255
968.4885, 3.220203
968.9706, 2.969433
969.4527, 2.390938
969.9348, 2.048889
970.4169, 1.960976
970.8990, 1.848827
971.3812, 1.611897
971.8633, 1.612186
972.3454, 2.827904
972.8275, 4.257412
973.3096, 4.195198
973.7917, 2.517536
974.2739, 1.339672
974.7560, 1.625736
975.2381, 2.378849
975.7202, 3.518456
976.2023, 4.792194
976.6844, 4.656883
977.1666, 3.102055
977.6487, 1.920303
978.1308, 2.072514
978.6129, 2.534153
979.0950, 2.443398
979.5771, 1.918541
980.0593, 1.192482
980.5414, 0.2781110
981.0235, 1.009888
981.5056, 0.6924250
981.9877, 1.4145000E-02
982.4698, 0.2072530
982.9520, 0.1203230
983.4341, 1.012070
983.9162, 2.941666
984.3983, 4.181850
984.8804, 2.595879
985.3625, 0.5986670
985.8447, 4.3640002E-03
986.3268, 0.8583790
986.8089, 1.599411
987.2910, 2.359684
987.7731, 2.550262
988.2552, 1.764870
988.7374, 0.5848430
989.2195, 0.3002740
989.7016, 0.5997540
990.1837, 0.6588970
990.6658, 6.9390000E-03
991.1479, 0.5372960
991.6301, 0.6750180
992.1122, 0.5034600
992.5944, 7.4219003E-02
993.0765, 0.6948360
993.5586, 1.267628
994.0407, 1.650017
994.5228, 1.735226
995.0049, 1.149811
995.4871, 0.4097750
995.9692, 0.2583810
996.4513, 0.6352460
996.9334, 0.9207760
997.4155, 0.5655210
997.8976, 0.5779610
998.3798, 1.411983
998.8619, 2.609688
999.3440, 2.958035
999.8261, 2.562046
1000.308, 2.494804
1000.790, 3.195187
1001.272, 3.720360
1001.755, 2.957664
1002.237, 1.813126
1002.719, 1.278290
1003.201, 1.678375
1003.683, 2.032848
1004.165, 2.345020
1004.647, 2.636806
1005.129, 2.874458
1005.612, 3.098385
1006.094, 3.673496
1006.576, 4.473701
1007.058, 4.836723
1007.540, 3.641838
1008.022, 2.793217
1008.504, 3.523071
1008.986, 4.930599
1009.468, 5.407257
1009.951, 4.796947
1010.433, 4.585575
1010.915, 5.072453
1011.397, 5.639725
1011.879, 5.541420
1012.361, 5.149048
1012.843, 4.891743
1013.325, 4.835396
1013.807, 4.906475
1014.290, 5.089695
1014.772, 5.402111
1015.254, 5.943016
1015.736, 6.592361
1016.218, 6.709892
1016.700, 6.421921
1017.182, 6.478649
1017.664, 7.667130
1018.147, 8.717262
1018.629, 8.646751
1019.111, 8.068981
1019.593, 7.712162
1020.075, 7.728943
1020.557, 8.120857
1021.039, 9.052246
1021.521, 9.707172
1022.003, 8.813004
1022.486, 7.313046
1022.968, 7.140099
1023.450, 8.252243
1023.932, 8.920547
1024.414, 7.805649
1024.896, 6.915089
1025.378, 6.968544
1025.860, 7.657330
1026.343, 8.146149
1026.825, 8.439331
1027.307, 8.677254
1027.789, 8.860825
1028.271, 9.116508
1028.753, 9.902702
1029.235, 10.63367
1029.717, 10.53518
1030.199, 9.105461
1030.682, 8.354095
1031.164, 8.501396
1031.646, 8.692955
1032.128, 8.250343
1032.610, 7.513264
1033.092, 7.325253
1033.574, 7.620560
1034.056, 8.179081
1034.539, 9.437675
1035.021, 10.27574
1035.503, 10.10249
1035.985, 9.471664
1036.467, 9.007973
1036.949, 8.714737
1037.431, 8.635826
1037.913, 8.797386
1038.396, 8.953033
1038.878, 9.091293
1039.360, 8.989452
1039.842, 8.084633
1040.324, 6.336079
1040.806, 5.634354
1041.288, 6.610561
1041.770, 7.339184
1042.252, 7.213978
1042.734, 6.483540
1043.217, 5.245071
1043.699, 3.840256
1044.181, 3.218304
1044.663, 3.947433
1045.145, 4.794472
1045.627, 5.653347
1046.109, 6.117111
1046.591, 5.674290
1047.074, 4.257481
1047.556, 3.850979
1048.038, 4.454956
1048.520, 5.165359
1049.002, 5.489876
1049.484, 5.557804
1049.966, 4.939430
1050.448, 4.151806
1050.931, 4.933189
1051.413, 9.264702
1051.895, 10.82098
1052.377, 8.191071
1052.859, 4.394138
1053.341, 2.952164
1053.823, 3.148594
1054.305, 3.519588
1054.787, 3.894581
1055.270, 4.179573
1055.752, 4.333298
1056.234, 4.376312
1056.716, 4.299530
1057.198, 4.132725
1057.680, 4.036354
1058.162, 3.995502
1058.644, 3.728111
1059.126, 3.005615
1059.609, 2.366417
1060.091, 2.315773
1060.573, 2.607517
1061.055, 3.067520
1061.537, 3.884247
1062.019, 3.965878
1062.501, 3.039211
1062.983, 2.106480
1063.466, 2.073341
1063.948, 2.428989
1064.430, 2.107555
1064.912, 1.348862
1065.394, 0.8694150
1065.876, 1.210094
1066.358, 1.505219
1066.840, 1.583786
1067.323, 1.581059
1067.805, 1.707230
1068.287, 1.921677
1068.769, 1.874199
1069.251, 1.538391
1069.733, 1.259609
1070.215, 1.297188
1070.697, 1.456875
1071.179, 1.676853
1071.661, 1.916946
1072.144, 2.004906
1072.626, 1.909378
1073.108, 1.868233
1073.590, 1.940437
1074.072, 2.097866
1074.554, 2.746471
1075.036, 3.244991
1075.518, 2.376125
1076.001, 0.7566720
1076.483, 1.747425
1076.965, 0.7621610
1077.447, 3.197319
1077.929, 3.627060
1078.411, 2.702911
1078.893, 2.130733
1079.375, 1.829319
1079.858, 1.523296
1080.340, 0.7103160
1080.822, 0.4310870
1081.304, 1.572296
1081.786, 2.997795
1082.268, 3.755657
1082.750, 3.835606
1083.232, 3.372337
1083.714, 2.372501
1084.197, 1.417324
1084.679, 0.8708920
1085.161, 0.5752720
1085.643, 0.4264950
1086.125, 0.4425090
1086.607, 0.7012710
1087.089, 1.354034
1087.571, 1.673313
1088.054, 1.493908
1088.536, 1.185043
1089.018, 1.258987
1089.500, 1.511932
1089.982, 1.507195
1090.464, 1.121487
1090.946, 0.6206630
1091.428, 0.2520640
1091.911, 0.7621990
1092.393, 0.6782460
1092.875, 9.0809003E-02
1093.357, 1.192455
1093.839, 2.800884
1094.321, 3.501656
1094.803, 2.650223
1095.285, 1.831940
1095.767, 1.918179
1096.250, 2.185585
1096.732, 2.076202
1097.214, 1.634529
1097.696, 1.959320
1098.178, 2.989689
1098.660, 3.491371
1099.142, 2.301136
1099.624, 0.9788670
1100.106, 0.8180540
1100.589, 1.261856
1101.071, 1.385605
1101.553, 0.9343260
1102.035, 0.9748500
1102.517, 1.638836
1102.999, 2.164040
1103.481, 1.672512
1103.963, 0.8176840
1104.446, 0.5274090
1104.928, 0.6792140
1105.410, 0.6139640
1105.892, 6.7424998E-02
1106.374, 0.5462230
1106.856, 0.7382160
1107.338, 0.6500470
1107.820, 0.1446500
1108.302, 0.5982360
1108.785, 1.220402
1109.267, 1.674675
1109.749, 1.858540
1110.231, 1.469433
1110.713, 1.098328
1111.195, 0.9585880
1111.677, 0.9881320
1112.159, 1.045601
1112.641, 1.121132
1113.124, 1.142918
1113.606, 1.080357
1114.088, 1.018391
1114.570, 1.070892
1115.052, 1.096718
1115.534, 0.8654440
1116.016, 0.4121440
1116.498, 0.7569580
1116.981, 1.939297
1117.463, 2.727081
1117.945, 2.488102
1118.427, 1.772720
1118.909, 0.5119860
1119.391, 0.6137200
1119.873, 0.4542660
1120.355, 1.866245
1120.838, 3.001846
1121.320, 2.765919
1121.802, 2.147152
1122.284, 1.656033
1122.766, 1.317131
1123.248, 1.163235
1123.730, 1.182590
1124.212, 1.338490
1124.694, 1.778267
1125.177, 2.150730
1125.659, 2.508327
1126.141, 2.644958
1126.623, 2.106495
1127.105, 1.227676
1127.587, 0.9363440
1128.069, 1.216644
1128.551, 1.568848
1129.033, 1.766228
1129.516, 2.042244
1129.998, 2.637127
1130.480, 3.163799
1130.962, 2.760685
1131.444, 1.656929
1131.926, 1.088631
1132.408, 1.269981
1132.890, 1.467075
1133.373, 1.187286
1133.855, 0.8548850
1134.337, 0.7058370
1134.819, 0.8448910
1135.301, 1.008488
1135.783, 1.194149
1136.265, 1.382763
1136.747, 1.620056
1137.229, 1.649647
1137.712, 0.8214380
1138.194, 2.0290001E-03
1138.676, 0.1834180
1139.158, 1.421494
1139.640, 1.907101
1140.122, 1.626293
1140.604, 1.435925
1141.086, 1.716991
1141.569, 2.183254
1142.051, 2.753078
1142.533, 3.192329
1143.015, 3.082989
1143.497, 1.997162
1143.979, 1.867325
1144.461, 3.045319
1144.943, 3.855675
1145.426, 3.045982
1145.908, 1.486698
1146.390, 4.9743999E-02
1146.872, 0.9780580
1147.354, 1.001232
1147.836, 1.441467
1148.318, 2.808285
1148.800, 2.742477
1149.282, 2.257961
1149.765, 2.251102
1150.247, 2.462315
1150.729, 2.127506
1151.211, 1.379257
1151.693, 0.9277270
1152.175, 1.306953
1152.657, 1.682503
1153.139, 2.045444
1153.621, 2.216850
1154.104, 1.790489
1154.586, 1.009926
1155.068, 0.7710190
1155.550, 1.078297
1156.032, 1.335205
1156.514, 1.177460
1156.996, 0.9943850
1157.478, 0.8112640
1157.961, 0.7659760
1158.443, 1.314766
1158.925, 2.281433
1159.407, 2.557690
1159.889, 1.970036
1160.371, 1.434853
1160.853, 1.725292
1161.335, 1.977345
1161.818, 1.456299
1162.300, 0.6360240
1162.782, 1.263523
1163.264, 3.158569
1163.746, 4.023140
1164.228, 3.195656
1164.710, 2.178257
1165.192, 2.043900
1165.674, 2.183868
1166.156, 2.087955
1166.639, 2.182983
1167.121, 2.355946
1167.603, 2.338936
1168.085, 2.693695
1168.567, 2.789322
1169.049, 2.839970
1169.531, 3.189133
1170.013, 3.474384
1170.496, 3.205421
1170.978, 2.370148
1171.460, 2.050835
1171.942, 2.282227
1172.424, 2.353630
1172.906, 1.805828
1173.388, 1.219727
1173.870, 1.080307
1174.353, 1.309437
1174.835, 1.942749
1175.317, 3.165009
1175.799, 3.534130
1176.281, 2.948418
1176.763, 2.355667
1177.245, 2.390770
1177.727, 2.542736
1178.209, 2.039894
1178.692, 1.250427
1179.174, 0.8796230
1179.656, 1.160221
1180.138, 1.458435
1180.620, 1.802197
1181.102, 2.029453
1181.584, 1.769413
1182.066, 1.519917
1182.548, 2.208050
1183.031, 3.364388
1183.513, 3.859734
1183.995, 3.240910
1184.477, 2.552444
1184.959, 1.744270
1185.441, 1.208874
1185.923, 1.598106
1186.405, 2.268810
1186.888, 2.283581
1187.370, 1.785923
1187.852, 1.371105
1188.334, 1.264957
1188.816, 0.9379430
1189.298, 0.2309990
1189.780, 0.3182070
1190.262, 1.6289999E-03
1190.745, 0.7488630
1191.227, 1.376328
1191.709, 1.852005
1192.191, 2.063465
1192.673, 1.713478
1193.155, 1.502743
1193.637, 1.534348
1194.119, 1.790806
1194.601, 2.761177
1195.084, 3.686234
1195.566, 2.819313
1196.048, 0.3025170
1196.530, 0.8738100
1197.012, 0.7415010
1197.494, 1.894032
1197.976, 1.923164
1198.458, 1.392246
1198.941, 0.8102720
1199.423, 0.3416290
1199.905, 0.4626270
1200.387, 1.191441
1200.869, 1.371021
1201.351, 0.3301730
1201.833, 0.3174480
1202.315, 7.5787000E-02
1202.797, 0.5227320
1203.280, 0.6879120
1203.762, 0.5756150
1204.244, 0.3399280
1204.726, 6.7638002E-02
1205.208, 8.3389999E-03
1205.690, 1.118526
1206.172, 1.770645
1206.654, 1.282810
1207.136, 0.5226330
1207.619, 1.485607
1208.101, 3.085934
1208.583, 3.113594
1209.065, 0.8480640
1209.547, 0.1458400
1210.029, 1.318401
1210.511, 2.503525
1210.993, 2.333481
1211.476, 1.525326
1211.958, 1.168159
1212.440, 1.216408
1212.922, 1.739246
1213.404, 2.934208
1213.886, 3.514820
1214.368, 3.186195
1214.850, 2.693661
1215.333, 2.311466
1215.815, 1.988708
1216.297, 1.634617
1216.779, 1.265984
1217.261, 0.9013100
1217.743, 0.5136720
1218.225, 0.2213480
1218.707, 9.5927998E-02
1219.189, 2.4448000E-02
1219.672, 0.9957160
1220.154, 2.280029
1220.636, 3.212589
1221.118, 3.647297
1221.600, 3.094715
1222.082, 0.6099780
1222.564, 0.1557460
1223.046, 2.687092
1223.528, 4.848190
1224.011, 4.718842
1224.493, 3.407616
1224.975, 2.389725
1225.457, 1.697334
1225.939, 1.416573
1226.421, 1.838848
1226.903, 1.893280
1227.385, 1.443424
1227.868, 1.082916
1228.350, 1.165279
1228.832, 1.501629
1229.314, 2.029663
1229.796, 2.525654
1230.278, 2.530174
1230.760, 1.539761
1231.242, 1.406254
1231.724, 2.349339
1232.207, 3.095737
1232.689, 2.748276
1233.171, 1.938313
1233.653, 1.245598
1234.135, 0.7481650
1234.617, 0.5983620
1235.099, 0.8886950
1235.581, 1.306408
1236.063, 1.899357
1236.546, 2.266594
1237.028, 1.954437
1237.510, 1.501205
1237.992, 1.534367
1238.474, 1.778179
1238.956, 1.783901
1239.438, 1.354256
1239.920, 1.550678
1240.403, 2.431118
1240.885, 3.088100
1241.367, 2.651165
1241.849, 2.034176
1242.331, 2.066490
1242.813, 2.417934
1243.295, 2.600201
1243.777, 2.585175
1244.260, 2.441547
1244.742, 2.167862
1245.224, 1.966312
1245.706, 2.182610
1246.188, 2.284046
1246.670, 1.735809
1247.152, 0.9938550
1247.634, 0.5773200
1248.116, 0.5135040
1248.599, 0.1891820
1249.081, 0.3647270
1249.563, 0.6706920
1250.045, 0.2883150
1250.527, 0.2554890
1251.009, 0.3531490
1251.491, 0.4826390
1251.973, 1.311749
1252.455, 2.730652
1252.938, 3.459023
1253.420, 3.526058
1253.902, 3.279186
1254.384, 2.667355
1254.866, 2.177010
1255.348, 1.884029
1255.830, 1.859928
1256.313, 2.347794
1256.795, 3.236897
1257.277, 3.347042
1257.759, 2.819607
1258.241, 2.424351
1258.723, 2.806614
1259.205, 2.917755
1259.687, 2.386375
1260.169, 1.802094
1260.651, 1.711658
1261.134, 1.954014
1261.616, 2.249542
1262.098, 2.499504
1262.580, 2.507938
1263.062, 1.798546
1263.544, 1.503021
1264.026, 1.796200
1264.508, 2.273224
1264.991, 2.746033
1265.473, 3.085194
1265.955, 2.923332
1266.437, 2.434891
1266.919, 2.079014
1267.401, 2.065155
1267.883, 2.061447
1268.365, 2.112881
1268.848, 1.971004
1269.330, 1.264435
1269.812, 0.4302860
1270.294, 9.5588997E-02
1270.776, 0.2928770
1271.258, 6.6490002E-02
1271.740, 0.7039950
1272.222, 1.461292
1272.704, 2.211536
1273.187, 2.784084
1273.669, 2.921612
1274.151, 2.965778
1274.633, 3.309258
1275.115, 3.705551
1275.597, 3.751690
1276.079, 3.322346
1276.561, 2.805752
1277.043, 2.463951
1277.526, 2.183014
1278.008, 1.860744
1278.490, 1.736469
1278.972, 2.165676
1279.454, 2.719166
1279.936, 2.984642
1280.418, 2.962563
1280.900, 2.648430
1281.383, 2.115829
1281.865, 1.832806
1282.347, 2.277737
1282.829, 2.661865
1283.311, 2.802406
1283.793, 2.692135
1284.275, 2.059803
1284.757, 1.191807
1285.240, 1.575233
1285.722, 2.799347
1286.204, 3.510460
1286.686, 2.746334
1287.168, 1.979282
1287.650, 1.624035
1288.132, 1.460865
1288.614, 1.550484
1289.096, 1.727749
1289.578, 1.658207
1290.061, 1.421871
1290.543, 1.137032
1291.025, 0.6677670
1291.507, 0.6664510
1291.989, 1.275360
1292.471, 1.669842
1292.953, 1.207821
1293.435, 0.5033380
1293.918, 0.2658230
1294.400, 0.2753180
1294.882, 0.1553880
1295.364, 0.1738470
1295.846, 0.1314430
1296.328, 1.088284
1296.810, 1.762798
1297.292, 1.553936
1297.775, 1.202347
1298.257, 1.267414
1298.739, 1.464142
1299.221, 1.336258
1299.703, 1.307426
1300.185, 1.095654
1300.667, 0.7067450
1301.149, 0.3561710
1301.631, 0.1129000
1302.114, 3.2309999E-03
1302.596, 0.0000000E+00
##END=



