##NAMES=Dmisteinbergite
##RRUFFID=R130087
##IDEAL CHEMISTRY=CaAl_2_Si_2_O_8_
##LOCALITY=Katashina Village, Gunma Prefecture, Japan
##OWNER=RRUFF
##SOURCE=Michael Scott
##DESCRIPTION=Colorless platelets with pearly luster. Associated with prehnite and wairakite, R061075
##STATUS=The identification of this mineral is not yet confirmed.
##URL=rruff.info/R130087
138.9210, 0.0000000E+00
139.4031, 17.29297
139.8852, 18.74414
140.3673, 2.524414
140.8494, 0.2685550
141.3316, 29.31348
141.8137, 49.38965
142.2958, 59.11816
142.7779, 61.87402
143.2600, 61.60742
143.7421, 52.38281
144.2243, 49.99707
144.7064, 61.07031
145.1885, 94.76855
145.6706, 121.2559
146.1527, 138.7041
146.6348, 148.5068
147.1170, 155.4531
147.5991, 153.7227
148.0812, 153.2109
148.5633, 158.3564
149.0454, 167.7734
149.5275, 182.9932
150.0097, 207.8291
150.4918, 240.8203
150.9739, 264.2998
151.4560, 271.5049
151.9381, 272.0000
152.4202, 272.4941
152.9024, 286.0566
153.3845, 286.5234
153.8666, 264.3867
154.3487, 216.3740
154.8308, 173.3271
155.3129, 130.4053
155.7950, 97.79688
156.2772, 87.21387
156.7593, 114.3604
157.2414, 152.5908
157.7235, 197.4707
158.2056, 255.1426
158.6877, 296.9570
159.1699, 308.8164
159.6520, 300.1689
160.1341, 287.9795
160.6162, 269.0654
161.0983, 254.0918
161.5804, 249.6260
162.0626, 260.3447
162.5447, 275.7959
163.0268, 295.5410
163.5089, 317.5723
163.9910, 335.2090
164.4731, 340.1885
164.9553, 341.7539
165.4374, 348.0752
165.9195, 370.2119
166.4016, 388.9727
166.8837, 388.5020
167.3658, 371.0566
167.8480, 357.6172
168.3301, 364.9189
168.8122, 382.2236
169.2943, 395.9004
169.7764, 408.3574
170.2585, 410.1494
170.7407, 384.9209
171.2228, 331.5312
171.7049, 286.9775
172.1870, 287.3564
172.6691, 314.7275
173.1512, 336.6924
173.6334, 340.3359
174.1155, 335.5039
174.5976, 333.5527
175.0797, 336.4287
175.5618, 337.2646
176.0439, 325.0361
176.5260, 303.9775
177.0082, 288.1846
177.4903, 287.6885
177.9724, 297.4854
178.4545, 310.2402
178.9366, 328.0391
179.4187, 342.2920
179.9009, 335.4375
180.3830, 310.7979
180.8651, 290.8525
181.3472, 296.6211
181.8293, 319.4023
182.3114, 334.5352
182.7936, 334.3398
183.2757, 326.9561
183.7578, 332.7412
184.2399, 351.1982
184.7220, 358.8691
185.2041, 324.4873
185.6863, 257.3955
186.1684, 201.3750
186.6505, 167.4160
187.1326, 152.6348
187.6147, 154.0303
188.0968, 173.5811
188.5790, 192.4980
189.0611, 185.6719
189.5432, 155.9639
190.0253, 135.4414
190.5074, 142.7861
190.9895, 170.2012
191.4717, 178.1289
191.9538, 164.1475
192.4359, 140.4775
192.9180, 120.0654
193.4001, 102.6729
193.8822, 91.66211
194.3644, 91.51465
194.8465, 101.2207
195.3286, 105.6777
195.8107, 104.1777
196.2928, 97.86133
196.7749, 85.84082
197.2570, 66.75684
197.7392, 51.81543
198.2213, 49.24316
198.7034, 60.32227
199.1855, 66.87500
199.6676, 68.40234
200.1497, 64.64941
200.6319, 52.85938
201.1140, 31.49023
201.5961, 10.48535
202.0782, 3.112305
202.5603, 8.139648
203.0424, 12.99219
203.5246, 17.54590
204.0067, 21.67188
204.4888, 26.75000
204.9709, 33.55176
205.4530, 37.89355
205.9352, 35.44336
206.4173, 26.11133
206.8994, 15.19238
207.3815, 2.831055
207.8636, 10.38086
208.3457, 18.52051
208.8279, 19.63672
209.3100, 19.96484
209.7921, 24.61523
210.2742, 32.49512
210.7563, 44.47266
211.2384, 62.85254
211.7206, 87.21094
212.2027, 103.6982
212.6848, 110.5000
213.1669, 111.9346
213.6490, 111.5000
214.1311, 107.7031
214.6133, 105.8955
215.0954, 108.9814
215.5775, 117.2207
216.0596, 116.9551
216.5417, 102.8535
217.0238, 86.36426
217.5059, 81.63086
217.9881, 91.48535
218.4702, 108.3145
218.9523, 135.5332
219.4344, 177.9521
219.9165, 193.0430
220.3986, 168.2793
220.8808, 127.6514
221.3629, 108.3281
221.8450, 120.2627
222.3271, 135.2764
222.8092, 144.3291
223.2913, 145.3916
223.7735, 147.6631
224.2556, 152.2559
224.7377, 157.7383
225.2198, 161.8564
225.7019, 166.6309
226.1840, 165.7686
226.6662, 154.2432
227.1483, 123.0449
227.6304, 107.2314
228.1125, 117.3193
228.5946, 138.8193
229.0767, 134.9268
229.5589, 81.67285
230.0410, 38.12402
230.5231, 34.48242
231.0052, 102.5518
231.4873, 138.8105
231.9694, 130.8457
232.4516, 93.30176
232.9337, 70.43262
233.4158, 69.05566
233.8979, 73.07227
234.3800, 75.45703
234.8621, 77.76953
235.3443, 75.00879
235.8264, 59.85352
236.3085, 39.61914
236.7906, 45.56934
237.2727, 98.66797
237.7548, 150.2061
238.2369, 171.3467
238.7191, 139.7168
239.2012, 121.7334
239.6833, 125.1729
240.1654, 145.7471
240.6475, 164.1260
241.1296, 182.9990
241.6118, 195.1992
242.0939, 193.9424
242.5760, 166.4463
243.0581, 150.9297
243.5402, 155.2354
244.0223, 175.6123
244.5045, 188.9277
244.9866, 195.3652
245.4687, 195.0029
245.9508, 186.2715
246.4329, 161.0400
246.9150, 146.4785
247.3972, 153.1377
247.8793, 177.1963
248.3614, 178.9570
248.8435, 143.5469
249.3256, 104.3359
249.8077, 86.71484
250.2899, 98.27344
250.7720, 115.5117
251.2541, 140.1006
251.7362, 169.9482
252.2183, 183.1455
252.7004, 172.6133
253.1826, 153.1377
253.6647, 134.6641
254.1468, 112.6191
254.6289, 101.5029
255.1110, 109.1689
255.5931, 133.8643
256.0753, 138.4727
256.5574, 113.8408
257.0395, 81.93945
257.5216, 63.26270
258.0037, 65.67773
258.4858, 62.22266
258.9680, 44.45410
259.4501, 13.70410
259.9322, 0.9199220
260.4143, 14.28906
260.8964, 34.20605
261.3785, 43.20703
261.8607, 39.66113
262.3428, 29.82031
262.8249, 10.89551
263.3070, 15.91309
263.7891, 28.29395
264.2712, 21.11230
264.7534, 6.590820
265.2355, 4.317383
265.7176, 11.47168
266.1997, 13.51855
266.6818, 7.215820
267.1639, 6.526367
267.6461, 9.076172
268.1282, 2.915039
268.6103, 19.74414
269.0924, 33.07520
269.5745, 42.78027
270.0566, 48.03027
270.5387, 46.67578
271.0208, 39.48535
271.5030, 37.08105
271.9851, 38.15039
272.4672, 46.53320
272.9493, 73.53125
273.4314, 126.5547
273.9135, 155.6260
274.3957, 141.1631
274.8778, 89.37598
275.3599, 54.30859
275.8420, 36.56348
276.3241, 33.91211
276.8062, 52.52441
277.2884, 97.04004
277.7705, 122.8232
278.2526, 113.7637
278.7347, 76.80957
279.2168, 52.20117
279.6989, 41.25781
280.1811, 38.66797
280.6632, 43.84180
281.1453, 57.69824
281.6274, 60.64062
282.1095, 42.68750
282.5916, 10.72852
283.0738, 4.840820
283.5559, 0.8359380
284.0380, 11.88086
284.5201, 34.13379
285.0022, 65.44629
285.4843, 84.84863
285.9665, 72.46875
286.4486, 44.56445
286.9307, 56.40332
287.4128, 108.7305
287.8949, 165.6494
288.3770, 175.2969
288.8592, 146.5088
289.3413, 128.0127
289.8234, 140.2754
290.3055, 168.5967
290.7876, 171.5615
291.2697, 148.1631
291.7519, 125.3105
292.2340, 127.4082
292.7161, 151.0547
293.1982, 181.9180
293.6803, 225.0283
294.1624, 265.9404
294.6446, 266.8662
295.1267, 230.3311
295.6088, 198.0869
296.0909, 210.2588
296.5730, 252.7969
297.0551, 290.7939
297.5373, 322.0537
298.0194, 338.0293
298.5015, 311.4316
298.9836, 247.3994
299.4657, 191.8311
299.9478, 188.5371
300.4300, 217.6855
300.9121, 240.8750
301.3942, 246.1562
301.8763, 247.0801
302.3584, 263.3750
302.8405, 291.8379
303.3227, 313.4482
303.8048, 304.9893
304.2869, 285.5635
304.7690, 285.2979
305.2511, 319.8047
305.7332, 357.2949
306.2154, 367.2754
306.6975, 355.1602
307.1796, 340.5869
307.6617, 320.4141
308.1438, 310.4951
308.6259, 333.3193
309.1081, 408.5244
309.5901, 480.9824
310.0723, 503.3447
310.5544, 491.5283
311.0365, 487.8838
311.5186, 516.0537
312.0007, 560.3555
312.4828, 608.3408
312.9650, 658.4795
313.4471, 711.3691
313.9292, 761.9238
314.4113, 815.0303
314.8934, 880.7051
315.3755, 951.9756
315.8577, 1043.615
316.3398, 1170.704
316.8219, 1348.458
317.3040, 1514.618
317.7861, 1631.119
318.2682, 1724.476
318.7504, 1833.738
319.2325, 1984.032
319.7146, 2143.469
320.1967, 2298.074
320.6788, 2447.153
321.1609, 2591.082
321.6431, 2724.423
322.1252, 2856.928
322.6073, 2999.688
323.0894, 3172.931
323.5715, 3338.947
324.0536, 3480.522
324.5358, 3588.110
325.0179, 3714.516
325.5000, 3848.998
325.9821, 4012.770
326.4642, 4227.353
326.9464, 4740.812
327.4285, 5045.824
327.9106, 4999.745
328.3927, 4579.779
328.8748, 4172.964
329.3569, 3789.073
329.8391, 3415.851
330.3212, 3043.947
330.8033, 2658.217
331.2854, 2294.626
331.7675, 1958.323
332.2496, 1647.138
332.7318, 1370.521
333.2139, 1125.015
333.6960, 914.8379
334.1781, 741.4639
334.6602, 607.7051
335.1423, 505.8311
335.6245, 443.6426
336.1066, 411.7148
336.5887, 366.4209
337.0708, 299.8223
337.5529, 235.1543
338.0350, 189.1924
338.5172, 165.7559
338.9993, 140.4932
339.4814, 109.7246
339.9635, 77.19922
340.4456, 50.96484
340.9277, 10.08203
341.4099, 26.39355
341.8920, 44.14453
342.3741, 44.10352
342.8562, 28.73828
343.3383, 7.098633
343.8204, 23.38672
344.3026, 41.56543
344.7847, 6.987305
345.2668, 69.26855
345.7489, 35.35547
346.2310, 39.90039
346.7131, 26.90137
347.1953, 52.00391
347.6774, 65.38965
348.1595, 62.00488
348.6416, 54.96973
349.1237, 47.48828
349.6058, 44.34570
350.0880, 42.58008
350.5700, 33.62012
351.0522, 16.83984
351.5343, 3.051758
352.0164, 6.859375
352.4985, 20.70117
352.9806, 28.59375
353.4627, 19.02441
353.9449, 4.474609
354.4270, 1.524414
354.9091, 0.2558590
355.3912, 3.597656
355.8733, 7.887695
356.3554, 10.11035
356.8376, 6.035156
357.3197, 10.66992
357.8018, 27.46387
358.2839, 37.10254
358.7660, 39.94922
359.2481, 37.84375
359.7303, 14.21777
360.2124, 3.971680
360.6945, 6.664063
361.1766, 70.34863
361.6587, 126.5830
362.1408, 146.3857
362.6230, 141.4980
363.1051, 137.5098
363.5872, 148.0918
364.0693, 156.2744
364.5514, 152.1670
365.0335, 128.1299
365.5157, 110.3340
365.9978, 112.9287
366.4799, 121.8936
366.9620, 116.5801
367.4441, 65.26758
367.9262, 28.30957
368.4084, 27.84180
368.8905, 73.56641
369.3726, 101.3242
369.8547, 107.6943
370.3368, 98.32715
370.8189, 76.66309
371.3011, 27.53320
371.7832, 9.323242
372.2653, 26.67773
372.7474, 25.09668
373.2295, 14.36426
373.7116, 11.52051
374.1938, 37.30762
374.6759, 51.30371
375.1580, 51.25781
375.6401, 46.88184
376.1222, 37.29590
376.6043, 25.10645
377.0865, 19.00586
377.5686, 19.75098
378.0507, 23.30566
378.5328, 23.20020
379.0149, 19.67090
379.4970, 37.60156
379.9792, 85.37207
380.4613, 141.5967
380.9434, 165.3721
381.4255, 158.3496
381.9076, 145.3369
382.3897, 133.4277
382.8719, 124.5938
383.3540, 129.2266
383.8361, 149.5537
384.3182, 168.5811
384.8003, 160.6709
385.2824, 135.4619
385.7646, 120.7021
386.2467, 130.0928
386.7288, 154.1758
387.2109, 187.8711
387.6930, 230.6670
388.1751, 262.9160
388.6573, 265.6064
389.1394, 251.7363
389.6215, 237.6895
390.1036, 229.0732
390.5857, 220.7500
391.0678, 208.8291
391.5499, 194.2422
392.0320, 180.2197
392.5142, 161.1709
392.9963, 147.7334
393.4784, 149.3711
393.9605, 176.6299
394.4426, 198.7236
394.9247, 200.8721
395.4069, 191.8467
395.8890, 187.6367
396.3711, 194.9121
396.8532, 204.8740
397.3353, 214.6221
397.8174, 223.5791
398.2996, 234.0156
398.7817, 258.7246
399.2638, 280.2549
399.7459, 273.7598
400.2280, 192.4941
400.7101, 142.5889
401.1923, 159.5010
401.6744, 236.2461
402.1565, 281.5537
402.6386, 285.9844
403.1207, 273.6162
403.6028, 269.6143
404.0850, 270.9180
404.5671, 282.4189
405.0492, 305.7969
405.5313, 335.8799
406.0134, 353.9727
406.4955, 355.7959
406.9777, 365.7939
407.4598, 407.8691
407.9419, 479.8906
408.4240, 513.3916
408.9061, 498.5713
409.3882, 468.4619
409.8704, 465.8184
410.3525, 488.1006
410.8346, 519.3682
411.3167, 557.2939
411.7988, 600.6328
412.2809, 645.3574
412.7631, 691.5684
413.2452, 734.9795
413.7273, 767.9121
414.2094, 795.9160
414.6915, 828.5947
415.1736, 867.1250
415.6558, 913.9727
416.1379, 969.2158
416.6200, 1034.484
417.1021, 1111.794
417.5842, 1220.663
418.0663, 1332.794
418.5485, 1418.619
419.0306, 1458.520
419.5127, 1512.670
419.9948, 1615.238
420.4769, 1748.144
420.9590, 1882.218
421.4412, 2000.659
421.9233, 2126.889
422.4054, 2270.776
422.8875, 2432.312
423.3696, 2604.397
423.8517, 2797.891
424.3339, 2992.403
424.8160, 3174.539
425.2981, 3324.039
425.7802, 3485.090
426.2623, 3665.440
426.7444, 3862.672
427.2266, 4064.986
427.7087, 4273.477
428.1908, 4490.428
428.6729, 4721.123
429.1550, 4967.969
429.6371, 5218.900
430.1193, 5475.907
430.6014, 5732.466
431.0835, 5967.934
431.5656, 6177.795
432.0477, 6406.748
432.5298, 6685.873
433.0119, 7003.721
433.4940, 7289.465
433.9762, 7541.033
434.4583, 7776.512
434.9404, 8016.571
435.4225, 8256.381
435.9046, 8478.373
436.3867, 8670.375
436.8689, 8846.481
437.3510, 9035.995
437.8331, 9231.204
438.3152, 9392.015
438.7973, 9488.895
439.2794, 9538.256
439.7616, 9561.300
440.2437, 9565.868
440.7258, 9526.753
441.2079, 9424.226
441.6900, 9267.268
442.1721, 9071.329
442.6543, 8835.307
443.1364, 8567.543
443.6185, 8260.923
444.1006, 7915.006
444.5827, 7574.885
445.0648, 7279.025
445.5470, 6975.568
446.0291, 6625.293
446.5112, 6130.553
446.9933, 5701.832
447.4754, 5375.525
447.9576, 5130.332
448.4397, 4874.229
448.9218, 4598.271
449.4039, 4328.594
449.8860, 4076.149
450.3681, 3845.839
450.8503, 3619.421
451.3324, 3386.385
451.8145, 3169.731
452.2966, 3013.592
452.7787, 2926.693
453.2608, 2820.984
453.7430, 2657.146
454.2251, 2456.390
454.7072, 2304.616
455.1893, 2204.416
455.6714, 2111.090
456.1535, 1980.399
456.6357, 1825.818
457.1178, 1688.598
457.5999, 1580.551
458.0820, 1484.987
458.5641, 1376.788
459.0462, 1264.364
459.5284, 1174.850
460.0105, 1149.681
460.4926, 1139.045
460.9747, 1096.195
461.4568, 1014.640
461.9389, 926.1953
462.4211, 844.4346
462.9032, 771.7559
463.3853, 709.8896
463.8674, 663.6553
464.3495, 623.4023
464.8316, 586.1992
465.3138, 552.7617
465.7959, 523.9014
466.2780, 509.7656
466.7601, 492.6709
467.2422, 464.2324
467.7243, 418.5518
468.2065, 373.0020
468.6886, 320.3662
469.1707, 272.3301
469.6528, 247.8818
470.1349, 261.0703
470.6170, 265.4727
471.0992, 246.3906
471.5813, 207.6436
472.0634, 181.6426
472.5455, 170.1875
473.0276, 167.7422
473.5097, 181.4336
473.9918, 209.2969
474.4739, 220.6396
474.9561, 209.9395
475.4382, 192.1387
475.9203, 191.1357
476.4024, 203.3145
476.8845, 214.3652
477.3666, 226.2900
477.8488, 235.2041
478.3309, 226.6904
478.8130, 200.2656
479.2951, 189.6396
479.7772, 236.2549
480.2593, 305.6201
480.7415, 355.2061
481.2236, 359.1406
481.7057, 423.5664
482.1878, 469.8496
482.6699, 497.4277
483.1520, 451.4316
483.6342, 499.7549
484.1163, 510.3730
484.5984, 519.8691
485.0805, 582.8750
485.5626, 549.8643
486.0447, 613.5967
486.5269, 638.4609
487.0090, 598.3652
487.4911, 646.2949
487.9732, 687.7852
488.4553, 724.4756
488.9374, 750.9248
489.4196, 740.2900
489.9017, 685.1143
490.3838, 615.8926
490.8659, 540.2793
491.3480, 459.2422
491.8301, 407.2998
492.3123, 389.5156
492.7944, 384.9561
493.2765, 365.3750
493.7586, 334.7471
494.2407, 310.7266
494.7228, 299.0117
495.2050, 298.4014
495.6871, 312.1768
496.1692, 338.4268
496.6513, 362.9834
497.1334, 377.7236
497.6155, 386.4082
498.0977, 388.8984
498.5798, 377.7021
499.0619, 383.9912
499.5440, 443.6533
500.0261, 525.0000
500.5082, 583.0000
500.9904, 584.1152
501.4725, 580.7881
501.9546, 582.9346
502.4367, 589.9590
502.9188, 612.0771
503.4009, 664.4473
503.8831, 716.8906
504.3652, 754.2559
504.8473, 777.9443
505.3294, 783.1953
505.8115, 770.6074
506.2936, 739.0010
506.7758, 681.7471
507.2579, 595.2236
507.7400, 507.9453
508.2221, 433.0762
508.7042, 365.3271
509.1863, 271.3408
509.6685, 149.3438
510.1506, 43.25684
510.6327, 2.226563
511.1148, 4.742188
511.5969, 6.250000
512.0790, 14.27734
512.5612, 21.75000
513.0433, 21.65820
513.5254, 16.01270
514.0075, 8.861328
514.4896, 4.785156
514.9717, 13.48047
515.4539, 7.076172
515.9360, 13.88281
516.4181, 32.40430
516.9002, 38.75000
517.3823, 42.75977
517.8644, 52.31641
518.3466, 94.55371
518.8287, 101.1885
519.3108, 42.68262
519.7929, 44.76855
520.2750, 98.11719
520.7571, 108.6699
521.2393, 98.95508
521.7214, 64.28027
522.2035, 8.020508
522.6856, 9.354492
523.1677, 20.72656
523.6498, 58.68262
524.1320, 71.71680
524.6141, 62.06152
525.0962, 59.34863
525.5783, 69.49609
526.0604, 78.98340
526.5425, 60.82129
527.0247, 24.65430
527.5068, 1.786133
527.9889, 27.72949
528.4710, 61.45117
528.9531, 49.95801
529.4352, 0.2021480
529.9174, 34.65039
530.3995, 7.128906
530.8816, 60.35156
531.3637, 69.91504
531.8458, 1.849609
532.3279, 56.10840
532.8101, 85.43262
533.2922, 90.03516
533.7743, 74.76270
534.2564, 1.386719
534.7385, 43.88477
535.2206, 171.5674
535.7027, 210.8701
536.1848, 230.8447
536.6669, 232.5186
537.1490, 161.0811
537.6312, 184.0713
538.1133, 169.2324
538.5954, 152.8496
539.0775, 189.1689
539.5596, 11.64648
540.0417, 2.752930
540.5239, 8.118164
541.0060, 13.58496
541.4881, 10.14648
541.9702, 1.211914
542.4523, 14.16113
542.9344, 33.14355
543.4166, 41.20020
543.8987, 31.95020
544.3808, 6.673828
544.8629, 43.44727
545.3450, 128.1230
545.8271, 185.8662
546.3093, 163.9414
546.7914, 112.9248
547.2735, 84.84961
547.7556, 111.1611
548.2377, 136.1758
548.7198, 151.8135
549.2020, 160.0361
549.6841, 168.1924
550.1662, 182.2539
550.6483, 186.5469
551.1304, 171.9346
551.6125, 137.4131
552.0947, 113.2666
552.5768, 101.1221
553.0589, 95.77930
553.5410, 92.13965
554.0231, 90.77148
554.5052, 95.60547
554.9874, 109.2119
555.4695, 125.4385
555.9516, 139.9277
556.4337, 150.5771
556.9158, 150.2285
557.3979, 127.9795
557.8801, 98.15234
558.3622, 64.59570
558.8443, 29.26953
559.3264, 18.52930
559.8085, 72.49414
560.2906, 137.8975
560.7728, 174.9609
561.2549, 155.7354
561.7370, 147.6572
562.2191, 173.2686
562.7012, 209.6494
563.1833, 225.2002
563.6655, 208.1270
564.1476, 190.7334
564.6297, 177.9482
565.1118, 169.8496
565.5939, 167.1719
566.0760, 170.2100
566.5582, 177.1660
567.0403, 191.2686
567.5224, 210.0010
568.0045, 218.7578
568.4866, 216.9092
568.9688, 205.8682
569.4509, 175.1436
569.9330, 137.5176
570.4151, 119.9258
570.8972, 140.6602
571.3793, 170.1768
571.8615, 186.8047
572.3436, 194.1689
572.8257, 200.6299
573.3078, 214.8574
573.7899, 224.1113
574.2720, 217.3955
574.7542, 192.3711
575.2363, 180.0391
575.7184, 187.6689
576.2005, 203.0459
576.6826, 224.1719
577.1647, 265.5908
577.6469, 287.3994
578.1290, 284.8389
578.6111, 265.2725
579.0932, 227.5752
579.5753, 168.7500
580.0574, 151.1641
580.5396, 213.7959
581.0217, 318.3174
581.5038, 367.0312
581.9859, 363.5967
582.4680, 349.1387
582.9501, 344.6689
583.4323, 343.7207
583.9144, 336.7012
584.3965, 324.6172
584.8786, 322.3809
585.3607, 357.2646
585.8428, 397.6719
586.3250, 411.5254
586.8071, 356.6631
587.2892, 316.4980
587.7713, 315.6104
588.2534, 341.3232
588.7355, 352.4834
589.2177, 340.4492
589.6998, 327.0322
590.1819, 311.7441
590.6640, 296.5693
591.1461, 303.6143
591.6282, 341.1074
592.1104, 376.1055
592.5925, 368.9482
593.0746, 327.3486
593.5567, 310.5234
594.0388, 326.1357
594.5209, 350.4736
595.0031, 362.8438
595.4852, 364.0762
595.9673, 356.2432
596.4494, 341.4111
596.9315, 316.3574
597.4136, 265.3359
597.8958, 202.5908
598.3779, 161.2520
598.8600, 167.5156
599.3421, 183.6152
599.8242, 198.3340
600.3063, 211.9854
600.7885, 210.6973
601.2706, 180.2510
601.7527, 152.8672
602.2348, 151.8916
602.7169, 185.8184
603.1990, 208.6299
603.6812, 216.0811
604.1633, 216.6484
604.6454, 224.4014
605.1275, 238.1309
605.6096, 243.4756
606.0917, 229.6152
606.5739, 212.4814
607.0560, 219.8740
607.5381, 246.8594
608.0202, 274.3525
608.5023, 296.9297
608.9844, 310.8828
609.4666, 308.8496
609.9487, 290.0420
610.4308, 275.4395
610.9129, 274.2832
611.3950, 278.9902
611.8771, 285.1621
612.3593, 303.9189
612.8414, 303.9424
613.3235, 271.2783
613.8056, 230.7793
614.2877, 221.3760
614.7698, 253.4453
615.2520, 275.1699
615.7341, 272.2393
616.2162, 254.5732
616.6983, 247.4961
617.1804, 250.7734
617.6625, 258.8887
618.1446, 267.6094
618.6267, 278.2734
619.1088, 296.2520
619.5909, 321.0254
620.0731, 340.1719
620.5552, 337.4521
621.0373, 328.8867
621.5194, 329.2256
622.0015, 344.8672
622.4836, 359.0127
622.9658, 362.8018
623.4479, 363.5137
623.9300, 371.3613
624.4121, 398.5225
624.8942, 411.2959
625.3763, 397.4541
625.8585, 369.1045
626.3406, 368.4189
626.8227, 402.5781
627.3048, 424.6309
627.7869, 407.4893
628.2690, 363.0742
628.7512, 334.0449
629.2333, 320.6816
629.7154, 316.6924
630.1975, 336.7656
630.6796, 356.5830
631.1617, 336.1025
631.6439, 263.1494
632.1260, 190.7725
632.6081, 149.7354
633.0902, 125.8613
633.5723, 103.9736
634.0544, 90.70117
634.5366, 66.71680
635.0187, 11.45312
635.5008, 53.73047
635.9829, 79.23730
636.4650, 45.60352
636.9471, 18.52930
637.4293, 20.32910
637.9114, 45.49414
638.3935, 63.09668
638.8756, 73.42578
639.3577, 80.92969
639.8398, 101.1191
640.3220, 119.1650
640.8041, 89.97754
641.2862, 9.160156
641.7683, 67.06836
642.2504, 88.99219
642.7325, 83.54590
643.2147, 79.85742
643.6968, 85.92773
644.1789, 92.35742
644.6610, 92.06543
645.1431, 91.79590
645.6252, 103.3047
646.1074, 145.4863
646.5895, 171.0312
647.0716, 165.9307
647.5537, 140.2285
648.0358, 132.4229
648.5179, 146.7832
649.0001, 155.6670
649.4822, 139.4873
649.9643, 107.8828
650.4464, 99.76953
650.9285, 114.6992
651.4106, 134.9619
651.8928, 154.1875
652.3749, 167.3096
652.8570, 163.4658
653.3391, 137.1797
653.8212, 118.9258
654.3033, 135.7158
654.7855, 162.9502
655.2676, 176.2754
655.7497, 137.7520
656.2318, 129.8047
656.7139, 181.6016
657.1960, 255.3457
657.6782, 277.5703
658.1603, 231.7861
658.6424, 186.5410
659.1245, 155.9346
659.6066, 140.1260
660.0887, 142.0078
660.5709, 160.9062
661.0530, 188.7217
661.5351, 227.6836
662.0172, 269.1406
662.4993, 301.5361
662.9814, 324.3066
663.4636, 336.8252
663.9457, 319.1807
664.4278, 303.5625
664.9099, 321.5430
665.3920, 398.7979
665.8741, 447.3213
666.3563, 427.9941
666.8384, 387.4746
667.3205, 365.8730
667.8026, 372.0469
668.2847, 372.6396
668.7668, 362.3477
669.2490, 348.6836
669.7311, 346.9170
670.2132, 356.7773
670.6953, 366.2939
671.1774, 374.1777
671.6595, 377.4492
672.1417, 359.5859
672.6238, 330.1523
673.1059, 323.9443
673.5880, 399.7842
674.0701, 473.2002
674.5522, 478.4463
675.0344, 413.4238
675.5165, 360.7471
675.9986, 334.1094
676.4807, 330.0947
676.9628, 350.7002
677.4449, 404.9062
677.9271, 446.1777
678.4092, 473.5879
678.8913, 488.7256
679.3734, 487.2012
679.8555, 470.5537
680.3376, 466.5254
680.8198, 483.2148
681.3019, 498.9316
681.7840, 476.0762
682.2661, 431.8389
682.7482, 405.7705
683.2303, 426.4600
683.7125, 450.3477
684.1946, 447.9844
684.6767, 429.2793
685.1588, 418.6318
685.6409, 425.8242
686.1230, 437.8125
686.6052, 458.1416
687.0873, 482.9785
687.5694, 479.5635
688.0515, 439.0273
688.5336, 393.3311
689.0157, 354.3506
689.4979, 323.2412
689.9800, 310.2207
690.4621, 316.6895
690.9442, 330.0078
691.4263, 339.7256
691.9084, 350.4326
692.3906, 371.3877
692.8727, 409.8672
693.3548, 438.5625
693.8369, 439.2500
694.3190, 423.5381
694.8011, 402.8057
695.2833, 373.1250
695.7654, 345.5771
696.2475, 323.4766
696.7296, 302.9717
697.2117, 275.0449
697.6938, 233.0518
698.1760, 207.4434
698.6581, 213.4600
699.1402, 238.5781
699.6223, 242.7529
700.1044, 227.5977
700.5865, 217.1670
701.0686, 237.0801
701.5507, 259.4346
702.0328, 250.3594
702.5150, 214.9639
702.9971, 177.2861
703.4792, 131.5752
703.9613, 101.5820
704.4434, 106.5039
704.9255, 153.2334
705.4077, 181.2305
705.8898, 179.0146
706.3719, 172.8672
706.8540, 182.5703
707.3361, 211.8496
707.8182, 211.0225
708.3004, 175.1807
708.7825, 130.4023
709.2646, 92.35938
709.7467, 66.80176
710.2288, 77.18066
710.7109, 139.1807
711.1931, 190.8838
711.6752, 165.9990
712.1573, 108.4971
712.6394, 75.55176
713.1215, 102.4053
713.6036, 131.7334
714.0858, 154.2637
714.5679, 172.7217
715.0500, 192.3730
715.5321, 220.9795
716.0142, 230.5791
716.4963, 208.5918
716.9785, 168.4414
717.4606, 150.4756
717.9427, 153.4365
718.4248, 155.9004
718.9069, 147.2441
719.3890, 132.3428
719.8712, 114.0010
720.3533, 93.92676
720.8354, 80.20410
721.3175, 75.11523
721.7996, 79.22266
722.2817, 98.87891
722.7639, 137.2314
723.2460, 156.9443
723.7281, 146.4883
724.2102, 128.7305
724.6923, 117.6201
725.1744, 115.1787
725.6566, 101.5693
726.1387, 73.29297
726.6208, 49.55371
727.1029, 54.82031
727.5850, 79.31152
728.0671, 97.49512
728.5493, 104.7041
729.0314, 108.8760
729.5135, 116.5732
729.9956, 124.6055
730.4777, 129.6025
730.9598, 133.6133
731.4420, 129.7275
731.9241, 109.9580
732.4062, 83.82324
732.8883, 62.07129
733.3704, 40.82422
733.8525, 36.39062
734.3347, 57.02344
734.8168, 89.12012
735.2989, 102.9814
735.7810, 100.7666
736.2631, 99.05664
736.7452, 110.5830
737.2274, 120.4727
737.7095, 105.8867
738.1916, 74.91699
738.6737, 52.06055
739.1558, 55.55078
739.6379, 62.21387
740.1201, 60.18164
740.6022, 50.24707
741.0843, 49.86523
741.5664, 65.29688
742.0485, 79.02539
742.5306, 81.36816
743.0128, 73.97656
743.4949, 79.46875
743.9770, 98.76758
744.4591, 114.2412
744.9412, 106.0791
745.4233, 87.85254
745.9055, 88.25000
746.3876, 109.5244
746.8697, 115.2627
747.3518, 48.45703
747.8339, 18.81445
748.3160, 19.62695
748.7982, 105.4102
749.2803, 148.3438
749.7624, 48.75586
750.2445, 75.91211
750.7266, 129.7393
751.2087, 107.0586
751.6909, 44.49316
752.1730, 60.20312
752.6551, 162.7676
753.1372, 215.6914
753.6193, 228.9893
754.1014, 223.1240
754.5836, 198.5029
755.0657, 171.7324
755.5478, 143.6553
756.0299, 119.4639
756.5120, 110.2412
756.9941, 147.6533
757.4763, 169.8779
757.9584, 159.3623
758.4405, 129.4863
758.9226, 104.7168
759.4047, 84.29395
759.8868, 88.17383
760.3690, 132.5391
760.8511, 186.9346
761.3332, 180.3975
761.8153, 129.6006
762.2974, 97.81348
762.7795, 141.1758
763.2617, 192.2891
763.7438, 191.6729
764.2259, 155.8672
764.7080, 136.1621
765.1901, 156.9463
765.6722, 184.7031
766.1544, 215.3135
766.6365, 245.8232
767.1186, 257.6836
767.6007, 249.4268
768.0828, 226.5986
768.5649, 176.6025
769.0471, 117.2256
769.5292, 117.1006
770.0113, 169.1455
770.4934, 213.3027
770.9755, 201.5791
771.4576, 170.9473
771.9398, 149.2471
772.4219, 138.3184
772.9040, 131.8887
773.3861, 142.1689
773.8682, 143.3115
774.3503, 116.3525
774.8325, 55.33691
775.3146, 38.69043
775.7967, 77.69043
776.2788, 120.2314
776.7609, 122.6631
777.2430, 96.06445
777.7252, 78.05762
778.2073, 71.03027
778.6894, 70.64355
779.1715, 84.14648
779.6536, 96.55957
780.1357, 88.69434
780.6179, 47.86035
781.1000, 26.20410
781.5821, 56.51367
782.0642, 93.49316
782.5463, 102.5635
783.0284, 70.31543
783.5105, 67.51758
783.9926, 102.7803
784.4747, 145.0039
784.9568, 150.7510
785.4390, 134.8184
785.9211, 150.2568
786.4032, 211.8281
786.8853, 272.6924
787.3674, 291.9473
787.8495, 290.8340
788.3317, 293.0137
788.8138, 309.1025
789.2959, 319.4551
789.7780, 313.6211
790.2601, 307.6396
790.7422, 320.7988
791.2244, 356.8711
791.7065, 396.2393
792.1886, 440.8047
792.6707, 478.6650
793.1528, 477.9863
793.6349, 457.1904
794.1171, 469.4902
794.5992, 540.5996
795.0813, 625.2227
795.5634, 703.0996
796.0455, 772.3975
796.5276, 830.8301
797.0098, 876.6016
797.4919, 911.6494
797.9740, 928.9512
798.4561, 940.0977
798.9382, 975.7725
799.4203, 1040.885
799.9025, 1059.619
800.3846, 1004.176
800.8667, 915.1191
801.3488, 850.5029
801.8309, 803.0342
802.3130, 752.9785
802.7952, 701.7871
803.2773, 636.9609
803.7594, 538.8418
804.2415, 424.4648
804.7236, 332.8164
805.2057, 277.3379
805.6879, 222.4922
806.1700, 157.3242
806.6521, 94.61523
807.1342, 74.34375
807.6163, 93.98633
808.0984, 84.42578
808.5806, 5.146484
809.0627, 85.81250
809.5448, 115.7363
810.0269, 102.6621
810.5090, 88.18164
810.9911, 83.42578
811.4733, 85.21094
811.9554, 101.1172
812.4375, 122.3730
812.9196, 119.8711
813.4017, 77.74023
813.8839, 56.03906
814.3660, 80.16016
814.8481, 125.7090
815.3302, 125.0312
815.8123, 84.55859
816.2944, 45.99023
816.7766, 32.45312
817.2587, 25.63867
817.7408, 16.29102
818.2229, 1.021484
818.7050, 29.74219
819.1871, 98.56445
819.6693, 160.9531
820.1514, 207.2461
820.6335, 239.0156
821.1156, 255.4316
821.5977, 253.2520
822.0798, 258.3496
822.5620, 283.9238
823.0441, 319.0801
823.5262, 349.8887
824.0083, 373.1035
824.4904, 377.0488
824.9725, 334.6543
825.4547, 292.5215
825.9368, 277.8359
826.4189, 285.6836
826.9010, 295.1211
827.3831, 309.7988
827.8652, 315.0781
828.3474, 300.2461
828.8295, 275.7871
829.3116, 284.8789
829.7937, 325.4707
830.2758, 354.4062
830.7579, 342.3008
831.2401, 316.1992
831.7222, 307.1055
832.2043, 312.0879
832.6864, 323.1426
833.1685, 335.0664
833.6506, 354.4434
834.1328, 394.1523
834.6149, 442.8691
835.0970, 465.5488
835.5791, 456.2949
836.0612, 440.6367
836.5433, 424.3105
837.0255, 409.3379
837.5076, 401.3301
837.9897, 399.0645
838.4718, 396.5039
838.9539, 395.4238
839.4360, 389.8379
839.9182, 368.2949
840.4003, 338.3887
840.8824, 320.8516
841.3645, 333.7578
841.8466, 341.4648
842.3287, 335.4648
842.8109, 321.2617
843.2930, 313.3789
843.7751, 311.7148
844.2572, 312.9629
844.7393, 316.6250
845.2214, 320.9453
845.7036, 315.0176
846.1857, 307.7383
846.6678, 320.4922
847.1499, 394.1719
847.6320, 452.5469
848.1141, 463.4258
848.5963, 442.2715
849.0784, 420.6621
849.5605, 397.4395
850.0426, 376.4141
850.5247, 356.6836
851.0068, 342.2910
851.4890, 345.5605
851.9711, 361.9180
852.4532, 374.9199
852.9353, 381.7012
853.4174, 379.9043
853.8995, 361.5684
854.3817, 335.5098
854.8638, 316.9590
855.3459, 310.5859
855.8280, 310.2559
856.3101, 318.7578
856.7922, 330.1270
857.2744, 330.0957
857.7565, 319.7617
858.2386, 326.7637
858.7207, 365.1426
859.2028, 400.0918
859.6849, 379.6836
860.1671, 333.1367
860.6492, 306.3730
861.1313, 326.9297
861.6134, 346.2969
862.0955, 349.0918
862.5776, 346.7402
863.0598, 353.3887
863.5419, 373.6367
864.0240, 375.6855
864.5061, 351.9004
864.9882, 325.1230
865.4703, 326.2852
865.9524, 345.9609
866.4345, 364.1660
866.9166, 373.7754
867.3987, 374.9375
867.8809, 361.2871
868.3630, 346.0156
868.8451, 342.7988
869.3272, 362.2578
869.8093, 365.9082
870.2914, 347.2754
870.7736, 326.5801
871.2557, 325.9922
871.7378, 340.5527
872.2199, 345.7910
872.7020, 336.8047
873.1841, 342.7969
873.6663, 403.4434
874.1484, 480.2090
874.6305, 536.6641
875.1126, 565.0840
875.5947, 584.6406
876.0768, 587.1758
876.5590, 595.0781
877.0411, 624.8047
877.5232, 676.5742
878.0053, 719.9160
878.4874, 755.1270
878.9695, 789.1582
879.4517, 824.3145
879.9338, 863.5547
880.4159, 909.2891
880.8980, 962.3477
881.3801, 1025.047
881.8622, 1099.965
882.3444, 1184.834
882.8265, 1280.959
883.3086, 1387.354
883.7907, 1488.188
884.2728, 1582.342
884.7549, 1680.232
885.2371, 1788.104
885.7192, 1902.928
886.2013, 2029.846
886.6834, 2162.238
887.1655, 2278.072
887.6476, 2328.359
888.1298, 2398.311
888.6119, 2537.482
889.0940, 2726.557
889.5761, 2907.404
890.0582, 3080.195
890.5403, 3240.836
891.0225, 3382.791
891.5046, 3514.748
891.9867, 3665.629
892.4688, 3821.049
892.9509, 3944.334
893.4330, 4010.416
893.9152, 4052.455
894.3973, 4110.982
894.8794, 4152.625
895.3615, 4114.586
895.8436, 3974.230
896.3257, 3801.596
896.8079, 3597.195
897.2900, 3378.459
897.7721, 3147.150
898.2542, 2919.344
898.7363, 2757.221
899.2184, 2682.365
899.7006, 2650.371
900.1827, 2617.629
900.6648, 2614.287
901.1469, 2676.445
901.6290, 2847.129
902.1111, 3010.068
902.5933, 3147.586
903.0754, 3298.223
903.5575, 3498.887
904.0396, 3745.168
904.5217, 3995.193
905.0038, 4245.689
905.4860, 4510.490
905.9681, 4795.422
906.4502, 5106.975
906.9323, 5463.395
907.4144, 5871.512
907.8965, 6257.926
908.3787, 6599.094
908.8608, 6935.662
909.3429, 7287.430
909.8250, 7650.852
910.3071, 8029.094
910.7892, 8420.938
911.2714, 8733.730
911.7535, 8981.357
912.2356, 9074.328
912.7177, 8911.926
913.1998, 8510.105
913.6819, 7943.584
914.1641, 7116.586
914.6462, 6256.533
915.1283, 5380.518
915.6104, 4538.061
916.0925, 3858.455
916.5746, 3339.949
917.0568, 2896.455
917.5389, 2506.234
918.0210, 2169.445
918.5031, 1896.129
918.9852, 1678.514
919.4673, 1495.320
919.9495, 1341.527
920.4316, 1220.672
920.9137, 1151.465
921.3958, 1099.773
921.8779, 1020.293
922.3600, 909.8711
922.8422, 825.2422
923.3243, 775.3320
923.8064, 741.0078
924.2885, 697.3633
924.7706, 658.4277
925.2527, 653.2246
925.7349, 700.7031
926.2170, 706.1484
926.6991, 576.2324
927.1812, 456.5371
927.6633, 439.1191
928.1454, 531.1719
928.6276, 577.7441
929.1097, 577.3535
929.5918, 549.6758
930.0739, 486.4805
930.5560, 417.9609
931.0381, 384.5156
931.5203, 384.0605
932.0024, 388.9824
932.4845, 411.7773
932.9666, 411.8398
933.4487, 362.5684
933.9308, 283.0820
934.4130, 252.8145
934.8951, 273.9883
935.3772, 295.4238
935.8593, 297.8320
936.3414, 292.1719
936.8235, 295.0137
937.3057, 300.2129
937.7878, 295.7344
938.2699, 266.1973
938.7520, 240.6680
939.2341, 218.6680
939.7162, 206.5176
940.1984, 220.0586
940.6805, 262.4277
941.1626, 270.0820
941.6447, 229.5664
942.1268, 187.5176
942.6089, 199.9629
943.0911, 236.6172
943.5732, 255.1777
944.0553, 243.2246
944.5374, 245.8223
945.0195, 301.9180
945.5016, 346.5723
945.9838, 341.6055
946.4659, 289.0781
946.9480, 257.0371
947.4301, 245.5762
947.9122, 242.8594
948.3943, 257.4434
948.8764, 265.0938
949.3585, 224.1191
949.8406, 148.1445
950.3228, 98.81250
950.8049, 106.6484
951.2870, 130.2324
951.7691, 171.6426
952.2512, 216.5176
952.7333, 220.3477
953.2155, 186.4551
953.6976, 167.5801
954.1797, 188.5293
954.6618, 207.7227
955.1439, 168.9512
955.6260, 107.3965
956.1082, 71.85742
956.5903, 90.55859
957.0724, 108.1973
957.5545, 127.6992
958.0366, 137.4668
958.5187, 119.1094
959.0009, 77.58398
959.4830, 53.97070
959.9651, 51.15234
960.4472, 59.54297
960.9293, 83.98633
961.4114, 107.7227
961.8936, 116.6602
962.3757, 109.2324
962.8578, 97.27734
963.3399, 74.82422
963.8220, 60.92969
964.3041, 63.82812
964.7863, 79.09570
965.2684, 95.65430
965.7505, 112.6777
966.2326, 127.7188
966.7147, 150.7930
967.1968, 158.0977
967.6790, 116.3535
968.1611, 54.61133
968.6432, 29.89648
969.1253, 64.24023
969.6074, 84.67969
970.0895, 84.01172
970.5717, 71.68164
971.0538, 63.10156
971.5359, 52.44531
972.0180, 20.12695
972.5001, 39.18945
972.9822, 93.70117
973.4644, 147.1895
973.9465, 171.8125
974.4286, 134.6562
974.9107, 32.88672
975.3928, 14.65625
975.8749, 0.3847660
976.3571, 26.12305
976.8392, 37.24609
977.3213, 38.11914
977.8034, 29.09375
978.2855, 15.47266
978.7676, 14.06250
979.2498, 48.74219
979.7319, 75.84766
980.2140, 76.53516
980.6961, 65.75000
981.1782, 74.72656
981.6603, 104.4043
982.1425, 114.6230
982.6246, 95.35547
983.1067, 62.83789
983.5888, 27.36719
984.0709, 7.515625
984.5530, 37.14844
985.0352, 59.93164
985.5173, 77.16992
985.9994, 84.03125
986.4815, 90.75781
986.9636, 102.2578
987.4457, 117.9746
987.9279, 139.9766
988.4100, 166.9863
988.8921, 187.6426
989.3742, 199.0039
989.8563, 197.5449
990.3384, 170.5879
990.8206, 127.9102
991.3027, 106.0293
991.7848, 118.0840
992.2669, 126.5996
992.7490, 125.1348
993.2311, 117.7129
993.7133, 108.1699
994.1954, 98.33203
994.6775, 93.27539
995.1596, 95.53516
995.6417, 97.79883
996.1238, 95.08398
996.6060, 91.37500
997.0881, 89.74805
997.5702, 90.22656
998.0523, 92.81250
998.5344, 97.98242
999.0165, 102.7285
999.4987, 105.0449
999.9808, 105.8926
1000.463, 106.0215
1000.945, 105.8867
1001.427, 106.5605
1001.909, 81.69531
1002.391, 95.18555
1002.873, 185.9629
1003.356, 304.2148
1003.838, 330.3770
1004.320, 270.6113
1004.802, 239.2578
1005.284, 264.0996
1005.766, 311.7676
1006.248, 381.7949
1006.730, 441.1504
1007.213, 443.2734
1007.695, 344.5508
1008.177, 316.1172
1008.659, 390.9707
1009.141, 470.5938
1009.623, 492.6836
1010.105, 469.1230
1010.587, 425.1582
1011.069, 367.7109
1011.552, 333.5449
1012.034, 362.5352
1012.516, 398.0527
1012.998, 416.1582
1013.480, 419.0137
1013.962, 405.5859
1014.444, 367.4590
1014.926, 365.3477
1015.409, 418.6777
1015.891, 477.8672
1016.373, 436.6484
1016.855, 482.4648
1017.337, 508.8203
1017.819, 516.8281
1018.301, 451.7129
1018.783, 481.1035
1019.265, 472.7246
1019.748, 462.8086
1020.230, 505.5137
1020.712, 451.0703
1021.194, 492.7383
1021.676, 495.9121
1022.158, 516.6504
1022.640, 499.3555
1023.122, 493.8555
1023.604, 526.4922
1024.087, 538.0938
1024.569, 516.5098
1025.051, 538.4824
1025.533, 482.5195
1026.015, 494.5957
1026.497, 535.9492
1026.979, 515.8926
1027.461, 538.2578
1027.943, 544.4590
1028.426, 477.2910
1028.908, 537.5449
1029.390, 542.5840
1029.872, 490.5117
1030.354, 542.5098
1030.836, 491.4199
1031.318, 472.4707
1031.800, 478.6621
1032.283, 459.2695
1032.765, 490.1523
1033.247, 481.4355
1033.729, 468.1309
1034.211, 420.4766
1034.693, 406.1680
1035.175, 399.1660
1035.657, 400.8516
1036.140, 407.9570
1036.622, 421.7910
1037.104, 434.0566
1037.586, 423.4727
1038.068, 391.6094
1038.550, 368.0312
1039.032, 377.5156
1039.514, 384.9492
1039.996, 368.6465
1040.479, 340.8555
1040.961, 344.8340
1041.443, 383.6309
1041.925, 407.3125
1042.407, 398.5371
1042.889, 373.6016
1043.371, 348.0195
1043.853, 319.3516
1044.335, 280.9961
1044.818, 212.2441
1045.300, 191.5508
1045.782, 242.8652
1046.264, 301.4453
1046.746, 324.7500
1047.228, 319.1680
1047.710, 297.7812
1048.192, 265.6113
1048.675, 251.6934
1049.157, 293.0977
1049.639, 332.1719
1050.121, 332.1465
1050.603, 314.5273
1051.085, 325.0703
1051.567, 368.9609
1052.049, 384.2598
1052.531, 359.7441
1053.014, 318.0156
1053.496, 268.4414
1053.978, 226.0840
1054.460, 209.6992
1054.942, 222.7500
1055.424, 230.7285
1055.906, 242.6289
1056.388, 232.2715
1056.870, 173.4863
1057.353, 96.82617
1057.835, 89.85156
1058.317, 135.6328
1058.799, 180.7480
1059.281, 210.5664
1059.763, 224.9785
1060.245, 221.5293
1060.727, 203.0293
1061.210, 163.7012
1061.692, 97.30664
1062.174, 80.09766
1062.656, 115.9043
1063.138, 161.7441
1063.620, 203.7812
1064.102, 225.2090
1064.584, 188.1758
1065.067, 108.4727
1065.549, 79.41211
1066.031, 130.9219
1066.513, 177.2559
1066.995, 202.4160
1067.477, 212.6602
1067.959, 206.6055
1068.441, 195.2441
1068.923, 207.9512
1069.406, 256.4961
1069.888, 292.9590
1070.370, 287.0430
1070.852, 273.2617
1071.334, 270.2910
1071.816, 275.4766
1072.298, 261.2793
1072.780, 229.7617
1073.262, 208.1191
1073.745, 211.1602
1074.227, 227.2441
1074.709, 260.8477
1075.191, 295.5820
1075.673, 305.5117
1076.155, 278.0508
1076.637, 264.3008
1077.119, 268.7090
1077.601, 276.2871
1078.084, 274.2852
1078.566, 266.9121
1079.048, 262.3203
1079.530, 259.9824
1080.012, 250.9707
1080.494, 226.3086
1080.976, 202.8418
1081.458, 181.2090
1081.941, 165.9375
1082.423, 172.6426
1082.905, 194.3965
1083.387, 201.5625
1083.869, 185.5078
1084.351, 167.1836
1084.833, 157.6133
1085.315, 151.2266
1085.797, 143.5137
1086.280, 134.4688
1086.762, 129.7344
1087.244, 129.2441
1087.726, 130.5703
1088.208, 140.7129
1088.690, 141.3828
1089.172, 94.46094
1089.654, 30.98633
1090.136, 4.802734
1090.619, 50.56836
1091.101, 79.16992
1091.583, 87.40039
1092.065, 84.84570
1092.547, 72.77930
1093.029, 58.85156
1093.511, 61.53125
1093.993, 78.92188
1094.476, 93.50586
1094.958, 101.1426
1095.440, 102.6504
1095.922, 100.2168
1096.404, 90.85156
1096.886, 62.44531
1097.368, 20.23047
1097.850, 7.056641
1098.333, 14.48242
1098.815, 11.51758
1099.297, 7.318359
1099.779, 23.42578
1100.261, 15.58594
1100.743, 10.91406
1101.225, 4.216797
1101.707, 63.52734
1102.189, 104.9004
1102.672, 98.61719
1103.154, 74.37305
1103.636, 54.06836
1104.118, 40.05469
1104.600, 36.98242
1105.082, 52.37109
1105.564, 62.51758
1106.046, 69.37891
1106.528, 65.23438
1107.011, 26.50781
1107.493, 18.50195
1107.975, 7.6172002E-02
1108.457, 63.81445
1108.939, 107.7266
1109.421, 109.7871
1109.903, 86.44336
1110.385, 29.23242
1110.868, 34.29102
1111.350, 78.12109
1111.832, 99.62695
1112.314, 75.56445
1112.796, 6.205078
1113.278, 58.47656
1113.760, 90.00977
1114.242, 106.9141
1114.724, 114.7109
1115.207, 116.4219
1115.689, 120.8320
1116.171, 127.6055
1116.653, 130.5000
1117.135, 129.1406
1117.617, 117.7656
1118.099, 76.71875
1118.581, 33.21289
1119.063, 11.72852
1119.546, 14.25781
1120.028, 39.91406
1120.510, 93.25195
1120.992, 143.2754
1121.474, 178.8047
1121.956, 200.0215
1122.438, 201.3145
1122.920, 190.3223
1123.403, 180.5176
1123.885, 192.0762
1124.367, 165.0820
1124.849, 78.47461
1125.331, 3.630859
1125.813, 4.609375
1126.295, 55.20703
1126.777, 112.5273
1127.260, 166.0898
1127.742, 179.8809
1128.224, 92.67773
1128.706, 27.90234
1129.188, 16.93555
1129.670, 27.88477
1130.152, 19.49805
1130.634, 3.558594
1131.116, 21.69336
1131.599, 33.11328
1132.081, 32.09961
1132.563, 0.4433590
1133.045, 28.64062
1133.527, 24.69531
1134.009, 7.216797
1134.491, 32.35547
1134.973, 97.19336
1135.455, 149.5449
1135.938, 177.8906
1136.420, 189.8652
1136.902, 194.7734
1137.384, 183.3594
1137.866, 130.2852
1138.348, 39.99219
1138.830, 24.40430
1139.312, 92.68945
1139.795, 155.9082
1140.277, 182.4453
1140.759, 184.2754
1141.241, 154.4414
1141.723, 118.3301
1142.205, 115.8496
1142.687, 172.8223
1143.169, 194.4980
1143.651, 175.8281
1144.134, 139.9121
1144.616, 79.86133
1145.098, 27.09961
1145.580, 55.91016
1146.062, 131.8535
1146.544, 172.7480
1147.026, 112.6055
1147.508, 81.83203
1147.990, 93.40820
1148.473, 120.9980
1148.955, 145.0195
1149.437, 163.7227
1149.919, 176.2754
1150.401, 181.2754
1150.883, 171.2207
1151.365, 102.7168
1151.847, 76.33398
1152.330, 128.9082
1152.812, 212.1934
1153.294, 257.5566
1153.776, 269.3516
1154.258, 253.1816
1154.740, 209.5664
1155.222, 181.5879
1155.704, 221.0684
1156.186, 245.6777
1156.669, 208.9473
1157.151, 139.9785
1157.633, 118.9824
1158.115, 140.9023
1158.597, 174.0371
1159.079, 217.6309
1159.561, 240.6289
1160.043, 196.9590
1160.526, 148.3984
1161.008, 140.1602
1161.490, 167.2070
1161.972, 193.1582
1162.454, 217.6582
1162.936, 228.8652
1163.418, 216.6699
1163.900, 202.1797
1164.382, 204.7324
1164.865, 211.5781
1165.347, 204.4297
1165.829, 179.6602
1166.311, 191.9785
1166.793, 244.8691
1167.275, 278.7324
1167.757, 249.1855
1168.239, 198.6328
1168.721, 149.1387
1169.204, 110.4980
1169.686, 108.6445
1170.168, 173.6309
1170.650, 180.1289
1171.132, 113.6816
1171.614, 53.71484
1172.096, 80.24219
1172.578, 129.7129
1173.061, 126.1738
1173.543, 84.54492
1174.025, 50.81250
1174.507, 24.61133
1174.989, 22.81055
1175.471, 53.10742
1175.953, 81.55664
1176.435, 55.44336
1176.917, 18.11523
1177.400, 38.73242
1177.882, 110.2812
1178.364, 161.3789
1178.846, 171.4766
1179.328, 185.1797
1179.810, 212.9629
1180.292, 240.9707
1180.774, 244.3184
1181.256, 232.5332
1181.739, 231.8301
1182.221, 246.8633
1182.703, 257.7266
1183.185, 273.8672
1183.667, 255.5586
1184.149, 176.1309
1184.631, 87.68945
1185.113, 93.15430
1185.596, 154.3105
1186.078, 193.5488
1186.560, 193.6641
1187.042, 200.6152
1187.524, 241.1719
1188.006, 258.6055
1188.488, 219.6660
1188.970, 154.6855
1189.453, 156.7949
1189.935, 198.6875
1190.417, 216.1367
1190.899, 187.0137
1191.381, 146.8809
1191.863, 86.63086
1192.345, 47.86523
1192.827, 63.76758
1193.309, 109.7754
1193.792, 104.9766
1194.274, 63.05078
1194.756, 19.76758
1195.238, 26.29297
1195.720, 42.84961
1196.202, 12.26367
1196.684, 33.21094
1197.166, 78.75195
1197.648, 119.4922
1198.131, 128.4727
1198.613, 115.4043
1199.095, 116.8047
1199.577, 174.6836
1200.059, 202.1191
1200.541, 161.3457
1201.023, 111.5273
1201.505, 108.4141
1201.988, 140.4062
1202.470, 149.7617
1202.952, 140.2812
1203.434, 136.8555
1203.916, 154.9805
1204.398, 178.8516
1204.880, 217.6504
1205.362, 244.6406
1205.844, 217.1953
1206.327, 151.1348
1206.809, 114.9727
1207.291, 109.0938
1207.773, 114.0820
1208.255, 135.7422
1208.737, 146.5820
1209.219, 132.4414
1209.701, 111.6016
1210.183, 114.7754
1210.666, 134.2559
1211.148, 125.1543
1211.630, 86.80664
1212.112, 75.14648
1212.594, 156.0586
1213.076, 221.3262
1213.558, 231.5703
1214.040, 210.5000
1214.523, 194.3535
1215.005, 182.7930
1215.487, 175.5078
1215.969, 172.5840
1216.451, 172.8828
1216.933, 184.0410
1217.415, 187.9336
1217.897, 174.8535
1218.380, 155.0918
1218.862, 147.9102
1219.344, 152.9609
1219.826, 176.9219
1220.308, 224.7129
1220.790, 244.8105
1221.272, 176.5312
1221.754, 119.0391
1222.236, 109.5508
1222.719, 134.9297
1223.201, 173.2402
1223.683, 217.1348
1224.165, 241.7969
1224.647, 238.6367
1225.129, 232.4199
1225.611, 230.9277
1226.093, 229.2578
1226.575, 223.0352
1227.058, 216.8711
1227.540, 230.9219
1228.022, 255.9180
1228.504, 266.9180
1228.986, 260.1602
1229.468, 227.5156
1229.950, 143.0410
1230.432, 67.01367
1230.915, 24.71094
1231.397, 11.63672
1231.879, 25.69141
1232.361, 57.41992
1232.843, 82.21094
1233.325, 97.62695
1233.807, 90.96680
1234.289, 42.01562
1234.771, 2.035156
1235.254, 2.976563
1235.736, 17.84961
1236.218, 64.61914
1236.700, 114.7188
1237.182, 107.2246
1237.664, 20.59766
1238.146, 88.79492
1238.628, 60.58594
1239.110, 14.62500
1239.593, 4.042969
1240.075, 8.943359
1240.557, 41.05859
1241.039, 82.60547
1241.521, 97.38672
1242.003, 54.26758
1242.485, 29.71875
1242.967, 28.99219
1243.449, 45.06250
1243.932, 93.53906
1244.414, 140.5957
1244.896, 102.7324
1245.378, 21.52539
1245.860, 15.12500
1246.342, 53.93359
1246.824, 90.53320
1247.306, 99.06445
1247.789, 89.28906
1248.271, 56.92383
1248.753, 19.81836
1249.235, 3.050781
1249.717, 9.152344
1250.199, 10.34961
1250.681, 81.69727
1251.163, 110.9141
1251.646, 91.79297
1252.128, 63.30859
1252.610, 36.35352
1253.092, 28.71484
1253.574, 89.01172
1254.056, 174.8262
1254.538, 194.9980
1255.020, 128.2480
1255.502, 66.34570
1255.984, 10.19531
1256.467, 23.08984
1256.949, 2.980469
1257.431, 27.81055
1257.913, 32.58008
1258.395, 23.44727
1258.877, 24.00000
1259.359, 35.87109
1259.841, 49.15625
1260.324, 63.49805
1260.806, 75.07031
1261.288, 80.94336
1261.770, 82.97461
1262.252, 85.03320
1262.734, 81.21484
1263.216, 56.50586
1263.698, 10.92578
1264.181, 0.3515630
1264.663, 24.27344
1265.145, 54.96484
1265.627, 85.88281
1266.109, 105.0977
1266.591, 97.50391
1267.073, 85.14258
1267.555, 78.22852
1268.037, 61.37305
1268.520, 80.89453
1269.002, 139.3320
1269.484, 185.2363
1269.966, 190.3145
1270.448, 178.2793
1270.930, 146.5547
1271.412, 118.9199
1271.894, 126.3672
1272.376, 163.2031
1272.859, 155.5938
1273.341, 110.2012
1273.823, 86.58398
1274.305, 147.4746
1274.787, 206.0547
1275.269, 253.4219
1275.751, 280.2012
1276.233, 257.4395
1276.716, 214.5723
1277.198, 213.0410
1277.680, 254.6934
1278.162, 265.6367
1278.644, 211.2891
1279.126, 156.1641
1279.608, 99.01367
1280.090, 63.79102
1280.573, 94.52344
1281.055, 134.9316
1281.537, 143.6367
1282.019, 126.3379
1282.501, 112.2676
1282.983, 101.1465
1283.465, 112.3125
1283.947, 149.0586
1284.429, 168.8965
1284.911, 114.6270
1285.394, 51.15039
1285.876, 30.97656
1286.358, 43.06055
1286.840, 50.36133
1287.322, 52.44531
1287.804, 51.44141
1288.286, 47.18945
1288.768, 43.49805
1289.251, 41.01367
1289.733, 44.46875
1290.215, 60.95117
1290.697, 75.87891
1291.179, 61.53906
1291.661, 23.75977
1292.143, 23.85352
1292.625, 64.06836
1293.108, 86.76953
1293.590, 16.34570
1294.072, 8.138672
1294.554, 63.99805
1295.036, 151.3652
1295.518, 198.8496
1296.000, 156.2324
1296.482, 121.3262
1296.964, 58.91992
1297.447, 0.0000000E+00
##END=



