##NAMES=Dravite
##RRUFFID=R060286
##IDEAL CHEMISTRY=NaMg_3_Al_6_(Si_6_O_18_)(BO_3_)_3_(OH)_3_OH
##LOCALITY=Badakshan Province, Afghanistan
##OWNER=RRUFF
##SOURCE=Herb Obodda
##DESCRIPTION=Brown prismatic tourmaline crystal
##STATUS=The identification of this mineral has been confirmed by X-ray diffraction and chemical analysis
##URL=rruff.info/R060286
##MEASURED CHEMISTRY=(Na_0.48_Ca_0.38_[box]_0.14_)_Σ=1_(Mg_2.90_Ti_0.10_)_Σ=3_Al_6.00_(B_1.00_O_3_)_3_(Si_5.56_B_0.44_)_Σ=6_O_18_(OH)_4_; (OH) assumed from stoichiometry; B estimated by difference and charge balance
150.4455, 0.0000000E+00
150.9276, 0.5747990
151.4097, 0.2034610
151.8918, 3.0456999E-02
152.3740, 1.409210
152.8561, 2.500305
153.3382, 3.042328
153.8203, 3.969360
154.3024, 4.453979
154.7845, 5.425323
155.2667, 6.159271
155.7488, 6.075348
156.2309, 3.037476
156.7130, 0.6195680
157.1951, 6.6955999E-02
157.6772, 0.9606930
158.1594, 1.963226
158.6415, 3.353699
159.1236, 4.548492
159.6057, 4.921997
160.0878, 3.513794
160.5699, 2.270264
161.0521, 1.888702
161.5342, 2.607635
162.0163, 3.052521
162.4984, 2.942383
162.9805, 3.449249
163.4626, 3.726685
163.9448, 3.914429
164.4269, 3.588989
164.9090, 3.325562
165.3911, 3.808746
165.8732, 4.308228
166.3553, 4.425812
166.8375, 4.325867
167.3196, 4.277802
167.8017, 4.700806
168.2838, 5.032349
168.7659, 4.745056
169.2480, 3.604980
169.7302, 2.522125
170.2123, 2.156250
170.6944, 2.302856
171.1765, 2.502167
171.6586, 2.452271
172.1407, 2.363983
172.6229, 2.586151
173.1050, 3.375916
173.5871, 3.858673
174.0692, 2.862427
174.5513, 0.8326110
175.0334, 0.9028020
175.5156, 1.338898
175.9977, 1.067505
176.4798, 0.9899600
176.9619, 1.394409
177.4440, 1.689056
177.9261, 0.9632570
178.4083, 0.5601500
178.8904, 1.893616
179.3725, 2.177551
179.8546, 1.839386
180.3367, 1.691803
180.8188, 1.966125
181.3010, 2.342438
181.7831, 2.242859
182.2652, 1.737976
182.7473, 1.419434
183.2294, 1.635223
183.7115, 2.362000
184.1937, 3.472229
184.6758, 4.848206
185.1579, 6.718201
185.6400, 10.07156
186.1221, 14.80341
186.6042, 19.20245
187.0864, 22.02353
187.5685, 23.38651
188.0506, 23.47049
188.5327, 21.75980
189.0148, 19.30560
189.4969, 18.33536
189.9791, 18.88287
190.4612, 20.35522
190.9433, 22.52505
191.4254, 25.31058
191.9075, 28.21948
192.3896, 31.16095
192.8718, 34.11255
193.3539, 37.11819
193.8360, 40.22473
194.3181, 43.29517
194.8002, 46.45590
195.2823, 49.71124
195.7645, 52.05099
196.2466, 53.07547
196.7287, 53.04001
197.2108, 52.79413
197.6929, 52.22830
198.1750, 51.89584
198.6572, 52.28598
199.1393, 53.39206
199.6214, 55.05157
200.1035, 57.37415
200.5856, 60.23035
201.0677, 62.76486
201.5499, 64.92630
202.0320, 66.98502
202.5141, 69.00870
202.9962, 70.89716
203.4783, 73.62656
203.9604, 77.67508
204.4426, 82.85840
204.9247, 87.50296
205.4068, 91.37320
205.8889, 95.20163
206.3710, 99.67227
206.8531, 104.8387
207.3353, 110.4037
207.8174, 116.2525
208.2995, 122.4880
208.7816, 129.5784
209.2637, 137.7974
209.7458, 146.1843
210.2280, 153.6303
210.7101, 159.8380
211.1922, 166.2210
211.6743, 173.5236
212.1564, 181.5909
212.6385, 187.5858
213.1207, 191.0126
213.6028, 193.0582
214.0849, 195.1229
214.5670, 197.7454
215.0491, 198.6011
215.5313, 197.1624
216.0134, 193.4075
216.4955, 188.1991
216.9776, 181.1068
217.4597, 173.0962
217.9418, 164.8861
218.4239, 156.2905
218.9061, 148.1818
219.3882, 140.8043
219.8703, 134.2151
220.3524, 127.6683
220.8345, 121.0344
221.3166, 114.6660
221.7988, 108.8027
222.2809, 103.4218
222.7630, 98.72006
223.2451, 94.80002
223.7272, 91.63483
224.2093, 89.18695
224.6915, 87.76544
225.1736, 86.68317
225.6557, 85.20654
226.1378, 82.88608
226.6199, 81.09897
227.1020, 80.16455
227.5842, 80.07828
228.0663, 80.29214
228.5484, 81.34503
229.0305, 82.17410
229.5126, 81.51553
229.9947, 77.96515
230.4769, 75.86066
230.9590, 76.57050
231.4411, 80.07166
231.9232, 81.61246
232.4053, 79.72668
232.8874, 77.22830
233.3696, 76.91989
233.8517, 80.26212
234.3338, 83.18585
234.8159, 84.92450
235.2980, 85.53778
235.7801, 86.24402
236.2623, 86.74393
236.7444, 87.59625
237.2265, 89.39566
237.7086, 92.69391
238.1907, 96.10953
238.6728, 99.44012
239.1550, 102.5927
239.6371, 105.3050
240.1192, 107.4683
240.6013, 109.4326
241.0834, 111.5124
241.5655, 114.0683
242.0477, 116.1013
242.5298, 117.2657
243.0119, 117.5253
243.4940, 117.5194
243.9761, 117.5022
244.4582, 117.0067
244.9404, 115.7048
245.4225, 113.6208
245.9046, 110.6422
246.3867, 106.6003
246.8688, 101.5965
247.3509, 96.25830
247.8331, 90.32178
248.3152, 84.39624
248.7973, 78.87866
249.2794, 73.88129
249.7615, 69.05310
250.2436, 64.54947
250.7258, 60.21680
251.2079, 55.30353
251.6900, 49.28827
252.1721, 43.43985
252.6542, 38.49893
253.1363, 34.79169
253.6185, 31.32590
254.1006, 28.10052
254.5827, 25.08823
255.0648, 22.19263
255.5469, 19.28610
256.0291, 16.74875
256.5112, 14.86230
256.9933, 13.95697
257.4754, 12.82025
257.9575, 11.16803
258.4396, 9.336609
258.9218, 8.375122
259.4039, 8.622223
259.8860, 9.113831
260.3681, 9.427246
260.8502, 9.517853
261.3323, 9.571930
261.8145, 9.614075
262.2966, 9.599304
262.7787, 9.361450
263.2608, 8.669434
263.7429, 8.220001
264.2250, 8.385223
264.7072, 9.363342
265.1893, 10.04083
265.6714, 10.24368
266.1535, 10.26184
266.6356, 10.72891
267.1177, 11.95386
267.5999, 12.79245
268.0820, 12.55124
268.5641, 10.94037
269.0462, 10.55972
269.5283, 11.82727
270.0104, 13.82950
270.4926, 15.27591
270.9747, 16.09790
271.4568, 16.73889
271.9389, 17.48807
272.4210, 18.39240
272.9031, 18.25171
273.3853, 16.73517
273.8674, 14.78656
274.3495, 13.67108
274.8316, 13.54419
275.3137, 13.39835
275.7958, 12.96994
276.2780, 12.26660
276.7601, 11.39536
277.2422, 10.25555
277.7243, 9.178528
278.2064, 8.562805
278.6885, 8.454346
279.1707, 8.393555
279.6528, 8.422882
280.1349, 8.414642
280.6170, 7.427094
281.0991, 5.182526
281.5812, 3.100616
282.0634, 2.851685
282.5455, 4.507477
283.0276, 5.272156
283.5097, 4.382813
283.9918, 2.403442
284.4739, 1.082275
284.9561, 0.4777830
285.4382, 0.1062010
285.9203, 0.3655400
286.4024, 0.9332280
286.8845, 1.516418
287.3666, 2.147339
287.8488, 2.743774
288.3309, 3.221741
288.8130, 3.593933
289.2951, 3.560974
289.7772, 2.640259
290.2593, 1.034363
290.7415, 0.1757200
291.2236, 0.8805540
291.7057, 1.137512
292.1878, 0.7944950
292.6699, 8.6304002E-02
293.1520, 0.7810060
293.6342, 0.5009770
294.1163, 0.3394170
294.5984, 5.0597999E-02
295.0805, 1.700500
295.5626, 3.476135
296.0447, 3.252625
296.5269, 1.362549
297.0090, 0.5844120
297.4911, 2.351685
297.9732, 3.553223
298.4553, 2.763428
298.9374, 0.2075200
299.4196, 3.174866
299.9017, 3.709717
300.3838, 2.426453
300.8659, 0.9638060
301.3480, 8.8499999E-03
301.8301, 0.7867430
302.3123, 2.024170
302.7944, 3.700684
303.2765, 4.920471
303.7586, 4.629639
304.2407, 3.427551
304.7228, 2.386230
305.2050, 1.802551
305.6871, 1.571838
306.1692, 1.794739
306.6513, 2.387817
307.1334, 2.808167
307.6155, 2.492859
308.0977, 1.872192
308.5798, 1.467529
309.0619, 1.349243
309.5440, 1.563538
310.0261, 2.285339
310.5082, 3.397278
310.9904, 4.542664
311.4725, 5.677246
311.9546, 6.690002
312.4367, 7.364807
312.9188, 7.457825
313.4009, 7.869141
313.8831, 9.516602
314.3652, 11.83600
314.8473, 13.79022
315.3294, 15.05786
315.8115, 15.76440
316.2936, 15.88806
316.7758, 15.36572
317.2579, 14.72467
317.7400, 13.86285
318.2221, 13.11340
318.7042, 12.88281
319.1863, 13.87927
319.6685, 14.90552
320.1506, 15.40289
320.6327, 15.33887
321.1148, 15.39130
321.5969, 15.52301
322.0790, 15.96612
322.5612, 16.92432
323.0433, 18.61401
323.5254, 20.62476
324.0075, 23.10706
324.4896, 25.96716
324.9717, 28.43158
325.4539, 30.11786
325.9360, 31.58026
326.4181, 33.09705
326.9002, 34.19171
327.3823, 35.99622
327.8644, 39.19678
328.3466, 43.24628
328.8287, 46.46301
329.3108, 47.83148
329.7929, 49.24933
330.2750, 51.36462
330.7571, 54.54034
331.2393, 57.65009
331.7214, 60.76117
332.2035, 63.78943
332.6856, 66.53461
333.1677, 68.80573
333.6498, 71.08942
334.1320, 73.53351
334.6141, 76.10400
335.0962, 78.71899
335.5783, 81.48981
336.0604, 84.18976
336.5425, 86.57166
337.0247, 88.46167
337.5068, 90.54053
337.9889, 93.17780
338.4710, 96.21564
338.9531, 98.37738
339.4352, 99.65192
339.9173, 100.1417
340.3994, 99.65021
340.8816, 97.94177
341.3637, 96.79816
341.8458, 96.52771
342.3279, 96.87244
342.8100, 97.34607
343.2921, 98.03613
343.7743, 98.21130
344.2564, 97.23999
344.7385, 95.17328
345.2206, 93.10327
345.7027, 90.91187
346.1848, 89.12714
346.6670, 88.83838
347.1491, 89.97046
347.6312, 91.13141
348.1133, 91.66052
348.5954, 91.71960
349.0775, 91.78369
349.5597, 91.81744
350.0418, 92.20312
350.5239, 93.45966
351.0060, 95.38519
351.4881, 97.36224
351.9702, 98.89868
352.4524, 100.6130
352.9345, 103.6297
353.4166, 107.8088
353.8987, 112.1234
354.3808, 115.6314
354.8629, 118.8190
355.3451, 122.2644
355.8272, 126.0239
356.3093, 130.2568
356.7914, 135.1372
357.2735, 140.5048
357.7556, 146.2484
358.2378, 152.1548
358.7199, 158.5267
359.2020, 165.4852
359.6841, 172.9635
360.1662, 181.2759
360.6483, 191.7151
361.1305, 202.8402
361.6126, 212.6315
362.0947, 218.7866
362.5768, 224.7986
363.0589, 232.7053
363.5410, 242.5340
364.0232, 251.7207
364.5053, 258.9466
364.9874, 265.4377
365.4695, 272.1411
365.9516, 280.2310
366.4337, 287.4875
366.9159, 293.5974
367.3980, 298.7026
367.8801, 303.1837
368.3622, 308.5530
368.8443, 312.2905
369.3264, 313.4654
369.8086, 310.8475
370.2907, 307.6961
370.7728, 304.2052
371.2549, 299.9412
371.7370, 294.5023
372.2191, 287.8308
372.7013, 280.1221
373.1834, 271.8220
373.6655, 262.6895
374.1476, 252.2148
374.6297, 240.3700
375.1118, 227.8722
375.5940, 215.4525
376.0761, 203.2068
376.5582, 191.7828
377.0403, 181.6617
377.5224, 172.9238
378.0045, 164.2870
378.4867, 156.2992
378.9688, 148.4805
379.4509, 140.3884
379.9330, 132.1696
380.4151, 124.3402
380.8972, 117.0790
381.3794, 110.5479
381.8615, 105.4266
382.3436, 101.5626
382.8257, 97.68036
383.3078, 92.64465
383.7899, 87.05627
384.2721, 83.12103
384.7542, 80.98779
385.2363, 79.07446
385.7184, 75.45703
386.2005, 70.78595
386.6826, 66.67480
387.1648, 63.81750
387.6469, 61.62463
388.1290, 59.40472
388.6111, 57.18884
389.0932, 55.08215
389.5753, 53.04028
390.0575, 51.18762
390.5396, 49.75488
391.0217, 48.97601
391.5038, 47.99066
391.9859, 45.61725
392.4680, 42.66339
392.9502, 40.57202
393.4323, 40.99634
393.9144, 41.67627
394.3965, 41.18524
394.8786, 39.38055
395.3607, 37.60773
395.8429, 36.41003
396.3250, 35.41345
396.8071, 34.27936
397.2892, 31.62189
397.7713, 27.85107
398.2534, 30.44836
398.7356, 32.00000
399.2177, 32.55328
399.6998, 29.59668
400.1819, 30.80652
400.6640, 30.12311
401.1461, 29.20886
401.6283, 30.54865
402.1104, 27.28131
402.5925, 30.12964
403.0746, 30.36426
403.5567, 30.30054
404.0388, 30.12402
404.5210, 29.89832
405.0031, 29.62048
405.4852, 29.14740
405.9673, 28.53601
406.4494, 27.60809
406.9315, 25.91217
407.4137, 23.21234
407.8958, 21.69257
408.3779, 22.09344
408.8600, 23.43890
409.3421, 23.20551
409.8242, 21.32062
410.3064, 19.04437
410.7885, 16.87164
411.2706, 14.83612
411.7527, 13.09039
412.2348, 11.59900
412.7169, 10.55194
413.1991, 10.62067
413.6812, 11.41168
414.1633, 11.58759
414.6454, 10.04822
415.1275, 8.095032
415.6096, 7.809998
416.0918, 8.949097
416.5739, 9.739197
417.0560, 8.531555
417.5381, 6.476379
418.0202, 4.948364
418.5023, 4.366516
418.9845, 3.974182
419.4666, 3.239990
419.9487, 2.371826
420.4308, 1.773315
420.9129, 1.958923
421.3951, 7.6233000E-02
421.8772, 2.133606
422.3593, 3.221252
422.8414, 3.247681
423.3235, 1.016296
423.8056, 0.2982180
424.2878, 0.5993650
424.7699, 1.571838
425.2520, 0.5751950
425.7341, 2.979370
426.2162, 0.8490600
426.6983, 0.9655760
427.1805, 3.0151000E-02
427.6626, 1.320618
428.1447, 1.902222
428.6268, 0.2244260
429.1089, 0.2277830
429.5910, 1.255310
430.0732, 0.1554570
430.5553, 3.625061
431.0374, 3.055359
431.5195, 0.7341310
432.0016, 2.025146
432.4837, 0.8054810
432.9659, 0.5196530
433.4480, 4.535950
433.9301, 1.027405
434.4122, 0.7507320
434.8943, 3.792664
435.3764, 0.4942020
435.8586, 3.045044
436.3407, 3.487183
436.8228, 2.338501
437.3049, 2.817078
437.7870, 0.6904300
438.2691, 1.042542
438.7513, 1.601379
439.2334, 1.256287
439.7155, 6.6405997E-02
440.1976, 1.142212
440.6797, 2.054504
441.1618, 2.593994
441.6440, 2.575073
442.1261, 1.579773
442.6082, 0.7256470
443.0903, 0.8350830
443.5724, 1.556885
444.0545, 2.134033
444.5367, 1.823914
445.0188, 1.673828
445.5009, 2.398865
445.9830, 4.208557
446.4651, 5.438538
446.9472, 5.093506
447.4294, 4.384277
447.9115, 4.330078
448.3936, 5.754456
448.8757, 6.883545
449.3578, 7.541626
449.8399, 7.814636
450.3221, 8.035767
450.8042, 8.251221
451.2863, 8.356140
451.7684, 8.301086
452.2505, 8.072754
452.7326, 7.815979
453.2148, 7.509521
453.6969, 7.242920
454.1790, 7.172974
454.6611, 7.319580
455.1432, 7.333557
455.6253, 6.980286
456.1075, 6.559937
456.5896, 7.193787
457.0717, 8.849121
457.5538, 10.06476
458.0359, 9.357117
458.5180, 7.549805
459.0002, 6.513184
459.4823, 6.433960
459.9644, 6.956482
460.4465, 8.174866
460.9286, 9.708923
461.4107, 10.80487
461.8929, 10.68860
462.3750, 10.45581
462.8571, 11.12946
463.3392, 12.49737
463.8213, 13.51544
464.3034, 13.20154
464.7856, 12.72510
465.2677, 12.89532
465.7498, 14.00024
466.2319, 15.29663
466.7140, 17.00299
467.1961, 18.66663
467.6783, 19.72650
468.1604, 19.33649
468.6425, 19.17120
469.1246, 19.64099
469.6067, 20.66882
470.0888, 21.31439
470.5710, 21.02271
471.0531, 21.09387
471.5352, 22.41290
472.0173, 25.54633
472.4994, 27.81702
472.9815, 28.87500
473.4637, 29.50934
473.9458, 31.05157
474.4279, 33.58295
474.9100, 35.90027
475.3921, 37.63959
475.8742, 38.89423
476.3564, 39.82880
476.8385, 40.44946
477.3206, 41.07043
477.8027, 41.94580
478.2848, 42.98199
478.7669, 43.93170
479.2491, 44.69708
479.7312, 45.59808
480.2133, 47.09973
480.6954, 48.90729
481.1775, 50.41980
481.6596, 51.16541
482.1418, 51.84039
482.6239, 53.03357
483.1060, 54.80853
483.5881, 56.22333
484.0702, 57.65375
484.5523, 58.59540
485.0345, 58.73590
485.5166, 57.25635
485.9987, 56.35004
486.4808, 57.31628
486.9629, 58.79675
487.4450, 58.88239
487.9272, 56.13556
488.4093, 54.17480
488.8914, 54.46356
489.3735, 56.72711
489.8556, 57.10095
490.3377, 54.95966
490.8199, 52.80536
491.3020, 52.25616
491.7841, 53.99280
492.2662, 54.24939
492.7483, 52.33832
493.2304, 50.12500
493.7126, 49.48364
494.1947, 50.32111
494.6768, 51.21460
495.1589, 51.78058
495.6410, 51.97687
496.1231, 51.00171
496.6053, 48.98566
497.0874, 47.06006
497.5695, 45.85553
498.0516, 45.13379
498.5337, 44.71973
499.0158, 44.64276
499.4980, 44.53607
499.9801, 44.10223
500.4622, 43.53369
500.9443, 43.05841
501.4264, 42.96521
501.9085, 42.76569
502.3907, 42.33789
502.8728, 41.70001
503.3549, 40.91565
503.8370, 40.06683
504.3191, 39.00641
504.8012, 37.60712
505.2834, 35.72034
505.7655, 34.16016
506.2476, 32.87610
506.7297, 31.97900
507.2118, 31.74176
507.6939, 32.46704
508.1761, 32.55090
508.6582, 31.51257
509.1403, 29.89929
509.6224, 29.26575
510.1045, 29.65576
510.5866, 29.67535
511.0688, 28.03937
511.5509, 25.46985
512.0330, 24.41736
512.5151, 24.91748
512.9973, 25.54773
513.4794, 25.02527
513.9615, 23.85217
514.4436, 22.79138
514.9257, 21.98572
515.4078, 21.41742
515.8900, 21.33972
516.3721, 21.48926
516.8542, 21.34442
517.3363, 20.47351
517.8184, 19.45673
518.3005, 18.23096
518.7827, 16.84094
519.2648, 16.43079
519.7469, 18.25342
520.2290, 20.30908
520.7111, 21.51935
521.1932, 21.62299
521.6754, 21.64246
522.1575, 21.09058
522.6396, 20.60876
523.1217, 21.42029
523.6038, 24.04132
524.0859, 25.78522
524.5681, 25.57843
525.0502, 24.20154
525.5323, 24.58038
526.0144, 26.84052
526.4965, 29.09460
526.9786, 30.11993
527.4608, 30.19031
527.9429, 29.86749
528.4250, 29.09912
528.9071, 28.79694
529.3892, 30.66180
529.8713, 33.43329
530.3535, 34.85730
530.8356, 33.38171
531.3177, 31.73187
531.7998, 32.00250
532.2819, 33.53339
532.7640, 34.61200
533.2462, 33.80371
533.7283, 33.03516
534.2104, 33.34467
534.6925, 34.96545
535.1746, 36.16998
535.6567, 36.73145
536.1389, 36.65277
536.6210, 35.88519
537.1031, 33.96680
537.5852, 32.57147
538.0673, 32.00317
538.5494, 31.71753
539.0316, 30.64404
539.5137, 28.58893
539.9958, 27.11987
540.4779, 27.02936
540.9600, 27.68140
541.4421, 26.95392
541.9243, 24.90424
542.4064, 22.80646
542.8885, 21.41998
543.3706, 20.61926
543.8527, 20.32562
544.3348, 20.57391
544.8170, 20.77057
545.2991, 20.30505
545.7812, 19.56427
546.2633, 19.03442
546.7454, 19.12128
547.2275, 19.21686
547.7097, 19.14001
548.1918, 18.89667
548.6739, 18.47241
549.1560, 17.40033
549.6381, 16.59692
550.1202, 16.73560
550.6024, 17.88916
551.0845, 17.66077
551.5666, 14.88751
552.0487, 12.20850
552.5308, 11.57611
553.0129, 13.52649
553.4951, 14.56689
553.9772, 14.43390
554.4593, 13.69684
554.9414, 13.03857
555.4235, 12.46460
555.9056, 11.98969
556.3878, 11.60126
556.8699, 11.37237
557.3520, 11.55829
557.8341, 12.05530
558.3162, 12.40790
558.7983, 12.28467
559.2805, 11.93512
559.7626, 11.54236
560.2447, 11.12311
560.7268, 10.79456
561.2089, 10.71204
561.6910, 10.68671
562.1732, 10.57550
562.6553, 10.41266
563.1374, 10.06952
563.6195, 9.549561
564.1016, 8.827576
564.5837, 7.787354
565.0659, 5.872742
565.5480, 4.703491
566.0301, 4.954224
566.5122, 6.227417
566.9943, 6.291504
567.4764, 4.829651
567.9586, 3.678223
568.4407, 4.328857
568.9228, 6.358704
569.4049, 7.305420
569.8870, 7.051270
570.3691, 6.424011
570.8513, 6.150940
571.3334, 6.087708
571.8155, 5.982666
572.2976, 5.815979
572.7797, 5.493347
573.2618, 4.617249
573.7440, 3.577026
574.2261, 3.059998
574.7082, 3.839478
575.1903, 4.688599
575.6724, 5.196228
576.1545, 5.366577
576.6367, 5.324646
577.1188, 5.560303
577.6009, 5.100525
578.0830, 3.263489
578.5651, 0.4434200
579.0472, 2.840637
579.5294, 3.715759
580.0115, 3.690979
580.4936, 3.246460
580.9757, 2.368164
581.4578, 1.331421
581.9399, 4.1992001E-02
582.4221, 1.078064
582.9042, 1.215515
583.3863, 0.5630490
583.8684, 7.4767999E-02
584.3505, 0.4287110
584.8326, 0.5501100
585.3148, 0.3544920
585.7969, 7.4157998E-02
586.2789, 0.3451540
586.7610, 0.2204590
587.2432, 0.6639400
587.7253, 7.1289003E-02
588.2074, 1.944641
588.6895, 3.029724
589.1716, 1.720520
589.6537, 4.8278999E-02
590.1359, 0.7402340
590.6180, 0.7900390
591.1001, 1.058960
591.5822, 0.7620240
592.0643, 3.253845
592.5464, 3.871338
593.0286, 2.360718
593.5107, 0.8369750
593.9928, 0.1757810
594.4749, 0.7676390
594.9570, 1.107788
595.4391, 1.209595
595.9213, 1.180298
596.4034, 1.050537
596.8855, 0.8576660
597.3676, 0.6061400
597.8497, 0.3034670
598.3318, 9.9914998E-02
598.8140, 0.1607060
599.2961, 0.3202510
599.7782, 0.4362180
600.2603, 0.4554440
600.7424, 0.4650880
601.2245, 0.4868160
601.7067, 0.4891970
602.1888, 0.3991090
602.6709, 0.1914670
603.1530, 0.1577150
603.6351, 1.030396
604.1172, 2.776733
604.5994, 3.147339
605.0815, 1.881775
605.5636, 0.6367190
606.0457, 0.2290040
606.5278, 0.4015500
607.0099, 6.7626998E-02
607.4921, 0.7499390
607.9742, 1.567200
608.4563, 2.178162
608.9384, 2.473267
609.4205, 2.153503
609.9026, 1.086365
610.3848, 6.4940996E-02
610.8669, 0.4816280
611.3490, 0.6889650
611.8311, 0.6893920
612.3132, 0.1651610
612.7953, 0.1090090
613.2775, 0.1523440
613.7596, 0.7190550
614.2417, 1.169189
614.7238, 1.434265
615.2059, 1.627563
615.6880, 1.617615
616.1702, 1.553650
616.6523, 2.295654
617.1344, 3.969482
617.6165, 5.725708
618.0986, 7.219177
618.5807, 8.426392
619.0629, 9.175659
619.5450, 9.467896
620.0271, 9.599304
620.5092, 9.556396
620.9913, 9.604309
621.4734, 10.21155
621.9556, 11.64709
622.4377, 12.92200
622.9198, 13.24518
623.4019, 13.21124
623.8840, 13.52661
624.3661, 14.70770
624.8483, 15.80182
625.3304, 16.50177
625.8125, 17.02924
626.2946, 17.95312
626.7767, 19.46338
627.2589, 20.91040
627.7410, 22.04492
628.2231, 22.97754
628.7052, 24.51031
629.1873, 26.72839
629.6694, 28.39667
630.1516, 28.24725
630.6337, 27.05151
631.1158, 26.89709
631.5979, 27.85962
632.0800, 28.40106
632.5621, 27.05066
633.0443, 24.82843
633.5264, 22.76093
634.0085, 20.97327
634.4906, 19.55115
634.9727, 19.03723
635.4548, 18.68610
635.9370, 17.59296
636.4191, 14.65765
636.9012, 12.10669
637.3833, 10.33368
637.8654, 9.163818
638.3475, 8.093933
638.8297, 7.097168
639.3118, 6.482300
639.7939, 6.383911
640.2760, 6.713196
640.7581, 7.380615
641.2402, 8.348755
641.7224, 9.159485
642.2045, 9.394775
642.6866, 9.433350
643.1687, 9.839844
643.6508, 10.65912
644.1329, 11.43762
644.6151, 12.09821
645.0972, 12.45160
645.5793, 12.28973
646.0614, 11.18628
646.5435, 10.62653
647.0256, 10.86108
647.5078, 11.62897
647.9899, 12.86267
648.4720, 15.10907
648.9541, 16.78876
649.4362, 17.48077
649.9183, 17.60681
650.4005, 18.23578
650.8826, 19.48840
651.3647, 20.99542
651.8468, 22.81073
652.3289, 24.52966
652.8110, 25.42584
653.2932, 25.63330
653.7753, 25.68988
654.2574, 25.39008
654.7395, 25.42926
655.2216, 26.61218
655.7037, 28.86646
656.1859, 30.71558
656.6680, 31.64838
657.1501, 32.15143
657.6322, 32.31769
658.1143, 31.90802
658.5964, 32.37952
659.0786, 34.28204
659.5607, 36.30023
660.0428, 37.13605
660.5249, 36.67841
661.0070, 36.78119
661.4891, 37.67737
661.9713, 39.11786
662.4534, 41.14911
662.9355, 43.51392
663.4176, 45.45477
663.8997, 46.66864
664.3818, 47.55756
664.8640, 48.32410
665.3461, 48.99884
665.8282, 49.60889
666.3103, 49.69891
666.7924, 50.17273
667.2745, 51.83197
667.7567, 54.37708
668.2388, 55.73755
668.7209, 54.89764
669.2030, 54.41614
669.6851, 55.33740
670.1672, 57.53497
670.6494, 59.21875
671.1315, 60.41241
671.6136, 61.28461
672.0957, 61.92432
672.5778, 62.31915
673.0599, 62.35669
673.5421, 62.01324
674.0242, 61.65021
674.5063, 62.11243
674.9884, 62.47205
675.4705, 61.44513
675.9526, 58.01404
676.4348, 55.34863
676.9169, 55.79218
677.3990, 56.97650
677.8811, 56.18182
678.3632, 51.78723
678.8453, 48.25629
679.3275, 46.16437
679.8096, 44.90533
680.2917, 43.44067
680.7738, 41.79260
681.2559, 40.02502
681.7380, 38.03357
682.2202, 36.12952
682.7023, 34.99310
683.1844, 34.50995
683.6665, 34.24561
684.1486, 34.28235
684.6307, 34.19470
685.1129, 33.33557
685.5950, 31.90857
686.0771, 31.08563
686.5592, 31.63220
687.0413, 32.54498
687.5234, 33.39722
688.0056, 34.16046
688.4877, 34.94684
688.9698, 35.52972
689.4519, 36.51898
689.9340, 38.41602
690.4161, 41.22455
690.8983, 44.20959
691.3804, 47.44849
691.8625, 50.45740
692.3446, 52.35223
692.8267, 53.72699
693.3088, 56.02045
693.7910, 59.81818
694.2731, 63.07086
694.7552, 63.29645
695.2373, 62.61005
695.7194, 63.46533
696.2015, 67.42139
696.6837, 71.75378
697.1658, 76.69647
697.6479, 81.55884
698.1300, 85.19281
698.6121, 87.11957
699.0942, 89.23853
699.5764, 92.18134
700.0585, 95.25256
700.5406, 96.58087
701.0227, 96.33167
701.5048, 96.32312
701.9869, 98.00647
702.4691, 99.85114
702.9512, 99.65253
703.4333, 97.78503
703.9154, 95.68195
704.3975, 93.97845
704.8796, 92.29755
705.3618, 90.66394
705.8439, 89.06256
706.3260, 86.57239
706.8081, 82.47937
707.2902, 78.27838
707.7723, 74.92035
708.2545, 72.47717
708.7366, 68.30682
709.2187, 62.05200
709.7008, 55.61218
710.1829, 50.66266
710.6650, 46.81476
711.1472, 42.91101
711.6293, 38.85144
712.1114, 35.00757
712.5935, 31.70459
713.0756, 28.72266
713.5577, 25.86993
714.0399, 23.11017
714.5220, 20.43347
715.0041, 17.94159
715.4862, 15.53137
715.9683, 13.00543
716.4504, 10.01868
716.9326, 7.804626
717.4147, 6.670654
717.8968, 6.080811
718.3789, 5.186157
718.8610, 4.001160
719.3431, 3.026367
719.8253, 2.358093
720.3074, 1.984680
720.7895, 2.340820
721.2716, 2.957092
721.7537, 2.770874
722.2358, 0.3086550
722.7180, 2.096985
723.2001, 3.276367
723.6822, 3.465454
724.1643, 3.295776
724.6464, 2.317139
725.1285, 1.670105
725.6107, 1.733154
726.0928, 2.324341
726.5749, 2.554321
727.0570, 2.339783
727.5391, 2.208130
728.0212, 2.542236
728.5034, 3.092896
728.9855, 3.169556
729.4676, 2.814453
729.9497, 2.336548
730.4318, 2.064148
730.9139, 1.677185
731.3961, 0.6358030
731.8782, 1.061890
732.3603, 2.046814
732.8424, 0.7503050
733.3245, 0.3555910
733.8066, 0.2025760
734.2888, 2.865601
734.7709, 4.317627
735.2530, 4.321289
735.7351, 3.761780
736.2172, 2.937134
736.6993, 2.025940
737.1815, 2.411804
737.6636, 4.269409
738.1457, 6.317200
738.6278, 7.235596
739.1099, 7.684387
739.5920, 8.478149
740.0742, 9.800232
740.5563, 11.36151
741.0384, 13.42352
741.5205, 15.46851
742.0026, 16.93799
742.4847, 17.13721
742.9669, 18.10388
743.4490, 20.18451
743.9311, 22.63190
744.4132, 24.39789
744.8953, 25.50977
745.3774, 26.91290
745.8596, 28.67157
746.3417, 31.13531
746.8238, 35.48938
747.3059, 40.77136
747.7880, 45.03302
748.2701, 46.80164
748.7523, 48.56659
749.2344, 51.55524
749.7165, 55.35181
750.1986, 59.11835
750.6807, 62.99011
751.1628, 66.55286
751.6450, 69.45782
752.1271, 72.18250
752.6092, 75.98090
753.0913, 80.95630
753.5734, 85.54675
754.0555, 88.99207
754.5377, 91.94824
755.0198, 95.73206
755.5019, 99.95721
755.9840, 103.3141
756.4661, 104.2931
756.9482, 105.0609
757.4304, 107.1682
757.9125, 110.1790
758.3946, 112.4775
758.8767, 114.0948
759.3588, 114.5207
759.8409, 113.2490
760.3231, 110.6529
760.8052, 108.8328
761.2873, 107.9749
761.7694, 106.6298
762.2515, 103.8738
762.7336, 100.2320
763.2158, 96.71881
763.6979, 93.32361
764.1800, 90.14667
764.6621, 87.64319
765.1442, 85.03906
765.6263, 81.37518
766.1085, 76.72095
766.5906, 73.23468
767.0727, 72.32703
767.5548, 71.49420
768.0369, 69.80664
768.5190, 67.27979
769.0012, 64.82684
769.4833, 62.42822
769.9654, 60.37695
770.4475, 58.90106
770.9296, 57.91522
771.4117, 57.24042
771.8939, 56.86676
772.3760, 56.61957
772.8581, 56.61151
773.3402, 56.53607
773.8223, 56.24725
774.3044, 55.76471
774.7866, 54.68079
775.2687, 51.96210
775.7508, 49.64105
776.2329, 48.97662
776.7150, 50.21240
777.1971, 50.31244
777.6793, 49.03247
778.1614, 47.88977
778.6435, 48.66650
779.1256, 50.43848
779.6077, 50.87433
780.0898, 49.76147
780.5720, 48.62079
781.0541, 48.69714
781.5362, 49.13843
782.0183, 49.20215
782.5004, 48.68225
782.9825, 48.35815
783.4647, 48.34052
783.9468, 48.43884
784.4289, 48.52893
784.9110, 48.60297
785.3931, 48.87457
785.8752, 49.32886
786.3574, 49.94049
786.8395, 50.89343
787.3216, 51.97107
787.8037, 52.67926
788.2858, 52.93707
788.7679, 53.14203
789.2501, 53.42358
789.7322, 53.82623
790.2143, 54.38422
790.6964, 55.13208
791.1785, 56.09222
791.6606, 57.67706
792.1428, 59.01184
792.6249, 59.12714
793.1070, 57.86188
793.5891, 57.88855
794.0712, 59.49487
794.5533, 61.02325
795.0355, 60.35242
795.5176, 58.58765
795.9997, 57.62927
796.4818, 57.94385
796.9639, 58.45410
797.4460, 58.87720
797.9282, 59.09271
798.4103, 58.94513
798.8924, 58.10425
799.3745, 57.52118
799.8566, 57.31567
800.3387, 57.23682
800.8209, 57.12360
801.3030, 57.00879
801.7851, 56.64880
802.2672, 55.93866
802.7493, 55.14282
803.2314, 54.33698
803.7136, 53.84131
804.1957, 54.37885
804.6778, 56.56714
805.1599, 57.98645
805.6420, 56.67694
806.1241, 54.91150
806.6063, 54.75861
807.0884, 56.97528
807.5705, 58.63739
808.0526, 59.70795
808.5347, 60.41028
809.0168, 60.88904
809.4990, 61.12445
809.9811, 61.39911
810.4632, 61.89368
810.9453, 62.08783
811.4274, 61.20007
811.9095, 59.96149
812.3917, 59.14795
812.8738, 58.77972
813.3559, 58.99408
813.8380, 60.43738
814.3201, 62.01196
814.8022, 62.75513
815.2844, 62.44452
815.7665, 62.72424
816.2486, 63.78510
816.7307, 64.86261
817.2128, 65.29718
817.6949, 65.13666
818.1771, 64.27875
818.6592, 62.59442
819.1413, 61.20227
819.6234, 60.92072
820.1055, 61.13391
820.5876, 61.42719
821.0698, 62.10010
821.5519, 61.77948
822.0340, 60.00659
822.5161, 57.94745
822.9982, 56.58655
823.4803, 55.85449
823.9625, 54.59979
824.4446, 52.73297
824.9267, 50.81488
825.4088, 49.10913
825.8909, 47.73718
826.3730, 47.15179
826.8552, 47.55804
827.3373, 47.46497
827.8194, 46.72595
828.3015, 44.93304
828.7836, 41.50781
829.2657, 35.86957
829.7479, 32.03296
830.2300, 30.31824
830.7121, 29.57391
831.1942, 29.31702
831.6763, 29.30731
832.1584, 28.71478
832.6406, 27.52588
833.1227, 26.25812
833.6048, 25.52362
834.0869, 24.71313
834.5690, 23.00946
835.0511, 20.10583
835.5333, 18.56451
836.0154, 19.71478
836.4975, 20.61298
836.9796, 19.61279
837.4617, 16.75287
837.9438, 14.34076
838.4260, 12.34119
838.9081, 10.75555
839.3902, 9.675903
839.8723, 9.025146
840.3544, 8.983459
840.8365, 9.449768
841.3187, 9.461060
841.8008, 7.948181
842.2829, 6.510925
842.7650, 6.149658
843.2471, 6.760376
843.7292, 6.645874
844.2114, 5.687622
844.6935, 4.386230
845.1756, 2.574036
845.6577, 0.7566530
846.1398, 0.8367920
846.6219, 2.467468
847.1041, 3.665771
847.5862, 2.905945
848.0683, 1.633911
848.5504, 0.9195560
849.0325, 0.6129150
849.5146, 0.3278200
849.9968, 3.287170
850.4789, 4.910217
850.9610, 3.859314
851.4431, 1.051086
851.9252, 0.3794560
852.4073, 0.4663700
852.8895, 0.2491460
853.3716, 0.1175540
853.8537, 2.7649000E-02
854.3358, 0.3999630
854.8179, 0.8774410
855.3000, 1.164490
855.7822, 1.225464
856.2643, 1.000244
856.7464, 0.1124880
857.2285, 0.9461060
857.7106, 1.297546
858.1927, 0.9149780
858.6749, 0.2952880
859.1570, 2.831848
859.6391, 5.208801
860.1212, 4.123291
860.6033, 0.9400020
861.0854, 0.8027340
861.5676, 0.8249510
862.0497, 2.540344
862.5318, 2.447571
863.0139, 1.429749
863.4960, 0.7094730
863.9781, 0.6594240
864.4603, 0.1940310
864.9424, 1.082031
865.4245, 2.197632
865.9066, 1.280579
866.3887, 1.089600
866.8708, 1.530396
867.3530, 0.7491460
867.8351, 3.320557
868.3172, 4.554993
868.7993, 4.808960
869.2814, 4.176941
869.7635, 1.906372
870.2457, 1.167725
870.7278, 3.187744
871.2099, 5.614197
871.6920, 6.704895
872.1741, 6.408569
872.6563, 6.246460
873.1384, 6.260437
873.6205, 6.168274
874.1026, 5.580322
874.5847, 4.832092
875.0668, 4.397644
875.5490, 4.317566
876.0311, 4.244934
876.5132, 4.143188
876.9953, 3.926941
877.4774, 3.425232
877.9595, 2.668762
878.4417, 2.670532
878.9238, 3.581360
879.4059, 4.358765
879.8880, 4.123901
880.3701, 3.505859
880.8522, 4.106750
881.3344, 5.563965
881.8165, 6.331421
882.2986, 4.580933
882.7807, 3.005920
883.2628, 3.160706
883.7449, 4.593689
884.2271, 5.521057
884.7092, 5.859375
885.1913, 5.904175
885.6734, 5.672485
886.1555, 5.264404
886.6376, 4.793701
887.1198, 4.322083
887.6019, 4.037842
888.0840, 4.004150
888.5661, 4.198730
889.0482, 4.859802
889.5303, 5.674927
890.0125, 6.125549
890.4946, 5.992981
890.9767, 5.817200
891.4588, 5.598572
891.9409, 5.407227
892.4230, 5.246399
892.9052, 5.163940
893.3873, 5.652649
893.8694, 6.943665
894.3515, 7.770386
894.8336, 6.158569
895.3157, 4.036682
895.7979, 3.540955
896.2800, 5.790710
896.7621, 7.016785
897.2442, 6.378784
897.7263, 5.449219
898.2084, 5.214600
898.6906, 5.656799
899.1727, 6.475769
899.6548, 7.670288
900.1369, 8.576355
900.6190, 8.385010
901.1011, 7.859192
901.5833, 7.829285
902.0654, 8.290894
902.5475, 8.646790
903.0296, 8.646973
903.5117, 8.569641
903.9938, 8.565735
904.4760, 8.649353
904.9581, 8.630432
905.4402, 8.482056
905.9223, 8.429626
906.4044, 8.726868
906.8865, 9.011841
907.3687, 8.698792
907.8508, 5.451416
908.3329, 7.681946
908.8150, 8.835449
909.2971, 9.083435
909.7792, 5.108215
910.2614, 6.695801
910.7435, 6.040588
911.2256, 5.282715
911.7077, 7.616150
912.1898, 4.204346
912.6719, 6.428894
913.1541, 6.369446
913.6362, 7.338623
914.1183, 6.076416
914.6004, 5.559875
915.0825, 7.336609
915.5646, 7.880859
916.0468, 6.456909
916.5289, 7.534058
917.0110, 3.863403
917.4931, 4.065430
917.9752, 6.069702
918.4573, 4.642944
918.9395, 5.808655
919.4216, 5.929749
919.9037, 1.622681
920.3858, 4.830139
920.8679, 4.851563
921.3500, 1.581665
921.8322, 4.638916
922.3143, 1.857971
922.7964, 1.232605
923.2785, 2.216248
923.7606, 1.527771
924.2427, 3.301636
924.7249, 2.551819
925.2070, 1.712158
925.6891, 1.918152
926.1712, 0.6111450
926.6533, 1.975525
927.1354, 1.058350
927.6176, 1.825134
928.0997, 1.405273
928.5818, 0.8752440
929.0639, 1.370667
929.5460, 3.221985
930.0281, 3.663208
930.5103, 2.152771
930.9924, 0.2988280
931.4745, 0.1527100
931.9566, 0.3186040
932.4387, 1.140686
932.9208, 2.316650
933.4030, 3.024963
933.8851, 2.144226
934.3672, 1.431458
934.8493, 2.169617
935.3314, 4.447144
935.8135, 5.085876
936.2957, 3.920837
936.7778, 2.781006
937.2599, 3.137878
937.7420, 3.974548
938.2241, 3.511536
938.7062, 2.101196
939.1884, 1.085327
939.6705, 1.112244
940.1526, 1.453186
940.6347, 2.059265
941.1168, 2.790710
941.5989, 3.095215
942.0811, 2.864746
942.5632, 3.687805
943.0453, 6.286194
943.5274, 8.831482
944.0095, 9.125244
944.4916, 8.033203
944.9738, 6.863403
945.4559, 5.550903
945.9380, 5.115784
946.4201, 6.920166
946.9022, 8.799866
947.3843, 8.960754
947.8665, 7.148499
948.3486, 6.081055
948.8307, 5.830505
949.3128, 6.055237
949.7949, 6.809570
950.2770, 7.597412
950.7592, 7.762390
951.2413, 7.379150
951.7234, 7.293274
952.2055, 8.052551
952.6876, 8.791565
953.1697, 9.244690
953.6519, 9.525085
954.1340, 10.03375
954.6161, 10.74719
955.0982, 11.30731
955.5803, 11.47046
956.0624, 11.67407
956.5446, 12.54614
957.0267, 13.69086
957.5088, 14.50244
957.9909, 14.35992
958.4730, 14.59906
958.9551, 15.54346
959.4373, 16.47931
959.9194, 16.45715
960.4015, 15.64703
960.8836, 15.83698
961.3657, 17.15656
961.8478, 18.21967
962.3300, 16.93219
962.8121, 15.68182
963.2942, 17.01239
963.7763, 21.09381
964.2584, 23.29413
964.7405, 22.69403
965.2227, 21.72333
965.7048, 21.25934
966.1869, 21.07001
966.6690, 20.31470
967.1511, 19.18713
967.6332, 18.47803
968.1154, 18.44287
968.5975, 19.02789
969.0796, 21.08405
969.5617, 23.40363
970.0438, 24.05988
970.5259, 22.14996
971.0081, 20.90131
971.4902, 20.51733
971.9723, 20.75336
972.4544, 21.58923
972.9365, 22.78619
973.4186, 23.69598
973.9008, 24.24805
974.3829, 24.97327
974.8650, 27.16101
975.3471, 28.60388
975.8292, 27.66431
976.3113, 24.66132
976.7935, 22.68091
977.2756, 21.75220
977.7577, 21.73816
978.2398, 22.97766
978.7219, 24.63812
979.2040, 25.50360
979.6862, 25.77686
980.1683, 25.88788
980.6504, 26.05194
981.1325, 25.98547
981.6146, 25.67340
982.0967, 25.09015
982.5789, 23.90515
983.0610, 22.10406
983.5431, 21.81281
984.0252, 23.35474
984.5073, 24.51996
984.9894, 22.84430
985.4716, 20.11401
985.9537, 17.87531
986.4358, 16.28223
986.9179, 15.63757
987.4000, 16.74628
987.8821, 17.38568
988.3643, 16.64783
988.8464, 14.91901
989.3285, 13.22260
989.8106, 11.59888
990.2927, 10.20050
990.7748, 9.222290
991.2570, 8.314148
991.7391, 6.943970
992.2212, 5.644531
992.7033, 5.291382
993.1854, 6.708130
993.6675, 6.650513
994.1497, 4.553589
994.6318, 2.349426
995.1139, 2.561951
995.5960, 3.938232
996.0781, 3.578430
996.5602, 1.351440
997.0424, 0.3118900
997.5245, 0.3568730
998.0066, 1.195557
998.4887, 1.285522
998.9708, 0.7250370
999.4529, 0.3308720
999.9351, 1.954102
1000.417, 2.414795
1000.899, 0.4658810
1001.381, 1.624939
1001.864, 0.7271730
1002.346, 1.740479
1002.828, 3.525574
1003.310, 3.627441
1003.792, 3.786316
1004.274, 4.373108
1004.756, 4.721069
1005.238, 4.042664
1005.720, 2.528137
1006.203, 1.762695
1006.685, 1.751404
1007.167, 1.445435
1007.649, 0.4428710
1008.131, 2.331238
1008.613, 2.896301
1009.095, 2.380005
1009.577, 2.556396
1010.060, 3.753906
1010.542, 4.547119
1011.024, 4.385620
1011.506, 4.105225
1011.988, 5.392822
1012.470, 7.512512
1012.952, 8.794189
1013.434, 8.498047
1013.916, 8.447266
1014.399, 9.808838
1014.881, 11.22406
1015.363, 11.70587
1015.845, 11.23651
1016.327, 11.27850
1016.809, 11.84149
1017.291, 12.95990
1017.773, 15.30701
1018.255, 17.70551
1018.738, 18.97998
1019.220, 19.38153
1019.702, 19.63544
1020.184, 19.37866
1020.666, 19.88733
1021.148, 21.51758
1021.630, 23.63794
1022.112, 25.43286
1022.595, 26.91553
1023.077, 27.99420
1023.559, 28.60132
1024.041, 29.38208
1024.523, 31.18683
1025.005, 32.90533
1025.487, 33.66882
1025.969, 33.55280
1026.452, 33.20428
1026.934, 32.45563
1027.416, 32.93829
1027.898, 35.94781
1028.380, 39.85352
1028.862, 42.79614
1029.344, 44.77832
1029.826, 45.82611
1030.308, 45.03723
1030.791, 44.57953
1031.273, 44.51331
1031.755, 44.96973
1032.237, 46.38647
1032.719, 48.57013
1033.201, 49.73633
1033.683, 49.87878
1034.165, 50.44122
1034.647, 53.09625
1035.130, 55.84656
1035.612, 57.29767
1036.094, 57.63770
1036.576, 58.28326
1037.058, 59.35596
1037.540, 60.04407
1038.022, 59.95551
1038.504, 59.87012
1038.987, 61.48944
1039.469, 63.67932
1039.951, 64.33484
1040.433, 62.32935
1040.915, 61.16125
1041.397, 62.02142
1041.879, 63.38641
1042.361, 64.45343
1042.844, 65.29272
1043.326, 66.74408
1043.808, 68.70142
1044.290, 70.16095
1044.772, 70.59937
1045.254, 70.39929
1045.736, 69.06567
1046.218, 67.48651
1046.700, 67.51166
1047.182, 69.93335
1047.665, 71.41919
1048.147, 71.62885
1048.629, 71.05426
1049.111, 69.60852
1049.593, 67.98267
1050.075, 67.29144
1050.557, 67.61316
1051.039, 68.30219
1051.522, 70.01581
1052.004, 70.92841
1052.486, 70.22156
1052.968, 68.52686
1053.450, 67.55511
1053.932, 67.24939
1054.414, 67.41486
1054.896, 68.33990
1055.379, 68.73224
1055.861, 66.71631
1056.343, 64.34753
1056.825, 63.91913
1057.307, 65.78687
1057.789, 67.12732
1058.271, 68.13025
1058.753, 68.23248
1059.235, 65.98535
1059.718, 63.11951
1060.200, 62.19629
1060.682, 62.72156
1061.164, 63.41058
1061.646, 63.99945
1062.128, 64.42261
1062.610, 64.52057
1063.092, 64.71924
1063.574, 65.92310
1064.057, 67.70782
1064.539, 68.13568
1065.021, 67.02545
1065.503, 65.79846
1065.985, 64.88379
1066.467, 64.45282
1066.949, 64.94861
1067.431, 66.05072
1067.914, 66.38696
1068.396, 65.88385
1068.878, 65.50171
1069.360, 65.52899
1069.842, 65.75482
1070.324, 66.41217
1070.806, 66.88300
1071.288, 66.19843
1071.771, 63.52386
1072.253, 61.76019
1072.735, 61.27863
1073.217, 61.11267
1073.699, 60.80316
1074.181, 60.31671
1074.663, 59.21729
1075.145, 57.80072
1075.627, 57.15900
1076.109, 59.50891
1076.592, 60.52899
1077.074, 57.93549
1077.556, 54.09406
1078.038, 51.48895
1078.520, 50.09644
1079.002, 49.62769
1079.484, 50.09454
1079.966, 49.74292
1080.448, 46.20020
1080.931, 42.15417
1081.413, 39.93451
1081.895, 37.18231
1082.377, 34.69916
1082.859, 33.76080
1083.341, 31.30505
1083.823, 31.14374
1084.305, 31.35455
1084.788, 28.51782
1085.270, 24.60382
1085.752, 22.93945
1086.234, 24.61279
1086.716, 25.68365
1087.198, 25.57111
1087.680, 24.60144
1088.162, 22.53149
1088.645, 19.87769
1089.127, 18.71295
1089.609, 18.67871
1090.091, 18.30115
1090.573, 16.60040
1091.055, 15.01721
1091.537, 14.42853
1092.019, 14.29370
1092.501, 13.63098
1092.984, 12.16180
1093.466, 11.58148
1093.948, 12.01843
1094.430, 12.11322
1094.912, 10.54266
1095.394, 8.647888
1095.876, 7.122864
1096.358, 6.076843
1096.840, 5.971985
1097.323, 7.357300
1097.805, 7.920837
1098.287, 7.240540
1098.769, 6.158569
1099.251, 5.551819
1099.733, 5.243896
1100.215, 4.944946
1100.697, 4.572693
1101.180, 4.304871
1101.662, 4.236877
1102.144, 4.211121
1102.626, 4.194092
1103.108, 4.159973
1103.590, 4.049927
1104.072, 3.900696
1104.554, 3.794434
1105.036, 3.731079
1105.519, 3.653870
1106.001, 3.520874
1106.483, 3.401245
1106.965, 3.452820
1107.447, 3.624268
1107.929, 2.644043
1108.411, 0.6400150
1108.893, 0.6209720
1109.375, 0.3209840
1109.858, 1.564148
1110.340, 1.555481
1110.822, 1.010681
1111.304, 0.8931270
1111.786, 1.401978
1112.268, 1.659302
1112.750, 1.739136
1113.232, 1.428650
1113.715, 0.2308350
1114.197, 1.864807
1114.679, 1.574951
1115.161, 0.2059330
1115.643, 1.812622
1116.125, 3.084778
1116.607, 3.902954
1117.089, 4.198059
1117.572, 4.166931
1118.054, 3.706543
1118.536, 3.211548
1119.018, 3.661377
1119.500, 5.122009
1119.982, 6.537842
1120.464, 7.866516
1120.946, 8.575134
1121.428, 8.302124
1121.911, 7.471375
1122.393, 6.963135
1122.875, 6.764771
1123.357, 6.933899
1123.839, 7.574341
1124.321, 8.148254
1124.803, 8.178894
1125.285, 8.204773
1125.767, 8.627991
1126.250, 9.370728
1126.732, 9.921631
1127.214, 10.29791
1127.696, 10.18280
1128.178, 9.198792
1128.660, 8.128113
1129.142, 7.068176
1129.624, 6.617676
1130.107, 7.895996
1130.589, 11.68567
1131.071, 13.23724
1131.553, 12.34521
1132.035, 11.07153
1132.517, 10.84283
1132.999, 10.93127
1133.481, 10.36450
1133.964, 9.453308
1134.446, 8.965820
1134.928, 9.512878
1135.410, 9.348999
1135.892, 8.063965
1136.374, 6.955200
1136.856, 7.999573
1137.338, 9.790588
1137.820, 9.761536
1138.302, 8.028381
1138.785, 6.078796
1139.267, 3.713928
1139.749, 2.199646
1140.231, 1.952515
1140.713, 2.330322
1141.195, 2.359192
1141.677, 2.244934
1142.159, 2.734375
1142.642, 3.935303
1143.124, 4.690613
1143.606, 4.375610
1144.088, 3.495117
1144.570, 1.938965
1145.052, 0.1820680
1145.534, 0.2351070
1146.016, 0.4368900
1146.499, 0.8378910
1146.981, 0.5440060
1147.463, 0.3298340
1147.945, 1.475159
1148.427, 2.114258
1148.909, 0.5140990
1149.391, 2.844360
1149.873, 3.482239
1150.355, 1.536438
1150.838, 0.2291870
1151.320, 0.8276370
1151.802, 0.7859500
1152.284, 0.4355470
1152.766, 1.470886
1153.248, 0.5199580
1153.730, 2.801880
1154.212, 4.480103
1154.694, 4.411865
1155.177, 3.971619
1155.659, 4.093567
1156.141, 4.057495
1156.623, 2.744812
1157.105, 0.9005740
1157.587, 7.8552000E-02
1158.069, 3.4912001E-02
1158.551, 0.5875240
1159.034, 1.662537
1159.516, 2.621216
1159.998, 3.110535
1160.480, 3.086365
1160.962, 2.159729
1161.444, 0.6460570
1161.926, 0.4323730
1162.408, 1.231018
1162.891, 0.7448120
1163.373, 1.544922
1163.855, 3.784790
1164.337, 3.784912
1164.819, 2.524414
1165.301, 1.397339
1165.783, 0.5216670
1166.265, 0.1979980
1166.747, 0.6500240
1167.229, 1.237793
1167.712, 2.258484
1168.194, 3.009155
1168.676, 1.971680
1169.158, 5.9204001E-02
1169.640, 0.7534180
1170.122, 0.2333370
1170.604, 0.3242190
1171.086, 0.7091060
1171.569, 0.7930910
1172.051, 0.5449220
1172.533, 3.0823000E-02
1173.015, 0.5209350
1173.497, 1.093323
1173.979, 1.873291
1174.461, 2.975281
1174.943, 3.759827
1175.426, 3.730286
1175.908, 3.587402
1176.390, 3.576172
1176.872, 3.667603
1177.354, 3.855347
1177.836, 4.073120
1178.318, 4.046692
1178.800, 3.567322
1179.282, 3.228271
1179.765, 2.992615
1180.247, 3.366821
1180.729, 5.184692
1181.211, 7.860535
1181.693, 7.558716
1182.175, 4.816589
1182.657, 2.423462
1183.139, 1.171997
1183.621, 1.095215
1184.104, 3.466492
1184.586, 5.978516
1185.068, 6.703430
1185.550, 5.746948
1186.032, 5.253784
1186.514, 5.137817
1186.996, 4.686890
1187.478, 2.446777
1187.961, 1.042847
1188.443, 2.858337
1188.925, 5.408081
1189.407, 5.896057
1189.889, 4.232605
1190.371, 3.680481
1190.853, 4.224121
1191.335, 4.482605
1191.818, 2.908386
1192.300, 1.526245
1192.782, 1.499390
1193.264, 2.401611
1193.746, 3.810303
1194.228, 5.773499
1194.710, 6.875000
1195.192, 7.026123
1195.674, 6.880432
1196.156, 6.858582
1196.639, 6.737366
1197.121, 6.116638
1197.603, 5.388367
1198.085, 5.495789
1198.567, 6.508240
1199.049, 6.918823
1199.531, 6.564392
1200.013, 6.064758
1200.496, 5.723816
1200.978, 5.598755
1201.460, 5.991760
1201.942, 6.598083
1202.424, 6.556091
1202.906, 5.846130
1203.388, 4.615906
1203.870, 2.832764
1204.353, 1.713928
1204.835, 3.055481
1205.317, 4.838013
1205.799, 5.283691
1206.281, 6.063843
1206.763, 6.612244
1207.245, 6.084717
1207.727, 6.336487
1208.209, 5.554749
1208.692, 4.892212
1209.174, 5.618652
1209.656, 6.504883
1210.138, 6.254333
1210.620, 5.120667
1211.102, 4.929138
1211.584, 5.721375
1212.066, 6.410706
1212.548, 6.672974
1213.031, 6.928833
1213.513, 7.850586
1213.995, 8.692383
1214.477, 8.490295
1214.959, 7.441040
1215.441, 7.785278
1215.923, 9.599609
1216.405, 10.28003
1216.888, 8.599915
1217.370, 6.686035
1217.852, 5.668152
1218.334, 5.820862
1218.816, 8.118652
1219.298, 12.30115
1219.780, 12.76715
1220.262, 9.580322
1220.745, 7.625183
1221.227, 9.196655
1221.709, 11.49341
1222.191, 12.93384
1222.673, 13.57257
1223.155, 13.28229
1223.637, 12.10388
1224.119, 11.67725
1224.601, 11.89545
1225.083, 12.24866
1225.566, 12.61560
1226.048, 12.79742
1226.530, 12.79095
1227.012, 12.65686
1227.494, 12.27197
1227.976, 11.58612
1228.458, 11.22565
1228.940, 11.17389
1229.423, 11.05084
1229.905, 10.62775
1230.387, 10.20935
1230.869, 9.527954
1231.351, 9.280823
1231.833, 10.45660
1232.315, 13.03265
1232.797, 13.47241
1233.280, 11.98535
1233.762, 10.63147
1234.244, 10.54156
1234.726, 10.79492
1235.208, 11.41193
1235.690, 11.78168
1236.172, 11.06451
1236.654, 9.347412
1237.136, 9.351868
1237.619, 10.77466
1238.101, 11.36151
1238.583, 8.546265
1239.065, 6.355164
1239.547, 6.884155
1240.029, 8.245117
1240.511, 8.805542
1240.993, 8.715820
1241.475, 8.975708
1241.958, 9.585999
1242.440, 9.921875
1242.922, 8.990540
1243.404, 8.668152
1243.886, 10.06976
1244.368, 11.52142
1244.850, 11.01776
1245.332, 9.113770
1245.815, 8.396729
1246.297, 8.826721
1246.779, 9.532166
1247.261, 10.81671
1247.743, 11.23456
1248.225, 10.11963
1248.707, 8.732239
1249.189, 8.645264
1249.672, 9.423340
1250.154, 9.557312
1250.636, 9.117859
1251.118, 8.687805
1251.600, 8.428406
1252.082, 8.398621
1252.564, 8.822144
1253.046, 8.977844
1253.528, 7.631287
1254.010, 5.729126
1254.493, 5.388855
1254.975, 6.263306
1255.457, 6.578674
1255.939, 5.032166
1256.421, 4.167969
1256.903, 4.268616
1257.385, 4.825806
1257.867, 5.486450
1258.350, 6.169128
1258.832, 6.939575
1259.314, 7.656799
1259.796, 7.711121
1260.278, 6.618164
1260.760, 6.108032
1261.242, 6.391113
1261.724, 7.032532
1262.207, 8.100098
1262.689, 8.952576
1263.171, 8.751343
1263.653, 7.696045
1264.135, 6.577759
1264.617, 5.291199
1265.099, 4.708557
1265.581, 4.964905
1266.063, 5.377625
1266.546, 5.390442
1267.028, 5.269531
1267.510, 4.863892
1267.992, 4.606140
1268.474, 5.671265
1268.956, 8.221191
1269.438, 10.09222
1269.920, 11.10754
1270.402, 11.31415
1270.885, 9.840454
1271.367, 8.504578
1271.849, 9.229614
1272.331, 10.39520
1272.813, 8.784546
1273.295, 4.725464
1273.777, 3.430542
1274.259, 5.186951
1274.742, 6.888489
1275.224, 6.159180
1275.706, 5.659424
1276.188, 6.873230
1276.670, 5.827087
1277.152, 7.540100
1277.634, 5.146790
1278.116, 3.818542
1278.599, 3.671143
1279.081, 3.943115
1279.563, 5.504700
1280.045, 5.583618
1280.527, 3.068237
1281.009, 2.2095000E-02
1281.491, 0.8721310
1281.973, 0.3324580
1282.455, 0.1707760
1282.938, 0.5882570
1283.420, 1.321838
1283.902, 2.974915
1284.384, 3.942017
1284.866, 3.920227
1285.348, 3.518311
1285.830, 3.173035
1286.312, 2.991821
1286.794, 3.175659
1287.277, 3.665588
1287.759, 4.290283
1288.241, 5.392395
1288.723, 5.070251
1289.205, 2.913574
1289.687, 0.8688960
1290.169, 0.5518190
1290.651, 1.173889
1291.134, 2.634521
1291.616, 4.337891
1292.098, 4.747986
1292.580, 3.722839
1293.062, 2.967529
1293.544, 2.327881
1294.026, 2.280334
1294.508, 2.485596
1294.990, 2.954163
1295.473, 4.190430
1295.955, 5.396362
1296.437, 5.419922
1296.919, 4.375366
1297.401, 2.652466
1297.883, 0.4267580
1298.365, 0.5150760
1298.847, 1.974854
1299.329, 3.864441
1299.812, 3.928101
1300.294, 3.206543
1300.776, 2.799988
1301.258, 2.687378
1301.740, 1.722778
1302.222, 2.029663
1302.704, 2.005493
1303.186, 0.4153440
1303.669, 1.2820000E-03
1304.151, 0.4182740
1304.633, 0.0000000E+00
##END=



