##NAMES=Dufrenoysite
##RRUFFID=R070579
##IDEAL CHEMISTRY=Pb_2_As_2_S_5_
##LOCALITY=Lengenbach Quarry, Imfeld, Binnental, Valais, Switzerland
##OWNER=RRUFF
##SOURCE=James Shigley
##DESCRIPTION=Lead gray metallic prismatic crystals associated with pyrite and dolomite
##STATUS=The identification of this mineral has been confirmed by X-ray diffraction and chemical analysis
##URL=rruff.info/R070579
##MEASURED CHEMISTRY=(Pb_1.71_Tl_0.08_Sb_0.04_Ag_0.03_)_Î£1.86_As_2.05_S_5.00
121.8000, 0.0000000E+00
122.2821, 64.51953
122.7642, 3.125000
123.2464, 16.51172
123.7285, 28.94141
124.2106, 87.67578
124.6927, 126.4180
125.1748, 152.6055
125.6569, 212.7695
126.1391, 339.6250
126.6212, 481.5078
127.1033, 583.6445
127.5854, 636.2227
128.0675, 680.0430
128.5496, 731.7734
129.0318, 794.6367
129.5139, 886.5625
129.9960, 1041.059
130.4781, 1237.133
130.9602, 1393.578
131.4423, 1463.297
131.9245, 1541.973
132.4066, 1695.828
132.8887, 1910.543
133.3708, 2127.445
133.8529, 2287.848
134.3350, 2380.336
134.8172, 2500.941
135.2993, 2674.230
135.7814, 2868.398
136.2635, 3078.152
136.7456, 3304.203
137.2277, 3541.875
137.7099, 3788.703
138.1920, 4075.422
138.6741, 4307.047
139.1562, 4447.031
139.6383, 4548.531
140.1205, 4647.633
140.6026, 4758.516
141.0847, 4880.340
141.5668, 5022.980
142.0489, 5230.977
142.5310, 5414.242
143.0132, 5565.727
143.4953, 5686.574
143.9774, 5780.277
144.4595, 5849.289
144.9416, 5892.895
145.4237, 5899.793
145.9059, 5860.715
146.3880, 5804.828
146.8701, 5727.344
147.3522, 5637.273
147.8343, 5572.992
148.3164, 5586.617
148.7986, 5684.334
149.2807, 5722.398
149.7628, 5665.178
150.2449, 5578.691
150.7270, 5519.844
151.2091, 5479.285
151.6913, 5479.619
152.1734, 5585.785
152.6555, 5788.061
153.1376, 5997.418
153.6197, 6151.293
154.1018, 6263.188
154.5840, 6392.619
155.0661, 6566.502
155.5482, 6718.984
156.0303, 6777.564
156.5124, 6748.594
156.9945, 6725.609
157.4767, 6762.361
157.9588, 6847.273
158.4409, 6891.498
158.9230, 6855.125
159.4051, 6761.508
159.8872, 6638.857
160.3694, 6518.184
160.8515, 6398.928
161.3336, 6280.061
161.8157, 6167.775
162.2978, 6055.285
162.7799, 5945.617
163.2621, 5832.744
163.7442, 5713.170
164.2263, 5585.408
164.7084, 5449.207
165.1905, 5299.658
165.6726, 5116.721
166.1548, 4953.992
166.6369, 4827.031
167.1190, 4719.094
167.6011, 4617.953
168.0832, 4518.062
168.5653, 4414.049
169.0475, 4276.594
169.5296, 4065.061
170.0117, 3861.100
170.4938, 3681.289
170.9759, 3517.666
171.4580, 3353.926
171.9402, 3176.945
172.4223, 2987.684
172.9044, 2821.305
173.3865, 2724.207
173.8686, 2601.219
174.3507, 2394.025
174.8329, 2118.109
175.3150, 1839.766
175.7971, 1610.885
176.2792, 1437.492
176.7613, 1268.965
177.2434, 1117.520
177.7256, 961.1094
178.2077, 775.7891
178.6898, 560.7148
179.1719, 344.1895
179.6540, 209.2988
180.1361, 98.55469
180.6183, 4.591797
181.1004, 56.90820
181.5825, 106.9160
182.0646, 171.2598
182.5467, 254.5449
183.0289, 348.5078
183.5110, 449.8125
183.9931, 557.8418
184.4752, 654.8301
184.9573, 737.8809
185.4394, 805.8145
185.9216, 855.0273
186.4037, 880.3125
186.8858, 891.4492
187.3679, 902.2109
187.8500, 912.6973
188.3321, 912.8613
188.8143, 894.1699
189.2964, 858.1562
189.7785, 816.2656
190.2606, 760.5918
190.7427, 709.5273
191.2248, 683.7168
191.7070, 684.8438
192.1891, 682.6699
192.6712, 643.8008
193.1533, 563.7383
193.6354, 490.8477
194.1175, 450.5469
194.5997, 411.6562
195.0818, 356.7188
195.5639, 281.9570
196.0460, 192.3008
196.5281, 93.42188
197.0102, 15.85742
197.4924, 132.7578
197.9745, 244.6680
198.4566, 369.2148
198.9387, 525.4531
199.4208, 721.0566
199.9029, 935.3711
200.3851, 1127.240
200.8672, 1271.340
201.3493, 1440.676
201.8314, 1653.375
202.3135, 1887.855
202.7956, 2127.395
203.2778, 2364.221
203.7599, 2597.055
204.2420, 2823.562
204.7241, 3031.576
205.2062, 3248.328
205.6883, 3469.652
206.1705, 3701.908
206.6526, 3955.074
207.1347, 4234.088
207.6168, 4534.289
208.0989, 4837.473
208.5810, 5175.393
209.0632, 5479.645
209.5453, 5716.248
210.0274, 5914.812
210.5095, 6121.188
210.9916, 6363.416
211.4737, 6638.551
211.9559, 6919.416
212.4380, 7228.273
212.9201, 7520.393
213.4022, 7791.449
213.8843, 8037.572
214.3664, 8244.727
214.8486, 8398.346
215.3307, 8502.379
215.8128, 8653.875
216.2949, 8885.656
216.7770, 9120.836
217.2591, 9341.773
217.7413, 9542.900
218.2234, 9715.766
218.7055, 9855.051
219.1876, 9958.039
219.6697, 10032.90
220.1518, 10062.26
220.6340, 10082.19
221.1161, 10119.69
221.5982, 10170.89
222.0803, 10205.97
222.5624, 10200.64
223.0446, 10152.94
223.5267, 10101.96
224.0088, 10034.97
224.4909, 9974.227
224.9730, 9948.324
225.4551, 9955.992
225.9373, 9950.922
226.4194, 9891.410
226.9015, 9780.301
227.3836, 9675.926
227.8657, 9589.766
228.3478, 9506.455
228.8300, 9414.424
229.3121, 9312.871
229.7942, 9197.732
230.2763, 9051.789
230.7584, 8885.162
231.2405, 8749.377
231.7227, 8677.363
232.2048, 8627.406
232.6869, 8542.270
233.1690, 8410.617
233.6511, 8287.180
234.1332, 8232.527
234.6154, 8225.059
235.0975, 8204.711
235.5796, 8140.484
236.0617, 8058.584
236.5438, 8001.404
237.0259, 7975.930
237.5081, 7951.488
237.9902, 7899.502
238.4723, 7829.613
238.9544, 7765.949
239.4365, 7718.576
239.9186, 7681.656
240.4008, 7640.264
240.8829, 7584.494
241.3650, 7546.891
241.8471, 7580.516
242.3292, 7652.076
242.8113, 7683.670
243.2935, 7612.500
243.7756, 7483.629
244.2577, 7407.195
244.7398, 7406.365
245.2219, 7416.750
245.7040, 7396.941
246.1862, 7357.812
246.6683, 7320.398
247.1504, 7288.043
247.6325, 7265.783
248.1146, 7274.588
248.5967, 7334.250
249.0789, 7384.283
249.5610, 7376.113
250.0431, 7333.035
250.5252, 7305.848
251.0073, 7327.422
251.4894, 7386.371
251.9716, 7452.035
252.4537, 7556.520
252.9358, 7609.770
253.4179, 7541.098
253.9000, 7399.846
254.3821, 7279.158
254.8643, 7237.387
255.3464, 7255.820
255.8285, 7261.957
256.3106, 7243.693
256.7927, 7230.537
257.2748, 7265.221
257.7570, 7313.342
258.2391, 7307.756
258.7212, 7186.492
259.2033, 6982.521
259.6854, 6832.668
260.1675, 6782.502
260.6497, 6715.234
261.1318, 6585.916
261.6139, 6409.691
262.0960, 6208.641
262.5781, 5982.580
263.0602, 5743.902
263.5424, 5554.936
264.0245, 5446.775
264.5066, 5341.822
264.9887, 5226.123
265.4708, 5091.727
265.9529, 4922.770
266.4351, 4695.641
266.9172, 4433.895
267.3993, 4230.736
267.8814, 4136.768
268.3635, 4022.449
268.8456, 3818.420
269.3278, 3576.242
269.8099, 3370.678
270.2920, 3246.689
270.7741, 3181.055
271.2562, 3099.420
271.7383, 2996.326
272.2205, 2884.109
272.7026, 2739.248
273.1847, 2596.488
273.6668, 2504.711
274.1489, 2494.482
274.6310, 2540.730
275.1132, 2572.205
275.5953, 2576.641
276.0774, 2587.266
276.5595, 2604.332
277.0416, 2634.090
277.5237, 2686.580
278.0059, 2768.855
278.4880, 2869.223
278.9701, 2953.367
279.4522, 2983.904
279.9343, 3073.934
280.4164, 3273.234
280.8986, 3524.650
281.3807, 3775.225
281.8628, 4003.361
282.3449, 4218.793
282.8270, 4437.469
283.3091, 4648.898
283.7913, 4888.393
284.2734, 5178.303
284.7555, 5488.627
285.2376, 5795.299
285.7198, 6089.588
286.2019, 6380.492
286.6840, 6687.426
287.1661, 7031.941
287.6482, 7340.410
288.1303, 7590.971
288.6125, 7810.299
289.0946, 8015.043
289.5767, 8210.295
290.0588, 8397.373
290.5409, 8583.717
291.0230, 8777.340
291.5052, 8941.875
291.9873, 9082.727
292.4694, 9187.566
292.9515, 9240.615
293.4336, 9240.225
293.9157, 9205.617
294.3979, 9157.291
294.8800, 9094.973
295.3621, 9021.449
295.8442, 8954.742
296.3263, 8863.361
296.8084, 8724.299
297.2906, 8537.367
297.7727, 8323.027
298.2548, 8108.316
298.7369, 7901.248
299.2190, 7637.066
299.7011, 7252.719
300.1833, 6856.018
300.6654, 6499.729
301.1475, 6182.102
301.6296, 5872.508
302.1117, 5545.891
302.5938, 5202.963
303.0760, 4842.148
303.5581, 4409.160
304.0402, 4015.648
304.5223, 3726.098
305.0044, 3522.477
305.4865, 3337.391
305.9687, 3114.084
306.4508, 2859.635
306.9329, 2652.121
307.4150, 2499.600
307.8971, 2389.752
308.3792, 2320.029
308.8614, 2281.947
309.3435, 2258.693
309.8256, 2235.559
310.3077, 2220.176
310.7898, 2244.369
311.2719, 2323.764
311.7541, 2416.023
312.2362, 2502.953
312.7183, 2588.066
313.2004, 2677.016
313.6825, 2773.875
314.1646, 2874.799
314.6468, 2966.055
315.1289, 3034.926
315.6110, 3130.082
316.0931, 3291.957
316.5752, 3484.238
317.0573, 3669.131
317.5395, 3834.992
318.0216, 3987.631
318.5037, 4130.953
318.9858, 4262.213
319.4679, 4400.182
319.9500, 4559.770
320.4322, 4726.594
320.9143, 4887.514
321.3964, 5039.268
321.8785, 5186.387
322.3606, 5344.746
322.8427, 5514.309
323.3249, 5641.666
323.8070, 5698.086
324.2891, 5710.730
324.7712, 5708.479
325.2533, 5691.535
325.7354, 5666.871
326.2176, 5640.102
326.6997, 5609.809
327.1818, 5569.023
327.6639, 5507.213
328.1460, 5445.449
328.6281, 5404.740
329.1103, 5384.854
329.5924, 5370.768
330.0745, 5359.973
330.5566, 5349.117
331.0387, 5330.258
331.5208, 5303.779
332.0030, 5266.467
332.4851, 5203.514
332.9672, 5120.918
333.4493, 5056.584
333.9314, 5038.473
334.4135, 5038.869
334.8957, 5019.250
335.3778, 4978.508
335.8599, 4937.025
336.3420, 4914.727
336.8241, 4906.340
337.3062, 4891.438
337.7884, 4878.500
338.2705, 4851.281
338.7526, 4779.963
339.2347, 4669.037
339.7168, 4576.008
340.1989, 4541.945
340.6811, 4555.678
341.1632, 4556.820
341.6453, 4528.453
342.1274, 4505.410
342.6095, 4494.938
343.0916, 4501.562
343.5738, 4536.748
344.0559, 4600.902
344.5380, 4698.637
345.0201, 4857.555
345.5022, 5091.176
345.9843, 5349.553
346.4665, 5611.379
346.9486, 5890.451
347.4307, 6206.867
347.9128, 6566.355
348.3949, 6969.490
348.8770, 7417.781
349.3592, 7921.703
349.8413, 8460.691
350.3234, 9044.373
350.8055, 9652.699
351.2876, 10257.03
351.7697, 10855.15
352.2519, 11494.33
352.7340, 12233.58
353.2161, 13107.71
353.6982, 13953.55
354.1803, 14746.02
354.6624, 15537.85
355.1446, 16360.16
355.6267, 17207.83
356.1088, 18054.03
356.5909, 18877.32
357.0730, 19677.49
357.5551, 20468.56
358.0373, 21217.49
358.5194, 21996.03
359.0015, 22851.99
359.4836, 23748.28
359.9657, 24614.22
360.4478, 25417.27
360.9300, 26160.99
361.4121, 26879.04
361.8942, 27557.83
362.3763, 28220.15
362.8584, 28898.66
363.3405, 29554.15
363.8227, 30161.58
364.3048, 30711.27
364.7869, 31181.56
365.2690, 31535.13
365.7511, 31771.62
366.2333, 31884.10
366.7154, 31839.34
367.1975, 31705.73
367.6796, 31516.46
368.1617, 31278.45
368.6439, 30991.97
369.1260, 30658.03
369.6081, 30279.26
370.0902, 29839.65
370.5723, 29289.98
371.0544, 28725.18
371.5366, 28191.44
372.0187, 27685.29
372.5008, 27178.28
372.9829, 26632.36
373.4650, 26068.53
373.9471, 25596.36
374.4293, 25283.56
374.9114, 24919.26
375.3935, 24363.24
375.8756, 23688.62
376.3577, 23007.95
376.8398, 22375.85
377.3220, 21735.02
377.8041, 21022.35
378.2862, 20240.79
378.7683, 19366.81
379.2504, 18360.23
379.7325, 17268.65
380.2147, 16168.69
380.6968, 15063.31
381.1789, 13953.31
381.6610, 12820.69
382.1431, 11677.55
382.6252, 10576.56
383.1074, 9520.891
383.5895, 8526.171
384.0716, 7600.432
384.5537, 6742.758
385.0358, 5945.415
385.5179, 5213.723
386.0001, 4543.199
386.4822, 3926.620
386.9643, 3361.859
387.4464, 2847.346
387.9285, 2382.904
388.4106, 1972.539
388.8928, 1602.447
389.3749, 1272.301
389.8570, 979.2861
390.3391, 726.3623
390.8212, 509.0244
391.3033, 317.5103
391.7855, 145.0986
392.2676, 8.576172
392.7497, 136.9878
393.2318, 235.4448
393.7139, 317.0273
394.1960, 375.5366
394.6782, 422.5703
395.1603, 471.3154
395.6424, 527.6392
396.1245, 584.6040
396.6066, 631.1045
397.0887, 666.2729
397.5709, 689.5747
398.0530, 695.7002
398.5351, 695.9575
399.0172, 697.9678
399.4993, 702.2461
399.9814, 705.3608
400.4636, 705.4277
400.9457, 703.0869
401.4278, 687.7588
401.9099, 642.1367
402.3920, 600.6772
402.8741, 579.8818
403.3563, 571.3379
403.8384, 558.4995
404.3205, 531.6123
404.8026, 494.3804
405.2847, 455.4126
405.7668, 411.7559
406.2490, 374.1230
406.7311, 355.2593
407.2132, 340.0430
407.6953, 311.9375
408.1774, 266.1118
408.6595, 214.4497
409.1417, 169.0459
409.6238, 129.3938
410.1059, 87.81738
410.5880, 38.95264
411.0701, 7.888916
411.5522, 39.84180
412.0344, 57.35571
412.5165, 80.92212
412.9986, 121.7554
413.4807, 173.4255
413.9628, 228.0095
414.4449, 285.4065
414.9271, 338.5703
415.4092, 379.4580
415.8913, 409.6543
416.3734, 445.0847
416.8555, 491.5984
417.3376, 539.2058
417.8198, 580.3245
418.3019, 617.1853
418.7840, 657.1418
419.2661, 704.1858
419.7482, 756.2747
420.2303, 807.5452
420.7125, 865.1147
421.1946, 911.9871
421.6767, 935.5396
422.1588, 952.7126
422.6409, 982.0293
423.1230, 1027.706
423.6052, 1081.199
424.0873, 1132.490
424.5694, 1182.934
425.0515, 1226.051
425.5336, 1253.814
426.0157, 1282.814
426.4979, 1321.717
426.9800, 1368.244
427.4621, 1414.941
427.9442, 1456.641
428.4263, 1494.223
428.9084, 1532.113
429.3906, 1571.144
429.8727, 1609.040
430.3548, 1644.731
430.8369, 1679.218
431.3190, 1712.393
431.8011, 1743.903
432.2833, 1778.073
432.7654, 1823.275
433.2475, 1880.357
433.7296, 1930.428
434.2117, 1969.161
434.6938, 2000.223
435.1760, 2023.739
435.6581, 2040.970
436.1402, 2062.655
436.6223, 2099.713
437.1044, 2143.455
437.5865, 2175.324
438.0687, 2192.344
438.5508, 2210.349
439.0329, 2242.706
439.5150, 2285.161
439.9971, 2320.453
440.4792, 2341.106
440.9614, 2360.980
441.4435, 2388.456
441.9256, 2421.177
442.4077, 2453.136
442.8898, 2481.828
443.3719, 2508.581
443.8541, 2536.010
444.3362, 2564.724
444.8183, 2592.915
445.3004, 2623.436
445.7825, 2651.353
446.2646, 2668.706
446.7468, 2677.020
447.2289, 2688.632
447.7110, 2715.980
448.1931, 2759.771
448.6753, 2797.397
449.1574, 2828.743
449.6395, 2853.966
450.1216, 2867.276
450.6037, 2872.029
451.0858, 2877.645
451.5680, 2889.134
452.0501, 2900.605
452.5322, 2897.273
453.0143, 2873.266
453.4964, 2851.284
453.9785, 2844.110
454.4607, 2834.873
454.9428, 2814.215
455.4249, 2782.061
455.9070, 2743.643
456.3891, 2700.614
456.8712, 2654.022
457.3534, 2605.802
457.8355, 2553.424
458.3176, 2507.292
458.7997, 2482.832
459.2818, 2471.004
459.7639, 2451.489
460.2461, 2417.856
460.7282, 2376.101
461.2103, 2329.909
461.6924, 2279.525
462.1745, 2224.010
462.6566, 2161.363
463.1388, 2098.375
463.6209, 2048.776
464.1030, 2014.912
464.5851, 1983.964
465.0672, 1956.499
465.5493, 1930.853
466.0315, 1909.244
466.5136, 1890.257
466.9957, 1864.826
467.4778, 1822.710
467.9599, 1764.093
468.4420, 1722.218
468.9242, 1710.596
469.4063, 1700.046
469.8884, 1687.234
470.3705, 1670.351
470.8526, 1646.505
471.3347, 1614.616
471.8169, 1580.866
472.2990, 1555.656
472.7811, 1539.837
473.2632, 1526.926
473.7453, 1520.120
474.2274, 1511.828
474.7096, 1496.463
475.1917, 1475.266
475.6738, 1455.294
476.1559, 1441.315
476.6380, 1431.272
477.1201, 1420.808
477.6023, 1409.871
478.0844, 1399.565
478.5665, 1390.004
479.0486, 1381.692
479.5307, 1375.990
480.0128, 1375.554
480.4950, 1373.200
480.9771, 1366.461
481.4592, 1355.431
481.9413, 1337.687
482.4234, 1312.061
482.9055, 1286.428
483.3877, 1270.943
483.8698, 1268.937
484.3519, 1263.751
484.8340, 1251.370
485.3161, 1239.829
485.7982, 1236.181
486.2804, 1237.046
486.7625, 1232.692
487.2446, 1216.572
487.7267, 1193.719
488.2088, 1182.388
488.6909, 1194.955
489.1731, 1196.457
489.6552, 1172.059
490.1373, 1143.901
490.6194, 1131.504
491.1015, 1136.177
491.5836, 1141.309
492.0658, 1129.296
492.5479, 1102.982
493.0300, 1084.308
493.5121, 1076.552
493.9942, 1071.040
494.4763, 1063.968
494.9585, 1055.501
495.4406, 1045.348
495.9227, 1032.035
496.4048, 1018.915
496.8869, 1010.069
497.3690, 1004.045
497.8512, 994.9582
498.3333, 980.3057
498.8154, 963.5940
499.2975, 949.5942
499.7796, 938.5095
500.2617, 929.8755
500.7439, 927.9700
501.2260, 924.9877
501.7081, 914.8851
502.1902, 898.5875
502.6723, 880.5791
503.1544, 863.7280
503.6366, 847.5596
504.1187, 829.6712
504.6008, 800.5526
505.0829, 784.9996
505.5650, 799.7682
506.0471, 818.9565
506.5293, 819.5909
507.0114, 798.6720
507.4935, 771.4795
507.9756, 752.1917
508.4577, 740.0950
508.9398, 726.4846
509.4220, 709.4221
509.9041, 694.5277
510.3862, 687.4189
510.8683, 683.9617
511.3504, 677.2345
511.8326, 664.4862
512.3147, 650.2252
512.7968, 638.9429
513.2789, 629.3120
513.7610, 614.5951
514.2432, 590.8445
514.7253, 568.5466
515.2074, 563.8629
515.6895, 583.4296
516.1716, 589.4243
516.6537, 569.3906
517.1359, 546.0436
517.6180, 533.2529
518.1001, 528.9205
518.5822, 525.4421
519.0643, 518.7776
519.5464, 508.6022
520.0286, 492.8121
520.5107, 462.9739
520.9928, 443.6136
521.4749, 446.8008
521.9570, 452.3929
522.4391, 446.2417
522.9213, 427.8610
523.4034, 406.0114
523.8855, 383.9647
524.3676, 363.7231
524.8497, 355.4225
525.3318, 362.8883
525.8140, 368.7299
526.2961, 362.0165
526.7782, 349.3031
527.2603, 340.9561
527.7424, 338.9438
528.2245, 338.6759
528.7067, 340.2141
529.1888, 341.2024
529.6709, 336.1503
530.1530, 323.9253
530.6351, 310.6594
531.1172, 302.9819
531.5994, 301.6552
532.0815, 294.7333
532.5636, 272.8495
533.0457, 256.5763
533.5278, 258.2885
534.0099, 268.1941
534.4921, 271.9235
534.9742, 263.9818
535.4563, 249.5988
535.9384, 236.3901
536.4205, 224.5854
536.9026, 212.8976
537.3848, 197.4796
537.8669, 186.4225
538.3490, 187.6807
538.8311, 196.3922
539.3132, 199.4233
539.7953, 187.4034
540.2775, 171.0604
540.7596, 164.3457
541.2417, 166.7401
541.7238, 172.8962
542.2059, 184.3398
542.6880, 193.3762
543.1702, 184.0896
543.6523, 152.4421
544.1344, 130.1342
544.6165, 129.4354
545.0986, 133.8214
545.5807, 129.3990
546.0629, 118.0664
546.5450, 110.9926
547.0271, 115.7137
547.5092, 126.7683
547.9913, 126.1848
548.4734, 102.4563
548.9556, 88.85828
549.4377, 95.39990
549.9198, 105.3158
550.4019, 107.6737
550.8840, 102.1312
551.3661, 94.03821
551.8483, 85.43396
552.3304, 77.49023
552.8125, 74.22119
553.2946, 76.21631
553.7767, 78.69983
554.2589, 80.04431
554.7410, 80.77136
555.2231, 81.91260
555.7052, 84.14441
556.1873, 83.78101
556.6694, 77.32214
557.1516, 68.34155
557.6337, 61.60925
558.1158, 57.81128
558.5979, 55.06470
559.0800, 51.32117
559.5621, 46.68689
560.0443, 44.21216
560.5264, 43.42749
561.0085, 44.89758
561.4906, 53.22876
561.9727, 62.08105
562.4548, 64.63562
562.9370, 59.55872
563.4191, 52.08240
563.9012, 48.04651
564.3833, 47.28955
564.8654, 45.04529
565.3475, 39.90613
565.8297, 35.39880
566.3118, 34.07471
566.7939, 34.76599
567.2760, 35.94507
567.7581, 37.67798
568.2402, 39.30798
568.7224, 43.21777
569.2045, 45.72949
569.6866, 37.26917
570.1687, 16.54504
570.6508, 0.9152830
571.1329, 0.5462650
571.6151, 20.34546
572.0972, 28.35327
572.5793, 11.41858
573.0614, 8.3130002E-02
573.5435, 5.112183
574.0256, 16.61108
574.5078, 21.94055
574.9899, 17.90137
575.4720, 11.25049
575.9541, 9.713501
576.4362, 13.11255
576.9183, 16.03638
577.4005, 19.31213
577.8826, 20.55518
578.3647, 15.45227
578.8468, 7.849487
579.3289, 4.539307
579.8110, 8.649170
580.2932, 12.99646
580.7753, 12.47229
581.2574, 9.282837
581.7395, 8.044678
582.2216, 9.665527
582.7037, 10.92200
583.1859, 7.593384
583.6680, 0.8714600
584.1501, 2.529663
584.6322, 12.89697
585.1143, 22.39221
585.5964, 16.65649
586.0786, 4.755371
586.5607, 3.925171
587.0428, 6.699707
587.5249, 5.661743
588.0070, 0.9135740
588.4891, 6.906006
588.9713, 7.865967
589.4534, 2.475952
589.9355, 10.03589
590.4176, 2.959473
590.8997, 10.71558
591.3818, 18.23230
591.8640, 16.67603
592.3461, 13.44800
592.8282, 12.48633
593.3103, 11.48999
593.7924, 5.201050
594.2745, 6.471313
594.7567, 15.31226
595.2388, 13.70825
595.7209, 2.393188
596.2030, 5.910767
596.6851, 13.05042
597.1672, 14.51331
597.6494, 4.147949
598.1315, 8.854492
598.6136, 15.72400
599.0957, 15.14685
599.5778, 12.11047
600.0599, 10.45813
600.5421, 9.946289
601.0242, 8.626587
601.5063, 5.487671
601.9884, 6.986938
602.4705, 19.44617
602.9526, 36.90686
603.4348, 47.64832
603.9169, 50.94995
604.3990, 50.14160
604.8811, 41.60144
605.3632, 32.30164
605.8453, 32.16614
606.3275, 39.86816
606.8096, 43.59070
607.2917, 34.28687
607.7738, 16.13269
608.2559, 6.766724
608.7380, 10.68787
609.2202, 15.06287
609.7023, 20.70886
610.1844, 24.44373
610.6665, 22.00317
611.1486, 14.71863
611.6307, 9.943604
612.1129, 14.40356
612.5950, 22.55115
613.0771, 25.61804
613.5592, 23.75635
614.0413, 19.67896
614.5234, 13.19165
615.0056, 7.338867
615.4877, 7.857544
615.9698, 17.43018
616.4519, 23.09399
616.9340, 24.03870
617.4161, 21.18347
617.8983, 10.16919
618.3804, 3.692139
618.8625, 8.396240
619.3446, 1.907959
619.8267, 17.60913
620.3088, 21.09424
620.7910, 10.06812
621.2731, 3.204102
621.7552, 5.499634
622.2373, 7.651855
622.7194, 1.969604
623.2015, 8.115234
623.6837, 14.06079
624.1658, 11.96191
624.6479, 7.874146
625.1300, 4.374146
625.6121, 2.203491
626.0942, 4.665161
626.5764, 12.40625
627.0585, 18.46289
627.5406, 14.83496
628.0227, 1.173462
628.5048, 6.591553
628.9869, 1.467163
629.4691, 2.282349
629.9512, 0.4250490
630.4333, 2.990356
630.9154, 4.693481
631.3975, 3.591919
631.8796, 0.7136230
632.3618, 11.95935
632.8439, 26.38025
633.3260, 31.84021
633.8081, 27.28406
634.2902, 20.66162
634.7723, 14.30457
635.2545, 9.466919
635.7366, 9.627808
636.2187, 16.48523
636.7008, 22.38538
637.1829, 24.21558
637.6650, 26.39563
638.1472, 35.69458
638.6293, 48.32739
639.1114, 51.93005
639.5935, 38.63379
640.0756, 18.44116
640.5577, 14.35388
641.0399, 30.06970
641.5220, 42.87097
642.0041, 49.85901
642.4862, 52.71191
642.9683, 51.42157
643.4504, 47.22620
643.9326, 43.66296
644.4147, 39.81860
644.8968, 39.49701
645.3789, 50.53339
645.8610, 65.87769
646.3431, 69.09650
646.8253, 56.56537
647.3074, 40.81604
647.7895, 35.59827
648.2716, 41.27338
648.7537, 41.61938
649.2358, 27.69965
649.7180, 19.84857
650.2001, 26.76593
650.6822, 38.34631
651.1643, 44.01172
651.6464, 42.29181
652.1285, 41.20972
652.6107, 48.23761
653.0928, 59.63654
653.5749, 68.93097
654.0571, 75.76019
654.5392, 77.48114
655.0213, 71.44562
655.5034, 62.01324
655.9855, 57.64453
656.4677, 60.60980
656.9498, 63.92053
657.4319, 69.86725
657.9140, 74.01117
658.3961, 71.32324
658.8782, 65.46283
659.3604, 64.29279
659.8425, 71.51898
660.3246, 81.00372
660.8067, 84.00909
661.2888, 80.94043
661.7709, 76.82538
662.2531, 71.23218
662.7352, 68.16656
663.2173, 72.21362
663.6994, 80.52893
664.1815, 83.62122
664.6636, 77.76953
665.1458, 72.84369
665.6279, 72.84692
666.1100, 74.55084
666.5921, 73.43140
667.0742, 70.03003
667.5563, 69.88147
668.0385, 78.32587
668.5206, 91.46216
669.0027, 94.56738
669.4848, 84.38556
669.9669, 74.95001
670.4490, 69.77545
670.9312, 65.53748
671.4133, 58.03729
671.8954, 48.44080
672.3775, 43.63647
672.8596, 48.04443
673.3417, 55.17542
673.8239, 63.96729
674.3060, 71.34045
674.7881, 68.02301
675.2702, 52.32904
675.7523, 38.52344
676.2344, 44.16852
676.7166, 69.04315
677.1987, 79.24628
677.6808, 62.99384
678.1629, 50.32410
678.6450, 53.43817
679.1271, 61.26843
679.6093, 62.38983
680.0914, 55.62500
680.5735, 50.63092
681.0556, 55.99823
681.5377, 63.49402
682.0198, 62.26093
682.5020, 53.37256
682.9841, 43.32233
683.4662, 34.66681
683.9483, 28.08600
684.4304, 24.57306
684.9125, 24.43604
685.3947, 25.64886
685.8768, 31.98450
686.3589, 34.80768
686.8410, 27.52264
687.3231, 17.26593
687.8052, 14.50201
688.2874, 22.36633
688.7695, 32.19696
689.2516, 38.95667
689.7337, 42.52289
690.2158, 41.19958
690.6979, 35.01099
691.1801, 29.87976
691.6622, 29.65759
692.1443, 31.91833
692.6264, 30.59808
693.1085, 22.55225
693.5906, 17.21118
694.0728, 17.16095
694.5549, 17.34167
695.0370, 13.59454
695.5191, 8.457153
696.0012, 7.874512
696.4833, 15.07251
696.9655, 22.44696
697.4476, 20.07098
697.9297, 10.71674
698.4118, 4.781372
698.8939, 4.083374
699.3760, 6.592529
699.8582, 11.83264
700.3403, 18.95178
700.8224, 24.66754
701.3045, 31.14160
701.7866, 33.00830
702.2687, 24.54132
702.7509, 16.33679
703.2330, 16.29138
703.7151, 22.54517
704.1972, 29.08154
704.6793, 33.57599
705.1614, 35.19598
705.6436, 30.67627
706.1257, 21.69489
706.6078, 17.14032
707.0899, 18.61328
707.5720, 21.89423
708.0541, 23.85950
708.5363, 25.24188
709.0184, 30.45490
709.5005, 45.54846
709.9826, 55.67035
710.4647, 57.85675
710.9468, 55.93817
711.4290, 50.05353
711.9111, 42.56451
712.3932, 39.38019
712.8753, 44.84662
713.3574, 54.23163
713.8395, 61.20050
714.3217, 65.85229
714.8038, 67.77692
715.2859, 66.29816
715.7680, 65.03418
716.2501, 66.96735
716.7322, 72.01849
717.2144, 78.28546
717.6965, 89.11041
718.1786, 96.78290
718.6607, 98.28833
719.1428, 97.98157
719.6249, 100.1192
720.1071, 104.0006
720.5892, 104.8596
721.0713, 98.10645
721.5534, 89.87415
722.0355, 90.40784
722.5176, 98.60913
722.9998, 106.8489
723.4819, 114.2933
723.9640, 119.6364
724.4461, 120.2213
724.9282, 116.8624
725.4103, 121.0275
725.8925, 147.7237
726.3746, 161.6789
726.8567, 146.0178
727.3388, 125.7746
727.8209, 122.7546
728.3030, 135.0389
728.7852, 145.3682
729.2673, 142.9798
729.7494, 135.4601
730.2315, 133.5728
730.7136, 135.9835
731.1957, 134.7718
731.6779, 127.6110
732.1600, 123.2303
732.6421, 130.9645
733.1242, 148.9156
733.6063, 158.0786
734.0884, 150.6307
734.5706, 145.3712
735.0527, 145.8295
735.5348, 147.2258
736.0169, 145.3278
736.4990, 140.9496
736.9811, 138.1519
737.4633, 139.2665
737.9454, 142.2713
738.4275, 145.8630
738.9096, 149.4406
739.3917, 151.2430
739.8738, 150.9348
740.3560, 148.8164
740.8381, 144.4909
741.3202, 138.7955
741.8023, 137.5387
742.2844, 144.0302
742.7665, 149.4559
743.2487, 154.5609
743.7308, 157.2299
744.2129, 154.3074
744.6950, 147.2999
745.1771, 141.2637
745.6592, 138.8010
746.1414, 137.8470
746.6235, 137.6026
747.1056, 136.8600
747.5877, 132.5203
748.0698, 124.6665
748.5519, 118.0815
749.0341, 116.5399
749.5162, 118.4348
749.9983, 117.9574
750.4804, 114.3817
750.9625, 109.8016
751.4446, 101.6767
751.9268, 95.98450
752.4089, 98.26379
752.8910, 105.0031
753.3731, 107.7482
753.8552, 102.8625
754.3373, 98.80243
754.8195, 102.5743
755.3016, 107.2229
755.7837, 102.6156
756.2658, 90.16812
756.7479, 79.65479
757.2300, 76.97314
757.7122, 79.36978
758.1943, 82.27881
758.6764, 86.12289
759.1585, 84.65790
759.6406, 74.78238
760.1227, 64.20929
760.6049, 56.82620
761.0870, 52.61874
761.5691, 51.25015
762.0512, 54.37515
762.5333, 56.05182
763.0154, 53.73273
763.4976, 50.27582
763.9797, 48.43140
764.4618, 47.14871
764.9439, 42.92792
765.4260, 34.17148
765.9081, 25.56250
766.3903, 24.28995
766.8724, 28.92041
767.3545, 30.75876
767.8366, 28.87631
768.3187, 26.53986
768.8008, 25.41064
769.2830, 24.70657
769.7651, 22.98608
770.2472, 20.35242
770.7293, 16.13293
771.2114, 6.038574
771.6935, 0.8168030
772.1757, 2.678772
772.6578, 9.941132
773.1399, 10.90988
773.6220, 3.568787
774.1041, 2.286224
774.5862, 3.674316
775.0684, 14.08401
775.5505, 16.63446
776.0326, 12.25665
776.5147, 6.872375
776.9968, 2.403229
777.4789, 0.2617800
777.9611, 0.5793760
778.4432, 5.173584
778.9253, 5.558655
779.4074, 3.525879
779.8895, 8.072235
780.3716, 0.7625430
780.8538, 11.44452
781.3359, 12.98492
781.8180, 6.064911
782.3001, 1.884705
782.7822, 7.256226
783.2643, 13.37503
783.7465, 14.09595
784.2286, 11.83423
784.7107, 10.55695
785.1928, 10.84573
785.6749, 10.59164
786.1570, 7.864502
786.6392, 3.667480
787.1213, 0.9756160
787.6034, 0.1295170
788.0855, 0.2348630
788.5676, 1.212463
789.0497, 2.203644
789.5319, 0.1810000
790.0140, 3.831909
790.4961, 4.231567
790.9782, 2.830444
791.4603, 7.779205
791.9424, 7.336273
792.4246, 5.966492
792.9067, 6.918274
793.3888, 9.768433
793.8709, 12.79474
794.3530, 15.36691
794.8351, 16.65854
795.3173, 14.58005
795.7994, 10.77744
796.2815, 10.14453
796.7636, 12.90030
797.2457, 15.15506
797.7278, 14.76211
798.2100, 13.02545
798.6921, 12.69247
799.1742, 14.62299
799.6563, 14.46710
800.1384, 9.898010
800.6205, 6.324890
801.1027, 4.958496
801.5848, 5.904694
802.0669, 10.64996
802.5490, 19.55621
803.0311, 25.39505
803.5132, 22.08209
803.9954, 17.79462
804.4775, 19.84451
804.9596, 25.15427
805.4417, 27.62280
805.9238, 25.74857
806.4059, 22.25681
806.8881, 19.21533
807.3702, 16.92999
807.8523, 17.48914
808.3344, 21.29376
808.8165, 21.05566
809.2986, 13.08017
809.7808, 5.469147
810.2629, 6.665649
810.7450, 15.80859
811.2271, 21.49753
811.7092, 20.96954
812.1913, 21.04025
812.6735, 23.45508
813.1556, 25.79218
813.6377, 26.04849
814.1198, 24.76495
814.6019, 23.85153
815.0840, 24.29669
815.5662, 24.43311
816.0483, 21.61444
816.5304, 18.07349
817.0125, 17.82324
817.4946, 20.82791
817.9767, 25.15308
818.4589, 29.96188
818.9410, 33.79532
819.4232, 33.27264
819.9053, 27.69717
820.3874, 25.14154
820.8695, 27.04700
821.3516, 28.49591
821.8337, 26.52325
822.3159, 23.64133
822.7980, 24.31476
823.2801, 29.21576
823.7622, 31.03665
824.2443, 25.71964
824.7264, 21.04382
825.2086, 20.79810
825.6907, 22.59183
826.1728, 22.53296
826.6549, 20.76614
827.1370, 22.29672
827.6191, 34.09003
828.1013, 46.62265
828.5834, 43.53262
829.0655, 29.49371
829.5476, 21.01910
830.0297, 21.57584
830.5118, 24.57776
830.9940, 24.94656
831.4761, 23.23447
831.9582, 21.52164
832.4403, 19.84372
832.9224, 19.89230
833.4045, 22.15710
833.8867, 25.27548
834.3688, 30.27716
834.8509, 35.10388
835.3330, 35.35568
835.8151, 28.82971
836.2972, 24.53586
836.7794, 26.54449
837.2615, 29.05002
837.7436, 28.61554
838.2257, 26.84494
838.7078, 24.80334
839.1899, 22.95804
839.6721, 22.20248
840.1542, 24.34354
840.6363, 28.01001
841.1184, 30.61734
841.6005, 31.90903
842.0826, 30.13568
842.5648, 24.68625
843.0469, 19.20337
843.5290, 17.25381
844.0111, 18.55051
844.4932, 21.51224
844.9753, 27.54367
845.4575, 31.66098
845.9396, 32.44513
846.4217, 31.96155
846.9038, 31.26077
847.3859, 30.34326
847.8680, 29.21225
848.3502, 27.72964
848.8323, 27.03723
849.3144, 30.65216
849.7965, 31.78125
850.2786, 20.91782
850.7607, 4.813293
851.2429, 1.509491
851.7250, 7.240845
852.2071, 18.52731
852.6892, 20.96527
853.1713, 17.82947
853.6534, 15.20340
854.1356, 13.15833
854.6177, 10.74911
855.0998, 7.600952
855.5819, 4.792206
856.0640, 3.316956
856.5461, 3.316498
857.0283, 6.647247
857.5104, 14.80289
857.9925, 21.84927
858.4746, 27.82803
858.9567, 30.89539
859.4388, 27.51691
859.9210, 19.73196
860.4031, 15.49545
860.8852, 18.16162
861.3673, 19.30560
861.8494, 15.62088
862.3315, 11.66205
862.8137, 11.11575
863.2958, 12.52988
863.7779, 12.79224
864.2600, 10.55377
864.7421, 7.424377
865.2242, 3.919800
865.7064, 1.210327
866.1885, 1.754700
866.6706, 4.662048
867.1527, 6.438324
867.6348, 6.082581
868.1169, 6.235107
868.5991, 10.38654
869.0812, 17.27853
869.5633, 19.97290
870.0454, 17.71011
870.5275, 16.94922
871.0096, 20.07162
871.4918, 22.48486
871.9739, 19.85886
872.4560, 13.38312
872.9381, 9.042236
873.4202, 7.846222
873.9023, 7.332367
874.3845, 7.988342
874.8666, 8.906128
875.3487, 9.534515
875.8308, 9.896118
876.3129, 10.25787
876.7950, 10.65833
877.2772, 10.98669
877.7593, 10.59531
878.2414, 10.63138
878.7235, 12.99246
879.2056, 16.23627
879.6877, 17.38052
880.1699, 15.95483
880.6520, 14.34146
881.1341, 14.68781
881.6162, 15.83240
882.0983, 14.74426
882.5804, 11.86084
883.0626, 11.10480
883.5447, 13.31354
884.0268, 14.85199
884.5089, 13.03143
884.9910, 9.132294
885.4731, 6.399506
885.9553, 4.143829
886.4374, 5.979828
886.9195, 16.28488
887.4016, 23.08005
887.8837, 17.63870
888.3658, 7.632233
888.8480, 3.241516
889.3301, 4.998932
889.8122, 7.091766
890.2943, 10.36328
890.7764, 11.79141
891.2585, 7.489227
891.7407, 2.697601
892.2228, 3.774841
892.7049, 9.892883
893.1870, 14.34473
893.6691, 12.60687
894.1512, 10.82803
894.6334, 18.47794
895.1155, 27.97665
895.5976, 23.87125
896.0797, 8.339752
896.5618, 3.234528
897.0439, 3.561066
897.5261, 2.004395
898.0082, 7.026825
898.4903, 11.46442
898.9724, 14.32214
899.4545, 15.41937
899.9366, 15.85944
900.4188, 15.89230
900.9009, 15.64188
901.3830, 15.38501
901.8651, 15.05844
902.3472, 13.47858
902.8293, 8.894928
903.3115, 6.514069
903.7936, 9.112061
904.2757, 11.75986
904.7578, 10.65039
905.2399, 7.708557
905.7220, 7.807159
906.2042, 13.66656
906.6863, 15.34198
907.1684, 5.167511
907.6505, 4.369965
908.1326, 4.998413
908.6147, 0.6830440
909.0969, 3.277740
909.5790, 5.622162
910.0611, 6.585693
910.5432, 5.051514
911.0253, 3.426666
911.5074, 4.811951
911.9896, 7.824371
912.4717, 9.647095
912.9538, 10.02100
913.4359, 10.55566
913.9180, 12.51733
914.4001, 14.79513
914.8823, 14.37842
915.3644, 11.61017
915.8465, 10.44745
916.3286, 11.17822
916.8107, 12.96832
917.2928, 15.89740
917.7750, 18.13641
918.2571, 16.88345
918.7392, 12.01013
919.2213, 9.832092
919.7034, 13.19119
920.1855, 13.00079
920.6677, 3.222778
921.1498, 5.808167
921.6319, 5.058563
922.1140, 2.803131
922.5961, 9.856628
923.0782, 18.29932
923.5604, 20.88806
924.0425, 10.68307
924.5246, 0.7372130
925.0067, 2.105225
925.4888, 8.5479997E-02
925.9709, 3.934418
926.4531, 9.198639
926.9352, 13.21530
927.4173, 15.39365
927.8994, 15.09525
928.3815, 9.112549
928.8636, 1.678009
929.3458, 0.3356020
929.8279, 3.064056
930.3100, 7.439728
930.7921, 10.61899
931.2742, 11.55093
931.7563, 6.037018
932.2385, 2.352692
932.7206, 1.935699
933.2027, 6.780487
933.6848, 13.85471
934.1669, 15.32236
934.6490, 13.76422
935.1312, 11.91229
935.6133, 9.969147
936.0954, 10.14749
936.5775, 13.13068
937.0596, 13.02142
937.5417, 6.858826
938.0239, 2.289276
938.5060, 6.119812
938.9881, 15.12225
939.4702, 18.47537
939.9523, 13.23837
940.4344, 9.277893
940.9166, 7.495667
941.3987, 5.868286
941.8808, 3.723755
942.3629, 1.315094
942.8450, 2.119720
943.3271, 6.535934
943.8093, 6.643555
944.2914, 3.889862
944.7735, 11.78775
945.2556, 10.15085
945.7377, 6.314423
946.2198, 6.913605
946.7020, 10.72409
947.1841, 13.14117
947.6662, 12.63684
948.1483, 10.48053
948.6304, 4.948303
949.1125, 0.2705690
949.5947, 1.915802
950.0768, 7.426086
950.5589, 11.98294
951.0410, 14.21823
951.5231, 15.01027
952.0052, 15.00282
952.4874, 13.99411
952.9695, 10.19957
953.4516, 5.277664
953.9337, 5.840332
954.4158, 11.67282
954.8979, 14.09665
955.3801, 8.257248
955.8622, 3.8651001E-02
956.3443, 0.8273930
956.8264, 5.160172
957.3085, 7.725967
957.7906, 6.478668
958.2728, 7.397400
958.7549, 12.77744
959.2370, 18.51558
959.7191, 20.73483
960.2012, 20.04022
960.6833, 19.42744
961.1655, 19.21542
961.6476, 18.01689
962.1297, 14.78409
962.6118, 12.20889
963.0939, 11.32513
963.5760, 12.06212
964.0582, 15.24629
964.5403, 22.02286
965.0224, 23.90726
965.5045, 16.10872
965.9866, 9.641815
966.4688, 7.079346
966.9509, 6.609421
967.4330, 7.752106
967.9151, 9.774582
968.3972, 10.78290
968.8793, 9.820496
969.3615, 9.396149
969.8436, 12.92148
970.3257, 14.58554
970.8078, 7.669418
971.2899, 2.182953
971.7720, 6.589050
972.2542, 4.341141
972.7363, 0.2845760
973.2184, 6.888748
973.7005, 11.83658
974.1826, 11.05789
974.6647, 7.352448
975.1469, 2.950104
975.6290, 0.7288970
976.1111, 0.2173460
976.5932, 5.966827
977.0753, 12.21564
977.5574, 11.63924
978.0396, 7.726135
978.5217, 7.335327
979.0038, 9.293152
979.4859, 10.19615
979.9680, 9.396973
980.4501, 7.877335
980.9323, 6.342545
981.4144, 5.189743
981.8965, 5.252625
982.3786, 6.438614
982.8607, 8.753159
983.3429, 12.32083
983.8250, 13.56734
984.3071, 10.77748
984.7892, 6.860382
985.2714, 5.260559
985.7535, 5.761581
986.2356, 6.820587
986.7177, 8.687744
987.1998, 9.450211
987.6819, 8.471298
988.1641, 7.536377
988.6462, 7.765152
989.1283, 8.761063
989.6104, 9.531342
990.0925, 9.574036
990.5746, 11.81015
991.0568, 19.62042
991.5389, 23.39354
992.0210, 18.25447
992.5031, 10.67288
992.9852, 6.235245
993.4673, 4.440964
993.9495, 2.242477
994.4316, 1.882278
994.9137, 3.898941
995.3958, 4.716248
995.8779, 2.189743
996.3600, 9.222321
996.8422, 21.85443
997.3243, 25.15393
997.8064, 18.65816
998.2885, 13.24464
998.7706, 10.92648
999.2527, 10.51140
999.7349, 13.45837
1000.217, 16.75848
1000.699, 16.69324
1001.181, 14.70351
1001.663, 14.59517
1002.145, 17.89453
1002.628, 19.70973
1003.110, 16.36409
1003.592, 12.45715
1004.074, 10.19308
1004.556, 9.878189
1005.038, 13.53862
1005.520, 19.40988
1006.002, 21.09068
1006.484, 14.66597
1006.967, 8.302750
1007.449, 10.59795
1007.931, 15.11627
1008.413, 13.23427
1008.895, 7.590622
1009.377, 4.288498
1009.859, 4.933731
1010.341, 8.476120
1010.824, 15.77267
1011.306, 22.37065
1011.788, 21.64258
1012.270, 16.24649
1012.752, 10.28241
1013.234, 4.945572
1013.716, 3.166061
1014.198, 5.978271
1014.680, 9.511108
1015.163, 9.193588
1015.645, 6.618439
1016.127, 5.352341
1016.609, 5.229080
1017.091, 5.392075
1017.573, 5.776321
1018.055, 7.598434
1018.537, 11.68060
1019.020, 16.12619
1019.502, 17.97398
1019.984, 17.74411
1020.466, 19.89136
1020.948, 24.21347
1021.430, 24.29514
1021.912, 18.20700
1022.394, 12.61090
1022.876, 12.94603
1023.359, 16.77968
1023.841, 18.21036
1024.323, 17.19203
1024.805, 13.99916
1025.287, 7.925003
1025.769, 5.804184
1026.251, 11.22354
1026.733, 16.69307
1027.215, 13.52116
1027.698, 4.055038
1028.180, 1.670090
1028.662, 8.731323
1029.144, 10.49603
1029.626, 3.200516
1030.108, 1.169769
1030.590, 3.860779
1031.072, 12.82567
1031.555, 18.79596
1032.037, 21.74866
1032.519, 21.21637
1033.001, 14.93373
1033.483, 11.28186
1033.965, 13.34534
1034.447, 15.15309
1034.929, 11.95943
1035.411, 7.075165
1035.894, 7.393097
1036.376, 14.41437
1036.858, 17.43340
1037.340, 13.07632
1037.822, 10.69359
1038.304, 14.80095
1038.786, 18.28709
1039.268, 13.34892
1039.750, 4.344452
1040.233, 4.701630
1040.715, 21.24478
1041.197, 28.27669
1041.679, 16.17293
1042.161, 7.248749
1042.643, 10.66225
1043.125, 16.61047
1043.607, 15.48970
1044.090, 9.393936
1044.572, 8.327805
1045.054, 17.62521
1045.536, 22.17964
1046.018, 16.79532
1046.500, 11.26155
1046.982, 9.457108
1047.464, 9.461838
1047.947, 9.319260
1048.429, 8.947952
1048.911, 8.750641
1049.393, 9.904495
1049.875, 9.476959
1050.357, 4.735596
1050.839, 0.7528230
1051.321, 0.4938960
1051.803, 2.481232
1052.286, 5.302902
1052.768, 8.660553
1053.250, 9.712479
1053.732, 4.937439
1054.214, 2.356400
1054.696, 5.701782
1055.178, 9.912567
1055.660, 12.96278
1056.142, 13.90031
1056.625, 10.16718
1057.107, 1.401993
1057.589, 3.519348
1058.071, 1.506683
1058.553, 6.171112
1059.035, 4.938782
1059.517, 3.740463
1059.999, 9.264359
1060.482, 16.97348
1060.964, 17.28300
1061.446, 7.799438
1061.928, 3.6254998E-02
1062.410, 1.947937
1062.892, 1.328613
1063.374, 1.677155
1063.856, 5.519440
1064.339, 9.550125
1064.821, 13.13713
1065.303, 15.40259
1065.785, 15.71008
1066.267, 14.51862
1066.749, 11.07808
1067.231, 7.392944
1067.713, 3.220139
1068.195, 0.3929440
1068.678, 1.365036
1069.160, 5.283371
1069.642, 9.694733
1070.124, 14.29576
1070.606, 17.18723
1071.088, 17.07878
1071.570, 15.49323
1072.052, 11.21814
1072.535, 7.505615
1073.017, 9.944748
1073.499, 16.46303
1073.981, 18.31837
1074.463, 11.43330
1074.945, 4.491714
1075.427, 0.1258390
1075.909, 1.475128
1076.391, 1.452393
1076.874, 6.139328
1077.356, 9.245010
1077.838, 10.73338
1078.320, 12.84245
1078.802, 17.34789
1079.284, 19.54440
1079.766, 14.59140
1080.248, 9.342590
1080.730, 9.606293
1081.213, 11.84586
1081.695, 10.80254
1082.177, 6.621109
1082.659, 3.487488
1083.141, 2.750732
1083.623, 3.607422
1084.105, 7.836823
1084.587, 11.33429
1085.070, 9.581467
1085.552, 6.169388
1086.034, 6.614456
1086.516, 10.76686
1086.998, 13.41656
1087.480, 12.59625
1087.962, 10.25793
1088.444, 5.681931
1088.927, 2.002609
1089.409, 1.553986
1089.891, 3.365875
1090.373, 6.270035
1090.855, 9.981354
1091.337, 14.34018
1091.819, 21.18065
1092.301, 24.98874
1092.783, 21.24158
1093.266, 16.41150
1093.748, 14.95145
1094.230, 14.99237
1094.712, 13.29988
1095.194, 9.921356
1095.676, 8.141632
1096.158, 10.20572
1096.640, 11.68021
1097.122, 9.677032
1097.605, 8.236191
1098.087, 11.72231
1098.569, 16.16132
1099.051, 15.13179
1099.533, 8.994766
1100.015, 5.596420
1100.497, 9.173508
1100.979, 11.75290
1101.462, 10.56212
1101.944, 8.648483
1102.426, 6.369202
1102.908, 5.190598
1103.390, 7.547668
1103.872, 13.12231
1104.354, 17.67184
1104.836, 20.87428
1105.318, 22.15240
1105.801, 20.78493
1106.283, 18.27422
1106.765, 12.86356
1107.247, 8.339645
1107.729, 11.58904
1108.211, 21.44775
1108.693, 24.51538
1109.175, 13.21210
1109.657, 5.051025
1110.140, 2.875275
1110.622, 2.531464
1111.104, 3.303787
1111.586, 4.321838
1112.068, 4.542358
1112.550, 4.057831
1113.032, 3.955307
1113.514, 4.367737
1113.997, 4.992874
1114.479, 6.757980
1114.961, 7.495987
1115.443, 6.048630
1115.925, 3.556824
1116.407, 0.5802610
1116.889, 5.645401
1117.371, 6.644119
1117.854, 1.437561
1118.336, 3.239914
1118.818, 7.512634
1119.300, 10.89519
1119.782, 13.04231
1120.264, 14.40768
1120.746, 16.32549
1121.228, 18.00287
1121.710, 14.59511
1122.193, 2.701920
1122.675, 2.966217
1123.157, 0.6345370
1123.639, 3.805481
1124.121, 10.10710
1124.603, 14.00288
1125.085, 10.60867
1125.567, 2.804031
1126.049, 0.2225340
1126.532, 3.707764
1127.014, 7.879654
1127.496, 13.31613
1127.978, 15.78896
1128.460, 13.68318
1128.942, 9.924423
1129.424, 6.900497
1129.906, 4.694443
1130.389, 3.499878
1130.871, 3.316406
1131.353, 4.124268
1131.835, 6.068939
1132.317, 7.765289
1132.799, 8.783127
1133.281, 9.838989
1133.763, 11.39804
1134.245, 13.23061
1134.728, 14.25998
1135.210, 14.66803
1135.692, 16.08888
1136.174, 18.14311
1136.656, 17.73233
1137.138, 14.38809
1137.620, 9.957901
1138.102, 5.404099
1138.584, 1.637665
1139.067, 0.1844180
1139.549, 0.5694580
1140.031, 2.627487
1140.513, 5.367813
1140.995, 5.021667
1141.477, 1.804199
1141.959, 0.3044130
1142.441, 0.5448150
1142.924, 2.272888
1143.406, 2.964798
1143.888, 3.070541
1144.370, 2.723633
1144.852, 2.597061
1145.334, 4.402786
1145.816, 7.548569
1146.298, 10.12848
1146.781, 11.40698
1147.263, 10.88589
1147.745, 4.850281
1148.227, 0.8738250
1148.709, 10.39146
1149.191, 21.67561
1149.673, 18.01747
1150.155, 6.119324
1150.637, 3.362961
1151.120, 12.69016
1151.602, 19.61835
1152.084, 15.58713
1152.566, 10.24640
1153.048, 6.894760
1153.530, 5.544754
1154.012, 6.819092
1154.494, 9.717529
1154.976, 13.55467
1155.459, 17.83524
1155.941, 20.30061
1156.423, 20.87114
1156.905, 18.76427
1157.387, 10.27125
1157.869, 3.276993
1158.351, 2.176987
1158.833, 3.867950
1159.316, 5.918365
1159.798, 7.875839
1160.280, 7.938782
1160.762, 4.883087
1161.244, 2.576736
1161.726, 0.3576810
1162.208, 0.1672210
1162.690, 6.240921
1163.172, 13.30987
1163.655, 17.28217
1164.137, 18.27081
1164.619, 16.01909
1165.101, 9.651627
1165.583, 6.062912
1166.065, 5.204300
1166.547, 8.154694
1167.029, 16.74144
1167.511, 22.76079
1167.994, 20.67004
1168.476, 14.47110
1168.958, 10.29015
1169.440, 8.126389
1169.922, 8.219620
1170.404, 10.50377
1170.886, 12.51375
1171.368, 13.88107
1171.851, 13.12137
1172.333, 9.469452
1172.815, 6.741257
1173.297, 10.05992
1173.779, 15.86760
1174.261, 15.50885
1174.743, 10.52829
1175.225, 5.417435
1175.708, 1.586990
1176.190, 1.634598
1176.672, 5.739456
1177.154, 8.885330
1177.636, 6.921661
1178.118, 4.059296
1178.600, 4.866043
1179.082, 7.826538
1179.564, 12.21375
1180.047, 16.62277
1180.529, 18.52182
1181.011, 18.07968
1181.493, 16.40251
1181.975, 13.74535
1182.457, 10.65982
1182.939, 5.289841
1183.421, 2.108078
1183.903, 7.796432
1184.386, 14.24686
1184.868, 9.737076
1185.350, 0.9750820
1185.832, 2.125168
1186.314, 11.13914
1186.796, 19.68797
1187.278, 17.87260
1187.760, 13.70197
1188.243, 6.497269
1188.725, 0.3843380
1189.207, 2.374725
1189.689, 2.244827
1190.171, 1.108414
1190.653, 7.620407
1191.135, 10.73798
1191.617, 9.319107
1192.099, 7.189224
1192.582, 3.326401
1193.064, 2.840332
1193.546, 9.495056
1194.028, 15.37627
1194.510, 11.46140
1194.992, 1.601700
1195.474, 0.7769620
1195.956, 4.339096
1196.438, 8.638855
1196.921, 11.92683
1197.403, 12.76044
1197.885, 10.97737
1198.367, 10.74310
1198.849, 15.20863
1199.331, 19.41786
1199.813, 13.74084
1200.295, 3.241577
1200.778, 0.3027800
1201.260, 1.438919
1201.742, 4.810532
1202.224, 8.629013
1202.706, 11.48183
1203.188, 12.82301
1203.670, 13.10049
1204.152, 12.59686
1204.635, 11.26698
1205.117, 7.812592
1205.599, 4.705124
1206.081, 5.610016
1206.563, 8.273346
1207.045, 9.541885
1207.527, 8.995667
1208.009, 8.271698
1208.491, 7.656662
1208.974, 7.403412
1209.456, 8.472214
1209.938, 8.825424
1210.420, 5.525360
1210.902, 2.667175
1211.384, 6.003448
1211.866, 13.08014
1212.348, 15.07486
1212.830, 10.54326
1213.313, 7.199203
1213.795, 4.982773
1214.277, 4.299515
1214.759, 5.778915
1215.241, 7.319611
1215.723, 7.629501
1216.205, 7.648926
1216.687, 9.057251
1217.170, 11.30278
1217.652, 10.36423
1218.134, 6.566086
1218.616, 6.017670
1219.098, 9.122696
1219.580, 11.62360
1220.062, 12.09395
1220.544, 13.71333
1221.026, 19.84590
1221.509, 25.55054
1221.991, 21.15788
1222.473, 12.47534
1222.955, 10.77306
1223.437, 13.23695
1223.919, 12.55840
1224.401, 8.490814
1224.883, 5.148911
1225.365, 4.099976
1225.848, 5.152222
1226.330, 11.52850
1226.812, 15.90149
1227.294, 11.19455
1227.776, 4.785355
1228.258, 3.341644
1228.740, 5.010941
1229.222, 5.747208
1229.705, 5.127029
1230.187, 5.179123
1230.669, 5.339706
1231.151, 7.450302
1231.633, 14.01398
1232.115, 17.93587
1232.597, 15.13612
1233.079, 11.26770
1233.562, 10.05132
1234.044, 10.92958
1234.526, 12.90683
1235.008, 16.20113
1235.490, 15.71342
1235.972, 11.36185
1236.454, 9.250870
1236.936, 10.51582
1237.418, 11.75400
1237.901, 11.24000
1238.383, 9.884415
1238.865, 8.634079
1239.347, 7.721817
1239.829, 7.448242
1240.311, 8.077316
1240.793, 11.13029
1241.275, 15.38692
1241.758, 17.10263
1242.240, 15.98825
1242.722, 15.91713
1243.204, 19.50284
1243.686, 21.92586
1244.168, 18.42950
1244.650, 14.73663
1245.132, 15.53555
1245.615, 17.30992
1246.097, 16.21161
1246.579, 13.11517
1247.061, 10.75410
1247.543, 9.518814
1248.025, 8.106628
1248.507, 5.940903
1248.989, 4.481827
1249.471, 3.510788
1249.953, 4.179932
1250.436, 8.089188
1250.918, 11.41472
1251.400, 9.704971
1251.882, 4.878891
1252.364, 3.626328
1252.846, 5.743774
1253.328, 4.450272
1253.810, 5.0338998E-02
1254.293, 1.623367
1254.775, 0.4204710
1255.257, 3.736847
1255.739, 7.080460
1256.221, 9.613815
1256.703, 9.842361
1257.185, 9.477036
1257.667, 10.98079
1258.150, 13.26633
1258.632, 14.59862
1259.114, 15.51103
1259.596, 18.71550
1260.078, 23.56526
1260.560, 23.08382
1261.042, 11.36581
1261.524, 3.176544
1262.006, 7.491379
1262.489, 10.72688
1262.971, 3.454147
1263.453, 3.101013
1263.935, 1.989731
1264.417, 12.76141
1264.899, 16.71646
1265.381, 15.88492
1265.863, 14.10837
1266.345, 10.53485
1266.828, 8.480789
1267.310, 8.505447
1267.792, 7.724350
1268.274, 4.986252
1268.756, 2.585968
1269.238, 2.919449
1269.720, 1.448547
1270.202, 2.833115
1270.685, 4.448547
1271.167, 9.257202
1271.649, 14.97015
1272.131, 14.90477
1272.613, 10.22624
1273.095, 5.824768
1273.577, 2.213577
1274.059, 0.1756740
1274.542, 1.299728
1275.024, 0.0000000E+00
##END=



