##NAMES=Dukeite
##RRUFFID=R070441
##IDEAL CHEMISTRY=Bi^3+^_24_Cr^6+^_8_O_57_(OH)_6_&#183;3H_2_O
##LOCALITY=Posse mine (Posse Farm), São José de Brejaúba, Conceição do Mato Dentro, Minas Gerais, Brazil
##OWNER=RRUFF
##SOURCE=Michael Scott
##DESCRIPTION=Bright yellow massive, co-type sample, associated with light brown pucherite
##STATUS=The identification of this mineral is not yet confirmed.
##URL=rruff.info/R070441
140.0309, 0.0000000E+00
140.5130, 27.93457
140.9951, 19.91260
141.4772, 21.85303
141.9594, 95.16895
142.4415, 183.1362
142.9236, 289.1973
143.4057, 426.6401
143.8878, 600.6279
144.3699, 780.9893
144.8521, 955.7808
145.3342, 1113.500
145.8163, 1314.889
146.2984, 1580.194
146.7805, 1876.885
147.2626, 2141.361
147.7448, 2339.935
148.2269, 2552.877
148.7090, 2805.130
149.1911, 3118.891
149.6732, 3432.278
150.1553, 3742.424
150.6375, 4053.962
151.1196, 4376.606
151.6017, 4708.568
152.0838, 5058.449
152.5659, 5428.539
153.0480, 5825.166
153.5302, 6239.999
154.0123, 6670.087
154.4944, 7119.298
154.9765, 7590.186
155.4586, 8093.077
155.9407, 8605.541
156.4229, 9116.956
156.9050, 9523.650
157.3871, 9863.818
157.8692, 10246.24
158.3513, 10684.00
158.8334, 11061.84
159.3156, 11349.61
159.7977, 11564.44
160.2798, 11721.97
160.7619, 11836.26
161.2440, 11890.97
161.7261, 11894.71
162.2083, 11863.76
162.6904, 11721.24
163.1725, 11407.85
163.6546, 10965.26
164.1367, 10471.25
164.6188, 9931.259
165.1010, 9367.863
165.5831, 8790.039
166.0652, 8186.592
166.5473, 7593.277
167.0294, 7021.170
167.5115, 6474.533
167.9937, 5948.049
168.4758, 5445.466
168.9579, 4963.913
169.4400, 4501.111
169.9221, 4043.831
170.4042, 3619.897
170.8864, 3255.920
171.3685, 2949.185
171.8506, 2663.146
172.3327, 2371.100
172.8148, 2089.596
173.2969, 1842.688
173.7791, 1643.442
174.2612, 1478.043
174.7433, 1345.477
175.2254, 1244.085
175.7075, 1146.172
176.1896, 1020.314
176.6718, 881.1216
177.1539, 755.0156
177.6360, 659.3589
178.1181, 580.8711
178.6002, 501.8218
179.0823, 420.0889
179.5645, 342.9126
180.0466, 275.4473
180.5287, 217.2939
181.0108, 170.4873
181.4929, 141.3398
181.9750, 122.6914
182.4572, 100.1133
182.9393, 71.09277
183.4214, 40.45215
183.9035, 12.63672
184.3856, 11.76562
184.8677, 34.19775
185.3499, 61.78857
185.8320, 89.13232
186.3141, 93.94531
186.7962, 66.44629
187.2783, 19.52393
187.7604, 13.44336
188.2426, 40.33887
188.7247, 66.68115
189.2068, 85.10059
189.6889, 92.81885
190.1710, 107.9331
190.6531, 136.4009
191.1353, 177.9971
191.6174, 227.7856
192.0995, 289.9141
192.5816, 353.5054
193.0637, 406.1138
193.5458, 443.1460
194.0280, 471.2334
194.5101, 491.0190
194.9922, 508.7441
195.4743, 537.8423
195.9564, 592.9395
196.4385, 650.0244
196.9207, 664.5146
197.4028, 637.7437
197.8849, 623.0464
198.3670, 665.3799
198.8491, 760.4146
199.3312, 836.0469
199.8134, 888.6890
200.2955, 928.4668
200.7776, 964.7373
201.2597, 994.4673
201.7418, 1034.216
202.2239, 1094.352
202.7061, 1177.073
203.1882, 1254.008
203.6703, 1326.183
204.1524, 1390.165
204.6345, 1434.798
205.1166, 1454.891
205.5988, 1481.030
206.0809, 1532.064
206.5630, 1613.268
207.0451, 1679.330
207.5272, 1724.354
208.0093, 1757.561
208.4915, 1802.312
208.9736, 1863.782
209.4557, 1922.883
209.9378, 1968.938
210.4199, 2000.618
210.9020, 2026.577
211.3842, 2045.627
211.8663, 2060.122
212.3484, 2079.910
212.8305, 2110.323
213.3126, 2134.360
213.7948, 2140.735
214.2769, 2126.334
214.7590, 2106.185
215.2411, 2083.063
215.7232, 2055.699
216.2053, 2016.813
216.6875, 1962.904
217.1696, 1903.967
217.6517, 1846.239
218.1338, 1789.416
218.6159, 1734.241
219.0980, 1683.026
219.5802, 1634.316
220.0623, 1573.209
220.5444, 1496.348
221.0265, 1411.268
221.5086, 1325.940
221.9907, 1239.908
222.4729, 1152.492
222.9550, 1059.111
223.4371, 960.7051
223.9192, 879.4961
224.4013, 824.5215
224.8834, 778.1196
225.3656, 720.2524
225.8477, 643.0581
226.3298, 572.0249
226.8119, 511.5566
227.2940, 462.5283
227.7761, 421.1338
228.2583, 396.0889
228.7404, 370.8223
229.2225, 320.7803
229.7046, 221.2612
230.1867, 144.9429
230.6688, 118.9727
231.1510, 155.1470
231.6331, 164.7539
232.1152, 137.2656
232.5973, 91.16064
233.0794, 52.20996
233.5615, 18.95117
234.0437, 4.446289
234.5258, 13.20605
235.0079, 0.4467770
235.4900, 3.302734
235.9721, 29.72998
236.4542, 66.56006
236.9364, 91.55811
237.4185, 102.6338
237.9006, 105.7290
238.3827, 100.2974
238.8648, 80.78857
239.3469, 72.16895
239.8291, 77.55469
240.3112, 92.53906
240.7933, 111.2739
241.2754, 143.6309
241.7575, 163.7729
242.2396, 159.6216
242.7218, 119.3501
243.2039, 89.57861
243.6860, 71.04736
244.1681, 62.81787
244.6502, 64.62061
245.1323, 84.10449
245.6145, 101.5566
246.0966, 108.8306
246.5787, 101.8770
247.0608, 94.40967
247.5429, 84.00293
248.0250, 73.81836
248.5072, 73.49805
248.9893, 93.34082
249.4714, 106.5703
249.9535, 98.48535
250.4356, 51.48389
250.9177, 26.66064
251.3999, 34.84912
251.8820, 62.08740
252.3641, 71.35791
252.8462, 53.27393
253.3283, 32.04102
253.8104, 18.87402
254.2926, 17.66406
254.7747, 14.06787
255.2568, 4.707031
255.7389, 6.597656
256.2210, 7.408691
256.7031, 7.375977
257.1852, 24.11084
257.6674, 37.46680
258.1495, 50.41309
258.6316, 51.02588
259.1137, 33.01074
259.5958, 3.979492
260.0779, 11.36963
260.5601, 5.601563
261.0422, 0.6748050
261.5243, 4.922852
262.0064, 27.96582
262.4885, 44.81201
262.9706, 51.77783
263.4528, 52.42188
263.9349, 58.17822
264.4170, 71.07471
264.8991, 85.07715
265.3812, 97.49609
265.8633, 108.9565
266.3455, 116.1826
266.8276, 117.8281
267.3097, 115.4990
267.7918, 113.9150
268.2739, 113.1030
268.7560, 113.0361
269.2382, 112.4551
269.7203, 109.5757
270.2024, 115.5195
270.6845, 135.4434
271.1666, 162.4893
271.6487, 173.8438
272.1309, 165.5698
272.6130, 153.1387
273.0951, 144.7329
273.5772, 140.4209
274.0593, 140.8760
274.5414, 147.8037
275.0236, 158.4893
275.5057, 165.8896
275.9878, 170.0859
276.4699, 170.9985
276.9520, 163.9458
277.4341, 146.9141
277.9163, 148.1943
278.3984, 175.5522
278.8805, 217.2910
279.3626, 244.3911
279.8447, 255.2153
280.3268, 261.4985
280.8090, 270.2446
281.2911, 281.5571
281.7732, 290.3730
282.2553, 295.9058
282.7374, 299.0229
283.2195, 299.7837
283.7017, 297.3994
284.1838, 299.2690
284.6659, 312.0879
285.1480, 335.1992
285.6301, 355.7192
286.1122, 372.4985
286.5944, 386.6514
287.0765, 400.6196
287.5586, 414.5156
288.0407, 426.2393
288.5228, 434.0239
289.0049, 438.3901
289.4871, 440.9292
289.9692, 440.0156
290.4513, 441.2935
290.9334, 454.6665
291.4155, 479.3735
291.8976, 508.6978
292.3798, 547.1841
292.8619, 590.9492
293.3440, 614.6172
293.8261, 609.1836
294.3082, 596.2729
294.7903, 613.4219
295.2725, 656.9292
295.7546, 697.0513
296.2367, 709.5474
296.7188, 707.6260
297.2009, 721.6675
297.6830, 754.8081
298.1652, 796.0244
298.6473, 835.8716
299.1294, 872.9238
299.6115, 907.6904
300.0936, 943.7192
300.5757, 980.4385
301.0579, 1009.526
301.5400, 1026.300
302.0221, 1049.172
302.5042, 1099.973
302.9863, 1171.083
303.4684, 1243.029
303.9506, 1301.215
304.4327, 1359.428
304.9148, 1435.588
305.3969, 1529.718
305.8790, 1638.459
306.3611, 1757.619
306.8433, 1886.809
307.3254, 2024.726
307.8075, 2175.835
308.2896, 2338.838
308.7717, 2502.794
309.2538, 2666.223
309.7360, 2850.380
310.2181, 3078.483
310.7002, 3341.762
311.1823, 3620.925
311.6644, 3901.021
312.1465, 4198.160
312.6287, 4518.786
313.1108, 4865.015
313.5929, 5236.019
314.0750, 5639.176
314.5571, 6069.177
315.0392, 6522.734
315.5214, 6990.410
316.0035, 7489.399
316.4856, 8026.269
316.9677, 8602.025
317.4498, 9211.473
317.9319, 9849.430
318.4141, 10512.98
318.8962, 11195.53
319.3783, 11906.22
319.8604, 12637.03
320.3425, 13384.56
320.8246, 14148.80
321.3068, 14937.13
321.7889, 15765.15
322.2710, 16601.60
322.7531, 17422.86
323.2352, 18222.39
323.7173, 19007.05
324.1995, 19781.35
324.6816, 20542.25
325.1637, 21276.85
325.6458, 22052.86
326.1279, 22751.48
326.6100, 23318.28
327.0922, 23695.66
327.5743, 24010.01
328.0564, 24287.43
328.5385, 24509.65
329.0206, 24612.13
329.5027, 24611.93
329.9849, 24478.83
330.4670, 24196.63
330.9491, 23714.68
331.4312, 23175.25
331.9133, 22583.21
332.3954, 21931.08
332.8776, 21193.68
333.3597, 20335.86
333.8418, 19450.78
334.3239, 18561.42
334.8061, 17658.86
335.2882, 16769.93
335.7703, 15891.63
336.2524, 15018.07
336.7345, 14148.71
337.2166, 13267.01
337.6988, 12407.65
338.1809, 11596.51
338.6630, 10823.27
339.1451, 10092.30
339.6272, 9398.847
340.1093, 8744.473
340.5915, 8144.431
341.0736, 7598.534
341.5557, 7078.979
342.0378, 6577.460
342.5199, 6097.016
343.0020, 5641.228
343.4842, 5214.396
343.9663, 4810.861
344.4484, 4432.333
344.9305, 4075.745
345.4126, 3742.574
345.8947, 3425.848
346.3769, 3133.857
346.8590, 2881.245
347.3411, 2666.536
347.8232, 2476.557
348.3053, 2302.786
348.7874, 2143.897
349.2696, 1991.304
349.7517, 1839.212
350.2338, 1695.180
350.7159, 1564.924
351.1980, 1449.271
351.6801, 1351.166
352.1623, 1282.680
352.6444, 1232.463
353.1265, 1179.806
353.6086, 1121.427
354.0907, 1059.727
354.5728, 985.6328
355.0550, 907.7588
355.5371, 850.0073
356.0192, 838.6206
356.5013, 848.5303
356.9834, 853.6938
357.4655, 850.1157
357.9477, 849.4233
358.4298, 860.4878
358.9119, 879.8657
359.3940, 902.0830
359.8761, 924.4365
360.3582, 949.2969
360.8404, 975.9058
361.3225, 1003.882
361.8046, 1042.556
362.2867, 1094.388
362.7688, 1159.581
363.2509, 1238.366
363.7331, 1341.998
364.2152, 1447.830
364.6973, 1543.785
365.1794, 1630.908
365.6615, 1731.833
366.1436, 1851.988
366.6258, 1987.171
367.1079, 2134.640
367.5900, 2308.818
368.0721, 2478.420
368.5542, 2631.294
369.0363, 2774.150
369.5185, 2938.737
370.0006, 3143.285
370.4827, 3352.527
370.9648, 3551.908
371.4469, 3741.786
371.9290, 3924.678
372.4112, 4095.006
372.8933, 4259.345
373.3754, 4431.590
373.8575, 4614.131
374.3396, 4804.988
374.8217, 5008.847
375.3039, 5228.328
375.7860, 5431.304
376.2681, 5618.445
376.7502, 5787.104
377.2323, 5927.589
377.7144, 6028.323
378.1966, 6153.306
378.6787, 6334.580
379.1608, 6561.327
379.6429, 6757.728
380.1250, 6922.949
380.6071, 7057.015
381.0893, 7150.963
381.5714, 7207.712
382.0535, 7257.378
382.5356, 7318.343
383.0177, 7368.842
383.4998, 7354.767
383.9820, 7275.703
384.4641, 7160.917
384.9462, 7015.472
385.4283, 6854.337
385.9104, 6715.390
386.3925, 6612.427
386.8747, 6508.807
387.3568, 6358.632
387.8389, 6172.198
388.3210, 5980.676
388.8031, 5810.639
389.2852, 5642.409
389.7674, 5454.534
390.2495, 5240.126
390.7316, 5017.308
391.2137, 4794.836
391.6958, 4572.574
392.1779, 4354.076
392.6601, 4130.340
393.1422, 3919.359
393.6243, 3735.630
394.1064, 3579.316
394.5885, 3426.976
395.0706, 3275.763
395.5528, 3121.272
396.0349, 2959.717
396.5170, 2790.011
396.9991, 2613.865
397.4812, 2416.957
397.9633, 2208.598
398.4455, 2025.738
398.9276, 1891.286
399.4097, 1769.594
399.8918, 1644.544
400.3739, 1517.461
400.8560, 1383.560
401.3382, 1235.614
401.8203, 1082.061
402.3024, 940.2158
402.7845, 799.7104
403.2666, 685.8115
403.7487, 613.6812
404.2309, 592.1177
404.7130, 550.5708
405.1951, 476.0439
405.6772, 399.1431
406.1593, 364.7183
406.6414, 384.6514
407.1236, 383.6689
407.6057, 335.3159
408.0878, 252.3887
408.5699, 194.4985
409.0520, 163.4653
409.5341, 145.8560
410.0163, 135.0688
410.4984, 130.0645
410.9805, 120.4380
411.4626, 102.3716
411.9447, 82.82666
412.4268, 76.49316
412.9090, 81.24902
413.3911, 83.81836
413.8732, 74.91699
414.3553, 59.14844
414.8374, 41.91260
415.3195, 22.83398
415.8017, 9.689453
416.2838, 16.86914
416.7659, 34.55029
417.2480, 44.88818
417.7301, 37.06934
418.2122, 21.47314
418.6944, 2.127930
419.1765, 20.38965
419.6586, 37.37500
420.1407, 43.52832
420.6228, 42.92627
421.1049, 39.13037
421.5871, 31.62500
422.0692, 22.57666
422.5513, 7.981934
423.0334, 8.502930
423.5155, 15.15771
423.9977, 0.2661130
424.4798, 17.86133
424.9619, 29.26611
425.4440, 32.17139
425.9261, 33.89258
426.4082, 35.40820
426.8904, 35.65771
427.3725, 32.01953
427.8546, 16.56201
428.3367, 10.97119
428.8188, 25.48682
429.3009, 59.59961
429.7831, 73.87646
430.2652, 60.45850
430.7473, 41.66211
431.2294, 37.24561
431.7115, 49.39600
432.1936, 57.97266
432.6758, 59.96045
433.1579, 57.02197
433.6400, 52.69238
434.1221, 46.91406
434.6042, 41.64209
435.0863, 39.16113
435.5685, 38.47363
436.0506, 35.12158
436.5327, 28.66016
437.0148, 21.73535
437.4969, 17.10059
437.9790, 14.57324
438.4612, 13.37842
438.9433, 11.18457
439.4254, 11.43994
439.9075, 22.77295
440.3896, 43.49707
440.8717, 56.24805
441.3539, 36.26074
441.8360, 8.299805
442.3181, 0.2724610
442.8002, 30.17480
443.2823, 58.20020
443.7644, 63.50000
444.2466, 52.34229
444.7287, 39.42236
445.2108, 25.53271
445.6929, 13.08691
446.1750, 5.771484
446.6571, 7.248535
447.1393, 1.577637
447.6214, 20.20703
448.1035, 46.56641
448.5856, 65.42041
449.0677, 74.48877
449.5498, 79.21826
450.0320, 78.66211
450.5141, 73.86230
450.9962, 71.99854
451.4783, 73.39893
451.9604, 77.24658
452.4425, 83.31299
452.9247, 92.12646
453.4068, 103.4771
453.8889, 118.6890
454.3710, 134.2520
454.8531, 142.1826
455.3352, 142.2236
455.8174, 143.7773
456.2995, 149.5317
456.7816, 159.6235
457.2637, 178.3696
457.7458, 206.4409
458.2279, 230.2031
458.7101, 234.5171
459.1922, 226.0972
459.6743, 220.1938
460.1564, 223.7539
460.6385, 226.7974
461.1206, 214.1733
461.6028, 192.1274
462.0849, 178.5137
462.5670, 195.8110
463.0491, 217.9590
463.5312, 223.4741
464.0133, 205.7466
464.4955, 191.8955
464.9776, 189.5874
465.4597, 198.1079
465.9418, 216.4512
466.4239, 271.4233
466.9060, 307.5283
467.3882, 297.9565
467.8703, 247.1006
468.3524, 222.2554
468.8345, 249.2324
469.3166, 278.5977
469.7987, 283.6187
470.2809, 245.4351
470.7630, 226.6167
471.2451, 234.4507
471.7272, 256.6733
472.2093, 272.9258
472.6914, 283.2515
473.1736, 285.0879
473.6557, 273.9854
474.1378, 253.3433
474.6199, 247.6885
475.1020, 258.7188
475.5841, 275.1401
476.0663, 290.1592
476.5484, 302.9604
477.0305, 308.5645
477.5126, 304.3857
477.9947, 295.9810
478.4768, 288.5771
478.9590, 282.6167
479.4411, 279.5552
479.9232, 280.4707
480.4053, 284.4634
480.8874, 291.3936
481.3695, 301.1128
481.8517, 309.1777
482.3338, 312.9448
482.8159, 313.4780
483.2980, 312.2070
483.7801, 309.7866
484.2622, 305.5752
484.7444, 298.4541
485.2265, 289.3169
485.7086, 281.9121
486.1907, 276.3169
486.6728, 271.1182
487.1549, 266.0317
487.6371, 264.2036
488.1192, 257.0684
488.6013, 240.4048
489.0834, 222.3159
489.5655, 214.1899
490.0476, 220.6177
490.5298, 222.1045
491.0119, 213.6260
491.4940, 198.2046
491.9761, 189.6724
492.4582, 189.8013
492.9403, 184.7759
493.4225, 156.5586
493.9046, 112.9990
494.3867, 90.97754
494.8688, 96.00537
495.3509, 112.0337
495.8330, 126.2085
496.3152, 135.2051
496.7973, 133.5142
497.2794, 107.1816
497.7615, 77.67383
498.2436, 67.81836
498.7257, 75.43115
499.2079, 85.43164
499.6900, 92.20996
500.1721, 94.55420
500.6542, 90.82031
501.1363, 81.30371
501.6184, 67.38428
502.1006, 44.47559
502.5827, 19.49023
503.0648, 3.178223
503.5469, 2.174805
504.0290, 4.616211
504.5111, 9.233398
504.9933, 15.94629
505.4754, 20.37158
505.9575, 21.00928
506.4396, 20.57324
506.9217, 21.58838
507.4038, 25.21436
507.8860, 25.11816
508.3681, 17.55957
508.8502, 8.726563
509.3323, 13.74805
509.8144, 32.50391
510.2965, 47.87207
510.7787, 51.65430
511.2608, 47.93506
511.7429, 46.26270
512.2250, 46.65430
512.7071, 48.34082
513.1892, 54.16211
513.6713, 59.62305
514.1534, 55.16992
514.6356, 33.17090
515.1177, 18.44873
515.5998, 41.05469
516.0819, 81.36816
516.5640, 105.5200
517.0461, 89.05225
517.5283, 64.77051
518.0104, 41.73389
518.4925, 20.55615
518.9746, 9.341797
519.4567, 19.70264
519.9388, 33.06982
520.4210, 38.74219
520.9031, 30.13086
521.3852, 25.79980
521.8673, 28.69580
522.3494, 33.77148
522.8315, 31.47705
523.3137, 19.17529
523.7958, 9.268555
524.2779, 6.675293
524.7600, 9.669434
525.2421, 7.476074
525.7242, 0.5986330
526.2064, 7.292969
526.6885, 4.127441
527.1706, 5.288574
527.6527, 8.895996
528.1348, 4.071289
528.6169, 2.221680
529.0991, 6.259766
529.5812, 6.308105
530.0633, 1.028809
530.5454, 31.31689
531.0275, 57.62500
531.5096, 56.06494
531.9918, 30.83398
532.4739, 11.83105
532.9560, 15.02637
533.4381, 25.16016
533.9202, 34.00830
534.4023, 40.79492
534.8845, 46.03125
535.3666, 51.11865
535.8487, 54.33105
536.3308, 53.40723
536.8129, 48.10156
537.2950, 38.79297
537.7772, 22.93359
538.2593, 3.660645
538.7414, 4.435547
539.2235, 0.3481450
539.7056, 9.644043
540.1877, 21.39062
540.6699, 34.55176
541.1520, 39.70752
541.6341, 35.68701
542.1162, 28.42407
542.5983, 21.03149
543.0804, 15.26074
543.5626, 16.42773
544.0447, 29.84448
544.5268, 45.66553
545.0089, 59.90991
545.4910, 70.12036
545.9731, 68.96729
546.4553, 37.26587
546.9374, 5.641113
547.4195, 7.319336
547.9016, 2.510498
548.3837, 14.54858
548.8658, 30.69019
549.3480, 43.61060
549.8301, 46.94263
550.3122, 32.55396
550.7943, 22.23462
551.2764, 19.84790
551.7585, 21.27100
552.2407, 13.69531
552.7228, 8.468506
553.2049, 18.21924
553.6870, 3.182373
554.1691, 47.68799
554.6512, 57.81030
555.1334, 31.08887
555.6155, 2.092529
556.0976, 19.00293
556.5797, 22.22632
557.0618, 17.07056
557.5439, 2.093506
558.0261, 12.87354
558.5082, 16.98901
558.9903, 14.38525
559.4724, 12.78735
559.9545, 19.34204
560.4366, 23.61865
560.9188, 16.73755
561.4009, 1.647949
561.8830, 6.348633
562.3651, 5.607422
562.8472, 18.79321
563.3293, 23.48389
563.8115, 17.55811
564.2936, 7.821533
564.7757, 11.75024
565.2578, 29.58203
565.7399, 32.01025
566.2220, 14.97656
566.7042, 1.064453
567.1863, 13.86426
567.6684, 23.92725
568.1505, 32.50537
568.6326, 39.40674
569.1147, 42.16309
569.5969, 34.58008
570.0790, 22.95972
570.5611, 21.78857
571.0432, 31.21899
571.5253, 43.43604
572.0074, 55.55664
572.4896, 65.47192
572.9717, 70.15430
573.4538, 68.65942
573.9359, 64.24536
574.4180, 52.64185
574.9001, 40.33276
575.3823, 37.81396
575.8644, 61.41577
576.3465, 79.38965
576.8286, 82.62280
577.3107, 73.40039
577.7928, 65.67236
578.2750, 58.62183
578.7571, 53.85059
579.2392, 52.50049
579.7213, 54.95898
580.2034, 60.56592
580.6855, 71.09253
581.1677, 78.89404
581.6498, 70.75000
582.1320, 50.55664
582.6141, 40.13647
583.0962, 47.88770
583.5783, 61.03882
584.0604, 65.60352
584.5425, 63.40918
585.0247, 58.41968
585.5068, 49.45142
585.9889, 39.85327
586.4710, 30.78369
586.9531, 22.54736
587.4352, 18.23462
587.9174, 19.91724
588.3995, 26.12280
588.8816, 35.65405
589.3637, 49.83618
589.8458, 63.54663
590.3279, 78.39331
590.8101, 91.91333
591.2922, 101.2600
591.7743, 107.3345
592.2564, 103.5278
592.7385, 82.13135
593.2206, 54.13989
593.7028, 55.37036
594.1849, 85.57031
594.6670, 115.3477
595.1491, 125.7153
595.6312, 124.5317
596.1133, 128.0396
596.5955, 136.8005
597.0776, 145.6562
597.5597, 151.5938
598.0418, 155.0413
598.5239, 155.4575
599.0060, 149.0989
599.4882, 147.6333
599.9703, 164.3660
600.4524, 186.2700
600.9345, 193.8262
601.4166, 160.3567
601.8987, 140.4263
602.3809, 149.4766
602.8630, 180.0784
603.3451, 193.1870
603.8272, 180.7686
604.3093, 169.9207
604.7914, 176.4741
605.2736, 199.0815
605.7557, 210.2458
606.2378, 208.8914
606.7199, 202.9778
607.2020, 196.9817
607.6841, 192.3521
608.1663, 192.4773
608.6484, 198.4551
609.1305, 208.4805
609.6126, 229.3572
610.0947, 251.7993
610.5768, 259.2031
611.0590, 225.5403
611.5411, 196.8733
612.0232, 194.5520
612.5053, 213.8867
612.9874, 227.2197
613.4695, 223.2751
613.9517, 220.6245
614.4338, 228.7795
614.9159, 251.0762
615.3980, 259.6282
615.8801, 251.0488
616.3622, 235.4700
616.8444, 219.1577
617.3265, 202.4988
617.8086, 193.9978
618.2907, 196.5959
618.7728, 201.4932
619.2549, 195.6030
619.7371, 182.4290
620.2192, 171.9250
620.7013, 168.3638
621.1834, 168.1279
621.6655, 171.8416
622.1476, 177.1384
622.6298, 175.7539
623.1119, 155.9773
623.5940, 136.2810
624.0761, 126.1741
624.5582, 127.1462
625.0403, 129.3081
625.5225, 136.6587
626.0046, 140.2188
626.4867, 130.4014
626.9688, 99.32129
627.4509, 92.37598
627.9330, 119.4385
628.4152, 153.4004
628.8973, 149.5271
629.3794, 113.1494
629.8615, 93.13892
630.3436, 111.0330
630.8257, 139.6980
631.3079, 140.5640
631.7900, 120.6201
632.2721, 101.5500
632.7542, 94.17432
633.2363, 92.01147
633.7184, 91.00464
634.2006, 90.83960
634.6827, 93.09839
635.1648, 103.1023
635.6469, 112.4109
636.1290, 116.3530
636.6111, 113.5469
637.0933, 108.9646
637.5754, 100.6729
638.0575, 93.02295
638.5396, 93.07422
639.0217, 102.1719
639.5038, 100.8879
639.9860, 82.36523
640.4681, 60.25415
640.9502, 58.56323
641.4323, 73.58276
641.9144, 91.31396
642.3965, 109.5562
642.8787, 124.1560
643.3608, 126.9070
643.8429, 120.6226
644.3250, 117.6475
644.8071, 132.3296
645.2892, 144.6216
645.7714, 138.4575
646.2535, 107.1255
646.7356, 97.70361
647.2177, 130.5264
647.6998, 167.2739
648.1819, 182.7927
648.6641, 172.1855
649.1462, 159.6199
649.6283, 142.5532
650.1104, 128.9912
650.5925, 132.1777
651.0746, 150.4546
651.5568, 171.7993
652.0389, 197.6123
652.5210, 217.7478
653.0031, 212.0798
653.4852, 188.8120
653.9673, 170.4512
654.4495, 168.1611
654.9316, 173.7944
655.4137, 185.5007
655.8958, 202.4634
656.3779, 218.4170
656.8600, 235.7212
657.3422, 247.4583
657.8243, 249.2339
658.3064, 238.5947
658.7885, 234.3193
659.2706, 236.9941
659.7527, 244.4087
660.2349, 257.9414
660.7170, 277.3728
661.1991, 289.4250
661.6812, 292.1125
662.1633, 287.5901
662.6454, 273.0977
663.1276, 253.8774
663.6097, 241.9944
664.0918, 243.1003
664.5739, 249.9866
665.0560, 263.2078
665.5381, 279.0632
666.0203, 288.4124
666.5024, 277.5916
666.9845, 270.6216
667.4666, 279.4216
667.9487, 300.6858
668.4308, 309.1245
668.9130, 299.8384
669.3951, 289.5181
669.8772, 284.5337
670.3593, 284.3374
670.8414, 286.9922
671.3235, 293.1877
671.8057, 300.1172
672.2878, 307.7900
672.7699, 313.7158
673.2520, 311.5032
673.7341, 299.5164
674.2162, 285.2952
674.6984, 270.1460
675.1805, 256.9165
675.6626, 249.5295
676.1447, 254.4014
676.6268, 259.0283
677.1089, 260.5854
677.5911, 259.9592
678.0732, 258.6941
678.5553, 256.2466
679.0374, 253.7190
679.5195, 251.2070
680.0016, 249.0806
680.4838, 248.6917
680.9659, 250.0549
681.4480, 251.1582
681.9301, 247.2905
682.4122, 243.6719
682.8943, 254.9497
683.3765, 279.3787
683.8586, 299.2744
684.3407, 306.0854
684.8228, 301.4692
685.3049, 282.2275
685.7870, 243.9661
686.2692, 219.2852
686.7513, 224.4822
687.2334, 241.3020
687.7155, 256.5657
688.1976, 271.2178
688.6797, 280.5857
689.1619, 284.0923
689.6440, 282.3333
690.1261, 272.1152
690.6082, 254.2922
691.0903, 251.2383
691.5724, 273.2192
692.0546, 300.9084
692.5367, 301.0276
693.0188, 282.8428
693.5009, 271.2341
693.9830, 279.6584
694.4651, 295.3186
694.9473, 315.8440
695.4294, 338.5266
695.9115, 351.6362
696.3936, 344.5498
696.8757, 335.3462
697.3578, 329.0288
697.8400, 325.2632
698.3221, 320.3760
698.8042, 315.5991
699.2863, 309.6125
699.7684, 297.9995
700.2505, 282.6414
700.7327, 281.8171
701.2148, 295.8564
701.6969, 313.6326
702.1790, 327.8328
702.6611, 339.2302
703.1432, 348.4514
703.6254, 354.8911
704.1075, 357.8997
704.5896, 360.7546
705.0717, 359.8552
705.5538, 350.3252
706.0359, 311.9414
706.5181, 291.4380
707.0002, 300.7585
707.4823, 321.8381
707.9644, 322.7368
708.4465, 300.8423
708.9286, 278.5635
709.4108, 258.5178
709.8929, 244.8767
710.3750, 251.7966
710.8571, 274.8381
711.3392, 293.9592
711.8214, 300.5527
712.3035, 298.0671
712.7856, 284.5671
713.2677, 263.0071
713.7498, 247.7620
714.2319, 249.5425
714.7141, 253.8684
715.1962, 253.2446
715.6783, 247.0750
716.1604, 246.0496
716.6425, 255.4500
717.1246, 259.8127
717.6068, 245.4751
718.0889, 212.8882
718.5710, 192.1660
719.0531, 184.4492
719.5352, 181.9375
720.0173, 178.3386
720.4995, 174.6736
720.9816, 174.4846
721.4637, 180.5146
721.9458, 180.5906
722.4279, 161.4995
722.9100, 135.4202
723.3922, 115.1758
723.8743, 101.9399
724.3564, 97.81055
724.8385, 110.4998
725.3206, 127.1709
725.8027, 124.5195
726.2849, 96.21094
726.7670, 81.33936
727.2491, 91.62061
727.7312, 113.4766
728.2133, 120.3667
728.6954, 115.4512
729.1776, 112.5269
729.6597, 123.1587
730.1418, 133.3345
730.6239, 127.1660
731.1060, 109.6934
731.5881, 97.34619
732.0703, 105.2344
732.5524, 110.1953
733.0345, 101.4336
733.5166, 80.90576
733.9987, 63.69385
734.4808, 49.70850
734.9630, 39.98730
735.4451, 36.80322
735.9272, 39.02930
736.4093, 36.82666
736.8914, 30.13623
737.3735, 23.36572
737.8557, 20.99365
738.3378, 20.03760
738.8199, 15.38428
739.3020, 6.096680
739.7841, 1.223633
740.2662, 2.892090
740.7484, 1.577148
741.2305, 1.375977
741.7126, 8.844727
742.1947, 10.14160
742.6768, 3.479492
743.1589, 7.321289
743.6411, 20.00928
744.1232, 34.82422
744.6053, 46.69189
745.0874, 55.73193
745.5695, 59.06152
746.0516, 46.39258
746.5338, 25.63086
747.0159, 16.22705
747.4980, 25.97705
747.9801, 42.36963
748.4622, 64.09766
748.9443, 85.80908
749.4265, 99.42383
749.9086, 92.07568
750.3907, 91.09766
750.8728, 105.1074
751.3549, 124.8140
751.8370, 126.8691
752.3192, 106.5098
752.8013, 96.83789
753.2834, 112.1582
753.7655, 137.8364
754.2476, 143.1958
754.7297, 131.3408
755.2119, 115.2373
755.6940, 92.20117
756.1761, 75.13281
756.6582, 77.32275
757.1403, 95.09082
757.6224, 110.7661
758.1046, 126.3052
758.5867, 131.6802
759.0688, 118.3091
759.5509, 89.24805
760.0330, 80.90332
760.5151, 100.4146
760.9973, 114.4805
761.4794, 95.91846
761.9615, 56.86914
762.4436, 47.41748
762.9257, 65.59180
763.4078, 84.91064
763.8900, 89.74951
764.3721, 85.23975
764.8542, 71.99121
765.3363, 49.25098
765.8184, 34.18115
766.3005, 40.56250
766.7827, 49.26709
767.2648, 50.54932
767.7469, 44.36768
768.2290, 29.22217
768.7111, 0.9853520
769.1932, 25.97900
769.6754, 31.81055
770.1575, 23.63525
770.6396, 37.86816
771.1217, 79.16357
771.6038, 125.4761
772.0859, 161.0005
772.5681, 189.7969
773.0502, 214.9912
773.5323, 233.8896
774.0144, 258.7793
774.4965, 302.5474
774.9786, 348.1807
775.4608, 379.5405
775.9429, 391.1704
776.4250, 402.4404
776.9071, 412.3496
777.3892, 427.7866
777.8713, 460.5200
778.3535, 507.2412
778.8356, 551.0884
779.3177, 585.9575
779.7998, 625.6763
780.2819, 690.0571
780.7640, 764.7280
781.2462, 827.9707
781.7283, 860.3584
782.2104, 898.8999
782.6925, 947.4717
783.1746, 1008.348
783.6567, 1086.370
784.1389, 1186.358
784.6210, 1284.445
785.1031, 1377.762
785.5852, 1470.012
786.0673, 1571.652
786.5494, 1678.601
787.0316, 1771.901
787.5137, 1828.794
787.9958, 1890.929
788.4779, 1997.537
788.9600, 2134.028
789.4421, 2276.313
789.9243, 2428.582
790.4064, 2571.207
790.8885, 2687.580
791.3706, 2793.490
791.8527, 2927.143
792.3348, 3094.104
792.8170, 3272.184
793.2991, 3458.749
793.7812, 3648.825
794.2633, 3830.180
794.7454, 4005.016
795.2275, 4190.868
795.7097, 4384.027
796.1918, 4600.968
796.6739, 4868.347
797.1560, 5169.748
797.6381, 5458.188
798.1202, 5681.886
798.6024, 5936.750
799.0845, 6256.952
799.5666, 6627.423
800.0487, 6978.368
800.5308, 7304.005
801.0129, 7649.707
801.4951, 8036.729
801.9772, 8454.995
802.4593, 8886.641
802.9414, 9334.397
803.4235, 9793.598
803.9056, 10263.72
804.3878, 10745.25
804.8699, 11237.90
805.3520, 11740.33
805.8341, 12271.20
806.3162, 12842.23
806.7983, 13419.26
807.2805, 13989.08
807.7626, 14559.74
808.2447, 15150.57
808.7268, 15763.30
809.2089, 16400.08
809.6910, 17069.34
810.1732, 17762.49
810.6553, 18468.54
811.1374, 19184.24
811.6195, 19904.28
812.1016, 20620.09
812.5837, 21337.02
813.0659, 22052.38
813.5480, 22767.37
814.0301, 23496.71
814.5122, 24254.46
814.9943, 24994.84
815.4764, 25701.51
815.9586, 26377.55
816.4407, 27073.81
816.9228, 27789.50
817.4049, 28492.69
817.8870, 29169.75
818.3691, 29809.39
818.8513, 30392.59
819.3334, 30928.99
819.8155, 31441.65
820.2976, 31984.96
820.7797, 32467.10
821.2618, 32847.53
821.7440, 33130.68
822.2261, 33369.00
822.7082, 33564.61
823.1903, 33700.56
823.6724, 33783.56
824.1545, 33793.23
824.6367, 33672.72
825.1188, 33425.30
825.6009, 33090.94
826.0830, 32701.42
826.5651, 32224.82
827.0472, 31630.59
827.5294, 30927.57
828.0115, 30127.49
828.4936, 29247.53
828.9757, 28270.74
829.4578, 27189.04
829.9399, 26004.17
830.4221, 24785.67
830.9042, 23517.77
831.3863, 22287.40
831.8684, 21126.05
832.3505, 20024.74
832.8326, 18984.29
833.3148, 18000.54
833.7969, 17104.99
834.2790, 16314.55
834.7611, 15609.79
835.2432, 14985.56
835.7253, 14437.40
836.2075, 13982.02
836.6896, 13624.54
837.1717, 13333.63
837.6538, 13102.88
838.1359, 12925.33
838.6180, 12787.87
839.1002, 12686.95
839.5823, 12584.58
840.0644, 12450.55
840.5465, 12313.84
841.0286, 12196.17
841.5107, 12095.60
841.9929, 11992.00
842.4750, 11880.04
842.9571, 11767.82
843.4392, 11663.04
843.9213, 11559.19
844.4034, 11416.13
844.8856, 11231.95
845.3677, 11057.94
845.8498, 10928.07
846.3319, 10816.11
846.8140, 10684.30
847.2961, 10535.49
847.7783, 10379.62
848.2604, 10205.41
848.7425, 10041.39
849.2246, 9902.835
849.7067, 9784.456
850.1888, 9670.712
850.6710, 9563.349
851.1531, 9454.456
851.6352, 9343.280
852.1173, 9226.904
852.5994, 9094.323
853.0815, 8948.962
853.5637, 8803.833
854.0458, 8685.196
854.5279, 8554.488
855.0100, 8365.396
855.4921, 8144.398
855.9742, 7962.050
856.4564, 7868.555
856.9385, 7757.555
857.4206, 7607.342
857.9027, 7433.819
858.3848, 7271.426
858.8669, 7122.006
859.3491, 6973.848
859.8312, 6819.625
860.3133, 6668.503
860.7954, 6533.417
861.2775, 6409.330
861.7596, 6284.593
862.2418, 6145.398
862.7239, 6012.174
863.2060, 5882.395
863.6881, 5765.605
864.1702, 5673.731
864.6523, 5610.447
865.1345, 5556.982
865.6166, 5515.045
866.0987, 5476.001
866.5808, 5421.657
867.0629, 5357.909
867.5450, 5303.288
868.0272, 5269.930
868.5093, 5240.729
868.9914, 5191.177
869.4735, 5146.428
869.9556, 5139.667
870.4377, 5203.071
870.9199, 5237.134
871.4020, 5233.003
871.8841, 5214.684
872.3662, 5211.772
872.8483, 5220.547
873.3304, 5216.029
873.8126, 5192.979
874.2947, 5166.422
874.7768, 5149.261
875.2589, 5134.120
875.7410, 5114.651
876.2231, 5091.643
876.7053, 5059.794
877.1874, 5020.687
877.6695, 4969.603
878.1516, 4900.864
878.6337, 4814.161
879.1158, 4727.512
879.5980, 4639.922
880.0801, 4552.729
880.5622, 4475.936
881.0443, 4396.631
881.5264, 4295.921
882.0085, 4172.534
882.4907, 4051.567
882.9728, 3944.562
883.4549, 3839.884
883.9370, 3732.404
884.4191, 3622.986
884.9012, 3517.134
885.3834, 3414.166
885.8655, 3315.537
886.3476, 3228.744
886.8297, 3145.319
887.3118, 3049.325
887.7939, 2941.631
888.2761, 2826.143
888.7582, 2678.067
889.2403, 2548.120
889.7224, 2474.158
890.2045, 2439.877
890.6866, 2378.395
891.1688, 2281.988
891.6509, 2179.232
892.1330, 2076.798
892.6151, 1978.691
893.0972, 1899.877
893.5793, 1835.102
894.0615, 1767.942
894.5436, 1685.896
895.0257, 1603.968
895.5078, 1528.597
895.9899, 1459.311
896.4720, 1397.991
896.9542, 1351.733
897.4363, 1297.779
897.9184, 1231.083
898.4005, 1158.927
898.8826, 1088.359
899.3647, 1019.984
899.8469, 960.7373
900.3290, 913.6709
900.8111, 869.0532
901.2932, 824.6279
901.7753, 776.0444
902.2574, 718.8096
902.7396, 642.3184
903.2217, 573.4180
903.7038, 509.8657
904.1859, 456.5469
904.6680, 422.7627
905.1501, 405.8145
905.6323, 386.3887
906.1144, 363.6270
906.5965, 331.5107
907.0786, 274.3281
907.5607, 213.9346
908.0428, 173.9214
908.5250, 157.8301
909.0071, 135.5430
909.4892, 96.37402
909.9713, 59.63135
910.4534, 36.37061
910.9355, 23.80127
911.4177, 3.909668
911.8998, 45.95020
912.3819, 82.50244
912.8640, 99.18750
913.3461, 106.5918
913.8282, 116.0781
914.3104, 125.9219
914.7925, 128.8999
915.2746, 110.1768
915.7567, 100.5386
916.2388, 111.4009
916.7209, 132.9805
917.2031, 137.4771
917.6852, 125.0596
918.1673, 118.8071
918.6494, 129.0142
919.1315, 140.6792
919.6136, 132.6006
920.0958, 114.8628
920.5779, 104.2114
921.0600, 111.9697
921.5421, 117.7036
922.0242, 115.6343
922.5063, 112.7656
922.9885, 120.6738
923.4706, 141.0659
923.9527, 136.1450
924.4348, 98.91846
924.9169, 64.63623
925.3990, 76.78174
925.8812, 108.7007
926.3633, 127.0308
926.8454, 126.6304
927.3275, 119.0161
927.8096, 100.0811
928.2917, 81.29834
928.7739, 67.04736
929.2560, 57.40234
929.7381, 57.72461
930.2202, 68.69775
930.7023, 76.75781
931.1844, 72.36963
931.6666, 60.95361
932.1487, 46.20752
932.6308, 29.77344
933.1129, 18.20312
933.5950, 18.63086
934.0771, 18.53271
934.5593, 14.41406
935.0414, 7.529785
935.5235, 1.967773
936.0056, 2.245117
936.4877, 9.596191
936.9698, 22.42139
937.4520, 37.01514
937.9341, 49.15918
938.4162, 59.87061
938.8983, 71.05957
939.3804, 87.93945
939.8625, 97.23096
940.3447, 92.93311
940.8268, 83.91699
941.3089, 75.36279
941.7910, 66.84277
942.2731, 73.63867
942.7552, 98.11963
943.2374, 122.4712
943.7195, 126.6753
944.2016, 123.1104
944.6837, 126.7705
945.1658, 139.5195
945.6479, 151.1968
946.1301, 161.6675
946.6122, 167.6479
947.0943, 165.6631
947.5764, 157.7053
948.0585, 157.4316
948.5406, 164.9331
949.0228, 176.3152
949.5049, 196.1204
949.9870, 213.3047
950.4691, 211.4453
950.9512, 198.3938
951.4333, 194.1519
951.9155, 211.2571
952.3976, 229.0439
952.8797, 248.1538
953.3618, 263.3418
953.8439, 260.5730
954.3260, 242.4387
954.8082, 236.0044
955.2903, 248.0188
955.7724, 266.6008
956.2545, 289.0095
956.7366, 307.7344
957.2188, 312.4465
957.7009, 293.5310
958.1830, 284.3428
958.6651, 288.1316
959.1472, 298.1555
959.6293, 311.1917
960.1115, 326.7109
960.5936, 344.2273
961.0757, 363.1289
961.5578, 375.2786
962.0399, 369.2505
962.5220, 359.9963
963.0042, 358.3677
963.4863, 363.4644
963.9684, 365.5227
964.4505, 360.8064
964.9326, 361.5874
965.4147, 373.8071
965.8969, 389.1431
966.3790, 388.2947
966.8611, 375.4062
967.3432, 362.1318
967.8253, 345.7383
968.3074, 344.3630
968.7896, 387.3264
969.2717, 440.3896
969.7538, 462.0522
970.2359, 435.5195
970.7180, 422.5754
971.2001, 426.3909
971.6823, 435.0991
972.1644, 441.7639
972.6465, 444.7327
973.1286, 438.2375
973.6107, 422.2256
974.0928, 408.6343
974.5750, 399.2620
975.0571, 398.5586
975.5392, 414.7981
976.0213, 442.5471
976.5034, 451.7756
976.9855, 440.4629
977.4677, 428.5945
977.9498, 423.1514
978.4319, 421.9092
978.9140, 424.3455
979.3961, 427.5049
979.8782, 425.7876
980.3604, 412.5747
980.8425, 400.7209
981.3246, 395.6033
981.8067, 389.9578
982.2888, 375.0127
982.7709, 350.5950
983.2531, 327.0022
983.7352, 303.2319
984.2173, 290.1135
984.6994, 307.6721
985.1815, 334.7932
985.6636, 352.3086
986.1458, 357.9558
986.6279, 358.4521
987.1100, 352.0195
987.5921, 343.6440
988.0742, 332.6660
988.5563, 321.6555
989.0385, 323.4043
989.5206, 334.8906
990.0027, 339.5420
990.4848, 325.9453
990.9669, 309.2869
991.4490, 294.9692
991.9312, 284.4675
992.4133, 281.4922
992.8954, 293.4460
993.3775, 293.2126
993.8596, 276.9104
994.3417, 256.7932
994.8239, 246.0146
995.3060, 241.3403
995.7881, 234.6169
996.2702, 225.0269
996.7523, 219.3340
997.2344, 226.6392
997.7166, 232.9236
998.1987, 228.7139
998.6808, 216.2920
999.1629, 214.6172
999.6450, 224.5068
1000.127, 232.1255
1000.609, 230.3970
1001.091, 226.3706
1001.573, 231.2422
1002.056, 239.0254
1002.538, 239.5188
1003.020, 214.9985
1003.502, 205.7268
1003.984, 225.2568
1004.466, 247.0908
1004.948, 238.7798
1005.430, 204.5134
1005.913, 180.0947
1006.395, 167.9834
1006.877, 165.8481
1007.359, 178.2820
1007.841, 194.9478
1008.323, 209.7119
1008.805, 221.4607
1009.287, 224.1309
1009.769, 213.6685
1010.252, 207.2524
1010.734, 212.0293
1011.216, 221.7783
1011.698, 223.2676
1012.180, 219.1775
1012.662, 217.3684
1013.144, 221.8313
1013.626, 227.1948
1014.109, 238.8896
1014.591, 244.9575
1015.073, 231.3875
1015.555, 193.6592
1016.037, 170.0808
1016.519, 162.0022
1017.001, 160.8079
1017.483, 164.4854
1017.965, 168.1453
1018.448, 163.5901
1018.930, 152.4084
1019.412, 148.5676
1019.894, 162.7471
1020.376, 171.7798
1020.858, 170.4990
1021.340, 161.1541
1021.822, 144.2578
1022.305, 122.6665
1022.787, 108.7385
1023.269, 107.0054
1023.751, 110.7395
1024.233, 123.6804
1024.715, 134.5291
1025.197, 128.6343
1025.679, 98.64648
1026.161, 94.83398
1026.644, 122.6819
1027.126, 152.0183
1027.608, 160.0520
1028.090, 157.6194
1028.572, 162.6145
1029.054, 172.8787
1029.536, 179.8000
1030.018, 175.3948
1030.500, 173.0193
1030.983, 176.0618
1031.465, 181.9900
1031.947, 188.6680
1032.429, 195.5850
1032.911, 194.5029
1033.393, 183.3772
1033.875, 172.3174
1034.357, 175.9399
1034.839, 179.4954
1035.322, 165.8550
1035.804, 130.6558
1036.286, 117.4390
1036.768, 132.9216
1037.250, 147.5635
1037.732, 146.6772
1038.214, 137.0930
1038.696, 132.1235
1039.179, 130.1594
1039.661, 125.7273
1040.143, 108.4846
1040.625, 100.4617
1041.107, 110.5762
1041.589, 128.5393
1042.071, 145.5801
1042.553, 161.9426
1043.036, 171.1060
1043.518, 172.5854
1044.000, 172.2769
1044.482, 178.1172
1044.964, 181.7573
1045.446, 169.5286
1045.928, 144.6633
1046.410, 144.1279
1046.892, 182.4395
1047.375, 206.6238
1047.857, 200.2664
1048.339, 180.7698
1048.821, 180.0559
1049.303, 188.5356
1049.785, 183.3201
1050.267, 150.8105
1050.749, 128.5669
1051.231, 141.3103
1051.714, 156.2388
1052.196, 150.9287
1052.678, 126.7588
1053.160, 117.8899
1053.642, 123.6946
1054.124, 132.0000
1054.606, 139.6145
1055.088, 142.8201
1055.571, 134.4404
1056.053, 119.8801
1056.535, 112.9209
1057.017, 115.1553
1057.499, 124.8242
1057.981, 145.4592
1058.463, 162.3789
1058.945, 148.6411
1059.427, 121.7993
1059.910, 118.6726
1060.392, 143.7454
1060.874, 162.9929
1061.356, 154.7883
1061.838, 149.0100
1062.320, 158.6345
1062.802, 178.1831
1063.284, 190.8245
1063.766, 195.8110
1064.249, 185.6257
1064.731, 150.0806
1065.213, 116.9365
1065.695, 107.7080
1066.177, 112.3223
1066.659, 120.2512
1067.141, 130.5967
1067.623, 140.4387
1068.106, 152.1812
1068.588, 156.8223
1069.070, 136.5273
1069.552, 111.5410
1070.034, 121.0828
1070.516, 152.5410
1070.998, 166.9092
1071.480, 129.8574
1071.963, 103.5688
1072.445, 98.74194
1072.927, 105.7236
1073.409, 116.6833
1073.891, 128.3354
1074.373, 121.4365
1074.855, 92.59424
1075.337, 70.34131
1075.819, 86.11694
1076.302, 101.4316
1076.784, 86.61133
1077.266, 49.24438
1077.748, 35.03638
1078.230, 45.87573
1078.712, 53.06372
1079.194, 44.73047
1079.676, 33.86353
1080.159, 36.91431
1080.641, 45.55762
1081.123, 48.73853
1081.605, 42.18701
1082.087, 34.18262
1082.569, 22.79785
1083.051, 14.44971
1083.533, 13.54956
1084.016, 18.64941
1084.498, 28.89038
1084.980, 42.09546
1085.462, 50.70215
1085.944, 46.95728
1086.426, 44.02686
1086.908, 48.39429
1087.390, 52.32935
1087.872, 41.51050
1088.354, 18.09253
1088.837, 11.85645
1089.319, 26.15503
1089.801, 36.77759
1090.283, 14.30469
1090.765, 8.264893
1091.247, 3.022217
1091.729, 24.71045
1092.211, 40.98340
1092.694, 45.15356
1093.176, 39.77783
1093.658, 21.55908
1094.140, 4.994629
1094.622, 16.81958
1095.104, 37.41748
1095.586, 36.60669
1096.068, 1.474121
1096.551, 16.85645
1097.033, 3.940918
1097.515, 25.82446
1097.997, 29.19141
1098.479, 20.94458
1098.961, 16.56152
1099.443, 16.65942
1099.925, 23.50195
1100.407, 52.03809
1100.890, 68.04126
1101.372, 53.67407
1101.854, 31.35620
1102.336, 24.19727
1102.818, 30.62793
1103.300, 16.48291
1103.782, 17.69946
1104.264, 40.82373
1104.746, 18.23047
1105.229, 9.190186
1105.711, 16.32056
1106.193, 8.356445
1106.675, 1.708496
1107.157, 2.940186
1107.639, 11.24487
1108.121, 25.71069
1108.603, 35.91528
1109.086, 28.52466
1109.568, 12.77881
1110.050, 3.346924
1110.532, 18.98315
1111.014, 25.01172
1111.496, 17.57373
1111.978, 8.684326
1112.460, 1.012939
1112.943, 4.255615
1113.425, 3.446289
1113.907, 1.110840
1114.389, 4.885742
1114.871, 6.732178
1115.353, 7.609619
1115.835, 2.665771
1116.317, 3.032471
1116.799, 19.89917
1117.281, 47.53613
1117.764, 52.88770
1118.246, 39.68433
1118.728, 25.52368
1119.210, 14.60498
1119.692, 10.16699
1120.174, 20.33643
1120.656, 33.51440
1121.138, 38.28516
1121.621, 34.68555
1122.103, 19.36646
1122.585, 7.978027
1123.067, 31.71313
1123.549, 43.34033
1124.031, 45.13184
1124.513, 32.37329
1124.995, 11.24219
1125.478, 2.140869
1125.960, 8.216553
1126.442, 15.16650
1126.924, 22.62964
1127.406, 22.62085
1127.888, 5.100586
1128.370, 37.79639
1128.852, 44.52319
1129.334, 22.49731
1129.817, 12.30713
1130.299, 23.15967
1130.781, 31.04517
1131.263, 27.92676
1131.745, 20.22974
1132.227, 17.53101
1132.709, 18.85547
1133.191, 22.56030
1133.673, 28.65137
1134.156, 36.19922
1134.638, 47.83325
1135.120, 56.93408
1135.602, 60.56812
1136.084, 59.23511
1136.566, 49.45825
1137.048, 35.46851
1137.530, 31.81250
1138.013, 52.67993
1138.495, 71.72803
1138.977, 80.64917
1139.459, 82.31128
1139.941, 73.83838
1140.423, 55.76343
1140.905, 59.06567
1141.387, 82.18408
1141.870, 105.6504
1142.352, 124.1714
1142.834, 133.6450
1143.316, 128.8381
1143.798, 114.5996
1144.280, 95.96411
1144.762, 71.12207
1145.244, 63.74072
1145.726, 76.21924
1146.208, 93.38379
1146.691, 107.1514
1147.173, 117.0627
1147.655, 124.2571
1148.137, 127.7268
1148.619, 118.5942
1149.101, 92.21631
1149.583, 78.12061
1150.065, 82.29419
1150.548, 93.68091
1151.030, 103.8474
1151.512, 112.1104
1151.994, 118.6265
1152.476, 123.3333
1152.958, 120.7661
1153.440, 105.4419
1153.922, 98.68042
1154.405, 109.2769
1154.887, 126.2905
1155.369, 130.6338
1155.851, 128.0347
1156.333, 128.9514
1156.815, 137.5239
1157.297, 138.3650
1157.779, 129.8091
1158.261, 113.7827
1158.744, 85.65479
1159.226, 55.71167
1159.708, 51.43555
1160.190, 65.09912
1160.672, 78.28101
1161.154, 86.45312
1161.636, 90.28247
1162.118, 91.39307
1162.600, 87.47266
1163.083, 67.75537
1163.565, 39.35962
1164.047, 42.25659
1164.529, 68.55469
1165.011, 87.14941
1165.493, 77.44946
1165.975, 64.94116
1166.457, 56.60669
1166.940, 50.54053
1167.422, 43.88232
1167.904, 36.69189
1168.386, 32.62646
1168.868, 31.98608
1169.350, 37.07568
1169.832, 61.22290
1170.314, 77.61401
1170.797, 70.18115
1171.279, 50.25317
1171.761, 27.21655
1172.243, 1.739014
1172.725, 2.891113
1173.207, 15.01660
1173.689, 32.94849
1174.171, 35.00146
1174.653, 32.31592
1175.135, 26.70166
1175.618, 22.75098
1176.100, 35.01807
1176.582, 64.01514
1177.064, 75.26050
1177.546, 61.88013
1178.028, 48.37207
1178.510, 60.16455
1178.992, 75.31299
1179.475, 76.30981
1179.957, 65.50342
1180.439, 55.69580
1180.921, 45.86450
1181.403, 33.67603
1181.885, 17.37158
1182.367, 7.175049
1182.849, 17.30493
1183.332, 33.69019
1183.814, 43.37671
1184.296, 45.71948
1184.778, 50.58936
1185.260, 59.51318
1185.742, 63.40796
1186.224, 56.34521
1186.706, 45.06396
1187.188, 32.43237
1187.671, 22.26221
1188.153, 20.52661
1188.635, 28.81592
1189.117, 34.96484
1189.599, 38.72290
1190.081, 41.99390
1190.563, 46.86450
1191.045, 49.68213
1191.527, 43.69312
1192.010, 33.94165
1192.492, 28.33472
1192.974, 31.05664
1193.456, 23.44678
1193.938, 2.063232
1194.420, 10.79785
1194.902, 7.004639
1195.384, 30.94043
1195.867, 25.07031
1196.349, 4.357910
1196.831, 3.151855
1197.313, 13.06250
1197.795, 27.60449
1198.277, 41.17822
1198.759, 49.83936
1199.241, 46.95215
1199.724, 40.05566
1200.206, 41.27148
1200.688, 46.12549
1201.170, 42.92627
1201.652, 24.23486
1202.134, 9.386719
1202.616, 2.678223
1203.098, 3.358398
1203.580, 33.63232
1204.063, 73.47998
1204.545, 58.78027
1205.027, 6.138672
1205.509, 22.96704
1205.991, 9.975098
1206.473, 2.130371
1206.955, 9.506348
1207.437, 16.51270
1207.919, 28.70410
1208.402, 42.38916
1208.884, 53.60840
1209.366, 62.09717
1209.848, 67.12500
1210.330, 67.23047
1210.812, 68.80176
1211.294, 73.70410
1211.776, 76.68945
1212.259, 66.56689
1212.741, 54.36572
1213.223, 59.07764
1213.705, 78.95996
1214.187, 85.19189
1214.669, 69.12109
1215.151, 56.91846
1215.633, 52.16260
1216.115, 57.13086
1216.598, 86.09717
1217.080, 119.8584
1217.562, 129.9697
1218.044, 114.6406
1218.526, 103.0562
1219.008, 95.79590
1219.490, 97.74072
1219.972, 111.6724
1220.454, 129.6621
1220.937, 145.4673
1221.419, 156.7944
1221.901, 160.7866
1222.383, 156.6855
1222.865, 144.5747
1223.347, 119.5098
1223.829, 106.9932
1224.311, 117.1138
1224.794, 134.0908
1225.276, 143.7290
1225.758, 144.9985
1226.240, 133.1831
1226.722, 106.6143
1227.204, 92.69580
1227.686, 94.63721
1228.168, 95.21973
1228.651, 87.88672
1229.133, 79.89307
1229.615, 79.50000
1230.097, 84.02686
1230.579, 93.33398
1231.061, 109.5986
1231.543, 107.3208
1232.025, 83.06201
1232.507, 69.24805
1232.990, 82.11133
1233.472, 99.77588
1233.954, 94.25195
1234.436, 81.90625
1234.918, 83.69482
1235.400, 102.0962
1235.882, 112.7017
1236.364, 114.9702
1236.846, 114.4146
1237.329, 111.8145
1237.811, 110.1968
1238.293, 115.2739
1238.775, 121.1733
1239.257, 119.7339
1239.739, 110.5356
1240.221, 107.8970
1240.703, 112.0259
1241.186, 115.0361
1241.668, 113.1313
1242.150, 109.6919
1242.632, 106.9502
1243.114, 104.6152
1243.596, 102.5249
1244.078, 100.7100
1244.560, 98.39990
1245.042, 95.67090
1245.525, 93.32129
1246.007, 90.24512
1246.489, 90.02148
1246.971, 94.82861
1247.453, 102.6006
1247.935, 113.5400
1248.417, 127.0010
1248.899, 123.6782
1249.381, 105.8105
1249.864, 91.49951
1250.346, 92.01953
1250.828, 92.78271
1251.310, 86.30664
1251.792, 74.34082
1252.274, 57.97949
1252.756, 38.80762
1253.238, 50.50439
1253.721, 86.25635
1254.203, 110.5093
1254.685, 102.8311
1255.167, 89.26807
1255.649, 73.73633
1256.131, 61.26611
1256.613, 57.42627
1257.095, 59.75977
1257.578, 54.56836
1258.060, 44.77490
1258.542, 40.93408
1259.024, 49.63184
1259.506, 60.93945
1259.988, 76.18408
1260.470, 87.96289
1260.952, 91.21338
1261.434, 86.59619
1261.917, 70.79883
1262.399, 49.13623
1262.881, 35.58594
1263.363, 35.48926
1263.845, 45.57080
1264.327, 72.00537
1264.809, 91.48682
1265.291, 80.40869
1265.773, 55.83936
1266.256, 45.65234
1266.738, 47.24756
1267.220, 55.64111
1267.702, 82.13916
1268.184, 86.59082
1268.666, 62.94580
1269.148, 43.41357
1269.630, 60.42188
1270.113, 84.91455
1270.595, 78.18311
1271.077, 53.44678
1271.559, 35.01221
1272.041, 25.85449
1272.523, 21.18848
1273.005, 21.74854
1273.487, 19.92822
1273.969, 5.625977
1274.452, 7.383301
1274.934, 8.588867
1275.416, 0.1318360
1275.898, 18.26367
1276.380, 49.00000
1276.862, 57.91602
1277.344, 45.84180
1277.826, 33.17529
1278.308, 30.17139
1278.791, 31.87158
1279.273, 37.34033
1279.755, 44.81250
1280.237, 55.50635
1280.719, 68.44580
1281.201, 60.86182
1281.683, 36.30127
1282.165, 16.90625
1282.648, 17.56396
1283.130, 18.98828
1283.612, 13.96289
1284.094, 8.584473
1284.576, 6.224609
1285.058, 7.412598
1285.540, 16.68799
1286.022, 29.79834
1286.505, 39.76660
1286.987, 52.59424
1287.469, 48.34961
1287.951, 15.49805
1288.433, 10.78809
1288.915, 3.062988
1289.397, 34.86670
1289.879, 34.83057
1290.361, 16.85059
1290.844, 11.03369
1291.326, 34.36328
1291.808, 49.73389
1292.290, 57.45654
1292.772, 56.60352
1293.254, 25.76172
1293.736, 6.765625
1294.218, 11.05518
1294.700, 26.33008
1295.183, 33.06348
1295.665, 33.33545
1296.147, 26.02881
1296.629, 12.05469
1297.111, 0.0000000E+00
##END=



