##NAMES=Edgarbaileyite
##RRUFFID=R060500
##IDEAL CHEMISTRY=Hg^1+^_6_Si_2_O_7_
##LOCALITY=Clear Creek claim, southern San Benito County, California, USA
##OWNER=RRUFF
##SOURCE=Michael Scott
##DESCRIPTION=Green-yellow crust associated with quartz, cinnabar and red prismatic montroydite, R070235
##STATUS=The identification of this mineral is not yet confirmed.
##URL=rruff.info/R060500
113.326, 0.000
113.808, 46.078
114.290, 30.292
114.772, 31.917
115.255, 72.607
115.737, 262.552
116.219, 504.303
116.701, 797.741
117.183, 1116.437
117.665, 1441.564
118.147, 1762.240
118.629, 2112.476
119.112, 2504.767
119.594, 2931.753
120.076, 3383.376
120.558, 3871.207
121.040, 4364.295
121.522, 4836.588
122.004, 5284.475
122.486, 5707.423
122.968, 6085.949
123.451, 6428.399
123.933, 6785.168
124.415, 7172.867
124.897, 7591.428
125.379, 8049.596
125.861, 8589.581
126.343, 9122.819
126.825, 9612.467
127.307, 10053.021
127.790, 10256.023
128.272, 9995.018
128.754, 9345.221
129.236, 8539.868
129.718, 7548.186
130.200, 6470.118
130.682, 5562.520
131.164, 4854.258
131.646, 4326.268
132.129, 3944.596
132.611, 3705.858
133.093, 3534.038
133.575, 3412.775
134.057, 3350.500
134.539, 3304.047
135.021, 3271.817
135.503, 3254.039
135.986, 3245.058
136.468, 3255.818
136.950, 3285.866
137.432, 3323.084
137.914, 3341.546
138.396, 3307.503
138.878, 3250.100
139.360, 3162.663
139.842, 3006.386
140.325, 2761.193
140.807, 2489.816
141.289, 2247.261
141.771, 2042.528
142.253, 1831.869
142.735, 1605.107
143.217, 1360.922
143.699, 1137.509
144.182, 934.285
144.664, 750.198
145.146, 581.424
145.628, 416.478
146.110, 285.135
146.592, 203.181
147.074, 184.940
147.556, 150.407
148.038, 83.417
148.521, 4.216
149.003, 55.347
149.485, 90.174
149.967, 111.911
150.449, 120.468
150.931, 96.230
151.413, 96.115
151.895, 137.663
152.378, 91.892
152.860, 45.176
153.342, 21.699
153.824, 9.685
154.306, 5.866
154.788, 28.012
155.270, 36.111
155.752, 14.664
156.234, 27.640
156.717, 56.184
157.199, 59.235
157.681, 48.348
158.163, 30.387
158.645, 6.548
159.127, 23.887
159.609, 64.668
160.091, 114.494
160.574, 160.775
161.056, 185.027
161.538, 164.353
162.020, 129.100
162.502, 69.830
162.984, 0.679
163.466, 81.263
163.948, 172.128
164.430, 257.296
164.913, 323.842
165.395, 380.400
165.877, 439.724
166.359, 514.999
166.841, 589.338
167.323, 648.508
167.805, 688.614
168.287, 730.881
168.770, 796.489
169.252, 874.101
169.734, 942.548
170.216, 973.932
170.698, 1000.366
171.180, 1035.270
171.662, 1108.647
172.144, 1195.406
172.626, 1273.041
173.109, 1348.366
173.591, 1433.315
174.073, 1544.497
174.555, 1667.576
175.037, 1780.363
175.519, 1866.032
176.001, 1963.131
176.483, 2112.012
176.965, 2310.469
177.448, 2539.039
177.930, 2794.713
178.412, 3070.006
178.894, 3347.497
179.376, 3609.186
179.858, 3881.156
180.340, 4209.122
180.822, 4588.204
181.305, 4984.930
181.787, 5381.914
182.269, 5771.157
182.751, 6126.378
183.233, 6480.000
183.715, 6772.838
184.197, 6848.754
184.679, 6701.097
185.161, 6455.631
185.644, 6178.213
186.126, 5890.399
186.608, 5676.783
187.090, 5558.952
187.572, 5540.428
188.054, 5641.303
188.536, 5865.898
189.018, 6181.334
189.501, 6550.415
189.983, 6968.845
190.465, 7452.818
190.947, 8007.221
191.429, 8633.491
191.911, 9306.774
192.393, 10024.325
192.875, 10793.173
193.357, 11642.229
193.840, 12573.365
194.322, 13538.152
194.804, 14529.407
195.286, 15544.413
195.768, 16608.572
196.250, 17723.766
196.732, 18881.791
197.214, 20103.359
197.697, 21397.475
198.179, 22682.924
198.661, 23974.572
199.143, 25278.514
199.625, 26416.545
200.107, 27432.510
200.589, 28235.871
201.071, 28638.799
201.553, 28634.238
202.036, 28256.199
202.518, 27481.547
203.000, 26286.537
203.482, 24874.814
203.964, 23194.279
204.446, 21345.471
204.928, 19609.467
205.410, 17973.842
205.893, 16479.312
206.375, 15173.356
206.857, 14055.814
207.339, 13075.825
207.821, 12247.221
208.303, 11551.233
208.785, 10909.227
209.267, 10322.101
209.749, 9775.626
210.232, 9267.832
210.714, 8797.846
211.196, 8361.979
211.678, 7969.183
212.160, 7611.223
212.642, 7240.419
213.124, 6846.579
213.606, 6459.325
214.089, 6103.963
214.571, 5779.319
215.053, 5476.745
215.535, 5196.314
216.017, 4935.623
216.499, 4675.722
216.981, 4407.583
217.463, 4145.535
217.945, 3903.330
218.428, 3691.269
218.910, 3479.821
219.392, 3264.055
219.874, 3044.657
220.356, 2857.027
220.838, 2708.500
221.320, 2576.096
221.802, 2445.171
222.285, 2314.853
222.767, 2192.042
223.249, 2079.861
223.731, 1980.252
224.213, 1880.607
224.695, 1775.732
225.177, 1672.032
225.659, 1573.554
226.141, 1478.321
226.624, 1394.601
227.106, 1325.512
227.588, 1272.259
228.070, 1225.304
228.552, 1192.788
229.034, 1159.888
229.516, 1105.712
229.998, 1006.473
230.480, 927.357
230.963, 889.827
231.445, 901.447
231.927, 900.860
232.409, 882.276
232.891, 856.148
233.373, 834.808
233.855, 823.406
234.337, 803.683
234.820, 766.607
235.302, 704.879
235.784, 670.802
236.266, 681.857
236.748, 708.650
237.230, 707.669
237.712, 656.211
238.194, 613.652
238.676, 600.761
239.159, 626.259
239.641, 638.833
240.123, 635.997
240.605, 622.196
241.087, 601.629
241.569, 562.195
242.051, 535.311
242.533, 536.972
243.016, 580.244
243.498, 593.746
243.980, 561.783
244.462, 509.742
244.944, 477.436
245.426, 474.610
245.908, 475.154
246.390, 471.069
246.872, 460.220
247.355, 451.408
247.837, 442.629
248.319, 436.856
248.801, 440.282
249.283, 459.150
249.765, 476.044
250.247, 485.742
250.729, 487.788
251.212, 482.774
251.694, 460.511
252.176, 438.746
252.658, 448.286
253.140, 503.593
253.622, 565.076
254.104, 621.960
254.586, 673.824
255.068, 722.205
255.551, 762.982
256.033, 803.604
256.515, 857.845
256.997, 935.872
257.479, 1007.738
257.961, 1057.698
258.443, 1074.229
258.925, 1128.849
259.408, 1235.552
259.890, 1368.274
260.372, 1488.403
260.854, 1591.567
261.336, 1691.803
261.818, 1801.504
262.300, 1928.577
262.782, 2014.453
263.264, 2066.425
263.746, 2069.350
264.229, 1995.623
264.711, 1829.716
265.193, 1623.063
265.675, 1374.940
266.157, 1075.924
266.639, 824.053
267.121, 623.519
267.603, 465.904
268.086, 341.275
268.568, 257.265
269.050, 186.310
269.532, 121.161
270.014, 62.054
270.496, 10.805
270.978, 31.087
271.460, 65.166
271.943, 93.130
272.425, 85.482
272.907, 65.286
273.389, 49.598
273.871, 38.649
274.353, 22.748
274.835, 0.815
275.317, 23.396
275.799, 31.723
276.282, 22.780
276.764, 17.539
277.246, 27.535
277.728, 50.692
278.210, 50.998
278.692, 23.604
279.174, 14.492
279.656, 47.075
280.138, 73.570
280.621, 55.031
281.103, 54.043
281.585, 68.141
282.067, 55.452
282.549, 39.731
283.031, 28.928
283.513, 32.811
283.995, 51.407
284.478, 61.312
284.960, 53.406
285.442, 31.836
285.924, 11.051
286.406, 10.210
286.888, 23.357
287.370, 12.956
287.852, 18.476
288.335, 38.351
288.817, 31.366
289.299, 9.646
289.781, 9.367
290.263, 31.552
290.745, 41.007
291.227, 13.721
291.709, 10.052
292.191, 29.753
292.674, 44.481
293.156, 55.801
293.638, 65.493
294.120, 73.521
294.602, 84.185
295.084, 102.089
295.566, 125.706
296.048, 149.723
296.530, 173.677
297.013, 197.250
297.495, 218.794
297.977, 238.992
298.459, 260.250
298.941, 287.599
299.423, 317.802
299.905, 341.734
300.387, 353.982
300.870, 366.641
301.352, 394.572
301.834, 436.686
302.316, 486.441
302.798, 542.924
303.280, 602.958
303.762, 661.510
304.244, 714.663
304.727, 771.499
305.209, 843.978
305.691, 927.705
306.173, 1010.634
306.655, 1079.667
307.137, 1142.978
307.619, 1206.571
308.101, 1269.171
308.583, 1342.897
309.065, 1430.188
309.548, 1533.591
310.030, 1660.536
310.512, 1841.006
310.994, 2031.682
311.476, 2190.580
311.958, 2305.773
312.440, 2431.942
312.922, 2598.485
313.405, 2798.531
313.887, 3021.579
314.369, 3268.298
314.851, 3533.101
315.333, 3810.099
315.815, 4096.911
316.297, 4412.587
316.779, 4771.352
317.262, 5159.143
317.744, 5564.497
318.226, 5984.168
318.708, 6417.168
319.190, 6866.781
319.672, 7333.215
320.154, 7813.784
320.636, 8316.081
321.118, 8830.083
321.601, 9346.063
322.083, 9845.973
322.565, 10360.113
323.047, 10903.569
323.529, 11476.859
324.011, 12028.111
324.493, 12573.768
324.975, 13082.349
325.457, 13533.387
325.940, 13931.129
326.422, 14264.611
326.904, 14536.171
327.386, 14744.614
327.868, 14865.361
328.350, 14889.885
328.832, 14832.834
329.314, 14700.156
329.797, 14463.771
330.279, 14191.843
330.761, 13898.062
331.243, 13572.499
331.725, 13190.253
332.207, 12727.782
332.689, 12236.646
333.171, 11739.368
333.654, 11233.198
334.136, 10721.694
334.618, 10200.328
335.100, 9680.618
335.582, 9175.715
336.064, 8690.871
336.546, 8226.851
337.028, 7781.826
337.510, 7358.824
337.992, 6952.455
338.475, 6560.309
338.957, 6189.438
339.439, 5835.562
339.921, 5501.188
340.403, 5194.720
340.885, 4925.990
341.367, 4690.214
341.849, 4460.136
342.332, 4231.271
342.814, 4016.503
343.296, 3832.573
343.778, 3679.854
344.260, 3530.093
344.742, 3372.724
345.224, 3216.942
345.706, 3096.778
346.189, 3013.280
346.671, 2939.189
347.153, 2849.091
347.635, 2748.089
348.117, 2662.829
348.599, 2602.468
349.081, 2558.678
349.563, 2509.138
350.045, 2455.630
350.528, 2420.615
351.010, 2433.216
351.492, 2471.712
351.974, 2492.894
352.456, 2487.538
352.938, 2475.693
353.420, 2503.864
353.902, 2547.192
354.384, 2537.103
354.867, 2428.692
355.349, 2251.821
355.831, 2021.334
356.313, 1732.349
356.795, 1448.249
357.277, 1203.415
357.759, 994.189
358.241, 818.312
358.724, 684.970
359.206, 578.764
359.688, 499.617
360.170, 446.699
360.652, 391.475
361.134, 315.671
361.616, 233.321
362.098, 157.282
362.581, 77.538
363.063, 19.016
363.545, 3.362
364.027, 22.260
364.509, 26.854
364.991, 5.687
365.473, 49.644
365.955, 90.290
366.437, 131.968
366.919, 125.180
367.402, 119.723
367.884, 127.478
368.366, 129.344
368.848, 128.013
369.330, 117.612
369.812, 93.666
370.294, 45.621
370.776, 11.523
371.259, 1.410
371.741, 4.210
372.223, 13.437
372.705, 36.025
373.187, 53.266
373.669, 60.621
374.151, 57.871
374.633, 48.291
375.116, 29.353
375.598, 7.990
376.080, 5.244
376.562, 5.470
377.044, 20.539
377.526, 58.759
378.008, 115.538
378.490, 172.607
378.973, 198.032
379.455, 175.187
379.937, 132.637
380.419, 97.182
380.901, 89.926
381.383, 46.281
381.865, 17.215
382.347, 11.279
382.829, 52.087
383.311, 149.149
383.794, 192.116
384.276, 232.914
384.758, 319.311
385.240, 333.374
385.722, 382.061
386.204, 452.555
386.686, 538.763
387.168, 627.339
387.651, 711.291
388.133, 795.860
388.615, 883.998
389.097, 976.648
389.579, 1080.182
390.061, 1202.717
390.543, 1336.260
391.025, 1476.876
391.508, 1642.752
391.990, 1790.154
392.472, 1909.683
392.954, 1995.681
393.436, 2021.298
393.918, 1927.861
394.400, 1803.290
394.882, 1698.300
395.364, 1614.588
395.847, 1565.923
396.329, 1559.384
396.811, 1589.531
397.293, 1646.220
397.775, 1732.154
398.257, 1840.863
398.739, 1980.130
399.221, 2164.775
399.703, 2314.592
400.186, 2444.810
400.668, 2530.137
401.150, 2543.506
401.632, 2444.916
402.114, 2337.596
402.596, 2237.493
403.078, 2142.277
403.560, 2028.434
404.043, 1870.042
404.525, 1738.542
405.007, 1690.604
405.489, 1747.859
405.971, 1776.778
406.453, 1751.697
406.935, 1710.275
407.417, 1743.261
407.900, 1857.941
408.382, 1974.603
408.864, 2046.828
409.346, 2082.543
409.828, 2141.326
410.310, 2224.924
410.792, 2326.950
411.274, 2416.652
411.756, 2510.901
412.238, 2591.460
412.721, 2777.718
413.203, 2938.480
413.685, 3075.090
414.167, 3114.937
414.649, 3280.002
415.131, 3406.605
415.613, 3547.390
416.095, 3698.444
416.578, 3842.059
417.060, 3983.538
417.542, 4122.387
418.024, 4262.835
418.506, 4416.904
418.988, 4598.963
419.470, 4789.745
419.952, 4971.747
420.435, 5141.224
420.917, 5322.473
421.399, 5533.497
421.881, 5760.358
422.363, 5985.640
422.845, 6201.090
423.327, 6415.447
423.809, 6624.190
424.291, 6827.269
424.774, 7051.822
425.256, 7329.874
425.738, 7605.299
426.220, 7844.108
426.702, 8064.500
427.184, 8339.642
427.666, 8602.102
428.148, 8852.730
428.630, 9053.853
429.113, 9319.682
429.595, 9559.824
430.077, 9798.930
430.559, 10072.903
431.041, 10279.719
431.523, 10551.955
432.005, 10798.231
432.487, 11039.073
432.970, 11224.035
433.452, 11426.654
433.934, 11628.297
434.416, 11818.281
434.898, 11976.785
435.380, 12105.074
435.862, 12205.733
436.344, 12286.198
436.827, 12340.866
437.309, 12358.466
437.791, 12337.029
438.273, 12282.231
438.755, 12179.881
439.237, 12048.413
439.719, 11924.456
440.201, 11846.042
440.683, 11766.581
441.165, 11644.407
441.648, 11476.869
442.130, 11303.733
442.612, 11129.665
443.094, 10966.612
443.576, 10826.044
444.058, 10695.854
444.540, 10604.876
445.022, 10556.562
445.505, 10552.435
445.987, 10599.557
446.469, 10721.413
446.951, 10876.165
447.433, 11037.714
447.915, 11167.382
448.397, 11404.781
448.879, 11790.807
449.362, 12261.627
449.844, 12729.012
450.326, 13165.769
450.808, 13656.389
451.290, 14204.724
451.772, 14816.830
452.254, 15533.188
452.736, 16355.783
453.218, 17250.027
453.701, 18197.129
454.183, 19181.594
454.665, 20228.596
455.147, 21330.637
455.629, 22491.480
456.111, 23701.695
456.593, 24956.928
457.075, 26312.158
457.557, 27776.457
458.040, 29353.455
458.522, 31068.768
459.004, 32936.594
459.486, 34843.863
459.968, 36699.668
460.450, 38541.387
460.932, 40414.844
461.414, 42524.785
461.897, 44446.031
462.379, 46062.961
462.861, 47321.148
463.343, 48006.727
463.825, 48149.227
464.307, 47617.215
464.789, 46275.113
465.271, 43963.859
465.754, 41323.699
466.236, 38232.688
466.718, 34975.172
467.200, 31820.219
467.682, 28717.123
468.164, 25825.525
468.646, 23157.662
469.128, 20697.826
469.610, 18518.549
470.093, 16676.658
470.575, 15064.037
471.057, 13642.313
471.539, 12427.474
472.021, 11335.671
472.503, 10359.180
472.985, 9493.723
473.467, 8740.772
473.949, 8108.961
474.432, 7530.021
474.914, 6981.875
475.396, 6467.862
475.878, 6001.521
476.360, 5583.361
476.842, 5217.142
477.324, 4930.991
477.806, 4698.708
478.289, 4475.124
478.771, 4251.523
479.253, 4031.787
479.735, 3818.177
480.217, 3612.402
480.699, 3417.943
481.181, 3234.210
481.663, 3063.043
482.146, 2900.472
482.628, 2745.769
483.110, 2603.166
483.592, 2482.956
484.074, 2367.621
484.556, 2245.742
485.038, 2093.627
485.520, 1961.806
486.002, 1866.688
486.484, 1794.490
486.967, 1708.340
487.449, 1598.304
487.931, 1480.955
488.413, 1361.673
488.895, 1238.761
489.377, 1146.210
489.859, 1092.789
490.341, 1050.545
490.824, 998.248
491.306, 937.957
491.788, 874.781
492.270, 808.794
492.752, 741.639
493.234, 674.051
493.716, 608.481
494.198, 555.727
494.681, 540.075
495.163, 538.344
495.645, 498.290
496.127, 413.601
496.609, 333.145
497.091, 306.446
497.573, 307.864
498.055, 300.959
498.537, 272.663
499.020, 234.727
499.502, 184.115
499.984, 127.367
500.466, 83.360
500.948, 71.139
501.430, 64.081
501.912, 49.924
502.394, 27.105
502.876, 0.072
503.359, 40.858
503.841, 80.793
504.323, 106.490
504.805, 114.332
505.287, 114.753
505.769, 106.279
506.251, 92.181
506.733, 84.874
507.216, 85.852
507.698, 89.525
508.180, 93.218
508.662, 97.168
509.144, 102.552
509.626, 103.818
510.108, 89.495
510.590, 71.197
511.073, 50.385
511.555, 31.860
512.037, 15.837
512.519, 4.370
513.001, 1.861
513.483, 6.860
513.965, 14.012
514.447, 13.866
514.929, 18.902
515.412, 48.214
515.894, 34.548
516.376, 8.648
516.858, 16.656
517.340, 62.028
517.822, 20.471
518.304, 14.231
518.786, 9.382
519.268, 1.785
519.751, 16.087
520.233, 22.233
520.715, 16.411
521.197, 8.520
521.679, 1.804
522.161, 4.020
522.643, 13.390
523.125, 28.795
523.607, 32.958
524.090, 22.825
524.572, 16.670
525.054, 34.626
525.536, 18.659
526.018, 14.509
526.500, 7.515
526.982, 13.148
527.464, 26.510
527.947, 29.908
528.429, 26.939
528.911, 19.138
529.393, 6.849
529.875, 0.105
530.357, 12.097
530.839, 29.684
531.321, 37.864
531.804, 20.531
532.286, 12.063
532.768, 35.779
533.250, 75.930
533.732, 98.309
534.214, 87.264
534.696, 68.752
535.178, 46.460
535.661, 19.973
536.143, 24.328
536.625, 31.290
537.107, 37.801
537.589, 56.240
538.071, 89.428
538.553, 115.686
539.035, 133.893
539.517, 144.242
540.000, 147.261
540.482, 142.628
540.964, 129.272
541.446, 99.749
541.928, 66.038
542.410, 52.294
542.892, 57.199
543.374, 65.974
543.856, 79.678
544.339, 85.625
544.821, 64.035
545.303, 83.626
545.785, 130.887
546.267, 107.177
546.749, 54.698
547.231, 67.009
547.713, 70.776
548.195, 106.449
548.678, 111.466
549.160, 91.915
549.642, 83.518
550.124, 91.053
550.606, 103.661
551.088, 117.931
551.570, 134.651
552.052, 146.595
552.534, 151.632
553.017, 156.889
553.499, 170.300
553.981, 191.647
554.463, 216.346
554.945, 244.768
555.427, 273.775
555.909, 298.541
556.391, 319.354
556.874, 336.929
557.356, 349.427
557.838, 360.184
558.320, 373.386
558.802, 389.174
559.284, 403.456
559.766, 401.371
560.248, 404.105
560.731, 430.839
561.213, 501.893
561.695, 563.334
562.177, 611.938
562.659, 645.278
563.141, 658.135
563.623, 641.671
564.105, 619.197
564.588, 590.718
565.070, 557.721
565.552, 538.203
566.034, 536.451
566.516, 534.326
566.998, 519.554
567.480, 493.370
567.962, 469.366
568.444, 448.430
568.927, 428.575
569.409, 410.104
569.891, 390.911
570.373, 365.757
570.855, 328.459
571.337, 290.756
571.819, 259.019
572.301, 234.460
572.783, 218.444
573.266, 220.720
573.748, 225.154
574.230, 223.728
574.712, 211.349
575.194, 193.099
575.676, 170.738
576.158, 149.027
576.640, 131.696
577.122, 118.894
577.605, 111.574
578.087, 114.041
578.569, 118.089
579.051, 105.001
579.533, 70.985
580.015, 52.453
580.497, 66.365
580.979, 97.155
581.461, 99.670
581.944, 76.669
582.426, 60.232
582.908, 80.595
583.390, 115.166
583.872, 125.503
584.354, 109.133
584.836, 92.854
585.318, 93.241
585.801, 101.661
586.283, 109.629
586.765, 113.744
587.247, 118.080
587.729, 127.123
588.211, 138.190
588.693, 142.247
589.175, 132.714
589.657, 122.730
590.140, 114.626
590.622, 110.340
591.104, 108.980
591.586, 110.295
592.068, 114.194
592.550, 122.002
593.032, 132.955
593.515, 138.939
593.997, 140.297
594.479, 140.202
594.961, 141.179
595.443, 142.247
595.925, 142.189
596.407, 145.636
596.889, 141.054
597.371, 110.668
597.854, 65.806
598.336, 31.304
598.818, 15.668
599.300, 15.998
599.782, 43.468
600.264, 96.984
600.746, 116.341
601.228, 63.696
601.710, 8.795
602.193, 10.044
602.675, 24.845
603.157, 43.068
603.639, 37.582
604.121, 23.733
604.603, 17.701
605.085, 23.258
605.567, 30.955
606.049, 39.234
606.532, 45.220
607.014, 44.785
607.496, 39.927
607.978, 37.473
608.460, 36.307
608.942, 41.995
609.424, 67.022
609.906, 108.758
610.388, 138.084
610.871, 132.198
611.353, 117.687
611.835, 111.308
612.317, 120.065
612.799, 122.394
613.281, 112.789
613.763, 99.757
614.245, 93.631
614.728, 99.349
615.210, 95.232
615.692, 73.035
616.174, 45.579
616.656, 46.303
617.138, 74.501
617.620, 94.946
618.102, 83.645
618.584, 58.816
619.067, 58.009
619.549, 78.276
620.031, 96.318
620.513, 90.986
620.995, 79.909
621.477, 79.225
621.959, 92.305
622.442, 108.662
622.924, 128.089
623.406, 147.210
623.888, 162.881
624.370, 173.287
624.852, 182.464
625.334, 191.424
625.816, 198.698
626.298, 199.074
626.781, 189.230
627.263, 187.745
627.745, 201.047
628.227, 226.246
628.709, 260.182
629.191, 301.874
629.673, 333.231
630.155, 327.250
630.638, 310.064
631.120, 325.724
631.602, 377.371
632.084, 423.748
632.566, 428.491
633.048, 421.558
633.530, 430.846
634.012, 472.599
634.494, 510.319
634.977, 527.431
635.459, 541.087
635.941, 575.077
636.423, 640.111
636.905, 705.613
637.387, 771.423
637.869, 830.830
638.351, 868.428
638.833, 885.102
639.316, 867.910
639.798, 794.448
640.280, 685.661
640.762, 591.907
641.244, 513.470
641.726, 444.589
642.208, 381.775
642.690, 325.148
643.172, 273.785
643.655, 226.928
644.137, 189.477
644.619, 169.307
645.101, 156.225
645.583, 140.384
646.065, 108.158
646.547, 90.790
647.029, 97.491
647.511, 115.126
647.994, 119.083
648.476, 107.047
648.958, 90.212
649.440, 68.231
649.922, 45.960
650.404, 42.081
650.886, 54.956
651.369, 66.426
651.851, 64.107
652.333, 54.159
652.815, 42.512
653.297, 29.716
653.779, 21.773
654.261, 24.397
654.743, 31.952
655.225, 40.971
655.708, 54.012
656.190, 59.783
656.672, 52.887
657.154, 41.877
657.636, 16.680
658.118, 5.599
658.600, 14.023
659.082, 22.993
659.565, 21.460
660.047, 18.913
660.529, 8.773
661.011, 18.128
661.493, 28.402
661.975, 11.342
662.457, 31.811
662.939, 28.371
663.421, 35.334
663.904, 31.676
664.386, 26.403
664.868, 21.575
665.350, 17.336
665.832, 9.272
666.314, 10.197
666.796, 29.052
667.278, 40.699
667.760, 44.184
668.243, 42.105
668.725, 31.515
669.207, 19.957
669.689, 13.115
670.171, 11.452
670.653, 24.376
671.135, 58.132
671.617, 94.705
672.099, 108.560
672.582, 104.760
673.064, 95.785
673.546, 79.603
674.028, 66.944
674.510, 68.049
674.992, 80.582
675.474, 93.020
675.956, 107.014
676.439, 113.171
676.921, 102.340
677.403, 75.406
677.885, 68.333
678.367, 90.610
678.849, 114.766
679.331, 121.923
679.813, 112.002
680.295, 110.285
680.778, 117.245
681.260, 130.561
681.742, 150.968
682.224, 175.270
682.706, 195.748
683.188, 209.639
683.670, 224.413
684.153, 242.490
684.635, 285.249
685.117, 321.725
685.599, 352.540
686.081, 361.035
686.563, 398.320
687.045, 424.056
687.527, 449.294
688.009, 490.590
688.492, 502.265
688.974, 543.277
689.456, 570.418
689.938, 580.015
690.420, 623.249
690.902, 666.209
691.384, 681.202
691.866, 687.107
692.348, 717.669
692.831, 771.183
693.313, 820.920
693.795, 853.572
694.277, 873.757
694.759, 884.112
695.241, 882.548
695.723, 878.693
696.205, 884.939
696.688, 880.125
697.170, 846.908
697.652, 774.122
698.134, 700.122
698.616, 628.512
699.098, 563.042
699.580, 511.778
700.062, 472.646
700.544, 433.000
701.027, 387.783
701.509, 345.074
701.991, 315.751
702.473, 295.959
702.955, 279.859
703.437, 272.222
703.919, 259.835
704.401, 227.923
704.883, 183.249
705.366, 160.918
705.848, 187.327
706.330, 202.556
706.812, 180.121
707.294, 125.846
707.776, 103.000
708.258, 117.521
708.740, 133.858
709.222, 125.459
709.705, 100.563
710.187, 86.506
710.669, 84.553
711.151, 82.385
711.633, 65.467
712.115, 46.811
712.597, 42.275
713.080, 58.994
713.562, 68.223
714.044, 51.498
714.526, 31.205
715.008, 28.815
715.490, 58.270
715.972, 75.440
716.454, 76.334
716.936, 68.137
717.419, 59.813
717.901, 50.253
718.383, 41.641
718.865, 32.608
719.347, 23.719
719.829, 13.824
720.311, 3.881
720.793, 4.994
721.276, 30.111
721.758, 57.719
722.240, 80.696
722.722, 97.626
723.204, 104.019
723.686, 95.822
724.168, 80.927
724.650, 57.381
725.132, 27.018
725.615, 6.040
726.097, 5.979
726.579, 7.625
727.061, 10.151
727.543, 38.230
728.025, 44.942
728.507, 30.785
728.989, 19.901
729.471, 36.468
729.954, 60.570
730.436, 75.513
730.918, 79.650
731.400, 71.491
731.882, 31.004
732.364, 7.758
732.846, 9.397
733.328, 13.237
733.810, 31.949
734.293, 34.516
734.775, 28.027
735.257, 17.642
735.739, 4.236
736.221, 3.885
736.703, 4.878
737.185, 1.759
737.667, 4.816
738.149, 12.511
738.632, 17.137
739.114, 13.396
739.596, 11.261
740.078, 19.508
740.560, 31.567
741.042, 32.353
741.524, 9.160
742.006, 3.950
742.489, 2.452
742.971, 21.372
743.453, 32.384
743.935, 35.319
744.417, 34.240
744.899, 28.733
745.381, 21.562
745.863, 18.414
746.346, 18.085
746.828, 15.796
747.310, 2.636
747.792, 8.331
748.274, 7.000
748.756, 6.467
749.238, 16.996
749.720, 24.558
750.203, 26.968
750.685, 24.096
751.167, 16.209
751.649, 4.645
752.131, 20.484
752.613, 50.449
753.095, 44.650
753.577, 17.934
754.059, 15.708
754.542, 41.783
755.024, 50.617
755.506, 4.774
755.988, 80.044
756.470, 129.806
756.952, 128.822
757.434, 113.818
757.916, 78.734
758.398, 40.549
758.881, 10.701
759.363, 9.144
759.845, 3.015
760.327, 4.320
760.809, 0.031
761.291, 5.576
761.773, 7.806
762.255, 3.056
762.737, 0.770
763.220, 0.785
763.702, 8.553
764.184, 6.567
764.666, 14.016
765.148, 2.517
765.630, 7.101
766.112, 5.052
766.594, 1.384
767.076, 3.737
767.559, 38.568
768.041, 62.777
768.523, 55.335
769.005, 29.690
769.487, 3.801
769.969, 0.539
770.451, 0.061
770.933, 35.359
771.416, 88.823
771.898, 77.251
772.380, 22.797
772.862, 4.386
773.344, 6.481
773.826, 9.919
774.308, 24.587
774.790, 37.325
775.273, 47.916
775.755, 57.081
776.237, 61.580
776.719, 58.062
777.201, 50.177
777.683, 46.655
778.165, 48.101
778.647, 59.174
779.130, 89.847
779.612, 126.403
780.094, 162.764
780.576, 196.665
781.058, 211.217
781.540, 175.658
782.022, 144.045
782.504, 139.944
782.986, 163.719
783.469, 183.259
783.951, 195.000
784.433, 212.864
784.915, 250.027
785.397, 300.524
785.879, 348.295
786.361, 392.920
786.843, 425.553
787.325, 419.232
787.808, 411.872
788.290, 446.333
788.772, 533.289
789.254, 601.008
789.736, 605.492
790.218, 609.076
790.700, 636.022
791.182, 638.643
791.664, 668.903
792.147, 692.471
792.629, 709.705
793.111, 701.598
793.593, 726.125
794.075, 737.188
794.557, 747.653
795.039, 776.560
795.521, 772.100
796.003, 800.982
796.486, 816.599
796.968, 838.281
797.450, 846.784
797.932, 859.394
798.414, 885.777
798.896, 904.656
799.378, 912.070
799.860, 920.203
800.343, 924.064
800.825, 937.820
801.307, 958.740
801.789, 989.159
802.271, 1043.715
802.753, 1137.547
803.235, 1202.463
803.717, 1177.601
804.200, 1111.192
804.682, 1049.319
805.164, 1005.030
805.646, 960.066
806.128, 920.360
806.610, 876.054
807.092, 810.635
807.574, 724.396
808.057, 639.799
808.539, 559.051
809.021, 485.858
809.503, 419.634
809.985, 364.195
810.467, 329.563
810.949, 333.409
811.431, 332.604
811.913, 305.405
812.396, 261.480
812.878, 214.395
813.360, 155.268
813.842, 125.529
814.324, 137.077
814.806, 162.922
815.288, 161.886
815.770, 138.045
816.252, 124.279
816.735, 131.267
817.217, 138.249
817.699, 119.581
818.181, 91.143
818.663, 76.425
819.145, 99.542
819.627, 112.931
820.109, 101.339
820.591, 78.125
821.074, 56.025
821.556, 30.272
822.038, 27.390
822.520, 58.608
823.002, 95.932
823.484, 82.809
823.966, 38.417
824.448, 14.358
824.930, 15.124
825.413, 2.384
825.895, 40.235
826.377, 65.818
826.859, 79.785
827.341, 47.330
827.823, 74.066
828.305, 76.798
828.787, 92.189
829.270, 96.386
829.752, 115.734
830.234, 136.496
830.716, 156.310
831.198, 172.816
831.680, 177.693
832.162, 176.603
832.644, 180.722
833.127, 194.379
833.609, 212.641
834.091, 243.412
834.573, 274.004
835.055, 285.139
835.537, 264.083
836.019, 259.597
836.501, 283.558
836.984, 313.500
837.466, 311.491
837.948, 285.080
838.430, 267.554
838.912, 271.105
839.394, 274.702
839.876, 256.717
840.358, 229.637
840.841, 209.935
841.323, 212.187
841.805, 207.137
842.287, 187.076
842.769, 164.143
843.251, 157.489
843.733, 169.048
844.215, 162.299
844.697, 126.130
845.180, 91.943
845.662, 71.876
846.144, 94.424
846.626, 106.638
847.108, 109.082
847.590, 72.441
848.072, 86.300
848.554, 79.940
849.036, 72.761
849.519, 93.758
850.001, 62.859
850.483, 83.428
850.965, 83.465
851.447, 78.753
851.929, 69.025
852.411, 66.295
852.893, 64.202
853.375, 60.967
853.858, 57.652
854.340, 51.334
854.822, 38.119
855.304, 11.665
855.786, 9.760
856.268, 3.658
856.750, 6.382
857.232, 0.930
857.714, 10.750
858.197, 4.966
858.679, 13.315
859.161, 15.116
859.643, 6.351
860.125, 6.489
860.607, 15.309
861.089, 10.410
861.571, 13.265
862.054, 8.650
862.536, 31.764
863.018, 29.619
863.500, 7.512
863.982, 10.719
864.464, 1.915
864.946, 18.246
865.428, 13.227
865.911, 7.924
866.393, 6.434
866.875, 3.280
867.357, 5.232
867.839, 7.665
868.321, 6.784
868.803, 4.329
869.285, 8.556
869.768, 15.914
870.250, 31.410
870.732, 40.997
871.214, 32.676
871.696, 10.256
872.178, 2.346
872.660, 4.943
873.142, 3.351
873.624, 32.840
874.107, 66.279
874.589, 89.150
875.071, 100.964
875.553, 109.644
876.035, 119.636
876.517, 122.690
876.999, 111.287
877.481, 89.331
877.963, 85.922
878.446, 101.485
878.928, 126.064
879.410, 167.290
879.892, 206.069
880.374, 207.848
880.856, 182.238
881.338, 163.658
881.820, 169.490
882.302, 182.074
882.785, 198.916
883.267, 217.584
883.749, 229.529
884.231, 232.681
884.713, 239.566
885.195, 254.611
885.677, 274.618
886.159, 298.585
886.641, 322.631
887.124, 335.879
887.606, 319.784
888.088, 307.736
888.570, 317.072
889.052, 340.014
889.534, 360.794
890.016, 378.451
890.498, 396.548
890.981, 414.544
891.463, 434.472
891.945, 462.551
892.427, 495.025
892.909, 516.207
893.391, 519.616
893.873, 520.464
894.355, 523.411
894.838, 532.942
895.320, 554.759
895.802, 610.755
896.284, 639.503
896.766, 627.989
897.248, 606.211
897.730, 608.776
898.212, 631.249
898.695, 638.522
899.177, 626.007
899.659, 615.449
900.141, 632.895
900.623, 657.072
901.105, 664.859
901.587, 648.653
902.069, 643.424
902.551, 657.634
903.034, 677.137
903.516, 697.025
903.998, 716.902
904.480, 721.806
904.962, 710.132
905.444, 698.555
905.926, 711.826
906.408, 724.061
906.890, 700.468
907.373, 644.321
907.855, 597.854
908.337, 590.748
908.819, 575.653
909.301, 531.331
909.783, 465.532
910.265, 441.187
910.747, 457.201
911.229, 462.470
911.712, 422.869
912.194, 373.925
912.676, 364.144
913.158, 378.053
913.640, 376.787
914.122, 335.730
914.604, 291.478
915.086, 245.281
915.568, 204.273
916.051, 187.151
916.533, 195.026
917.015, 204.552
917.497, 211.549
917.979, 217.273
918.461, 226.390
918.943, 235.406
919.425, 236.153
919.908, 220.770
920.390, 211.410
920.872, 230.143
921.354, 244.902
921.836, 225.153
922.318, 159.880
922.800, 129.097
923.282, 139.685
923.765, 159.846
924.247, 162.239
924.729, 154.360
925.211, 149.047
925.693, 147.669
926.175, 138.359
926.657, 97.113
927.139, 64.433
927.622, 68.182
928.104, 107.314
928.586, 114.496
929.068, 84.194
929.550, 60.324
930.032, 75.703
930.514, 109.623
930.996, 131.021
931.478, 140.235
931.961, 139.988
932.443, 120.587
932.925, 104.052
933.407, 100.648
933.889, 106.513
934.371, 109.731
934.853, 111.002
935.335, 109.077
935.817, 103.416
936.300, 96.123
936.782, 89.558
937.264, 82.073
937.746, 71.129
938.228, 49.396
938.710, 38.792
939.192, 52.634
939.674, 77.036
940.156, 103.508
940.639, 138.664
941.121, 133.157
941.603, 77.071
942.085, 19.710
942.567, 18.851
943.049, 45.696
943.531, 53.408
944.013, 35.846
944.495, 23.207
944.978, 36.054
945.460, 48.744
945.942, 48.000
946.424, 34.313
946.906, 15.149
947.388, 5.187
947.870, 4.307
948.352, 21.715
948.835, 76.419
949.317, 76.427
949.799, 36.472
950.281, 3.453
950.763, 7.673
951.245, 5.106
951.727, 19.250
952.209, 49.860
952.692, 48.341
953.174, 12.962
953.656, 7.023
954.138, 7.903
954.620, 2.273
955.102, 9.109
955.584, 13.561
956.066, 21.500
956.549, 40.161
957.031, 49.698
957.513, 46.794
957.995, 38.905
958.477, 29.293
958.959, 17.813
959.441, 20.415
959.923, 38.444
960.405, 50.670
960.888, 31.142
961.370, 3.544
961.852, 8.933
962.334, 5.965
962.816, 5.425
963.298, 35.326
963.780, 55.755
964.262, 55.355
964.744, 39.459
965.227, 23.148
965.709, 7.414
966.191, 0.186
966.673, 6.734
967.155, 5.537
967.637, 8.844
968.119, 2.500
968.601, 7.590
969.083, 6.760
969.566, 3.186
970.048, 9.416
970.530, 3.416
971.012, 3.102
971.494, 7.383
971.976, 2.162
972.458, 4.140
972.940, 1.116
973.422, 4.104
973.905, 10.183
974.387, 6.488
974.869, 0.513
975.351, 5.075
975.833, 8.879
976.315, 4.447
976.797, 1.623
977.279, 32.424
977.762, 27.386
978.244, 8.859
978.726, 19.976
979.208, 50.173
979.690, 66.301
980.172, 52.374
980.654, 24.724
981.136, 19.396
981.619, 42.218
982.101, 55.530
982.583, 51.240
983.065, 39.505
983.547, 26.725
984.029, 17.801
984.511, 24.021
984.993, 55.407
985.476, 75.122
985.958, 58.528
986.440, 38.641
986.922, 38.494
987.404, 58.985
987.886, 56.651
988.368, 30.758
988.850, 10.417
989.332, 27.335
989.815, 50.726
990.297, 43.825
990.779, 13.456
991.261, 5.708
991.743, 3.409
992.225, 9.439
992.707, 5.260
993.189, 4.096
993.672, 10.643
994.154, 13.536
994.636, 7.010
995.118, 14.403
995.600, 33.883
996.082, 33.251
996.564, 27.672
997.046, 35.673
997.528, 68.235
998.011, 83.218
998.493, 78.259
998.975, 63.006
999.457, 34.685
999.939, 4.332
1000.421, 4.585
1000.903, 32.094
1001.385, 53.183
1001.867, 40.882
1002.350, 29.740
1002.832, 38.922
1003.314, 59.948
1003.796, 66.516
1004.278, 56.826
1004.760, 52.053
1005.242, 59.950
1005.724, 68.494
1006.207, 57.086
1006.689, 37.698
1007.171, 30.932
1007.653, 52.715
1008.135, 61.474
1008.617, 45.718
1009.099, 24.632
1009.581, 11.181
1010.063, 4.608
1010.546, 5.892
1011.028, 14.235
1011.510, 10.055
1011.992, 6.321
1012.474, 41.057
1012.956, 50.492
1013.438, 24.693
1013.920, 10.918
1014.403, 18.667
1014.885, 51.128
1015.367, 44.876
1015.849, 20.176
1016.331, 7.893
1016.813, 5.664
1017.295, 7.320
1017.777, 9.033
1018.259, 20.604
1018.742, 68.750
1019.224, 109.861
1019.706, 104.268
1020.188, 47.174
1020.670, 17.617
1021.152, 15.740
1021.634, 23.782
1022.116, 35.792
1022.599, 46.165
1023.081, 46.036
1023.563, 37.922
1024.045, 34.016
1024.527, 38.613
1025.009, 45.234
1025.491, 49.537
1025.973, 54.788
1026.455, 65.075
1026.938, 77.183
1027.420, 74.123
1027.902, 48.596
1028.384, 30.642
1028.866, 47.267
1029.348, 74.488
1029.830, 93.003
1030.312, 102.704
1030.794, 98.467
1031.277, 77.648
1031.759, 58.675
1032.241, 54.542
1032.723, 60.247
1033.205, 70.945
1033.687, 85.706
1034.169, 94.523
1034.651, 85.827
1035.134, 80.033
1035.616, 84.444
1036.098, 95.638
1036.580, 110.206
1037.062, 124.553
1037.544, 120.504
1038.026, 92.213
1038.508, 66.670
1038.990, 56.011
1039.473, 63.688
1039.955, 63.603
1040.437, 83.245
1040.919, 98.096
1041.401, 108.421
1041.883, 107.218
1042.365, 93.191
1042.847, 99.851
1043.329, 74.902
1043.812, 41.957
1044.294, 60.393
1044.776, 47.570
1045.258, 62.556
1045.740, 70.792
1046.222, 72.642
1046.704, 48.942
1047.186, 57.780
1047.669, 48.609
1048.151, 80.690
1048.633, 116.100
1049.115, 121.657
1049.597, 120.921
1050.079, 133.860
1050.561, 160.336
1051.043, 172.351
1051.526, 163.811
1052.008, 160.231
1052.490, 168.799
1052.972, 186.963
1053.454, 210.857
1053.936, 238.778
1054.418, 261.665
1054.900, 256.399
1055.382, 289.502
1055.865, 296.118
1056.347, 342.727
1056.829, 379.603
1057.311, 407.280
1057.793, 398.071
1058.275, 436.375
1058.757, 455.732
1059.239, 474.318
1059.721, 519.402
1060.204, 533.379
1060.686, 548.773
1061.168, 568.487
1061.650, 589.378
1062.132, 621.199
1062.614, 671.398
1063.096, 718.150
1063.578, 726.185
1064.061, 712.047
1064.543, 702.507
1065.025, 703.261
1065.507, 700.223
1065.989, 692.752
1066.471, 676.251
1066.953, 646.726
1067.435, 606.443
1067.917, 559.381
1068.400, 526.983
1068.882, 545.973
1069.364, 552.753
1069.846, 545.331
1070.328, 487.598
1070.810, 489.981
1071.292, 469.302
1071.774, 449.346
1072.256, 465.889
1072.739, 419.077
1073.221, 435.084
1073.703, 426.029
1074.185, 428.449
1074.667, 406.034
1075.149, 391.295
1075.631, 401.413
1076.114, 397.753
1076.596, 372.497
1077.078, 375.675
1077.560, 339.394
1078.042, 351.580
1078.524, 350.198
1079.006, 355.433
1079.488, 376.122
1079.970, 389.940
1080.453, 382.710
1080.935, 365.693
1081.417, 347.093
1081.899, 326.967
1082.381, 309.175
1082.863, 293.792
1083.345, 269.255
1083.827, 209.675
1084.309, 155.311
1084.792, 155.694
1085.274, 187.951
1085.756, 202.500
1086.238, 183.921
1086.720, 166.069
1087.202, 150.422
1087.684, 136.922
1088.166, 129.249
1088.649, 122.360
1089.131, 105.744
1089.613, 78.874
1090.095, 49.179
1090.577, 1.116
1091.059, 25.458
1091.541, 12.025
1092.023, 26.150
1092.505, 51.279
1092.988, 64.633
1093.470, 73.051
1093.952, 77.731
1094.434, 79.760
1094.916, 78.949
1095.398, 76.200
1095.880, 70.246
1096.362, 59.844
1096.844, 67.113
1097.327, 94.916
1097.809, 109.385
1098.291, 76.134
1098.773, 33.713
1099.255, 27.808
1099.737, 45.904
1100.219, 61.598
1100.701, 73.736
1101.184, 73.908
1101.666, 57.553
1102.148, 39.529
1102.630, 33.433
1103.112, 37.486
1103.594, 52.129
1104.076, 75.878
1104.558, 91.612
1105.041, 89.245
1105.523, 76.918
1106.005, 41.834
1106.487, 62.185
1106.969, 69.093
1107.451, 63.273
1107.933, 6.598
1108.415, 15.607
1108.897, 1.694
1109.380, 20.089
1109.862, 16.307
1110.344, 14.672
1110.826, 24.428
1111.308, 45.290
1111.790, 47.617
1112.272, 40.050
1112.754, 17.833
1113.236, 0.218
1113.719, 17.950
1114.201, 50.423
1114.683, 59.584
1115.165, 13.952
1115.647, 2.762
1116.129, 37.474
1116.611, 71.428
1117.093, 58.511
1117.576, 20.122
1118.058, 10.178
1118.540, 8.560
1119.022, 1.873
1119.504, 1.644
1119.986, 12.263
1120.468, 12.550
1120.950, 11.334
1121.432, 76.313
1121.915, 161.407
1122.397, 175.903
1122.879, 102.377
1123.361, 34.211
1123.843, 35.329
1124.325, 41.030
1124.807, 12.210
1125.289, 2.534
1125.771, 19.198
1126.254, 2.967
1126.736, 11.511
1127.218, 8.207
1127.700, 11.692
1128.182, 23.398
1128.664, 76.481
1129.146, 90.694
1129.628, 58.066
1130.111, 40.513
1130.593, 39.038
1131.075, 43.463
1131.557, 51.479
1132.039, 58.638
1132.521, 58.327
1133.003, 53.491
1133.485, 50.164
1133.968, 44.201
1134.450, 52.719
1134.932, 80.658
1135.414, 110.874
1135.896, 131.441
1136.378, 140.277
1136.860, 133.940
1137.342, 114.448
1137.824, 103.412
1138.307, 109.118
1138.789, 122.886
1139.271, 138.840
1139.753, 167.366
1140.235, 251.914
1140.717, 360.673
1141.199, 383.792
1141.681, 294.324
1142.163, 217.216
1142.646, 204.415
1143.128, 231.183
1143.610, 301.470
1144.092, 394.592
1144.574, 423.248
1145.056, 398.250
1145.538, 379.349
1146.020, 378.084
1146.503, 427.036
1146.985, 463.908
1147.467, 489.229
1147.949, 468.375
1148.431, 507.171
1148.913, 519.222
1149.395, 531.126
1149.877, 563.799
1150.359, 620.535
1150.842, 699.360
1151.324, 764.774
1151.806, 824.323
1152.288, 885.724
1152.770, 946.434
1153.252, 1019.257
1153.734, 1106.302
1154.216, 1190.668
1154.698, 1248.987
1155.181, 1305.002
1155.663, 1394.822
1156.145, 1507.834
1156.627, 1597.003
1157.109, 1657.990
1157.591, 1697.865
1158.073, 1714.842
1158.555, 1720.896
1159.038, 1741.056
1159.520, 1754.635
1160.002, 1729.499
1160.484, 1662.754
1160.966, 1571.810
1161.448, 1450.849
1161.930, 1322.879
1162.412, 1189.516
1162.895, 1062.964
1163.377, 981.140
1163.859, 922.975
1164.341, 843.878
1164.823, 728.712
1165.305, 621.380
1165.787, 529.549
1166.269, 453.177
1166.751, 392.514
1167.234, 345.813
1167.716, 315.926
1168.198, 298.176
1168.680, 276.627
1169.162, 238.450
1169.644, 206.770
1170.126, 203.969
1170.608, 195.025
1171.090, 143.472
1171.573, 108.113
1172.055, 138.639
1172.537, 153.175
1173.019, 152.577
1173.501, 91.531
1173.983, 108.538
1174.465, 94.262
1174.947, 78.700
1175.430, 89.447
1175.912, 101.889
1176.394, 102.383
1176.876, 89.487
1177.358, 70.996
1177.840, 40.474
1178.322, 18.722
1178.804, 26.266
1179.286, 48.398
1179.769, 56.923
1180.251, 51.253
1180.733, 51.769
1181.215, 61.547
1181.697, 73.123
1182.179, 83.634
1182.661, 90.822
1183.143, 91.081
1183.625, 85.406
1184.108, 80.687
1184.590, 76.049
1185.072, 66.995
1185.554, 50.550
1186.036, 36.579
1186.518, 30.893
1187.000, 32.025
1187.482, 42.107
1187.965, 60.838
1188.447, 64.568
1188.929, 49.725
1189.411, 52.406
1189.893, 22.270
1190.375, 44.688
1190.857, 54.322
1191.339, 51.856
1191.822, 1.164
1192.304, 12.706
1192.786, 0.694
1193.268, 8.390
1193.750, 5.239
1194.232, 8.151
1194.714, 6.594
1195.196, 1.717
1195.678, 9.985
1196.161, 4.395
1196.643, 7.040
1197.125, 16.143
1197.607, 5.777
1198.089, 4.466
1198.571, 0.189
1199.053, 7.806
1199.535, 0.202
1200.017, 3.260
1200.500, 9.278
1200.982, 27.958
1201.464, 27.515
1201.946, 1.313
1202.428, 2.733
1202.910, 2.625
1203.392, 9.110
1203.874, 9.935
1204.357, 9.142
1204.839, 5.876
1205.321, 1.251
1205.803, 8.308
1206.285, 21.559
1206.767, 51.417
1207.249, 17.942
1207.731, 11.978
1208.214, 12.317
1208.696, 16.711
1209.178, 44.206
1209.660, 27.719
1210.142, 15.383
1210.624, 18.459
1211.106, 27.710
1211.588, 29.354
1212.070, 26.480
1212.552, 26.771
1213.035, 31.261
1213.517, 29.409
1213.999, 14.172
1214.481, 9.398
1214.963, 26.047
1215.445, 48.133
1215.927, 49.443
1216.409, 39.324
1216.892, 32.755
1217.374, 33.876
1217.856, 26.429
1218.338, 1.358
1218.820, 8.095
1219.302, 18.455
1219.784, 58.532
1220.266, 78.918
1220.749, 83.869
1221.231, 78.021
1221.713, 54.884
1222.195, 46.913
1222.677, 58.255
1223.159, 76.604
1223.641, 101.070
1224.123, 122.735
1224.605, 123.509
1225.088, 110.580
1225.570, 96.485
1226.052, 74.761
1226.534, 77.773
1227.016, 115.946
1227.498, 144.820
1227.980, 125.614
1228.462, 85.534
1228.944, 59.966
1229.427, 50.144
1229.909, 58.962
1230.391, 103.181
1230.873, 136.522
1231.355, 158.334
1231.837, 168.343
1232.319, 157.333
1232.801, 140.596
1233.284, 142.899
1233.766, 157.079
1234.248, 164.384
1234.730, 160.255
1235.212, 153.854
1235.694, 145.427
1236.176, 135.885
1236.658, 122.548
1237.141, 110.853
1237.623, 110.595
1238.105, 118.056
1238.587, 118.855
1239.069, 110.011
1239.551, 99.510
1240.033, 87.174
1240.515, 79.919
1240.997, 88.567
1241.480, 102.803
1241.962, 115.937
1242.444, 125.726
1242.926, 113.872
1243.408, 73.743
1243.890, 59.430
1244.372, 76.202
1244.854, 84.688
1245.337, 87.828
1245.819, 60.310
1246.301, 72.572
1246.783, 65.207
1247.265, 66.111
1247.747, 29.835
1248.229, 31.524
1248.711, 54.562
1249.193, 73.962
1249.676, 79.031
1250.158, 75.823
1250.640, 53.423
1251.122, 20.488
1251.604, 19.817
1252.086, 52.900
1252.568, 82.105
1253.050, 100.693
1253.532, 109.155
1254.015, 100.363
1254.497, 87.875
1254.979, 84.395
1255.461, 89.787
1255.943, 77.714
1256.425, 49.698
1256.907, 33.201
1257.389, 38.183
1257.872, 42.765
1258.354, 22.782
1258.836, 6.316
1259.318, 13.239
1259.800, 37.876
1260.282, 57.747
1260.764, 72.420
1261.246, 78.443
1261.729, 73.185
1262.211, 66.013
1262.693, 55.083
1263.175, 52.155
1263.657, 68.984
1264.139, 96.822
1264.621, 99.436
1265.103, 81.802
1265.585, 60.600
1266.068, 39.051
1266.550, 20.501
1267.032, 7.526
1267.514, 4.285
1267.996, 3.606
1268.478, 11.542
1268.960, 8.668
1269.442, 27.384
1269.924, 67.158
1270.407, 97.884
1270.889, 110.600
1271.371, 96.526
1271.853, 83.415
1272.335, 86.741
1272.817, 100.991
1273.299, 120.537
1273.781, 140.361
1274.264, 150.638
1274.746, 143.116
1275.228, 134.617
1275.710, 123.596
1276.192, 119.156
1276.674, 132.626
1277.156, 150.136
1277.638, 154.221
1278.120, 146.311
1278.603, 126.002
1279.085, 81.623
1279.567, 33.321
1280.049, 5.205
1280.531, 17.369
1281.013, 110.249
1281.495, 203.830
1281.977, 207.016
1282.459, 158.841
1282.942, 117.820
1283.424, 85.852
1283.906, 66.537
1284.388, 59.779
1284.870, 53.384
1285.352, 40.963
1285.834, 27.565
1286.316, 8.434
1286.799, 1.600
1287.281, 0.135
1287.763, 27.009
1288.245, 43.171
1288.727, 35.378
1289.209, 26.777
1289.691, 12.407
1290.173, 0.000
##END=



