##NAMES=Effenbergerite
##RRUFFID=R120088
##IDEAL CHEMISTRY=BaCu^2+^Si_4_O_10_
##LOCALITY=Eastern orebody, Wessels mine, Kalahari manganese area, Cape Province, South Africa
##OWNER=RRUFF
##SOURCE=William W Pinch
##DESCRIPTION=Blue massive. A piece from the original find.
##STATUS=The identification of this mineral has been confirmed by single-crystal X-ray diffraction.
##URL=rruff.info/R120088
191.2546, 0.0000000E+00
191.7367, 7.3199999E-04
192.2188, 5.730957
192.7009, 13.12219
193.1830, 16.09229
193.6652, 14.28101
194.1473, 13.86365
194.6294, 19.09229
195.1115, 29.33154
195.5936, 38.45862
196.0757, 46.85083
196.5579, 52.70630
197.0400, 51.59192
197.5221, 42.65625
198.0042, 32.44312
198.4863, 23.67126
198.9684, 16.33777
199.4506, 12.61902
199.9327, 13.77612
200.4148, 17.20325
200.8969, 16.93835
201.3790, 12.43481
201.8611, 7.333252
202.3433, 2.574585
202.8254, 2.235229
203.3075, 1.428101
203.7896, 7.323730
204.2717, 20.19031
204.7538, 26.76721
205.2360, 25.63989
205.7181, 23.37915
206.2002, 23.32959
206.6823, 25.40002
207.1644, 30.45276
207.6465, 40.14807
208.1287, 51.92993
208.6108, 57.64099
209.0929, 55.28479
209.5750, 52.36035
210.0571, 54.33215
210.5392, 63.00781
211.0214, 67.85034
211.5035, 66.76086
211.9856, 61.66895
212.4677, 59.13623
212.9498, 59.55627
213.4319, 61.74951
213.9140, 65.70923
214.3962, 72.66052
214.8783, 77.14099
215.3604, 78.05933
215.8425, 76.25378
216.3246, 74.81482
216.8067, 73.35522
217.2889, 72.88757
217.7710, 74.35437
218.2531, 78.68311
218.7352, 82.12720
219.2173, 84.57361
219.6994, 85.87830
220.1816, 85.04053
220.6637, 80.72290
221.1458, 76.45081
221.6279, 75.04688
222.1100, 78.84595
222.5921, 79.05310
223.0743, 73.57642
223.5564, 63.93323
224.0385, 57.02295
224.5206, 53.92273
225.0027, 52.12537
225.4848, 50.29553
225.9670, 48.66919
226.4491, 46.50598
226.9312, 43.50708
227.4133, 39.67346
227.8954, 37.47864
228.3775, 37.45105
228.8597, 38.36499
229.3418, 39.58875
229.8239, 41.36414
230.3060, 42.84253
230.7881, 43.93958
231.2702, 44.64294
231.7524, 44.83838
232.2345, 44.10034
232.7166, 43.34167
233.1987, 43.09351
233.6808, 43.54639
234.1629, 44.00281
234.6451, 44.60327
235.1272, 45.15918
235.6093, 44.83508
236.0914, 43.10840
236.5735, 41.22986
237.0556, 40.39758
237.5378, 41.56567
238.0199, 41.30884
238.5020, 38.80127
238.9841, 33.53076
239.4662, 31.08484
239.9483, 32.50525
240.4305, 35.12500
240.9126, 38.88342
241.3947, 45.22839
241.8768, 47.63635
242.3589, 45.17102
242.8410, 39.17493
243.3232, 33.15430
243.8053, 26.07874
244.2874, 20.69385
244.7695, 18.06274
245.2516, 20.18103
245.7337, 21.84033
246.2159, 22.42896
246.6980, 22.47266
247.1801, 23.77856
247.6622, 27.01855
248.1443, 30.44910
248.6264, 33.41956
249.1086, 36.38379
249.5907, 37.33691
250.0728, 35.97253
250.5549, 32.65430
251.0370, 28.07385
251.5191, 21.11731
252.0013, 14.72205
252.4834, 10.08081
252.9655, 7.406128
253.4476, 6.186890
253.9297, 6.893188
254.4118, 8.873413
254.8940, 10.83606
255.3761, 13.20471
255.8582, 14.79492
256.3403, 14.81689
256.8224, 12.45129
257.3046, 11.09460
257.7867, 10.81067
258.2688, 11.42822
258.7509, 12.87402
259.2330, 15.78857
259.7151, 18.13000
260.1973, 19.40576
260.6794, 19.91907
261.1615, 17.30920
261.6436, 9.634521
262.1257, 0.5595700
262.6078, 3.250488
263.0900, 0.2562260
263.5721, 4.316040
264.0542, 6.662231
264.5363, 7.115479
265.0184, 7.662598
265.5005, 8.718018
265.9827, 9.503174
266.4648, 8.479370
266.9469, 4.654175
267.4290, 1.979370
267.9111, 2.086426
268.3932, 5.203003
268.8754, 6.941040
269.3575, 6.825562
269.8396, 5.975708
270.3217, 5.605225
270.8038, 5.558960
271.2859, 6.479248
271.7681, 9.143677
272.2502, 13.38940
272.7323, 14.85437
273.2144, 12.60693
273.6965, 9.366455
274.1786, 7.886353
274.6608, 8.281982
275.1429, 9.965088
275.6250, 13.57349
276.1071, 18.56653
276.5892, 20.54211
277.0714, 18.82483
277.5535, 15.91418
278.0356, 14.14709
278.5177, 13.65247
278.9998, 12.77747
279.4819, 10.93298
279.9641, 8.480347
280.4462, 7.443237
280.9283, 8.223755
281.4104, 8.640015
281.8925, 6.225098
282.3746, 0.9277340
282.8568, 2.512085
283.3389, 2.575073
283.8210, 0.8015140
284.3031, 2.177734
284.7852, 7.103394
285.2673, 11.35620
285.7495, 11.03259
286.2316, 6.468384
286.7137, 3.547729
287.1958, 3.586670
287.6779, 5.081665
288.1600, 4.712280
288.6422, 2.458130
289.1243, 0.4381100
289.6064, 0.6148680
290.0885, 2.414429
290.5706, 2.697998
291.0527, 1.022217
291.5349, 1.564087
292.0170, 3.900024
292.4991, 5.848999
292.9812, 6.939331
293.4633, 6.450928
293.9454, 4.844482
294.4276, 3.647949
294.9097, 3.103638
295.3918, 2.684448
295.8739, 1.160645
296.3560, 1.057739
296.8381, 2.091919
297.3203, 0.1861570
297.8024, 3.373413
298.2845, 5.737671
298.7666, 6.740234
299.2487, 7.880249
299.7308, 11.92065
300.2130, 17.55566
300.6951, 20.91638
301.1772, 18.12683
301.6593, 13.32434
302.1414, 12.52161
302.6235, 15.66016
303.1057, 20.37451
303.5878, 25.90369
304.0699, 31.49902
304.5520, 35.66638
305.0341, 37.89966
305.5162, 38.54175
305.9984, 36.61304
306.4805, 32.66956
306.9626, 30.43604
307.4447, 34.93835
307.9268, 41.91663
308.4089, 45.38025
308.8911, 41.50354
309.3732, 37.26782
309.8553, 39.81213
310.3374, 47.09497
310.8195, 52.27661
311.3016, 48.32922
311.7838, 42.09448
312.2659, 40.15625
312.7480, 45.55017
313.2301, 51.07947
313.7122, 51.93921
314.1943, 49.83826
314.6765, 48.34241
315.1586, 51.40320
315.6407, 53.94214
316.1228, 51.91125
316.6049, 43.48096
317.0870, 36.23218
317.5692, 34.81104
318.0513, 36.36182
318.5334, 36.90186
319.0155, 33.84155
319.4976, 30.62842
319.9797, 28.15356
320.4619, 26.20166
320.9440, 26.90723
321.4261, 33.93872
321.9082, 42.28784
322.3903, 47.17651
322.8724, 42.99854
323.3546, 39.83716
323.8367, 40.93408
324.3188, 46.16455
324.8009, 50.64673
325.2830, 53.53442
325.7651, 55.46216
326.2473, 56.84204
326.7294, 57.55542
327.2115, 57.99512
327.6936, 57.76465
328.1757, 57.18677
328.6578, 57.76147
329.1400, 62.96094
329.6221, 66.51562
330.1042, 65.55322
330.5863, 55.58984
331.0684, 48.55249
331.5505, 45.68652
332.0327, 45.50293
332.5148, 44.75830
332.9969, 42.68701
333.4790, 40.93677
333.9611, 40.18359
334.4432, 40.84106
334.9254, 40.39648
335.4075, 38.06250
335.8896, 35.17627
336.3717, 33.85864
336.8538, 35.14355
337.3359, 35.36035
337.8180, 32.90332
338.3001, 27.86011
338.7823, 25.55225
339.2644, 27.05713
339.7465, 29.31006
340.2286, 29.28638
340.7107, 26.58862
341.1928, 23.45679
341.6750, 20.57861
342.1571, 17.51611
342.6392, 12.60254
343.1213, 5.457031
343.6034, 1.091064
344.0855, 4.858887
344.5677, 5.992432
345.0498, 6.432373
345.5319, 6.187988
346.0140, 5.765381
346.4961, 6.244141
346.9782, 7.613037
347.4604, 9.433105
347.9425, 12.62891
348.4246, 16.21411
348.9067, 15.99438
349.3888, 11.15894
349.8709, 5.273193
350.3531, 3.020996
350.8352, 3.542969
351.3173, 3.554443
351.7994, 0.9145510
352.2815, 2.831543
352.7636, 4.942139
353.2458, 5.400879
353.7279, 5.662109
354.2100, 7.064941
354.6921, 9.102539
355.1742, 11.02222
355.6563, 13.06519
356.1385, 14.34839
356.6206, 12.96631
357.1027, 9.610596
357.5848, 7.761230
358.0669, 10.39917
358.5490, 15.07129
359.0312, 19.36646
359.5133, 22.44971
359.9954, 26.09058
360.4775, 32.14722
360.9596, 39.56934
361.4417, 45.98877
361.9239, 49.68555
362.4060, 52.82764
362.8881, 56.36694
363.3702, 60.29663
363.8523, 65.28589
364.3344, 71.59546
364.8166, 79.06616
365.2987, 87.58618
365.7808, 98.29736
366.2629, 108.6665
366.7450, 117.2417
367.2271, 124.0374
367.7093, 132.9106
368.1914, 145.5308
368.6735, 159.5610
369.1556, 173.5830
369.6377, 185.2583
370.1198, 199.3840
370.6020, 217.6704
371.0841, 238.7192
371.5662, 257.5234
372.0483, 272.6521
372.5304, 286.9465
373.0125, 301.1846
373.4947, 314.2173
373.9768, 330.3760
374.4589, 351.0847
374.9410, 373.9617
375.4231, 394.9177
375.9052, 413.6282
376.3874, 431.9351
376.8695, 450.6570
377.3516, 469.9927
377.8337, 486.6187
378.3158, 500.7520
378.7979, 512.4563
379.2801, 522.1426
379.7622, 530.0234
380.2443, 533.5691
380.7264, 532.1548
381.2085, 526.2556
381.6906, 516.6069
382.1728, 503.2061
382.6549, 487.6238
383.1370, 471.1646
383.6191, 453.4067
384.1012, 433.1968
384.5833, 409.8386
385.0655, 384.9375
385.5476, 360.8271
386.0297, 336.9619
386.5118, 312.7432
386.9939, 285.1787
387.4760, 257.9138
387.9582, 237.2468
388.4403, 223.1914
388.9224, 209.9983
389.4045, 192.7236
389.8866, 173.6560
390.3687, 155.8110
390.8509, 139.8162
391.3330, 126.1060
391.8151, 115.3071
392.2972, 107.1414
392.7793, 100.1992
393.2614, 93.70312
393.7436, 88.24731
394.2257, 84.47461
394.7078, 83.58447
395.1899, 81.72632
395.6720, 75.82178
396.1541, 68.34888
396.6363, 63.29663
397.1184, 62.04834
397.6005, 62.95703
398.0826, 66.01831
398.5647, 71.48926
399.0468, 76.70435
399.5290, 82.02222
400.0111, 86.63696
400.4932, 89.84033
400.9753, 88.50659
401.4574, 89.93286
401.9395, 95.14014
402.4217, 103.7339
402.9038, 113.2698
403.3859, 123.9658
403.8680, 135.4158
404.3501, 147.6201
404.8322, 160.8503
405.3144, 173.0337
405.7965, 183.1426
406.2786, 193.0537
406.7607, 205.7632
407.2428, 221.5796
407.7249, 240.1997
408.2071, 261.2007
408.6892, 284.4963
409.1713, 310.0017
409.6534, 338.0037
410.1355, 367.6638
410.6176, 397.7456
411.0998, 428.6855
411.5819, 462.4717
412.0640, 499.7671
412.5461, 539.6899
413.0282, 580.9333
413.5103, 623.7539
413.9925, 670.4194
414.4746, 724.5049
414.9567, 783.0913
415.4388, 840.5459
415.9209, 896.6938
416.4030, 953.8889
416.8852, 1014.322
417.3673, 1077.754
417.8494, 1143.895
418.3315, 1218.542
418.8136, 1291.596
419.2957, 1358.939
419.7779, 1419.912
420.2600, 1474.457
420.7421, 1521.527
421.2242, 1562.496
421.7063, 1598.496
422.1884, 1637.331
422.6706, 1658.468
423.1527, 1653.535
423.6348, 1628.247
424.1169, 1593.394
424.5990, 1548.795
425.0811, 1496.086
425.5633, 1434.201
426.0454, 1362.034
426.5275, 1288.493
427.0096, 1210.905
427.4917, 1133.146
427.9738, 1057.667
428.4560, 983.0273
428.9381, 914.0208
429.4202, 852.4451
429.9023, 797.6182
430.3844, 743.7051
430.8665, 690.2390
431.3487, 640.0569
431.8308, 594.3054
432.3129, 553.1206
432.7950, 517.8298
433.2771, 489.1643
433.7592, 464.8525
434.2414, 442.1172
434.7235, 420.8608
435.2056, 400.4592
435.6877, 380.1963
436.1698, 361.0430
436.6519, 345.7227
437.1341, 334.1453
437.6162, 323.4341
438.0983, 310.6221
438.5804, 297.3113
439.0625, 286.2322
439.5446, 277.9038
440.0268, 271.6404
440.5089, 268.8906
440.9910, 267.7961
441.4731, 264.4463
441.9552, 256.0393
442.4373, 245.8010
442.9195, 235.0725
443.4016, 223.9463
443.8837, 213.4785
444.3658, 203.8459
444.8479, 195.0947
445.3300, 187.3628
445.8122, 180.7346
446.2943, 174.9941
446.7764, 170.4204
447.2585, 166.6213
447.7406, 162.7310
448.2227, 160.2817
448.7049, 156.9001
449.1870, 152.0310
449.6691, 145.4795
450.1512, 138.4121
450.6333, 130.4275
451.1154, 122.0325
451.5976, 113.4507
452.0797, 104.2915
452.5618, 98.21582
453.0439, 96.98901
453.5260, 98.65527
454.0081, 96.65894
454.4903, 90.49658
454.9724, 83.93555
455.4545, 78.79883
455.9366, 75.01587
456.4187, 72.10620
456.9008, 70.35303
457.3830, 68.29053
457.8651, 64.50171
458.3472, 59.57983
458.8293, 55.48047
459.3114, 52.62524
459.7935, 51.03003
460.2757, 51.28882
460.7578, 53.08398
461.2399, 54.64795
461.7220, 55.28442
462.2041, 54.88477
462.6862, 53.24683
463.1684, 50.20703
463.6505, 46.97412
464.1326, 43.10425
464.6147, 39.80298
465.0968, 38.59448
465.5789, 44.34155
466.0611, 47.82520
466.5432, 44.64160
467.0253, 35.56763
467.5074, 29.46948
467.9895, 29.74536
468.4716, 31.34131
468.9538, 31.88062
469.4359, 30.61475
469.9180, 29.92822
470.4001, 30.04663
470.8822, 30.53442
471.3643, 30.61572
471.8465, 29.88550
472.3286, 30.03979
472.8107, 32.55737
473.2928, 36.38940
473.7749, 34.65454
474.2570, 26.45630
474.7392, 17.34302
475.2213, 11.34326
475.7034, 8.082520
476.1855, 5.317627
476.6676, 2.812988
477.1497, 0.9277340
477.6319, 0.5209960
478.1140, 1.229248
478.5961, 1.875000
479.0782, 2.283447
479.5603, 2.168213
480.0424, 0.5578610
480.5246, 2.294312
481.0067, 4.243652
481.4888, 3.132568
481.9709, 1.002075
482.4530, 0.2641600
482.9352, 0.1281740
483.4173, 0.3656010
483.8994, 0.5584720
484.3815, 1.994507
484.8636, 2.953125
485.3457, 3.646606
485.8279, 3.377686
486.3100, 1.136230
486.7921, 3.052368
487.2742, 5.035034
487.7563, 2.788940
488.2384, 0.3530270
488.7206, 1.8310000E-03
489.2027, 2.407104
489.6848, 5.070190
490.1669, 8.402954
490.6490, 11.46057
491.1311, 12.83521
491.6133, 12.43750
492.0954, 10.83948
492.5775, 7.998291
493.0596, 4.157104
493.5417, 0.3692630
494.0238, 5.573120
494.5060, 9.676147
494.9881, 10.88123
495.4702, 9.928589
495.9523, 8.716064
496.4344, 7.505737
496.9165, 5.841797
497.3987, 2.129761
497.8808, 2.270386
498.3629, 4.701538
498.8450, 2.265381
499.3271, 0.9946290
499.8092, 2.570801
500.2914, 2.704102
500.7735, 2.641357
501.2556, 2.765503
501.7377, 2.978149
502.2198, 3.433472
502.7019, 4.802490
503.1841, 4.792358
503.6662, 0.9150390
504.1483, 3.528320
504.6304, 4.437134
505.1125, 2.080322
505.5946, 5.746704
506.0768, 3.858887
506.5589, 2.234619
507.0410, 5.932129
507.5231, 7.217773
508.0052, 6.251099
508.4873, 2.075806
508.9695, 5.290161
509.4516, 10.38379
509.9337, 13.02441
510.4158, 13.91223
510.8979, 12.91284
511.3800, 10.55688
511.8622, 9.602539
512.3443, 11.86194
512.8264, 14.25073
513.3085, 10.88306
513.7906, 3.630005
514.2728, 0.8138430
514.7549, 4.702759
515.2370, 12.48511
515.7191, 15.96960
516.2012, 14.53174
516.6833, 11.62756
517.1655, 7.066162
517.6476, 2.733398
518.1297, 0.2380370
518.6118, 0.2989500
519.0939, 1.757202
519.5760, 5.273926
520.0582, 10.04749
520.5403, 14.39026
521.0224, 20.05542
521.5045, 22.59082
521.9866, 18.96350
522.4688, 9.170166
522.9509, 6.867065
523.4330, 14.72961
523.9151, 23.73547
524.3972, 26.44763
524.8793, 22.68396
525.3615, 19.76733
525.8436, 18.21912
526.3257, 17.92383
526.8078, 19.72974
527.2899, 23.01196
527.7720, 24.69653
528.2542, 22.16907
528.7363, 18.46887
529.2184, 17.97900
529.7005, 20.20227
530.1826, 22.38660
530.6647, 24.05603
531.1469, 24.23755
531.6290, 21.24390
532.1111, 13.89038
532.5932, 8.343750
533.0753, 8.204590
533.5574, 10.61377
534.0396, 12.60571
534.5217, 13.16443
535.0038, 13.92773
535.4859, 15.11084
535.9680, 16.68506
536.4501, 18.72522
536.9323, 22.15234
537.4144, 24.43237
537.8965, 23.97546
538.3786, 20.58887
538.8607, 19.75928
539.3428, 22.14673
539.8250, 25.73315
540.3071, 28.61255
540.7892, 30.80103
541.2713, 33.29834
541.7534, 36.38525
542.2355, 39.41614
542.7177, 41.50488
543.1998, 42.80945
543.6819, 43.78687
544.1640, 43.79504
544.6461, 43.98706
545.1282, 45.98926
545.6104, 49.79736
546.0925, 53.83789
546.5746, 56.87073
547.0567, 59.78308
547.5388, 63.31714
548.0209, 67.71155
548.5031, 72.23584
548.9852, 76.66174
549.4673, 81.47632
549.9494, 87.16272
550.4315, 94.91943
550.9136, 102.3204
551.3958, 108.3619
551.8779, 113.2034
552.3600, 118.5999
552.8421, 124.8629
553.3242, 131.2880
553.8063, 137.4719
554.2885, 143.5142
554.7706, 150.8662
555.2527, 159.7722
555.7348, 167.0803
556.2169, 170.1989
556.6990, 170.0923
557.1812, 168.2396
557.6633, 164.4377
558.1454, 160.0497
558.6275, 157.4868
559.1096, 155.1692
559.5917, 150.1649
560.0739, 137.8468
560.5560, 125.9315
561.0381, 119.0599
561.5202, 116.0770
562.0023, 111.7095
562.4844, 103.9495
562.9666, 95.91650
563.4487, 88.52344
563.9308, 81.83337
564.4129, 75.52979
564.8950, 69.39624
565.3771, 64.11877
565.8593, 60.68921
566.3414, 60.14209
566.8235, 57.75415
567.3056, 51.99146
567.7877, 45.07507
568.2698, 41.55249
568.7520, 41.24243
569.2341, 40.26807
569.7162, 36.59424
570.1983, 31.74670
570.6804, 28.02502
571.1625, 25.50952
571.6447, 24.32678
572.1268, 26.48230
572.6089, 29.43140
573.0910, 29.46924
573.5731, 25.72852
574.0552, 22.90942
574.5374, 23.97473
575.0195, 26.47144
575.5016, 28.05103
575.9837, 27.57373
576.4658, 27.00745
576.9479, 26.51440
577.4301, 26.11377
577.9122, 25.61243
578.3943, 24.20557
578.8764, 24.02234
579.3585, 26.05115
579.8406, 29.85718
580.3228, 32.59900
580.8049, 34.24805
581.2870, 34.96582
581.7691, 33.39771
582.2512, 30.67712
582.7333, 32.42773
583.2155, 39.50085
583.6975, 46.32471
584.1796, 47.04150
584.6617, 44.23352
585.1439, 42.20667
585.6260, 42.63782
586.1081, 43.26514
586.5902, 42.48694
587.0723, 40.98389
587.5544, 40.21094
588.0366, 40.83325
588.5187, 41.22754
589.0008, 40.78625
589.4829, 39.60413
589.9650, 39.83032
590.4471, 42.56372
590.9293, 45.07812
591.4114, 46.12622
591.8935, 45.57544
592.3756, 43.91187
592.8577, 40.49683
593.3398, 37.67517
593.8220, 40.29712
594.3041, 46.99365
594.7862, 45.28528
595.2683, 30.00793
595.7504, 13.38684
596.2325, 13.63550
596.7147, 25.38452
597.1968, 34.57166
597.6789, 32.55139
598.1610, 27.88159
598.6431, 26.77222
599.1252, 28.47253
599.6074, 29.17761
600.0895, 25.78650
600.5716, 22.55530
601.0537, 22.13171
601.5358, 25.81067
602.0179, 26.66211
602.5001, 22.17493
602.9822, 17.26001
603.4643, 16.30200
603.9464, 21.40833
604.4285, 21.23389
604.9106, 12.95825
605.3928, 3.120483
605.8749, 4.014404
606.3570, 14.53076
606.8391, 19.67041
607.3212, 12.31787
607.8033, 0.4791260
608.2855, 5.018921
608.7676, 4.740845
609.2497, 0.9182130
609.7318, 9.944946
610.2139, 20.34961
610.6960, 23.23291
611.1782, 18.53369
611.6603, 14.36572
612.1424, 13.77136
612.6245, 14.41321
613.1066, 15.14673
613.5887, 17.01807
614.0709, 16.11768
614.5530, 9.667358
615.0351, 2.978271
615.5172, 2.415039
615.9993, 9.962402
616.4814, 14.58801
616.9636, 14.17090
617.4457, 10.87244
617.9278, 8.711792
618.4099, 7.536621
618.8920, 5.817139
619.3741, 1.231567
619.8563, 3.119141
620.3384, 0.9969480
620.8205, 6.230225
621.3026, 11.80945
621.7847, 10.01587
622.2668, 6.352051
622.7490, 5.298462
623.2311, 7.595215
623.7132, 8.537109
624.1953, 4.265137
624.6774, 5.5785999E-02
625.1595, 0.1718750
625.6417, 7.187256
626.1238, 11.58398
626.6059, 12.17151
627.0880, 10.76880
627.5701, 9.968750
628.0522, 10.03040
628.5344, 7.947876
629.0165, 2.031860
629.4986, 4.793335
629.9807, 6.222778
630.4628, 3.106445
630.9449, 2.3193000E-02
631.4271, 0.6258540
631.9092, 0.2615970
632.3913, 0.2185060
632.8734, 0.5606690
633.3555, 1.700439
633.8376, 5.202759
634.3198, 8.458740
634.8019, 9.521362
635.2840, 7.569214
635.7661, 6.789795
636.2482, 9.229004
636.7303, 11.64294
637.2125, 11.66479
637.6946, 8.231445
638.1767, 5.411011
638.6588, 3.164307
639.1409, 1.951416
639.6230, 3.354004
640.1052, 7.126953
640.5873, 8.955933
641.0694, 7.171509
641.5515, 3.946167
642.0336, 2.250366
642.5157, 1.802856
642.9979, 1.766235
643.4800, 2.378784
643.9621, 2.703247
644.4442, 0.7250980
644.9263, 2.746582
645.4084, 2.924561
645.8906, 7.367188
646.3727, 16.59082
646.8548, 17.47363
647.3369, 8.262329
647.8190, 4.416504
648.3011, 8.817383
648.7833, 14.54871
649.2654, 15.81848
649.7475, 12.19800
650.2296, 9.248779
650.7117, 7.232300
651.1938, 6.031738
651.6760, 5.418091
652.1581, 5.503052
652.6402, 6.718994
653.1223, 9.381836
653.6044, 12.74146
654.0865, 18.01025
654.5687, 23.30176
655.0508, 25.06458
655.5329, 17.94336
656.0150, 11.21802
656.4971, 8.203613
656.9792, 8.528320
657.4614, 9.897949
657.9435, 13.13171
658.4256, 16.03931
658.9077, 17.91699
659.3898, 18.78577
659.8719, 19.19214
660.3541, 19.08667
660.8362, 18.93811
661.3183, 19.61304
661.8004, 20.60620
662.2825, 19.15344
662.7646, 14.93750
663.2468, 11.23755
663.7289, 11.81067
664.2110, 14.27087
664.6931, 15.32983
665.1752, 13.68677
665.6573, 11.69885
666.1395, 9.491211
666.6216, 7.957886
667.1037, 7.883789
667.5858, 11.61304
668.0679, 13.45642
668.5500, 11.81372
669.0322, 8.548096
669.5143, 8.263428
669.9964, 11.87463
670.4785, 13.78674
670.9606, 11.57214
671.4427, 6.979370
671.9249, 5.007568
672.4070, 5.359131
672.8891, 5.857544
673.3712, 4.025391
673.8533, 2.474976
674.3354, 5.379272
674.8176, 12.26160
675.2997, 17.37476
675.7818, 16.40723
676.2639, 13.81677
676.7460, 12.44324
677.2281, 13.18713
677.7103, 12.39111
678.1924, 8.683716
678.6745, 5.408569
679.1566, 4.833496
679.6387, 7.203491
680.1208, 11.70129
680.6030, 19.46741
681.0851, 26.37366
681.5672, 25.92419
682.0493, 19.80554
682.5314, 15.53699
683.0135, 15.56250
683.4957, 16.81396
683.9778, 16.00293
684.4599, 13.92200
684.9420, 12.13623
685.4241, 10.57019
685.9063, 10.08569
686.3884, 11.79883
686.8705, 14.94080
687.3526, 16.59167
687.8347, 15.80725
688.3168, 15.82007
688.7990, 18.29199
689.2811, 22.26562
689.7632, 20.76831
690.2453, 12.69128
690.7274, 6.942871
691.2095, 12.00134
691.6917, 23.17297
692.1738, 24.64282
692.6559, 16.66553
693.1380, 9.806396
693.6201, 15.40369
694.1022, 23.72253
694.5844, 23.93237
695.0665, 13.01355
695.5486, 4.979614
696.0307, 7.146484
696.5128, 12.46704
696.9949, 15.37610
697.4771, 14.37561
697.9592, 13.91992
698.4413, 14.31616
698.9234, 14.87549
699.4055, 14.75159
699.8876, 13.96448
700.3698, 13.21716
700.8519, 12.74329
701.3340, 12.21423
701.8161, 11.54883
702.2982, 10.46008
702.7803, 7.916870
703.2625, 1.790405
703.7446, 2.968384
704.2267, 1.872681
704.7088, 2.576538
705.1909, 4.902588
705.6730, 2.8320000E-02
706.1552, 3.061157
706.6373, 1.625854
707.1194, 3.307129
707.6015, 7.061523
708.0836, 9.111938
708.5657, 11.43860
709.0479, 15.70618
709.5300, 20.79272
710.0121, 21.03748
710.4942, 16.61926
710.9763, 12.32690
711.4584, 12.24011
711.9406, 13.62122
712.4227, 12.70898
712.9048, 9.394409
713.3869, 6.685669
713.8690, 6.160767
714.3511, 6.704712
714.8333, 8.041870
715.3154, 11.15649
715.7975, 11.58936
716.2796, 7.955933
716.7617, 3.419189
717.2438, 0.5532230
717.7260, 0.3801270
718.2081, 2.502808
718.6902, 6.538818
719.1723, 9.395508
719.6544, 5.243286
720.1365, 2.854248
720.6187, 6.734253
721.1008, 3.527344
721.5829, 0.9045410
722.0650, 3.240112
722.5471, 3.791382
723.0292, 2.997803
723.5114, 0.3912350
723.9935, 2.783081
724.4756, 7.250977
724.9577, 11.81189
725.4398, 14.49573
725.9219, 14.91943
726.4041, 14.09802
726.8862, 11.21814
727.3683, 8.294922
727.8504, 12.80920
728.3325, 23.16858
728.8146, 28.29651
729.2968, 18.26025
729.7789, 4.615112
730.2610, 1.197510
730.7431, 5.425537
731.2252, 8.731323
731.7073, 5.336914
732.1895, 2.288818
732.6716, 3.083740
733.1537, 7.539795
733.6358, 11.18811
734.1179, 14.74219
734.6000, 16.30188
735.0822, 14.41895
735.5643, 9.569824
736.0464, 6.426636
736.5285, 5.040894
737.0106, 4.257080
737.4927, 3.056641
737.9749, 2.000366
738.4570, 1.946533
738.9391, 2.949585
739.4212, 5.023682
739.9033, 10.86218
740.3854, 15.84314
740.8676, 15.93176
741.3497, 8.905518
741.8318, 4.070190
742.3139, 2.557129
742.7960, 2.635132
743.2781, 3.421265
743.7603, 5.104370
744.2424, 6.066650
744.7245, 6.149658
745.2066, 6.100220
745.6887, 6.693115
746.1708, 7.804199
746.6530, 9.198120
747.1351, 10.96436
747.6172, 12.39514
748.0993, 12.32568
748.5814, 11.94141
749.0635, 12.58069
749.5457, 15.20288
750.0278, 17.79871
750.5099, 19.07837
750.9920, 20.77625
751.4741, 25.67017
751.9562, 35.26465
752.4384, 41.05530
752.9205, 41.21924
753.4026, 38.37842
753.8847, 35.05493
754.3668, 31.97925
754.8489, 32.51685
755.3311, 39.61499
755.8132, 46.99316
756.2953, 47.56299
756.7774, 44.79980
757.2595, 44.78491
757.7416, 56.19263
758.2238, 62.60498
758.7059, 56.37744
759.1880, 43.75952
759.6701, 38.11279
760.1522, 41.99463
760.6343, 44.47534
761.1165, 42.30444
761.5986, 37.40137
762.0807, 34.54565
762.5628, 33.76343
763.0449, 34.74438
763.5270, 38.47607
764.0092, 42.74854
764.4913, 45.99243
764.9734, 48.46704
765.4555, 50.89453
765.9376, 52.84131
766.4197, 55.48389
766.9019, 59.49438
767.3840, 64.55542
767.8661, 69.57104
768.3482, 74.96118
768.8303, 78.90381
769.3124, 79.91748
769.7946, 79.13989
770.2767, 81.26221
770.7588, 85.90381
771.2409, 89.46509
771.7230, 88.26416
772.2051, 86.00464
772.6873, 87.29224
773.1694, 91.50146
773.6515, 93.31567
774.1336, 89.87549
774.6157, 84.57251
775.0978, 77.21851
775.5800, 68.11719
776.0621, 65.84473
776.5442, 72.67725
777.0263, 79.32812
777.5084, 80.46753
777.9905, 77.53369
778.4727, 76.47070
778.9548, 77.22876
779.4369, 79.04834
779.9190, 84.38428
780.4011, 88.52783
780.8832, 84.50488
781.3654, 72.19458
781.8475, 64.65186
782.3296, 70.02588
782.8117, 77.68848
783.2938, 81.98608
783.7759, 82.38428
784.2581, 85.73413
784.7402, 92.43237
785.2223, 100.8777
785.7044, 112.1794
786.1865, 124.5466
786.6686, 129.9888
787.1508, 128.4055
787.6329, 126.3120
788.1150, 129.7322
788.5971, 134.2861
789.0792, 135.4612
789.5613, 132.4302
790.0435, 129.4263
790.5256, 127.6111
791.0077, 125.8696
791.4898, 123.8804
791.9719, 121.9919
792.4540, 117.5347
792.9362, 109.8079
793.4183, 101.4766
793.9004, 95.27246
794.3825, 90.30835
794.8646, 83.82886
795.3467, 75.61670
795.8289, 67.94385
796.3110, 63.85693
796.7931, 60.51733
797.2752, 55.33350
797.7573, 47.21216
798.2394, 40.70825
798.7216, 36.84766
799.2037, 34.17212
799.6858, 31.80054
800.1679, 29.63013
800.6500, 29.08740
801.1321, 30.45459
801.6143, 31.70776
802.0964, 30.84668
802.5785, 28.60596
803.0606, 26.34766
803.5427, 24.22681
804.0248, 21.83740
804.5070, 18.61206
804.9891, 15.18359
805.4712, 11.62500
805.9533, 6.911133
806.4354, 5.815186
806.9175, 10.13501
807.3997, 15.43408
807.8818, 19.04468
808.3639, 20.89282
808.8460, 19.86670
809.3281, 15.93066
809.8102, 12.06421
810.2924, 11.29663
810.7745, 12.09106
811.2566, 12.15088
811.7387, 11.08008
812.2208, 10.96680
812.7029, 15.43213
813.1851, 19.32495
813.6672, 18.45972
814.1493, 11.08984
814.6314, 6.660889
815.1135, 5.561523
815.5956, 6.522949
816.0778, 9.269775
816.5599, 13.33179
817.0420, 16.85376
817.5241, 19.74121
818.0062, 21.12964
818.4883, 19.00122
818.9705, 15.86572
819.4526, 14.02881
819.9347, 13.81030
820.4168, 14.53125
820.8989, 18.98169
821.3810, 21.53735
821.8632, 18.28784
822.3453, 8.197998
822.8274, 3.270752
823.3095, 4.285889
823.7916, 6.358398
824.2737, 5.529541
824.7559, 3.068115
825.2380, 1.487305
825.7201, 0.9599610
826.2022, 0.6298830
826.6843, 3.2471001E-02
827.1664, 0.5615230
827.6486, 1.083008
828.1307, 1.572754
828.6128, 1.288818
829.0949, 0.1135250
829.5770, 1.468750
830.0591, 2.166504
830.5413, 2.304688
831.0234, 2.761963
831.5055, 3.511963
831.9876, 3.606934
832.4697, 0.9414060
832.9518, 1.834717
833.4340, 1.737061
833.9161, 1.308350
834.3982, 5.367920
834.8803, 12.79102
835.3624, 18.26074
835.8445, 19.35083
836.3267, 16.15234
836.8088, 12.15356
837.2909, 7.077881
837.7730, 2.866455
838.2551, 0.4594730
838.7372, 0.2443850
839.2194, 1.453369
839.7015, 5.047607
840.1836, 7.535889
840.6657, 6.364502
841.1478, 4.185791
841.6299, 2.263916
842.1121, 0.7453610
842.5942, 4.1503999E-02
843.0763, 3.1740000E-03
843.5584, 0.7983400
844.0405, 2.494873
844.5226, 4.951416
845.0048, 9.021973
845.4869, 14.44263
845.9690, 17.08838
846.4511, 11.79810
846.9332, 5.038330
847.4153, 5.625000
847.8975, 10.81250
848.3796, 12.79175
848.8617, 4.692871
849.3438, 2.150879
849.8259, 4.135254
850.3080, 2.739990
850.7902, 1.293457
851.2723, 0.3427730
851.7544, 0.9665530
852.2365, 0.5622560
852.7186, 2.019287
853.2007, 1.879639
853.6829, 9.167969
854.1650, 14.43994
854.6471, 14.67139
855.1292, 13.56787
855.6113, 12.80518
856.0934, 11.88525
856.5756, 9.605957
857.0577, 3.341553
857.5398, 1.471436
858.0219, 6.443115
858.5040, 13.80200
858.9861, 15.14526
859.4683, 11.73462
859.9504, 11.63721
860.4325, 17.92822
860.9146, 24.14575
861.3967, 23.74390
861.8788, 20.00244
862.3610, 16.99121
862.8431, 16.58911
863.3252, 15.31226
863.8073, 12.86450
864.2894, 9.543457
864.7715, 4.729492
865.2537, 1.811035
865.7358, 3.436035
866.2179, 0.9362790
866.7000, 6.395264
867.1821, 8.708008
867.6642, 8.695557
868.1464, 6.552734
868.6285, 1.542236
869.1106, 0.7126460
869.5927, 5.454834
870.0748, 12.25635
870.5569, 13.90186
871.0391, 9.260742
871.5212, 7.192139
872.0033, 7.868164
872.4854, 10.22681
872.9675, 14.98486
873.4496, 20.39282
873.9318, 20.79688
874.4139, 16.56104
874.8960, 14.27197
875.3781, 21.99463
875.8602, 29.95679
876.3423, 30.46191
876.8245, 22.66260
877.3066, 17.96338
877.7887, 18.57837
878.2708, 19.17017
878.7529, 16.85645
879.2350, 12.30591
879.7172, 8.794434
880.1993, 6.767090
880.6814, 6.048584
881.1635, 6.496338
881.6456, 7.300049
882.1277, 8.538818
882.6099, 10.11646
883.0920, 11.19189
883.5741, 11.18628
884.0562, 11.19922
884.5383, 11.64893
885.0204, 11.85059
885.5026, 9.417480
885.9847, 4.624756
886.4668, 2.426758
886.9489, 4.734375
887.4310, 8.980713
887.9131, 13.40112
888.3953, 17.55908
888.8774, 20.94165
889.3595, 25.59644
889.8416, 25.91919
890.3237, 17.36401
890.8058, 7.530762
891.2880, 5.372314
891.7701, 11.82422
892.2522, 14.02100
892.7343, 10.31128
893.2164, 5.987549
893.6985, 7.231934
894.1807, 11.10107
894.6628, 13.39551
895.1449, 13.31250
895.6270, 12.61841
896.1091, 11.64111
896.5912, 10.49146
897.0734, 9.042725
897.5555, 7.185791
898.0376, 7.073730
898.5197, 9.135986
899.0018, 10.53516
899.4839, 8.289551
899.9661, 4.459229
900.4482, 2.637939
900.9303, 2.798584
901.4124, 4.191406
901.8945, 8.814209
902.3766, 12.24829
902.8588, 10.77930
903.3409, 5.951172
903.8230, 5.278320
904.3051, 9.857178
904.7872, 14.22632
905.2693, 16.95190
905.7515, 17.94653
906.2336, 15.64746
906.7157, 11.40991
907.1978, 9.138672
907.6799, 11.99683
908.1620, 15.38257
908.6442, 18.37842
909.1263, 20.05225
909.6084, 18.75854
910.0905, 12.74585
910.5726, 8.484131
911.0547, 6.859863
911.5369, 6.847656
912.0190, 7.811523
912.5011, 9.364502
912.9832, 10.41016
913.4653, 10.76782
913.9474, 10.59521
914.4296, 9.910889
914.9117, 8.773926
915.3938, 6.865479
915.8759, 3.494141
916.3580, 2.545166
916.8401, 4.831299
917.3223, 7.435547
917.8044, 8.177979
918.2865, 7.587891
918.7686, 7.804199
919.2507, 8.748291
919.7328, 9.422363
920.2150, 8.854004
920.6971, 8.180176
921.1792, 7.584961
921.6613, 7.407227
922.1434, 9.639648
922.6255, 16.34204
923.1077, 20.57129
923.5898, 20.07178
924.0719, 16.63452
924.5540, 12.04688
925.0361, 6.989502
925.5182, 4.620117
926.0004, 7.832275
926.4825, 11.04956
926.9646, 8.024170
927.4467, 3.779053
927.9288, 6.218018
928.4109, 21.85205
928.8931, 31.30518
929.3752, 32.77051
929.8573, 29.62793
930.3394, 24.14038
930.8215, 17.21631
931.3036, 12.39038
931.7858, 10.25366
932.2679, 7.587646
932.7500, 0.7390140
933.2321, 8.292725
933.7142, 8.761963
934.1964, 0.1271970
934.6785, 2.038086
935.1606, 5.352539
935.6427, 11.50610
936.1248, 9.238525
936.6069, 1.815186
937.0891, 1.644287
937.5712, 7.172363
938.0533, 10.63110
938.5354, 5.153320
939.0175, 0.9580080
939.4996, 1.950195
939.9818, 0.1086430
940.4639, 1.218018
940.9460, 8.180420
941.4281, 12.66553
941.9102, 12.70654
942.3923, 10.58398
942.8745, 9.450928
943.3566, 9.207520
943.8387, 9.741455
944.3208, 11.33350
944.8029, 12.80884
945.2850, 12.49561
945.7672, 12.31494
946.2493, 14.91211
946.7314, 22.44141
947.2135, 23.36719
947.6956, 15.93213
948.1777, 7.987061
948.6599, 6.376709
949.1420, 8.637451
949.6241, 8.713379
950.1062, 6.728027
950.5883, 5.729736
951.0704, 7.093750
951.5526, 10.06519
952.0347, 15.52588
952.5168, 22.31250
952.9989, 26.09790
953.4810, 26.36108
953.9631, 25.87549
954.4453, 24.96484
954.9274, 24.54004
955.4095, 26.74585
955.8916, 30.54590
956.3737, 33.70044
956.8558, 35.12573
957.3380, 36.48169
957.8201, 37.63330
958.3022, 39.47729
958.7843, 43.06714
959.2664, 48.85669
959.7485, 54.36523
960.2307, 59.37842
960.7128, 64.31470
961.1949, 70.08521
961.6770, 75.69458
962.1591, 79.75122
962.6412, 82.12354
963.1234, 83.19653
963.6055, 79.65381
964.0876, 78.87183
964.5697, 84.88501
965.0518, 95.43579
965.5339, 100.3213
966.0161, 99.52271
966.4982, 98.73389
966.9803, 99.89917
967.4624, 102.3865
967.9445, 106.9397
968.4266, 111.9224
968.9088, 114.5459
969.3909, 111.5771
969.8730, 109.8123
970.3551, 109.6260
970.8372, 110.8618
971.3193, 114.7756
971.8015, 120.6997
972.2836, 121.0833
972.7657, 115.1836
973.2478, 110.1345
973.7299, 113.4688
974.2120, 118.5120
974.6942, 119.5122
975.1763, 115.9446
975.6584, 113.0161
976.1405, 110.1123
976.6226, 109.0371
977.1047, 110.1743
977.5869, 113.7100
978.0690, 121.9048
978.5511, 133.2104
979.0332, 142.1006
979.5153, 145.6345
979.9974, 147.4812
980.4796, 148.0078
980.9617, 148.4502
981.4438, 151.0610
981.9259, 157.5215
982.4080, 160.7632
982.8901, 159.6660
983.3723, 158.5408
983.8544, 161.7375
984.3365, 168.0811
984.8186, 176.5427
985.3007, 186.8479
985.7828, 195.1077
986.2650, 196.4038
986.7471, 198.6379
987.2292, 205.6079
987.7113, 216.6228
988.1934, 227.4805
988.6755, 237.9871
989.1577, 246.6816
989.6398, 253.1541
990.1219, 257.0803
990.6040, 255.6218
991.0861, 251.4939
991.5682, 250.1553
992.0504, 257.7834
992.5325, 261.7883
993.0146, 259.6731
993.4967, 254.7593
993.9788, 250.2944
994.4609, 246.5896
994.9431, 243.9910
995.4252, 242.1538
995.9073, 236.8550
996.3894, 220.7871
996.8715, 204.5315
997.3536, 196.9500
997.8358, 197.4849
998.3179, 193.5276
998.8000, 182.7246
999.2821, 173.0105
999.7642, 166.7290
1000.246, 162.7346
1000.728, 160.7522
1001.211, 159.1694
1001.693, 153.3240
1002.175, 138.9016
1002.657, 126.3804
1003.139, 122.3052
1003.621, 120.9219
1004.103, 116.8318
1004.585, 109.2034
1005.068, 103.8733
1005.550, 100.9641
1006.032, 98.56592
1006.514, 95.32324
1006.996, 91.60327
1007.478, 87.13013
1007.960, 82.29004
1008.442, 79.19336
1008.924, 81.38208
1009.407, 81.06226
1009.889, 74.78125
1010.371, 66.87256
1010.853, 68.60474
1011.335, 77.99316
1011.817, 80.88086
1012.299, 72.57983
1012.781, 63.84546
1013.263, 63.50659
1013.746, 66.22607
1014.228, 66.95044
1014.710, 65.03809
1015.192, 62.78418
1015.674, 60.26074
1016.156, 57.24316
1016.638, 52.25586
1017.120, 47.25879
1017.603, 47.76709
1018.085, 52.22388
1018.567, 55.17578
1019.049, 53.04932
1019.531, 50.28003
1020.013, 48.20117
1020.495, 46.08496
1020.977, 42.53149
1021.459, 37.44458
1021.942, 33.27271
1022.424, 30.22827
1022.906, 28.71069
1023.388, 31.54395
1023.870, 34.46997
1024.352, 32.37280
1024.834, 24.31396
1025.316, 18.72046
1025.799, 17.18652
1026.281, 16.11157
1026.763, 14.10425
1027.245, 11.65259
1027.727, 9.640625
1028.209, 8.162354
1028.691, 7.451172
1029.173, 7.447754
1029.656, 8.464355
1030.138, 12.24609
1030.620, 16.04077
1031.102, 17.07739
1031.584, 15.09668
1032.066, 10.32568
1032.548, 2.142822
1033.030, 3.312500
1033.512, 2.017090
1033.995, 10.96509
1034.477, 15.20386
1034.959, 14.89917
1035.441, 14.00342
1035.923, 14.72388
1036.405, 12.49658
1036.887, 4.888672
1037.369, 4.323242
1037.851, 7.567139
1038.334, 5.975830
1038.816, 4.251709
1039.298, 3.665771
1039.780, 1.880615
1040.262, 5.211426
1040.744, 12.07959
1041.226, 14.06763
1041.708, 10.95801
1042.191, 7.335449
1042.673, 2.954102
1043.155, 5.7128999E-02
1043.637, 1.036865
1044.119, 2.741699
1044.601, 1.138672
1045.083, 8.109863
1045.565, 12.32324
1046.047, 10.95605
1046.530, 8.211426
1047.012, 4.482666
1047.494, 0.4406740
1047.976, 8.833252
1048.458, 19.03149
1048.940, 21.30029
1049.422, 15.13379
1049.904, 8.566162
1050.386, 6.282227
1050.869, 5.416992
1051.351, 4.396484
1051.833, 3.294434
1052.315, 2.603516
1052.797, 2.213379
1053.279, 3.202881
1053.761, 6.339355
1054.243, 9.701904
1054.726, 9.269775
1055.208, 8.213379
1055.690, 11.86719
1056.172, 24.42334
1056.654, 31.29004
1057.136, 30.10181
1057.618, 25.67114
1058.100, 19.29663
1058.583, 12.27271
1059.065, 10.43481
1059.547, 12.88428
1060.029, 15.45166
1060.511, 15.01172
1060.993, 15.33179
1061.475, 19.15161
1061.957, 24.06909
1062.439, 26.54321
1062.922, 26.17554
1063.404, 27.40479
1063.886, 30.79321
1064.368, 33.69214
1064.850, 32.79028
1065.332, 30.93530
1065.814, 30.66162
1066.296, 32.15698
1066.778, 35.28369
1067.261, 41.08374
1067.743, 45.87451
1068.225, 48.56494
1068.707, 49.96729
1069.189, 51.44580
1069.671, 52.78589
1070.153, 53.48584
1070.635, 53.37988
1071.118, 52.72559
1071.600, 50.86426
1072.082, 49.19458
1072.564, 47.93921
1073.046, 47.37231
1073.528, 51.89600
1074.010, 61.09448
1074.492, 69.10425
1074.974, 72.25879
1075.457, 73.68188
1075.939, 74.04541
1076.421, 74.79956
1076.903, 78.66260
1077.385, 86.81396
1077.867, 94.28027
1078.349, 100.6177
1078.831, 107.0044
1079.313, 115.3726
1079.796, 123.9910
1080.278, 129.6692
1080.760, 132.7676
1081.242, 136.5918
1081.724, 139.2896
1082.206, 147.3535
1082.688, 164.1758
1083.170, 184.2610
1083.652, 196.6172
1084.135, 203.3809
1084.617, 212.2422
1085.099, 224.8528
1085.581, 238.1963
1086.063, 250.0251
1086.545, 262.4346
1087.027, 275.9570
1087.509, 290.9690
1087.992, 313.6921
1088.474, 344.2412
1088.956, 372.9990
1089.438, 395.0476
1089.920, 415.5688
1090.402, 439.5698
1090.884, 465.4932
1091.366, 491.2417
1091.849, 514.5002
1092.331, 543.6677
1092.813, 580.5586
1093.295, 617.2134
1093.777, 647.8269
1094.259, 674.1338
1094.741, 698.4771
1095.223, 721.5933
1095.705, 746.3892
1096.188, 781.3242
1096.670, 807.3550
1097.152, 820.3081
1097.634, 825.0476
1098.116, 827.5254
1098.598, 827.3181
1099.080, 822.8530
1099.562, 813.9854
1100.044, 800.8579
1100.527, 783.7556
1101.009, 762.3462
1101.491, 735.4124
1101.973, 703.8740
1102.455, 670.5867
1102.937, 635.2202
1103.419, 600.2913
1103.901, 566.4495
1104.384, 535.7656
1104.866, 512.7532
1105.348, 492.8354
1105.830, 471.0781
1106.312, 446.8857
1106.794, 423.0271
1107.276, 399.1384
1107.758, 376.8091
1108.240, 355.8933
1108.723, 336.9004
1109.205, 320.7913
1109.687, 306.2722
1110.169, 290.6875
1110.651, 271.0027
1111.133, 254.4648
1111.615, 242.6680
1112.097, 231.9197
1112.579, 218.3901
1113.062, 203.1086
1113.544, 189.1038
1114.026, 176.4492
1114.508, 165.9495
1114.990, 160.8232
1115.472, 154.4966
1115.954, 142.7756
1116.436, 130.1194
1116.919, 123.7188
1117.401, 122.9485
1117.883, 118.5862
1118.365, 109.8677
1118.847, 100.9270
1119.329, 94.68481
1119.811, 89.11743
1120.293, 82.30273
1120.776, 78.10010
1121.258, 70.73828
1121.740, 69.67065
1122.222, 67.79761
1122.704, 64.25610
1123.186, 60.21411
1123.668, 56.97241
1124.150, 54.23389
1124.632, 51.75000
1125.115, 49.51904
1125.597, 46.03833
1126.079, 40.14941
1126.561, 36.94751
1127.043, 39.56323
1127.525, 44.17188
1128.007, 45.09766
1128.489, 43.71313
1128.971, 41.38135
1129.454, 39.15894
1129.936, 35.55127
1130.418, 29.37451
1130.900, 23.99829
1131.382, 21.67822
1131.864, 21.60840
1132.346, 21.60620
1132.828, 21.64844
1133.311, 21.59424
1133.793, 19.80371
1134.275, 20.07544
1134.757, 24.44092
1135.239, 29.83594
1135.721, 34.13501
1136.203, 37.06494
1136.685, 35.28833
1137.167, 29.30811
1137.650, 25.72485
1138.132, 32.43262
1138.614, 38.20508
1139.096, 35.93701
1139.578, 29.93506
1140.060, 27.24780
1140.542, 27.99927
1141.024, 26.35938
1141.506, 21.54980
1141.989, 18.42993
1142.471, 23.82690
1142.953, 29.79468
1143.435, 29.90186
1143.917, 25.07812
1144.399, 20.57349
1144.881, 16.13550
1145.363, 14.38354
1145.846, 16.67236
1146.328, 19.51514
1146.810, 20.10571
1147.292, 18.81299
1147.774, 14.75073
1148.256, 7.149414
1148.738, 5.257813
1149.220, 12.01538
1149.703, 15.50366
1150.185, 9.968506
1150.667, 2.232178
1151.149, 2.335449
1151.631, 7.172363
1152.113, 12.28003
1152.595, 17.60254
1153.077, 19.55151
1153.559, 16.68481
1154.042, 13.69653
1154.524, 13.68628
1155.006, 14.96045
1155.488, 13.74023
1155.970, 10.70435
1156.452, 7.552246
1156.934, 4.936768
1157.416, 1.871094
1157.898, 2.960693
1158.381, 6.317871
1158.863, 4.524658
1159.345, 0.7248540
1159.827, 2.494629
1160.309, 1.432617
1160.791, 0.1479490
1161.273, 0.8945310
1161.755, 0.9741210
1162.238, 0.1928710
1162.720, 1.681396
1163.202, 6.641846
1163.684, 13.41162
1164.166, 12.17896
1164.648, 3.530029
1165.130, 3.054932
1165.612, 7.8856997E-02
1166.094, 3.745361
1166.577, 4.737061
1167.059, 4.354248
1167.541, 5.495117
1168.023, 7.862549
1168.505, 6.156982
1168.987, 0.1894530
1169.469, 4.645752
1169.951, 1.569824
1170.433, 3.740723
1170.916, 10.65454
1171.398, 16.73950
1171.880, 14.14722
1172.362, 2.930420
1172.844, 3.544434
1173.326, 2.258057
1173.808, 0.2534180
1174.290, 2.697021
1174.773, 5.548096
1175.255, 2.509766
1175.737, 4.892090
1176.219, 8.133545
1176.701, 7.045898
1177.183, 6.040283
1177.665, 6.466309
1178.147, 6.802734
1178.630, 5.647949
1179.112, 3.738525
1179.594, 0.7373050
1180.076, 3.301514
1180.558, 0.9238280
1181.040, 9.024902
1181.522, 15.06323
1182.004, 11.09717
1182.486, 4.328857
1182.969, 1.398926
1183.451, 1.188721
1183.933, 3.289551
1184.415, 8.650391
1184.897, 7.747314
1185.379, 0.9145510
1185.861, 6.079590
1186.343, 0.3901370
1186.825, 9.635254
1187.308, 11.62744
1187.790, 9.209961
1188.272, 6.453125
1188.754, 2.938721
1189.236, 2.750000
1189.718, 6.757568
1190.200, 9.731689
1190.682, 6.169922
1191.165, 1.691162
1191.647, 4.815674
1192.129, 11.65210
1192.611, 14.95215
1193.093, 11.37061
1193.575, 9.338623
1194.057, 9.264404
1194.539, 9.361328
1195.021, 7.926514
1195.504, 6.028809
1195.986, 4.836182
1196.468, 4.394043
1196.950, 4.917969
1197.432, 7.366943
1197.914, 8.564697
1198.396, 8.220703
1198.878, 6.888428
1199.360, 3.825195
1199.843, 0.9150390
1200.325, 1.221191
1200.807, 4.300781
1201.289, 8.126465
1201.771, 14.89258
1202.253, 15.72925
1202.735, 8.110107
1203.217, 0.4313960
1203.700, 0.1464840
1204.182, 3.744629
1204.664, 2.355957
1205.146, 3.497803
1205.628, 4.277832
1206.110, 4.153076
1206.592, 11.25928
1207.074, 15.32935
1207.557, 19.54810
1208.039, 20.42358
1208.521, 22.41138
1209.003, 22.22534
1209.485, 19.75903
1209.967, 15.60254
1210.449, 6.797607
1210.931, 4.187012
1211.413, 11.51953
1211.896, 21.91162
1212.378, 28.15771
1212.860, 30.50928
1213.342, 27.92407
1213.824, 20.37476
1214.306, 15.23535
1214.788, 13.72827
1215.270, 13.22363
1215.752, 13.33423
1216.235, 12.95044
1216.717, 9.977783
1217.199, 6.326416
1217.681, 4.608154
1218.163, 5.371338
1218.645, 5.288574
1219.127, 3.512695
1219.609, 2.545654
1220.092, 3.197510
1220.574, 5.034424
1221.056, 8.330078
1221.538, 11.94141
1222.020, 14.37939
1222.502, 15.35742
1222.984, 13.97021
1223.466, 9.427734
1223.948, 6.404297
1224.431, 6.779785
1224.913, 9.067139
1225.395, 12.00073
1225.877, 14.98242
1226.359, 17.25854
1226.841, 18.59668
1227.323, 19.22314
1227.805, 19.87524
1228.287, 18.40820
1228.770, 12.19971
1229.252, 6.384277
1229.734, 9.193604
1230.216, 16.25903
1230.698, 21.90015
1231.180, 25.85083
1231.662, 26.82666
1232.144, 24.21924
1232.627, 20.15942
1233.109, 15.21924
1233.591, 10.94092
1234.073, 9.102051
1234.555, 8.782959
1235.037, 9.042480
1235.519, 10.13599
1236.001, 9.328125
1236.484, 6.411377
1236.966, 3.809814
1237.448, 3.052490
1237.930, 2.430908
1238.412, 9.5946997E-02
1238.894, 2.743652
1239.376, 2.509033
1239.858, 0.8649900
1240.340, 5.770264
1240.823, 12.25317
1241.305, 15.75171
1241.787, 12.13110
1242.269, 6.855957
1242.751, 2.409912
1243.233, 0.2648930
1243.715, 3.329102
1244.197, 13.31934
1244.679, 16.06836
1245.162, 11.67236
1245.644, 8.093018
1246.126, 11.32617
1246.608, 14.84448
1247.090, 15.30396
1247.572, 12.99683
1248.054, 7.912842
1248.536, 0.3168950
1249.019, 2.079834
1249.501, 2.082520
1249.983, 5.895996
1250.465, 5.107422
1250.947, 4.258545
1251.429, 5.445068
1251.911, 7.535645
1252.393, 10.52466
1252.875, 14.06372
1253.358, 15.94971
1253.840, 16.54102
1254.322, 16.86304
1254.804, 18.93042
1255.286, 20.30713
1255.768, 18.22290
1256.250, 15.41333
1256.732, 14.68799
1257.214, 15.23901
1257.697, 12.27026
1258.179, 6.625488
1258.661, 2.850830
1259.143, 3.871094
1259.625, 5.864502
1260.107, 7.918457
1260.589, 10.71021
1261.071, 16.41187
1261.554, 23.17773
1262.036, 25.22095
1262.518, 23.79492
1263.000, 22.61646
1263.482, 24.68066
1263.964, 23.97729
1264.446, 19.34766
1264.928, 14.23242
1265.411, 11.72461
1265.893, 10.67456
1266.375, 8.475098
1266.857, 7.839111
1267.339, 7.681641
1267.821, 6.974121
1268.303, 8.079346
1268.785, 7.774170
1269.267, 7.406250
1269.750, 8.840088
1270.232, 10.10156
1270.714, 8.020996
1271.196, 3.667236
1271.678, 1.672607
1272.160, 3.861816
1272.642, 5.769287
1273.124, 6.746582
1273.606, 7.875732
1274.089, 10.08545
1274.571, 13.42651
1275.053, 21.50854
1275.535, 29.88477
1276.017, 29.92651
1276.499, 19.86914
1276.981, 15.02222
1277.463, 14.85596
1277.946, 14.89478
1278.428, 9.966064
1278.910, 6.358154
1279.392, 11.24829
1279.874, 17.54980
1280.356, 15.58691
1280.838, 5.629639
1281.320, 3.609863
1281.802, 9.350098
1282.285, 14.31177
1282.767, 13.00977
1283.249, 10.82886
1283.731, 8.726563
1284.213, 7.574951
1284.695, 8.834473
1285.177, 11.65234
1285.659, 11.48145
1286.141, 9.311523
1286.624, 9.048340
1287.106, 16.03735
1287.588, 18.97461
1288.070, 15.85132
1288.552, 11.68164
1289.034, 10.90454
1289.516, 11.79443
1289.998, 10.11304
1290.481, 7.114258
1290.963, 6.043457
1291.445, 10.10352
1291.927, 11.67285
1292.409, 9.719971
1292.891, 8.612305
1293.373, 13.42041
1293.855, 18.61377
1294.338, 16.05420
1294.820, 9.061279
1295.302, 3.450195
1295.784, 1.623779
1296.266, 1.392822
1296.748, 13.11890
1297.230, 21.45557
1297.712, 15.00439
1298.194, 6.993408
1298.677, 8.765137
1299.159, 14.30591
1299.641, 13.75342
1300.123, 10.91479
1300.605, 7.497070
1301.087, 3.375000
1301.569, 0.4060060
1302.051, 1.2451000E-02
1302.533, 6.6405997E-02
1303.016, 0.0000000E+00
##END=



