##NAMES=Elbaite
##RRUFFID=R050119
##IDEAL CHEMISTRY=Na(Al_1.5_Li_1.5_)Al_6_(Si_6_O_18_)(BO_3_)_3_(OH)_3_OH
##LOCALITY=Cruziero mine, San Jose, Minas Gerais, Brazil
##OWNER=RRUFF
##SOURCE=Carlos and Paulo Vasconcelos
##DESCRIPTION=Red fragment
##STATUS=The identification of this mineral has been confirmed by X-ray diffraction and chemical analysis
##URL=rruff.info/R050119
##MEASURED CHEMISTRY=(Na_0.90_Ca_0.10_)(Al_0.56_Li_0.38_Mn_0.06_)_3_Al_6_(BO_3_)_3_(Si_0.89_B_0.11_)_6_O_18_(OH)_4_
158.630, 0.000
160.013, 51.459
161.396, 6.124
162.779, 71.242
164.161, 18.397
165.544, 5.934
166.926, 77.338
168.308, 34.244
169.689, 146.676
171.070, 95.820
172.452, 204.434
173.833, 179.393
175.213, 154.751
176.594, 164.073
177.974, 65.303
179.354, 81.683
180.734, 6.868
182.114, 22.428
183.493, 19.936
184.872, 11.878
186.251, 3.095
187.630, 102.788
189.008, 146.148
190.387, 314.133
191.765, 444.702
193.143, 509.819
194.520, 599.578
195.898, 641.826
197.275, 719.524
198.652, 852.668
200.029, 1034.299
201.405, 1050.410
202.782, 1249.952
204.158, 1337.886
205.534, 1700.179
206.909, 2024.804
208.285, 2075.739
209.660, 2464.965
211.035, 2889.466
212.410, 3473.227
213.784, 4297.239
215.159, 5155.489
216.533, 6098.969
217.907, 6965.672
219.281, 7759.588
220.654, 8250.712
222.027, 8365.044
223.400, 8078.565
224.773, 7367.279
226.146, 6719.183
227.518, 5914.269
228.891, 5158.045
230.263, 4588.925
231.634, 4243.484
233.006, 4002.213
234.377, 3769.110
235.748, 3800.175
237.119, 3846.573
238.490, 3764.483
239.860, 3972.225
241.231, 4043.405
242.601, 4146.613
243.970, 4053.778
245.340, 3951.906
246.709, 3787.023
248.079, 3504.139
249.448, 3310.264
250.816, 2894.406
252.185, 2691.574
253.553, 2420.762
254.921, 2255.981
256.289, 2052.246
257.657, 1987.558
259.024, 1974.925
260.391, 1913.348
261.758, 1833.830
263.125, 1881.375
264.492, 1998.984
265.858, 2136.661
267.224, 2115.406
268.590, 2242.221
269.956, 2228.106
271.321, 2298.067
272.687, 2267.102
274.052, 2161.212
275.416, 2077.397
276.781, 2095.659
278.146, 1971.998
279.510, 1714.415
280.874, 1798.909
282.237, 1686.483
283.601, 1686.134
284.964, 1363.865
286.327, 1185.674
287.690, 1171.561
289.053, 953.527
290.416, 812.573
291.778, 677.697
293.140, 454.900
294.502, 293.183
295.863, 146.545
297.225, 158.985
298.586, 60.495
299.947, 18.895
301.308, 127.783
302.668, 104.540
304.029, 225.375
305.389, 438.291
306.749, 475.284
308.108, 567.355
309.468, 687.160
310.827, 726.539
312.186, 923.021
313.545, 873.943
314.903, 1094.764
316.262, 1227.899
317.620, 1208.002
318.978, 1447.472
320.336, 1665.234
321.693, 1839.456
323.051, 2147.651
324.408, 2527.820
325.765, 2672.245
327.121, 3020.214
328.478, 3181.395
329.834, 3266.070
331.190, 3309.619
332.546, 3422.342
333.902, 3340.221
335.257, 3361.149
336.612, 3355.345
337.967, 3268.633
339.322, 3190.068
340.677, 3112.643
342.031, 3167.354
343.385, 3063.194
344.739, 3155.031
346.093, 3214.627
347.446, 3077.444
348.799, 3233.588
350.153, 3307.020
351.505, 3346.562
352.858, 3454.209
354.210, 3547.959
355.563, 3725.811
356.915, 3890.762
358.267, 4186.807
359.618, 4706.948
360.969, 5128.182
362.321, 6067.504
363.672, 6757.914
365.022, 7871.413
366.373, 9122.996
367.723, 10461.660
369.073, 12250.410
370.423, 13898.238
371.773, 15396.144
373.122, 15984.129
374.471, 16060.191
375.821, 15596.330
377.169, 14203.542
378.518, 13019.829
379.866, 11212.190
381.215, 9842.623
382.563, 8732.131
383.910, 7557.703
385.258, 6764.351
386.605, 6022.066
387.952, 5605.848
389.299, 4957.700
390.646, 4855.618
391.992, 4601.592
393.339, 4459.627
394.685, 4434.729
396.031, 4422.896
397.376, 4469.747
398.722, 4499.420
400.067, 4678.777
401.412, 4739.194
402.757, 4860.669
404.101, 5028.197
405.446, 4942.780
406.790, 4876.917
408.134, 4694.110
409.478, 4445.859
410.821, 4185.663
412.165, 3783.523
413.508, 3245.439
414.851, 2974.412
416.193, 2452.439
417.536, 1917.523
418.878, 1537.663
420.220, 1148.914
421.562, 887.109
422.904, 570.416
424.245, 459.777
425.586, 307.616
426.927, 344.666
428.268, 218.192
429.609, 189.773
430.949, 85.409
432.289, 145.099
433.629, 221.842
434.969, 177.640
436.309, 271.490
437.648, 224.394
438.987, 393.351
440.326, 461.360
441.665, 413.424
443.003, 500.538
444.342, 592.704
445.680, 578.923
447.018, 658.192
448.355, 645.514
449.693, 596.886
451.030, 569.309
452.367, 569.782
453.704, 490.484
455.041, 448.004
456.377, 340.502
457.713, 316.174
459.049, 216.896
460.385, 156.584
461.721, 46.188
463.056, 43.056
464.391, 24.029
465.726, 135.071
467.061, 10.909
468.395, 110.064
469.730, 163.010
471.064, 99.939
472.398, 237.840
473.731, 63.739
475.065, 317.635
476.398, 233.567
477.731, 274.547
479.064, 164.588
480.397, 187.718
481.729, 88.916
483.062, 30.130
484.394, 91.291
485.725, 155.582
487.057, 132.528
488.389, 305.587
489.720, 332.747
491.051, 368.011
492.382, 549.387
493.712, 631.872
495.043, 699.474
496.373, 893.195
497.703, 837.039
499.032, 1049.010
500.362, 1269.104
501.691, 1378.334
503.020, 1606.699
504.349, 1699.170
505.678, 2018.776
507.007, 2082.516
508.335, 2324.408
509.663, 2413.404
510.991, 2638.520
512.319, 2804.735
513.646, 2833.018
514.973, 2971.381
516.300, 2820.830
517.627, 2846.369
518.954, 2685.976
520.280, 2327.637
521.607, 2222.353
522.933, 2037.136
524.259, 1769.977
525.584, 1618.870
526.910, 1511.814
528.235, 1648.809
529.560, 1739.852
530.885, 1958.948
532.209, 2055.100
533.534, 2055.283
534.858, 2295.531
536.182, 2331.823
537.506, 2407.164
538.829, 2427.551
540.152, 2411.983
541.476, 2348.459
542.799, 2249.976
544.121, 1886.535
545.444, 1981.135
546.766, 1802.772
548.088, 1642.449
549.410, 1629.162
550.732, 1441.912
552.053, 1393.700
553.375, 1341.523
554.696, 1196.743
556.017, 1049.277
557.337, 947.207
558.658, 905.172
559.978, 732.170
561.298, 668.203
562.618, 659.270
563.938, 559.369
565.257, 543.500
566.576, 418.664
567.895, 255.859
569.214, 224.087
570.533, 389.345
571.851, 249.635
573.170, 203.954
574.488, 274.304
575.805, 152.683
577.123, 191.090
578.440, 211.527
579.758, 220.992
581.075, 232.485
582.391, 101.006
583.708, 171.651
585.024, 270.129
586.341, 203.729
587.657, 334.356
588.972, 317.009
590.288, 490.688
591.603, 340.392
592.918, 243.122
594.233, 332.879
595.548, 316.660
596.863, 285.467
598.177, 233.300
599.491, 244.157
600.805, 294.040
602.119, 165.950
603.432, 182.885
604.746, 247.845
606.059, 205.827
607.372, 224.832
608.685, 143.859
609.997, 171.904
611.309, 117.971
612.621, 192.057
613.933, 144.160
615.245, 209.281
616.557, 249.421
617.868, 428.576
619.179, 281.754
620.490, 503.948
621.801, 383.158
623.111, 605.438
624.421, 630.398
625.731, 936.652
627.041, 901.675
628.351, 1259.440
629.660, 1315.904
630.970, 1508.240
632.279, 1783.166
633.588, 1858.609
634.896, 2001.167
636.205, 1984.829
637.513, 2159.091
638.821, 2004.121
640.129, 1980.865
641.437, 1811.088
642.744, 1633.786
644.051, 1403.090
645.358, 1291.866
646.665, 1082.307
647.972, 995.485
649.278, 695.799
650.584, 649.863
651.890, 507.560
653.196, 508.100
654.502, 289.596
655.807, 301.374
657.113, 155.246
658.418, 198.550
659.722, 254.525
661.027, 144.403
662.331, 153.315
663.636, 179.227
664.940, 245.054
666.244, 184.482
667.547, 350.017
668.851, 313.011
670.154, 385.071
671.457, 433.575
672.760, 440.138
674.062, 523.309
675.365, 556.215
676.667, 594.408
677.969, 598.801
679.271, 544.452
680.572, 524.642
681.874, 468.410
683.175, 506.199
684.476, 400.684
685.777, 443.905
687.077, 515.156
688.378, 547.148
689.678, 688.402
690.978, 931.180
692.278, 1134.948
693.577, 1401.923
694.877, 1684.522
696.176, 2012.898
697.475, 2454.060
698.774, 2873.477
700.072, 3617.254
701.371, 4370.621
702.669, 5102.589
703.967, 5811.529
705.265, 6756.442
706.562, 7805.329
707.860, 8285.188
709.157, 8502.019
710.454, 8957.817
711.751, 8715.592
713.047, 8319.335
714.344, 7691.051
715.640, 7072.734
716.936, 6163.389
718.232, 5340.012
719.527, 4841.605
720.823, 4086.168
722.118, 3553.699
723.413, 3181.198
724.708, 2788.667
726.002, 2502.103
727.297, 2393.504
728.591, 2184.875
729.885, 2260.213
731.179, 2199.518
732.472, 2167.788
733.766, 2232.025
735.059, 2308.228
736.352, 2628.396
737.645, 2857.529
738.937, 3234.627
740.230, 3703.691
741.522, 4088.718
742.814, 4738.709
744.106, 5415.779
745.397, 6153.812
746.689, 6862.889
747.980, 7375.220
749.271, 7782.448
750.562, 7901.525
751.853, 7864.740
753.143, 7308.293
754.433, 6855.781
755.723, 6196.811
757.013, 5883.854
758.303, 5831.125
759.592, 5096.074
760.881, 5046.828
762.170, 3986.035
763.459, 3720.436
764.748, 3285.938
766.036, 2945.900
767.325, 2864.177
768.613, 2559.494
769.901, 2622.699
771.188, 2502.918
772.476, 2421.993
773.763, 2630.025
775.050, 2509.016
776.337, 2556.959
777.624, 2559.860
778.910, 2375.722
780.196, 2033.561
781.482, 1737.356
782.768, 1279.128
784.054, 1058.882
785.339, 953.607
786.625, 677.332
787.910, 669.021
789.195, 422.724
790.479, 364.423
791.764, 258.126
793.048, 306.807
794.332, 217.471
795.616, 176.917
796.900, 224.669
798.183, 113.205
799.467, 91.326
800.750, 53.006
802.033, 47.817
803.316, 96.757
804.598, 91.852
805.880, 116.969
807.163, 129.604
808.445, 144.103
809.726, 163.873
811.008, 148.837
812.289, 202.985
813.570, 197.349
814.851, 83.923
816.132, 211.651
817.413, 179.599
818.693, 273.750
819.973, 92.155
821.253, 141.718
822.533, 85.465
823.813, 63.633
825.092, 14.354
826.371, 31.457
827.650, 50.688
828.929, 52.945
830.208, 157.489
831.486, 142.964
832.764, 40.367
834.042, 97.678
835.320, 189.909
836.598, 186.075
837.875, 221.175
839.152, 260.208
840.429, 146.182
841.706, 308.081
842.983, 143.922
844.259, 111.690
845.536, 349.380
846.812, 162.013
848.088, 278.574
849.363, 225.075
850.639, 326.513
851.914, 410.892
853.189, 320.216
854.464, 412.483
855.739, 511.692
857.013, 606.853
858.288, 640.960
859.562, 569.017
860.836, 766.024
862.110, 772.982
863.383, 674.890
864.656, 911.768
865.930, 909.618
867.203, 910.426
868.475, 1275.182
869.748, 1302.925
871.020, 979.617
872.292, 1106.287
873.564, 1038.924
874.836, 1030.515
876.108, 1056.067
877.379, 1159.591
878.650, 1096.078
879.922, 1102.518
881.192, 1033.939
882.463, 968.313
883.733, 912.676
885.004, 880.208
886.274, 790.294
887.544, 791.527
888.813, 770.714
890.083, 637.856
891.352, 678.959
892.621, 734.012
893.890, 631.018
895.159, 590.975
896.427, 501.884
897.695, 501.746
898.964, 483.573
900.232, 414.365
901.499, 430.123
902.767, 457.849
904.034, 416.534
905.301, 327.169
906.568, 333.747
907.835, 434.270
909.102, 213.743
910.368, 358.155
911.634, 287.510
912.900, 362.809
914.166, 346.051
915.432, 529.238
916.697, 494.375
917.962, 375.464
919.227, 529.503
920.492, 509.491
921.757, 526.431
923.021, 513.319
924.285, 563.219
925.550, 609.677
926.813, 673.697
928.077, 747.424
929.341, 804.099
930.604, 878.726
931.867, 1006.303
933.130, 882.831
934.393, 959.310
935.655, 1163.733
936.918, 1123.107
938.180, 1244.443
939.442, 1155.726
940.703, 1252.960
941.965, 1349.143
943.226, 1374.236
944.488, 1400.816
945.749, 1448.527
947.009, 1562.796
948.270, 1475.770
949.530, 1574.930
950.791, 1575.900
952.051, 1558.360
953.311, 1657.117
954.570, 1503.104
955.830, 1704.916
957.089, 1620.938
958.348, 1739.289
959.607, 1641.754
960.866, 1843.223
962.124, 1888.367
963.383, 1813.396
964.641, 1937.951
965.899, 1944.789
967.156, 2069.684
968.414, 2094.501
969.671, 2177.273
970.928, 2207.085
972.185, 2263.843
973.442, 2271.266
974.699, 2371.773
975.955, 2424.166
977.211, 2489.070
978.468, 2366.868
979.723, 2629.432
980.979, 2458.371
982.234, 2521.393
983.490, 2665.167
984.745, 2366.633
986.000, 2603.510
987.254, 2611.758
988.509, 2495.932
989.763, 2518.359
991.017, 2542.998
992.271, 2557.553
993.525, 2486.318
994.779, 2539.766
996.032, 2469.676
997.285, 2417.500
998.538, 2454.099
999.791, 2378.797
1001.044, 2472.186
1002.296, 2317.188
1003.548, 2401.732
1004.800, 2417.781
1006.052, 2361.021
1007.304, 2400.037
1008.555, 2473.432
1009.807, 2515.679
1011.058, 2485.733
1012.309, 2493.828
1013.559, 2559.733
1014.810, 2667.249
1016.060, 2628.331
1017.310, 2860.234
1018.560, 2986.244
1019.810, 2832.393
1021.060, 3078.269
1022.309, 3125.603
1023.558, 3152.284
1024.807, 3408.088
1026.056, 3242.402
1027.305, 3434.383
1028.553, 3461.030
1029.801, 3628.975
1031.049, 3588.230
1032.297, 3522.894
1033.545, 3601.615
1034.793, 3666.524
1036.040, 3742.324
1037.287, 3928.533
1038.534, 4035.516
1039.781, 4211.830
1041.027, 4666.088
1042.274, 4555.605
1043.520, 5006.178
1044.766, 5481.879
1046.012, 5630.322
1047.257, 6014.051
1048.503, 6475.844
1049.748, 7078.303
1050.993, 7275.085
1052.238, 8087.230
1053.483, 8599.946
1054.727, 8931.824
1055.971, 9279.088
1057.216, 9862.214
1058.459, 10046.449
1059.703, 10171.931
1060.947, 10025.847
1062.190, 10318.895
1063.433, 10143.945
1064.676, 9927.682
1065.919, 9694.475
1067.162, 9447.655
1068.404, 9372.083
1069.646, 8767.812
1070.888, 8518.375
1072.130, 8456.346
1073.372, 8039.680
1074.613, 7838.995
1075.855, 7636.639
1077.096, 7152.541
1078.337, 6906.689
1079.578, 6813.062
1080.818, 6356.295
1082.059, 6082.668
1083.299, 5607.221
1084.539, 5491.254
1085.779, 5204.123
1087.018, 4963.551
1088.258, 4640.938
1089.497, 4397.922
1090.736, 4197.504
1091.975, 4007.794
1093.213, 3686.361
1094.452, 3374.787
1095.690, 3357.358
1096.928, 2808.309
1098.166, 2651.721
1099.404, 2645.477
1100.642, 2447.976
1101.879, 2253.957
1103.116, 2228.814
1104.353, 1973.128
1105.590, 1906.523
1106.827, 1718.006
1108.063, 1787.413
1109.299, 1540.919
1110.536, 1661.383
1111.771, 1557.506
1113.007, 1354.916
1114.243, 1253.167
1115.478, 1171.044
1116.713, 1153.657
1117.948, 1129.121
1119.183, 1049.746
1120.418, 967.701
1121.652, 1083.230
1122.886, 1009.713
1124.120, 943.256
1125.354, 841.174
1126.588, 760.901
1127.821, 794.640
1129.055, 673.194
1130.288, 619.719
1131.521, 628.147
1132.753, 568.927
1133.986, 414.028
1135.218, 517.437
1136.450, 587.541
1137.682, 438.955
1138.914, 544.929
1140.146, 399.124
1141.377, 359.769
1142.609, 328.879
1143.840, 283.529
1145.071, 295.621
1146.301, 285.457
1147.532, 283.218
1148.762, 179.985
1149.992, 193.847
1151.222, 140.580
1152.452, 160.691
1153.682, 198.338
1154.911, 95.667
1156.140, 237.113
1157.369, 27.369
1158.598, 65.981
1159.827, 49.346
1161.055, 88.027
1162.284, 78.573
1163.512, 87.689
1164.740, 18.185
1165.967, 33.388
1167.195, 136.916
1168.422, 50.237
1169.650, 99.357
1170.877, 55.710
1172.103, 17.142
1173.330, 43.029
1174.557, 69.783
1175.783, 48.829
1177.009, 6.495
1178.235, 117.822
1179.461, 55.050
1180.686, 141.774
1181.912, 69.118
1183.137, 51.376
1184.362, 128.937
1185.587, 0.184
1186.811, 8.699
1188.036, 25.082
1189.260, 28.345
1190.484, 17.706
1191.708, 3.222
1192.932, 24.492
1194.155, 2.106
1195.378, 53.803
1196.602, 50.113
1197.825, 60.400
1199.047, 65.627
1200.270, 41.422
1201.492, 5.159
1202.715, 26.822
1203.937, 44.759
1205.159, 4.474
1206.380, 33.818
1207.602, 88.899
1208.823, 7.931
1210.044, 42.688
1211.265, 90.836
1212.486, 24.720
1213.707, 3.451
1214.927, 1.325
1216.147, 18.191
1217.367, 22.872
1218.587, 155.735
1219.807, 46.318
1221.027, 64.849
1222.246, 44.677
1223.465, 65.289
1224.684, 76.007
1225.903, 25.252
1227.121, 37.446
1228.340, 15.594
1229.558, 178.681
1230.776, 292.717
1231.994, 82.709
1233.212, 30.349
1234.429, 178.528
1235.646, 32.354
1236.864, 112.122
1238.081, 171.838
1239.297, 95.505
1240.514, 120.120
1241.730, 75.660
1242.947, 9.147
1244.163, 95.580
1245.378, 21.960
1246.594, 57.286
1247.810, 183.560
1249.025, 11.220
1250.240, 102.939
1251.455, 86.046
1252.670, 67.100
1253.885, 89.100
1255.099, 70.048
1256.313, 85.938
1257.527, 61.224
1258.741, 111.538
1259.955, 158.247
1261.168, 28.898
1262.382, 82.495
1263.595, 128.030
1264.808, 97.508
1266.021, 35.925
1267.233, 136.282
1268.446, 152.588
1269.658, 139.811
1270.870, 43.978
1272.082, 86.081
1273.294, 82.131
1274.505, 125.060
1275.716, 125.934
1276.928, 139.753
1278.139, 47.514
1279.349, 203.217
1280.560, 121.863
1281.770, 185.452
1282.981, 101.987
1284.191, 197.468
1285.401, 134.893
1286.610, 28.264
1287.820, 135.580
1289.029, 236.846
1290.239, 123.024
1291.448, 173.192
1292.656, 182.276
1293.865, 170.298
1295.073, 136.836
1296.282, 156.341
1297.490, 53.653
1298.698, 152.958
1299.906, 217.368
1301.113, 176.301
1302.320, 7.774
1303.528, 111.318
1304.735, 156.973
1305.942, 67.509
1307.148, 122.156
1308.355, 218.115
1309.561, 40.432
1310.767, 275.847
1311.973, 203.076
1313.179, 56.091
1314.384, 51.701
1315.590, 131.425
1316.795, 126.228
1318.000, 0.281
1319.205, 164.748
1320.410, 207.477
1321.614, 96.465
1322.819, 154.917
1324.023, 153.318
1325.227, 67.077
1326.431, 149.708
1327.634, 160.853
1328.838, 131.349
1330.041, 41.438
1331.244, 120.536
1332.447, 72.236
1333.650, 97.930
1334.852, 99.196
1336.055, 48.037
1337.257, 91.604
1338.459, 45.861
1339.661, 53.657
1340.862, 245.326
1342.064, 98.197
1343.265, 153.396
1344.466, 6.758
1345.667, 102.580
1346.868, 68.530
1348.068, 174.670
1349.269, 89.925
1350.469, 116.448
1351.669, 154.633
1352.869, 208.070
1354.069, 167.046
1355.268, 236.305
1356.468, 181.083
1357.667, 311.239
1358.866, 273.303
1360.065, 118.151
1361.263, 277.422
1362.462, 98.663
1363.660, 276.355
1364.858, 429.975
1366.056, 250.147
1367.254, 380.466
1368.451, 324.330
1369.649, 360.370
1370.846, 184.839
1372.043, 366.102
1373.240, 289.074
1374.436, 257.103
1375.633, 268.102
1376.829, 218.713
1378.025, 262.159
1379.221, 176.456
1380.417, 361.985
1381.613, 363.656
1382.808, 330.079
1384.003, 514.402
1385.199, 334.525
1386.393, 382.696
1387.588, 357.938
1388.783, 422.683
1389.977, 376.117
1391.171, 543.936
1392.365, 513.576
1393.559, 369.543
1394.753, 504.089
1395.946, 530.262
1397.140, 546.152
1398.333, 516.196
1399.526, 708.196
1400.719, 605.220
1401.911, 718.141
1403.104, 811.716
1404.296, 670.669
1405.488, 645.452
1406.680, 729.883
1407.872, 573.936
1409.063, 712.454
1410.255, 760.471
1411.446, 586.672
1412.637, 738.104
1413.828, 564.346
1415.018, 622.916
1416.209, 600.609
1417.399, 694.531
1418.589, 579.740
1419.779, 636.641
1420.969, 652.641
1422.159, 624.650
1423.348, 586.525
1424.537, 569.361
1425.726, 515.803
1426.915, 502.494
1428.104, 475.283
1429.293, 445.080
1430.481, 407.711
1431.669, 342.102
1432.857, 412.471
1434.045, 474.797
1435.233, 330.807
1436.420, 674.555
1437.608, 652.697
1438.795, 597.861
1439.982, 572.109
1441.169, 665.305
1442.355, 596.500
1443.542, 635.645
1444.728, 713.775
1445.914, 608.910
1447.100, 625.027
1448.286, 605.240
1449.472, 480.453
1450.657, 360.666
1451.842, 670.893
1453.027, 535.133
1454.212, 530.377
1455.397, 707.648
1456.581, 456.938
1457.766, 676.266
1458.950, 706.660
1460.134, 611.127
1461.318, 773.705
1462.501, 726.436
1463.685, 765.426
1464.868, 1006.691
1466.051, 792.061
1467.234, 851.561
1468.417, 748.178
1469.600, 826.930
1470.782, 666.787
1471.965, 602.730
1473.147, 582.564
1474.329, 563.969
1475.510, 496.273
1476.692, 275.723
1477.873, 232.330
1479.055, 219.117
1480.236, 174.098
1481.416, 436.291
1482.597, 230.727
1483.778, 304.430
1484.958, 163.430
1486.138, 199.748
1487.318, 196.391
1488.498, 399.365
1489.678, 276.695
1490.857, 215.422
1492.037, 442.590
1493.216, 424.254
1494.395, 194.475
1495.574, 176.326
1496.752, 294.889
1497.931, 83.248
1499.109, 349.512
1500.287, 1.168
1501.465, 305.385
1502.643, 14.600
1503.820, 252.021
1504.998, 223.805
1506.175, 104.770
1507.352, 100.303
1508.529, 0.000
##END=



