##NAMES=Elbaite
##RRUFFID=R070564
##IDEAL CHEMISTRY=Na(Al_1.5_Li_1.5_)Al_6_(Si_6_O_18_)(BO_3_)_3_(OH)_3_OH
##LOCALITY=unknown
##OWNER=RRUFF
##SOURCE=Gemological Institute of America
##DESCRIPTION=Green outer portion of a zoned watermelon tourmaline slice, see also R060566 (pink) and R070563 (white)
##STATUS=The identification of this mineral is confirmed by single-crystal X-ray diffraction and chemical analysis.
##URL=rruff.info/R070564
##MEASURED CHEMISTRY=(Na_0.77_[box]_0.19_Ca_0.04_)_Σ=1_(Al_1.69_Li_0.66_Fe^2+^_0.49_Mn_0.12_Mg_0.03_Ti_0.01_)_Σ=3_Al_6.00_(BO_3_)_3_Si_6.00_O_18_((OH)_3.10_F_0.90_)_Σ=4_; H_2_O from stoichiometry after deduction of F; B_2_O_3_ by difference; Li by charge balance
148.8193, 0.0000000E+00
149.3015, 2.434570
149.7836, 40.76953
150.2657, 94.93262
150.7478, 155.6680
151.2299, 209.3838
151.7121, 253.5371
152.1942, 283.1494
152.6763, 294.4551
153.1584, 288.1221
153.6405, 280.2051
154.1226, 287.0908
154.6048, 310.5459
155.0869, 311.5381
155.5690, 231.0693
156.0511, 155.3291
156.5332, 156.7832
157.0153, 253.4355
157.4975, 395.6367
157.9796, 420.1064
158.4617, 293.6582
158.9438, 189.3818
159.4259, 130.4082
159.9080, 109.0859
160.3902, 143.4434
160.8723, 217.6904
161.3544, 311.4424
161.8365, 370.6484
162.3186, 385.6846
162.8007, 390.7031
163.2829, 415.1631
163.7650, 448.9375
164.2471, 417.3760
164.7292, 295.0898
165.2113, 95.67090
165.6934, 30.24805
166.1756, 34.93359
166.6577, 16.19238
167.1398, 12.06543
167.6219, 46.07422
168.1040, 87.10938
168.5861, 139.2568
169.0683, 205.3789
169.5504, 233.4082
170.0325, 215.1934
170.5146, 174.9746
170.9967, 100.2402
171.4788, 2.349609
171.9610, 64.79883
172.4431, 38.00000
172.9252, 113.6455
173.4073, 200.1875
173.8894, 188.1123
174.3715, 130.9385
174.8537, 58.63086
175.3358, 24.59375
175.8179, 87.64941
176.3000, 73.11621
176.7821, 26.60156
177.2642, 89.34473
177.7464, 41.78906
178.2285, 47.79980
178.7106, 54.75000
179.1927, 70.94434
179.6748, 233.9844
180.1569, 315.9922
180.6391, 321.9756
181.1212, 291.5664
181.6033, 213.7354
182.0854, 105.8281
182.5675, 39.42188
183.0496, 42.08691
183.5318, 87.87207
184.0139, 151.4678
184.4960, 236.2529
184.9781, 305.9316
185.4602, 324.6953
185.9423, 292.0078
186.4245, 257.6836
186.9066, 212.5430
187.3887, 188.0322
187.8708, 218.8428
188.3529, 315.9795
188.8350, 431.2461
189.3172, 514.4941
189.7993, 568.1768
190.2814, 578.3379
190.7635, 492.0898
191.2456, 388.7002
191.7277, 321.6768
192.2099, 308.9795
192.6920, 345.8223
193.1741, 437.0977
193.6562, 637.5117
194.1383, 779.8086
194.6204, 808.6807
195.1026, 782.4238
195.5847, 754.3994
196.0668, 748.5381
196.5489, 760.3057
197.0310, 773.8799
197.5131, 772.8418
197.9953, 797.9658
198.4774, 886.3057
198.9595, 995.0742
199.4416, 1066.129
199.9237, 1060.884
200.4058, 994.9199
200.8880, 973.0527
201.3701, 1024.436
201.8522, 1094.258
202.3343, 1185.538
202.8164, 1288.494
203.2985, 1388.600
203.7807, 1475.731
204.2628, 1550.611
204.7449, 1626.290
205.2270, 1676.165
205.7091, 1753.236
206.1912, 1895.307
206.6734, 2080.520
207.1555, 2259.126
207.6376, 2389.381
208.1197, 2468.420
208.6018, 2558.447
209.0839, 2634.179
209.5661, 2740.059
210.0482, 2911.148
210.5303, 3137.681
211.0124, 3376.911
211.4945, 3593.308
211.9766, 3783.014
212.4588, 3968.829
212.9409, 4169.918
213.4230, 4353.381
213.9051, 4461.305
214.3872, 4501.734
214.8693, 4588.295
215.3515, 4845.867
215.8336, 5304.254
216.3157, 5671.361
216.7978, 5876.498
217.2799, 6026.721
217.7620, 6217.180
218.2442, 6460.303
218.7263, 6706.473
219.2084, 6917.049
219.6905, 7090.998
220.1726, 7209.258
220.6547, 7258.814
221.1369, 7255.725
221.6190, 7208.451
222.1011, 7113.221
222.5832, 7002.873
223.0653, 6930.406
223.5474, 6885.404
224.0296, 6776.271
224.5117, 6525.234
224.9938, 6209.174
225.4759, 5957.777
225.9580, 5799.729
226.4401, 5673.413
226.9223, 5522.441
227.4044, 5350.906
227.8865, 5171.555
228.3686, 4984.984
228.8507, 4795.076
229.3328, 4599.340
229.8150, 4375.445
230.2971, 4129.402
230.7792, 4135.013
231.2613, 4115.980
231.7434, 4073.646
232.2255, 3938.503
232.7077, 3925.868
233.1898, 3868.416
233.6719, 3809.145
234.1540, 3818.254
234.6361, 3707.067
235.1182, 3721.077
235.6004, 3688.529
236.0825, 3691.817
236.5646, 3634.443
237.0467, 3659.992
237.5288, 3866.844
238.0109, 4060.966
238.4931, 4086.766
238.9752, 3968.648
239.4573, 3848.590
239.9394, 3837.986
240.4215, 3923.874
240.9036, 3976.832
241.3858, 3968.613
241.8679, 3936.940
242.3500, 3911.241
242.8321, 3894.299
243.3142, 3871.832
243.7963, 3818.537
244.2785, 3731.094
244.7606, 3665.362
245.2427, 3647.543
245.7248, 3636.992
246.2069, 3616.998
246.6890, 3586.932
247.1712, 3546.325
247.6533, 3497.109
248.1354, 3440.752
248.6175, 3357.390
249.0996, 3194.111
249.5817, 3050.259
250.0639, 2996.872
250.5460, 3015.516
251.0281, 3023.100
251.5102, 2924.734
251.9923, 2707.030
252.4744, 2554.442
252.9566, 2517.113
253.4387, 2510.749
253.9208, 2525.783
254.4029, 2547.991
254.8850, 2543.536
255.3671, 2464.426
255.8493, 2297.970
256.3314, 2182.100
256.8135, 2165.596
257.2956, 2162.936
257.7777, 2144.540
258.2599, 2111.530
258.7420, 2080.227
259.2241, 2070.217
259.7062, 2085.312
260.1883, 2079.964
260.6704, 2038.998
261.1526, 1988.490
261.6347, 1927.888
262.1168, 1863.049
262.5989, 1806.608
263.0810, 1765.452
263.5631, 1738.591
264.0453, 1742.746
264.5274, 1831.548
265.0095, 1905.024
265.4916, 1926.535
265.9737, 1902.518
266.4558, 1859.543
266.9380, 1817.611
267.4201, 1776.672
267.9022, 1738.593
268.3843, 1708.195
268.8664, 1676.211
269.3485, 1634.556
269.8307, 1588.333
270.3128, 1549.970
270.7949, 1531.078
271.2770, 1531.996
271.7591, 1528.297
272.2412, 1496.126
272.7234, 1482.558
273.2055, 1534.758
273.6876, 1617.881
274.1697, 1655.453
274.6518, 1581.826
275.1339, 1401.172
275.6161, 1258.495
276.0982, 1170.860
276.5803, 1108.837
277.0624, 1092.414
277.5445, 1096.401
278.0266, 1074.658
278.5088, 990.1270
278.9909, 850.4365
279.4730, 752.0674
279.9551, 730.8584
280.4372, 717.3994
280.9193, 698.5713
281.4015, 677.4219
281.8836, 661.7324
282.3657, 657.0576
282.8478, 661.1230
283.3299, 660.3379
283.8120, 667.8643
284.2942, 652.8867
284.7763, 607.4805
285.2584, 537.3926
285.7405, 441.2920
286.2226, 313.0625
286.7047, 173.1904
287.1869, 105.5869
287.6690, 195.6338
288.1511, 250.1953
288.6332, 224.5654
289.1153, 153.2725
289.5974, 72.30859
290.0796, 1.751953
290.5617, 66.22168
291.0438, 110.7900
291.5259, 118.9922
292.0080, 130.9805
292.4901, 171.3467
292.9723, 209.5020
293.4544, 206.3564
293.9365, 146.2021
294.4186, 61.13477
294.9007, 22.82910
295.3828, 60.76367
295.8650, 94.73926
296.3471, 121.6934
296.8292, 139.0010
297.3113, 144.3975
297.7934, 137.3398
298.2755, 118.6836
298.7577, 84.25488
299.2398, 10.44922
299.7219, 24.10352
300.2040, 30.00000
300.6861, 89.94434
301.1682, 87.28418
301.6504, 12.12793
302.1325, 80.58887
302.6146, 111.3008
303.0967, 54.50879
303.5788, 13.63965
304.0609, 14.49805
304.5431, 20.85645
305.0252, 15.85938
305.5073, 89.49023
305.9894, 161.1475
306.4715, 183.5312
306.9536, 143.6543
307.4358, 116.0254
307.9179, 100.1055
308.4000, 97.78320
308.8821, 118.5801
309.3642, 157.0156
309.8463, 193.3799
310.3285, 200.4033
310.8106, 174.7646
311.2927, 197.6055
311.7748, 339.8115
312.2569, 461.7354
312.7390, 488.1943
313.2212, 450.8672
313.7033, 433.2598
314.1854, 505.6846
314.6675, 653.7969
315.1496, 758.3027
315.6317, 798.6465
316.1139, 817.4902
316.5960, 813.0059
317.0781, 802.1211
317.5602, 815.4082
318.0423, 880.5156
318.5244, 973.9951
319.0066, 1016.468
319.4887, 982.6953
319.9708, 943.9238
320.4529, 914.0947
320.9350, 897.1680
321.4171, 901.5664
321.8993, 934.8271
322.3814, 981.4707
322.8635, 1013.655
323.3456, 1030.813
323.8277, 1034.993
324.3098, 992.2666
324.7920, 953.9209
325.2741, 977.3174
325.7562, 1086.505
326.2383, 1214.587
326.7204, 1271.033
327.2025, 1244.546
327.6847, 1236.547
328.1668, 1315.566
328.6489, 1394.957
329.1310, 1385.656
329.6131, 1272.748
330.0952, 1172.014
330.5774, 1201.272
331.0595, 1352.745
331.5416, 1490.024
332.0237, 1596.645
332.5058, 1669.807
332.9879, 1708.311
333.4701, 1713.311
333.9522, 1704.779
334.4343, 1685.059
334.9164, 1659.863
335.3985, 1651.726
335.8806, 1669.862
336.3628, 1692.911
336.8449, 1700.277
337.3270, 1696.357
337.8091, 1699.061
338.2912, 1724.028
338.7733, 1757.341
339.2555, 1769.188
339.7376, 1751.603
340.2197, 1742.610
340.7018, 1774.994
341.1839, 1838.273
341.6660, 1906.617
342.1482, 1992.799
342.6303, 2070.632
343.1124, 2103.027
343.5945, 2091.396
344.0766, 2091.052
344.5587, 2142.973
345.0409, 2227.575
345.5230, 2280.299
346.0051, 2274.689
346.4872, 2268.976
346.9693, 2313.248
347.4514, 2389.742
347.9336, 2428.500
348.4157, 2389.543
348.8978, 2307.564
349.3799, 2259.977
349.8620, 2243.146
350.3441, 2254.568
350.8263, 2341.110
351.3084, 2448.331
351.7905, 2463.273
352.2726, 2342.493
352.7547, 2189.619
353.2368, 2166.656
353.7190, 2314.155
354.2011, 2467.190
354.6832, 2645.250
355.1653, 2806.754
355.6474, 2890.268
356.1295, 2894.674
356.6117, 2904.804
357.0938, 3016.410
357.5759, 3252.324
358.0580, 3437.449
358.5401, 3513.452
359.0222, 3597.262
359.5044, 3781.042
359.9865, 4037.661
360.4686, 4265.758
360.9507, 4378.428
361.4328, 4385.582
361.9149, 4494.971
362.3971, 4783.795
362.8792, 5087.013
363.3613, 5382.654
363.8434, 5658.898
364.3255, 5890.568
364.8076, 6060.861
365.2898, 6207.646
365.7719, 6452.307
366.2540, 6920.300
366.7361, 7308.166
367.2182, 7554.889
367.7003, 7737.723
368.1825, 7918.192
368.6646, 8116.717
369.1467, 8326.562
369.6288, 8543.995
370.1109, 8792.479
370.5930, 8974.164
371.0752, 9100.861
371.5573, 9150.679
372.0394, 9089.799
372.5215, 8930.116
373.0036, 8727.840
373.4857, 8529.822
373.9679, 8336.752
374.4500, 8134.135
374.9321, 7928.514
375.4142, 7708.262
375.8963, 7464.603
376.3784, 7196.239
376.8606, 6910.904
377.3427, 6616.237
377.8248, 6308.799
378.3069, 5972.997
378.7890, 5592.433
379.2711, 5216.184
379.7533, 4810.129
380.2354, 4439.945
380.7175, 4207.525
381.1996, 4181.332
381.6817, 4204.975
382.1638, 4078.119
382.6460, 3797.364
383.1281, 3533.982
383.6102, 3345.229
384.0923, 3203.422
384.5744, 3070.297
385.0565, 2943.129
385.5387, 2828.197
386.0208, 2741.165
386.5029, 2668.257
386.9850, 2567.428
387.4671, 2420.172
387.9492, 2277.928
388.4314, 2210.586
388.9135, 2211.258
389.3956, 2199.977
389.8777, 2140.253
390.3598, 2070.684
390.8419, 2035.164
391.3241, 2031.920
391.8062, 2023.737
392.2883, 1983.597
392.7704, 1914.243
393.2525, 1854.263
393.7346, 1772.435
394.2168, 1732.148
394.6989, 1799.771
395.1810, 1927.997
395.6631, 2014.506
396.1452, 2009.654
396.6273, 1936.506
397.1095, 1856.097
397.5916, 1715.972
398.0737, 1638.399
398.5558, 1685.789
399.0379, 1767.751
399.5201, 1776.476
400.0022, 1697.521
400.4843, 1625.754
400.9664, 1702.975
401.4485, 2012.025
401.9306, 2184.271
402.4128, 2122.008
402.8949, 2032.468
403.3770, 2015.269
403.8591, 2057.964
404.3412, 2094.222
404.8233, 2069.512
405.3055, 1994.007
405.7876, 1958.988
406.2697, 1998.654
406.7518, 2031.953
407.2339, 2055.652
407.7160, 2055.309
408.1982, 2002.417
408.6803, 1878.629
409.1624, 1736.049
409.6445, 1664.144
410.1266, 1675.073
410.6087, 1695.033
411.0909, 1748.856
411.5730, 1773.690
412.0551, 1703.913
412.5372, 1536.299
413.0193, 1365.616
413.5014, 1255.858
413.9836, 1199.537
414.4657, 1181.394
414.9478, 1231.010
415.4299, 1250.703
415.9120, 1107.922
416.3941, 856.1494
416.8763, 675.8867
417.3584, 670.2002
417.8405, 723.0000
418.3226, 708.0117
418.8047, 626.7705
419.2868, 553.0391
419.7690, 528.2461
420.2511, 541.6035
420.7332, 554.0322
421.2153, 595.8926
421.6974, 595.2451
422.1795, 487.9316
422.6617, 329.6133
423.1438, 215.3574
423.6259, 176.5332
424.1080, 178.0127
424.5901, 168.6748
425.0722, 149.0703
425.5544, 114.0479
426.0365, 40.16016
426.5186, 30.10547
427.0007, 68.23242
427.4828, 73.87891
427.9649, 60.51758
428.4471, 36.91113
428.9292, 3.601563
429.4113, 20.56641
429.8934, 21.93652
430.3755, 28.23047
430.8576, 65.15625
431.3398, 103.3672
431.8219, 95.74023
432.3040, 19.59668
432.7861, 82.28418
433.2682, 124.8828
433.7503, 86.56152
434.2325, 57.99805
434.7146, 74.21191
435.1967, 89.62207
435.6788, 72.43066
436.1609, 22.28418
436.6430, 33.01367
437.1252, 87.12305
437.6073, 132.6260
438.0894, 119.4844
438.5715, 12.87500
439.0536, 83.85059
439.5357, 81.47559
440.0179, 20.51758
440.5000, 18.45020
440.9821, 0.3984380
441.4642, 36.78516
441.9463, 55.79199
442.4284, 58.19336
442.9106, 50.62109
443.3927, 34.71191
443.8748, 11.44922
444.3569, 22.46973
444.8390, 83.40039
445.3211, 112.2471
445.8033, 71.30566
446.2854, 1.357422
446.7675, 67.47559
447.2496, 117.8037
447.7317, 142.7773
448.2138, 126.5977
448.6960, 59.86816
449.1781, 21.09570
449.6602, 40.38184
450.1423, 52.92871
450.6244, 26.08789
451.1065, 28.00098
451.5887, 86.64453
452.0708, 138.8721
452.5529, 177.0244
453.0350, 171.9307
453.5171, 76.64160
453.9992, 22.01758
454.4814, 55.59668
454.9635, 106.7002
455.4456, 118.6387
455.9277, 83.70117
456.4098, 37.57910
456.8919, 2.310547
457.3741, 21.31738
457.8562, 19.23242
458.3383, 48.69434
458.8204, 92.18555
459.3026, 112.5723
459.7847, 40.54297
460.2668, 87.86719
460.7489, 87.38672
461.2310, 84.96094
461.7131, 149.1299
462.1953, 90.61230
462.6774, 153.7598
463.1595, 168.3623
463.6416, 205.1992
464.1237, 193.9209
464.6058, 197.5361
465.0880, 249.2959
465.5701, 274.4102
466.0522, 257.6562
466.5343, 295.9961
467.0164, 192.5498
467.4985, 257.3252
467.9807, 297.6641
468.4628, 314.8857
468.9449, 239.6992
469.4270, 283.8652
469.9091, 280.2129
470.3912, 274.6123
470.8734, 335.6143
471.3555, 273.9268
471.8376, 333.8896
472.3197, 345.3154
472.8018, 378.9619
473.2839, 364.5088
473.7661, 364.9258
474.2482, 413.4834
474.7303, 435.4033
475.2124, 415.4531
475.6945, 450.5820
476.1766, 387.3232
476.6588, 410.4238
477.1409, 470.7842
477.6230, 453.2959
478.1051, 489.3584
478.5872, 505.0391
479.0693, 428.0820
479.5515, 512.2627
480.0336, 526.7764
480.5157, 469.7373
480.9978, 548.4307
481.4799, 501.2842
481.9620, 499.0596
482.4442, 530.6650
482.9263, 527.0312
483.4084, 578.9795
483.8905, 577.4082
484.3726, 569.7119
484.8547, 580.8486
485.3369, 561.5498
485.8190, 555.0752
486.3011, 585.2627
486.7832, 645.9727
487.2653, 705.4023
487.7474, 744.6504
488.2296, 764.4717
488.7117, 767.8750
489.1938, 736.3867
489.6759, 710.3691
490.1580, 680.5732
490.6401, 659.7949
491.1223, 674.8076
491.6044, 730.4307
492.0865, 791.7715
492.5686, 815.3633
493.0507, 798.0254
493.5328, 796.8623
494.0150, 818.5957
494.4971, 851.6953
494.9792, 903.5137
495.4613, 959.1553
495.9434, 990.6299
496.4255, 979.7764
496.9077, 950.1562
497.3898, 943.6328
497.8719, 961.7959
498.3540, 972.6465
498.8361, 959.9941
499.3182, 940.6289
499.8004, 938.9326
500.2825, 954.9824
500.7646, 982.8301
501.2467, 1054.671
501.7288, 1116.794
502.2109, 1089.536
502.6931, 984.0645
503.1752, 907.4707
503.6573, 939.4707
504.1394, 1056.356
504.6215, 1117.214
505.1036, 1044.210
505.5858, 1016.710
506.0679, 1122.737
506.5500, 1253.237
507.0321, 1274.872
507.5142, 1166.706
507.9963, 1037.939
508.4785, 1030.099
508.9606, 1159.263
509.4427, 1201.835
509.9248, 1082.704
510.4069, 969.5381
510.8890, 935.1289
511.3712, 948.0879
511.8533, 950.3525
512.3354, 910.4941
512.8175, 875.4824
513.2996, 935.8057
513.7817, 1079.684
514.2639, 1124.780
514.7460, 981.2188
515.2281, 783.5781
515.7102, 710.6064
516.1923, 757.7363
516.6744, 793.0137
517.1566, 778.7461
517.6387, 748.2861
518.1208, 720.8311
518.6029, 701.4531
519.0850, 701.9189
519.5671, 731.3125
520.0493, 781.5713
520.5314, 825.2959
521.0135, 889.2754
521.4956, 907.9717
521.9777, 827.9932
522.4598, 738.0898
522.9420, 725.1016
523.4241, 786.5986
523.9062, 842.6221
524.3883, 804.8398
524.8704, 688.6240
525.3525, 657.5518
525.8347, 768.4150
526.3168, 860.2627
526.7989, 867.0352
527.2810, 823.2334
527.7631, 761.2666
528.2452, 683.3047
528.7274, 610.6855
529.2095, 550.1924
529.6916, 508.3740
530.1737, 520.6494
530.6558, 606.4492
531.1379, 686.7227
531.6201, 672.3311
532.1022, 563.2344
532.5843, 520.3516
533.0664, 609.0430
533.5485, 699.9492
534.0306, 724.3193
534.5128, 707.7021
534.9949, 706.3418
535.4770, 742.5029
535.9591, 787.6289
536.4412, 792.0986
536.9233, 743.9326
537.4055, 686.1885
537.8876, 576.1885
538.3697, 497.6436
538.8518, 505.6719
539.3339, 576.0479
539.8160, 646.5225
540.2982, 680.3809
540.7803, 701.6123
541.2624, 759.9072
541.7445, 860.4707
542.2266, 951.7041
542.7087, 1021.454
543.1909, 1068.809
543.6730, 1108.531
544.1551, 1144.976
544.6372, 1099.082
545.1193, 843.1143
545.6014, 557.9043
546.0836, 441.4023
546.5657, 485.4678
547.0478, 545.2588
547.5299, 539.7988
548.0120, 486.0078
548.4941, 442.6895
548.9763, 411.6416
549.4584, 389.7578
549.9405, 334.5068
550.4226, 389.7744
550.9047, 425.2686
551.3868, 438.3857
551.8690, 350.9150
552.3511, 378.7773
552.8332, 357.4131
553.3153, 334.0605
553.7974, 379.5312
554.2795, 305.9189
554.7617, 357.3701
555.2438, 356.6377
555.7259, 373.0674
556.2080, 340.8184
556.6901, 324.3623
557.1722, 358.8623
557.6544, 367.3164
558.1365, 333.0146
558.6186, 352.0088
559.1007, 270.6201
559.5828, 276.3320
560.0649, 319.6172
560.5471, 284.9834
561.0292, 303.7461
561.5113, 301.9639
561.9934, 206.7471
562.4755, 274.0430
562.9576, 271.1016
563.4398, 196.0508
563.9219, 257.9102
564.4040, 192.8867
564.8861, 173.1816
565.3682, 187.5693
565.8503, 213.9971
566.3325, 252.7734
566.8146, 246.9932
567.2967, 175.2646
567.7788, 229.4502
568.2609, 259.1846
568.7430, 265.7939
569.2252, 179.9854
569.7073, 213.5176
570.1894, 199.2217
570.6715, 182.9668
571.1536, 233.3047
571.6357, 160.9443
572.1179, 210.2246
572.6000, 210.9570
573.0821, 233.9062
573.5642, 208.7529
574.0463, 198.4609
574.5284, 236.2988
575.0106, 247.4883
575.4927, 216.7979
575.9748, 241.1768
576.4569, 167.1572
576.9390, 179.4863
577.4211, 229.0664
577.9033, 200.7871
578.3854, 226.0479
578.8675, 230.9268
579.3496, 143.1357
579.8317, 216.4844
580.3138, 220.1533
580.7960, 152.2598
581.2781, 220.0859
581.7602, 162.0615
582.2423, 148.9551
582.7244, 169.6475
583.2065, 155.1084
583.6887, 196.1182
584.1708, 183.6055
584.6529, 113.3525
585.1350, 164.3770
585.6171, 190.9600
586.0992, 194.4102
586.5814, 105.4297
587.0635, 135.7949
587.5456, 118.3291
588.0277, 98.89941
588.5098, 146.0586
588.9919, 70.51465
589.4741, 116.5986
589.9562, 114.1289
590.4383, 133.8867
590.9204, 105.5117
591.4025, 92.00195
591.8846, 126.6211
592.3668, 134.5840
592.8489, 100.6553
593.3310, 121.8018
593.8131, 44.54492
594.2952, 53.62500
594.7773, 99.95996
595.2595, 68.43164
595.7416, 90.43848
596.2237, 92.05273
596.7058, 1.000977
597.1879, 71.08105
597.6700, 71.46582
598.1522, 0.2978520
598.6343, 64.83789
599.1164, 3.514648
599.5985, 12.88867
600.0806, 4.491211
600.5627, 13.37891
601.0449, 24.30078
601.5270, 8.436523
602.0091, 12.20703
602.4912, 12.00977
602.9733, 70.97363
603.4554, 23.67676
603.9376, 11.42969
604.4197, 20.33887
604.9018, 49.54980
605.3839, 73.14355
605.8660, 83.68262
606.3481, 68.06250
606.8303, 27.01758
607.3124, 30.52637
607.7945, 107.0029
608.2766, 183.6943
608.7587, 197.8594
609.2408, 79.55859
609.7230, 0.6826170
610.2051, 35.39453
610.6872, 37.74707
611.1693, 8.003906
611.6514, 79.90039
612.1335, 116.4023
612.6157, 64.35742
613.0978, 30.80176
613.5799, 57.94141
614.0620, 15.06543
614.5441, 24.36230
615.0262, 37.27637
615.5084, 28.38477
615.9905, 8.228516
616.4726, 76.04883
616.9547, 115.5010
617.4368, 70.91309
617.9189, 29.50586
618.4011, 67.50195
618.8832, 153.9092
619.3653, 211.1562
619.8474, 207.2246
620.3295, 167.8604
620.8116, 133.7637
621.2938, 96.64355
621.7759, 86.46680
622.2580, 102.7744
622.7401, 151.6289
623.2222, 262.9238
623.7043, 400.6484
624.1865, 510.8408
624.6686, 581.9336
625.1507, 602.7930
625.6328, 515.0537
626.1149, 367.5215
626.5970, 329.5879
627.0792, 439.5635
627.5613, 571.1992
628.0434, 619.8027
628.5255, 591.8262
629.0076, 573.1260
629.4897, 546.5566
629.9719, 549.0879
630.4540, 612.8359
630.9361, 694.3135
631.4182, 756.5830
631.9003, 790.7988
632.3824, 799.1650
632.8646, 772.7002
633.3467, 724.0166
633.8288, 715.0400
634.3109, 756.2539
634.7930, 798.2178
635.2751, 838.9199
635.7573, 738.9912
636.2394, 849.5420
636.7215, 922.3838
637.2036, 959.1328
637.6857, 873.1924
638.1678, 929.2510
638.6500, 918.3584
639.1321, 897.8574
639.6142, 953.4033
640.0963, 848.4209
640.5784, 888.3164
641.0605, 860.3525
641.5427, 862.5176
642.0248, 820.3115
642.5069, 783.4971
642.9890, 762.5703
643.4711, 777.0049
643.9532, 808.1572
644.4354, 819.9697
644.9175, 797.2529
645.3996, 760.3857
645.8817, 721.5762
646.3638, 683.9082
646.8459, 656.7900
647.3281, 642.1904
647.8102, 633.8818
648.2923, 628.2832
648.7744, 624.7344
649.2565, 614.7637
649.7386, 568.3262
650.2208, 555.0264
650.7029, 635.6260
651.1850, 719.5166
651.6671, 708.9785
652.1492, 608.2197
652.6313, 508.2109
653.1135, 478.2725
653.5956, 499.6133
654.0777, 532.1250
654.5598, 579.8213
655.0419, 588.7344
655.5240, 514.9463
656.0062, 424.1885
656.4883, 421.1621
656.9704, 509.2578
657.4525, 567.4668
657.9346, 556.9893
658.4167, 537.0557
658.8989, 566.9229
659.3810, 610.4814
659.8631, 580.3652
660.3452, 450.2344
660.8273, 308.5693
661.3094, 316.4229
661.7916, 488.7725
662.2737, 547.0303
662.7558, 427.5078
663.2379, 303.5498
663.7200, 256.1035
664.2021, 255.2900
664.6843, 270.6182
665.1664, 303.6719
665.6485, 316.9863
666.1306, 293.5020
666.6127, 245.5479
667.0948, 181.1484
667.5770, 104.7402
668.0591, 35.77344
668.5412, 14.52148
669.0233, 43.66992
669.5054, 35.08203
669.9875, 53.04297
670.4697, 91.36328
670.9518, 9.704102
671.4339, 87.69043
671.9160, 18.00000
672.3981, 132.5537
672.8802, 195.0527
673.3624, 67.72461
673.8445, 80.56250
674.3266, 85.90527
674.8087, 2.249023
675.2908, 65.25977
675.7729, 79.55469
676.2551, 69.36133
676.7372, 51.24707
677.2193, 25.94141
677.7014, 0.3632810
678.1835, 52.27734
678.6656, 67.17090
679.1478, 37.45605
679.6299, 37.92285
680.1120, 88.64160
680.5941, 116.0508
681.0762, 50.25098
681.5583, 104.7979
682.0405, 111.1250
682.5226, 115.4600
683.0047, 186.9336
683.4868, 134.6973
683.9689, 205.1104
684.4510, 226.5537
684.9332, 270.4170
685.4153, 265.7617
685.8974, 276.0791
686.3795, 334.9619
686.8616, 366.9795
687.3438, 356.8037
687.8259, 402.1934
688.3080, 348.3740
688.7901, 381.6396
689.2722, 452.4746
689.7543, 444.7900
690.2365, 491.0947
690.7186, 516.8389
691.2007, 449.1523
691.6828, 478.4365
692.1649, 473.1113
692.6470, 490.4258
693.1292, 559.1592
693.6113, 691.2354
694.0934, 820.3809
694.5755, 979.3262
695.0576, 1098.851
695.5397, 1101.032
696.0219, 1058.381
696.5040, 1093.952
696.9861, 1242.637
697.4682, 1408.002
697.9503, 1477.739
698.4324, 1467.127
698.9146, 1455.926
699.3967, 1433.756
699.8788, 1474.837
700.3609, 1642.229
700.8430, 1871.241
701.3251, 2034.694
701.8073, 2114.069
702.2894, 2210.274
702.7715, 2384.192
703.2536, 2533.833
703.7357, 2561.617
704.2178, 2524.122
704.7000, 2522.771
705.1821, 2661.697
705.6642, 2775.967
706.1463, 2866.922
706.6284, 2864.679
707.1105, 2982.782
707.5927, 3052.688
708.0748, 3120.594
708.5569, 3255.634
709.0390, 3266.975
709.5211, 3400.956
710.0032, 3485.979
710.4854, 3593.435
710.9675, 3632.930
711.4496, 3708.849
711.9317, 3731.798
712.4138, 3699.081
712.8959, 3754.984
713.3781, 3786.231
713.8602, 3794.163
714.3423, 3708.906
714.8244, 3743.993
715.3065, 3730.858
715.7886, 3715.746
716.2708, 3767.870
716.7529, 3696.190
717.2350, 3668.351
717.7171, 3631.072
718.1992, 3639.213
718.6813, 3602.156
719.1635, 3449.078
719.6456, 3289.017
720.1277, 3212.267
720.6098, 3198.118
721.0919, 3182.357
721.5740, 3135.201
722.0562, 3067.428
722.5383, 2998.347
723.0204, 2902.635
723.5025, 2823.806
723.9846, 2677.476
724.4667, 2526.587
724.9489, 2389.412
725.4310, 2269.263
725.9131, 2177.669
726.3952, 2137.419
726.8773, 2081.254
727.3594, 1983.784
727.8416, 1891.231
728.3237, 1852.791
728.8058, 1842.104
729.2879, 1776.782
729.7700, 1625.591
730.2521, 1456.224
730.7343, 1372.035
731.2164, 1366.549
731.6985, 1364.853
732.1806, 1371.835
732.6627, 1367.304
733.1448, 1329.323
733.6270, 1266.460
734.1091, 1199.956
734.5912, 1128.705
735.0733, 1057.457
735.5554, 958.9404
736.0375, 884.4316
736.5197, 884.3486
737.0018, 935.0195
737.4839, 986.9141
737.9660, 1020.134
738.4481, 1025.005
738.9302, 970.6807
739.4124, 876.0186
739.8945, 825.5088
740.3766, 828.4111
740.8587, 844.3516
741.3408, 855.1982
741.8229, 860.7188
742.3051, 860.9854
742.7872, 862.1689
743.2693, 843.5205
743.7514, 748.9180
744.2335, 697.7510
744.7156, 778.5039
745.1978, 925.1592
745.6799, 1041.214
746.1620, 1096.501
746.6441, 1092.572
747.1262, 980.7471
747.6083, 820.8213
748.0905, 752.1455
748.5726, 778.7969
749.0547, 839.8955
749.5368, 912.1182
750.0189, 985.5771
750.5010, 1045.846
750.9832, 1104.955
751.4653, 1107.716
751.9474, 971.0957
752.4295, 872.0850
752.9116, 911.3828
753.3937, 996.6611
753.8759, 1001.319
754.3580, 900.5576
754.8401, 795.7568
755.3222, 740.2041
755.8043, 721.5918
756.2864, 747.3496
756.7686, 800.1768
757.2507, 813.5469
757.7328, 760.6152
758.2149, 682.3750
758.6970, 633.9805
759.1791, 617.3525
759.6613, 604.2686
760.1434, 599.9873
760.6255, 590.9902
761.1076, 573.7510
761.5897, 548.1455
762.0718, 503.9307
762.5540, 441.9932
763.0361, 410.9570
763.5182, 476.3301
764.0003, 530.9873
764.4824, 471.9814
764.9645, 352.8115
765.4467, 281.2822
765.9288, 280.3379
766.4109, 283.5400
766.8930, 214.3008
767.3751, 223.4043
767.8572, 233.4053
768.3394, 185.8125
768.8215, 254.0752
769.3036, 228.5840
769.7857, 172.3994
770.2678, 139.5498
770.7499, 130.0137
771.2321, 148.4717
771.7142, 256.7549
772.1963, 316.4316
772.6784, 236.6123
773.1605, 119.5361
773.6426, 73.74609
774.1248, 99.25879
774.6069, 126.0459
775.0890, 109.0762
775.5711, 69.56836
776.0532, 37.32324
776.5353, 13.07910
777.0175, 0.9941410
777.4996, 6.300781
777.9817, 17.22266
778.4638, 100.0801
778.9459, 217.9971
779.4280, 256.8701
779.9102, 137.9014
780.3923, 62.06348
780.8744, 78.00586
781.3565, 93.18457
781.8386, 31.26172
782.3207, 66.84180
782.8029, 98.56445
783.2850, 11.08301
783.7671, 66.36719
784.2492, 4.558594
784.7313, 127.5381
785.2134, 138.8418
785.6956, 42.83398
786.1777, 63.34473
786.6598, 132.7090
787.1419, 162.0303
787.6240, 130.7842
788.1061, 21.06543
788.5883, 31.09668
789.0704, 5.902344
789.5525, 41.39844
790.0346, 106.0449
790.5167, 169.5488
790.9988, 203.9258
791.4810, 203.7012
791.9631, 210.6553
792.4452, 259.3340
792.9273, 293.4121
793.4094, 269.7998
793.8915, 210.9756
794.3737, 141.9521
794.8558, 75.19141
795.3379, 37.79492
795.8200, 69.84082
796.3021, 142.7500
796.7842, 173.4658
797.2664, 162.3271
797.7485, 146.7598
798.2306, 137.5703
798.7127, 125.7334
799.1948, 100.2021
799.6769, 61.79297
800.1591, 30.63086
800.6412, 20.01074
801.1233, 1.171875
801.6054, 65.03027
802.0875, 116.2070
802.5696, 111.6934
803.0518, 58.27539
803.5339, 16.08496
804.0160, 118.6865
804.4981, 201.8896
804.9802, 214.6592
805.4623, 187.4746
805.9445, 164.9102
806.4266, 154.2988
806.9087, 154.3115
807.3908, 164.7275
807.8729, 183.0117
808.3550, 213.4922
808.8372, 263.9629
809.3193, 248.2910
809.8014, 123.7383
810.2835, 18.38086
810.7656, 3.587891
811.2477, 44.62500
811.7299, 75.88574
812.2120, 93.15039
812.6941, 120.0039
813.1762, 189.4658
813.6583, 237.9492
814.1404, 205.3564
814.6226, 142.4570
815.1047, 130.9043
815.5868, 184.9492
816.0689, 236.1553
816.5510, 226.2432
817.0331, 180.0283
817.5153, 119.4668
817.9974, 56.37695
818.4795, 73.79004
818.9616, 198.8809
819.4437, 312.4668
819.9258, 288.1162
820.4080, 147.1055
820.8901, 61.50391
821.3722, 44.61133
821.8543, 55.30859
822.3364, 106.1504
822.8185, 165.4004
823.3007, 221.9248
823.7828, 270.7432
824.2649, 294.4365
824.7470, 271.3164
825.2291, 260.2725
825.7112, 281.1211
826.1934, 326.4150
826.6755, 404.6250
827.1576, 500.0273
827.6397, 582.7568
828.1218, 640.5391
828.6040, 666.1797
829.0861, 632.9883
829.5682, 559.5938
830.0504, 521.5586
830.5325, 522.1533
831.0146, 522.5342
831.4967, 504.3906
831.9788, 485.8008
832.4609, 494.1162
832.9431, 532.3711
833.4252, 548.9727
833.9073, 602.7812
834.3894, 632.0596
834.8715, 638.2803
835.3536, 552.2959
835.8358, 586.4326
836.3179, 573.6807
836.8000, 559.9453
837.2821, 613.8877
837.7642, 545.6387
838.2463, 598.8184
838.7285, 602.5361
839.2106, 627.2363
839.6927, 603.7578
840.1748, 592.9648
840.6569, 628.8740
841.1390, 640.3271
841.6212, 609.0898
842.1033, 632.1074
842.5854, 549.0117
843.0675, 568.0654
843.5496, 587.7139
844.0317, 555.8164
844.5139, 502.0352
844.9960, 481.4043
845.4781, 499.4951
845.9602, 506.8301
846.4423, 494.2402
846.9244, 484.3008
847.4066, 488.1533
847.8887, 493.7002
848.3708, 490.9307
848.8529, 480.5479
849.3350, 462.7754
849.8171, 407.4297
850.2993, 364.5107
850.7814, 388.0127
851.2635, 441.8213
851.7456, 426.1572
852.2277, 470.1436
852.7098, 489.3848
853.1920, 485.2764
853.6741, 388.8818
854.1562, 412.0898
854.6383, 387.4424
855.1204, 362.2256
855.6025, 404.2334
856.0847, 321.3867
856.5668, 360.0996
857.0489, 350.1445
857.5310, 363.0928
858.0131, 327.1445
858.4952, 305.5098
858.9774, 331.2930
859.4595, 326.3623
859.9416, 276.2754
860.4237, 242.6807
860.9058, 219.2852
861.3879, 190.3818
861.8701, 174.0967
862.3522, 174.0674
862.8343, 187.5908
863.3164, 244.6602
863.7985, 300.0830
864.2806, 288.6123
864.7628, 217.3340
865.2449, 153.8955
865.7270, 126.9688
866.2091, 124.3711
866.6912, 136.4531
867.1733, 158.1338
867.6555, 169.1523
868.1376, 168.5166
868.6197, 188.1660
869.1018, 252.1162
869.5839, 319.7227
870.0660, 306.9199
870.5482, 197.8350
871.0303, 139.8633
871.5124, 141.1943
871.9945, 177.8291
872.4766, 283.3242
872.9587, 383.8652
873.4409, 368.1201
873.9230, 238.5088
874.4051, 147.4951
874.8872, 123.8525
875.3693, 114.5508
875.8514, 111.9160
876.3336, 112.3633
876.8157, 104.8730
877.2978, 97.00098
877.7799, 116.1504
878.2620, 181.0176
878.7441, 252.0273
879.2263, 318.9248
879.7084, 359.6992
880.1905, 317.0479
880.6726, 212.6670
881.1547, 139.3789
881.6368, 137.1523
882.1190, 162.9590
882.6011, 160.1963
883.0832, 134.2178
883.5653, 117.4785
884.0474, 108.7705
884.5295, 129.2285
885.0117, 192.9033
885.4938, 266.4238
885.9759, 322.8672
886.4580, 359.9648
886.9401, 347.7773
887.4222, 235.7100
887.9044, 160.8301
888.3865, 145.4697
888.8686, 159.9287
889.3507, 207.8984
889.8328, 267.4150
890.3149, 292.7979
890.7971, 272.6182
891.2792, 234.5723
891.7613, 170.8799
892.2434, 109.4619
892.7255, 71.57520
893.2076, 49.32031
893.6898, 28.35840
894.1719, 5.378906
894.6540, 12.79395
895.1361, 21.53223
895.6182, 21.74512
896.1003, 6.894531
896.5825, 15.18555
897.0646, 10.12109
897.5467, 24.12695
898.0288, 34.07715
898.5109, 21.64258
898.9930, 112.7656
899.4752, 173.0840
899.9573, 203.3555
900.4394, 186.6533
900.9215, 108.9873
901.4036, 25.69824
901.8857, 49.14160
902.3679, 100.8896
902.8500, 101.8828
903.3321, 43.47949
903.8142, 9.954102
904.2963, 79.44824
904.7784, 116.3994
905.2606, 94.13379
905.7427, 49.56641
906.2248, 8.449219
906.7069, 64.66016
907.1890, 65.55664
907.6711, 38.55957
908.1533, 133.3174
908.6354, 166.5791
909.1175, 169.4648
909.5996, 150.3857
910.0817, 129.0342
910.5638, 157.0820
911.0460, 250.8613
911.5281, 311.5518
912.0102, 193.6025
912.4923, 13.45508
912.9744, 0.3613280
913.4565, 109.0059
913.9387, 153.5840
914.4208, 90.30469
914.9029, 21.47363
915.3850, 36.44336
915.8671, 105.7354
916.3492, 135.4551
916.8314, 121.9932
917.3135, 144.9004
917.7956, 232.5391
918.2777, 272.5889
918.7598, 177.0977
919.2419, 28.75098
919.7241, 2.458984
920.2062, 120.1748
920.6883, 194.8379
921.1704, 215.1240
921.6525, 195.1475
922.1346, 70.11523
922.6168, 39.41699
923.0989, 4.905273
923.5810, 176.0439
924.0631, 283.7109
924.5452, 254.4961
925.0273, 212.2207
925.5095, 193.7529
925.9916, 176.0908
926.4737, 130.3252
926.9558, 73.61035
927.4379, 44.71973
927.9200, 56.53809
928.4022, 81.15137
928.8843, 101.0029
929.3664, 121.1182
929.8485, 163.0176
930.3306, 209.2793
930.8127, 198.9639
931.2949, 127.8643
931.7770, 55.14844
932.2591, 21.85156
932.7412, 22.33203
933.2233, 53.35742
933.7054, 110.2344
934.1876, 172.0508
934.6697, 236.2129
935.1518, 270.9893
935.6339, 256.4385
936.1160, 219.7227
936.5981, 206.9160
937.0803, 219.8828
937.5624, 212.5947
938.0445, 178.5977
938.5266, 145.7422
939.0087, 115.8691
939.4908, 97.47656
939.9730, 103.8867
940.4551, 128.7354
940.9372, 152.4189
941.4193, 195.2266
941.9014, 211.1855
942.3835, 179.7500
942.8657, 143.7852
943.3478, 111.4492
943.8299, 92.34082
944.3120, 113.9854
944.7941, 184.1846
945.2762, 206.3926
945.7584, 86.05176
946.2405, 12.27832
946.7226, 13.13574
947.2047, 91.49219
947.6868, 156.7930
948.1689, 201.3174
948.6511, 233.9443
949.1332, 256.1895
949.6153, 277.9727
950.0974, 334.3809
950.5795, 378.0703
951.0616, 306.3438
951.5438, 166.0000
952.0259, 111.0293
952.5080, 186.3984
952.9901, 279.1963
953.4722, 277.7109
953.9543, 220.8545
954.4365, 194.5498
954.9186, 191.8594
955.4007, 173.0020
955.8828, 134.0713
956.3649, 127.4424
956.8470, 188.1182
957.3292, 272.9180
957.8113, 286.0566
958.2934, 220.1504
958.7755, 218.8438
959.2576, 300.0908
959.7397, 358.3799
960.2219, 362.8623
960.7040, 327.7686
961.1861, 257.6211
961.6682, 159.6387
962.1503, 119.1084
962.6324, 164.3076
963.1146, 203.2949
963.5967, 233.3691
964.0788, 246.9912
964.5609, 225.3711
965.0430, 193.2148
965.5251, 191.8125
966.0073, 219.8936
966.4894, 256.0547
966.9715, 301.9277
967.4536, 350.9238
967.9357, 424.0762
968.4178, 481.4277
968.9000, 469.6455
969.3821, 407.5615
969.8642, 376.7949
970.3463, 423.6074
970.8284, 443.1074
971.3105, 365.7646
971.7927, 264.0039
972.2748, 180.2100
972.7569, 123.7246
973.2390, 113.4697
973.7211, 148.3037
974.2032, 187.2539
974.6854, 204.6357
975.1675, 212.0234
975.6496, 226.4043
976.1317, 236.9766
976.6138, 224.5527
977.0959, 188.7891
977.5781, 131.1426
978.0602, 55.01660
978.5423, 3.682617
979.0244, 21.52832
979.5065, 93.02148
979.9886, 103.5010
980.4708, 61.44531
980.9529, 53.22461
981.4350, 95.46094
981.9171, 128.6035
982.3992, 99.98828
982.8813, 43.37305
983.3635, 45.96191
983.8456, 105.8799
984.3277, 167.9053
984.8098, 229.9551
985.2919, 278.5498
985.7740, 314.2627
986.2562, 305.9111
986.7383, 195.3301
987.2204, 4.341797
987.7025, 94.37793
988.1846, 48.03516
988.6667, 15.91211
989.1489, 94.41699
989.6310, 156.0762
990.1131, 180.2871
990.5952, 174.7041
991.0773, 152.4775
991.5594, 102.8779
992.0416, 80.41504
992.5237, 121.1182
993.0058, 135.0303
993.4879, 64.28223
993.9700, 13.25293
994.4521, 33.54297
994.9343, 4.296875
995.4164, 41.52051
995.8985, 155.8828
996.3806, 188.5527
996.8627, 26.64258
997.3448, 113.3203
997.8270, 107.3477
998.3091, 30.61816
998.7912, 19.88965
999.2733, 34.25684
999.7554, 45.27246
1000.238, 62.22559
1000.720, 78.32617
1001.202, 92.37500
1001.684, 103.4600
1002.166, 124.4912
1002.648, 138.4307
1003.130, 95.96289
1003.612, 19.79199
1004.094, 101.5342
1004.577, 65.97266
1005.059, 6.883789
1005.541, 84.70410
1006.023, 142.9697
1006.505, 133.6816
1006.987, 71.83008
1007.469, 30.21777
1007.951, 47.50000
1008.434, 71.81250
1008.916, 41.93164
1009.398, 1.670898
1009.880, 14.79004
1010.362, 66.16699
1010.844, 120.9717
1011.326, 166.3330
1011.808, 187.9707
1012.290, 168.2920
1012.773, 137.5469
1013.255, 150.5850
1013.737, 183.7080
1014.219, 163.5439
1014.701, 101.5244
1015.183, 92.27051
1015.665, 168.9316
1016.147, 232.7520
1016.630, 161.9912
1017.112, 20.14746
1017.594, 34.36816
1018.076, 9.488281
1018.558, 72.07031
1019.040, 200.1709
1019.522, 263.4258
1020.004, 195.9600
1020.486, 89.93066
1020.969, 95.06543
1021.451, 192.6904
1021.933, 232.9111
1022.415, 215.2090
1022.897, 212.0254
1023.379, 240.2998
1023.861, 276.8936
1024.343, 306.2324
1024.825, 330.2930
1025.308, 361.1543
1025.790, 403.3262
1026.272, 379.6143
1026.754, 268.2881
1027.236, 211.0225
1027.718, 264.6025
1028.200, 341.8584
1028.682, 359.8027
1029.165, 334.9238
1029.647, 341.4385
1030.129, 394.6494
1030.611, 410.0244
1031.093, 357.3477
1031.575, 341.1035
1032.057, 419.4619
1032.539, 529.5449
1033.021, 599.2852
1033.504, 630.5234
1033.986, 647.6738
1034.468, 646.4404
1034.950, 642.3271
1035.432, 648.2021
1035.914, 629.1045
1036.396, 526.7568
1036.878, 422.1260
1037.360, 460.6992
1037.843, 661.2236
1038.325, 775.5654
1038.807, 744.5645
1039.289, 724.5762
1039.771, 733.1602
1040.253, 761.3311
1040.735, 811.0693
1041.217, 874.4658
1041.700, 935.0479
1042.182, 990.9180
1042.664, 1051.848
1043.146, 1125.943
1043.628, 1194.208
1044.110, 1265.835
1044.592, 1317.473
1045.074, 1317.726
1045.557, 1283.086
1046.039, 1269.592
1046.521, 1279.704
1047.003, 1311.416
1047.485, 1356.759
1047.967, 1433.311
1048.449, 1591.890
1048.931, 1748.886
1049.413, 1823.868
1049.896, 1828.659
1050.378, 1821.525
1050.860, 1801.481
1051.342, 1792.243
1051.824, 1803.911
1052.306, 1820.129
1052.788, 1833.571
1053.270, 1848.817
1053.752, 1878.599
1054.235, 1918.106
1054.717, 1937.362
1055.199, 1913.518
1055.681, 1893.289
1056.163, 1909.766
1056.645, 1912.621
1057.127, 1843.021
1057.609, 1759.781
1058.092, 1763.221
1058.574, 1847.624
1059.056, 1867.650
1059.538, 1716.450
1060.020, 1593.586
1060.502, 1590.466
1060.984, 1614.351
1061.466, 1605.502
1061.948, 1574.665
1062.431, 1566.489
1062.913, 1581.890
1063.395, 1538.625
1063.877, 1325.165
1064.359, 1158.335
1064.841, 1184.173
1065.323, 1233.985
1065.805, 1160.650
1066.287, 1015.537
1066.770, 902.2363
1067.252, 840.5889
1067.734, 798.9307
1068.216, 778.4658
1068.698, 757.1895
1069.180, 730.4746
1069.662, 693.1387
1070.144, 637.1934
1070.627, 568.4980
1071.109, 490.5156
1071.591, 403.4502
1072.073, 352.9873
1072.555, 384.8770
1073.037, 426.9385
1073.519, 449.4990
1074.001, 457.6172
1074.484, 455.1338
1074.966, 443.3193
1075.448, 420.2568
1075.930, 385.7373
1076.412, 355.9521
1076.894, 338.6279
1077.376, 327.0498
1077.858, 320.8545
1078.340, 315.7568
1078.823, 305.4082
1079.305, 299.7646
1079.787, 300.4619
1080.269, 307.0898
1080.751, 312.6807
1081.233, 309.5039
1081.715, 306.3975
1082.197, 317.0615
1082.680, 327.0283
1083.162, 301.1484
1083.644, 257.1572
1084.126, 234.7412
1084.608, 243.8984
1085.090, 281.2295
1085.572, 396.5732
1086.054, 479.2354
1086.536, 435.3975
1087.019, 359.5430
1087.501, 355.5088
1087.983, 399.8828
1088.465, 399.1035
1088.947, 317.9189
1089.429, 256.9238
1089.911, 277.2383
1090.393, 301.5879
1090.875, 297.7568
1091.358, 273.8486
1091.840, 211.2910
1092.322, 141.5771
1092.804, 157.4893
1093.286, 317.6221
1093.768, 411.0410
1094.250, 279.0107
1094.732, 163.9453
1095.215, 224.9131
1095.697, 327.8828
1096.179, 332.2744
1096.661, 261.7695
1097.143, 218.8760
1097.625, 221.8242
1098.107, 254.3701
1098.589, 385.9609
1099.072, 463.3213
1099.554, 364.4736
1100.036, 224.6611
1100.518, 167.1445
1101.000, 177.0527
1101.482, 184.2246
1101.964, 179.3184
1102.446, 158.5566
1102.928, 81.48535
1103.411, 40.54004
1103.893, 115.1406
1104.375, 204.1279
1104.857, 207.1592
1105.339, 153.8447
1105.821, 136.1104
1106.303, 176.4961
1106.785, 206.6143
1107.267, 207.6406
1107.750, 209.1152
1108.232, 220.9023
1108.714, 235.2139
1109.196, 261.0488
1109.678, 282.3428
1110.160, 246.3564
1110.642, 115.5059
1111.124, 59.90430
1111.607, 157.0430
1112.089, 239.4512
1112.571, 263.6807
1113.053, 264.6895
1113.535, 269.9424
1114.017, 277.0762
1114.499, 266.5186
1114.981, 228.0566
1115.464, 225.5117
1115.946, 278.1943
1116.428, 318.2393
1116.910, 343.8564
1117.392, 352.6055
1117.874, 331.4385
1118.356, 298.7539
1118.838, 291.9746
1119.320, 313.1074
1119.802, 344.3350
1120.285, 396.8945
1120.767, 432.2842
1121.249, 438.7998
1121.731, 439.3379
1122.213, 452.2998
1122.695, 456.6152
1123.177, 407.9736
1123.659, 302.4688
1124.142, 294.3506
1124.624, 418.2148
1125.106, 511.2432
1125.588, 555.4014
1126.070, 538.8203
1126.552, 439.6348
1127.034, 314.1279
1127.516, 247.0400
1127.999, 233.6680
1128.481, 216.9922
1128.963, 193.6074
1129.445, 206.3213
1129.927, 264.7627
1130.409, 331.1162
1130.891, 393.5977
1131.373, 415.4180
1131.855, 333.5264
1132.338, 349.1338
1132.820, 310.8652
1133.302, 247.5078
1133.784, 245.1650
1134.266, 138.3965
1134.748, 92.76074
1135.230, 176.7139
1135.712, 242.2275
1136.194, 113.2490
1136.677, 95.47168
1137.159, 70.93164
1137.641, 119.8203
1138.123, 214.9795
1138.605, 202.8252
1139.087, 131.3428
1139.569, 24.27441
1140.051, 36.19824
1140.534, 31.92090
1141.016, 136.2959
1141.498, 117.3662
1141.980, 138.7285
1142.462, 127.7285
1142.944, 66.73828
1143.426, 47.07324
1143.908, 45.02051
1144.391, 108.7705
1144.873, 74.73340
1145.355, 20.29297
1145.837, 32.84375
1146.319, 65.68262
1146.801, 63.23145
1147.283, 35.89453
1147.765, 4.594727
1148.247, 46.15234
1148.729, 51.06738
1149.212, 9.181641
1149.694, 40.77148
1150.176, 70.75098
1150.658, 181.6152
1151.140, 148.9980
1151.622, 61.17090
1152.104, 23.81738
1152.586, 33.64355
1153.069, 41.86914
1153.551, 35.89844
1154.033, 25.04004
1154.515, 16.08496
1154.997, 24.11035
1155.479, 70.94629
1155.961, 172.2305
1156.443, 198.0293
1156.926, 169.4531
1157.408, 134.1240
1157.890, 96.11133
1158.372, 68.77734
1158.854, 50.65039
1159.336, 48.55273
1159.818, 93.28418
1160.300, 121.0703
1160.782, 70.76953
1161.265, 1.161133
1161.747, 1.954102
1162.229, 59.16602
1162.711, 104.6650
1163.193, 131.9717
1163.675, 149.9092
1164.157, 160.7197
1164.639, 155.6523
1165.121, 117.6855
1165.604, 90.28125
1166.086, 129.0215
1166.568, 209.9590
1167.050, 228.1377
1167.532, 172.9854
1168.014, 149.7734
1168.496, 170.0029
1168.978, 135.9629
1169.461, 8.533203
1169.943, 86.31934
1170.425, 43.07617
1170.907, 71.48730
1171.389, 138.8379
1171.871, 157.9844
1172.353, 91.31152
1172.835, 37.96289
1173.318, 60.36914
1173.800, 45.56641
1174.282, 157.8643
1174.764, 210.6455
1175.246, 220.1152
1175.728, 184.3135
1176.210, 133.3701
1176.692, 127.3271
1177.174, 147.6084
1177.656, 162.4238
1178.139, 164.5654
1178.621, 132.2295
1179.103, 63.87988
1179.585, 47.21387
1180.067, 180.4336
1180.549, 340.9805
1181.031, 466.4785
1181.513, 527.0840
1181.996, 434.5293
1182.478, 277.4775
1182.960, 219.9658
1183.442, 276.4385
1183.924, 316.9619
1184.406, 284.5186
1184.888, 251.1104
1185.370, 226.1035
1185.853, 225.3057
1186.335, 291.6904
1186.817, 360.7910
1187.299, 352.4902
1187.781, 284.5967
1188.263, 243.1006
1188.745, 245.4746
1189.227, 242.2109
1189.709, 221.7480
1190.192, 212.6406
1190.674, 225.6836
1191.156, 245.6777
1191.638, 269.9600
1192.120, 287.1758
1192.602, 271.9600
1193.084, 224.0156
1193.566, 199.9951
1194.048, 203.5293
1194.531, 202.7480
1195.013, 201.8496
1195.495, 216.2979
1195.977, 247.7119
1196.459, 281.8975
1196.941, 306.5010
1197.423, 315.5537
1197.905, 275.0186
1198.388, 204.9600
1198.870, 187.8721
1199.352, 217.6807
1199.834, 224.9404
1200.316, 193.2432
1200.798, 155.2705
1201.280, 127.5635
1201.762, 132.4189
1202.245, 249.5498
1202.727, 389.1396
1203.209, 398.6309
1203.691, 329.9971
1204.173, 274.0527
1204.655, 249.8369
1205.137, 260.0625
1205.619, 307.8262
1206.101, 337.3662
1206.583, 324.2949
1207.066, 270.4766
1207.548, 109.8975
1208.030, 18.17090
1208.512, 26.50586
1208.994, 163.6338
1209.476, 255.8076
1209.958, 287.9229
1210.440, 299.4062
1210.923, 274.6152
1211.405, 261.3965
1211.887, 292.6934
1212.369, 293.9141
1212.851, 220.7158
1213.333, 142.5508
1213.815, 109.1934
1214.297, 115.0166
1214.780, 137.6396
1215.262, 174.8525
1215.744, 256.0332
1216.226, 397.4688
1216.708, 471.2441
1217.190, 447.1240
1217.672, 391.8203
1218.154, 337.0957
1218.636, 301.6816
1219.119, 323.4785
1219.601, 373.5479
1220.083, 350.1201
1220.565, 271.9736
1221.047, 200.0391
1221.529, 147.5215
1222.011, 147.2891
1222.493, 202.2178
1222.975, 249.7344
1223.458, 244.2334
1223.940, 222.3096
1224.422, 205.2314
1224.904, 203.9648
1225.386, 259.6465
1225.868, 321.4346
1226.350, 299.0205
1226.832, 211.4453
1227.315, 155.8672
1227.797, 162.3955
1228.279, 159.7363
1228.761, 78.29395
1229.243, 43.75488
1229.725, 145.3525
1230.207, 259.3652
1230.689, 296.0254
1231.172, 303.7500
1231.654, 318.6816
1232.136, 337.2637
1232.618, 335.3818
1233.100, 291.6357
1233.582, 302.1221
1234.064, 399.7822
1234.546, 451.7432
1235.028, 406.0205
1235.510, 328.7998
1235.993, 271.8457
1236.475, 224.9541
1236.957, 160.5098
1237.439, 128.7705
1237.921, 60.93652
1238.403, 72.74707
1238.885, 76.66895
1239.367, 72.50781
1239.850, 117.0869
1240.332, 228.8008
1240.814, 309.4648
1241.296, 256.2285
1241.778, 166.1709
1242.260, 122.5654
1242.742, 119.4375
1243.224, 173.0410
1243.707, 249.6289
1244.189, 301.0781
1244.671, 320.0283
1245.153, 321.7998
1245.635, 309.5967
1246.117, 283.2334
1246.599, 216.6592
1247.081, 171.5215
1247.563, 184.2568
1248.046, 205.4443
1248.528, 217.8037
1249.010, 224.0723
1249.492, 226.3105
1249.974, 224.6562
1250.456, 224.3125
1250.938, 226.2363
1251.420, 214.8652
1251.902, 185.7881
1252.385, 171.6758
1252.867, 183.9658
1253.349, 212.0742
1253.831, 250.4668
1254.313, 286.3506
1254.795, 304.3691
1255.277, 297.9053
1255.759, 223.0898
1256.242, 111.4004
1256.724, 51.73340
1257.206, 47.42969
1257.688, 54.24609
1258.170, 56.89160
1258.652, 69.82129
1259.134, 118.5400
1259.616, 168.5703
1260.099, 209.8701
1260.581, 229.9551
1261.063, 193.3975
1261.545, 146.4141
1262.027, 157.0723
1262.509, 215.3838
1262.991, 251.1748
1263.473, 260.0029
1263.955, 239.6074
1264.438, 152.2402
1264.920, 116.7471
1265.402, 180.1670
1265.884, 240.7041
1266.366, 243.7549
1266.848, 204.2480
1267.330, 128.6631
1267.812, 41.57812
1268.294, 70.64062
1268.777, 192.0518
1269.259, 186.5166
1269.741, 65.40234
1270.223, 23.08203
1270.705, 38.84863
1271.187, 18.72754
1271.669, 156.9590
1272.151, 287.1748
1272.634, 326.5723
1273.116, 310.0449
1273.598, 247.0498
1274.080, 168.0645
1274.562, 90.78027
1275.044, 30.42480
1275.526, 13.12012
1276.008, 39.71680
1276.490, 73.90527
1276.973, 109.0186
1277.455, 150.5645
1277.937, 214.6240
1278.419, 259.8408
1278.901, 267.2334
1279.383, 222.4961
1279.865, 204.4258
1280.347, 194.9883
1280.829, 212.1445
1281.312, 247.2227
1281.794, 226.7695
1282.276, 169.7266
1282.758, 117.7207
1283.240, 69.93945
1283.722, 28.55762
1284.204, 2.546875
1284.686, 0.7353520
1285.169, 59.80176
1285.651, 130.7998
1286.133, 139.7793
1286.615, 107.1328
1287.097, 64.26660
1287.579, 0.0000000E+00
##END=



