##NAMES=Elbaite
##RRUFFID=R050487
##IDEAL CHEMISTRY=Na(Al_1.5_Li_1.5_)Al_6_(Si_6_O_18_)(BO_3_)_3_(OH)_3_OH
##LOCALITY=White Queen mine, Pala, San Diego County, California, USA
##OWNER=RRUFF
##SOURCE=California Institute of Technology
##DESCRIPTION=Mass of blue acicular crystals
##STATUS=The identification of this mineral has been confirmed by X-ray diffraction and chemical analysis
##URL=rruff.info/R050487
##MEASURED CHEMISTRY=(Na_0.86_[box]_0.13_Ca_0.01_)(Al_0.42_Li_0.38_Fe^2+^_0.18_Mn_0.02_)_3_Al_6_(BO_3_)_3_Si_6_O_18_((OH)_0.85_F_0.15_)_4_
157.4227, 0.0000000E+00
157.9048, 6.6149998E-03
158.3869, 0.1379850
158.8690, 0.3798600
159.3511, 0.7718510
159.8332, 1.141685
160.3154, 1.253311
160.7975, 0.9102860
161.2796, 0.5032270
161.7617, 0.2433090
162.2438, 9.2201002E-02
162.7259, 9.3839997E-03
163.2081, 2.9381000E-02
163.6902, 0.1020510
164.1723, 0.3002550
164.6544, 0.3765720
165.1365, 0.5543290
165.6186, 0.8441540
166.1008, 0.8499150
166.5829, 0.8476560
167.0650, 0.8232040
167.5471, 0.7997280
168.0292, 0.8439710
168.5113, 0.9617080
168.9935, 1.051437
169.4756, 0.9031520
169.9577, 0.2260130
170.4398, 0.1294330
170.9219, 0.1846240
171.4040, 0.6475220
171.8862, 0.7805860
172.3683, 0.4158550
172.8504, 0.2029110
173.3325, 0.4966130
173.8146, 4.8668001E-02
174.2967, 0.2556460
174.7789, 0.3105850
175.2610, 0.2370070
175.7431, 0.1330570
176.2252, 3.3424001E-02
176.7073, -0.5747647
177.1894, 0.1597222
177.6716, 0.5799028
178.1537, 0.7026601
178.6358, -0.3628082
179.1179, 0.1060705
179.6000, -3.9947361E-02
180.0821, -0.2111792
180.5643, 0.4736556
181.0464, -0.4189877
181.5285, 6.2286001E-02
182.0106, 8.7090001E-02
182.4927, 7.9285003E-02
182.9749, 0.3985060
183.4570, 0.7063600
183.9391, 0.9566500
184.4212, 1.114311
184.9033, 1.124260
185.3854, 0.8786390
185.8676, 0.6616290
186.3497, 0.7940520
186.8318, 1.289818
187.3139, 1.643822
187.7960, 1.525360
188.2781, 1.180405
188.7603, 0.8326640
189.2424, 0.4766080
189.7245, 0.2324300
190.2066, 0.3187030
190.6887, 0.8443220
191.1708, 1.304672
191.6530, 1.442917
192.1351, 1.473061
192.6172, 1.580734
193.0993, 1.839447
193.5814, 2.168289
194.0635, 2.381073
194.5457, 2.353783
195.0278, 2.464699
195.5099, 2.904472
195.9920, 3.447296
196.4741, 3.886635
196.9562, 4.131935
197.4384, 4.212936
197.9205, 4.191574
198.4026, 3.787308
198.8847, 3.688782
199.3668, 4.098152
199.8489, 4.795418
200.3311, 5.561478
200.8132, 6.289200
201.2953, 6.976563
201.7774, 7.607300
202.2595, 8.213326
202.7416, 8.720238
203.2238, 8.910789
203.7059, 9.043076
204.1880, 9.555267
204.6701, 10.71278
205.1522, 12.29607
205.6344, 13.30022
206.1165, 13.24632
206.5986, 13.24377
207.0807, 13.52826
207.5628, 14.02531
208.0449, 14.56519
208.5271, 15.03855
209.0092, 15.52213
209.4913, 16.34314
209.9734, 17.93626
210.4555, 19.28156
210.9376, 19.81219
211.4198, 19.77940
211.9019, 19.87047
212.3840, 20.41289
212.8661, 21.33037
213.3482, 22.36060
213.8303, 23.59690
214.3125, 24.78405
214.7946, 25.75106
215.2767, 26.52969
215.7588, 27.26965
216.2409, 28.05563
216.7230, 28.82202
217.2052, 29.41426
217.6873, 29.65109
218.1694, 30.09511
218.6515, 31.46200
219.1336, 33.70627
219.6157, 35.44920
220.0979, 35.88101
220.5800, 35.70455
221.0621, 35.73129
221.5442, 36.09901
222.0263, 36.45206
222.5084, 36.39488
222.9906, 35.88625
223.4727, 35.40968
223.9548, 35.29178
224.4369, 35.15268
224.9190, 34.65543
225.4011, 33.72047
225.8833, 32.67184
226.3654, 31.89452
226.8475, 31.44884
227.3296, 30.99870
227.8117, 30.44413
228.2938, 29.87009
228.7760, 29.41056
229.2581, 29.06275
229.7402, 28.68579
230.2223, 28.01045
230.7044, 26.81155
231.1866, 25.97564
231.6687, 26.02756
232.1508, 26.19389
232.6329, 25.93584
233.1150, 25.18681
233.5971, 24.35352
234.0793, 24.06927
234.5614, 24.70957
235.0435, 24.96934
235.5256, 24.57677
236.0077, 24.04867
236.4898, 23.63649
236.9720, 23.40345
237.4541, 23.31416
237.9362, 23.36694
238.4183, 23.52757
238.9004, 23.75606
239.3825, 24.21484
239.8647, 24.66156
240.3468, 24.87195
240.8289, 24.84218
241.3110, 24.63538
241.7931, 24.26376
242.2752, 23.67315
242.7574, 23.24886
243.2395, 23.22190
243.7216, 23.27776
244.2037, 23.16066
244.6858, 22.84991
245.1679, 22.54813
245.6501, 22.52097
246.1322, 22.91249
246.6143, 23.00800
247.0964, 22.48030
247.5785, 21.91534
248.0606, 21.78351
248.5428, 22.08887
249.0249, 22.43184
249.5070, 22.41859
249.9891, 21.97460
250.4712, 21.54768
250.9533, 21.05166
251.4355, 20.63822
251.9176, 20.54044
252.3997, 20.73264
252.8818, 20.94106
253.3639, 20.92539
253.8460, 20.67222
254.3282, 20.27778
254.8103, 19.54388
255.2924, 18.83228
255.7745, 18.46602
256.2566, 18.41869
256.7387, 18.26481
257.2209, 17.58741
257.7030, 16.53045
258.1851, 15.99272
258.6672, 16.44556
259.1493, 17.03599
259.6314, 17.20731
260.1136, 16.97977
260.5957, 16.57795
261.0778, 16.00226
261.5599, 15.39388
262.0420, 15.12646
262.5241, 15.44750
263.0063, 15.82009
263.4884, 15.89143
263.9705, 15.68005
264.4526, 15.32413
264.9347, 14.77880
265.4168, 14.19991
265.8990, 13.90044
266.3811, 14.02171
266.8632, 14.11689
267.3453, 13.75107
267.8275, 13.00040
268.3096, 12.48171
268.7917, 12.55988
269.2738, 12.85812
269.7559, 12.86961
270.2380, 12.55555
270.7202, 12.12970
271.2023, 11.67780
271.6844, 11.21573
272.1665, 10.84629
272.6486, 10.61227
273.1307, 10.47629
273.6129, 10.45567
274.0950, 10.54613
274.5771, 10.49499
275.0592, 10.00113
275.5413, 9.163383
276.0234, 8.587448
276.5056, 8.508209
276.9877, 8.523399
277.4698, 8.286301
277.9519, 7.845360
278.4340, 7.444191
278.9161, 7.258362
279.3983, 7.241562
279.8804, 7.194138
280.3625, 7.144440
280.8446, 6.991348
281.3267, 6.682404
281.8088, 6.242851
282.2910, 5.720200
282.7731, 5.084709
283.2552, 4.389305
283.7373, 3.803185
284.2194, 3.321243
284.7015, 2.971832
285.1837, 2.857979
285.6658, 2.846024
286.1479, 2.717209
286.6300, 2.314423
287.1121, 1.793221
287.5942, 1.538383
288.0764, 1.679588
288.5585, 1.784218
289.0406, 1.688408
289.5227, 1.481316
290.0048, 1.240364
290.4869, 0.9833300
290.9691, 0.7282490
291.4512, 0.5046920
291.9333, 0.3189540
292.4154, 0.1482540
292.8975, 5.3902000E-02
293.3796, 0.2196660
293.8618, 0.2594300
294.3439, 0.1509550
294.8260, 2.5574001E-02
295.3081, 0.4931410
295.7902, 7.4348003E-02
296.2723, 0.1434630
296.7545, 0.1712040
297.2366, 0.5602260
297.7187, 0.3118210
298.2008, 0.4565200
298.6829, 0.6176910
299.1650, 0.2323990
299.6472, 0.8551710
300.1293, 0.1295010
300.6114, 7.4813999E-02
301.0935, 0.3522570
301.5756, 0.3975980
302.0577, 0.2439800
302.5399, 8.7769002E-02
303.0220, 0.1061170
303.5041, 0.2877810
303.9862, 0.3761440
304.4683, 0.2664640
304.9504, 0.1806640
305.4326, 0.2373960
305.9147, 0.3708650
306.3968, 0.4597090
306.8789, 0.4323200
307.3610, 0.3021770
307.8431, 0.1342930
308.3253, 0.3506770
308.8074, 0.1410060
309.2895, 0.4318390
309.7716, 0.5325850
310.2537, 0.1258160
310.7358, 0.1958390
311.2180, 0.1246110
311.7001, 3.7200999E-02
312.1822, 0.4966130
312.6643, 5.1826000E-02
313.1464, 0.3987580
313.6285, 0.4504470
314.1107, 0.6846080
314.5928, 0.5234760
315.0749, 0.4843830
315.5570, 0.8406140
316.0392, 0.9778980
316.5213, 0.7710650
317.0034, 1.016563
317.4855, 0.4537730
317.9676, 0.6001740
318.4497, 1.052544
318.9319, 0.8654630
319.4140, 1.118187
319.8961, 1.203384
320.3782, 0.5274580
320.8603, 1.175117
321.3424, 1.250389
321.8246, 0.7379530
322.3067, 1.340324
322.7888, 0.9088750
323.2709, 0.8463970
323.7530, 1.061554
324.2351, 0.9872360
324.7173, 1.116676
325.1994, 1.188759
325.6815, 1.334221
326.1636, 1.494400
326.6457, 1.569946
327.1278, 1.490631
327.6100, 1.354622
328.0921, 1.441887
328.5742, 1.944382
329.0563, 2.246994
329.5384, 2.004829
330.0205, 1.636566
330.5027, 1.512115
330.9848, 1.736671
331.4669, 2.123245
331.9490, 2.405556
332.4311, 2.542717
332.9132, 2.756767
333.3954, 3.244751
333.8775, 3.697876
334.3596, 3.907791
334.8417, 3.882957
335.3238, 3.811600
335.8059, 3.882324
336.2881, 4.098251
336.7702, 4.234520
337.2523, 4.135452
337.7344, 4.132851
338.2165, 4.510513
338.6986, 5.101273
339.1808, 5.503014
339.6629, 5.370598
340.1450, 4.885941
340.6271, 4.742058
341.1092, 5.053917
341.5913, 5.500961
342.0735, 6.104355
342.5556, 6.705833
343.0377, 7.092392
343.5198, 7.158455
344.0019, 7.060699
344.4840, 7.001389
344.9662, 6.946724
345.4483, 7.074493
345.9304, 7.651100
346.4125, 8.313774
346.8946, 8.811836
347.3767, 9.108315
347.8589, 9.317101
348.3410, 9.505821
348.8231, 9.677536
349.3052, 9.937843
349.7873, 10.36524
350.2694, 10.81591
350.7516, 11.11217
351.2337, 11.30836
351.7158, 11.65052
352.1979, 12.36494
352.6800, 13.35284
353.1621, 14.24313
353.6443, 15.06422
354.1264, 15.87572
354.6085, 16.68681
355.0906, 17.47681
355.5727, 18.33749
356.0548, 19.29317
356.5370, 20.25602
357.0191, 21.12815
357.5012, 21.82983
357.9833, 22.60957
358.4654, 23.47871
358.9475, 24.37215
359.4297, 25.19823
359.9118, 25.92817
360.3939, 26.76821
360.8760, 27.94368
361.3581, 29.36806
361.8402, 30.65181
362.3224, 31.60328
362.8045, 32.57031
363.2866, 33.95683
363.7687, 35.70950
364.2508, 37.43996
364.7329, 38.89707
365.2151, 40.28665
365.6972, 42.01758
366.1793, 44.16438
366.6614, 46.31313
367.1436, 48.05193
367.6257, 49.49418
368.1078, 50.97852
368.5899, 52.75895
369.0720, 54.46540
369.5541, 55.86087
370.0363, 56.94807
370.5184, 57.72539
371.0005, 58.30860
371.4826, 58.46735
371.9647, 57.72057
372.4468, 55.85001
372.9290, 53.77660
373.4111, 51.95384
373.8932, 50.14949
374.3753, 47.94158
374.8574, 45.20238
375.3395, 42.15923
375.8217, 38.99456
376.3038, 35.67034
376.7859, 32.81701
377.2680, 30.70083
377.7501, 28.91209
378.2322, 27.10229
378.7144, 25.26299
379.1965, 23.51053
379.6786, 21.91444
380.1607, 20.48077
380.6428, 19.15664
381.1249, 17.97366
381.6071, 16.86005
382.0892, 15.70724
382.5713, 14.62749
383.0534, 13.87093
383.5355, 13.56398
384.0176, 13.51563
384.4998, 13.25620
384.9819, 12.59953
385.4640, 12.02579
385.9461, 11.62607
386.4282, 11.26402
386.9103, 10.73324
387.3925, 10.05447
387.8746, 9.535774
388.3567, 9.564644
388.8388, 10.26951
389.3209, 10.58812
389.8030, 10.20842
390.2852, 9.838898
390.7673, 9.734818
391.2494, 9.846085
391.7315, 10.01691
392.2136, 10.15894
392.6957, 10.27854
393.1779, 10.40092
393.6600, 10.53568
394.1421, 10.66075
394.6242, 10.83224
395.1063, 10.96249
395.5884, 10.87690
396.0706, 10.57112
396.5527, 10.33014
397.0348, 10.60172
397.5169, 11.57601
397.9990, 12.29699
398.4811, 12.65114
398.9633, 12.84129
399.4454, 12.75621
399.9275, 12.56340
400.4096, 12.64987
400.8917, 13.35247
401.3738, 14.48833
401.8560, 15.30644
402.3381, 15.75119
402.8202, 15.98714
403.3023, 15.90643
403.7844, 15.72906
404.2665, 15.69244
404.7487, 15.88947
405.2308, 16.19621
405.7129, 16.48379
406.1950, 16.75523
406.6771, 16.98827
407.1592, 17.19957
407.6414, 17.34232
408.1235, 17.41325
408.6056, 17.40287
409.0877, 17.26708
409.5698, 16.98612
410.0519, 16.56192
410.5341, 15.93732
411.0162, 15.04427
411.4983, 14.21971
411.9804, 13.78824
412.4625, 13.53477
412.9446, 13.10361
413.4268, 12.38617
413.9089, 11.56939
414.3910, 10.78048
414.8731, 10.01624
415.3553, 9.250404
415.8374, 8.449272
416.3195, 7.686501
416.8016, 7.083824
417.2837, 6.636772
417.7658, 6.239265
418.2480, 5.927216
418.7301, 5.617577
419.2122, 5.181763
419.6943, 4.613914
420.1764, 4.060959
420.6585, 3.646461
421.1407, 3.357727
421.6228, 3.038452
422.1049, 2.504997
422.5870, 2.137093
423.0691, 2.271660
423.5512, 2.644531
424.0334, 2.745972
424.5155, 2.364914
424.9976, 1.738129
425.4797, 1.309090
425.9618, 1.210083
426.4439, 1.058884
426.9261, 0.7832110
427.4082, 0.5129620
427.8903, 0.3381270
428.3724, 0.2604750
428.8545, 0.2304840
429.3366, 0.2052690
429.8188, 0.1874470
430.3009, 0.2323800
430.7830, 0.4495620
431.2651, 0.6103860
431.7472, 0.7236330
432.2293, 0.7431790
432.7115, 0.5498540
433.1936, 0.1100350
433.6757, 0.3592300
434.1578, 0.4428330
434.6399, 2.7713999E-02
435.1220, 0.2843170
435.6042, 1.9215001E-02
436.0863, 0.2627640
436.5684, 0.3049890
437.0505, 0.1456300
437.5326, 2.8934000E-02
438.0147, 0.1156460
438.4969, 0.1128310
438.9790, 3.2536000E-02
439.4611, 0.4399870
439.9432, 0.6853600
440.4253, 0.4210820
440.9074, 1.7323000E-02
441.3896, 0.2862550
441.8717, 0.3033560
442.3538, 0.2223050
442.8359, 0.1438260
443.3180, 7.3700003E-02
443.8001, 5.5767000E-02
444.2823, 0.1130560
444.7644, 0.1982190
445.2465, 0.3056110
445.7286, 0.4185710
446.2107, 0.4282300
446.6928, 0.1745610
447.1750, 0.1081890
447.6571, 0.1512300
448.1392, 2.7039001E-02
448.6213, 0.2021290
449.1034, 0.2409170
449.5855, 0.2117160
450.0677, 0.3288080
450.5498, 0.7233280
451.0319, 0.9657170
451.5140, 0.8153840
451.9961, 0.5137100
452.4782, 0.3422660
452.9604, 0.3566860
453.4425, 0.4859770
453.9246, 0.6910060
454.4067, 1.000969
454.8888, 1.054737
455.3709, 0.6567080
455.8531, 0.2642170
456.3352, 5.7944998E-02
456.8173, 3.2593001E-02
457.2994, 0.1617930
457.7815, 0.4010470
458.2636, 0.6603660
458.7458, 0.7370260
459.2279, 0.5085220
459.7100, 0.3503840
460.1921, 0.3839760
460.6742, 0.3889880
461.1563, 0.2032240
461.6385, 0.1420360
462.1206, 0.4935260
462.6027, 0.7498440
463.0848, 0.9112320
463.5669, 0.9442710
464.0491, 0.7064510
464.5312, 0.6341710
465.0133, 1.126404
465.4954, 1.718025
465.9775, 1.892937
466.4597, 1.512115
466.9418, 1.010818
467.4239, 0.7680050
467.9060, 0.7592050
468.3881, 0.8102110
468.8702, 0.8815120
469.3524, 1.039612
469.8345, 1.521748
470.3166, 2.166397
470.7987, 2.449478
471.2808, 1.947182
471.7629, 1.260723
472.2451, 0.9382780
472.7272, 0.9184380
473.2093, 0.8713610
473.6914, 0.6389500
474.1735, 0.3463210
474.6556, 0.2486500
475.1378, 0.3886800
475.6199, 0.5391200
476.1020, 0.6616670
476.5841, 0.7837870
477.0662, 0.9311410
477.5483, 1.104725
478.0305, 1.300941
478.5126, 1.528000
478.9947, 1.770218
479.4768, 1.877728
479.9589, 1.734127
480.4410, 1.594723
480.9232, 1.407749
481.4053, 1.283634
481.8874, 1.395645
482.3695, 1.756481
482.8516, 2.143383
483.3337, 2.277676
483.8159, 2.129467
484.2980, 1.978638
484.7801, 1.728153
485.2622, 1.598194
485.7443, 1.742874
486.2264, 2.031246
486.7086, 2.228550
487.1907, 2.208664
487.6728, 2.163383
488.1549, 2.436020
488.6370, 3.055202
489.1191, 3.520123
489.6013, 3.683239
490.0834, 3.692280
490.5655, 3.668854
491.0476, 3.615860
491.5297, 3.540413
492.0118, 3.445702
492.4940, 3.392647
492.9761, 3.422741
493.4582, 3.528282
493.9403, 3.562271
494.4224, 3.424786
494.9045, 3.236629
495.3867, 3.300724
495.8688, 3.731724
496.3509, 4.056839
496.8330, 4.073696
497.3151, 3.957775
497.7972, 3.937744
498.2794, 4.063705
498.7615, 4.225067
499.2436, 4.296413
499.7257, 4.280064
500.2078, 4.242836
500.6899, 4.139977
501.1721, 4.070122
501.6542, 4.071327
502.1363, 4.103050
502.6184, 4.099934
503.1005, 4.054005
503.5826, 4.045593
504.0648, 4.202583
504.5469, 4.550247
505.0290, 4.793518
505.5111, 4.928215
505.9932, 4.982624
506.4753, 4.897526
506.9575, 4.747025
507.4396, 4.659943
507.9217, 4.706856
508.4038, 4.785080
508.8859, 4.713337
509.3680, 4.487148
509.8502, 4.307659
510.3323, 4.251648
510.8144, 4.283630
511.2965, 4.419006
511.7786, 4.626419
512.2607, 4.716141
512.7429, 4.595364
513.2250, 4.375645
513.7071, 4.113831
514.1892, 3.825596
514.6713, 3.565437
515.1534, 3.362740
515.6356, 3.174961
516.1177, 2.916466
516.5998, 2.483013
517.0819, 2.281563
517.5640, 2.508011
518.0461, 2.797752
518.5283, 2.936111
519.0104, 2.932854
519.4925, 2.884327
519.9746, 2.838440
520.4567, 2.760231
520.9388, 2.495792
521.4210, 1.838177
521.9031, 1.384720
522.3852, 1.280975
522.8673, 1.305714
523.3494, 1.338707
523.8315, 1.358105
524.3137, 1.375484
524.7958, 1.398895
525.2779, 1.426483
525.7600, 1.468662
526.2421, 1.550499
526.7242, 1.562775
527.2064, 1.370136
527.6885, 1.103012
528.1706, 0.9657630
528.6527, 0.9983060
529.1348, 1.022598
529.6169, 0.8719600
530.0991, 0.6797030
530.5812, 0.7359120
531.0633, 1.071583
531.5454, 1.361275
532.0275, 1.312675
532.5096, 0.9598850
532.9918, 0.7399440
533.4739, 0.8410680
533.9560, 0.8926580
534.4381, 0.6401710
534.9202, 0.3178830
535.4023, 0.2848930
535.8845, 0.5915410
536.3666, 0.9634900
536.8487, 1.117538
537.3308, 1.054741
537.8129, 1.056244
538.2951, 1.213963
538.7772, 1.327110
539.2593, 1.291885
539.7415, 1.188461
540.2236, 1.171246
540.7057, 1.271858
541.1878, 1.039006
541.6699, 1.504309
542.1520, 1.812444
542.6342, 1.971911
543.1163, 1.537224
543.5984, 1.869725
544.0805, 1.894779
544.5626, 1.907226
545.0447, 2.255772
545.5269, 2.040855
546.0090, 1.831131
546.4911, 1.945175
546.9732, 2.206238
547.4553, 2.221012
547.9374, 1.903088
548.4196, 1.579304
548.9017, 1.583145
549.3838, 1.924374
549.8659, 2.131424
550.3480, 2.173023
550.8301, 2.145073
551.3123, 1.971695
551.7944, 1.788898
552.2765, 1.813522
552.7586, 2.077728
553.2407, 2.344067
553.7228, 2.284950
554.2050, 1.872025
554.6871, 1.664696
555.1692, 1.817570
555.6513, 1.962341
556.1334, 1.944481
556.6155, 1.850887
557.0977, 1.790283
557.5798, 1.791573
558.0619, 1.824963
558.5440, 1.925346
559.0261, 2.043591
559.5082, 1.948406
559.9904, 1.555218
560.4725, 1.192043
560.9546, 1.142033
561.4367, 1.344994
561.9188, 1.446976
562.4009, 1.380787
562.8831, 1.294262
563.3652, 1.299374
563.8473, 1.293453
564.3294, 1.101116
564.8115, 0.7002830
565.2936, 0.2400360
565.7758, 0.1585240
566.2579, 0.4975170
566.7400, 0.5604970
567.2221, 1.7944001E-02
567.7042, 0.4128040
568.1863, 0.5334850
568.6685, 0.5294340
569.1506, 0.6174660
569.6327, 0.8314360
570.1148, 0.9940300
570.5969, 0.8219760
571.0790, 0.4048690
571.5612, 0.3686600
572.0433, 0.8619120
572.5254, 1.329338
573.0075, 1.476990
573.4896, 1.427387
573.9717, 1.363205
574.4539, 1.305748
574.9360, 1.202740
575.4181, 0.9873310
575.9002, 0.7313040
576.3823, 0.5352970
576.8644, 0.4083520
577.3466, 0.3072470
577.8287, 0.1994210
578.3108, 9.3548000E-02
578.7929, 3.2368001E-02
579.2750, 9.4379997E-03
579.7571, 3.1727001E-02
580.2393, 0.1832730
580.7214, 0.4006650
581.2035, 0.7517050
581.6856, 1.159760
582.1677, 1.365917
582.6498, 1.128963
583.1320, 0.5887720
583.6141, 0.2119900
584.0962, 4.3410002E-03
584.5783, 4.4475999E-02
585.0604, 0.3016010
585.5425, 0.6653670
586.0247, 0.6813350
586.5068, 0.3712880
586.9889, 0.1248630
587.4710, 0.2454950
587.9531, 0.4299470
588.4352, 0.2278900
588.9174, 0.2815280
589.3995, 0.5733990
589.8816, 0.3768460
590.3637, 1.5980000E-02
590.8458, 7.3578000E-02
591.3279, 0.4331930
591.8101, 0.6130830
592.2922, 0.1616290
592.7743, 0.3078380
593.2564, 0.4792940
593.7385, 0.4267430
594.2206, 0.3233340
594.7028, 0.2472420
595.1849, 0.1782910
595.6670, 5.8361001E-02
596.1491, 0.1367230
596.6312, 0.1893200
597.1133, 6.1584000E-02
597.5955, 0.2630770
598.0776, 0.1363260
598.5597, 0.1516570
599.0418, 0.2609860
599.5239, 2.2247000E-02
600.0060, 0.2277030
600.4882, 0.1849860
600.9703, 3.9921001E-02
601.4524, 0.2256470
601.9345, 0.3347210
602.4166, 0.2998960
602.8987, 1.8169001E-02
603.3809, 0.4843790
603.8630, 0.8022690
604.3451, 0.7890850
604.8272, 0.8071020
605.3093, 1.002708
605.7914, 1.210388
606.2736, 1.258308
606.7557, 1.132912
607.2378, 0.9384570
607.7199, 0.7418210
608.2020, 0.5586050
608.6841, 0.4800450
609.1663, 0.5440060
609.6484, 0.6019820
610.1305, 0.5301740
610.6126, 0.4962580
611.0947, 0.7453000
611.5768, 1.257671
612.0590, 1.544888
612.5411, 1.138092
613.0232, 0.5825920
613.5053, 0.5569880
613.9874, 0.9692460
614.4695, 1.289680
614.9517, 1.284389
615.4338, 1.162403
615.9159, 1.285202
616.3980, 1.784393
616.8801, 2.070427
617.3622, 1.930340
617.8444, 1.830254
618.3265, 1.991142
618.8086, 2.315472
619.2907, 2.648628
619.7728, 2.933777
620.2549, 3.177345
620.7371, 3.369064
621.2192, 3.508930
621.7013, 3.671268
622.1834, 3.837513
622.6655, 4.075684
623.1476, 4.474606
623.6298, 4.936142
624.1119, 5.326004
624.5940, 5.643955
625.0761, 5.967461
625.5582, 6.227573
626.0403, 6.502369
626.5225, 6.938679
627.0046, 7.525002
627.4867, 8.098686
627.9688, 8.564583
628.4509, 8.933102
628.9330, 9.240822
629.4152, 9.437042
629.8973, 9.667919
630.3794, 10.01556
630.8615, 10.32209
631.3436, 10.46654
631.8257, 10.49849
632.3079, 10.56411
632.7900, 10.75552
633.2721, 10.95274
633.7542, 10.96236
634.2363, 10.80548
634.7184, 10.67399
635.2006, 10.60109
635.6827, 10.56992
636.1648, 10.58099
636.6469, 10.62640
637.1291, 10.64047
637.6112, 10.73290
638.0933, 10.67347
638.5754, 10.28155
639.0576, 9.748634
639.5397, 9.224365
640.0218, 8.772224
640.5039, 8.509514
640.9860, 8.579384
641.4681, 8.866573
641.9503, 8.765198
642.4324, 8.079048
642.9145, 7.528244
643.3966, 7.377769
643.8787, 7.300842
644.3608, 7.102325
644.8430, 6.781776
645.3251, 6.403778
645.8072, 5.809692
646.2893, 5.332020
646.7714, 5.430046
647.2535, 5.924347
647.7357, 6.252022
648.2178, 6.252304
648.6999, 6.038872
649.1820, 5.684505
649.6641, 5.192558
650.1462, 4.955154
650.6284, 5.136875
651.1105, 5.312870
651.5926, 5.425816
652.0747, 5.479187
652.5568, 5.486832
653.0389, 5.446648
653.5211, 5.328995
654.0032, 5.049610
654.4853, 4.696117
654.9674, 4.569256
655.4495, 4.688641
655.9316, 4.610481
656.4138, 4.054161
656.8959, 3.379436
657.3780, 3.083778
657.8601, 3.140293
658.3422, 3.248005
658.8243, 3.392998
659.3065, 3.538445
659.7886, 3.773109
660.2707, 3.979092
660.7528, 3.930958
661.2349, 3.562637
661.7170, 3.088314
662.1992, 2.754772
662.6813, 2.554642
663.1634, 2.296757
663.6455, 1.894016
664.1276, 1.601337
664.6097, 1.631550
665.0919, 1.722069
665.5740, 1.594563
666.0561, 1.244205
666.5382, 1.005955
667.0203, 1.225658
667.5024, 1.485519
667.9846, 1.246834
668.4667, 0.6473270
668.9488, 0.1796260
669.4309, 2.3914000E-02
669.9130, 7.5480998E-02
670.3951, 0.2250370
670.8773, 0.5054280
671.3594, 0.6177560
671.8415, 0.4017680
672.3236, 0.2029720
672.8057, 6.9801003E-02
673.2878, 4.0130001E-03
673.7700, 2.8416000E-02
674.2521, 0.1355320
674.7342, 0.2416800
675.2163, 0.3001520
675.6984, 0.3084410
676.1805, 0.2391320
676.6627, 9.5585003E-02
677.1448, 4.1180000E-02
677.6269, 0.1707760
678.1090, 0.2096210
678.5911, 1.0509000E-02
679.0732, 0.4919820
679.5554, 0.8679080
680.0375, 1.059532
680.5196, 1.196548
681.0017, 1.367970
681.4838, 1.492584
681.9659, 1.393494
682.4481, 1.070717
682.9302, 0.8048130
683.4123, 0.8562090
683.8944, 1.177933
684.3765, 1.653988
684.8586, 2.340046
685.3408, 2.814121
685.8229, 2.817303
686.3050, 2.674484
686.7871, 2.827511
687.2692, 3.263973
687.7513, 3.607441
688.2335, 3.618324
688.7156, 3.717087
689.1977, 4.185295
689.6798, 4.867180
690.1619, 5.558270
690.6440, 6.189236
691.1262, 6.724728
691.6083, 7.097313
692.0904, 7.346092
692.5725, 7.768089
693.0546, 8.430302
693.5367, 9.063263
694.0189, 9.537254
694.5010, 10.00395
694.9831, 10.60061
695.4652, 11.31583
695.9473, 12.05186
696.4294, 12.89881
696.9116, 13.64111
697.3937, 14.02048
697.8758, 14.22249
698.3579, 14.63080
698.8400, 15.31226
699.3221, 15.97918
699.8043, 16.34129
700.2864, 16.44619
700.7685, 16.68194
701.2506, 17.21060
701.7327, 17.52289
702.2148, 17.33166
702.6970, 17.04279
703.1791, 16.94385
703.6612, 16.98231
704.1433, 16.89855
704.6254, 16.55021
705.1075, 16.11240
705.5897, 15.73804
706.0718, 15.37809
706.5539, 14.94503
707.0360, 14.41816
707.5181, 13.78448
708.0002, 13.00294
708.4824, 12.13633
708.9645, 11.46143
709.4466, 11.11211
709.9287, 10.71345
710.4108, 10.21133
710.8929, 9.673748
711.3751, 9.069374
711.8572, 8.461868
712.3393, 8.048409
712.8214, 8.012894
713.3035, 7.883797
713.7856, 7.040928
714.2678, 5.860668
714.7499, 5.190666
715.2320, 5.122875
715.7141, 5.102894
716.1962, 4.763405
716.6783, 4.217491
717.1605, 3.805107
717.6426, 3.616631
718.1247, 3.389767
718.6068, 3.060375
719.0889, 2.799469
719.5710, 2.740971
720.0532, 2.769955
720.5353, 2.652782
721.0174, 2.302238
721.4995, 2.026768
721.9816, 2.128517
722.4637, 2.434593
722.9459, 2.682480
723.4280, 2.858421
723.9101, 2.808392
724.3922, 2.410278
724.8743, 1.908287
725.3564, 1.758862
725.8386, 2.086136
726.3207, 2.232334
726.8028, 2.183659
727.2849, 2.002106
727.7670, 1.599258
728.2491, 1.127270
728.7313, 0.7409440
729.2134, 0.4722670
729.6955, 0.3247410
730.1776, 0.3560330
730.6597, 0.4810710
731.1418, 0.5668870
731.6240, 0.6074370
732.1061, 0.7063030
732.5882, 0.9103660
733.0703, 1.087498
733.5524, 1.058399
734.0345, 0.8101160
734.5167, 0.6721500
734.9988, 0.7556500
735.4809, 0.8055310
735.9631, 0.7456590
736.4452, 0.6711850
736.9273, 0.6574170
737.4094, 0.7033880
737.8915, 0.7551610
738.3737, 0.7520410
738.8558, 0.7872510
739.3379, 1.063839
739.8200, 1.468601
740.3021, 1.604141
740.7842, 1.399086
741.2664, 1.215549
741.7485, 1.361038
742.2306, 1.753174
742.7127, 1.984318
743.1948, 1.944256
743.6769, 1.966324
744.1591, 2.146103
744.6412, 2.264767
745.1233, 2.132545
745.6054, 1.891270
746.0875, 1.858891
746.5696, 2.178673
747.0518, 2.527958
747.5339, 2.639874
748.0160, 2.638027
748.4981, 2.694473
748.9802, 2.792080
749.4623, 2.931179
749.9445, 3.116173
750.4266, 3.289059
750.9087, 3.338943
751.3908, 3.242977
751.8729, 3.130669
752.3550, 2.950588
752.8372, 2.822559
753.3193, 2.888912
753.8014, 2.963146
754.2835, 2.788456
754.7656, 2.341251
755.2477, 1.969688
755.7299, 1.862366
756.2120, 1.879353
756.6941, 1.940590
757.1762, 2.012611
757.6583, 1.999546
758.1404, 1.883255
758.6226, 1.807438
759.1047, 1.955978
759.5868, 2.253380
760.0689, 2.128319
760.5510, 1.357231
761.0331, 0.7612110
761.5153, 0.5370860
761.9974, 0.4923480
762.4795, 0.5247540
762.9616, 0.6181560
763.4437, 0.7398490
763.9258, 0.9979060
764.4080, 1.079163
764.8901, 0.6147690
765.3722, 3.2269001E-02
765.8543, 0.1390380
766.3364, 6.3786000E-02
766.8185, 0.2869340
767.3007, 0.3392830
767.7828, 0.2965010
768.2649, 0.2756500
768.7470, 0.2756500
769.2291, 0.3431590
769.7112, 0.5416560
770.1934, 0.6375050
770.6755, 0.4450570
771.1576, 0.1304360
771.6397, 2.4119999E-02
772.1218, 4.5240000E-03
772.6039, 4.2502999E-02
773.0861, 6.8397999E-02
773.5682, 0.1436230
774.0503, 0.4580000
774.5324, 0.7755090
775.0145, 0.6889840
775.4966, 0.1702960
775.9788, 0.3572240
776.4609, 0.5453830
776.9430, 0.4943810
777.4251, 0.4040300
777.9072, 0.2765960
778.3893, 0.2389180
778.8715, 0.3538090
779.3536, 0.4326740
779.8357, 0.2775190
780.3178, 6.2378000E-02
780.7999, 0.2472380
781.2820, 0.1930810
781.7642, 0.1078610
782.2463, 0.1117210
782.7284, 0.2546160
783.2105, 0.1234590
783.6926, 0.1731830
784.1747, 0.4163280
784.6569, 0.5349160
785.1390, 0.5491710
785.6211, 0.4004020
786.1032, 0.1895640
786.5853, 0.1470070
787.0674, 0.2576180
787.5496, 0.2875210
788.0317, 0.1207660
788.5138, -0.2493152
788.9959, 0.1215026
789.4780, 0.3351658
789.9601, 0.4001173
790.4423, -0.1290395
790.9244, 0.1089727
791.4065, 3.9538067E-02
791.8886, -4.2503566E-02
792.3707, 0.3034865
792.8528, -0.1392624
793.3350, 0.1999428
793.8171, 0.2270035
794.2992, 0.3969244
794.7813, 0.2574982
795.2634, 0.2136194
795.7455, 0.4791855
796.2277, 0.5734132
796.7098, 0.3983746
797.1919, 0.5773765
797.6740, 0.1238229
798.1561, 0.2253455
798.6382, 0.5663570
799.1204, 0.3275220
799.6025, 0.2996480
800.0846, 0.2193450
800.5667, 1.2730000E-02
801.0488, 0.1879040
801.5309, 8.9005001E-02
802.0131, 0.3711510
802.4952, 0.6852230
802.9773, 0.7458610
803.4594, 0.7250900
803.9415, 0.6999170
804.4236, 0.6328350
804.9058, 0.3767700
805.3879, 1.6121000E-02
805.8700, 0.1837810
806.3521, 0.2142410
806.8342, 0.8294940
807.3163, 1.158955
807.7985, 1.241627
808.2806, 1.211140
808.7627, 1.090378
809.2448, 0.9664880
809.7269, 0.9071040
810.2090, 0.8802600
810.6912, 0.7629470
811.1733, 0.3861240
811.6554, 0.3241390
812.1375, 0.9468150
812.6196, 1.461147
813.1017, 1.506618
813.5839, 1.301750
814.0660, 1.107281
814.5481, 0.9569440
815.0302, 0.8702160
815.5123, 0.8598020
815.9944, 0.9122960
816.4766, 1.046265
816.9587, 1.225674
817.4408, 1.408985
817.9229, 1.574200
818.4050, 1.671276
818.8871, 1.655022
819.3693, 1.547813
819.8514, 1.367054
820.3335, 1.104252
820.8156, 1.010689
821.2977, 1.179001
821.7798, 1.350590
822.2620, 1.329140
822.7441, 1.195183
823.2262, 1.182755
823.7083, 1.304577
824.1904, 1.510944
824.6725, 1.985802
825.1547, 2.328182
825.6368, 2.266586
826.1189, 2.007950
826.6010, 1.807190
827.0831, 1.719814
827.5652, 1.699482
828.0474, 1.727509
828.5295, 1.797718
829.0116, 1.937153
829.4937, 2.106735
829.9758, 2.240143
830.4579, 2.313641
830.9401, 2.231014
831.4222, 1.884068
831.9043, 1.419346
832.3864, 1.315849
832.8685, 1.670784
833.3506, 1.900703
833.8328, 1.902111
834.3149, 1.825172
834.7971, 1.691284
835.2792, 1.574718
835.7613, 1.612984
836.2434, 1.824738
836.7255, 2.036491
837.2076, 2.291157
837.6898, 2.481140
838.1719, 2.555336
838.6540, 2.526901
839.1361, 2.375767
839.6182, 2.139061
840.1003, 1.990639
840.5825, 2.084461
841.0646, 2.304653
841.5467, 2.523258
842.0288, 2.706425
842.5109, 2.763546
842.9930, 2.685295
843.4752, 2.570641
843.9573, 2.482471
844.4394, 2.396782
844.9215, 2.230213
845.4036, 1.910469
845.8857, 1.915119
846.3679, 2.464146
846.8500, 2.922371
847.3321, 3.011181
847.8142, 2.335706
848.2963, 3.062265
848.7784, 3.474512
849.2606, 3.589343
849.7427, 2.515945
850.2248, 2.976895
850.7069, 2.822948
851.1890, 2.643787
851.6711, 3.320689
852.1533, 2.420119
852.6354, 3.083445
853.1175, 3.122492
853.5996, 3.447256
854.0817, 3.153326
854.5638, 3.050490
855.0460, 3.566550
855.5281, 3.739921
856.0102, 3.022625
856.4923, 2.757523
856.9744, 2.467430
857.4565, 2.433151
857.9387, 2.644783
858.4208, 2.872803
858.9029, 3.200565
859.3850, 3.339867
859.8671, 3.131226
860.3492, 2.830055
860.8314, 2.604900
861.3135, 2.445759
861.7956, 2.326878
862.2777, 2.249363
862.7598, 2.207108
863.2419, 2.169384
863.7241, 2.167675
864.2062, 2.314388
864.6883, 2.510353
865.1704, 2.601803
865.6525, 2.546539
866.1346, 2.429981
866.6168, 2.261475
867.0989, 2.124905
867.5810, 2.159016
868.0631, 2.307327
868.5452, 2.394562
869.0273, 2.381241
869.5095, 2.323376
869.9916, 2.286964
870.4737, 2.238560
870.9558, 2.044670
871.4379, 1.637306
871.9200, 1.429188
872.4022, 1.491108
872.8843, 1.641109
873.3664, 1.864731
873.8485, 2.084839
874.3306, 2.191242
874.8127, 2.186775
875.2949, 2.097328
875.7770, 1.756287
876.2591, 1.548725
876.7412, 1.715595
877.2233, 1.958275
877.7054, 2.050308
878.1876, 1.982162
878.6697, 1.787502
879.1518, 1.440201
879.6339, 1.153481
880.1160, 1.175102
880.5981, 1.312092
881.0803, 1.252464
881.5624, 1.059479
882.0445, 0.9929010
882.5266, 1.142246
883.0087, 1.397724
883.4908, 1.683712
883.9730, 1.950584
884.4551, 1.934162
884.9372, 1.608913
885.4193, 1.470657
885.9014, 1.654289
886.3835, 1.877804
886.8657, 1.959641
887.3478, 1.928379
887.8299, 1.861122
888.3120, 1.755596
888.7941, 1.620560
889.2762, 1.362965
889.7584, 1.189461
890.2405, 1.260590
890.7226, 1.378632
891.2047, 1.319260
891.6868, 1.090347
892.1689, 0.8959770
892.6511, 0.7635610
893.1332, 0.7306520
893.6153, 0.9524000
894.0974, 1.184402
894.5795, 1.141666
895.0616, 0.8703690
895.5438, 0.5468710
896.0259, 0.2423290
896.5080, 2.9418999E-02
896.9901, 2.0405000E-02
897.4722, 0.1481900
897.9543, 0.3023570
898.4365, 0.4598160
898.9186, 0.4820520
899.4007, 0.3289220
899.8828, 0.1650090
900.3649, 0.1344530
900.8470, 0.2058750
901.3292, 0.2810520
901.8113, 0.3781360
902.2934, 0.3710630
902.7755, 0.1826130
903.2576, 4.3384999E-02
903.7397, 0.1035420
904.2219, 0.2533340
904.7040, 0.3043060
905.1861, 0.2337460
905.6682, 0.2401390
906.1503, 0.4366230
906.6324, 0.5655980
907.1146, 0.6125070
907.5967, 0.5293730
908.0788, 9.4925001E-02
908.5609, 0.4899180
909.0430, 0.6301570
909.5251, 1.3191000E-02
910.0073, 0.5412790
910.4894, 0.4586330
910.9715, 0.1685070
911.4536, 9.1743000E-02
911.9357, 0.1518900
912.4178, 0.1000630
912.9000, 0.1033670
913.3821, 0.2263570
913.8642, 4.0881999E-02
914.3463, 0.2752530
914.8284, 0.3762470
915.3105, 0.3088680
915.7927, 0.2911190
916.2748, 0.3510210
916.7569, 0.3957250
917.2390, 0.3709450
917.7211, 0.3246960
918.2032, 0.3521000
918.6854, 0.4602550
919.1675, 0.4316710
919.6496, 0.2007260
920.1317, 4.1820999E-02
920.6138, 6.2362999E-02
921.0959, 0.1185870
921.5781, 6.5434001E-02
922.0602, 6.0387000E-02
922.5423, 6.9793999E-02
923.0244, 0.1869130
923.5065, 0.2761000
923.9886, 2.8659999E-02
924.4708, 0.2167550
924.9529, 0.3298340
925.4350, 0.3446460
925.9171, 0.2573810
926.3992, 9.1911003E-02
926.8813, 4.6588998E-02
927.3635, 0.3924100
927.8456, 0.6481090
928.3277, 0.4257350
928.8098, 4.8434999E-02
929.2919, 0.1086880
929.7740, 8.9107998E-02
930.2562, 0.1636540
930.7383, 0.4408230
931.2204, 0.6724550
931.7025, 0.5279430
932.1846, 0.2173040
932.6667, 0.1320950
933.1489, 0.2316780
933.6310, 0.3651080
934.1132, 0.4922220
934.5953, 0.5964970
935.0774, 0.6650960
935.5595, 0.7043340
936.0416, 0.7434460
936.5237, 0.7833600
937.0059, 0.6988640
937.4880, 0.4607280
937.9701, 0.2241100
938.4522, 2.4646999E-02
938.9343, 8.2943000E-02
939.4164, 8.0829998E-03
939.8986, 0.2342720
940.3807, 0.3689610
940.8628, 0.2718010
941.3449, 0.3154180
941.8270, 0.6728630
942.3091, 1.015366
942.7913, 1.220261
943.2734, 1.279266
943.7555, 1.101814
944.2376, 0.6264460
944.7197, 0.4164280
945.2018, 0.8929060
945.6840, 1.236973
946.1661, 0.9537240
946.6482, 0.5533980
947.1303, 0.5594060
947.6124, 0.8695910
948.0945, 1.040543
948.5767, 0.9029460
949.0588, 0.7157480
949.5409, 0.6455310
950.0230, 0.5968860
950.5051, 0.3831210
950.9872, 0.1505700
951.4694, 0.2396700
951.9515, 0.6640470
952.4336, 1.074799
952.9157, 1.246357
953.3978, 1.245098
953.8799, 1.072399
954.3621, 0.8154220
954.8442, 0.7748990
955.3263, 0.9406130
955.8084, 1.033924
956.2905, 0.9427680
956.7726, 0.7806470
957.2548, 0.6695710
957.7369, 0.5982060
958.2190, 0.4931220
958.7011, 0.3470000
959.1832, 0.4270780
959.6653, 0.8257450
960.1475, 1.168331
960.6296, 1.201530
961.1117, 0.8212066
961.5938, 1.188414
962.0759, 1.398467
962.5580, 1.459809
963.0402, 0.9270409
963.5223, 1.161443
964.0044, 1.088399
964.4865, 1.002747
964.9686, 1.345127
965.4507, 0.8987683
965.9329, 1.234363
966.4150, 0.9929430
966.8971, 0.8069730
967.3792, 0.7236060
967.8613, 0.6776310
968.3434, 0.5906490
968.8256, 0.5654340
969.3077, 0.7957380
969.7898, 1.207535
970.2719, 1.413105
970.7540, 1.226051
971.2361, 0.9744000
971.7183, 0.6909330
972.2004, 0.5276870
972.6825, 0.7166250
973.1646, 1.047348
973.6467, 1.172428
974.1288, 1.039413
974.6110, 0.8637430
975.0931, 0.7563900
975.5752, 0.6817630
976.0573, 0.5852780
976.5394, 0.5125620
977.0215, 0.5924340
977.5037, 0.7588350
977.9858, 0.7471280
978.4679, 0.4820250
978.9500, 0.2588040
979.4321, 0.4545290
979.9142, 0.7900770
980.3964, 0.6304440
980.8785, 0.1483920
981.3606, 5.3566001E-02
981.8427, 9.6465997E-02
982.3248, 0.3319090
982.8069, 0.5307350
983.2891, 0.6929820
983.7712, 0.8326340
984.2533, 0.9419290
984.7354, 0.8977740
985.2175, 0.6702160
985.6996, 0.4509050
986.1818, 0.2997890
986.6639, 0.2815860
987.1460, 0.4460790
987.6281, 0.6739430
988.1102, 0.6752740
988.5923, 0.3956150
989.0745, 0.3141290
989.5566, 0.5081440
990.0387, 0.6704750
990.5208, 0.7099880
991.0029, 0.7044110
991.4850, 0.7329220
991.9672, 0.7675820
992.4493, 0.6909180
992.9314, 0.4100230
993.4135, 0.2415470
993.8956, 0.2348210
994.3777, 0.2756650
994.8599, 0.3383640
995.3420, 0.4251820
995.8241, 0.5828210
996.3062, 0.7801590
996.7883, 0.8378790
997.2704, 0.6158560
997.7526, 0.4905590
998.2347, 0.6188700
998.7168, 0.7344550
999.1989, 0.6873210
999.6810, 0.5633160
1000.163, 0.4578550
1000.645, 0.3842430
1001.127, 0.3467600
1001.609, 0.3561970
1002.092, 0.3858640
1002.574, 0.4253040
1003.056, 0.4804610
1003.538, 0.5340230
1004.020, 0.6161160
1004.502, 0.7840500
1004.984, 1.041718
1005.466, 1.330536
1005.949, 1.771557
1006.431, 2.014183
1006.913, 1.561966
1007.395, 0.9455300
1007.877, 0.8350220
1008.359, 1.097694
1008.841, 1.254807
1009.323, 1.170799
1009.805, 1.115700
1010.288, 1.362068
1010.770, 1.668537
1011.252, 1.699959
1011.734, 1.599121
1012.216, 1.676781
1012.698, 1.889214
1013.180, 1.899960
1013.662, 1.583813
1014.145, 1.291046
1014.627, 1.470730
1015.109, 1.836472
1015.591, 1.728512
1016.073, 1.318916
1016.555, 1.206520
1017.037, 1.431786
1017.519, 1.628185
1018.001, 1.611168
1018.484, 1.498802
1018.966, 1.421478
1019.448, 1.385311
1019.930, 1.451508
1020.412, 1.599590
1020.894, 1.636822
1021.376, 1.530746
1021.858, 1.367836
1022.341, 1.189053
1022.823, 1.036976
1023.305, 0.9790530
1023.787, 1.010700
1024.269, 1.118900
1024.751, 1.315079
1025.233, 1.353657
1025.715, 1.167622
1026.198, 0.9520870
1026.680, 0.8221970
1027.162, 0.7633400
1027.644, 0.7544360
1028.126, 0.7965130
1028.608, 0.8603940
1029.090, 0.9635240
1029.572, 0.9934960
1030.054, 0.8963320
1030.536, 0.8113440
1031.019, 0.8376010
1031.501, 0.9332620
1031.983, 1.010250
1032.465, 1.064758
1032.947, 1.134899
1033.429, 1.259018
1033.911, 1.292839
1034.393, 1.170437
1034.876, 1.008923
1035.358, 0.8745610
1035.840, 0.7708970
1036.322, 0.7014390
1036.804, 0.6540720
1037.286, 0.7093010
1037.768, 1.024261
1038.250, 1.150398
1038.733, 0.8299450
1039.215, 0.4899410
1039.697, 0.4863320
1040.179, 0.6762660
1040.661, 0.6881710
1041.143, 0.4535900
1041.625, 0.2958910
1042.107, 0.1087910
1042.589, 0.1469610
1043.072, 0.6898420
1043.554, 1.254807
1044.036, 1.509602
1044.518, 1.530483
1045.000, 1.490482
1045.482, 1.368351
1045.964, 1.298618
1046.446, 1.310333
1046.928, 1.349030
1047.411, 1.389679
1047.893, 1.463097
1048.375, 1.580910
1048.857, 1.765018
1049.339, 2.084183
1049.821, 2.617592
1050.303, 2.902855
1050.785, 2.746532
1051.268, 2.496597
1051.750, 2.043842
1052.232, 1.722775
1052.714, 1.917854
1053.196, 2.416676
1053.678, 2.726334
1054.160, 2.758411
1054.642, 2.727448
1055.125, 2.541794
1055.607, 2.485435
1056.089, 2.828983
1056.571, 3.194336
1057.053, 3.181396
1057.535, 2.973053
1058.017, 3.033855
1058.499, 3.493958
1058.981, 3.873962
1059.464, 3.997375
1059.946, 4.019615
1060.428, 3.933613
1060.910, 3.854660
1061.392, 3.956627
1061.874, 4.102074
1062.356, 3.986160
1062.838, 3.542450
1063.320, 3.083191
1063.803, 2.562527
1064.285, 2.198399
1064.767, 2.237095
1065.249, 2.331837
1065.731, 2.087288
1066.213, 1.707550
1066.695, 1.671383
1067.177, 2.065918
1067.660, 2.393723
1068.142, 2.519707
1068.624, 2.455200
1069.106, 1.960442
1069.588, 1.505005
1070.070, 1.523716
1070.552, 1.856514
1071.034, 2.221722
1071.516, 2.547653
1071.999, 2.726486
1072.481, 2.582893
1072.963, 2.453857
1073.445, 2.483356
1073.927, 2.601688
1074.409, 2.806057
1074.891, 3.031998
1075.373, 3.210369
1075.855, 3.319088
1076.338, 3.305866
1076.820, 3.045185
1077.302, 2.832386
1077.784, 2.764469
1078.266, 2.852711
1078.748, 3.213223
1079.230, 3.671772
1079.712, 3.937084
1080.195, 4.003395
1080.677, 4.130238
1081.159, 4.471352
1081.641, 4.755932
1082.123, 4.808510
1082.605, 4.809292
1083.087, 4.875046
1083.569, 4.980694
1084.052, 5.102238
1084.534, 5.207066
1085.016, 5.274101
1085.498, 5.320744
1085.980, 5.264420
1086.462, 5.021187
1086.944, 4.733059
1087.426, 4.449207
1087.908, 4.163704
1088.391, 3.831501
1088.873, 3.510841
1089.355, 3.390141
1089.837, 3.593418
1090.319, 3.693954
1090.801, 3.344376
1091.283, 3.033333
1091.765, 3.194172
1092.248, 3.428238
1092.730, 3.252220
1093.212, 2.815922
1093.694, 2.625050
1094.176, 2.828182
1094.658, 2.828987
1095.140, 2.190872
1095.622, 1.651985
1096.104, 1.613869
1096.587, 1.753357
1097.069, 1.908035
1097.551, 1.967476
1098.033, 1.722023
1098.515, 1.121487
1098.997, 0.6982120
1099.479, 0.7219470
1099.961, 0.7868730
1100.443, 0.8066020
1100.926, 0.7696760
1101.408, 0.6211090
1101.890, 0.4326670
1102.372, 0.3130720
1102.854, 0.2748600
1103.336, 0.2891960
1103.818, 0.4722750
1104.300, 0.5370450
1104.783, 0.3254550
1105.265, 6.2847003E-02
1105.747, 0.2182540
1106.229, 0.4053610
1106.711, 0.2800600
1107.193, 0.1001630
1107.675, 0.2722700
1108.157, 1.8051000E-02
1108.640, 0.1353680
1109.122, 3.2196000E-02
1109.604, 7.0843004E-02
1110.086, 2.2751000E-02
1110.568, 2.9064000E-02
1111.050, 0.1164320
1111.532, 0.3841510
1112.014, 0.4658280
1112.496, 0.2522390
1112.979, 0.1167030
1113.461, 0.1264800
1113.943, 0.1436770
1114.425, 0.1986770
1114.907, 0.1871450
1115.389, 4.8756000E-02
1115.871, 0.3771100
1116.353, 0.5093690
1116.835, 0.4355010
1117.318, 0.2175900
1117.800, 0.2682460
1118.282, 0.6815830
1118.764, 1.097157
1119.246, 1.225170
1119.728, 0.7104760
1120.210, 3.8099999E-04
1120.692, 0.2089650
1121.175, 7.1952999E-02
1121.657, 0.3391460
1122.139, 0.5942920
1122.621, 0.8508680
1123.103, 1.174816
1123.585, 1.330471
1124.067, 1.165363
1124.549, 0.8872070
1125.031, 0.7123950
1125.514, 0.6292080
1125.996, 0.5864450
1126.478, 0.5866430
1126.960, 0.6126560
1127.442, 0.6665760
1127.924, 0.7483250
1128.406, 0.8826220
1128.888, 0.9295500
1129.370, 0.7472650
1129.853, 0.4682310
1130.335, 0.4075090
1130.817, 0.5644760
1131.299, 0.7827300
1131.781, 1.078426
1132.263, 1.045082
1132.745, 0.5770030
1133.227, 0.2132190
1133.710, 0.2809640
1134.192, 0.4840430
1134.674, 0.3701860
1135.156, 4.7642000E-02
1135.638, 7.5229998E-03
1136.120, 0.1645160
1136.602, 0.2446900
1137.084, 0.2046090
1137.567, 0.1451910
1138.049, 0.1013790
1138.531, 0.1467900
1139.013, 0.3864860
1139.495, 0.6615410
1139.977, 0.6259570
1140.459, 0.3815000
1140.941, 0.1367070
1141.423, 4.2544998E-02
1141.906, 0.1167530
1142.388, 0.6054920
1142.870, 0.8999370
1143.352, 0.6548420
1143.834, 0.2140850
1144.316, 0.1258320
1144.798, 0.3194470
1145.280, 0.1988180
1145.762, 7.8583002E-02
1146.245, 0.2083740
1146.727, 0.1749110
1147.209, 8.8257000E-02
1147.691, 6.8130000E-03
1148.173, 1.9615000E-02
1148.655, 0.2533990
1149.137, 0.4875300
1149.619, 0.3379590
1150.102, 4.1351002E-02
1150.584, 0.2360380
1151.066, 0.3989490
1151.548, 0.2520480
1152.030, 0.1900600
1152.512, 0.5332790
1152.994, 0.5987050
1153.476, 0.5443530
1153.958, 0.2910420
1154.441, 0.1146930
1154.923, 0.2953030
1155.405, 0.5913120
1155.887, 0.7137830
1156.369, 0.6738780
1156.851, 0.6286620
1157.333, 0.6122320
1157.815, 0.5734560
1158.297, 0.3906590
1158.780, 0.3349460
1159.262, 0.6842800
1159.744, 0.9994740
1160.226, 0.9156950
1160.708, 0.6000790
1161.190, 0.3239400
1161.672, 8.2641996E-02
1162.154, 0.1002730
1162.637, 0.6580050
1163.119, 0.9312290
1163.601, 0.6329120
1164.083, 0.4334340
1164.565, 0.7390480
1165.047, 1.109802
1165.529, 1.041222
1166.011, 0.6622890
1166.494, 0.4968530
1166.976, 0.5989950
1167.458, 0.6938250
1167.940, 0.7826160
1168.422, 0.8962590
1168.904, 1.088387
1169.386, 1.149662
1169.868, 0.9071770
1170.350, 0.5954820
1170.833, 0.6365470
1171.315, 0.9490430
1171.797, 1.023937
1172.279, 0.8902510
1172.761, 0.8998370
1173.243, 1.078098
1173.725, 1.203163
1174.207, 1.208244
1174.689, 1.129051
1175.172, 0.9790650
1175.654, 0.8309780
1176.136, 0.8259770
1176.618, 0.8920900
1177.100, 0.8301700
1177.582, 0.7001420
1178.064, 0.7185130
1178.546, 0.8795970
1179.029, 1.007008
1179.511, 0.9835430
1179.993, 0.9426000
1180.475, 0.9530830
1180.957, 1.049217
1181.439, 1.435398
1181.921, 1.798374
1182.403, 1.645786
1182.885, 1.176514
1183.368, 0.8617290
1183.850, 0.8054240
1184.332, 0.8576090
1184.814, 1.050552
1185.296, 1.168503
1185.778, 1.017757
1186.260, 0.8868830
1186.742, 1.013763
1187.225, 1.202026
1187.707, 1.195515
1188.189, 1.056381
1188.671, 1.073025
1189.153, 1.356655
1189.635, 1.467262
1190.117, 1.236362
1190.599, 1.042282
1191.082, 0.8864900
1191.564, 0.8638650
1192.046, 1.092838
1192.528, 1.411163
1193.010, 1.645733
1193.492, 1.766270
1193.974, 1.415482
1194.456, 0.3575020
1194.938, 0.1569180
1195.421, 1.086441
1195.903, 1.654190
1196.385, 1.369141
1196.867, 0.9687040
1197.349, 0.9946170
1197.831, 1.273430
1198.313, 1.475101
1198.795, 1.579094
1199.277, 1.743893
1199.760, 1.958836
1200.242, 2.077484
1200.724, 2.072258
1201.206, 1.897797
1201.688, 1.551502
1202.170, 1.197811
1202.652, 0.9729610
1203.134, 0.8789020
1203.617, 0.9851610
1204.099, 1.140022
1204.581, 1.144306
1205.063, 1.033989
1205.545, 0.8569790
1206.027, 0.6634330
1206.509, 0.5605510
1206.991, 0.5771640
1207.474, 0.6348040
1207.956, 0.6984710
1208.438, 0.7591550
1208.920, 0.8573720
1209.402, 0.9459530
1209.884, 0.9990810
1210.366, 0.9931070
1210.848, 0.8891180
1211.330, 0.7060740
1211.813, 0.6285970
1212.295, 0.7787630
1212.777, 0.8256300
1213.259, 0.6765900
1213.741, 0.5522270
1214.223, 0.5125960
1214.705, 0.5054660
1215.187, 0.4998630
1215.669, 0.4999390
1216.152, 0.5173570
1216.634, 0.5495990
1217.116, 0.5433880
1217.598, 0.4929700
1218.080, 0.4579320
1218.562, 0.4448660
1219.044, 0.4405750
1219.526, 0.4343530
1220.009, 0.4325490
1220.491, 0.4458890
1220.973, 0.4338190
1221.455, 0.2388460
1221.937, 1.9238001E-02
1222.419, 0.3337480
1222.901, 0.9309540
1223.383, 1.120808
1223.865, 0.8856470
1224.348, 0.4859770
1224.830, 4.7878001E-02
1225.312, 0.1317020
1225.794, 0.2773090
1226.276, 0.7680020
1226.758, 1.011875
1227.240, 1.106411
1227.722, 1.085945
1228.204, 1.002209
1228.687, 0.8684770
1229.169, 0.7301980
1229.651, 0.7391280
1230.133, 0.9834980
1230.615, 1.007229
1231.097, 0.4251670
1231.579, 6.3141003E-02
1232.061, 0.2660710
1232.544, 0.4860920
1233.026, 0.4688800
1233.508, 0.3580020
1233.990, 0.3009830
1234.472, 0.2915040
1234.954, 0.3136710
1235.436, 0.3809810
1235.918, 0.3536720
1236.401, 0.2067570
1236.883, 0.2738340
1237.365, 0.6347200
1237.847, 0.9253270
1238.329, 0.9510880
1238.811, 0.8555300
1239.293, 0.7831610
1239.775, 0.7391240
1240.257, 0.7711640
1240.740, 0.8226200
1241.222, 0.7202070
1241.704, 0.5251010
1242.186, 0.4369770
1242.668, 0.4731060
1243.150, 0.5327450
1243.632, 0.5719910
1244.114, 0.6406360
1244.596, 0.8585590
1245.079, 1.006447
1245.561, 0.8821300
1246.043, 0.6914370
1246.525, 0.6041830
1247.007, 0.5716400
1247.489, 0.4994390
1247.971, 0.3882220
1248.453, 0.2958870
1248.936, 0.1761670
1249.418, 0.2136840
1249.900, 0.4946630
1250.382, 0.7751500
1250.864, 1.047039
1251.346, 1.221169
1251.828, 1.244675
1252.310, 1.142929
1252.792, 0.9163060
1253.275, 0.6283570
1253.757, 0.6260910
1254.239, 0.8607710
1254.721, 0.5598560
1255.203, 0.2028390
1255.685, 0.4275700
1256.167, 4.1405000E-02
1256.649, 0.5681720
1257.131, 0.8917080
1257.614, 0.9897990
1258.096, 0.6841430
1258.578, 0.3855510
1259.060, 0.7211880
1259.542, 1.220695
1260.024, 1.297150
1260.506, 1.103298
1260.988, 0.9286540
1261.471, 0.8156700
1261.953, 0.6889310
1262.435, 0.5067060
1262.917, 0.4087140
1263.399, 0.4153900
1263.881, 0.5269930
1264.363, 0.8920560
1264.845, 1.184845
1265.328, 1.278942
1265.810, 1.165859
1266.292, 0.7306370
1266.774, 0.1344110
1267.256, 8.8321999E-02
1267.738, 0.6712720
1268.220, 0.9578360
1268.702, 0.9354400
1269.184, 0.9351040
1269.667, 1.012154
1270.149, 1.049438
1270.631, 0.9931600
1271.113, 0.8821830
1271.595, 0.6892090
1272.077, 0.4290350
1272.559, 0.2614900
1273.041, 0.1398540
1273.523, 0.2185440
1274.006, 0.3806420
1274.488, 0.4240720
1274.970, 0.3468440
1275.452, 0.1997300
1275.934, 3.1280001E-03
1276.416, 2.6283000E-02
1276.898, 0.4240420
1277.380, 0.7503970
1277.863, 0.6485520
1278.345, 0.5744400
1278.827, 0.8859060
1279.309, 1.150906
1279.791, 0.9361690
1280.273, 0.4944920
1280.755, 0.3717920
1281.237, 0.5640410
1281.719, 0.7360610
1282.202, 0.8754690
1282.684, 0.9066390
1283.166, 0.8062290
1283.648, 0.7724990
1284.130, 0.8632580
1284.612, 0.9157560
1285.094, 0.8207320
1285.576, 0.6328510
1286.059, 0.2790370
1286.541, 4.0930002E-03
1287.023, 5.9108999E-02
1287.505, 0.0000000E+00
##END=



