##NAMES=Elpidite
##RRUFFID=R060214
##IDEAL CHEMISTRY=Na_2_Zr^4+^Si_6_O_15_&#183;3H_2_O
##LOCALITY=Mont Saint-Hilaire, Rouville County, Quebec, Canada
##OWNER=RRUFF
##SOURCE=Royal Ontario Museum
##DESCRIPTION=White columnar aggregate of elongated acicular crystals
##STATUS=The identification of this mineral has been confirmed by X-ray diffraction.
##URL=rruff.info/R060214
135.2177, 0.0000000E+00
135.6998, 1.738887
136.1819, 8.7879999E-03
136.6640, 0.9893470
137.1461, 8.4663004E-02
137.6282, 3.353643
138.1104, 8.746159
138.5925, 14.56967
139.0746, 20.39501
139.5567, 26.75463
140.0388, 33.82808
140.5209, 41.58688
141.0031, 49.98647
141.4852, 59.01094
141.9673, 68.83996
142.4494, 78.80673
142.9315, 89.61300
143.4136, 100.0560
143.8958, 109.7678
144.3779, 118.4604
144.8600, 125.7899
145.3421, 131.1054
145.8242, 133.3208
146.3063, 135.2229
146.7885, 136.8639
147.2706, 138.2321
147.7527, 139.0613
148.2348, 139.0999
148.7169, 139.1340
149.1990, 140.9631
149.6812, 144.7302
150.1633, 148.9462
150.6454, 153.0550
151.1275, 157.2372
151.6096, 161.9510
152.0917, 167.2444
152.5739, 173.3781
153.0560, 180.6035
153.5381, 189.2190
154.0202, 197.9726
154.5023, 206.1958
154.9844, 213.8929
155.4665, 220.2425
155.9487, 223.8138
156.4308, 226.4107
156.9129, 229.3695
157.3950, 233.0742
157.8771, 236.9804
158.3592, 240.2732
158.8414, 242.7194
159.3235, 245.0583
159.8056, 247.0670
160.2877, 248.9830
160.7698, 251.1088
161.2519, 253.5699
161.7341, 256.9633
162.2162, 261.9850
162.6983, 269.1045
163.1804, 275.6226
163.6625, 281.3740
164.1446, 286.5976
164.6268, 291.0221
165.1089, 295.7458
165.5910, 301.8847
166.0731, 307.6855
166.5552, 314.4254
167.0373, 319.9024
167.5195, 322.9353
168.0016, 323.4730
168.4837, 323.4349
168.9658, 322.8794
169.4479, 321.1482
169.9300, 317.5771
170.4122, 313.8480
170.8943, 309.0489
171.3764, 301.5986
171.8585, 291.9297
172.3406, 281.5851
172.8227, 271.6316
173.3049, 262.0101
173.7870, 251.9120
174.2691, 242.3022
174.7512, 232.0673
175.2333, 219.5038
175.7154, 204.7671
176.1976, 190.2616
176.6797, 178.0734
177.1618, 167.4420
177.6439, 156.9589
178.1260, 146.1040
178.6081, 135.2874
179.0903, 124.9982
179.5724, 115.3305
180.0545, 106.0732
180.5366, 96.87337
181.0187, 88.59013
181.5008, 81.21405
181.9830, 75.01493
182.4651, 69.90078
182.9472, 65.67161
183.4293, 62.93802
183.9114, 60.21228
184.3935, 57.21826
184.8757, 53.78899
185.3578, 49.49886
185.8399, 43.69544
186.3220, 36.61509
186.8041, 31.05327
187.2862, 28.33527
187.7684, 25.90125
188.2505, 22.92883
188.7326, 19.62206
189.2147, 16.57375
189.6968, 14.32292
190.1789, 12.85594
190.6611, 10.85856
191.1432, 7.850060
191.6253, 5.072595
192.1074, 2.875444
192.5895, 1.290374
193.0716, 0.2749620
193.5538, 0.1478660
194.0359, 1.188165
194.5180, 0.6805210
195.0001, 2.988326
195.4822, 6.366179
195.9643, 7.608856
196.4465, 6.909142
196.9286, 5.756641
197.4107, 5.491935
197.8928, 6.266224
198.3749, 6.914457
198.8570, 6.880079
199.3392, 6.115233
199.8213, 4.643366
200.3034, 2.545738
200.7855, 1.136435
201.2676, 2.040920
201.7497, 5.389737
202.2319, 4.078507
202.7140, 4.744378
203.1961, 3.710523
203.6782, 1.368827
204.1603, 0.9936290
204.6424, 2.596956
205.1246, 2.215792
205.6067, 0.2878750
206.0888, 1.171874
206.5709, 1.517157
207.0530, 1.279531
207.5351, 1.156403
208.0173, 1.211515
208.4994, 1.300046
208.9815, 1.239895
209.4636, 1.120453
209.9457, 1.151209
210.4278, 1.488585
210.9100, 1.512219
211.3921, 0.5983720
211.8742, 0.4308000
212.3563, 1.153689
212.8384, 0.8601620
213.3205, 0.1296100
213.8027, 5.3927001E-02
214.2848, 1.342513
214.7669, 3.707365
215.2490, 6.197928
215.7311, 9.164775
216.2132, 11.67352
216.6954, 13.13803
217.1775, 13.96849
217.6596, 14.88159
218.1417, 16.36052
218.6238, 18.28024
219.1059, 19.88554
219.5881, 20.96263
220.0702, 21.94944
220.5523, 22.87653
221.0344, 23.82457
221.5165, 24.93816
221.9986, 26.33508
222.4808, 27.95841
222.9629, 29.33647
223.4450, 29.28514
223.9271, 30.30611
224.4092, 33.71937
224.8913, 38.49481
225.3735, 42.85833
225.8556, 45.59716
226.3377, 46.88078
226.8198, 48.82439
227.3019, 51.89333
227.7840, 55.16203
228.2662, 58.42043
228.7483, 61.74334
229.2304, 65.32613
229.7125, 69.34538
230.1946, 73.73116
230.6767, 77.62460
231.1589, 80.61456
231.6410, 83.60450
232.1231, 86.42696
232.6052, 89.42751
233.0873, 93.30534
233.5694, 98.56026
234.0516, 104.9780
234.5337, 111.0155
235.0158, 116.8912
235.4979, 122.2900
235.9800, 126.5237
236.4621, 130.1874
236.9443, 134.6770
237.4264, 140.8836
237.9085, 148.3704
238.3906, 155.1259
238.8727, 159.8090
239.3548, 165.3502
239.8370, 173.4519
240.3191, 183.2129
240.8012, 192.3109
241.2833, 199.4594
241.7654, 205.3749
242.2475, 212.2619
242.7297, 220.4468
243.2118, 228.8489
243.6939, 237.4039
244.1760, 245.8452
244.6581, 253.4665
245.1402, 260.1675
245.6224, 265.5197
246.1045, 268.9839
246.5866, 270.5067
247.0687, 270.6738
247.5508, 269.3996
248.0329, 266.9260
248.5151, 264.0303
248.9972, 260.8160
249.4793, 257.4155
249.9614, 254.1977
250.4435, 251.2764
250.9256, 247.8191
251.4078, 242.6495
251.8899, 236.3406
252.3720, 231.3596
252.8541, 228.9301
253.3362, 226.8170
253.8183, 222.9475
254.3005, 217.4954
254.7826, 211.2433
255.2647, 204.2584
255.7468, 196.6111
256.2289, 189.1835
256.7110, 182.7258
257.1931, 175.7862
257.6753, 166.8844
258.1574, 156.3289
258.6395, 146.0702
259.1216, 137.4573
259.6037, 130.2611
260.0858, 123.1361
260.5680, 115.3182
261.0501, 108.1984
261.5322, 102.4738
262.0143, 97.93931
262.4964, 94.02755
262.9785, 90.59639
263.4607, 87.71530
263.9428, 85.05618
264.4249, 82.62997
264.9070, 80.58791
265.3891, 79.45801
265.8712, 78.64237
266.3534, 76.97593
266.8355, 73.43225
267.3176, 68.53560
267.7997, 64.57684
268.2818, 62.27126
268.7639, 59.70549
269.2461, 55.98034
269.7282, 51.63935
270.2103, 47.73311
270.6924, 44.78897
271.1745, 42.53478
271.6566, 40.21673
272.1388, 38.03550
272.6209, 35.81966
273.1030, 33.26899
273.5851, 30.67844
274.0672, 28.36368
274.5493, 26.42953
275.0315, 24.94370
275.5136, 24.22945
275.9957, 24.96338
276.4778, 25.19761
276.9599, 24.69519
277.4420, 23.58241
277.9242, 21.62469
278.4063, 18.75270
278.8884, 15.89520
279.3705, 14.89244
279.8526, 16.71388
280.3347, 18.42811
280.8169, 19.69114
281.2990, 20.77802
281.7811, 21.96125
282.2632, 23.29056
282.7453, 24.51540
283.2274, 25.14847
283.7096, 24.77439
284.1917, 24.86814
284.6738, 25.20745
285.1559, 26.12621
285.6380, 28.24143
286.1201, 31.37614
286.6023, 34.49290
287.0844, 36.32943
287.5665, 36.47194
288.0486, 37.08133
288.5307, 39.03639
289.0128, 40.85601
289.4950, 41.73435
289.9771, 41.73740
290.4592, 41.89328
290.9413, 43.30241
291.4234, 46.25969
291.9055, 47.40625
292.3877, 44.75933
292.8698, 42.21826
293.3519, 41.14491
293.8340, 41.12282
294.3161, 40.93983
294.7982, 39.68378
295.2804, 37.60827
295.7625, 37.14061
296.2446, 40.29947
296.7267, 42.50579
297.2088, 41.80170
297.6909, 39.83961
298.1731, 38.97613
298.6552, 40.55058
299.1373, 43.85135
299.6194, 46.15766
300.1015, 45.93309
300.5836, 46.52990
301.0658, 48.98396
301.5479, 52.05551
302.0300, 54.45018
302.5121, 55.65070
302.9942, 56.01735
303.4763, 56.33023
303.9585, 57.12196
304.4406, 56.94721
304.9227, 55.02405
305.4048, 52.69353
305.8869, 51.30952
306.3690, 51.09620
306.8512, 50.89909
307.3333, 48.98678
307.8154, 44.52116
308.2975, 40.08343
308.7796, 35.31892
309.2617, 30.97907
309.7439, 27.65556
310.2260, 25.28157
310.7081, 23.33374
311.1902, 21.34749
311.6723, 19.25711
312.1544, 17.28692
312.6366, 15.63208
313.1187, 13.92732
313.6008, 11.93591
314.0829, 9.728860
314.5650, 7.538085
315.0471, 5.493561
315.5293, 3.624785
316.0114, 2.351056
316.4935, 2.389142
316.9756, 2.213823
317.4577, 1.258238
317.9398, 5.4212000E-02
318.4220, 1.108663
318.9041, 1.595211
319.3862, 1.587460
319.8683, 1.299473
320.3504, 2.8127000E-02
320.8326, 0.6090910
321.3147, 0.1579890
321.7968, 0.7665920
322.2789, 1.614250
322.7610, 1.778177
323.2431, 1.374100
323.7253, 0.9431150
324.2074, 0.4163410
324.6895, 2.2570000E-03
325.1716, 0.7649460
325.6537, 1.111973
326.1358, 9.7344004E-02
326.6180, 1.886391
327.1001, 0.2658010
327.5822, 0.8294150
328.0643, 0.6705780
328.5464, 1.318840
329.0285, 0.4466760
329.5107, 0.5123760
329.9928, 1.017866
330.4749, 1.103390
330.9570, 0.9467910
331.4391, 0.5989100
331.9212, 0.1248530
332.4034, 0.5102800
332.8855, 2.719339
333.3676, 4.790520
333.8497, 6.448985
334.3318, 7.717992
334.8139, 8.688500
335.2961, 9.404207
335.7782, 9.817633
336.2603, 9.850015
336.7424, 9.026368
337.2245, 8.313999
337.7066, 7.869913
338.1888, 7.474887
338.6709, 7.039812
339.1530, 6.496167
339.6351, 5.964751
340.1172, 5.707875
340.5993, 6.022429
341.0815, 5.742951
341.5636, 3.981302
342.0457, 2.334568
342.5278, 1.944776
343.0099, 2.593344
343.4920, 3.158700
343.9742, 2.428948
344.4563, 0.3237600
344.9384, 0.7902050
345.4205, 0.5654280
345.9026, 1.448218
346.3847, 0.6858970
346.8669, 0.9987220
347.3490, 2.6489001E-02
347.8311, 0.2693010
348.3132, 0.6555560
348.7953, 0.6920930
349.2774, 1.239494
349.7596, 3.007091
350.2417, 2.935714
350.7238, 1.818837
351.2059, 9.2651002E-02
351.6880, 0.1740670
352.1701, 1.673988
352.6523, 1.622891
353.1344, 0.8197100
353.6165, 0.6574270
354.0986, 0.9288490
354.5807, 1.648358
355.0628, 3.272901
355.5450, 3.768651
356.0271, 3.693044
356.5092, 3.368515
356.9913, 2.771054
357.4734, 2.655563
357.9555, 3.200655
358.4377, 4.089551
358.9198, 5.783229
359.4019, 7.681737
359.8840, 8.536633
360.3661, 7.327337
360.8482, 4.787750
361.3304, 3.186438
361.8125, 2.965175
362.2946, 2.736738
362.7767, 1.899379
363.2588, 0.8621620
363.7409, 3.3597000E-02
364.2231, 0.7233650
364.7052, 1.052976
365.1873, 0.6519170
365.6694, 0.5890320
366.1515, 1.576286
366.6336, 2.094087
367.1158, 2.215175
367.5979, 1.807160
368.0800, 0.9260650
368.5621, 0.1792590
369.0442, 0.1385180
369.5263, 0.6438420
370.0085, 0.8509150
370.4906, 0.3890040
370.9727, 0.2008640
371.4548, 1.293283
371.9369, 3.111634
372.4190, 4.405023
372.9012, 4.360747
373.3833, 3.752540
373.8654, 3.803602
374.3475, 4.613035
374.8296, 5.259612
375.3117, 4.939783
375.7939, 4.350132
376.2760, 4.577180
376.7581, 6.078647
377.2402, 7.618261
377.7223, 8.361878
378.2044, 8.461303
378.6866, 8.194691
379.1687, 7.523530
379.6508, 6.654956
380.1329, 5.924587
380.6150, 5.368309
381.0971, 4.709096
381.5793, 3.440627
382.0614, 2.159472
382.5435, 1.842409
383.0256, 2.600357
383.5077, 3.549648
383.9898, 4.180683
384.4720, 4.412699
384.9541, 4.486958
385.4362, 3.553621
385.9183, 2.955835
386.4004, 4.017521
386.8825, 6.333268
387.3647, 8.089117
387.8468, 8.401561
388.3289, 7.800977
388.8110, 7.733105
389.2931, 8.828629
389.7752, 9.338316
390.2574, 8.477534
390.7395, 7.048591
391.2216, 6.159338
391.7037, 6.023896
392.1858, 5.738621
392.6679, 4.125690
393.1501, 0.7337260
393.6322, 1.629057
394.1143, 2.093681
394.5964, 2.423303
395.0785, 1.776970
395.5606, 0.1981280
396.0428, 2.103211
396.5249, 3.468747
397.0070, 4.302458
397.4891, 4.653977
397.9712, 4.806772
398.4533, 4.085544
398.9355, 1.607385
399.4176, 1.408369
399.8997, 1.967664
400.3818, 0.7283870
400.8639, 0.2470640
401.3460, 0.1583900
401.8282, 0.8053370
402.3103, 0.9277820
402.7924, 1.093913
403.2745, 0.2307080
403.7566, 2.706883
404.2387, 7.013607
404.7209, 10.67600
405.2030, 12.28160
405.6851, 12.18495
406.1672, 13.01893
406.6493, 15.48869
407.1314, 17.66121
407.6136, 18.69895
408.0957, 19.51600
408.5778, 21.03706
409.0599, 23.58008
409.5420, 26.90334
410.0241, 30.85442
410.5063, 35.54687
410.9884, 39.40312
411.4705, 41.88126
411.9526, 44.10573
412.4347, 46.49023
412.9168, 49.01449
413.3990, 52.08508
413.8811, 56.03406
414.3632, 60.74706
414.8453, 65.90005
415.3274, 71.69001
415.8095, 77.44186
416.2917, 82.94372
416.7738, 88.15314
417.2559, 92.97929
417.7380, 97.45174
418.2201, 101.4300
418.7022, 104.4657
419.1844, 106.6923
419.6665, 109.5527
420.1486, 113.9349
420.6307, 118.4694
421.1128, 121.7443
421.5949, 123.8391
422.0771, 124.1999
422.5592, 122.2081
423.0413, 118.7084
423.5234, 114.6099
424.0055, 109.9183
424.4876, 104.7933
424.9698, 99.21719
425.4519, 93.29829
425.9340, 87.74696
426.4161, 82.78472
426.8982, 77.92459
427.3803, 72.96780
427.8625, 67.96275
428.3446, 63.01614
428.8267, 58.12918
429.3088, 53.50101
429.7909, 49.36476
430.2730, 45.59073
430.7552, 42.77946
431.2373, 41.90103
431.7194, 41.31853
432.2015, 39.68663
432.6836, 37.12926
433.1657, 34.59030
433.6479, 32.97079
434.1300, 32.21634
434.6121, 31.28350
435.0942, 30.37368
435.5763, 29.05295
436.0584, 27.11366
436.5406, 24.86684
437.0227, 22.46235
437.5048, 19.88068
437.9869, 17.41598
438.4690, 15.36879
438.9511, 13.61052
439.4333, 12.66073
439.9154, 13.68763
440.3975, 14.47608
440.8796, 14.08640
441.3617, 12.61213
441.8438, 10.44795
442.3260, 7.553198
442.8081, 4.369770
443.2902, 2.664486
443.7723, 3.167845
444.2544, 3.298704
444.7365, 1.091652
445.2187, 1.328267
445.7008, 1.693420
446.1829, 0.5422680
446.6650, 3.099280
447.1471, 3.620991
447.6292, 2.576983
448.1114, 2.740982
448.5935, 4.983526
449.0756, 7.566017
449.5577, 8.712419
450.0398, 8.946321
450.5219, 9.888099
451.0041, 12.35310
451.4862, 15.32687
451.9683, 17.88528
452.4504, 20.14733
452.9325, 22.90632
453.4146, 26.55807
453.8968, 30.79605
454.3789, 35.15591
454.8610, 39.25758
455.3431, 44.54749
455.8252, 52.40183
456.3073, 61.09225
456.7895, 68.78771
457.2716, 75.17883
457.7537, 81.24324
458.2358, 87.81664
458.7179, 94.86483
459.2000, 102.4081
459.6822, 111.1154
460.1643, 119.4187
460.6464, 126.1271
461.1285, 132.4749
461.6106, 140.1842
462.0927, 149.8716
462.5748, 160.4664
463.0569, 170.1143
463.5391, 178.0750
464.0212, 186.9561
464.5033, 197.8181
464.9854, 208.5248
465.4675, 217.8814
465.9496, 226.2602
466.4318, 234.6521
466.9139, 243.4936
467.3960, 253.0750
467.8781, 264.5140
468.3602, 278.4698
468.8423, 292.6892
469.3245, 307.3569
469.8066, 321.6078
470.2887, 334.7674
470.7708, 346.7310
471.2529, 357.5341
471.7350, 367.9720
472.2172, 377.4082
472.6993, 383.5891
473.1814, 386.7610
473.6635, 385.3940
474.1456, 377.3929
474.6277, 363.9666
475.1099, 347.1964
475.5920, 326.3077
476.0741, 303.6541
476.5562, 280.5356
477.0383, 257.0427
477.5204, 232.5393
478.0026, 206.7324
478.4847, 180.9746
478.9668, 157.2050
479.4489, 135.3596
479.9310, 115.9506
480.4131, 99.45744
480.8953, 85.11898
481.3774, 72.73396
481.8595, 62.15231
482.3416, 53.27366
482.8237, 46.09833
483.3058, 40.23905
483.7880, 34.31018
484.2701, 27.91547
484.7522, 22.06542
485.2343, 16.54397
485.7164, 11.69746
486.1985, 7.782484
486.6807, 4.812436
487.1628, 2.702901
487.6449, 1.517535
488.1270, 1.171924
488.6091, 0.4475650
489.0912, 0.8363310
489.5734, 2.235964
490.0555, 3.800543
490.5376, 2.706445
491.0197, 1.434437
491.5018, 0.4824530
491.9839, 9.5494002E-02
492.4661, 0.2525830
492.9482, 1.2758000E-02
493.4303, 0.8156120
493.9124, 2.433168
494.3945, 3.711719
494.8766, 2.925925
495.3588, 2.624829
495.8409, 1.631488
496.3230, 1.184819
496.8051, 4.005575
497.2872, 4.672775
497.7693, 3.907500
498.2515, 4.689259
498.7336, 8.474028
499.2157, 13.23529
499.6978, 15.51018
500.1799, 14.20592
500.6620, 14.66245
501.1442, 19.10667
501.6263, 23.83495
502.1084, 25.93517
502.5905, 25.94605
503.0726, 26.04195
503.5547, 27.62591
504.0369, 30.65491
504.5190, 34.45387
505.0011, 39.79915
505.4832, 44.72345
505.9653, 48.60146
506.4474, 52.47077
506.9296, 57.29849
507.4117, 62.97730
507.8938, 68.51220
508.3759, 72.92664
508.8580, 76.51338
509.3401, 80.94314
509.8223, 86.75631
510.3044, 92.24346
510.7865, 96.69012
511.2686, 100.5687
511.7507, 104.1189
512.2328, 107.3420
512.7150, 110.8955
513.1971, 116.0332
513.6792, 121.8884
514.1613, 125.6543
514.6434, 126.6219
515.1255, 127.3108
515.6077, 129.3352
516.0898, 132.7206
516.5719, 136.9587
517.0540, 142.4176
517.5361, 148.1630
518.0182, 153.5719
518.5004, 159.1065
518.9825, 165.5611
519.4646, 173.1752
519.9467, 181.5411
520.4288, 190.3931
520.9109, 199.6837
521.3931, 208.8153
521.8752, 217.8990
522.3573, 226.7176
522.8394, 234.6553
523.3215, 242.5278
523.8036, 251.0479
524.2858, 260.4344
524.7679, 271.4185
525.2500, 285.5127
525.7321, 303.4483
526.2142, 320.6062
526.6964, 336.4966
527.1785, 351.9602
527.6606, 366.8823
528.1427, 381.5482
528.6248, 396.6964
529.1069, 412.8767
529.5891, 429.3087
530.0712, 445.6048
530.5533, 461.5605
531.0354, 474.4270
531.5175, 483.2701
531.9996, 488.8587
532.4818, 492.7020
532.9639, 494.9681
533.4460, 492.2548
533.9281, 482.7624
534.4102, 468.8052
534.8923, 451.2875
535.3745, 430.6144
535.8566, 407.2204
536.3387, 381.1659
536.8208, 353.6593
537.3029, 327.3029
537.7850, 301.9931
538.2672, 277.9448
538.7493, 254.5766
539.2314, 232.6155
539.7135, 212.3751
540.1956, 193.9196
540.6777, 176.8769
541.1599, 160.9092
541.6420, 146.2031
542.1241, 133.3815
542.6062, 122.7218
543.0883, 112.9330
543.5704, 104.1587
544.0526, 95.98766
544.5347, 87.99883
545.0168, 80.30180
545.4989, 73.71092
545.9810, 69.18500
546.4631, 65.65742
546.9453, 61.31170
547.4274, 56.13114
547.9095, 51.44197
548.3916, 48.20090
548.8737, 45.59390
549.3558, 42.03789
549.8380, 37.31279
550.3201, 33.17313
550.8022, 30.40108
551.2843, 28.00737
551.7664, 24.96698
552.2485, 21.49756
552.7307, 18.58793
553.2128, 16.66808
553.6949, 15.75193
554.1770, 15.92696
554.6591, 18.70091
555.1412, 19.53337
555.6234, 17.11953
556.1055, 14.05965
556.5876, 11.78558
557.0697, 10.25720
557.5518, 8.750920
558.0339, 6.674513
558.5161, 4.553902
558.9982, 3.738528
559.4803, 4.438961
559.9624, 5.215984
560.4445, 5.804353
560.9266, 6.214799
561.4088, 6.524781
561.8909, 6.718832
562.3730, 6.628140
562.8551, 5.865449
563.3372, 5.015429
563.8193, 4.770555
564.3015, 5.041829
564.7836, 5.347514
565.2657, 5.526117
565.7478, 5.471200
566.2299, 4.912994
566.7120, 3.388333
567.1942, 2.536550
567.6763, 3.067830
568.1584, 3.614477
568.6405, 3.110082
569.1226, 2.005378
569.6047, 1.486362
570.0869, 2.200493
570.5690, 3.535557
571.0511, 4.316545
571.5332, 4.569128
572.0153, 4.148143
572.4974, 2.278210
572.9796, 0.4846280
573.4617, 0.5193430
573.9438, 0.8152750
574.4259, 0.6528640
574.9080, 2.7559999E-02
575.3901, 0.8852720
575.8723, 1.829716
576.3544, 2.715791
576.8365, 2.498778
577.3186, 0.5824560
577.8007, 1.257618
578.2828, 0.5317160
578.7650, 1.376265
579.2471, 0.7570010
579.7292, 0.2824040
580.2113, 0.1770180
580.6934, 0.8847610
581.1755, 0.7050030
581.6577, 5.6419000E-02
582.1398, 8.3598003E-02
582.6219, 0.5264400
583.1040, 1.148339
583.5861, 0.4585490
584.0682, 0.1936540
584.5504, 1.147800
585.0325, 0.3295770
585.5146, 0.2512120
585.9967, 0.6776300
586.4788, 1.402893
586.9609, 2.584762
587.4431, 3.565705
587.9252, 3.784899
588.4073, 3.294546
588.8894, 2.034302
589.3715, 0.2685450
589.8536, 0.1877260
590.3358, 2.4670999E-02
590.8179, 1.022562
591.3000, 0.3121440
591.7821, 0.7897520
592.2642, 1.190717
592.7463, 9.1076002E-02
593.2285, 0.6326220
593.7106, 0.7296110
594.1927, 1.580494
594.6748, 1.680038
595.1569, 0.6964250
595.6390, 1.036338
596.1212, 0.4527740
596.6033, 0.3276540
597.0854, 0.5830980
597.5675, 0.2321970
598.0496, 0.1754880
598.5317, 0.3493420
599.0139, 1.699102
599.4960, 2.990286
599.9781, 3.647722
600.4602, 3.905977
600.9423, 4.122095
601.4244, 4.293348
601.9066, 4.703978
602.3887, 5.571360
602.8708, 6.544876
603.3529, 7.025263
603.8350, 7.035345
604.3171, 7.501084
604.7993, 9.229039
605.2814, 10.72958
605.7635, 10.49875
606.2456, 9.395871
606.7277, 9.488206
607.2098, 11.53225
607.6920, 14.18124
608.1741, 15.35383
608.6562, 14.72279
609.1383, 14.43492
609.6204, 14.38245
610.1025, 14.83331
610.5847, 15.82397
611.0668, 17.38315
611.5489, 19.82386
612.0310, 23.29856
612.5131, 26.43252
612.9952, 27.63894
613.4774, 27.47796
613.9595, 27.72471
614.4416, 28.55188
614.9237, 29.70882
615.4058, 31.16914
615.8879, 32.81687
616.3701, 34.30022
616.8522, 35.72706
617.3343, 36.74143
617.8164, 37.34392
618.2985, 37.49035
618.7806, 36.97658
619.2628, 35.97387
619.7449, 34.84217
620.2270, 33.93028
620.7091, 33.15319
621.1912, 32.21978
621.6733, 30.98186
622.1555, 30.03735
622.6376, 29.74837
623.1197, 29.50413
623.6018, 29.23836
624.0839, 28.76496
624.5660, 27.55825
625.0482, 25.02057
625.5303, 22.33861
626.0124, 20.80716
626.4945, 20.17413
626.9766, 19.57307
627.4587, 18.70044
627.9409, 17.80634
628.4230, 17.28889
628.9051, 17.16678
629.3872, 16.65806
629.8693, 14.93308
630.3514, 12.69612
630.8336, 14.54154
631.3157, 15.59558
631.7978, 15.91996
632.2799, 13.43176
632.7620, 14.70750
633.2441, 14.54216
633.7263, 14.22978
634.2084, 15.94170
634.6905, 13.90277
635.1726, 15.67069
635.6547, 15.91233
636.1368, 16.82289
636.6190, 16.20464
637.1011, 16.00361
637.5832, 17.28718
638.0653, 17.75992
638.5474, 16.87856
639.0295, 17.62392
639.5117, 16.50283
639.9938, 17.42274
640.4759, 18.52095
640.9580, 19.46524
641.4401, 19.90094
641.9222, 19.71985
642.4044, 19.25029
642.8865, 17.42063
643.3686, 16.80379
643.8507, 18.96950
644.3328, 21.94647
644.8149, 23.70562
645.2971, 23.90480
645.7792, 23.77540
646.2613, 24.59443
646.7434, 25.81992
647.2255, 25.85062
647.7076, 24.61084
648.1898, 23.33555
648.6719, 22.58002
649.1540, 21.87079
649.6361, 19.93685
650.1182, 16.30156
650.6003, 14.07922
651.0825, 14.38552
651.5646, 15.31760
652.0467, 16.09984
652.5288, 16.50087
653.0109, 16.14758
653.4930, 14.82460
653.9752, 13.24894
654.4573, 12.30047
654.9394, 11.97915
655.4215, 11.41521
655.9036, 10.36471
656.3857, 9.568878
656.8679, 9.522227
657.3500, 9.785550
657.8321, 9.980453
658.3142, 10.10266
658.7963, 9.815219
659.2784, 9.062942
659.7606, 7.761543
660.2427, 5.197099
660.7248, 1.848870
661.2069, 0.3627760
661.6890, 0.4918390
662.1711, 0.6941950
662.6533, 1.949446
663.1354, 3.577544
663.6175, 4.208590
664.0996, 2.547803
664.5817, 1.303541
665.0638, 1.809490
665.5460, 3.047224
666.0281, 3.457059
666.5102, 2.612662
666.9923, 1.829281
667.4744, 2.501238
667.9565, 4.023785
668.4387, 4.942851
668.9208, 5.130738
669.4029, 5.033589
669.8850, 4.871488
670.3671, 4.541401
670.8492, 3.862990
671.3314, 2.562743
671.8135, 1.652563
672.2956, 1.497830
672.7777, 1.423883
673.2598, 0.7919050
673.7419, 0.1057110
674.2241, 0.4380950
674.7062, 2.128163
675.1883, 3.748940
675.6704, 3.060278
676.1525, 0.4127580
676.6346, 0.5094860
677.1168, 0.8414320
677.5989, 2.366640
678.0810, 3.064792
678.5631, 3.335943
679.0452, 4.018365
679.5273, 5.357543
680.0095, 5.752745
680.4916, 3.840881
680.9737, 1.696666
681.4558, 1.016736
681.9379, 1.342948
682.4200, 1.589767
682.9022, 1.291893
683.3843, 0.6570550
683.8664, 0.1974720
684.3485, 0.4690300
684.8306, 0.2946240
685.3127, 0.2341940
685.7949, 1.206482
686.2770, 2.752987
686.7591, 3.878403
687.2412, 3.754752
687.7233, 2.207139
688.2054, 0.9230760
688.6876, 0.9640500
689.1697, 1.337056
689.6518, 0.6929190
690.1339, 0.6159830
690.6160, 0.5183580
691.0981, 0.3516910
691.5803, 1.873040
692.0624, 1.393025
692.5445, 2.8763000E-02
693.0266, 1.620072
693.5087, 1.581890
693.9908, 0.7831240
694.4730, 7.6793000E-02
694.9551, 2.078675
695.4372, 3.612266
695.9193, 4.390501
696.4014, 4.592159
696.8835, 4.079703
697.3657, 3.205444
697.8478, 2.350274
698.3299, 1.538409
698.8120, 0.8208340
699.2941, 0.2157540
699.7762, 0.2841030
700.2584, 0.4476060
700.7405, 4.9261998E-02
701.2226, 0.2297260
701.7047, 0.8702310
702.1868, 2.540453
702.6689, 4.010525
703.1511, 5.014842
703.6332, 5.075205
704.1153, 4.317092
704.5974, 3.679316
705.0795, 3.942011
705.5616, 4.529342
706.0438, 4.505531
706.5259, 3.955753
707.0080, 3.319793
707.4901, 2.639445
707.9722, 2.335492
708.4543, 2.936278
708.9365, 4.419029
709.4186, 5.622285
709.9007, 6.447291
710.3828, 7.148213
710.8649, 7.900291
711.3470, 8.441420
711.8292, 8.487028
712.3113, 8.094789
712.7934, 7.501277
713.2755, 6.692139
713.7576, 6.059239
714.2397, 6.515382
714.7219, 7.836884
715.2040, 8.362379
715.6861, 7.665153
716.1682, 6.660708
716.6503, 5.998487
717.1324, 5.656322
717.6146, 5.514566
718.0967, 6.125644
718.5788, 6.125305
719.0609, 4.784898
719.5430, 3.302977
720.0251, 2.503737
720.5073, 2.289984
720.9894, 2.311229
721.4715, 2.427534
721.9536, 2.512703
722.4357, 2.378220
722.9178, 2.076576
723.4000, 1.866759
723.8821, 1.803371
724.3642, 1.566262
724.8463, 0.8797750
725.3284, 3.1902000E-02
725.8105, 0.4938310
726.2927, 0.2844590
726.7748, 0.2750760
727.2569, 0.4484180
727.7390, 7.3252998E-02
728.2211, 5.6655001E-02
728.7032, 0.1628380
729.1854, 0.1616050
729.6675, 1.061699
730.1496, 1.776657
730.6317, 1.145124
731.1138, 0.3497050
731.5959, 0.3327350
732.0781, 0.1301880
732.5602, 0.8383810
733.0423, 1.916471
733.5244, 2.802975
734.0065, 3.014379
734.4886, 2.407568
734.9708, 1.716776
735.4529, 0.6608860
735.9350, 0.2374660
736.4171, 0.2930830
736.8992, 6.7307003E-02
737.3813, 0.4088490
737.8635, 0.8004540
738.3456, 0.6685270
738.8277, 0.3775980
739.3098, 1.041630
739.7919, 1.291545
740.2740, 0.4851420
740.7562, 0.5646400
741.2383, 2.292737
741.7204, 3.856848
742.2025, 3.413091
742.6846, 1.259765
743.1667, 0.1574040
743.6489, 0.3200410
744.1310, 0.1637200
744.6131, 0.1611040
745.0952, 0.4593270
745.5773, 0.1854470
746.0594, 0.4585750
746.5416, 0.8204130
747.0237, 0.3051790
747.5058, 1.575061
747.9879, 1.002959
748.4700, 0.1779300
748.9521, 6.5300002E-04
749.4343, 0.8032760
749.9164, 2.399657
750.3985, 1.443050
750.8806, 0.6476480
751.3627, 0.4776820
751.8448, 2.318288
752.3270, 4.071140
752.8091, 2.452575
753.2912, 1.376565
753.7733, 3.513496
754.2554, 6.595467
754.7375, 7.175963
755.2197, 4.627313
755.7018, 2.086016
756.1839, 2.086823
756.6660, 3.457789
757.1481, 4.385581
757.6302, 4.883099
758.1124, 5.298797
758.5945, 5.783268
759.0766, 6.237786
759.5587, 6.568734
760.0408, 6.727163
760.5229, 7.305116
761.0051, 9.090528
761.4872, 10.08996
761.9693, 9.382022
762.4514, 8.410136
762.9335, 7.916077
763.4156, 8.046550
763.8978, 9.067996
764.3799, 11.64898
764.8620, 14.00376
765.3441, 14.24014
765.8262, 13.39947
766.3083, 13.46924
766.7905, 14.59979
767.2726, 15.72912
767.7547, 16.21226
768.2368, 16.29112
768.7189, 16.50392
769.2010, 16.88037
769.6832, 17.28093
770.1653, 17.69662
770.6474, 18.15000
771.1295, 18.78736
771.6116, 19.39758
772.0938, 19.67625
772.5759, 19.57332
773.0580, 19.42299
773.5401, 19.28566
774.0222, 19.21186
774.5043, 19.35566
774.9865, 19.56501
775.4686, 19.67845
775.9507, 19.59318
776.4328, 18.88397
776.9149, 16.84296
777.3970, 14.03281
777.8792, 13.36544
778.3613, 15.38865
778.8434, 16.50704
779.3255, 15.60725
779.8076, 14.12271
780.2897, 13.06155
780.7719, 12.41323
781.2540, 12.21597
781.7361, 13.54556
782.2182, 13.59015
782.7003, 10.01879
783.1824, 6.281759
783.6646, 5.653067
784.1467, 7.220459
784.6288, 8.081588
785.1109, 6.981998
785.5930, 5.060302
786.0751, 3.351101
786.5573, 1.911724
787.0394, 1.121180
787.5215, 1.000485
788.0036, 1.009257
788.4857, 0.9564710
788.9678, 0.8158060
789.4500, 0.6076240
789.9321, 0.3406820
790.4142, 0.1275620
790.8963, 0.3152210
791.3784, 0.3769580
791.8605, 0.8050950
792.3427, 1.871990
792.8248, 1.342675
793.3069, 0.5404680
793.7890, 1.507456
794.2711, 0.6953590
794.7532, 0.6610910
795.2354, 1.907776
795.7175, 1.9675000E-02
796.1996, 1.163235
796.6817, 1.366149
797.1638, 1.399992
797.6459, 1.658116
798.1281, 2.062981
798.6102, 2.446683
799.0923, 2.812221
799.5744, 3.137863
800.0565, 3.353219
800.5386, 3.643906
801.0208, 3.978959
801.5029, 4.467987
801.9850, 5.253294
802.4671, 6.344782
802.9492, 7.692108
803.4313, 9.428864
803.9135, 11.17820
804.3956, 12.75067
804.8777, 14.15221
805.3598, 15.37808
805.8419, 16.40860
806.3240, 17.31629
806.8062, 18.22636
807.2883, 19.06594
807.7704, 19.42311
808.2525, 19.34788
808.7346, 19.89701
809.2167, 21.35480
809.6989, 23.32158
810.1810, 25.74578
810.6631, 28.21910
811.1452, 29.49692
811.6273, 28.66363
812.1094, 28.72166
812.5916, 30.48182
813.0737, 32.19797
813.5558, 33.51150
814.0379, 34.17387
814.5200, 33.68292
815.0021, 32.05974
815.4843, 30.40048
815.9664, 29.84107
816.4485, 29.22781
816.9306, 26.55951
817.4127, 22.85727
817.8948, 21.28365
818.3770, 22.28024
818.8591, 22.52518
819.3412, 19.07213
819.8233, 13.52252
820.3054, 11.30353
820.7875, 13.30349
821.2697, 14.65188
821.7518, 15.03691
822.2339, 14.55161
822.7160, 12.52059
823.1981, 9.932792
823.6802, 8.675993
824.1624, 9.097781
824.6445, 9.386447
825.1266, 9.140966
825.6087, 8.724062
826.0908, 8.228482
826.5729, 7.738653
827.0551, 7.400054
827.5372, 7.202214
828.0193, 6.888274
828.5014, 6.089653
828.9835, 5.318150
829.4656, 5.905007
829.9478, 7.387468
830.4299, 7.221426
830.9120, 4.904603
831.3941, 3.235867
831.8762, 4.215641
832.3583, 6.709296
832.8404, 8.142011
833.3225, 8.152898
833.8046, 8.025356
834.2867, 7.698309
834.7689, 7.287173
835.2510, 6.748598
835.7331, 6.162392
836.2152, 5.520550
836.6973, 4.836143
837.1794, 4.521553
837.6616, 4.681136
838.1437, 5.279627
838.6258, 7.101063
839.1079, 8.915600
839.5900, 8.601448
840.0721, 6.318275
840.5543, 4.958311
841.0364, 6.779622
841.5185, 9.537597
842.0006, 9.048100
842.4827, 5.894692
842.9648, 3.984135
843.4470, 3.756420
843.9291, 3.777011
844.4112, 3.113467
844.8933, 2.238339
845.3754, 2.252868
845.8575, 3.311584
846.3397, 4.298340
846.8218, 5.442363
847.3039, 6.188167
847.7860, 6.184473
848.2681, 5.953001
848.7502, 6.070292
849.2324, 6.402671
849.7145, 6.195834
850.1966, 4.572717
850.6787, 3.270288
851.1608, 3.619061
851.6429, 4.491609
852.1251, 4.803020
852.6072, 4.549200
853.0893, 4.042489
853.5714, 3.626626
854.0535, 3.381692
854.5356, 3.616399
855.0178, 4.314145
855.4999, 5.137195
855.9820, 6.033691
856.4641, 5.763643
856.9462, 3.534898
857.4283, 1.813334
857.9105, 3.380249
858.3926, 7.638959
858.8747, 9.475926
859.3568, 7.081271
859.8389, 5.581133
860.3210, 6.157642
860.8032, 6.664145
861.2853, 5.800871
861.7674, 4.354645
862.2495, 3.801412
862.7316, 4.426740
863.2137, 5.118495
863.6959, 5.602049
864.1780, 5.907876
864.6601, 5.888410
865.1422, 5.775516
865.6243, 6.092701
866.1064, 6.900054
866.5886, 7.392314
867.0707, 6.898526
867.5528, 5.948900
868.0349, 5.177531
868.5170, 4.717923
868.9991, 5.083662
869.4813, 6.347442
869.9634, 7.457445
870.4455, 8.003339
870.9276, 7.849457
871.4097, 6.490791
871.8918, 3.558106
872.3740, 2.144519
872.8561, 3.035229
873.3382, 4.167192
873.8203, 5.760904
874.3024, 6.820717
874.7845, 5.988681
875.2667, 3.807665
875.7488, 2.605761
876.2309, 3.598799
876.7130, 4.275669
877.1951, 3.265384
877.6772, 2.005386
878.1594, 1.712081
878.6415, 2.150926
879.1236, 2.663968
879.6057, 3.020727
880.0878, 3.269938
880.5699, 3.679783
881.0521, 3.887233
881.5342, 2.670884
882.0163, 0.6041670
882.4984, 0.1192340
882.9805, 1.767582
883.4626, 3.825534
883.9448, 5.080968
884.4269, 5.530837
884.9090, 5.209568
885.3911, 3.895183
885.8732, 2.543421
886.3553, 0.8431360
886.8375, 3.0739999E-03
887.3196, 1.584442
887.8017, 3.553673
888.2838, 2.366737
888.7659, 0.7203890
889.2480, 3.595614
889.7302, 3.383069
890.2123, 2.452486
890.6944, 0.9447910
891.1765, 0.6786710
891.6586, 0.4010500
892.1407, 1.491120
892.6229, 2.262407
893.1050, 2.651159
893.5871, 3.005529
894.0692, 3.651699
894.5513, 4.315642
895.0334, 5.134093
895.5156, 5.622043
895.9977, 4.086744
896.4798, 0.3948190
896.9619, 1.026752
897.4440, 0.7378550
897.9261, 9.9628001E-02
898.4083, 2.221603
898.8904, 3.957171
899.3725, 4.435819
899.8546, 3.444692
900.3367, 1.979548
900.8188, 0.4408170
901.3010, 0.7885990
901.7831, 0.7086940
902.2652, 0.3839730
902.7473, 1.389836
903.2294, 2.231740
903.7115, 2.636690
904.1937, 2.208843
904.6758, 1.593562
905.1579, 1.465970
905.6400, 1.642604
906.1221, 1.309720
906.6042, 7.3411003E-02
907.0864, 0.4691680
907.5685, 0.1245910
908.0506, 0.1450300
908.5327, 0.4386280
909.0148, 0.7534130
909.4969, 0.3874310
909.9791, 0.1132410
910.4612, 0.3250290
910.9433, 1.755157
911.4254, 2.787116
911.9075, 1.271358
912.3896, 0.1552830
912.8718, 1.423754
913.3539, 1.519771
913.8360, 0.9729970
914.3181, 0.2325110
914.8002, 0.5845500
915.2823, 0.2440500
915.7645, 0.5974300
916.2466, 0.4103390
916.7287, 0.8578660
917.2108, 0.1307670
917.6929, 0.6098270
918.1750, 0.5291740
918.6572, 0.8928220
919.1393, 0.1630490
919.6214, 0.1978200
920.1035, 0.6223210
920.5856, 0.8114790
921.0677, 2.795739
921.5499, 4.006488
922.0320, 3.360937
922.5141, 1.804158
922.9962, 0.3039440
923.4783, 0.7858030
923.9604, 0.3448480
924.4426, 0.5198120
924.9247, 1.795681
925.4068, 8.2745001E-02
925.8889, 0.3188780
926.3710, 0.2995980
926.8531, 0.7033670
927.3353, 0.3778970
927.8174, 4.8765000E-02
928.2995, 0.1988760
928.7816, 1.150442
929.2637, 2.676887
929.7458, 2.744463
930.2280, 1.802208
930.7101, 0.5805310
931.1922, 0.5554620
931.6743, 0.7081910
932.1564, 1.006193
932.6385, 3.308858
933.1207, 3.779020
933.6028, 2.873621
934.0849, 2.758766
934.5670, 3.557078
935.0491, 3.678749
935.5313, 2.368980
936.0134, 0.7770360
936.4955, 0.3226500
936.9776, 0.9229600
937.4597, 1.943572
937.9418, 3.800963
938.4240, 4.142051
938.9061, 1.734962
939.3882, 0.3577800
939.8703, 0.2719690
940.3524, 2.197449
940.8345, 2.115828
941.3167, 0.8791340
941.7988, 0.3225070
942.2809, 1.344367
942.7630, 0.5765180
943.2451, 0.7187660
943.7272, 0.3414990
944.2094, 0.4957090
944.6915, 0.7786200
945.1736, 1.352950
945.6557, 0.8973910
946.1378, 0.5007500
946.6199, 0.2938280
947.1021, 0.1534480
947.5842, 1.448609
948.0663, 0.6419430
948.5484, 1.083655
949.0305, 1.374747
949.5126, 2.450475
949.9948, 2.055217
950.4769, 2.114413
950.9590, 3.645344
951.4411, 4.361901
951.9232, 3.798823
952.4053, 4.920566
952.8875, 3.034806
953.3696, 4.592984
953.8517, 5.225479
954.3338, 5.952571
954.8159, 6.522379
955.2980, 6.933133
955.7802, 7.264538
956.2623, 6.062124
956.7444, 8.564487
957.2265, 10.32059
957.7086, 11.37031
958.1907, 9.594596
958.6729, 11.46799
959.1550, 11.77896
959.6371, 12.02947
960.1192, 14.41683
960.6013, 13.05325
961.0834, 15.40869
961.5656, 16.28017
962.0477, 17.83112
962.5298, 17.91098
963.0119, 18.44562
963.4940, 20.77878
963.9761, 22.89924
964.4583, 24.59311
964.9404, 26.04477
965.4225, 26.72511
965.9046, 27.79226
966.3867, 30.64754
966.8688, 35.01112
967.3510, 38.96191
967.8331, 41.41833
968.3152, 44.85930
968.7973, 50.67165
969.2794, 56.65099
969.7615, 61.57524
970.2437, 65.64532
970.7258, 68.85677
971.2079, 71.55243
971.6900, 75.83013
972.1721, 84.24587
972.6542, 92.23293
973.1364, 95.30193
973.6185, 97.77742
974.1006, 104.6958
974.5827, 115.0846
975.0648, 125.9748
975.5469, 136.3487
976.0291, 146.5790
976.5112, 156.5397
976.9933, 166.7730
977.4754, 178.3920
977.9575, 190.7724
978.4396, 202.1176
978.9218, 212.6180
979.4039, 224.8990
979.8860, 240.3433
980.3681, 256.4909
980.8502, 270.4522
981.3323, 282.2545
981.8145, 292.0649
982.2966, 299.9938
982.7787, 306.2438
983.2608, 310.8206
983.7429, 314.4805
984.2250, 317.8108
984.7072, 320.9014
985.1893, 323.7110
985.6714, 326.1415
986.1535, 329.3907
986.6356, 333.3865
987.1177, 338.7408
987.5999, 345.3894
988.0820, 354.4681
988.5641, 367.4532
989.0462, 383.1692
989.5283, 397.2897
990.0104, 409.0257
990.4926, 422.2460
990.9747, 438.0920
991.4568, 453.2049
991.9389, 467.1980
992.4210, 479.3714
992.9031, 489.1702
993.3853, 496.5627
993.8674, 501.2384
994.3495, 503.3200
994.8316, 502.6198
995.3137, 498.8219
995.7958, 492.3360
996.2780, 482.3270
996.7601, 470.4975
997.2422, 458.3111
997.7243, 445.8999
998.2064, 433.0704
998.6885, 419.0248
999.1707, 406.0157
999.6528, 394.7084
1000.135, 384.5829
1000.617, 374.9560
1001.099, 366.5913
1001.581, 361.5637
1002.063, 359.8307
1002.545, 357.7932
1003.028, 353.2937
1003.510, 348.8071
1003.992, 345.8094
1004.474, 343.8294
1004.956, 343.0084
1005.438, 342.9036
1005.920, 343.1599
1006.402, 343.4937
1006.885, 342.4149
1007.367, 338.1529
1007.849, 333.1126
1008.331, 329.9725
1008.813, 327.2166
1009.295, 322.6563
1009.777, 316.3102
1010.259, 308.7168
1010.741, 300.3009
1011.224, 292.2172
1011.706, 284.7352
1012.188, 278.8667
1012.670, 276.7238
1013.152, 277.4302
1013.634, 279.4316
1014.116, 282.3243
1014.598, 285.0173
1015.081, 286.9068
1015.563, 289.4021
1016.045, 294.8770
1016.527, 301.9072
1017.009, 307.2907
1017.491, 311.0712
1017.973, 313.7615
1018.455, 315.3183
1018.937, 314.7464
1019.420, 311.5528
1019.902, 305.4277
1020.384, 295.8676
1020.866, 283.0240
1021.348, 266.7912
1021.830, 247.2550
1022.312, 227.4695
1022.794, 207.7905
1023.276, 189.5034
1023.759, 173.3428
1024.241, 158.3539
1024.723, 142.7722
1025.205, 126.7498
1025.687, 113.3712
1026.169, 102.8043
1026.651, 93.64334
1027.133, 85.84771
1027.616, 78.34975
1028.098, 70.21026
1028.580, 62.68695
1029.062, 58.45423
1029.544, 57.62466
1030.026, 55.30338
1030.508, 51.19387
1030.990, 46.50668
1031.473, 40.99715
1031.955, 36.01427
1032.437, 32.38040
1032.919, 29.81769
1033.401, 27.93565
1033.883, 26.89198
1034.365, 24.91307
1034.847, 21.34990
1035.329, 18.25797
1035.812, 15.88346
1036.294, 14.21526
1036.776, 13.56268
1037.258, 13.41211
1037.740, 12.71170
1038.222, 11.31383
1038.704, 10.32949
1039.186, 10.10735
1039.668, 9.744808
1040.151, 9.444686
1040.633, 8.582720
1041.115, 5.840160
1041.597, 2.626733
1042.079, 2.022177
1042.561, 4.613082
1043.043, 5.856771
1043.525, 4.106459
1044.008, 3.205308
1044.490, 5.380822
1044.972, 6.950730
1045.454, 4.582329
1045.936, 0.4904030
1046.418, 1.104844
1046.900, 0.3418820
1047.382, 1.367558
1047.865, 1.457579
1048.347, 1.159802
1048.829, 7.5030997E-02
1049.311, 0.8411350
1049.793, 0.7759990
1050.275, 0.2141060
1050.757, 7.0366003E-02
1051.239, 1.4810000E-03
1051.721, 0.5149160
1052.203, 1.726531
1052.686, 0.7138400
1053.168, 0.9569550
1053.650, 1.376246
1054.132, 0.6504600
1054.614, 5.4822002E-02
1055.096, 0.2093820
1055.578, 0.4089340
1056.060, 2.642148
1056.543, 3.534786
1057.025, 3.312058
1057.507, 0.8414320
1057.989, 1.426972
1058.471, 0.9702120
1058.953, 0.5286790
1059.435, 0.2274400
1059.917, 6.5400000E-03
1060.400, 1.915383
1060.882, 2.4369999E-03
1061.364, 1.069766
1061.846, 0.8819950
1062.328, 1.800910
1062.810, 5.1233001E-02
1063.292, 0.2495530
1063.774, 0.3213260
1064.256, 1.258281
1064.739, 0.6027650
1065.221, 2.275056
1065.703, 2.483217
1066.185, 1.032916
1066.667, 1.804117
1067.149, 2.217703
1067.631, 0.9709900
1068.113, 0.2267640
1068.595, 0.1438330
1069.078, 0.5918780
1069.560, 0.5908150
1070.042, 2.413781
1070.524, 2.394496
1071.006, 1.355395
1071.488, 0.8243170
1071.970, 1.896159
1072.452, 1.177646
1072.935, 0.2785610
1073.417, 3.835545
1073.899, 6.440352
1074.381, 7.409932
1074.863, 5.138098
1075.345, 2.515431
1075.827, 1.387861
1076.309, 1.117926
1076.792, 0.7272380
1077.274, 0.3228290
1077.756, 0.8888270
1078.238, 3.038929
1078.720, 4.701715
1079.202, 4.041411
1079.684, 3.581674
1080.166, 5.510228
1080.648, 8.027230
1081.130, 9.187288
1081.613, 9.109797
1082.095, 8.718891
1082.577, 8.205108
1083.059, 7.978670
1083.541, 8.453427
1084.023, 8.981135
1084.505, 9.216357
1084.987, 9.308355
1085.469, 8.994094
1085.952, 8.780427
1086.434, 10.07363
1086.916, 13.23592
1087.398, 15.41915
1087.880, 14.77788
1088.362, 13.74183
1088.844, 13.20130
1089.326, 13.01237
1089.809, 13.23886
1090.291, 13.62968
1090.773, 13.72322
1091.255, 13.46768
1091.737, 13.39968
1092.219, 14.61228
1092.701, 14.78502
1093.183, 11.48697
1093.666, 8.403421
1094.148, 8.885474
1094.630, 10.93138
1095.112, 11.30704
1095.594, 9.904072
1096.076, 9.156419
1096.558, 10.08197
1097.040, 11.10431
1097.522, 12.51649
1098.005, 12.97185
1098.487, 10.57812
1098.969, 7.582182
1099.451, 6.932984
1099.933, 8.210941
1100.415, 8.435893
1100.897, 6.219282
1101.379, 5.214418
1101.861, 8.009665
1102.344, 10.12959
1102.826, 9.496433
1103.308, 7.474350
1103.790, 4.486023
1104.272, 1.299330
1104.754, 7.7220000E-02
1105.236, 1.470256
1105.718, 2.369828
1106.201, 1.325338
1106.683, 0.9565110
1107.165, 3.116966
1107.647, 5.071025
1108.129, 4.113152
1108.611, 1.890380
1109.093, 1.860273
1109.575, 4.430966
1110.057, 5.701861
1110.540, 4.850612
1111.022, 3.668242
1111.504, 1.532261
1111.986, 6.5390997E-02
1112.468, 0.9237380
1112.950, 2.430543
1113.432, 2.106683
1113.914, 4.1198999E-02
1114.396, 0.2989400
1114.879, 4.7630999E-02
1115.361, 0.4226860
1115.843, 9.2797004E-02
1116.325, 0.3286400
1116.807, 0.6569490
1117.289, 0.3503320
1117.771, 0.5449820
1118.253, 0.4417760
1118.736, 0.1343400
1119.218, 9.3886003E-02
1119.700, 0.4602780
1120.182, 0.4440800
1120.664, 0.8480220
1121.146, 0.3480130
1121.628, 1.442360
1122.110, 0.4883610
1122.593, 0.1903100
1123.075, 0.3238970
1123.557, 1.117030
1124.039, 2.379674
1124.521, 1.993384
1125.003, 1.399610
1125.485, 0.7000150
1125.967, 0.6068230
1126.449, 1.633739
1126.932, 3.003372
1127.414, 3.792540
1127.896, 3.962820
1128.378, 3.829745
1128.860, 3.388807
1129.342, 2.519440
1129.824, 0.9193660
1130.306, 0.3900900
1130.788, 1.744991
1131.271, 3.391954
1131.753, 3.913928
1132.235, 3.742578
1132.717, 3.919887
1133.199, 4.425485
1133.681, 5.035071
1134.163, 5.810658
1134.645, 6.124415
1135.128, 5.838543
1135.610, 6.247245
1136.092, 8.205015
1136.574, 10.57965
1137.056, 11.37737
1137.538, 11.09900
1138.020, 11.12335
1138.502, 11.44414
1138.984, 11.99477
1139.467, 12.72327
1139.949, 13.70556
1140.431, 15.04556
1140.913, 16.64302
1141.395, 18.46779
1141.877, 20.35130
1142.359, 22.13575
1142.841, 23.73256
1143.323, 24.40817
1143.806, 24.78005
1144.288, 27.35812
1144.770, 32.07097
1145.252, 34.83530
1145.734, 32.72756
1146.216, 30.36346
1146.698, 32.81015
1147.180, 36.87829
1147.663, 39.28409
1148.145, 40.50169
1148.627, 41.11814
1149.109, 41.59600
1149.591, 42.97308
1150.073, 45.59418
1150.555, 47.93341
1151.037, 48.79884
1151.520, 49.60860
1152.002, 51.59653
1152.484, 53.61724
1152.966, 54.56274
1153.448, 54.77759
1153.930, 54.79448
1154.412, 54.89231
1154.894, 55.51389
1155.376, 57.00260
1155.859, 58.62527
1156.341, 61.06873
1156.823, 62.50177
1157.305, 61.55492
1157.787, 59.51148
1158.269, 57.63407
1158.751, 55.81404
1159.233, 53.39545
1159.715, 50.00708
1160.198, 46.97999
1160.680, 45.55109
1161.162, 42.86578
1161.644, 37.03301
1162.126, 31.54286
1162.608, 28.37364
1163.090, 26.67883
1163.572, 25.24273
1164.055, 24.03061
1164.537, 22.49405
1165.019, 20.44092
1165.501, 18.67718
1165.983, 17.23540
1166.465, 16.17766
1166.947, 15.61863
1167.429, 15.23473
1167.911, 14.82305
1168.394, 14.24164
1168.876, 13.05480
1169.358, 11.14999
1169.840, 9.578356
1170.322, 8.414571
1170.804, 7.361650
1171.286, 6.361840
1171.768, 6.045362
1172.250, 6.751542
1172.733, 7.619533
1173.215, 7.299596
1173.697, 6.312738
1174.179, 6.159940
1174.661, 6.531991
1175.143, 6.449384
1175.625, 5.919931
1176.107, 5.336559
1176.590, 4.858381
1177.072, 4.801915
1177.554, 5.389877
1178.036, 6.160392
1178.518, 7.241786
1179.000, 7.874351
1179.482, 6.000389
1179.964, 3.180115
1180.447, 2.316240
1180.929, 3.267963
1181.411, 4.269321
1181.893, 4.627180
1182.375, 4.655493
1182.857, 4.552032
1183.339, 4.141294
1183.821, 2.584972
1184.303, 1.434848
1184.786, 2.941494
1185.268, 5.006636
1185.750, 3.931021
1186.232, 0.3121590
1186.714, 0.8602560
1187.196, 2.418580
1187.678, 4.210079
1188.160, 1.687895
1188.642, 0.2340900
1189.125, 0.5706400
1189.607, 1.769625
1190.089, 1.967840
1190.571, 1.398144
1191.053, 2.2186000E-02
1191.535, 0.4110610
1192.017, 0.3140490
1192.499, 4.389708
1192.982, 6.076766
1193.464, 1.357847
1193.946, 3.7687998E-02
1194.428, 5.9408002E-02
1194.910, 2.452301
1195.392, 2.006827
1195.874, 7.3205002E-02
1196.356, 0.4523260
1196.839, 0.2858920
1197.321, 9.4780000E-03
1197.803, 2.702260
1198.285, 3.922363
1198.767, 3.296189
1199.249, 2.150397
1199.731, 1.094285
1200.213, 0.5980780
1200.695, 1.276946
1201.177, 2.474471
1201.660, 3.322655
1202.142, 3.777844
1202.624, 3.466462
1203.106, 2.786936
1203.588, 2.690633
1204.070, 3.270228
1204.552, 4.198142
1205.034, 5.424483
1205.517, 5.789481
1205.999, 3.928808
1206.481, 1.583265
1206.963, 0.6061730
1207.445, 0.9402930
1207.927, 0.2408930
1208.409, 1.224468
1208.891, 2.615717
1209.374, 2.622520
1209.856, 1.850577
1210.338, 0.4873190
1210.820, 0.2167860
1211.302, 3.054883
1211.784, 6.488445
1212.266, 5.538198
1212.748, 3.311131
1213.230, 1.310191
1213.713, 5.3178001E-02
1214.195, 0.2998890
1214.677, 2.423414
1215.159, 2.998043
1215.641, 1.572570
1216.123, 0.3803700
1216.605, 0.4576320
1217.087, 0.5898820
1217.569, 0.1841520
1218.052, 1.254390
1218.534, 2.163693
1219.016, 2.729164
1219.498, 2.309303
1219.980, 1.237124
1220.462, 1.029575
1220.944, 1.513954
1221.426, 2.107067
1221.909, 2.597169
1222.391, 2.367479
1222.873, 1.270860
1223.355, 0.4217180
1223.837, 0.7409450
1224.319, 1.516326
1224.801, 2.600242
1225.283, 3.215457
1225.766, 1.523087
1226.248, 0.5287760
1226.730, 7.8969002E-02
1227.212, 2.903913
1227.694, 4.439035
1228.176, 3.778857
1228.658, 2.897568
1229.140, 2.313905
1229.622, 1.812276
1230.104, 1.254037
1230.587, 0.8579570
1231.069, 0.8316000
1231.551, 0.9551230
1232.033, 0.6744840
1232.515, 0.3778880
1232.997, 1.738958
1233.479, 5.385204
1233.961, 7.418114
1234.444, 7.669905
1234.926, 6.852448
1235.408, 4.893678
1235.890, 2.722914
1236.372, 0.5897360
1236.854, 0.3280160
1237.336, 6.7189999E-02
1237.818, 1.793110
1238.301, 4.379757
1238.783, 6.919091
1239.265, 7.209700
1239.747, 5.425798
1240.229, 3.641118
1240.711, 2.280531
1241.193, 1.425972
1241.675, 1.527574
1242.157, 1.995026
1242.640, 2.570926
1243.122, 3.185307
1243.604, 4.215902
1244.086, 4.875715
1244.568, 3.731786
1245.050, 2.129593
1245.532, 2.517007
1246.014, 4.397506
1246.496, 4.475661
1246.979, 2.170310
1247.461, 0.7948430
1247.943, 0.9591020
1248.425, 1.543909
1248.907, 2.964883
1249.389, 4.134068
1249.871, 4.952113
1250.353, 4.772702
1250.836, 2.159287
1251.318, 0.8684170
1251.800, 1.661476
1252.282, 3.1516999E-02
1252.764, 1.438607
1253.246, 1.713795
1253.728, 1.573242
1254.210, 1.159320
1254.693, 1.260292
1255.175, 2.282022
1255.657, 3.112492
1256.139, 2.337080
1256.621, 1.545424
1257.103, 2.879508
1257.585, 5.049945
1258.067, 6.157173
1258.549, 6.405406
1259.031, 6.176775
1259.514, 5.713238
1259.996, 5.255033
1260.478, 4.872553
1260.960, 4.273386
1261.442, 2.517320
1261.924, 1.725912
1262.406, 3.035871
1262.888, 4.320601
1263.371, 4.399039
1263.853, 3.932610
1264.335, 3.332536
1264.817, 2.834650
1265.299, 3.168449
1265.781, 4.443979
1266.263, 4.715780
1266.745, 3.554239
1267.228, 3.558319
1267.710, 5.131735
1268.192, 6.439425
1268.674, 5.893222
1269.156, 5.334094
1269.638, 3.786206
1270.120, 2.184913
1270.602, 2.769147
1271.084, 4.139025
1271.567, 2.516791
1272.049, 0.2782680
1272.531, 0.2593580
1273.013, 1.835689
1273.495, 3.283904
1273.977, 3.353023
1274.459, 3.003135
1274.941, 2.331091
1275.423, 2.463157
1275.906, 5.554895
1276.388, 7.449449
1276.870, 4.408152
1277.352, 1.234932
1277.834, 2.195471
1278.316, 4.945022
1278.798, 5.588178
1279.280, 4.537135
1279.763, 3.332124
1280.245, 1.471992
1280.727, 0.3955620
1281.209, 0.2308700
1281.691, 0.1870940
1282.173, 0.1230150
1282.655, 0.1035010
1283.137, 8.9859001E-02
1283.620, 9.1110997E-02
1284.102, 8.4030004E-03
1284.584, 0.1578450
1285.066, 0.0000000E+00
##END=



