##NAMES=Elpidite
##RRUFFID=R060064
##IDEAL CHEMISTRY=Na_2_Zr^4+^Si_6_O_15_&#183;3H_2_O
##LOCALITY=Narsarsuk, Greenland
##OWNER=RRUFF
##SOURCE=University of Arizona Mineral Museum
##DESCRIPTION=Tan colored elongated prismatic crystals
##STATUS=The identification of this mineral has been confirmed by X-ray diffraction and chemical analysis
##URL=rruff.info/R060064
137.3443, 0.0000000E+00
137.8264, 0.2103270
138.3086, 1.170593
138.7907, 2.446289
139.2728, 3.187012
139.7549, 2.187439
140.2370, 1.906311
140.7191, 2.836243
141.2013, 4.490479
141.6834, 5.901428
142.1655, 6.718689
142.6476, 7.799255
143.1297, 8.828003
143.6118, 10.03406
144.0939, 12.59125
144.5761, 12.97833
145.0582, 11.59186
145.5403, 9.804626
146.0224, 7.738831
146.5045, 5.526733
146.9866, 3.515747
147.4688, 1.366516
147.9509, 0.2791750
148.4330, 0.3662110
148.9151, 1.420898
149.3972, 2.778503
149.8793, 1.330627
150.3615, 1.218079
150.8436, 2.730835
151.3257, 2.028931
151.8078, 2.7710000E-02
152.2899, 1.145874
152.7720, 1.034851
153.2542, 0.8713990
153.7363, 1.232056
154.2184, 1.874878
154.7005, 2.414490
155.1826, 2.529846
155.6647, 2.296082
156.1469, 2.523926
156.6290, 3.940491
157.1111, 5.119629
157.5932, 5.429810
158.0753, 5.181641
158.5574, 5.078308
159.0396, 5.763550
159.5217, 7.365967
160.0038, 8.561035
160.4859, 9.376465
160.9680, 9.838074
161.4501, 9.561707
161.9323, 8.779114
162.4144, 8.303162
162.8965, 9.031616
163.3786, 11.37000
163.8607, 13.28430
164.3428, 14.63745
164.8250, 15.70618
165.3071, 16.58502
165.7892, 17.31268
166.2713, 18.07098
166.7534, 19.24274
167.2355, 20.98480
167.7177, 21.82593
168.1998, 20.96924
168.6819, 19.35254
169.1640, 18.20355
169.6461, 17.83337
170.1282, 17.71442
170.6104, 16.98767
171.0925, 15.72760
171.5746, 15.06708
172.0567, 15.96741
172.5388, 17.86896
173.0209, 19.13965
173.5031, 19.43481
173.9852, 19.02075
174.4673, 18.06812
174.9494, 16.63367
175.4315, 15.24030
175.9136, 14.09027
176.3958, 13.19269
176.8779, 12.99475
177.3600, 14.22247
177.8421, 15.65405
178.3242, 16.79114
178.8063, 17.54376
179.2885, 17.78491
179.7706, 17.04639
180.2527, 14.84863
180.7348, 13.80328
181.2169, 15.46387
181.6990, 17.27850
182.1812, 17.71423
182.6633, 16.62842
183.1454, 15.10144
183.6275, 14.69708
184.1096, 16.09296
184.5917, 17.22931
185.0738, 18.25757
185.5560, 18.97516
186.0381, 18.99078
186.5202, 18.29877
187.0023, 17.49475
187.4844, 17.63306
187.9665, 19.81305
188.4487, 21.20221
188.9308, 21.07617
189.4129, 20.54431
189.8950, 20.66492
190.3771, 21.78278
190.8592, 23.45178
191.3414, 24.84406
191.8235, 25.99170
192.3056, 26.78735
192.7877, 27.12610
193.2698, 27.12689
193.7519, 26.81714
194.2341, 26.12811
194.7162, 25.41656
195.1983, 25.41779
195.6804, 26.30353
196.1625, 27.34918
196.6446, 28.49579
197.1268, 29.64618
197.6089, 30.47943
198.0910, 30.67206
198.5731, 30.85626
199.0552, 32.21637
199.5373, 35.02313
200.0195, 37.45422
200.5016, 37.80756
200.9837, 36.64758
201.4658, 36.99200
201.9479, 40.56506
202.4300, 45.23639
202.9122, 48.55066
203.3943, 50.38080
203.8764, 51.73975
204.3585, 53.35809
204.8406, 55.23792
205.3227, 57.05878
205.8048, 58.37872
206.2870, 59.88196
206.7691, 62.16486
207.2512, 65.21631
207.7333, 68.47418
208.2154, 71.41510
208.6975, 74.10645
209.1797, 76.17261
209.6618, 76.45331
210.1439, 76.79486
210.6260, 78.58746
211.1081, 81.95203
211.5902, 85.56616
212.0724, 87.68219
212.5545, 87.85187
213.0366, 87.79218
213.5187, 86.93048
214.0008, 86.38049
214.4829, 87.17224
214.9651, 89.35406
215.4472, 91.83813
215.9293, 92.96570
216.4114, 91.91858
216.8935, 91.13727
217.3756, 90.40436
217.8578, 90.03687
218.3399, 90.50446
218.8220, 91.79791
219.3041, 93.25647
219.7862, 93.83160
220.2683, 92.87262
220.7505, 92.24438
221.2326, 92.12244
221.7147, 92.17981
222.1968, 92.22620
222.6789, 92.19617
223.1610, 92.04834
223.6432, 91.71533
224.1253, 91.10352
224.6074, 90.46417
225.0895, 89.75079
225.5716, 89.03308
226.0537, 88.29309
226.5358, 87.53607
227.0180, 86.98914
227.5001, 87.12616
227.9822, 88.46735
228.4643, 88.72095
228.9464, 86.87628
229.4285, 84.26416
229.9107, 82.46100
230.3928, 81.85522
230.8749, 81.39203
231.3570, 79.41241
231.8391, 75.67419
232.3212, 73.09039
232.8034, 73.06799
233.2855, 74.09100
233.7676, 74.27515
234.2497, 73.24634
234.7318, 71.61609
235.2139, 69.66528
235.6961, 67.46356
236.1782, 66.02606
236.6603, 65.90100
237.1424, 66.60767
237.6245, 67.64453
238.1066, 69.15796
238.5888, 70.26666
239.0709, 69.77893
239.5530, 68.14093
240.0351, 66.60443
240.5172, 65.77460
240.9993, 65.27509
241.4815, 64.24719
241.9636, 62.31683
242.4457, 60.69482
242.9278, 60.53827
243.4099, 61.32562
243.8920, 62.04462
244.3742, 62.16260
244.8563, 61.94067
245.3384, 62.13342
245.8205, 63.16730
246.3026, 63.62134
246.7847, 62.80981
247.2668, 60.96216
247.7490, 58.23468
248.2311, 54.14075
248.7132, 49.49860
249.1953, 46.34601
249.6774, 45.28851
250.1595, 44.58337
250.6417, 43.61237
251.1238, 42.47955
251.6059, 41.35333
252.0880, 40.38892
252.5701, 39.37964
253.0522, 37.78180
253.5344, 35.50281
254.0165, 32.77966
254.4986, 29.37231
254.9807, 25.76447
255.4628, 22.36737
255.9449, 19.33044
256.4271, 16.77374
256.9092, 15.06671
257.3913, 14.78082
257.8734, 14.29724
258.3555, 12.82800
258.8376, 11.25885
259.3198, 10.55334
259.8019, 11.10248
260.2840, 12.24188
260.7661, 12.54163
261.2482, 11.45435
261.7303, 10.52887
262.2125, 9.936096
262.6946, 9.542114
263.1767, 9.359253
263.6588, 9.355957
264.1409, 9.277222
264.6230, 8.619507
265.1052, 6.979980
265.5873, 5.515564
266.0694, 3.808044
266.5515, 2.558411
267.0336, 2.508423
267.5157, 3.724731
267.9979, 5.470398
268.4800, 6.719666
268.9621, 7.521912
269.4442, 7.610291
269.9263, 6.412964
270.4084, 5.073242
270.8906, 4.301208
271.3727, 4.205872
271.8548, 4.490417
272.3369, 4.840515
272.8190, 5.365845
273.3011, 5.581177
273.7833, 4.733582
274.2654, 2.836015
274.7475, 4.592972
275.2296, 5.576047
275.7117, 5.826827
276.1938, 3.152005
276.6760, 4.254989
277.1581, 3.844000
277.6402, 3.370932
278.1223, 5.005627
278.6044, 2.756328
279.0865, 4.357599
279.5686, 4.421792
280.0508, 5.189465
280.5329, 4.433815
281.0150, 4.148673
281.4971, 5.387343
281.9792, 5.782266
282.4613, 4.851258
282.9435, 5.663648
283.4256, 3.361136
283.9077, 3.791996
284.3898, 5.402184
284.8719, 4.547769
285.3540, 1.096863
285.8362, 1.158997
286.3183, 1.902344
286.8004, 1.488403
287.2825, 0.4052730
287.7646, 1.205139
288.2467, 2.987549
288.7289, 3.664307
289.2110, 1.953918
289.6931, 0.8378300
290.1752, 0.9908450
290.6573, 1.868469
291.1394, 2.888184
291.6216, 3.903198
292.1037, 4.793579
292.5858, 5.220337
293.0679, 5.087219
293.5500, 4.432190
294.0321, 2.620911
294.5143, 0.5399780
294.9964, 0.8078610
295.4785, 1.139771
295.9606, 0.7701420
296.4427, 6.7993000E-02
296.9248, 1.124512
297.4070, 2.182800
297.8891, 2.954590
298.3712, 3.670776
298.8533, 4.624512
299.3354, 5.835754
299.8175, 7.040405
300.2997, 7.833069
300.7818, 7.985840
301.2639, 8.446289
301.7460, 9.764893
302.2281, 11.07019
302.7102, 11.75122
303.1924, 11.81122
303.6745, 11.58966
304.1566, 11.22998
304.6387, 10.79913
305.1208, 10.97424
305.6029, 11.83130
306.0851, 13.12335
306.5672, 14.99530
307.0493, 17.21814
307.5314, 19.21539
308.0135, 20.72113
308.4956, 21.73828
308.9778, 22.19159
309.4599, 21.68781
309.9420, 21.17657
310.4241, 21.32538
310.9062, 21.68335
311.3883, 21.14886
311.8705, 19.11096
312.3526, 16.47443
312.8347, 15.39355
313.3168, 16.41803
313.7989, 17.30231
314.2810, 17.61841
314.7632, 17.58459
315.2453, 17.30676
315.7274, 16.78088
316.2095, 16.50336
316.6916, 17.44006
317.1737, 20.16119
317.6559, 21.63232
318.1380, 20.38824
318.6201, 18.36157
319.1022, 17.58905
319.5843, 18.32025
320.0664, 19.21143
320.5485, 18.93402
321.0306, 17.35559
321.5128, 16.23346
321.9949, 15.96417
322.4770, 15.81531
322.9591, 15.24438
323.4412, 14.31299
323.9233, 13.48004
324.4055, 13.09259
324.8876, 13.07544
325.3697, 12.87427
325.8518, 12.31403
326.3339, 11.76215
326.8160, 11.37903
327.2982, 11.11627
327.7803, 10.84186
328.2624, 10.47986
328.7445, 10.07941
329.2266, 9.800232
329.7087, 9.873108
330.1909, 9.658997
330.6730, 8.711975
331.1551, 7.531921
331.6372, 6.944275
332.1193, 7.203064
332.6014, 7.524780
333.0836, 6.222798
333.5657, 6.171732
334.0478, 5.947506
334.5299, 5.560468
335.0120, 4.461668
335.4941, 4.328986
335.9763, 3.837811
336.4584, 3.351669
336.9405, 3.413665
337.4226, 2.523953
337.9047, 2.618618
338.3868, 2.349037
338.8690, 2.276033
339.3511, 1.842280
339.8332, 1.546834
340.3153, 1.653320
340.7974, 1.569139
341.2795, 1.173571
341.7617, 1.234898
342.2438, 0.5370706
342.7259, 0.5439622
343.2080, 0.8665651
343.6901, 0.1414790
344.1722, 0.4623297
344.6544, 0.8949721
345.1365, 1.133905
345.6186, 1.189538
346.1007, 0.5128599
346.5828, 0.7818084
347.0649, 0.6717924
347.5471, 0.5462357
348.0292, 0.9482763
348.5113, 0.3781121
348.9934, 0.4159390
349.4755, 0.8246934
349.9576, 1.039735
350.4398, 1.071471
350.9219, 0.3709023
351.4040, 0.6159610
351.8861, 0.4820539
352.3682, 0.3326093
352.8503, 0.7107587
353.3325, 0.1166984
353.8146, 0.4864810
354.2967, 0.4715189
354.7788, 0.6326437
355.2609, 0.4124664
355.7430, 0.3100598
356.2252, 0.5890754
356.7073, 0.6568964
357.1894, 0.3928250
357.6715, 0.5651432
358.1536, -4.2230472E-02
358.6357, 3.4586105E-02
359.1179, 0.4065965
359.5999, 0.5407710
360.0821, 0.7188110
360.5642, 0.7942810
361.0463, 0.8491210
361.5284, 0.8047180
362.0105, 0.5287480
362.4926, 7.5774997E-02
362.9748, 0.5271610
363.4569, 0.9050600
363.9390, 1.065460
364.4211, 0.8052670
364.9032, 0.2548830
365.3853, 0.2543950
365.8675, 0.4496770
366.3496, 0.3776860
366.8317, 0.1492411
367.3138, 0.6305467
367.7959, 0.9181393
368.2780, 1.022433
368.7602, 0.3944221
369.2423, 0.7120320
369.7244, 0.6506755
370.2065, 0.5737820
370.6886, 1.024482
371.1707, 0.5029768
371.6529, 0.9453200
372.1350, 1.002909
372.6171, 1.236584
373.0992, 1.088958
373.5813, 1.059102
374.0634, 1.410673
374.5456, 1.551054
375.0277, 1.359534
375.5098, 1.604403
375.9919, 0.4632570
376.4740, 0.4681090
376.9561, 0.8236390
377.4383, 0.7599490
377.9204, 0.6990360
378.4025, 0.8985290
378.8846, 1.255463
379.3667, 1.453461
379.8488, 1.397980
380.3310, 1.430511
380.8131, 1.870178
381.2952, 2.386810
381.7773, 2.575958
382.2594, 2.269531
382.7415, 1.929291
383.2237, 2.191650
383.7058, 3.051086
384.1879, 3.553253
384.6700, 3.102142
385.1521, 2.605103
385.6342, 2.953491
386.1164, 4.094879
386.5985, 5.224915
387.0806, 6.158905
387.5627, 6.733521
388.0448, 6.409027
388.5269, 4.935211
389.0091, 3.265320
389.4912, 1.973541
389.9733, 1.008331
390.4554, 0.3048710
390.9375, 0.2431640
391.4196, 0.4460140
391.9018, 0.1954040
392.3839, 0.2633360
392.8660, 1.211334
393.3481, 1.728455
393.8302, 1.837891
394.3123, 0.3238530
394.7945, 0.9015810
395.2766, 0.6383360
395.7587, 0.3385930
396.2408, 1.205109
396.7229, 8.3068997E-02
397.2050, 0.7607420
397.6872, 0.7507020
398.1693, 1.128784
398.6514, 0.6606750
399.1335, 0.4514470
399.6156, 1.084930
400.0977, 1.249054
400.5798, 0.6764220
401.0620, 1.068146
401.5441, 0.8149110
402.0262, 0.8380740
402.5083, 0.5758670
402.9904, 0.6699520
403.4725, 1.550201
403.9547, 2.149292
404.4368, 2.366089
404.9189, 2.183807
405.4010, 1.252441
405.8831, 0.5421750
406.3652, 2.445862
406.8474, 3.185730
407.3295, 2.177826
407.8116, 1.114532
408.2937, 0.2600100
408.7758, 1.280151
409.2579, 1.277771
409.7401, 0.5590520
410.2222, 0.2217410
410.7043, 1.236786
411.1864, 3.289063
411.6685, 3.616028
412.1506, 0.1284790
412.6328, 2.762329
413.1149, 2.665863
413.5970, 1.470123
414.0791, 1.005951
414.5612, 1.889252
415.0433, 3.275574
415.5255, 4.049316
416.0076, 4.293518
416.4897, 4.231812
416.9718, 2.870056
417.4539, 1.934143
417.9360, 2.542938
418.4182, 4.388977
418.9003, 6.249146
419.3824, 7.185364
419.8645, 7.417511
420.3466, 8.068054
420.8287, 9.519531
421.3109, 10.59622
421.7930, 10.68027
422.2751, 10.26083
422.7572, 9.756470
423.2393, 9.211456
423.7214, 8.867889
424.2036, 9.255524
424.6857, 10.33575
425.1678, 10.78970
425.6499, 10.00500
426.1320, 8.848236
426.6141, 8.019653
427.0963, 7.514374
427.5784, 7.341980
428.0605, 7.725189
428.5426, 8.386444
429.0247, 8.843597
429.5068, 9.040497
429.9890, 9.304840
430.4711, 10.06219
430.9532, 10.96765
431.4353, 10.97449
431.9174, 9.269012
432.3995, 7.840759
432.8817, 7.954071
433.3638, 8.978241
433.8459, 9.667358
434.3280, 9.601837
434.8101, 9.095551
435.2922, 8.526550
435.7744, 7.799469
436.2565, 7.473816
436.7386, 7.895386
437.2207, 8.457733
437.7028, 8.830139
438.1849, 8.965851
438.6671, 8.822144
439.1492, 8.311096
439.6313, 7.536346
440.1134, 7.156799
440.5955, 7.444672
441.0776, 7.811859
441.5598, 8.219635
442.0418, 8.669586
442.5240, 9.197906
443.0061, 9.801178
443.4882, 10.41156
443.9703, 10.93567
444.4524, 11.37335
444.9345, 11.73431
445.4167, 11.85822
445.8988, 12.06473
446.3809, 12.24194
446.8630, 12.60233
447.3451, 13.62228
447.8272, 15.68152
448.3094, 18.24872
448.7915, 19.87946
449.2736, 20.12305
449.7557, 20.81635
450.2378, 22.99265
450.7199, 25.41269
451.2021, 27.03580
451.6842, 27.78790
452.1663, 28.56461
452.6484, 30.40976
453.1305, 32.98801
453.6126, 34.74780
454.0948, 35.23370
454.5769, 35.80630
455.0590, 37.79285
455.5411, 40.55527
456.0232, 43.08789
456.5053, 44.99109
456.9875, 46.80640
457.4696, 48.89575
457.9517, 51.26355
458.4338, 54.04990
458.9159, 57.40958
459.3980, 60.97351
459.8802, 64.45801
460.3623, 67.89722
460.8444, 71.18207
461.3265, 74.23859
461.8086, 77.09393
462.2907, 79.61853
462.7729, 81.92380
463.2550, 84.58539
463.7371, 88.08789
464.2192, 92.11264
464.7013, 95.16492
465.1834, 96.75290
465.6656, 98.06595
466.1477, 99.17642
466.6298, 100.1321
467.1119, 100.9360
467.5940, 101.6429
468.0761, 102.4650
468.5583, 103.7208
469.0404, 105.4949
469.5225, 106.6694
470.0046, 107.1604
470.4867, 107.3191
470.9688, 107.3558
471.4510, 107.1283
471.9331, 106.3527
472.4152, 104.8718
472.8973, 102.9312
473.3794, 101.0338
473.8615, 99.28522
474.3437, 97.14264
474.8258, 94.67560
475.3079, 91.60254
475.7900, 87.55603
476.2721, 82.67340
476.7542, 77.55835
477.2364, 72.43182
477.7185, 67.39532
478.2006, 62.59695
478.6827, 58.05234
479.1648, 53.76572
479.6469, 49.53787
480.1291, 45.71219
480.6112, 42.94174
481.0933, 41.60394
481.5754, 40.35864
482.0575, 38.30957
482.5396, 35.94720
483.0217, 34.23911
483.5038, 33.39395
483.9860, 32.84253
484.4681, 32.06836
484.9502, 31.06067
485.4323, 30.07260
485.9144, 28.81653
486.3965, 27.87949
486.8787, 27.88986
487.3608, 28.31744
487.8429, 28.09778
488.3250, 26.80344
488.8071, 25.07626
489.2892, 24.01440
489.7714, 23.53409
490.2535, 23.98544
490.7356, 26.10721
491.2177, 28.31021
491.6998, 29.94931
492.1819, 30.98865
492.6641, 31.49127
493.1462, 31.40207
493.6283, 31.00494
494.1104, 31.09253
494.5925, 31.65521
495.0746, 32.73227
495.5568, 34.95874
496.0389, 37.26599
496.5210, 38.87479
497.0031, 39.74585
497.4852, 40.41464
497.9673, 41.48611
498.4495, 41.32388
498.9316, 44.15424
499.4137, 46.30011
499.8958, 47.79355
500.3779, 46.93570
500.8600, 48.91895
501.3422, 49.64548
501.8243, 50.24115
502.3064, 52.38443
502.7885, 51.43173
503.2706, 53.37494
503.7527, 54.04211
504.2349, 55.16904
504.7170, 55.03317
505.1991, 55.18182
505.6812, 56.42874
506.1633, 56.93704
506.6454, 56.33331
507.1276, 57.00006
507.6097, 56.48981
508.0918, 57.14874
508.5739, 57.92358
509.0560, 58.83423
509.5381, 59.48926
510.0203, 59.15201
510.5024, 59.43365
510.9845, 59.28357
511.4666, 58.72705
511.9487, 56.55753
512.4308, 56.51239
512.9130, 55.64673
513.3951, 54.72040
513.8772, 54.94745
514.3593, 53.01410
514.8414, 53.21082
515.3235, 51.99652
515.8057, 51.60022
516.2878, 50.71393
516.7699, 49.68091
517.2520, 48.88861
517.7341, 48.36111
518.2162, 47.82513
518.6984, 47.14355
519.1805, 46.38504
519.6626, 45.59009
520.1447, 44.76831
520.6268, 44.02405
521.1089, 43.34622
521.5911, 42.87802
522.0732, 42.99289
522.5553, 43.66803
523.0374, 44.75485
523.5195, 46.79623
524.0016, 48.88071
524.4838, 50.21179
524.9659, 50.79083
525.4480, 50.94702
525.9301, 50.73813
526.4122, 50.28601
526.8943, 50.74783
527.3765, 53.18005
527.8586, 55.27921
528.3407, 57.05640
528.8228, 58.21622
529.3049, 58.11362
529.7870, 57.02124
530.2692, 56.37512
530.7513, 57.79147
531.2334, 60.71585
531.7155, 61.97382
532.1976, 61.03857
532.6797, 59.75748
533.1619, 59.24539
533.6440, 58.60641
534.1261, 56.68234
534.6082, 53.20331
535.0903, 49.77249
535.5724, 47.39792
536.0546, 45.57208
536.5367, 43.54929
537.0188, 41.34653
537.5009, 38.95618
537.9830, 36.22772
538.4651, 33.30170
538.9473, 30.98535
539.4294, 29.74762
539.9115, 28.38132
540.3936, 26.41141
540.8757, 24.19232
541.3578, 22.03885
541.8400, 20.11478
542.3221, 18.69794
542.8042, 18.18109
543.2863, 18.57758
543.7684, 18.27325
544.2505, 16.41135
544.7326, 14.76791
545.2147, 13.60480
545.6968, 12.78775
546.1790, 12.46527
546.6611, 12.63608
547.1432, 12.92209
547.6253, 12.85321
548.1074, 12.33377
548.5895, 11.22144
549.0717, 9.176666
549.5538, 7.366882
550.0359, 6.771515
550.5180, 6.781555
551.0001, 6.459778
551.4822, 5.457062
551.9644, 4.618500
552.4465, 4.530762
552.9286, 4.968964
553.4107, 5.607574
553.8928, 6.394501
554.3749, 6.914948
554.8571, 6.730499
555.3392, 5.917725
555.8213, 5.420105
556.3034, 5.244476
556.7855, 4.963867
557.2676, 4.592377
557.7498, 4.152252
558.2319, 3.555695
558.7140, 2.826050
559.1961, 2.264130
559.6782, 2.262390
560.1603, 2.830505
560.6425, 3.255035
561.1246, 3.716614
561.6067, 3.734711
562.0888, 2.808899
562.5709, 1.594727
563.0530, 0.9089970
563.5352, 0.9664000
564.0173, 1.049744
564.4994, 0.2307130
564.9815, 1.067535
565.4636, 1.246399
565.9457, 6.5948002E-02
566.4279, 1.315125
566.9100, 1.356812
567.3921, 0.5245970
567.8742, 0.1260990
568.3563, 0.5686340
568.8384, 0.8665770
569.3206, 0.2718510
569.8027, 0.5448000
570.2848, 0.6986390
570.7669, 0.1115420
571.2490, 0.7162480
571.7311, 1.426117
572.2133, 2.023560
572.6954, 1.795258
573.1775, 0.5322880
573.6596, 1.853027
574.1417, 1.103668
574.6238, 0.2574770
575.1060, 0.9790040
575.5881, 0.9147340
576.0702, 0.7035830
576.5523, 0.8212890
577.0344, 1.205780
577.5165, 1.850708
577.9987, 2.980225
578.4808, 3.465942
578.9629, 2.305847
579.4450, 0.5809630
579.9271, 0.1322020
580.4092, 0.3270570
580.8914, 0.8143620
581.3735, 1.037598
581.8556, 0.9841310
582.3377, 0.3193660
582.8198, 0.7681270
583.3019, 1.148743
583.7841, 1.7914001E-02
584.2662, 1.869720
584.7483, 2.399841
585.2304, 0.1288450
585.7125, 1.142181
586.1946, 0.7473750
586.6768, 1.6449001E-02
587.1589, 0.1803280
587.6410, 1.8300000E-04
588.1231, 0.1494750
588.6052, 1.130768
589.0873, 2.390961
589.5695, 2.677582
590.0516, 1.847595
590.5337, 1.090973
591.0158, 0.7697750
591.4979, 0.4175110
591.9800, 0.7193300
592.4622, 2.306885
592.9443, 2.926331
593.4264, 1.192291
593.9085, 0.8113710
594.3906, 1.328949
594.8727, 0.7396850
595.3549, 1.4374000E-02
595.8370, 0.6602480
596.3191, 1.102814
596.8012, 1.194580
597.2833, 0.8720700
597.7654, 0.6405940
598.2476, 0.3177190
598.7297, 0.2778930
599.2118, 0.8358760
599.6939, 1.658783
600.1760, 2.422424
600.6581, 3.000977
601.1403, 3.257019
601.6224, 3.013641
602.1045, 2.280670
602.5866, 1.124298
603.0687, 0.9791260
603.5508, 2.330811
604.0330, 1.244232
604.5151, 0.7325130
604.9972, 1.609955
605.4793, 0.9970090
605.9614, 0.2003170
606.4435, 0.1789250
606.9257, 0.3291020
607.4078, 0.4946290
607.8899, 0.6976010
608.3720, 0.8800050
608.8541, 1.001801
609.3362, 1.081512
609.8184, 1.172852
610.3005, 1.133423
610.7826, 1.338531
611.2647, 2.592316
611.7468, 3.385468
612.2289, 2.123993
612.7111, 0.4409480
613.1932, 2.139862
613.6753, 1.621735
614.1574, 2.7710000E-02
614.6395, 0.7727050
615.1216, 0.5441280
615.6038, 0.3554380
616.0859, 0.2966000
616.5680, 0.4597470
617.0501, 1.180054
617.5322, 2.228790
618.0143, 2.780640
618.4965, 2.398010
618.9786, 1.774963
619.4607, 1.158722
619.9428, 0.6293640
620.4249, 0.3860170
620.9070, 0.4666750
621.3892, 0.6454470
621.8713, 0.6909180
622.3534, 0.6015320
622.8355, 0.5318300
623.3176, 0.4114380
623.7997, 0.5262760
624.2819, 1.474060
624.7640, 2.234344
625.2461, 1.631378
625.7282, 0.3047490
626.2103, 2.274353
626.6924, 3.393585
627.1745, 3.810608
627.6566, 3.866241
628.1387, 3.548828
628.6208, 2.663544
629.1030, 0.6779480
629.5851, 1.316650
630.0672, 1.412018
630.5493, 0.4736630
631.0314, 2.045319
631.5135, 2.902985
631.9957, 3.324799
632.4778, 3.561676
632.9599, 3.584686
633.4420, 3.213654
633.9241, 2.378754
634.4063, 1.074432
634.8884, 0.9707950
635.3705, 4.051880
635.8526, 5.410767
636.3347, 3.809631
636.8168, 2.131500
637.2990, 1.165497
637.7811, 0.7362060
638.2632, 0.8256840
638.7453, 1.437897
639.2274, 2.027435
639.7095, 2.230225
640.1917, 2.124451
640.6738, 1.731354
641.1559, 1.126770
641.6380, 0.8420410
642.1201, 1.112366
642.6022, 1.792816
643.0844, 2.665985
643.5665, 4.089691
644.0486, 5.014313
644.5307, 5.317352
645.0128, 5.252014
645.4949, 4.645081
645.9771, 3.845459
646.4592, 3.485809
646.9413, 3.819611
647.4234, 4.473297
647.9055, 4.866455
648.3876, 5.003021
648.8698, 5.739868
649.3519, 7.692657
649.8340, 8.888123
650.3161, 7.154694
650.7982, 4.126038
651.2803, 3.225189
651.7625, 5.409180
652.2446, 7.738464
652.7267, 9.341644
653.2088, 10.29443
653.6909, 10.29483
654.1730, 9.635010
654.6552, 9.529999
655.1373, 10.79959
655.6194, 12.79135
656.1015, 13.71503
656.5836, 12.77170
657.0657, 12.72403
657.5479, 14.72629
658.0300, 16.66803
658.5121, 17.62823
658.9942, 17.90735
659.4763, 18.11978
659.9584, 18.43283
660.4406, 18.98196
660.9227, 20.25873
661.4048, 21.75742
661.8869, 22.06808
662.3690, 20.86798
662.8511, 20.09296
663.3333, 21.32788
663.8154, 24.04755
664.2975, 25.95981
664.7796, 26.31323
665.2617, 26.86716
665.7438, 27.54605
666.2260, 28.53702
666.7081, 30.27747
667.1902, 32.42682
667.6723, 34.15826
668.1544, 35.03793
668.6365, 35.37885
669.1187, 35.49753
669.6008, 35.42157
670.0829, 35.86938
670.5650, 37.10892
671.0471, 38.16772
671.5292, 38.39316
672.0114, 38.08908
672.4935, 38.03738
672.9756, 38.01221
673.4577, 38.58218
673.9398, 40.09518
674.4219, 42.16031
674.9041, 44.93997
675.3862, 47.99100
675.8683, 49.92014
676.3504, 49.78372
676.8325, 48.46121
677.3146, 47.99237
677.7968, 48.48721
678.2789, 49.35458
678.7610, 51.05417
679.2431, 52.45737
679.7252, 52.83704
680.2073, 52.47974
680.6895, 51.82437
681.1716, 50.59140
681.6537, 49.97794
682.1358, 51.39145
682.6179, 53.49881
683.1000, 54.06155
683.5822, 53.09070
684.0643, 52.60095
684.5464, 54.11240
685.0285, 56.65012
685.5106, 57.15765
685.9927, 54.13666
686.4749, 52.70251
686.9570, 54.47751
687.4391, 56.45917
687.9212, 57.72919
688.4033, 58.18958
688.8854, 57.64685
689.3676, 55.90463
689.8497, 53.94763
690.3318, 52.31775
690.8139, 51.15521
691.2960, 50.88434
691.7781, 51.54312
692.2603, 52.65640
692.7424, 54.07678
693.2245, 55.41641
693.7066, 55.65845
694.1887, 53.79077
694.6708, 52.86334
695.1530, 53.97952
695.6351, 54.82938
696.1172, 52.62727
696.5993, 54.58631
697.0814, 55.82363
697.5635, 56.37797
698.0457, 54.20403
698.5278, 55.55313
699.0099, 55.49036
699.4920, 55.36968
699.9741, 57.21470
700.4562, 55.43748
700.9384, 57.25140
701.4205, 57.63174
701.9026, 58.66818
702.3847, 58.28397
702.8668, 58.33855
703.3489, 59.81420
703.8311, 60.50309
704.3132, 59.95530
704.7953, 61.03344
705.2774, 59.20663
705.7595, 59.92896
706.2416, 61.75108
706.7238, 61.27485
707.2059, 62.37892
707.6880, 62.88112
708.1701, 60.64786
708.6522, 63.17184
709.1343, 63.63843
709.6164, 61.99261
710.0985, 63.90909
710.5806, 66.57446
711.0627, 67.89722
711.5449, 66.32639
712.0270, 64.85907
712.5091, 65.14978
712.9912, 66.32327
713.4733, 67.02753
713.9554, 66.98395
714.4376, 66.99496
714.9197, 68.02347
715.4018, 69.66818
715.8839, 70.27988
716.3660, 69.73514
716.8481, 69.05081
717.3303, 68.46072
717.8124, 67.96448
718.2945, 67.53940
718.7766, 67.19110
719.2587, 67.02789
719.7408, 67.33691
720.2230, 67.50922
720.7051, 67.14154
721.1872, 66.60123
721.6693, 66.37262
722.1514, 66.47147
722.6335, 66.46951
723.1157, 65.94351
723.5978, 65.26468
724.0799, 65.72195
724.5620, 67.52234
725.0441, 68.23773
725.5262, 66.98755
726.0084, 65.30038
726.4905, 64.32059
726.9726, 63.93295
727.4547, 63.74146
727.9368, 64.08463
728.4189, 64.05835
728.9011, 62.54529
729.3832, 61.16327
729.8653, 62.15210
730.3474, 64.80682
730.8295, 66.30222
731.3116, 65.00421
731.7938, 62.38855
732.2759, 60.89978
732.7580, 60.55396
733.2401, 60.76682
733.7222, 62.03650
734.2043, 62.38821
734.6865, 60.00168
735.1686, 56.20584
735.6507, 53.87112
736.1328, 53.20148
736.6149, 53.28772
737.0970, 54.96786
737.5792, 56.39108
738.0613, 55.78851
738.5434, 54.07123
739.0255, 53.27228
739.5076, 54.04318
739.9897, 55.07587
740.4719, 54.76974
740.9540, 53.30914
741.4361, 51.94211
741.9182, 50.64337
742.4003, 49.61874
742.8824, 49.08029
743.3646, 48.70477
743.8467, 47.97073
744.3288, 46.88397
744.8109, 46.28815
745.2930, 46.78867
745.7751, 47.09479
746.2573, 46.76553
746.7394, 45.88928
747.2215, 44.29535
747.7036, 42.22903
748.1857, 40.62140
748.6678, 40.26501
749.1500, 40.63037
749.6321, 40.65103
750.1142, 40.33261
750.5963, 39.71243
751.0784, 38.71387
751.5605, 37.66074
752.0427, 36.77072
752.5248, 36.03979
753.0069, 35.40924
753.4890, 34.95135
753.9711, 34.47348
754.4532, 34.22635
754.9354, 33.70224
755.4175, 32.01459
755.8996, 29.82648
756.3817, 28.76056
756.8638, 29.56644
757.3459, 30.78751
757.8281, 30.82666
758.3102, 29.83209
758.7923, 28.05811
759.2744, 25.47430
759.7565, 23.75540
760.2386, 23.81104
760.7208, 24.73392
761.2029, 24.97095
761.6850, 24.41443
762.1671, 23.57532
762.6492, 21.96216
763.1313, 20.68472
763.6135, 20.48196
764.0956, 20.56378
764.5777, 19.88187
765.0598, 18.41431
765.5419, 17.24347
766.0240, 17.29309
766.5062, 17.83649
766.9883, 17.76523
767.4704, 17.33667
767.9525, 17.73303
768.4346, 19.23105
768.9167, 20.48911
769.3989, 20.25836
769.8810, 18.81558
770.3631, 17.89911
770.8452, 17.71753
771.3273, 17.60846
771.8094, 15.56616
772.2916, 17.11775
772.7737, 17.89554
773.2558, 17.94101
773.7379, 15.06087
774.2200, 15.95857
774.7021, 15.34227
775.1843, 14.66383
775.6664, 16.09324
776.1485, 13.63863
776.6306, 15.03458
777.1127, 14.89349
777.5948, 15.45585
778.0770, 14.49483
778.5591, 14.00439
779.0412, 15.03775
779.5233, 15.22735
780.0054, 14.09105
780.4875, 14.69813
780.9697, 12.19024
781.4518, 12.41581
781.9339, 12.67737
782.4160, 14.46161
782.8981, 15.54871
783.3802, 14.97919
783.8624, 14.02118
784.3445, 13.01266
784.8266, 12.17041
785.3087, 11.87128
785.7908, 12.01328
786.2729, 11.98703
786.7551, 11.34286
787.2372, 10.47858
787.7193, 10.28622
788.2014, 10.75903
788.6835, 11.03806
789.1656, 11.03137
789.6478, 10.76071
790.1299, 10.15005
790.6120, 9.348846
791.0941, 8.659271
791.5762, 8.046173
792.0583, 7.634186
792.5404, 7.760468
793.0225, 7.732056
793.5046, 6.927887
793.9868, 5.912964
794.4689, 5.474884
794.9510, 5.759644
795.4331, 6.282562
795.9152, 7.046051
796.3973, 7.565704
796.8795, 6.770203
797.3616, 4.922760
797.8437, 3.312958
798.3258, 2.247864
798.8079, 1.572388
799.2900, 1.222443
799.7722, 1.096497
800.2543, 0.6543270
800.7364, 0.2522890
801.2185, 1.180359
801.7006, 2.399994
802.1827, 3.322784
802.6649, 3.612213
803.1470, 3.414063
803.6291, 2.907715
804.1112, 2.035156
804.5933, 1.356384
805.0754, 1.431763
805.5576, 1.607727
806.0397, 1.212769
806.5218, 0.3710630
807.0039, 0.6532900
807.4860, 1.726807
807.9681, 2.483002
808.4503, 2.365845
808.9324, 1.617310
809.4145, 1.655792
809.8966, 2.646545
810.3787, 3.396393
810.8608, 3.627533
811.3430, 3.498627
811.8251, 3.074921
812.3072, 2.386078
812.7893, 1.680145
813.2714, 0.8433840
813.7535, 0.1600650
814.2357, 0.2835390
814.7178, 0.6019590
815.1999, 0.7697750
815.6820, 0.8900150
816.1641, 1.349426
816.6462, 2.302216
817.1284, 2.654388
817.6105, -0.5483097
818.0926, 1.266589
818.5747, 2.306646
819.0568, 2.613497
819.5389, -8.8950079E-03
820.0211, 1.151233
820.5032, 0.7954887
820.9853, 0.3775922
821.4674, 2.070080
821.9495, -0.1262536
822.4316, 1.532762
822.9138, 1.652807
823.3959, 2.477192
823.8780, 1.776365
824.3601, 0.4492800
824.8422, 1.811584
825.3243, 2.594238
825.8065, 2.584167
826.2886, 2.488708
826.7707, 2.720245
827.2528, 2.863037
827.7349, 2.469666
828.2170, 1.696899
828.6992, 0.8678890
829.1813, 0.1159970
829.6634, 0.4190370
830.1455, 0.5816650
830.6276, 0.4099730
831.1097, 8.1848003E-02
831.5919, 0.8816830
832.0740, 1.541473
832.5561, 1.983887
833.0382, 1.994812
833.5203, 1.192291
834.0024, 0.2289430
834.4846, 0.7805480
834.9667, 0.2806700
835.4488, 1.009857
835.9309, 1.095001
836.4130, 1.074463
836.8951, 1.284180
837.3773, 1.568573
837.8594, 1.729126
838.3415, 1.777344
838.8236, 1.236053
839.3057, 0.8459470
839.7878, 3.040588
840.2700, 4.031128
840.7521, 4.030609
841.2342, 3.343384
841.7163, 2.205963
842.1984, 1.488220
842.6805, 2.141449
843.1627, 3.620697
843.6448, 4.278015
844.1269, 4.095734
844.6090, 3.735931
845.0911, 3.250610
845.5732, 2.788513
846.0554, 2.313141
846.5375, 2.027283
847.0196, 2.566986
847.5017, 4.429901
847.9838, 5.985779
848.4659, 7.577545
848.9481, 8.480194
849.4302, 7.935394
849.9123, 6.826416
850.3944, 6.069061
850.8765, 5.827545
851.3586, 6.046967
851.8408, 7.106567
852.3229, 8.211487
852.8050, 8.640350
853.2871, 8.669678
853.7692, 8.801849
854.2513, 9.067047
854.7335, 9.039734
855.2156, 8.393677
855.6977, 7.744446
856.1798, 8.506897
856.6619, 10.61438
857.1440, 11.81705
857.6262, 11.82178
858.1083, 11.92816
858.5904, 12.81326
859.0725, 13.85962
859.5546, 14.11960
860.0367, 13.48404
860.5189, 13.37619
861.0010, 14.35632
861.4831, 15.14761
861.9652, 15.13287
862.4473, 15.23703
862.9294, 16.39273
863.4116, 18.22839
863.8937, 19.59244
864.3758, 20.03015
864.8579, 20.33914
865.3400, 20.87698
865.8221, 21.65085
866.3043, 22.74942
866.7864, 24.08273
867.2685, 25.47754
867.7506, 26.84973
868.2327, 28.02078
868.7148, 28.65860
869.1970, 29.03351
869.6791, 30.14441
870.1612, 31.98938
870.6433, 33.76813
871.1254, 35.28217
871.6075, 36.89444
872.0897, 38.91437
872.5718, 41.17358
873.0539, 43.14294
873.5360, 44.83316
874.0181, 46.19263
874.5002, 46.58893
874.9823, 47.34915
875.4644, 49.50662
875.9465, 52.02271
876.4286, 53.59564
876.9108, 54.17465
877.3929, 55.03375
877.8750, 57.20255
878.3571, 59.06049
878.8392, 59.13272
879.3214, 58.76544
879.8035, 59.73315
880.2856, 61.86826
880.7677, 63.90546
881.2498, 65.22675
881.7319, 66.07071
882.2141, 66.71127
882.6962, 67.01956
883.1783, 66.48721
883.6604, 65.24341
884.1425, 64.48502
884.6246, 64.69025
885.1068, 64.69296
885.5889, 63.12109
886.0710, 60.26498
886.5531, 58.29077
887.0352, 57.51163
887.5173, 56.68307
887.9995, 55.76727
888.4816, 54.52634
888.9637, 52.49161
889.4458, 50.07449
889.9279, 48.24814
890.4100, 47.32269
890.8922, 45.87296
891.3743, 42.77832
891.8564, 40.32083
892.3385, 39.89941
892.8206, 40.23547
893.3027, 40.11798
893.7849, 39.40738
894.2670, 38.35266
894.7491, 36.93182
895.2312, 35.48349
895.7133, 34.40732
896.1954, 33.48544
896.6776, 32.30151
897.1597, 31.04059
897.6418, 29.99847
898.1239, 29.28726
898.6060, 27.48544
899.0881, 28.98419
899.5703, 30.01968
900.0524, 30.62418
900.5345, 29.63345
901.0166, 30.82272
901.4987, 31.25159
901.9808, 31.65765
902.4630, 33.20285
902.9451, 32.56540
903.4272, 34.03696
903.9093, 34.62265
904.3914, 35.56204
904.8735, 35.64365
905.3557, 36.01318
905.8378, 37.23929
906.3199, 40.89069
906.8020, 43.15152
907.2841, 44.32578
907.7662, 45.02985
908.2484, 44.80695
908.7305, 44.61963
909.2126, 45.27127
909.6947, 46.06274
910.1768, 46.24255
910.6589, 45.98776
911.1411, 45.87341
911.6232, 46.11145
912.1053, 46.55133
912.5874, 47.15009
913.0695, 47.82639
913.5516, 48.63062
914.0338, 49.39197
914.5159, 49.52640
914.9980, 48.94415
915.4801, 48.21039
915.9622, 47.76447
916.4443, 47.45898
916.9265, 46.93213
917.4086, 46.18329
917.8907, 45.44928
918.3728, 44.79602
918.8549, 43.73117
919.3370, 41.77258
919.8192, 39.86200
920.3013, 39.45410
920.7834, 40.60477
921.2655, 40.83963
921.7476, 39.78391
922.2297, 38.45877
922.7119, 36.56613
923.1940, 34.87506
923.6761, 33.96619
924.1582, 33.54776
924.6403, 33.05872
925.1224, 32.48001
925.6046, 31.65454
926.0867, 30.24097
926.5688, 28.91333
927.0509, 28.39703
927.5330, 27.93521
928.0151, 26.28888
928.4973, 23.70053
928.9794, 21.78607
929.4615, 21.42538
929.9436, 21.73422
930.4257, 22.40421
930.9078, 22.98120
931.3900, 22.54428
931.8721, 21.39828
932.3542, 20.75470
932.8363, 20.97598
933.3184, 21.12512
933.8005, 20.14523
934.2827, 18.55551
934.7648, 17.93805
935.2469, 18.14145
935.7290, 17.49518
936.2111, 15.69104
936.6932, 14.19681
937.1754, 13.93350
937.6575, 14.28348
938.1396, 14.12830
938.6217, 13.43271
939.1038, 12.56979
939.5859, 11.20203
940.0681, 10.61346
940.5502, 11.58344
941.0323, 12.80399
941.5144, 13.29791
941.9965, 13.13278
942.4786, 12.55283
942.9608, 11.28687
943.4429, 10.18335
943.9250, 9.366730
944.4071, 8.610687
944.8892, 7.805328
945.3713, 7.024323
945.8535, 6.143738
946.3356, 5.285370
946.8177, 5.289520
947.2998, 7.531006
947.7819, 8.996857
948.2640, 7.273804
948.7462, 4.927582
949.2283, 4.430084
949.7104, 5.231293
950.1925, 5.868317
950.6746, 5.864655
951.1567, 5.315338
951.6389, 3.954926
952.1210, 2.387726
952.6031, 1.113922
953.0852, 0.3054200
953.5673, 0.7661440
954.0494, 2.251129
954.5316, 2.890289
955.0137, 1.638519
955.4958, 2.8259000E-02
955.9779, 0.3531800
956.4600, 2.221405
956.9421, 2.728302
957.4242, 1.906097
957.9063, 0.6869510
958.3884, 0.7532040
958.8705, 1.853485
959.3527, 2.120087
959.8348, 1.787811
960.3169, 1.520355
960.7990, 1.346375
961.2811, 1.078186
961.7632, 0.6973880
962.2454, 0.2325740
962.7275, 0.4931640
963.2096, 1.025757
963.6917, 0.7802120
964.1738, 0.1633000
964.6559, 0.9489140
965.1381, 2.077911
965.6202, 2.214935
966.1023, 0.2981260
966.5844, 1.426147
967.0665, 1.803375
967.5486, 1.530579
968.0308, 1.392792
968.5129, 1.461243
968.9950, 2.049896
969.4771, 3.496460
969.9592, 5.112305
970.4413, 7.047638
970.9235, 8.713654
971.4056, 9.231354
971.8877, 9.220673
972.3698, 10.11691
972.8519, 12.30597
973.3340, 14.20654
973.8162, 14.28470
974.2983, 14.37003
974.7804, 16.27512
975.2625, 18.94406
975.7446, 20.72336
976.2267, 21.71719
976.7089, 23.18469
977.1910, 25.73004
977.6731, 28.50027
978.1552, 30.63837
978.6373, 32.48764
979.1194, 34.61115
979.6016, 36.88226
980.0837, 38.85834
980.5658, 40.45081
981.0479, 41.75308
981.5300, 42.91290
982.0121, 43.88275
982.4943, 44.64664
982.9764, 45.22226
983.4585, 44.84348
983.9406, 43.56445
984.4227, 43.60403
984.9048, 45.72177
985.3870, 48.60733
985.8691, 51.22150
986.3512, 53.40784
986.8333, 54.50305
987.3154, 54.24060
987.7975, 55.33353
988.2797, 58.24808
988.7618, 61.24640
989.2439, 63.65439
989.7260, 65.79224
990.2081, 68.09439
990.6902, 70.44821
991.1724, 72.16974
991.6545, 72.89810
992.1366, 73.62100
992.6187, 74.53027
993.1008, 75.23917
993.5829, 75.43338
994.0651, 75.35989
994.5472, 75.51691
995.0293, 75.92645
995.5114, 75.77301
995.9935, 74.53107
996.4756, 73.47726
996.9578, 73.02307
997.4399, 72.53119
997.9220, 71.60489
998.4041, 70.42035
998.8862, 69.10815
999.3683, 67.68216
999.8505, 66.95749
1000.333, 67.72440
1000.815, 68.45471
1001.297, 68.52988
1001.779, 68.40781
1002.261, 68.83838
1002.743, 69.26208
1003.225, 68.32648
1003.707, 65.68356
1004.190, 63.13013
1004.672, 61.47433
1005.154, 60.32169
1005.636, 59.77844
1006.118, 59.31094
1006.600, 58.31888
1007.082, 56.79242
1007.564, 55.01422
1008.046, 53.07913
1008.529, 50.93628
1009.011, 48.08304
1009.493, 45.41699
1009.975, 44.11771
1010.457, 43.64478
1010.939, 43.06339
1011.421, 42.29453
1011.903, 41.69296
1012.385, 41.42700
1012.868, 41.35040
1013.350, 41.41864
1013.832, 41.53979
1014.314, 41.44080
1014.796, 41.21732
1015.278, 41.24188
1015.760, 41.52716
1016.242, 41.71109
1016.725, 41.60617
1017.207, 41.10150
1017.689, 39.90326
1018.171, 38.14206
1018.653, 36.15491
1019.135, 34.03894
1019.617, 32.53592
1020.099, 31.77115
1020.581, 30.50174
1021.064, 27.79831
1021.546, 24.48056
1022.028, 22.15308
1022.510, 20.66833
1022.992, 18.43631
1023.474, 15.48709
1023.956, 13.25992
1024.438, 12.01096
1024.921, 11.17865
1025.403, 10.37237
1025.885, 9.636383
1026.367, 9.176270
1026.849, 9.048065
1027.331, 8.223480
1027.813, 6.494080
1028.295, 5.256378
1028.777, 5.007446
1029.260, 4.919464
1029.742, 4.321655
1030.224, 3.394867
1030.706, 2.605988
1031.188, 1.864990
1031.670, 1.852112
1032.152, 3.011017
1032.634, 3.552734
1033.116, 2.703339
1033.599, 1.635040
1034.081, 1.436615
1034.563, 1.699188
1035.045, 1.021118
1035.527, 1.218201
1036.009, 2.190491
1036.491, 1.252777
1036.973, 0.2417300
1037.456, 0.7096250
1037.938, 1.070587
1038.420, 0.1170960
1038.902, 2.158112
1039.384, 2.598557
1039.866, 0.5875240
1040.348, 0.6516420
1040.830, 0.5859680
1041.313, 0.4912410
1041.795, 0.8839720
1042.277, 1.190979
1042.759, 0.5426940
1043.241, 0.5460510
1043.723, 0.3286130
1044.205, 0.1469120
1044.687, 0.9984440
1045.169, 1.418884
1045.651, 1.433319
1046.134, 0.1693420
1046.616, 0.3269040
1047.098, 1.6449001E-02
1047.580, 0.3963010
1048.062, 0.3920290
1048.544, 0.9706120
1049.026, 0.1981510
1049.508, 0.2767940
1049.991, 3.1891000E-02
1050.473, 0.5159610
1050.955, 0.8091580
1051.437, 0.2555240
1051.919, 1.337402
1052.401, 2.421509
1052.883, 3.118683
1053.365, 3.297028
1053.848, 2.464508
1054.330, 1.706635
1054.812, 1.299957
1055.294, 1.268250
1055.776, 1.865204
1056.258, 2.786911
1056.740, 3.278336
1057.222, 3.118332
1057.704, 3.106171
1058.187, 3.824020
1058.669, 4.272263
1059.151, 3.802490
1059.633, 3.092453
1060.115, 2.541534
1060.597, 2.275375
1061.079, 2.637558
1061.561, 3.800919
1062.043, 4.308487
1062.526, 1.837816
1063.008, 3.624407
1063.490, 4.636151
1063.972, 4.914693
1064.454, 2.263994
1064.936, 3.395801
1065.418, 3.011749
1065.900, 2.565543
1066.383, 4.229756
1066.865, 2.005108
1067.347, 3.635820
1067.829, 3.727539
1068.311, 4.523620
1068.793, 3.794478
1069.275, 3.536433
1069.757, 4.804089
1070.240, 5.226988
1070.722, 4.109482
1071.204, 2.924240
1071.686, 1.795746
1072.168, 1.589371
1072.650, 1.782776
1073.132, 2.207687
1073.614, 2.595200
1074.096, 2.432510
1074.578, 1.723541
1075.061, 1.329407
1075.543, 1.749374
1076.025, 2.319641
1076.507, 2.795898
1076.989, 3.213577
1077.471, 3.369003
1077.953, 3.607422
1078.435, 4.745514
1078.918, 6.641769
1079.400, 7.728714
1079.882, 7.003937
1080.364, 6.263611
1080.846, 6.378586
1081.328, 6.778046
1081.810, 7.203659
1082.292, 7.557678
1082.774, 7.589310
1083.257, 7.429718
1083.739, 7.791275
1084.221, 9.211929
1084.703, 10.27119
1085.185, 10.14464
1085.667, 9.632706
1086.149, 8.977203
1086.631, 8.437546
1087.114, 8.172714
1087.596, 8.261337
1088.078, 8.983643
1088.560, 10.65401
1089.042, 11.77980
1089.524, 11.00020
1090.006, 10.40831
1090.488, 11.85408
1090.970, 13.53125
1091.453, 12.86908
1091.935, 13.08874
1092.417, 13.04424
1092.899, 12.74959
1093.381, 11.45605
1093.863, 11.45240
1094.345, 10.93188
1094.827, 10.39007
1095.309, 10.56807
1095.792, 9.418962
1096.274, 9.585457
1096.756, 9.227195
1097.238, 9.109048
1097.720, 8.470840
1098.202, 7.993195
1098.684, 8.035974
1099.166, 7.795474
1099.649, 7.473124
1100.131, 7.129999
1100.613, 7.506555
1101.095, 6.556918
1101.577, 6.922064
1102.059, 6.762404
1102.541, 6.842913
1103.023, 6.289459
1103.505, 4.980270
1103.988, 3.814850
1104.470, 3.801605
1104.952, 4.202042
1105.434, 4.090546
1105.916, 3.546524
1106.398, 3.123398
1106.880, 1.292901
1107.362, 2.992203
1107.844, 3.916680
1108.327, 4.107790
1108.809, 1.369822
1109.291, 2.414338
1109.773, 1.943016
1110.255, 1.409517
1110.737, 2.986402
1111.219, 0.6744825
1111.701, 2.217899
1112.184, 2.222202
1112.666, 2.930986
1113.148, 2.114570
1113.630, 0.5465641
1114.112, 2.156728
1114.594, 3.089796
1115.076, 3.382183
1115.558, 1.114899
1116.041, 2.153025
1116.523, 1.866407
1117.005, 1.525489
1117.487, 3.028690
1117.969, 1.133705
1118.451, 2.607662
1118.933, 4.319031
1119.415, 4.605698
1119.897, 3.441895
1120.380, 2.298172
1120.862, 0.6695400
1121.344, 0.5063480
1121.826, 2.991455
1122.308, 4.488144
1122.790, 2.996231
1123.272, 1.153595
1123.754, 1.531860
1124.236, 3.468277
1124.719, 4.660583
1125.201, 4.927414
1125.683, 5.509140
1126.165, 6.701477
1126.647, 6.935379
1127.129, 5.464233
1127.611, 4.241241
1128.093, 4.630585
1128.576, 6.052505
1129.058, 7.587143
1129.540, 9.189804
1130.022, 9.777481
1130.504, 9.236221
1130.986, 9.027481
1131.468, 9.426590
1131.950, 9.580719
1132.432, 8.945985
1132.915, 9.947131
1133.397, 10.68312
1133.879, 11.16916
1134.361, 10.65612
1134.843, 11.43316
1135.325, 11.69314
1135.807, 11.93202
1136.289, 12.89052
1136.771, 12.52289
1137.254, 13.58353
1137.736, 13.68613
1138.218, 13.22400
1138.700, 12.39352
1139.182, 11.51599
1139.664, 11.98642
1140.146, 13.44388
1140.628, 14.13382
1141.111, 13.85706
1141.593, 13.91229
1142.075, 15.00513
1142.557, 15.77829
1143.039, 14.15076
1143.521, 11.65277
1144.003, 10.74390
1144.485, 10.97858
1144.968, 11.76337
1145.450, 12.77167
1145.932, 13.37003
1146.414, 13.39639
1146.896, 13.34036
1147.378, 13.61511
1147.860, 13.80173
1148.342, 13.42218
1148.824, 12.79239
1149.307, 12.29440
1149.789, 11.81979
1150.271, 10.92416
1150.753, 9.761780
1151.235, 9.233978
1151.717, 9.781708
1152.199, 10.65060
1152.681, 11.66711
1153.163, 12.56226
1153.646, 13.61966
1154.128, 14.08560
1154.610, 12.65836
1155.092, 10.15356
1155.574, 8.419952
1156.056, 7.816650
1156.538, 7.828125
1157.020, 9.169312
1157.503, 9.864441
1157.985, 8.916077
1158.467, 7.629333
1158.949, 6.643494
1159.431, 5.863647
1159.913, 5.151245
1160.395, 4.492401
1160.877, 3.872559
1161.359, 3.310486
1161.842, 2.710846
1162.324, 1.495697
1162.806, 0.9214286
1163.288, 1.081821
1163.770, 1.116213
1164.252, 1.031438
1164.734, 0.4704159
1165.216, 0.5243598
1165.698, 0.3318346
1166.181, 0.1289467
1166.663, 0.4941100
1167.145, 0.1331790
1167.627, 1.018280
1168.109, 1.576660
1168.591, 0.6803280
1169.073, 0.3382260
1169.555, 0.2067260
1170.037, 1.696747
1170.520, 1.670685
1171.002, 0.1821900
1171.484, 0.6927490
1171.966, 0.8762510
1172.448, 1.183258
1172.930, 1.816315
1173.412, 1.874512
1173.894, 0.6859440
1174.377, 0.6354060
1174.859, 0.1120300
1175.341, 1.408508
1175.823, 1.546204
1176.305, 0.6742250
1176.787, 0.2850040
1177.269, 1.086395
1177.751, 1.352936
1178.234, 0.9945980
1178.716, 0.4199220
1179.198, 0.2930910
1179.680, 0.5024410
1180.162, 1.132324
1180.644, 3.097961
1181.126, 3.318024
1181.608, 2.559204
1182.090, 2.322388
1182.573, 2.739563
1183.055, 2.961395
1183.537, 2.580475
1184.019, 2.237793
1184.501, 2.134430
1184.983, 2.346252
1185.465, 3.340057
1185.947, 4.300323
1186.429, 4.239197
1186.912, 3.725983
1187.394, 4.094910
1187.876, 5.422150
1188.358, 6.064819
1188.840, 4.845398
1189.322, 4.380768
1189.804, 5.876221
1190.286, 6.910370
1190.769, 5.994598
1191.251, 5.009979
1191.733, 5.612183
1192.215, 7.287506
1192.697, 8.854706
1193.179, 10.39435
1193.661, 11.01755
1194.143, 10.53616
1194.625, 9.752045
1195.108, 8.648010
1195.590, 7.784790
1196.072, 7.373199
1196.554, 7.637024
1197.036, 8.986298
1197.518, 10.91678
1198.000, 11.80682
1198.482, 11.76190
1198.964, 11.73630
1199.447, 11.77167
1199.929, 11.88019
1200.411, 12.04050
1200.893, 11.98944
1201.375, 11.56064
1201.857, 11.20645
1202.339, 11.48734
1202.821, 12.16116
1203.304, 12.94196
1203.786, 13.76044
1204.268, 14.55655
1204.750, 15.26581
1205.232, 15.72321
1205.714, 15.92239
1206.196, 16.06781
1206.678, 16.23740
1207.161, 16.45947
1207.643, 16.79617
1208.125, 17.13409
1208.607, 17.67056
1209.089, 17.95187
1209.571, 17.20026
1210.053, 15.90414
1210.535, 15.15930
1211.017, 15.11612
1211.500, 15.70728
1211.982, 17.65833
1212.464, 19.10947
1212.946, 19.65060
1213.428, 19.83710
1213.910, 19.78970
1214.392, 19.55444
1214.874, 19.03375
1215.356, 18.44733
1215.839, 18.54166
1216.321, 19.42981
1216.803, 19.81949
1217.285, 19.62994
1217.767, 19.46649
1218.249, 19.39594
1218.731, 19.82214
1219.213, 21.03940
1219.696, 21.82089
1220.178, 20.53564
1220.660, 18.43414
1221.142, 18.54517
1221.624, 20.26236
1222.106, 22.07257
1222.588, 23.57819
1223.070, 23.21759
1223.552, 21.14529
1224.035, 19.70123
1224.517, 20.01239
1224.999, 20.55554
1225.481, 19.80429
1225.963, 18.92078
1226.445, 19.26859
1226.927, 19.72852
1227.409, 19.01465
1227.891, 17.73062
1228.374, 17.02618
1228.856, 16.90988
1229.338, 16.64243
1229.820, 16.14590
1230.302, 14.95224
1230.784, 12.27240
1231.266, 9.765289
1231.748, 8.550476
1232.231, 7.935059
1232.713, 7.601959
1233.195, 7.262329
1233.677, 6.816772
1234.159, 6.204926
1234.641, 5.931458
1235.123, 6.091827
1235.605, 6.257263
1236.088, 6.508331
1236.570, 6.208557
1237.052, 5.054626
1237.534, 4.607544
1238.016, 5.984406
1238.498, 7.236420
1238.980, 5.129944
1239.462, 1.202576
1239.944, 0.6766660
1240.427, 0.8699650
1240.909, 0.2126160
1241.391, 1.890198
1241.873, 2.169769
1242.355, 0.8546140
1242.837, 0.3781740
1243.319, 0.6692810
1243.801, 0.4455870
1244.283, 0.3350220
1244.766, 1.074280
1245.248, 1.080139
1245.730, 1.031158
1246.212, 1.604797
1246.694, 2.635498
1247.176, 3.947418
1247.658, 5.411957
1248.140, 6.178772
1248.622, 5.221619
1249.105, 5.517212
1249.587, 8.720276
1250.069, 10.70334
1250.551, 9.939545
1251.033, 8.717682
1251.515, 8.211700
1251.997, 8.510223
1252.479, 9.961060
1252.962, 12.21085
1253.444, 13.02979
1253.926, 12.46570
1254.408, 12.97763
1254.890, 14.61734
1255.372, 16.06464
1255.854, 16.98462
1256.336, 17.76657
1256.818, 18.63446
1257.301, 18.98868
1257.783, 17.66278
1258.265, 16.03195
1258.747, 16.20877
1259.229, 17.05899
1259.711, 17.12537
1260.193, 16.60510
1260.675, 15.83264
1261.157, 15.09589
1261.640, 15.18552
1262.122, 16.58640
1262.604, 17.43842
1263.086, 16.38455
1263.568, 15.09247
1264.050, 15.64859
1264.532, 15.84937
1265.014, 13.92688
1265.497, 11.38870
1265.979, 9.257477
1266.461, 7.511383
1266.943, 6.982758
1267.425, 7.917328
1267.907, 7.779022
1268.389, 6.505127
1268.871, 6.146210
1269.354, 7.099579
1269.836, 7.441895
1270.318, 6.286591
1270.800, 4.738281
1271.282, 3.835358
1271.764, 3.284088
1272.246, 2.403656
1272.728, 1.689087
1273.210, 2.449188
1273.693, 3.810272
1274.175, 3.944305
1274.657, 3.072113
1275.139, 2.783875
1275.621, 3.474274
1276.103, 3.592316
1276.585, 1.560028
1277.067, 0.3631900
1277.549, 1.933167
1278.032, 3.349182
1278.514, 3.116333
1278.996, 2.141052
1279.478, 0.8148190
1279.960, 0.3576050
1280.442, 0.1417850
1280.924, 1.207123
1281.406, 2.328735
1281.889, 2.784943
1282.371, 3.273346
1282.853, 3.539886
1283.335, 2.726471
1283.817, 1.942993
1284.299, 1.675354
1284.781, 1.033997
1285.263, 0.4718320
1285.745, 0.1979980
1286.228, 0.0000000E+00
##END=



