##NAMES=Emmonsite
##RRUFFID=R060802
##IDEAL CHEMISTRY=Fe^3+^_2_(Te^4+^O_3_)_3_&#183;2H_2_O
##LOCALITY=Moctezuma mine, Moctezuma, Sonora, Mexico
##OWNER=RRUFF
##SOURCE=Michael Scott
##DESCRIPTION=Spray of green globular aggregates associated with pale yellow schmitterite, R060524
##STATUS=The identification of this mineral is confirmed by single-crystal X-ray diffraction and chemical analysis.
##URL=rruff.info/R060802
##MEASURED CHEMISTRY=(Fe^3+^_1.89_Al_0.11_)_Σ=2_(Te^4+^_1.00_O_3_)_3_·2.01H_2_O; H_2_O estimated by difference
147.4850, 0.0000000E+00
147.9671, 1.842529
148.4492, 1.099731
148.9313, 8.1542999E-02
149.4134, 2.495972
149.8955, 5.462402
150.3777, 13.74219
150.8598, 33.30444
151.3419, 52.82104
151.8240, 69.32397
152.3061, 82.31421
152.7882, 92.32190
153.2704, 100.0216
153.7525, 105.6053
154.2346, 107.5231
154.7167, 104.5743
155.1988, 99.99609
155.6809, 94.80371
156.1631, 89.37183
156.6452, 84.30530
157.1273, 80.42371
157.6094, 77.71143
158.0915, 76.50977
158.5736, 76.16235
159.0558, 77.55603
159.5379, 81.61096
160.0200, 88.89819
160.5021, 99.65308
160.9842, 113.8135
161.4663, 130.6998
161.9485, 150.7644
162.4306, 175.0797
162.9127, 202.1125
163.3948, 229.3285
163.8769, 255.6938
164.3590, 282.3691
164.8412, 311.1964
165.3233, 342.6592
165.8054, 374.1312
166.2875, 404.2456
166.7696, 433.1741
167.2517, 461.2180
167.7339, 488.0028
168.2160, 514.3408
168.6981, 540.7738
169.1802, 567.3395
169.6623, 593.9164
170.1444, 620.8185
170.6266, 648.6670
171.1087, 675.4915
171.5908, 700.1176
172.0729, 725.1355
172.5550, 753.7007
173.0371, 785.0648
173.5193, 815.8500
174.0014, 842.9700
174.4835, 863.2070
174.9656, 881.9529
175.4477, 904.8638
175.9298, 925.9373
176.4120, 937.6165
176.8941, 935.3828
177.3762, 925.0820
177.8583, 918.1464
178.3404, 918.8569
178.8225, 917.6316
179.3047, 912.5177
179.7868, 905.8253
180.2689, 899.7670
180.7510, 895.3741
181.2331, 892.6241
181.7152, 891.5092
182.1973, 895.8073
182.6795, 897.4443
183.1616, 895.0625
183.6437, 889.0936
184.1258, 880.7075
184.6079, 870.8199
185.0900, 858.7737
185.5722, 840.2637
186.0543, 816.9167
186.5364, 787.4058
187.0185, 749.8003
187.5006, 705.4496
187.9827, 657.1896
188.4649, 606.2638
188.9470, 552.8635
189.4291, 499.3113
189.9112, 443.2017
190.3933, 388.6978
190.8754, 338.7627
191.3576, 293.1265
191.8397, 251.0359
192.3218, 212.1904
192.8039, 176.8092
193.2860, 144.2878
193.7681, 114.3939
194.2503, 87.51379
194.7324, 64.12610
195.2145, 44.21936
195.6966, 27.22144
196.1787, 13.82849
196.6608, 2.931030
197.1430, 6.350220
197.6251, 14.25488
198.1072, 20.68835
198.5893, 25.30920
199.0714, 27.74951
199.5535, 29.30469
200.0357, 30.86743
200.5178, 31.88837
200.9999, 31.54370
201.4820, 29.23853
201.9641, 25.65607
202.4462, 22.65869
202.9284, 20.42883
203.4105, 18.52991
203.8926, 17.64844
204.3747, 16.74707
204.8568, 14.40405
205.3389, 8.082275
205.8211, 5.4931998E-02
206.3032, 7.420166
206.7853, 13.99365
207.2674, 19.68811
207.7495, 23.44067
208.2316, 26.57117
208.7138, 30.92371
209.1959, 37.65930
209.6780, 46.47308
210.1601, 55.03503
210.6422, 63.62085
211.1243, 71.63519
211.6065, 78.13159
212.0886, 84.07367
212.5707, 90.96234
213.0528, 99.75305
213.5349, 110.3011
214.0170, 121.1996
214.4992, 132.5115
214.9813, 144.0080
215.4634, 155.9791
215.9455, 168.0532
216.4276, 179.4876
216.9097, 189.6036
217.3918, 198.6641
217.8740, 209.1184
218.3561, 223.0229
218.8382, 235.8415
219.3203, 245.4349
219.8024, 252.4416
220.2845, 258.8381
220.7667, 265.8901
221.2488, 273.2750
221.7309, 279.3201
222.2130, 283.5868
222.6951, 287.1364
223.1772, 290.4583
223.6594, 293.5166
224.1415, 296.0714
224.6236, 297.8652
225.1057, 299.0759
225.5878, 300.4166
226.0699, 301.6312
226.5521, 303.2471
227.0342, 305.6188
227.5163, 308.7267
227.9984, 312.3389
228.4805, 316.3677
228.9626, 320.8911
229.4448, 325.8828
229.9269, 331.2192
230.4090, 337.1442
230.8911, 343.9698
231.3732, 351.6698
231.8553, 359.8625
232.3375, 368.6024
232.8196, 377.6661
233.3017, 386.6482
233.7838, 395.3779
234.2659, 404.3336
234.7480, 414.0575
235.2302, 424.6254
235.7123, 435.3528
236.1944, 446.3150
236.6765, 457.1763
237.1586, 467.6578
237.6407, 477.7122
238.1229, 487.3854
238.6050, 496.6628
239.0871, 505.4457
239.5692, 514.0886
240.0513, 522.7344
240.5334, 531.3054
241.0156, 539.8946
241.4977, 548.4645
241.9798, 556.6848
242.4619, 564.0295
242.9440, 570.3636
243.4261, 576.2972
243.9083, 582.6555
244.3904, 588.2031
244.8725, 592.1182
245.3546, 594.2446
245.8367, 594.9097
246.3188, 594.2990
246.8010, 591.9778
247.2831, 589.7000
247.7652, 588.0514
248.2473, 586.1543
248.7294, 583.4745
249.2115, 579.9352
249.6937, 575.8563
250.1758, 571.5566
250.6579, 566.7876
251.1400, 562.4197
251.6221, 558.1910
252.1042, 554.2817
252.5863, 550.4284
253.0685, 546.7463
253.5506, 543.9497
254.0327, 543.0889
254.5148, 544.9636
254.9969, 545.6907
255.4790, 545.0502
255.9612, 543.7986
256.4433, 542.0471
256.9254, 540.1465
257.4075, 538.6711
257.8896, 538.0698
258.3718, 538.1658
258.8539, 540.3926
259.3360, 546.3149
259.8181, 552.8286
260.3002, 558.0785
260.7823, 562.1838
261.2645, 566.5284
261.7466, 572.3777
262.2287, 579.9139
262.7108, 587.7977
263.1929, 595.7800
263.6750, 604.8049
264.1572, 615.7210
264.6393, 627.9224
265.1214, 639.7332
265.6035, 649.7921
266.0856, 657.9860
266.5677, 666.8246
267.0499, 678.5596
267.5320, 688.7814
268.0141, 695.1237
268.4962, 698.2721
268.9783, 700.6362
269.4604, 703.9593
269.9425, 707.9636
270.4247, 709.0598
270.9068, 706.7303
271.3889, 702.8247
271.8710, 698.4694
272.3531, 693.1058
272.8352, 685.3209
273.3174, 674.3228
273.7995, 660.3036
274.2816, 643.9322
274.7637, 624.7539
275.2458, 604.3927
275.7279, 583.3974
276.2101, 561.5298
276.6922, 538.2253
277.1743, 512.8615
277.6564, 486.5258
278.1385, 461.5038
278.6206, 438.2410
279.1028, 415.4014
279.5849, 392.2200
280.0670, 369.3695
280.5491, 348.0302
281.0312, 328.6669
281.5133, 310.6621
281.9955, 292.8601
282.4776, 275.0386
282.9597, 257.8546
283.4418, 240.7886
283.9239, 224.3922
284.4060, 209.6136
284.8882, 196.6956
285.3703, 185.0939
285.8524, 174.3756
286.3345, 164.4763
286.8166, 154.6815
287.2987, 144.8417
287.7809, 135.0632
288.2630, 125.1629
288.7451, 115.0371
289.2272, 105.7241
289.7093, 99.24969
290.1914, 95.39764
290.6736, 90.18567
291.1557, 81.58398
291.6378, 72.07251
292.1199, 64.32159
292.6020, 58.67566
293.0841, 53.96173
293.5663, 49.53656
294.0484, 45.37695
294.5305, 41.28705
295.0126, 36.78210
295.4947, 32.67188
295.9768, 29.87231
296.4590, 28.35706
296.9411, 27.00690
297.4232, 24.96893
297.9053, 22.65155
298.3874, 21.17938
298.8695, 20.61200
299.3517, 20.85760
299.8338, 22.02240
300.3159, 24.03406
300.7980, 26.37756
301.2801, 28.69043
301.7622, 31.34271
302.2444, 34.95105
302.7265, 39.76514
303.2086, 44.91925
303.6907, 49.88489
304.1728, 54.79767
304.6549, 60.11713
305.1371, 66.18842
305.6192, 72.50635
306.1013, 77.96405
306.5834, 82.30676
307.0655, 87.76843
307.5476, 96.38904
308.0298, 106.7915
308.5119, 115.5751
308.9940, 121.5539
309.4761, 126.9993
309.9582, 134.8497
310.4403, 144.7690
310.9225, 154.0832
311.4046, 161.1352
311.8867, 167.3834
312.3688, 175.3774
312.8509, 185.6977
313.3330, 196.0386
313.8152, 203.9226
314.2973, 210.0919
314.7794, 216.7483
315.2615, 225.1320
315.7436, 233.7728
316.2257, 240.8416
316.7079, 246.2845
317.1900, 251.6700
317.6721, 258.4609
318.1542, 265.6968
318.6363, 271.1957
319.1184, 274.4264
319.6006, 276.3065
320.0827, 277.7327
320.5648, 278.5646
321.0469, 277.6702
321.5290, 274.3048
322.0111, 268.9778
322.4933, 262.9957
322.9754, 256.3870
323.4575, 249.0983
323.9396, 241.1138
324.4217, 232.4073
324.9038, 222.9613
325.3860, 212.6915
325.8681, 201.7068
326.3502, 189.9910
326.8323, 177.4548
327.3144, 165.1831
327.7965, 153.8722
328.2787, 142.9615
328.7608, 131.4764
329.2429, 119.1677
329.7250, 106.8853
330.2071, 95.54791
330.6892, 85.03180
331.1714, 74.65302
331.6535, 64.06464
332.1356, 53.68634
332.6177, 44.05890
333.0998, 35.20990
333.5819, 26.74042
334.0641, 18.26324
334.5462, 10.05103
335.0283, 2.685547
335.5104, 3.635681
335.9925, 9.266785
336.4746, 14.15533
336.9568, 18.45374
337.4389, 22.83453
337.9210, 27.87915
338.4031, 32.95837
338.8852, 36.66174
339.3673, 38.80890
339.8495, 40.30524
340.3315, 41.41846
340.8137, 42.12354
341.2958, 42.29401
341.7779, 41.82568
342.2600, 41.05237
342.7421, 40.46893
343.2242, 40.12817
343.7064, 39.54211
344.1885, 38.53925
344.6706, 37.28162
345.1527, 36.14648
345.6348, 35.16949
346.1169, 33.58496
346.5991, 30.49255
347.0812, 25.77411
347.5633, 21.60760
348.0454, 18.57513
348.5275, 15.56470
349.0096, 11.75189
349.4918, 7.238586
349.9739, 2.789124
350.4560, 1.058411
350.9381, 4.529114
351.4202, 8.801208
351.9023, 14.50098
352.3845, 20.09448
352.8666, 24.91998
353.3487, 29.35431
353.8308, 33.98450
354.3129, 39.01941
354.7950, 44.54938
355.2772, 50.90234
355.7593, 58.72729
356.2414, 65.88214
356.7235, 71.63800
357.2056, 76.98151
357.6877, 82.87598
358.1699, 89.51257
358.6520, 96.38428
359.1341, 102.9398
359.6162, 109.0265
360.0983, 115.5194
360.5804, 122.5827
361.0626, 129.8452
361.5447, 137.4093
362.0268, 145.1088
362.5089, 152.3549
362.9910, 158.5837
363.4731, 164.0754
363.9553, 171.1920
364.4374, 181.9015
364.9195, 191.9122
365.4016, 199.9191
365.8837, 206.8243
366.3658, 213.9938
366.8480, 222.0120
367.3301, 230.2617
367.8122, 237.2939
368.2943, 241.3430
368.7764, 246.9429
369.2585, 254.5627
369.7407, 263.2677
370.2228, 272.5616
370.7049, 282.2637
371.1870, 292.2557
371.6691, 302.5112
372.1512, 313.1008
372.6334, 323.1707
373.1155, 331.1998
373.5976, 340.1611
374.0797, 351.5428
374.5618, 364.6960
375.0439, 378.2625
375.5261, 391.3932
376.0082, 404.1684
376.4903, 417.0442
376.9724, 429.4053
377.4545, 442.9149
377.9366, 458.2021
378.4188, 474.5280
378.9009, 491.1323
379.3830, 507.7294
379.8651, 524.7803
380.3472, 542.8931
380.8293, 562.6216
381.3115, 581.9872
381.7936, 599.5217
382.2757, 617.6940
382.7578, 638.4357
383.2399, 661.4395
383.7220, 684.5754
384.2042, 706.0750
384.6863, 726.1077
385.1684, 746.5099
385.6505, 768.0277
386.1326, 789.0959
386.6147, 809.1440
387.0969, 828.4565
387.5790, 847.6611
388.0611, 867.5479
388.5432, 886.9195
389.0253, 903.1740
389.5074, 915.5192
389.9896, 928.5706
390.4717, 945.7071
390.9538, 963.0851
391.4359, 977.1323
391.9180, 987.2664
392.4001, 996.2747
392.8823, 1006.720
393.3644, 1017.911
393.8465, 1026.841
394.3286, 1032.849
394.8107, 1036.698
395.2928, 1038.608
395.7750, 1038.861
396.2571, 1038.510
396.7392, 1038.310
397.2213, 1037.777
397.7034, 1036.024
398.1855, 1033.012
398.6677, 1029.615
399.1498, 1026.782
399.6319, 1023.727
400.1140, 1018.789
400.5961, 1011.349
401.0782, 1002.933
401.5604, 994.0416
402.0425, 984.8505
402.5246, 975.8857
403.0067, 967.4763
403.4888, 958.8365
403.9709, 948.5391
404.4531, 936.4210
404.9352, 925.0061
405.4173, 914.9131
405.8994, 905.4409
406.3815, 896.0609
406.8636, 886.7388
407.3458, 877.6338
407.8279, 869.0469
408.3100, 860.8068
408.7921, 851.5749
409.2742, 840.8019
409.7563, 829.8273
410.2385, 818.5491
410.7206, 807.5541
411.2027, 797.9553
411.6848, 790.2318
412.1669, 783.9836
412.6490, 778.4767
413.1311, 774.4502
413.6133, 769.9454
414.0954, 764.1943
414.5775, 758.5504
415.0596, 754.4271
415.5417, 751.6628
416.0238, 748.6058
416.5060, 743.5558
416.9881, 736.4559
417.4702, 730.4966
417.9523, 726.6982
418.4344, 722.9305
418.9165, 717.9586
419.3987, 712.9302
419.8808, 709.5858
420.3629, 708.7779
420.8450, 709.5186
421.3271, 709.8248
421.8092, 709.5715
422.2914, 709.1925
422.7735, 708.2827
423.2556, 707.6086
423.7377, 707.4490
424.2198, 707.9363
424.7019, 709.3155
425.1841, 712.0057
425.6662, 715.9007
426.1483, 719.8934
426.6304, 724.0469
427.1125, 728.1862
427.5946, 731.9340
428.0768, 735.7093
428.5589, 740.0839
429.0410, 745.2457
429.5231, 751.1484
430.0052, 758.2453
430.4873, 766.5950
430.9695, 773.8485
431.4516, 779.0701
431.9337, 783.0709
432.4158, 786.5765
432.8979, 789.5840
433.3800, 793.1061
433.8622, 798.9714
434.3443, 805.2814
434.8264, 808.3665
435.3085, 807.6321
435.7906, 805.6539
436.2727, 804.2466
436.7549, 803.0924
437.2370, 800.9242
437.7191, 797.4966
438.2012, 793.2410
438.6833, 788.4920
439.1654, 783.0647
439.6476, 776.4950
440.1297, 768.6138
440.6118, 759.4872
441.0939, 749.0919
441.5760, 736.9379
442.0581, 724.7747
442.5403, 711.6562
443.0224, 699.2892
443.5045, 689.6163
443.9866, 682.2646
444.4687, 675.1315
444.9508, 666.5947
445.4330, 656.8282
445.9151, 647.1841
446.3972, 639.1484
446.8793, 629.5740
447.3614, 615.7078
447.8435, 600.9905
448.3257, 589.7343
448.8078, 583.1997
449.2899, 578.7319
449.7720, 572.3248
450.2541, 563.1980
450.7362, 554.8521
451.2184, 548.4808
451.7005, 541.6318
452.1826, 532.5876
452.6647, 522.3378
453.1468, 513.1314
453.6289, 506.6045
454.1111, 501.5501
454.5932, 494.8020
455.0753, 485.7867
455.5574, 476.6779
456.0395, 468.1665
456.5216, 459.8288
457.0038, 451.3842
457.4859, 442.6882
457.9680, 434.1546
458.4501, 426.1982
458.9322, 418.7386
459.4143, 411.2938
459.8965, 403.6425
460.3786, 395.9861
460.8607, 388.3358
461.3428, 380.9116
461.8249, 374.2451
462.3070, 368.4994
462.7892, 363.4011
463.2713, 358.7522
463.7534, 354.6445
464.2355, 351.5499
464.7176, 349.8091
465.1997, 348.7319
465.6819, 346.9738
466.1640, 344.2101
466.6461, 341.8517
467.1282, 340.3419
467.6103, 339.1527
468.0924, 337.8508
468.5746, 336.4949
469.0567, 335.3169
469.5388, 334.4636
470.0209, 333.9629
470.5030, 333.9928
470.9851, 335.8838
471.4673, 336.6621
471.9494, 335.3849
472.4315, 333.0398
472.9136, 330.4060
473.3957, 327.8297
473.8778, 325.6012
474.3600, 324.2249
474.8421, 323.9033
475.3242, 322.7721
475.8063, 320.5173
476.2884, 317.6966
476.7705, 314.2906
477.2527, 310.4525
477.7348, 306.5084
478.2169, 302.6982
478.6990, 298.5739
479.1811, 293.3881
479.6632, 287.0298
480.1454, 280.0093
480.6275, 271.9308
481.1096, 263.6891
481.5917, 256.1921
482.0738, 249.3563
482.5559, 242.1684
483.0380, 233.9747
483.5201, 225.1492
484.0023, 216.1083
484.4844, 206.8459
484.9665, 198.1712
485.4486, 190.7290
485.9307, 184.1201
486.4128, 177.2180
486.8950, 170.4393
487.3771, 162.6338
487.8592, 152.0671
488.3413, 140.8154
488.8234, 131.8230
489.3055, 125.5435
489.7877, 120.2552
490.2698, 114.3982
490.7519, 107.9260
491.2340, 101.2719
491.7161, 94.13739
492.1982, 87.11731
492.6804, 79.82715
493.1625, 72.89362
493.6446, 67.47614
494.1267, 63.92676
494.6088, 60.99127
495.0909, 56.48102
495.5731, 49.61810
496.0552, 43.65546
496.5373, 39.19556
497.0194, 35.09357
497.5015, 30.80920
497.9836, 26.56256
498.4658, 22.95221
498.9479, 20.42816
499.4300, 18.48737
499.9121, 16.15460
500.3942, 13.45099
500.8763, 10.39392
501.3585, 6.419861
501.8406, 2.607544
502.3227, 1.0437000E-02
502.8048, 1.456665
503.2869, 2.844299
503.7690, 4.991791
504.2512, 7.280701
504.7333, 8.480286
505.2154, 8.566711
505.6975, 8.937256
506.1796, 10.53290
506.6617, 12.91977
507.1439, 14.75336
507.6260, 16.18155
508.1081, 16.99466
508.5902, 16.61191
509.0723, 15.84589
509.5544, 15.73831
510.0366, 16.40286
510.5187, 17.15533
511.0008, 17.32660
511.4829, 16.91278
511.9650, 16.69662
512.4471, 16.96359
512.9293, 17.07697
513.4114, 16.84036
513.8935, 16.42352
514.3756, 15.91409
514.8577, 15.37750
515.3398, 15.10242
515.8220, 15.76996
516.3041, 17.57101
516.7862, 18.04507
517.2683, 16.19989
517.7504, 14.30408
518.2325, 13.46667
518.7147, 13.22980
519.1968, 12.78470
519.6789, 11.77509
520.1610, 10.67285
520.6431, 9.994415
521.1252, 9.701843
521.6074, 9.602936
522.0895, 9.875275
522.5716, 9.863708
523.0537, 8.562012
523.5358, 6.165070
524.0179, 4.054169
524.5001, 2.291443
524.9822, 1.028290
525.4643, 0.5866700
525.9464, 0.7609560
526.4285, 0.9779360
526.9106, 1.009247
527.3928, 0.8869320
527.8749, 0.7058720
528.3570, 0.7427670
528.8391, 2.6860000E-03
529.3212, 2.382446
529.8033, 4.619080
530.2855, 5.580505
530.7676, 5.617706
531.2497, 5.731873
531.7318, 6.516388
532.2139, 7.735870
532.6960, 8.752533
533.1782, 9.433777
533.6603, 10.28394
534.1424, 12.04013
534.6245, 13.47556
535.1066, 13.46173
535.5887, 12.31461
536.0709, 11.59927
536.5530, 12.55942
537.0351, 14.36670
537.5172, 15.48660
537.9993, 15.89331
538.4814, 16.18683
538.9636, 16.55212
539.4457, 16.99393
539.9278, 17.53839
540.4099, 18.21939
540.8920, 18.80072
541.3741, 18.94131
541.8563, 19.13223
542.3384, 19.96643
542.8205, 21.38217
543.3026, 22.86484
543.7847, 24.12119
544.2668, 25.14090
544.7490, 25.88605
545.2311, 26.57126
545.7132, 26.62720
546.1953, 24.91351
546.6774, 23.43628
547.1595, 24.05386
547.6417, 26.49661
548.1238, 28.95172
548.6059, 30.03403
549.0880, 30.05914
549.5701, 30.24435
550.0522, 30.56686
550.5344, 31.11963
551.0165, 32.31085
551.4986, 33.50195
551.9807, 34.12137
552.4628, 34.14670
552.9449, 34.14609
553.4271, 34.58340
553.9092, 35.16269
554.3913, 35.20166
554.8734, 34.66776
555.3555, 34.49136
555.8376, 35.31421
556.3198, 36.70877
556.8019, 37.57703
557.2840, 37.84503
557.7661, 37.89334
558.2482, 37.55994
558.7303, 37.20248
559.2125, 37.03003
559.6946, 37.11923
560.1767, 37.67044
560.6588, 38.91653
561.1409, 40.54333
561.6230, 41.12698
562.1052, 39.60687
562.5873, 38.83646
563.0694, 39.82907
563.5515, 41.02127
564.0336, 41.06985
564.5157, 40.05673
564.9979, 39.21710
565.4800, 39.76825
565.9621, 40.93869
566.4442, 40.44431
566.9263, 37.97729
567.4084, 36.12814
567.8906, 36.19989
568.3727, 37.00687
568.8548, 37.11548
569.3369, 36.56277
569.8190, 35.50616
570.3011, 33.43317
570.7833, 31.23218
571.2654, 29.93011
571.7475, 29.43204
572.2296, 29.06290
572.7117, 28.53717
573.1938, 27.68378
573.6760, 25.99213
574.1581, 22.15753
574.6402, 19.84219
575.1223, 20.47382
575.6044, 21.50296
576.0865, 21.41864
576.5687, 20.34549
577.0508, 19.07730
577.5329, 18.06790
578.0150, 17.25751
578.4971, 16.50949
578.9792, 15.82071
579.4614, 15.02908
579.9435, 14.06320
580.4256, 13.00049
580.9077, 11.96616
581.3898, 11.02747
581.8719, 10.15259
582.3541, 9.142700
582.8362, 8.301666
583.3183, 8.244324
583.8004, 8.613922
584.2825, 8.070038
584.7646, 6.092194
585.2468, 3.592010
585.7289, 1.628296
586.2110, 0.2085270
586.6931, 0.5266720
587.1752, 6.2531002E-02
587.6573, 0.7758180
588.1394, 1.093384
588.6215, 1.104309
589.1036, 0.9937130
589.5858, 0.8753660
590.0679, 0.9045100
590.5500, 1.389526
591.0321, 2.409698
591.5142, 2.852264
591.9963, 2.483429
592.4785, 1.920288
592.9606, 1.032654
593.4427, 0.1803590
593.9248, 4.9529999E-02
594.4069, 0.9935000
594.8890, 2.066559
595.3712, 2.531647
595.8533, 2.552521
596.3354, 2.534698
596.8175, 2.534424
597.2996, 2.521973
597.7817, 2.353699
598.2639, 2.180847
598.7460, 2.826782
599.2281, 5.377228
599.7102, 7.138489
600.1923, 7.173950
600.6744, 6.662903
601.1566, 6.542938
601.6387, 6.922119
602.1208, 7.465179
602.6029, 7.882416
603.0850, 8.305054
603.5671, 9.304199
604.0493, 11.07224
604.5314, 12.78186
605.0135, 14.43970
605.4956, 15.95233
605.9777, 16.93759
606.4598, 17.53104
606.9420, 18.66904
607.4241, 21.41943
607.9062, 24.52832
608.3883, 26.23581
608.8704, 26.83533
609.3525, 27.86929
609.8347, 29.92636
610.3168, 32.42108
610.7989, 34.52264
611.2810, 36.08276
611.7631, 38.13177
612.2452, 40.93723
612.7274, 43.89792
613.2095, 46.98657
613.6916, 50.01709
614.1737, 52.54977
614.6558, 54.46805
615.1379, 56.42950
615.6201, 59.29108
616.1022, 63.04422
616.5843, 67.12784
617.0664, 71.74942
617.5485, 76.28107
618.0306, 80.21237
618.5128, 83.96631
618.9949, 88.10245
619.4770, 92.68823
619.9591, 97.49429
620.4412, 102.4032
620.9233, 107.4896
621.4055, 112.7534
621.8876, 118.2199
622.3697, 123.9041
622.8518, 129.7641
623.3339, 135.9814
623.8160, 143.0678
624.2982, 151.4373
624.7803, 160.0120
625.2624, 168.6016
625.7445, 177.5994
626.2266, 187.4512
626.7087, 197.8798
627.1909, 208.0376
627.6730, 217.3713
628.1551, 226.5636
628.6372, 236.5812
629.1193, 247.4503
629.6014, 259.2010
630.0836, 272.0030
630.5657, 285.3175
631.0478, 298.7628
631.5299, 312.3161
632.0120, 326.0492
632.4941, 339.5798
632.9763, 353.8618
633.4584, 369.3033
633.9405, 385.8038
634.4226, 403.2361
634.9047, 421.5263
635.3868, 440.4148
635.8690, 459.7493
636.3511, 479.4496
636.8332, 498.9656
637.3153, 518.2502
637.7974, 537.4430
638.2795, 555.7742
638.7617, 574.5483
639.2438, 594.9991
639.7259, 616.8689
640.2080, 638.5524
640.6901, 659.0111
641.1722, 679.1383
641.6544, 700.5869
642.1365, 723.2184
642.6186, 745.3236
643.1007, 766.3341
643.5828, 786.6715
644.0649, 806.5810
644.5471, 826.1102
645.0292, 846.2581
645.5113, 868.3875
645.9934, 889.4639
646.4755, 908.1630
646.9576, 925.4166
647.4398, 942.1306
647.9219, 958.4930
648.4040, 974.0668
648.8861, 988.2247
649.3682, 1001.279
649.8503, 1015.387
650.3325, 1031.649
650.8146, 1045.577
651.2967, 1055.257
651.7788, 1062.144
652.2609, 1067.262
652.7430, 1070.690
653.2252, 1073.399
653.7073, 1076.306
654.1894, 1078.206
654.6715, 1078.833
655.1536, 1077.560
655.6357, 1072.313
656.1179, 1062.330
656.6000, 1049.457
657.0821, 1035.791
657.5642, 1021.096
658.0463, 1007.245
658.5284, 997.2879
659.0106, 984.5195
659.4927, 966.1357
659.9748, 945.1996
660.4569, 924.3848
660.9390, 904.3876
661.4211, 884.9860
661.9033, 866.4371
662.3854, 848.3495
662.8675, 829.8737
663.3496, 810.9758
663.8317, 792.2897
664.3138, 774.0474
664.7960, 756.1657
665.2781, 738.0900
665.7602, 719.5901
666.2423, 702.8492
666.7244, 689.0978
667.2065, 675.8586
667.6887, 661.9734
668.1708, 647.8638
668.6529, 634.1215
669.1350, 620.9850
669.6171, 608.3235
670.0992, 596.2383
670.5814, 584.5451
671.0635, 572.2261
671.5456, 559.0255
672.0277, 545.8700
672.5098, 533.0826
672.9919, 520.4558
673.4741, 507.6921
673.9562, 494.8036
674.4383, 482.1183
674.9204, 469.6356
675.4025, 457.3271
675.8846, 445.7073
676.3668, 434.1607
676.8489, 421.0240
677.3310, 405.8463
677.8131, 389.9493
678.2952, 375.0566
678.7773, 361.1999
679.2595, 347.4777
679.7416, 334.0327
680.2237, 320.6240
680.7058, 307.6073
681.1879, 294.3477
681.6700, 279.7333
682.1522, 263.8694
682.6343, 249.2520
683.1164, 238.1631
683.5985, 228.5062
684.0806, 217.8939
684.5627, 206.4974
685.0449, 195.3561
685.5270, 184.7775
686.0091, 174.7048
686.4912, 165.2007
686.9733, 156.3503
687.4554, 147.1077
687.9376, 136.4204
688.4197, 126.5712
688.9018, 118.2030
689.3839, 110.7317
689.8660, 103.7589
690.3481, 97.11752
690.8303, 90.58646
691.3124, 83.81424
691.7945, 77.17276
692.2766, 71.42163
692.7587, 66.53021
693.2408, 61.81879
693.7230, 57.17053
694.2051, 52.45123
694.6872, 47.42920
695.1693, 42.05548
695.6514, 37.41751
696.1335, 33.88953
696.6157, 30.54605
697.0978, 27.17392
697.5799, 23.85922
698.0620, 20.62543
698.5441, 17.53296
699.0262, 14.74429
699.5084, 12.40750
699.9905, 10.41440
700.4726, 8.684082
700.9547, 7.222473
701.4368, 5.186981
701.9189, 2.042206
702.4011, 1.023041
702.8832, 2.765717
703.3653, 3.289948
703.8474, 3.979675
704.3295, 5.281891
704.8116, 6.198944
705.2938, 5.839264
705.7759, 5.355408
706.2580, 6.087097
706.7401, 7.948029
707.2222, 9.890198
707.7043, 11.29099
708.1865, 12.13110
708.6686, 12.29385
709.1507, 11.73523
709.6328, 10.99646
710.1149, 10.05762
710.5970, 9.138062
711.0792, 8.389740
711.5613, 7.791748
712.0434, 7.301270
712.5255, 7.101929
713.0076, 6.680542
713.4897, 5.871948
713.9719, 4.766296
714.4540, 3.209900
714.9361, 1.417145
715.4182, 0.1101380
715.9003, 0.2514040
716.3824, 0.4130550
716.8646, 1.920837
717.3467, 4.926788
717.8288, 7.655090
718.3109, 9.867065
718.7930, 12.06735
719.2751, 14.59888
719.7573, 17.28308
720.2394, 19.69995
720.7215, 21.56152
721.2036, 24.19339
721.6857, 29.05518
722.1678, 34.04648
722.6500, 36.96475
723.1321, 38.46460
723.6142, 40.34689
724.0963, 43.37567
724.5784, 47.43887
725.0605, 52.71747
725.5427, 59.26981
726.0248, 64.54477
726.5069, 67.80728
726.9890, 71.44031
727.4711, 76.31805
727.9532, 82.08170
728.4353, 88.60114
728.9174, 95.87653
729.3995, 102.5819
729.8817, 107.6479
730.3638, 112.6393
730.8459, 118.5833
731.3280, 125.2862
731.8101, 132.3258
732.2922, 139.5765
732.7744, 147.0818
733.2565, 154.8676
733.7386, 162.9640
734.2207, 171.4308
734.7028, 180.4348
735.1849, 189.2906
735.6671, 197.4983
736.1492, 205.9297
736.6313, 215.3993
737.1134, 225.7026
737.5955, 235.8902
738.0776, 245.3662
738.5598, 255.1535
739.0419, 266.2426
739.5240, 277.5719
740.0061, 287.5301
740.4882, 296.1415
740.9703, 304.6634
741.4525, 313.9191
741.9346, 323.6923
742.4167, 333.4902
742.8988, 343.2667
743.3809, 353.3641
743.8630, 363.9390
744.3452, 374.7046
744.8273, 385.9369
745.3094, 397.1218
745.7915, 407.0806
746.2736, 415.2487
746.7557, 423.8663
747.2379, 434.7249
747.7200, 445.3737
748.2021, 453.2639
748.6842, 459.2696
749.1663, 465.5965
749.6484, 473.1112
750.1306, 481.1473
750.6127, 488.9870
751.0948, 496.5739
751.5769, 503.5585
752.0590, 510.0855
752.5411, 515.2361
753.0233, 517.6852
753.5054, 519.5283
753.9875, 523.9913
754.4696, 531.0301
754.9517, 536.8087
755.4338, 540.3444
755.9160, 543.1140
756.3981, 545.1261
756.8802, 547.1075
757.3623, 550.3499
757.8444, 554.6776
758.3265, 558.3674
758.8087, 560.0762
759.2908, 560.3412
759.7729, 560.2712
760.2550, 559.8108
760.7371, 559.0618
761.2192, 558.0890
761.7014, 556.8730
762.1835, 555.4742
762.6656, 553.8091
763.1477, 551.4323
763.6298, 547.5268
764.1119, 544.3768
764.5941, 542.9912
765.0762, 541.6672
765.5583, 539.5781
766.0404, 536.6649
766.5225, 532.6315
767.0046, 527.3730
767.4868, 522.7567
767.9689, 521.2677
768.4510, 521.9769
768.9331, 522.1975
769.4152, 521.8099
769.8973, 520.8030
770.3795, 518.7961
770.8616, 517.1308
771.3437, 517.8212
771.8258, 521.1851
772.3079, 524.7210
772.7900, 528.0539
773.2722, 532.0029
773.7543, 536.8690
774.2364, 542.2874
774.7185, 547.8774
775.2006, 553.6520
775.6827, 559.9509
776.1649, 567.1871
776.6470, 574.7255
777.1291, 581.9197
777.6112, 588.8602
778.0933, 595.9127
778.5754, 603.1053
779.0576, 609.7368
779.5397, 615.1834
780.0218, 619.9958
780.5039, 626.0320
780.9860, 634.4083
781.4681, 641.1000
781.9503, 646.0190
782.4324, 649.0364
782.9145, 649.7454
783.3966, 648.8148
783.8787, 647.0758
784.3608, 644.6182
784.8430, 641.8823
785.3251, 640.6160
785.8072, 637.7801
786.2893, 629.5508
786.7714, 617.6619
787.2535, 606.4539
787.7357, 597.1247
788.2178, 587.2448
788.6999, 574.1743
789.1820, 558.4357
789.6641, 543.4012
790.1462, 529.3853
790.6284, 514.5179
791.1105, 498.1142
791.5926, 481.1257
792.0747, 463.8305
792.5568, 446.5074
793.0389, 430.6008
793.5211, 417.0381
794.0032, 403.5529
794.4853, 389.7869
794.9674, 375.8967
795.4495, 361.6407
795.9316, 347.3743
796.4138, 333.5722
796.8959, 320.4721
797.3780, 308.2101
797.8601, 297.2404
798.3422, 287.2463
798.8243, 277.1575
799.3065, 266.9865
799.7886, 256.4282
800.2707, 245.1821
800.7528, 234.0554
801.2349, 223.8957
801.7170, 214.6985
802.1992, 206.3185
802.6813, 200.2847
803.1634, 193.0793
803.6455, 182.4393
804.1276, 171.8404
804.6097, 164.2365
805.0919, 159.1107
805.5740, 153.8701
806.0561, 147.4542
806.5382, 140.5993
807.0203, 133.5380
807.5024, 126.5889
807.9846, 120.3145
808.4667, 114.7262
808.9488, 109.4613
809.4309, 104.3528
809.9130, 99.42587
810.3951, 94.79379
810.8773, 90.49115
811.3594, 85.99423
811.8415, 81.09177
812.3236, 76.46271
812.8057, 72.38635
813.2878, 68.72113
813.7700, 65.24518
814.2521, 61.98416
814.7342, 59.09805
815.2163, 56.95517
815.6984, 54.71780
816.1805, 51.82681
816.6627, 48.82883
817.1448, 46.41553
817.6269, 44.48474
818.1090, 42.38025
818.5911, 39.69177
819.0732, 36.90546
819.5554, 34.74780
820.0375, 33.04105
820.5196, 31.03186
821.0017, 28.66360
821.4838, 26.55963
821.9659, 25.11023
822.4481, 23.85593
822.9302, 21.92993
823.4123, 19.10764
823.8944, 17.10608
824.3765, 16.29538
824.8586, 15.80292
825.3408, 15.70938
825.8229, 15.64618
826.3050, 15.33234
826.7871, 14.75540
827.2692, 14.00311
827.7513, 13.13959
828.2335, 12.03653
828.7156, 10.23190
829.1977, 8.368042
829.6798, 7.468933
830.1619, 7.366547
830.6440, 6.984192
831.1262, 5.755341
831.6083, 4.324799
832.0904, 3.796326
832.5725, 4.085419
833.0546, 3.980011
833.5367, 3.429352
834.0189, 2.688416
834.5010, 1.675934
834.9831, 0.8206180
835.4652, 0.7684020
835.9473, 1.569641
836.4294, 1.861938
836.9116, 1.534973
837.3937, 0.8785710
837.8758, 0.7798160
838.3579, 2.131500
838.8400, 1.819305
839.3221, 0.3962710
839.8043, 0.6253360
840.2864, 0.7474370
840.7685, 0.2339170
841.2506, 1.243500
841.7327, 2.917938
842.2148, 3.627853
842.6970, 3.497208
843.1791, 3.159790
843.6612, 2.867340
844.1433, 2.739685
844.6254, 2.966446
845.1075, 3.487381
845.5897, 3.877167
846.0718, 4.189224
846.5539, 4.066360
847.0360, 3.188248
847.5181, 2.283890
848.0002, 1.927490
848.4824, 2.043564
848.9645, 2.297928
849.4466, 2.996033
849.9287, 3.267654
850.4108, 2.578918
850.8929, 1.891785
851.3751, 1.845352
851.8572, 2.127045
852.3393, 2.186935
852.8214, 1.900375
853.3035, 1.596481
853.7856, 1.597031
854.2678, 1.636002
854.7499, 1.333664
855.2320, 0.7947690
855.7141, 0.1813200
856.1962, 0.4244080
856.6783, 0.6372830
857.1605, 9.8357998E-02
857.6426, 0.8583830
858.1247, 1.380020
858.6068, 1.438583
859.0889, 1.205414
859.5710, 0.5256350
860.0532, 1.1230000E-02
860.5353, 0.1702880
861.0174, 0.5164490
861.4995, 9.8540999E-02
861.9816, 1.255142
862.4637, 2.102325
862.9459, 1.798538
863.4280, 1.715164
863.9101, 2.430511
864.3922, 3.453232
864.8743, 4.608078
865.3564, 5.644180
865.8386, 5.881546
866.3207, 4.756943
866.8028, 3.545410
867.2849, 3.397339
867.7670, 3.824646
868.2491, 4.023941
868.7313, 4.039856
869.2134, 4.420273
869.6954, 5.377686
870.1776, 6.411942
870.6597, 6.935150
871.1418, 6.978638
871.6239, 6.640182
872.1060, 5.808777
872.5881, 5.371399
873.0703, 5.559494
873.5524, 6.165497
874.0345, 7.192841
874.5166, 8.473938
874.9987, 9.286453
875.4808, 9.401016
875.9630, 9.433670
876.4451, 9.236069
876.9272, 9.119156
877.4093, 9.343613
877.8914, 9.673233
878.3735, 9.801270
878.8557, 9.685165
879.3378, 9.494492
879.8199, 9.168381
880.3020, 8.942566
880.7841, 8.948257
881.2662, 9.204315
881.7484, 9.955032
882.2305, 11.03580
882.7126, 11.72424
883.1947, 11.58766
883.6768, 11.07149
884.1589, 10.66112
884.6411, 10.43633
885.1232, 11.06448
885.6053, 12.60869
886.0874, 13.74042
886.5695, 13.95293
887.0516, 13.56513
887.5338, 12.80922
888.0159, 11.73959
888.4980, 11.41881
888.9801, 12.31889
889.4622, 13.02402
889.9443, 13.27524
890.4265, 13.40419
890.9086, 13.39731
891.3907, 13.45071
891.8728, 14.07602
892.3549, 15.55461
892.8370, 16.38751
893.3192, 15.48036
893.8013, 14.56174
894.2834, 14.72009
894.7655, 15.40662
895.2476, 15.88985
895.7297, 16.03090
896.2119, 16.15742
896.6940, 16.66129
897.1761, 17.16815
897.6582, 17.10310
898.1403, 16.58209
898.6224, 15.67642
899.1046, 14.48192
899.5867, 13.90230
900.0688, 14.40662
900.5509, 15.23578
901.0330, 15.31693
901.5151, 14.74368
901.9973, 14.33498
902.4794, 14.08974
902.9615, 13.84860
903.4436, 13.53773
903.9257, 13.40001
904.4078, 13.82730
904.8900, 14.57306
905.3721, 14.62569
905.8542, 13.46159
906.3363, 12.61794
906.8184, 12.24986
907.3005, 11.95659
907.7827, 11.63878
908.2648, 11.41519
908.7469, 11.40240
909.2290, 11.53403
909.7111, 11.55919
910.1932, 11.23401
910.6754, 11.07356
911.1575, 11.51436
911.6396, 12.10599
912.1217, 12.47214
912.6038, 12.59271
913.0859, 12.40671
913.5681, 11.91133
914.0502, 11.60822
914.5323, 12.40080
915.0144, 13.45262
915.4965, 12.91656
915.9786, 11.16199
916.4608, 9.646240
916.9429, 8.729996
917.4250, 8.308899
917.9071, 8.335678
918.3892, 8.546860
918.8713, 8.286591
919.3535, 7.515991
919.8356, 7.445633
920.3177, 8.370697
920.7998, 8.854599
921.2819, 8.179367
921.7640, 7.097122
922.2462, 6.397278
922.7283, 6.083298
923.2104, 6.086288
923.6925, 6.607605
924.1746, 7.106461
924.6567, 7.878189
925.1389, 8.278900
925.6210, 7.568069
926.1031, 6.411957
926.5852, 6.034378
927.0673, 6.695862
927.5494, 7.130905
928.0316, 6.427124
928.5137, 5.882828
928.9958, 6.740402
929.4779, 7.874222
929.9600, 7.676544
930.4421, 6.359558
930.9243, 5.418701
931.4064, 5.624054
931.8885, 6.087982
932.3706, 5.674225
932.8527, 5.034317
933.3348, 5.520996
933.8170, 6.856079
934.2991, 7.889679
934.7812, 8.264069
935.2633, 8.132217
935.7454, 7.575317
936.2275, 6.720718
936.7097, 5.819061
937.1918, 4.874847
937.6739, 4.230042
938.1560, 3.891678
938.6381, 4.065445
939.1202, 5.051880
939.6024, 6.062225
940.0845, 5.744202
940.5666, 4.046188
941.0487, 3.671036
941.5308, 5.552856
942.0129, 6.753326
942.4951, 6.550797
942.9772, 5.828857
943.4593, 4.755981
943.9414, 3.685898
944.4235, 3.421051
944.9056, 4.208878
945.3878, 4.905502
945.8699, 5.365082
946.3520, 5.712769
946.8341, 6.223007
947.3162, 6.494324
947.7983, 5.814255
948.2805, 4.503311
948.7626, 3.825882
949.2447, 4.357407
949.7268, 5.099030
950.2089, 5.612869
950.6910, 5.934525
951.1732, 6.161423
951.6553, 6.181122
952.1374, 5.617508
952.6195, 4.513412
953.1016, 3.604706
953.5837, 3.463608
954.0659, 3.705276
954.5480, 3.765579
955.0301, 3.741150
955.5122, 4.036774
955.9943, 4.569595
956.4764, 4.616333
956.9586, 3.877045
957.4407, 2.983398
957.9228, 2.630234
958.4049, 2.751923
958.8870, 3.166534
959.3691, 3.881042
959.8513, 4.387085
960.3334, 4.623276
960.8155, 4.497147
961.2976, 3.842529
961.7797, 2.991440
962.2618, 2.575714
962.7440, 2.626846
963.2261, 2.893631
963.7082, 3.542023
964.1903, 4.039001
964.6724, 4.306198
965.1545, 4.240906
965.6367, 3.474136
966.1188, 2.333572
966.6009, 1.935440
967.0830, 2.519455
967.5651, 3.171890
968.0472, 4.305283
968.5294, 4.950806
969.0115, 4.322021
969.4936, 3.415466
969.9757, 3.277206
970.4578, 3.764145
970.9399, 3.990280
971.4221, 3.745972
971.9042, 3.216415
972.3863, 1.902069
972.8684, 0.9068150
973.3505, 1.357178
973.8326, 2.475418
974.3148, 3.135208
974.7969, 3.137939
975.2790, 2.821808
975.7611, 2.187210
976.2432, 1.651276
976.7253, 1.740875
977.2075, 2.030487
977.6896, 1.809601
978.1717, 1.282806
978.6538, 1.194153
979.1359, 1.735245
979.6180, 2.333893
980.1002, 2.556839
980.5823, 2.450089
981.0644, 1.748611
981.5465, 0.8214260
982.0286, 1.065643
982.5107, 2.449753
982.9929, 3.501099
983.4750, 3.542313
983.9571, 3.014206
984.4392, 2.368805
984.9213, 1.635757
985.4034, 0.9267430
985.8856, 0.2562410
986.3677, 0.1410520
986.8498, 0.7347410
987.3319, 1.322891
987.8140, 1.472397
988.2961, 1.351837
988.7783, 1.250656
989.2604, 1.172226
989.7425, 1.163086
990.2246, 1.271561
990.7067, 1.203949
991.1888, 0.6188810
991.6710, 0.4432220
992.1531, 1.753418
992.6352, 3.694275
993.1173, 4.073196
993.5994, 2.403915
994.0815, 1.106079
994.5637, 0.1164550
995.0458, 0.3938290
995.5279, 2.0233000E-02
996.0100, 0.5663450
996.4921, 0.5622710
996.9742, 0.2375790
997.4564, 0.2999270
997.9385, 1.059570
998.4206, 1.374939
998.9027, 0.7240750
999.3848, 0.1217800
999.8669, 4.9561001E-02
1000.349, 1.3184000E-02
1000.831, 8.0002002E-02
1001.313, 0.1799160
1001.795, 0.1679380
1002.278, 8.2549997E-02
1002.760, 0.1267240
1003.242, 0.5618290
1003.724, 1.105042
1004.206, 0.7669680
1004.688, 6.1859000E-02
1005.170, 0.4653170
1005.652, 0.6851810
1006.134, 0.4697880
1006.617, 0.4491580
1007.099, 1.142868
1007.581, 0.6359410
1008.063, 8.2641996E-02
1008.545, 0.1133880
1009.027, 0.7673650
1009.509, 1.011459
1009.991, 0.6976930
1010.473, 0.1040950
1010.956, 0.7507780
1011.438, 1.318359
1011.920, 0.7840270
1012.402, 0.2406620
1012.884, 0.9939580
1013.366, 1.373489
1013.848, 1.112213
1014.330, 0.2662960
1014.813, 0.3567660
1015.295, 0.1815490
1015.777, 0.2960050
1016.259, 0.5199430
1016.741, 0.5302120
1017.223, 0.2771300
1017.705, 0.1504670
1018.187, 0.3803560
1018.669, 0.3041840
1019.152, 0.2031560
1019.634, 1.420547
1020.116, 2.676712
1020.598, 2.086929
1021.080, 7.4920997E-02
1021.562, 0.6819000
1022.044, 6.0805999E-02
1022.526, 0.5914310
1023.008, 0.7977290
1023.491, 0.8600920
1023.973, 1.092178
1024.455, 1.374191
1024.937, 1.273193
1025.419, 0.7834930
1025.901, 0.3278810
1026.383, 9.6207000E-02
1026.865, 0.1155240
1027.348, 0.4916840
1027.830, 1.181519
1028.312, 1.362808
1028.794, 1.152084
1029.276, 1.099838
1029.758, 1.263138
1030.240, 1.181641
1030.722, 0.7481230
1031.204, 0.3609310
1031.687, 0.1283720
1032.169, 0.1535950
1032.651, 0.6340330
1033.133, 1.399124
1033.615, 1.452759
1034.097, 0.4058840
1034.579, 7.7774003E-02
1035.061, 0.2680360
1035.544, 0.7463680
1036.026, 1.161423
1036.508, 1.500031
1036.990, 1.765152
1037.472, 1.942108
1037.954, 1.915146
1038.436, 1.463943
1038.918, 1.416519
1039.401, 2.250107
1039.883, 2.600891
1040.365, 1.630264
1040.847, 0.3029480
1041.329, 0.4770200
1041.811, 0.7201390
1042.293, 0.4707640
1042.775, 0.8838650
1043.257, 1.654800
1043.740, 1.399963
1044.222, 1.117081
1044.704, 1.194077
1045.186, 1.361969
1045.668, 1.384445
1046.150, 1.261047
1046.632, 1.017517
1047.114, 0.5555730
1047.596, 0.1762700
1048.079, 0.3020630
1048.561, 0.4322660
1049.043, 0.2505490
1049.525, 1.102783
1050.007, 1.477020
1050.489, 1.477615
1050.971, 1.453735
1051.453, 1.390472
1051.936, 1.390564
1052.418, 1.588333
1052.900, 1.700134
1053.382, 1.418457
1053.864, 1.164413
1054.346, 1.507355
1054.828, 2.249496
1055.310, 2.640884
1055.792, 2.515228
1056.275, 2.141632
1056.757, 1.179840
1057.239, 0.4740140
1057.721, 0.5308690
1058.203, 0.9194640
1058.685, 1.364166
1059.167, 1.746765
1059.649, 1.803314
1060.131, 1.357025
1060.614, 1.157486
1061.096, 1.834290
1061.578, 2.335892
1062.060, 1.928253
1062.542, 1.297867
1063.024, 1.104736
1063.506, 1.274673
1063.988, 1.416428
1064.471, 1.437836
1064.953, 1.497055
1065.435, 1.883270
1065.917, 2.029495
1066.399, 1.410767
1066.881, 0.6496580
1067.363, 0.2899020
1067.845, 0.2593540
1068.328, 0.2501220
1068.810, 0.1727290
1069.292, 0.3289640
1069.774, 1.310883
1070.256, 2.042862
1070.738, 1.913361
1071.220, 1.340225
1071.702, 0.2906190
1072.184, 0.7757570
1072.667, 0.9685360
1073.149, 0.1348570
1073.631, 0.7044980
1074.113, 1.358994
1074.595, 1.598938
1075.077, 0.8363340
1075.559, 5.7204999E-02
1076.041, 0.2615200
1076.523, 0.9694210
1077.006, 1.235138
1077.488, 0.9500730
1077.970, 0.8320160
1078.452, 1.347443
1078.934, 1.778992
1079.416, 1.613220
1079.898, 1.413879
1080.380, 1.743439
1080.863, 2.197800
1081.345, 2.036011
1081.827, 1.308807
1082.309, 0.8872380
1082.791, 1.196930
1083.273, 1.582779
1083.755, 1.918198
1084.237, 2.030930
1084.719, 1.466278
1085.202, 0.8385620
1085.684, 1.079681
1086.166, 2.003342
1086.648, 2.577637
1087.130, 2.453873
1087.612, 2.064041
1088.094, 1.400970
1088.576, 0.7548220
1089.058, 0.1843110
1089.541, 0.1780090
1090.023, 7.4081004E-02
1090.505, 0.3408660
1090.987, 0.5656590
1091.469, 0.4181670
1091.951, 0.5664370
1092.433, 1.907776
1092.915, 2.821289
1093.397, 2.049088
1093.880, 0.8884430
1094.362, 0.5771480
1094.844, 0.7829900
1095.326, 0.5239870
1095.808, 0.3860020
1096.290, 0.9234160
1096.772, 0.4921110
1097.254, 2.6550001E-02
1097.737, 0.3673250
1098.219, 0.6031040
1098.701, 0.6733700
1099.183, 0.7109830
1099.665, 1.015396
1100.147, 1.594620
1100.629, 1.998032
1101.111, 2.072525
1101.594, 1.941177
1102.076, 1.441849
1102.558, 0.9684910
1103.040, 0.6629030
1103.522, 0.5623630
1104.004, 0.8813480
1104.486, 1.468994
1104.968, 1.554062
1105.450, 0.5839080
1105.932, 0.1595760
1106.415, 1.492737
1106.897, 2.357483
1107.379, 1.091751
1107.861, 0.4207150
1108.343, 0.3209080
1108.825, 0.9179080
1109.307, 1.765793
1109.789, 1.998138
1110.272, 2.192993
1110.754, 2.665451
1111.236, 2.760223
1111.718, 1.903168
1112.200, 1.041382
1112.682, 0.8609920
1113.164, 1.078262
1113.646, 1.135406
1114.129, 0.9829860
1114.611, 1.147415
1115.093, 2.231262
1115.575, 2.719986
1116.057, 2.084412
1116.539, 1.347656
1117.021, 0.8964840
1117.503, 0.6183780
1117.985, 0.3870540
1118.468, 0.2027440
1118.950, 6.5642998E-02
1119.432, 0.1542210
1119.914, 2.2598000E-02
1120.396, 0.7708740
1120.878, 1.299957
1121.360, 1.067581
1121.842, 0.7778630
1122.324, 1.103470
1122.807, 1.811890
1123.289, 2.216858
1123.771, 2.281555
1124.253, 2.244095
1124.735, 2.114792
1125.217, 1.836334
1125.699, 1.347916
1126.181, 0.8237000
1126.664, 0.3045040
1127.146, 6.4331003E-02
1127.628, 7.2940001E-03
1128.110, 0.4436190
1128.592, 0.7250980
1129.074, 0.8052370
1129.556, 0.9530940
1130.038, 1.094101
1130.521, 1.245651
1131.003, 1.491882
1131.485, 1.700287
1131.967, 1.735931
1132.449, 1.626266
1132.931, 1.438492
1133.413, 1.167282
1133.895, 0.9651490
1134.377, 0.8333130
1134.859, 1.200851
1135.342, 2.216980
1135.824, 2.867371
1136.306, 2.354965
1136.788, 1.403915
1137.270, 1.412643
1137.752, 2.113800
1138.234, 2.093933
1138.716, 1.511169
1139.199, 1.415115
1139.681, 1.902069
1140.163, 2.129028
1140.645, 1.706970
1141.127, 1.240585
1141.609, 1.468933
1142.091, 1.965302
1142.573, 1.746307
1143.056, 1.174530
1143.538, 1.255936
1144.020, 1.854248
1144.502, 2.138184
1144.984, 1.919907
1145.466, 1.700531
1145.948, 1.807037
1146.430, 2.091675
1146.912, 2.509842
1147.395, 2.894531
1147.877, 3.159897
1148.359, 3.210495
1148.841, 2.596268
1149.323, 1.571182
1149.805, 1.238708
1150.287, 2.063599
1150.769, 2.703842
1151.251, 1.758514
1151.734, 0.8367920
1152.216, 1.549561
1152.698, 2.594986
1153.180, 2.363281
1153.662, 1.411591
1154.144, 1.150040
1154.626, 1.818344
1155.108, 2.442551
1155.591, 2.563461
1156.073, 2.704727
1156.555, 3.294617
1157.037, 3.703064
1157.519, 3.458069
1158.001, 2.907516
1158.483, 2.265411
1158.965, 1.681625
1159.448, 1.536514
1159.930, 1.991226
1160.412, 2.409164
1160.894, 2.936432
1161.376, 3.091034
1161.858, 2.329330
1162.340, 1.635666
1162.822, 1.735657
1163.304, 2.176682
1163.786, 2.235840
1164.269, 1.959106
1164.751, 2.120148
1165.233, 3.133957
1165.715, 3.498779
1166.197, 2.961655
1166.679, 2.378235
1167.161, 1.850327
1167.643, 1.704590
1168.126, 2.419174
1168.608, 3.462082
1169.090, 3.309692
1169.572, 1.874329
1170.054, 1.463501
1170.536, 2.224289
1171.018, 2.267685
1171.500, 1.176254
1171.983, 0.4452360
1172.465, 0.9331050
1172.947, 1.789474
1173.429, 2.225311
1173.911, 2.244232
1174.393, 1.490021
1174.875, 0.2646790
1175.357, 0.4083250
1175.839, 1.699066
1176.322, 2.028580
1176.804, 0.9570770
1177.286, 7.4799999E-04
1177.768, 0.1545100
1178.250, 0.9406590
1178.732, 2.102264
1179.214, 3.205566
1179.696, 3.518799
1180.178, 3.264801
1180.661, 2.701279
1181.143, 2.003601
1181.625, 1.444565
1182.107, 1.117661
1182.589, 0.9925690
1183.071, 1.093185
1183.553, 1.307724
1184.035, 1.666794
1184.518, 1.983749
1185.000, 2.274551
1185.482, 2.312317
1185.964, 1.505692
1186.446, 0.1365810
1186.928, 0.5870360
1187.410, 0.2778630
1187.892, 0.1048280
1188.375, 0.3035130
1188.857, 0.5282750
1189.339, 0.8999480
1189.821, 1.264923
1190.303, 1.657013
1190.785, 1.902206
1191.267, 1.641769
1191.749, 0.9288640
1192.231, 0.4198760
1192.714, 1.1917000E-02
1193.196, 2.6860000E-03
1193.678, 0.6560820
1194.160, 1.332092
1194.642, 1.870728
1195.124, 2.371841
1195.606, 2.987793
1196.088, 3.454468
1196.570, 3.159317
1197.053, 2.179321
1197.535, 1.794205
1198.017, 2.023422
1198.499, 1.802658
1198.981, 1.012024
1199.463, 0.7415920
1199.945, 1.417480
1200.427, 2.328384
1200.910, 2.909042
1201.392, 3.111206
1201.874, 2.656906
1202.356, 1.866699
1202.838, 1.418762
1203.320, 1.247833
1203.802, 1.287140
1204.284, 1.535751
1204.766, 2.233643
1205.249, 3.430542
1205.731, 4.194290
1206.213, 3.474426
1206.695, 2.563812
1207.177, 2.779388
1207.659, 3.190445
1208.141, 2.529037
1208.623, 1.591812
1209.105, 2.065887
1209.588, 3.605103
1210.070, 3.895355
1210.552, 1.955490
1211.034, 0.5629270
1211.516, 0.9899140
1211.998, 1.440308
1212.480, 0.9905700
1212.962, 0.7357790
1213.445, 1.884232
1213.927, 3.358521
1214.409, 3.423096
1214.891, 2.283722
1215.373, 1.788208
1215.855, 2.248718
1216.337, 2.465179
1216.819, 2.417038
1217.302, 2.101898
1217.784, 1.428299
1218.266, 0.8097990
1218.748, 0.5141750
1219.230, 0.4589080
1219.712, 0.5522460
1220.194, 0.7520600
1220.676, 0.7950740
1221.158, 0.7405090
1221.641, 1.145081
1222.123, 1.951889
1222.605, 2.501236
1223.087, 2.602707
1223.569, 2.382126
1224.051, 1.896286
1224.533, 1.359634
1225.015, 0.8678740
1225.497, 0.6148220
1225.979, 1.102081
1226.462, 1.881729
1226.944, 2.333145
1227.426, 2.469452
1227.908, 2.601425
1228.390, 2.725845
1228.872, 2.243057
1229.354, 0.3803560
1229.836, 0.8290250
1230.319, 0.1296230
1230.801, 0.8250430
1231.283, 1.305023
1231.765, 1.513138
1232.247, 1.629715
1232.729, 1.661957
1233.211, 1.575394
1233.693, 1.379440
1234.176, 1.181320
1234.658, 0.7689820
1235.140, 0.9902500
1235.622, 2.349915
1236.104, 2.886063
1236.586, 1.708618
1237.068, 0.5178830
1237.550, 0.6730650
1238.032, 1.424362
1238.515, 1.339905
1238.997, 0.6389470
1239.479, 0.6100770
1239.961, 1.099014
1240.443, 1.106644
1240.925, 0.6503600
1241.407, 0.4326020
1241.889, 0.6625820
1242.371, 1.124466
1242.854, 1.734451
1243.336, 2.163162
1243.818, 1.768188
1244.300, 1.311081
1244.782, 1.882156
1245.264, 2.705887
1245.746, 2.594635
1246.228, 1.956406
1246.711, 2.035110
1247.193, 2.914322
1247.675, 3.165253
1248.157, 2.006607
1248.639, 0.9846950
1249.121, 9.6161000E-02
1249.603, 0.1202700
1250.085, 1.277420
1250.568, 2.607880
1251.050, 2.599075
1251.532, 1.947571
1252.014, 1.597031
1252.496, 1.867859
1252.978, 2.078094
1253.460, 2.247009
1253.942, 2.176773
1254.424, 1.834625
1254.906, 1.469193
1255.389, 1.134766
1255.871, 1.293869
1256.353, 2.275803
1256.835, 3.243088
1257.317, 3.007721
1257.799, 2.148926
1258.281, 1.883972
1258.763, 1.831543
1259.246, 0.9526370
1259.728, 0.2861630
1260.210, 0.5427860
1260.692, 0.2469790
1261.174, 1.167221
1261.656, 1.817841
1262.138, 2.169403
1262.620, 1.807968
1263.103, 1.333984
1263.585, 0.6821750
1264.067, 0.3769070
1264.549, 1.235489
1265.031, 2.344193
1265.513, 2.300385
1265.995, 1.423370
1266.477, 1.251297
1266.959, 1.405457
1267.442, 1.746628
1267.924, 1.636383
1268.406, 1.585281
1268.888, 1.690186
1269.370, 1.747955
1269.852, 1.670166
1270.334, 1.406738
1270.816, 0.8295290
1271.298, 0.2542570
1271.781, 0.7248690
1272.263, 1.679062
1272.745, 1.290421
1273.227, 0.0000000E+00
##END=



