##NAMES=Enargite
##RRUFFID=R050442
##IDEAL CHEMISTRY=Cu_3_AsS_4_
##LOCALITY=Butte, Silver Bow County, Montana, USA
##OWNER=RRUFF
##SOURCE=University of Arizona Mineral Museum
##DESCRIPTION=Black prismatic crystals associated with pyrite
##STATUS=The identification of this mineral has been confirmed by X-ray diffraction and chemical analysis
##URL=rruff.info/R050442
##MEASURED CHEMISTRY=Cu_2.98_As_0.97_Sb_0.03_S_4_
120.7984, 0.0000000E+00
121.2805, 0.1033860
121.7626, 1.303780
122.2448, 3.344200
122.7269, 6.391640
123.2090, 9.132271
123.6911, 10.07493
124.1732, 8.725990
124.6553, 6.717644
125.1375, 5.197327
125.6196, 4.150711
126.1017, 3.580109
126.5838, 3.586411
127.0659, 4.044678
127.5480, 4.752617
128.0302, 5.701981
128.5123, 6.841667
128.9944, 8.178848
129.4765, 9.689537
129.9586, 11.18503
130.4407, 12.52602
130.9229, 13.73518
131.4050, 14.90927
131.8871, 15.99869
132.3692, 17.07953
132.8513, 18.21053
133.3334, 19.13426
133.8156, 19.63908
134.2977, 20.09309
134.7798, 21.00912
135.2619, 22.28609
135.7440, 24.10359
136.2261, 26.24026
136.7083, 27.61005
137.1904, 27.95091
137.6725, 28.38797
138.1546, 30.63765
138.6367, 35.32642
139.1188, 38.41606
139.6010, 38.59801
140.0831, 35.88728
140.5652, 33.43965
141.0473, 31.20441
141.5294, 29.24506
142.0115, 27.67265
142.4937, 26.50786
142.9758, 25.62332
143.4579, 24.94247
143.9400, 24.42676
144.4221, 24.26794
144.9042, 24.54187
145.3864, 25.11322
145.8685, 25.75403
146.3506, 26.54492
146.8327, 27.30037
147.3148, 28.01166
147.7969, 28.85049
148.2791, 29.24126
148.7612, 28.89740
149.2433, 28.13965
149.7254, 27.69986
150.2075, 27.68849
150.6896, 27.89842
151.1718, 28.26723
151.6539, 28.99416
152.1360, 29.59549
152.6181, 29.80031
153.1002, 29.83328
153.5823, 30.36316
154.0645, 32.66565
154.5466, 34.59352
155.0287, 35.13077
155.5108, 32.70134
155.9929, 30.66768
156.4750, 29.74942
156.9572, 29.68724
157.4393, 29.66251
157.9214, 29.98802
158.4035, 30.18271
158.8856, 30.01518
159.3677, 28.48175
159.8499, 27.35919
160.3320, 27.58244
160.8141, 29.02950
161.2962, 30.49225
161.7783, 31.68376
162.2604, 32.66837
162.7426, 33.30362
163.2247, 33.40607
163.7068, 33.38226
164.1889, 33.16246
164.6710, 32.58258
165.1531, 31.83121
165.6353, 31.05804
166.1174, 30.48148
166.5995, 30.18208
167.0816, 30.63927
167.5637, 30.84848
168.0458, 30.08246
168.5280, 28.38454
169.0101, 26.82376
169.4922, 26.24239
169.9743, 26.07721
170.4564, 25.77393
170.9385, 25.16548
171.4207, 24.23886
171.9028, 22.86839
172.3849, 21.02216
172.8670, 19.45178
173.3491, 19.04752
173.8312, 19.31541
174.3134, 19.31020
174.7955, 18.35616
175.2776, 17.00768
175.7597, 15.86845
176.2418, 14.95981
176.7239, 14.27808
177.2061, 14.04503
177.6882, 14.06140
178.1703, 13.78784
178.6524, 12.59915
179.1345, 11.03867
179.6166, 9.816925
180.0988, 8.962051
180.5809, 8.423111
181.0630, 8.408630
181.5451, 8.754150
182.0272, 8.794037
182.5093, 7.816193
182.9915, 6.293442
183.4736, 5.411102
183.9557, 5.301682
184.4378, 5.611694
184.9199, 6.088943
185.4020, 6.667664
185.8842, 6.971771
186.3663, 6.712540
186.8484, 5.990631
187.3305, 5.136871
187.8126, 4.136154
188.2947, 3.098373
188.7769, 2.085358
189.2590, 1.109970
189.7411, 0.4460750
190.2232, 0.4840090
190.7053, 1.076797
191.1874, 1.190720
191.6696, 0.5970610
192.1517, 0.2196040
192.6338, 0.2201540
193.1159, 0.6292110
193.5980, 1.386581
194.0801, 1.363266
194.5623, 0.6248170
195.0444, 0.1415100
195.5265, 7.3028997E-02
196.0086, 0.1939850
196.4907, 5.5771001E-02
196.9728, 0.7376560
197.4550, 1.289322
197.9371, 1.255386
198.4192, 0.6234280
198.9013, 0.2207340
199.3834, 0.1517640
199.8655, 0.3172300
200.3477, 0.5065610
200.8298, 0.7329710
201.3119, 0.9208530
201.7940, 0.9761350
202.2761, 0.8733670
202.7582, 0.9571840
203.2404, 1.362122
203.7225, 1.893448
204.2046, 1.903458
204.6867, 1.214966
205.1688, 0.6059570
205.6509, 0.6461180
206.1331, 1.453857
206.6152, 2.139801
207.0973, 2.685303
207.5794, 3.033356
208.0615, 2.925430
208.5436, 2.204895
209.0258, 1.439056
209.5079, 0.9793240
209.9900, 0.8697970
210.4721, 0.8935390
210.9542, 1.124557
211.4363, 1.448486
211.9185, 1.462906
212.4006, 1.103683
212.8827, 0.5723420
213.3648, 7.9604998E-02
213.8469, 1.000931
214.3290, 1.507828
214.8112, 1.430344
215.2933, 0.9254910
215.7754, 0.5415950
216.2575, 0.2847140
216.7396, 0.1335450
217.2217, 3.3920001E-02
217.7038, 0.1192020
218.1860, 0.1617430
218.6681, 1.203583
219.1502, 2.656799
219.6323, 3.063034
220.1144, 1.750793
220.5965, 0.5364840
221.0787, 0.6108250
221.5608, 2.674988
222.0429, 4.067902
222.5250, 4.315552
223.0071, 3.815430
223.4892, 4.079391
223.9714, 5.593018
224.4535, 7.115036
224.9356, 7.928238
225.4177, 7.610992
225.8998, 7.589203
226.3819, 7.948257
226.8641, 8.648300
227.3462, 9.594131
227.8283, 11.03178
228.3104, 12.33711
228.7925, 13.10971
229.2746, 12.98227
229.7568, 13.17642
230.2389, 13.76630
230.7210, 14.70705
231.2031, 15.89478
231.6852, 17.56963
232.1673, 19.11623
232.6495, 20.10339
233.1316, 19.86084
233.6137, 20.62900
234.0958, 22.89958
234.5779, 26.08826
235.0600, 28.51175
235.5422, 29.79764
236.0243, 30.90324
236.5064, 32.27197
236.9885, 34.10625
237.4706, 35.73270
237.9527, 36.96089
238.4349, 38.01108
238.9170, 39.38486
239.3991, 40.98541
239.8812, 43.05338
240.3633, 45.75681
240.8454, 49.38705
241.3276, 52.96193
241.8097, 56.62811
242.2918, 60.13533
242.7739, 62.80112
243.2560, 64.01544
243.7381, 65.33348
244.2203, 67.40210
244.7024, 70.57961
245.1845, 73.49428
245.6666, 76.05434
246.1487, 78.39058
246.6308, 80.83995
247.1130, 83.61014
247.5951, 86.14935
248.0772, 88.11234
248.5593, 89.16298
249.0414, 90.97017
249.5235, 93.90805
250.0057, 97.32562
250.4878, 100.2748
250.9699, 102.5849
251.4520, 104.7905
251.9341, 106.9403
252.4162, 108.9160
252.8984, 111.4673
253.3805, 114.9010
253.8626, 118.7329
254.3447, 122.1247
254.8268, 124.9797
255.3089, 127.6474
255.7911, 130.2747
256.2732, 132.9547
256.7553, 135.1585
257.2374, 136.6196
257.7195, 137.8313
258.2017, 139.4758
258.6838, 141.8736
259.1659, 144.0401
259.6480, 145.9846
260.1301, 147.7453
260.6122, 147.9695
261.0944, 146.0854
261.5765, 143.3242
262.0586, 141.1203
262.5407, 139.9717
263.0228, 138.1362
263.5049, 135.0780
263.9871, 130.7866
264.4692, 126.6895
264.9513, 123.0164
265.4334, 119.1452
265.9155, 114.2816
266.3976, 108.1569
266.8798, 102.3669
267.3619, 97.23059
267.8440, 92.64894
268.3261, 88.31973
268.8082, 84.22945
269.2903, 80.39566
269.7725, 77.00769
270.2546, 74.29303
270.7367, 71.22884
271.2188, 67.51987
271.7009, 63.41725
272.1830, 59.93741
272.6652, 57.25517
273.1473, 54.74893
273.6294, 51.94063
274.1115, 48.76038
274.5936, 45.75177
275.0757, 43.01831
275.5579, 40.42552
276.0400, 37.56465
276.5221, 34.29173
277.0042, 31.38217
277.4863, 29.52686
277.9684, 28.83264
278.4506, 27.68094
278.9327, 25.94031
279.4148, 23.77643
279.8969, 21.36217
280.3790, 18.63356
280.8611, 16.11642
281.3433, 14.26593
281.8254, 13.06723
282.3075, 11.26527
282.7896, 8.567032
283.2717, 5.804184
283.7538, 4.511093
284.2360, 4.745010
284.7181, 4.974991
285.2002, 4.525314
285.6823, 3.458817
286.1644, 2.256516
286.6465, 0.8696290
287.1287, 0.4386290
287.6108, 1.323547
288.0929, 1.797150
288.5750, 2.046295
289.0571, 2.061935
289.5392, 1.907074
290.0214, 1.911591
290.5035, 2.115372
290.9856, 2.158356
291.4677, 1.438843
291.9498, 0.1055910
292.4319, 0.8730160
292.9141, 1.052505
293.3962, 0.7826080
293.8783, 0.8645480
294.3604, 1.303513
294.8425, 1.884430
295.3246, 2.288834
295.8068, 2.666595
296.2889, 3.573395
296.7710, 5.409241
297.2531, 7.534378
297.7352, 8.695541
298.2173, 9.000000
298.6995, 9.409378
299.1816, 10.87126
299.6637, 12.91771
300.1458, 14.46933
300.6279, 15.19185
301.1100, 15.69608
301.5922, 16.76126
302.0743, 18.27345
302.5564, 19.77342
303.0385, 21.37906
303.5206, 22.68239
304.0027, 22.87090
304.4849, 21.57146
304.9670, 20.25110
305.4491, 20.47871
305.9312, 21.79350
306.4133, 23.09029
306.8954, 23.87195
307.3776, 24.34416
307.8597, 24.59093
308.3418, 24.59221
308.8239, 24.74654
309.3060, 25.32927
309.7881, 26.26979
310.2703, 27.43697
310.7524, 28.80429
311.2345, 30.37071
311.7166, 32.03798
312.1987, 33.81812
312.6808, 36.00624
313.1630, 38.91321
313.6451, 42.28001
314.1272, 45.85211
314.6093, 49.47578
315.0914, 53.29971
315.5735, 57.27687
316.0557, 61.44456
316.5378, 66.00995
317.0199, 71.16809
317.5020, 76.67175
317.9841, 82.44333
318.4662, 88.50369
318.9484, 94.59848
319.4305, 100.7135
319.9126, 106.8033
320.3947, 112.7467
320.8768, 118.1115
321.3589, 123.6234
321.8411, 129.7617
322.3232, 136.8997
322.8053, 143.7362
323.2874, 149.4845
323.7695, 154.8739
324.2516, 161.0587
324.7338, 168.7312
325.2159, 176.7457
325.6980, 184.7381
326.1801, 192.6503
326.6622, 200.8327
327.1443, 209.1234
327.6265, 217.8237
328.1086, 227.2772
328.5907, 237.7959
329.0728, 248.6024
329.5549, 259.3316
330.0370, 270.0220
330.5192, 281.9936
331.0013, 296.5945
331.4834, 311.4221
331.9655, 324.9948
332.4476, 337.0605
332.9297, 348.3962
333.4119, 359.3605
333.8940, 369.6428
334.3761, 377.8301
334.8582, 384.1985
335.3403, 387.7939
335.8224, 388.1255
336.3046, 385.1319
336.7867, 378.9785
337.2688, 369.5842
337.7509, 357.0767
338.2330, 341.0958
338.7151, 321.1446
339.1973, 299.6106
339.6794, 276.8405
340.1615, 252.9679
340.6436, 229.1367
341.1257, 205.2926
341.6078, 182.1610
342.0899, 160.5560
342.5721, 140.8567
343.0542, 122.5185
343.5363, 105.3838
344.0184, 89.69902
344.5005, 76.31276
344.9826, 65.42886
345.4648, 56.11552
345.9469, 47.97145
346.4290, 40.83789
346.9111, 34.32568
347.3932, 28.26237
347.8753, 22.80038
348.3575, 18.48677
348.8396, 15.28867
349.3217, 12.63570
349.8038, 10.18367
350.2859, 8.005692
350.7680, 6.349396
351.2502, 5.280334
351.7323, 4.585922
352.2144, 4.016693
352.6965, 3.636490
353.1786, 3.625778
353.6607, 4.076370
354.1429, 4.918518
354.6250, 6.245728
355.1071, 8.053207
355.5892, 9.678375
356.0713, 10.25676
356.5534, 10.51393
357.0356, 11.44623
357.5177, 13.64145
357.9998, 16.32491
358.4819, 18.80199
358.9640, 21.21371
359.4461, 24.24091
359.9283, 28.74602
360.4104, 33.72293
360.8925, 38.29532
361.3746, 41.89357
361.8567, 45.78983
362.3388, 50.70709
362.8210, 56.25906
363.3031, 61.69905
363.7852, 66.70653
364.2673, 71.60309
364.7494, 76.49109
365.2315, 81.30928
365.7137, 86.27962
366.1958, 91.41339
366.6779, 96.73085
367.1600, 102.2702
367.6421, 108.7083
368.1242, 114.6376
368.6064, 119.7272
369.0885, 123.9521
369.5706, 127.8237
370.0527, 131.3043
370.5348, 134.5404
371.0169, 137.5996
371.4991, 140.1626
371.9812, 142.9203
372.4633, 145.9885
372.9454, 149.3234
373.4275, 152.6314
373.9096, 155.7828
374.3918, 159.1914
374.8739, 163.0357
375.3560, 167.4678
375.8381, 171.8737
376.3202, 176.3389
376.8023, 180.6187
377.2845, 184.5436
377.7666, 188.2617
378.2487, 190.6149
378.7308, 191.2388
379.2129, 190.1635
379.6950, 187.5170
380.1772, 183.2664
380.6593, 177.5000
381.1414, 169.8345
381.6235, 160.4773
382.1056, 150.6879
382.5877, 140.7783
383.0699, 130.6198
383.5520, 119.7388
384.0341, 108.1425
384.5162, 96.90468
384.9983, 86.40884
385.4804, 76.67915
385.9626, 67.67598
386.4447, 59.39902
386.9268, 51.82310
387.4089, 44.79735
387.8910, 38.42230
388.3731, 33.07909
388.8553, 29.17209
389.3374, 26.17526
389.8195, 23.90869
390.3016, 22.35323
390.7837, 20.76790
391.2658, 18.46460
391.7480, 16.01865
392.2301, 14.04469
392.7122, 12.96632
393.1943, 12.03633
393.6764, 10.87042
394.1585, 9.581497
394.6407, 8.508545
395.1228, 7.785416
395.6049, 7.280579
396.0870, 6.963257
396.5691, 6.913101
397.0512, 6.816269
397.5334, 6.674095
398.0155, 6.421600
398.4976, 5.989708
398.9797, 5.202583
399.4618, 4.410561
399.9439, 3.548073
400.4261, 2.617294
400.9082, 2.184715
401.3903, 2.627487
401.8724, 3.213242
402.3545, 3.450150
402.8366, 3.081482
403.3188, 2.931648
403.8009, 3.161087
404.2830, 3.584915
404.7651, 3.746552
405.2472, 3.644226
405.7293, 3.298546
406.2115, 2.604645
406.6936, 1.550552
407.1757, 0.8064420
407.6578, 0.4180300
408.1399, 0.2195890
408.6220, 6.5994002E-02
409.1042, 4.5547001E-02
409.5863, 0.2701870
410.0684, 0.7157670
410.5505, 1.249374
411.0326, 1.622833
411.5147, 1.834694
411.9969, 1.861771
412.4790, 1.428146
412.9611, 0.8217240
413.4432, 0.8581850
413.9253, 1.788994
414.4074, 2.808182
414.8896, 3.011322
415.3717, 2.632355
415.8538, 2.214172
416.3359, 2.030052
416.8180, 1.911247
417.3001, 1.652443
417.7823, 1.259918
418.2644, 1.004799
418.7465, 1.198265
419.2286, 1.534950
419.7107, 1.717140
420.1928, 1.644058
420.6750, 1.446678
421.1571, 1.215607
421.6392, 0.9021680
422.1213, 0.3821330
422.6034, 0.8631900
423.0855, 1.909363
423.5677, 2.280144
424.0498, 1.679001
424.5319, 1.342598
425.0140, 1.470551
425.4961, 1.856026
425.9782, 2.321342
426.4604, 3.295845
426.9425, 3.689606
427.4246, 2.953339
427.9067, 1.362541
428.3888, 1.017975
428.8709, 2.554939
429.3531, 4.214378
429.8352, 4.970505
430.3173, 4.606461
430.7994, 4.391708
431.2815, 4.376419
431.7636, 4.489075
432.2458, 4.676575
432.7279, 4.950722
433.2100, 5.071632
433.6921, 4.813278
434.1742, 4.356079
434.6563, 4.456169
435.1385, 5.129662
435.6206, 5.875122
436.1027, 6.343216
436.5848, 6.550568
437.0669, 6.468605
437.5490, 5.966164
438.0312, 5.496552
438.5133, 5.658173
438.9954, 6.279778
439.4775, 6.879906
439.9596, 7.432259
440.4417, 7.723892
440.9239, 7.362869
441.4060, 6.328056
441.8881, 5.509979
442.3702, 5.537033
442.8523, 5.981422
443.3344, 6.442070
443.8166, 7.135529
444.2987, 7.448204
444.7808, 6.810402
445.2629, 5.596138
445.7450, 4.896873
446.2271, 5.508759
446.7093, 6.192993
447.1914, 6.459496
447.6735, 6.132965
448.1556, 5.896500
448.6377, 5.708534
449.1198, 5.638153
449.6020, 5.789452
450.0841, 6.337082
450.5662, 6.729988
451.0483, 6.815033
451.5304, 6.687248
452.0125, 6.841736
452.4947, 7.427757
452.9768, 7.841743
453.4589, 7.570564
453.9410, 6.581329
454.4231, 6.178261
454.9052, 6.471489
455.3874, 7.062454
455.8695, 7.473053
456.3516, 7.723709
456.8337, 7.993027
457.3158, 8.457474
457.7979, 8.874901
458.2801, 8.691566
458.7622, 7.987549
459.2443, 7.305099
459.7264, 6.955917
460.2085, 6.881668
460.6906, 7.115875
461.1728, 7.758995
461.6549, 8.243217
462.1370, 7.979294
462.6191, 7.341141
463.1012, 6.883522
463.5833, 6.685341
464.0655, 6.827637
464.5476, 7.617111
465.0297, 8.922096
465.5118, 9.785217
465.9939, 9.608170
466.4760, 9.161415
466.9582, 8.883080
467.4403, 9.078224
467.9224, 8.901642
468.4045, 7.908195
468.8866, 6.718224
469.3687, 6.253029
469.8509, 6.985413
470.3330, 7.665436
470.8151, 8.034424
471.2972, 8.074203
471.7793, 7.893982
472.2614, 7.398766
472.7436, 6.975266
473.2257, 6.989761
473.7078, 7.454147
474.1899, 7.660751
474.6720, 7.517097
475.1541, 7.218346
475.6363, 7.037964
476.1184, 6.949692
476.6005, 6.816116
477.0826, 6.603706
477.5647, 6.308640
478.0468, 5.811806
478.5290, 5.160461
479.0111, 4.713997
479.4932, 4.989822
479.9753, 5.518677
480.4574, 5.729568
480.9395, 5.382851
481.4217, 4.975960
481.9038, 4.722244
482.3859, 4.612701
482.8680, 4.653099
483.3501, 4.997337
483.8322, 5.349808
484.3144, 5.633934
484.7965, 5.831230
485.2786, 5.924454
485.7607, 5.826683
486.2428, 5.666275
486.7249, 5.543617
487.2071, 5.425850
487.6892, 5.356415
488.1713, 5.411240
488.6534, 5.446426
489.1355, 5.189690
489.6176, 4.459229
490.0998, 4.008812
490.5819, 4.141319
491.0640, 4.684471
491.5461, 4.713326
492.0282, 4.166153
492.5103, 3.573235
492.9925, 3.301933
493.4746, 3.306374
493.9567, 3.392036
494.4388, 3.574715
494.9209, 3.677208
495.4030, 3.285095
495.8852, 2.640457
496.3673, 2.373886
496.8494, 3.081429
497.3315, 3.921700
497.8136, 4.029846
498.2957, 3.544914
498.7779, 3.044907
499.2600, 2.761009
499.7421, 2.604912
500.2242, 2.537735
500.7063, 2.568382
501.1884, 2.643166
501.6706, 2.776039
502.1527, 2.931870
502.6348, 3.074348
503.1169, 3.342911
503.5990, 3.408333
504.0811, 3.177826
504.5633, 2.737694
505.0454, 2.373985
505.5275, 2.026863
506.0096, 1.811005
506.4917, 1.794144
506.9738, 1.978912
507.4560, 2.163879
507.9381, 2.387054
508.4202, 2.539024
508.9023, 2.490364
509.3844, 2.262383
509.8665, 1.965424
510.3487, 1.553261
510.8308, 1.151230
511.3129, 1.038185
511.7950, 1.203636
512.2772, 1.375031
512.7593, 1.276047
513.2414, 1.064621
513.7235, 0.9851460
514.2056, 1.064423
514.6877, 1.218491
515.1699, 1.441849
515.6520, 1.657471
516.1341, 1.802963
516.6162, 1.845535
517.0983, 1.856743
517.5804, 1.728622
518.0626, 1.620903
518.5447, 1.769997
519.0268, 2.816132
519.5089, 3.489037
519.9910, 3.349983
520.4731, 2.460503
520.9553, 1.802704
521.4374, 1.359947
521.9195, 1.191246
522.4016, 1.428070
522.8837, 2.196747
523.3658, 2.690956
523.8480, 2.885857
524.3301, 2.844917
524.8122, 2.524925
525.2943, 1.957947
525.7764, 1.614517
526.2585, 1.655540
526.7407, 1.946022
527.2228, 2.341728
527.7049, 2.824013
528.1870, 3.209808
528.6691, 3.447388
529.1512, 3.500435
529.6334, 3.209587
530.1155, 2.544960
530.5976, 2.048737
531.0797, 2.180565
531.5618, 2.571320
532.0439, 2.851425
532.5261, 2.830864
533.0082, 2.835274
533.4903, 3.015259
533.9724, 3.270378
534.4545, 3.389275
534.9366, 3.215271
535.4188, 3.064613
535.9009, 3.054588
536.3830, 3.178040
536.8651, 3.094551
537.3472, 2.737953
537.8293, 2.316803
538.3115, 1.901726
538.7936, 1.472267
539.2757, 1.432899
539.7578, 1.906281
540.2399, 2.483368
540.7220, 2.600502
541.2042, 2.317207
541.6863, 1.979950
542.1684, 1.654076
542.6505, 1.370247
543.1326, 1.129906
543.6147, 0.9554440
544.0969, 0.9329990
544.5790, 1.220184
545.0611, 1.608719
545.5432, 2.004372
546.0253, 2.408897
546.5074, 2.554291
546.9896, 2.073067
547.4717, 1.426224
547.9538, 0.9884720
548.4359, 1.066589
548.9180, 1.025818
549.4001, 0.6984180
549.8823, 0.2594910
550.3644, 8.4690005E-03
550.8465, 0.1206360
551.3286, 1.0475000E-02
551.8107, 0.4622420
552.2928, 1.205284
552.7750, 1.474724
553.2571, 1.201294
553.7392, 0.7958600
554.2213, 0.4627080
554.7034, 0.2190250
555.1855, 0.1239700
555.6677, 0.1831890
556.1498, 0.3353960
556.6319, 0.6018750
557.1140, 0.9053800
557.5961, 1.078194
558.0782, 1.039391
558.5604, 0.9099730
559.0425, 0.7204900
559.5246, 0.5148160
560.0067, 0.3922650
560.4888, 0.5788730
560.9709, 0.6909260
561.4531, 0.4744260
561.9352, 7.7033997E-02
562.4173, 0.4747090
562.8994, 0.6321640
563.3815, 0.6326220
563.8636, 0.4857330
564.3458, 7.3859997E-02
564.8279, 0.1745680
565.3100, 0.2363050
565.7921, 0.1688000
566.2742, 1.2024000E-02
566.7563, 0.3361740
567.2385, 0.4528960
567.7206, 0.1696930
568.2027, 0.2135770
568.6848, 0.1499020
569.1669, 1.141052
569.6490, 1.845047
570.1312, 1.500320
570.6133, 0.7086870
571.0954, 0.3691710
571.5775, 0.4680480
572.0596, 0.5757140
572.5417, 0.3800510
573.0239, 8.8913001E-02
573.5060, 0.1175380
573.9881, 0.1995320
574.4702, 0.2223130
574.9523, 1.8959001E-02
575.4344, 0.1525500
575.9166, 3.3569001E-02
576.3987, 1.170837
576.8808, 1.835747
577.3629, 1.679100
577.8450, 0.9928210
578.3271, 0.7673490
578.8093, 1.175049
579.2914, 1.520576
579.7735, 1.428703
580.2556, 0.9932020
580.7377, 1.006737
581.2198, 1.506371
581.7020, 2.007736
582.1841, 2.107880
582.6662, 1.903610
583.1483, 1.559601
583.6304, 1.056999
584.1125, 0.6787030
584.5947, 0.7784040
585.0768, 1.130928
585.5589, 1.421371
586.0410, 1.550186
586.5231, 1.587799
587.0052, 1.382256
587.4873, 1.097816
587.9694, 1.174561
588.4515, 2.249130
588.9337, 3.125763
589.4158, 3.422920
589.8979, 3.137260
590.3800, 2.795647
590.8621, 2.205307
591.3442, 1.897530
591.8264, 2.383614
592.3085, 3.745369
592.7906, 4.578583
593.2727, 4.785652
593.7548, 4.649963
594.2369, 4.317642
594.7191, 3.888382
595.2012, 3.818283
595.6833, 4.407539
596.1654, 5.013374
596.6475, 4.715454
597.1296, 3.883720
597.6118, 3.367500
598.0939, 3.925545
598.5760, 4.568848
599.0581, 4.717216
599.5402, 4.410149
600.0223, 4.167946
600.5045, 4.200912
600.9866, 4.244026
601.4687, 4.136765
601.9508, 3.785469
602.4329, 3.716148
602.9150, 4.024010
603.3972, 4.483124
603.8793, 4.960205
604.3614, 5.483780
604.8435, 5.725533
605.3256, 5.611671
605.8077, 5.274162
606.2899, 4.839348
606.7720, 4.337357
607.2541, 3.929077
607.7362, 3.629852
608.2183, 3.492149
608.7004, 3.681824
609.1826, 4.125923
609.6647, 4.513664
610.1468, 4.715202
610.6289, 4.789299
611.1110, 4.768547
611.5931, 4.656219
612.0753, 4.447464
612.5574, 3.904831
613.0395, 3.453476
613.5216, 3.365295
614.0037, 3.873062
614.4858, 4.138779
614.9680, 4.098907
615.4501, 3.901611
615.9322, 3.643890
616.4143, 3.307877
616.8964, 3.296333
617.3785, 3.828857
617.8607, 4.450218
618.3428, 4.235909
618.8249, 3.371208
619.3070, 2.632950
619.7891, 2.505623
620.2712, 2.564415
620.7534, 2.445602
621.2355, 2.183868
621.7176, 1.900085
622.1997, 1.617691
622.6818, 1.366852
623.1639, 1.174355
623.6461, 1.051170
624.1282, 0.9260410
624.6103, 0.6362080
625.0924, 0.4578860
625.5745, 0.6480790
626.0566, 1.485992
626.5388, 1.783897
627.0209, 1.267647
627.5030, 0.5024490
627.9851, 0.3749470
628.4672, 0.8767320
628.9493, 1.244568
629.4315, 1.242554
629.9136, 1.061844
630.3957, 1.055672
630.8778, 1.146645
631.3599, 1.084396
631.8420, 0.6062770
632.3242, 3.9131001E-02
632.8063, 0.5139690
633.2884, 0.9943080
633.7705, 1.098450
634.2526, 0.3012920
634.7347, 0.5212480
635.2169, 0.9561690
635.6990, 0.9337010
636.1811, 0.7908250
636.6632, 0.3791200
637.1453, 3.2889999E-02
637.6274, 6.4139999E-02
638.1096, 0.5658870
638.5917, 0.7647860
639.0738, 0.5681300
639.5559, 0.2335360
640.0380, 7.9689004E-02
640.5201, 6.9320999E-02
641.0023, 2.4490001E-02
641.4844, 0.1548160
641.9665, 0.2737880
642.4486, 9.0709999E-03
642.9307, 0.5048830
643.4128, 0.7978590
643.8950, 0.3287960
644.3771, 5.2029998E-03
644.8592, 0.4168550
645.3413, 1.417580
645.8234, 2.033562
646.3055, 1.564827
646.7877, 1.256050
647.2698, 1.628349
647.7519, 2.725220
648.2340, 3.221550
648.7161, 2.946548
649.1982, 2.537331
649.6804, 2.450378
650.1625, 2.654694
650.6446, 2.861496
651.1267, 3.051262
651.6088, 3.267914
652.0909, 3.651443
652.5731, 4.068947
653.0552, 4.221336
653.5373, 3.839409
654.0194, 3.667053
654.5015, 4.454498
654.9836, 5.666023
655.4658, 6.517639
655.9479, 6.390541
656.4300, 6.367630
656.9121, 6.709404
657.3942, 7.309563
657.8763, 7.871735
658.3585, 8.337486
658.8406, 8.922050
659.3227, 9.777908
659.8048, 10.80448
660.2869, 11.30325
660.7690, 11.24461
661.2512, 11.40028
661.7333, 12.65025
662.2154, 14.33591
662.6975, 15.05546
663.1796, 14.78413
663.6617, 14.47108
664.1439, 14.72976
664.6260, 15.26735
665.1081, 15.87164
665.5902, 16.56528
666.0723, 17.11046
666.5544, 17.43163
667.0366, 17.58985
667.5187, 17.62250
668.0008, 17.31966
668.4829, 17.35032
668.9650, 17.82088
669.4471, 18.56097
669.9293, 19.48098
670.4114, 20.58975
670.8935, 21.10081
671.3756, 20.60678
671.8577, 19.71489
672.3398, 19.35682
672.8220, 19.44392
673.3041, 19.67900
673.7862, 20.04845
674.2683, 20.39297
674.7504, 20.68090
675.2325, 20.86898
675.7147, 20.76440
676.1968, 20.03458
676.6789, 19.24707
677.1610, 18.71577
677.6431, 18.46304
678.1252, 17.86819
678.6074, 16.71163
679.0895, 15.63368
679.5716, 15.14462
680.0537, 15.24020
680.5358, 15.08721
681.0179, 14.66945
681.5001, 14.02683
681.9822, 12.95872
682.4643, 11.73888
682.9464, 11.04771
683.4285, 11.14118
683.9106, 11.17008
684.3928, 10.46124
684.8749, 9.367172
685.3570, 8.307823
685.8391, 7.100365
686.3212, 6.278763
686.8033, 6.334389
687.2855, 6.689659
687.7676, 6.367592
688.2497, 4.976341
688.7318, 3.903831
689.2139, 3.510162
689.6960, 3.541771
690.1782, 3.319801
690.6603, 2.849602
691.1424, 2.354881
691.6245, 1.902824
692.1066, 1.561394
692.5887, 1.439758
693.0709, 1.485321
693.5530, 1.449135
694.0351, 1.118294
694.5172, 0.7521510
694.9993, 0.4573290
695.4814, 0.2396010
695.9636, 0.2302250
696.4457, 0.6024170
696.9278, 1.037529
697.4099, 1.424286
697.8920, 1.786736
698.3741, 1.927528
698.8563, 1.739250
699.3384, 1.569008
699.8205, 1.962410
700.3026, 2.757271
700.7847, 2.863792
701.2668, 2.071907
701.7490, 1.332916
702.2311, 1.777939
702.7132, 2.763817
703.1953, 3.393379
703.6774, 3.334023
704.1595, 3.118454
704.6417, 2.757858
705.1238, 2.427139
705.6059, 2.384521
706.0880, 2.767578
706.5701, 3.220825
707.0522, 3.740730
707.5344, 4.294029
708.0165, 4.864700
708.4986, 5.468842
708.9807, 5.784973
709.4628, 5.578667
709.9449, 5.199837
710.4271, 5.382774
710.9092, 5.988281
711.3913, 6.506569
711.8734, 6.486328
712.3555, 6.437637
712.8376, 6.761627
713.3198, 7.395370
713.8019, 7.987900
714.2840, 8.592888
714.7661, 8.988640
715.2482, 9.055046
715.7303, 8.803818
716.2125, 8.527885
716.6946, 8.174820
717.1767, 7.934929
717.6588, 8.010483
718.1409, 8.337898
718.6230, 8.409767
719.1052, 8.221794
719.5873, 7.947975
720.0694, 7.660706
720.5515, 7.398178
721.0336, 7.226013
721.5157, 7.165390
721.9979, 7.075920
722.4800, 6.801384
722.9621, 6.526207
723.4442, 6.416466
723.9263, 6.644981
724.4084, 6.679123
724.8906, 6.412521
725.3727, 6.075645
725.8548, 5.916916
726.3369, 5.949310
726.8190, 5.950951
727.3011, 5.913528
727.7833, 5.787041
728.2654, 5.401054
728.7475, 4.859413
729.2296, 4.479416
729.7117, 4.393631
730.1938, 4.403328
730.6760, 4.498260
731.1581, 4.543304
731.6402, 4.438789
732.1223, 3.997681
732.6044, 3.685966
733.0865, 3.759262
733.5687, 3.928757
734.0508, 3.453094
734.5329, 2.061462
735.0150, 1.220039
735.4971, 1.513695
735.9792, 2.352097
736.4614, 2.337677
736.9435, 1.619637
737.4256, 0.9660340
737.9077, 0.7046430
738.3898, 0.7222140
738.8719, 1.200775
739.3541, 1.913628
739.8362, 2.162964
740.3183, 1.013573
740.8004, 9.8517999E-02
741.2825, 0.1868900
741.7646, 1.083771
742.2468, 1.644859
742.7289, 1.875351
743.2110, 1.854507
743.6931, 1.410095
744.1752, 0.6551670
744.6573, 0.5451510
745.1395, 1.062828
745.6216, 1.444801
746.1037, 0.8387450
746.5858, 3.1394999E-02
747.0679, 0.1662900
747.5500, 0.4494320
748.0322, 0.9657670
748.5143, 1.011139
748.9964, 0.8248370
749.4785, 0.4632640
749.9606, 0.1691280
750.4427, 0.4212110
750.9249, 0.1776120
751.4070, 0.2403260
751.8891, 0.7041320
752.3712, 1.210999
752.8533, 1.324097
753.3354, 1.007416
753.8176, 0.5848240
754.2997, 0.3806610
754.7818, 0.2645340
755.2639, 6.8253003E-02
755.7460, 0.7441180
756.2281, 1.143692
756.7103, 0.7397610
757.1924, 4.0824998E-02
757.6745, 0.5240100
758.1566, 0.8890080
758.6387, 1.148483
759.1208, 1.338951
759.6030, 1.381721
760.0851, 1.091713
760.5672, 0.4451680
761.0493, 0.1098860
761.5314, 0.1707380
762.0135, 0.5003660
762.4957, 1.136444
762.9778, 1.891426
763.4599, 2.436790
763.9420, 2.711838
764.4241, 2.683464
764.9063, 2.066856
765.3884, 1.243553
765.8705, 0.6819310
766.3526, 0.5371320
766.8347, 0.5559080
767.3168, 0.8457410
767.7990, 1.189445
768.2811, 1.181419
768.7632, 0.7938540
769.2453, 0.6902160
769.7274, 1.103546
770.2095, 1.600380
770.6917, 1.405510
771.1738, 0.8357010
771.6559, 0.6162800
772.1380, 1.383568
772.6201, 2.029114
773.1022, 1.677887
773.5844, 0.8689880
774.0665, 0.5637820
774.5486, 1.490868
775.0307, 2.014404
775.5128, 1.758766
775.9949, 1.104919
776.4771, 0.9486770
776.9592, 1.310165
777.4413, 1.538658
777.9234, 1.376648
778.4055, 1.095772
778.8876, 1.162804
779.3698, 1.451447
779.8519, 1.636452
780.3340, 1.507118
780.8161, 1.305435
781.2982, 1.070969
781.7803, 0.8478930
782.2625, 0.7658310
782.7446, 0.9579240
783.2267, 1.079063
783.7088, 1.064705
784.1909, 0.9309770
784.6730, 0.6150820
785.1552, 0.1190570
785.6373, 1.8936001E-02
786.1194, 0.7214430
786.6015, 1.587440
787.0836, 1.225342
787.5657, 5.1430002E-02
788.0479, 0.7813870
788.5300, 0.4079210
789.0121, 0.1001280
789.4942, 0.2959370
789.9763, 0.2431870
790.4584, 0.2362520
790.9406, 0.2752080
791.4227, 0.3809890
791.9048, 0.6070710
792.3869, 0.8776320
792.8690, 0.8824840
793.3511, 0.6442950
793.8333, 0.5214460
794.3154, 0.8765720
794.7975, 1.271690
795.2796, 1.054443
795.7617, 0.4070660
796.2438, 7.7712998E-02
796.7260, 6.2714003E-02
797.2081, 0.1760250
797.6902, 0.1431120
798.1723, 0.7170330
798.6544, 0.7764970
799.1365, 5.3817999E-02
799.6187, 0.4489520
800.1008, 0.2729640
800.5829, 0.2688060
801.0650, 0.1800840
801.5471, 0.4547880
802.0292, 1.100525
802.5114, 1.517838
802.9935, 1.775421
803.4756, 1.905159
803.9577, 1.920799
804.4398, 1.864990
804.9219, 1.581909
805.4041, 1.423523
805.8862, 1.560356
806.3683, 1.892326
806.8504, 1.985481
807.3325, 1.794937
807.8146, 1.579185
808.2968, 1.442390
808.7789, 1.350517
809.2610, 1.168480
809.7431, 0.9085390
810.2252, 0.6450810
810.7073, 0.3697970
811.1895, 0.1489030
811.6716, 5.7785001E-02
812.1537, 0.1908040
812.6358, 2.5192000E-02
813.1179, 0.8809050
813.6000, 1.482300
814.0822, 1.481987
814.5643, 1.094215
815.0464, 0.8514630
815.5285, 0.7174380
816.0106, 0.9085690
816.4927, 1.769775
816.9749, 2.741364
817.4570, 2.884682
817.9391, 2.420044
818.4212, 1.986313
818.9033, 2.002869
819.3854, 1.973343
819.8676, 1.500168
820.3497, 0.8097460
820.8318, 0.6903690
821.3139, 1.424515
821.7960, 2.076958
822.2781, 2.446182
822.7603, 2.562950
823.2424, 2.453262
823.7245, 2.146339
824.2066, 1.832169
824.6887, 1.523064
825.1708, 1.315598
825.6530, 1.385170
826.1351, 1.615967
826.6172, 1.748375
827.0993, 1.667519
827.5814, 1.527458
828.0635, 1.310936
828.5457, 1.082008
829.0278, 1.000839
829.5099, 1.107384
829.9920, 1.096512
830.4741, 0.8227230
830.9562, 0.5226900
831.4384, 0.6342090
831.9205, 1.033165
832.4026, 1.405228
832.8847, 1.702988
833.3668, 1.853630
833.8489, 1.639275
834.3311, 1.303696
834.8132, 1.301575
835.2953, 1.930168
835.7774, 2.255531
836.2595, 2.111633
836.7416, 1.734299
837.2238, 1.429993
837.7059, 1.206093
838.1880, 1.213448
838.6701, 1.531189
839.1522, 1.958641
839.6343, 2.482346
840.1165, 2.923355
840.5986, 3.006119
841.0807, 2.239197
841.5628, 1.725868
842.0449, 1.950935
842.5270, 2.384460
843.0092, 2.479958
843.4913, 2.161682
843.9734, 1.900558
844.4555, 1.689545
844.9376, 1.701767
845.4197, 2.334000
845.9019, 3.160988
846.3840, 3.518456
846.8661, 3.219238
847.3482, 2.771858
847.8303, 2.321434
848.3124, 1.941322
848.7946, 1.710663
849.2767, 1.692680
849.7588, 1.679321
850.2409, 1.687477
850.7230, 1.668945
851.2051, 1.496201
851.6873, 1.218971
852.1694, 1.255539
852.6515, 1.641945
853.1336, 2.081207
853.6157, 2.362617
854.0978, 2.535027
854.5800, 2.700432
855.0621, 2.869095
855.5442, 2.956161
856.0263, 2.921547
856.5084, 2.821907
856.9905, 2.671089
857.4727, 2.444832
857.9548, 2.493790
858.4369, 2.826019
858.9190, 3.104263
859.4011, 3.088852
859.8832, 2.886543
860.3654, 2.532951
860.8475, 2.027321
861.3296, 1.695732
861.8117, 1.898094
862.2938, 2.117348
862.7759, 2.010826
863.2581, 1.610405
863.7402, 1.528671
864.2223, 1.907654
864.7044, 2.105301
865.1865, 1.695702
865.6686, 1.037521
866.1508, 1.192177
866.6329, 1.939743
867.1150, 2.456230
867.5971, 1.989319
868.0792, 1.462555
868.5613, 1.506798
869.0435, 1.933434
869.5256, 2.136635
870.0077, 1.841438
870.4898, 1.695526
870.9719, 1.903931
871.4540, 2.253456
871.9362, 2.307907
872.4183, 2.100632
872.9004, 1.864883
873.3825, 1.596001
873.8646, 1.490364
874.3467, 2.002403
874.8289, 2.735565
875.3110, 3.078613
875.7931, 2.540428
876.2752, 2.058815
876.7573, 1.708153
877.2394, 1.456017
877.7216, 1.279945
878.2037, 1.185249
878.6858, 1.056961
879.1679, 0.8673630
879.6500, 0.7267990
880.1321, 0.7662810
880.6143, 0.9273910
881.0964, 1.147881
881.5785, 1.441971
882.0606, 1.674294
882.5427, 1.870934
883.0248, 1.921623
883.5070, 1.685135
883.9891, 1.043030
884.4712, 0.9335630
884.9533, 1.475296
885.4354, 1.946785
885.9175, 1.616577
886.3997, 0.8567660
886.8818, 0.3913960
887.3639, 0.2450330
887.8460, 0.2932130
888.3281, 0.6335910
888.8102, 0.9951100
889.2924, 1.282211
889.7745, 1.483444
890.2566, 1.452339
890.7387, 1.127975
891.2208, 0.7390900
891.7029, 0.2767640
892.1851, 0.1170810
892.6672, 9.6703000E-02
893.1493, 0.7593770
893.6314, 1.180092
894.1135, 0.7172850
894.5956, 0.2169650
895.0778, 0.1703490
895.5599, 0.4391780
896.0420, 0.7093120
896.5241, 1.156830
897.0062, 1.221489
897.4883, 0.6439820
897.9705, 0.1159360
898.4526, 0.1211930
898.9347, 0.4710460
899.4168, 0.9488600
899.8989, 1.153915
900.3810, 1.151634
900.8632, 0.8870320
901.3453, 0.4985730
901.8274, 0.1229860
902.3095, 0.3936610
902.7916, 0.5048600
903.2737, 4.0924001E-02
903.7559, 0.5775680
904.2380, 1.004585
904.7201, 1.250343
905.2022, 1.373344
905.6843, 1.382088
906.1664, 1.311111
906.6486, 1.149315
907.1307, 0.9422990
907.6128, 0.6500550
908.0949, 0.2568130
908.5770, 0.1670230
909.0591, 0.7367250
909.5413, 1.182793
910.0234, 1.125648
910.5055, 0.6687160
910.9876, 0.4497680
911.4697, 0.4598160
911.9518, 0.5213390
912.4340, 0.5548780
912.9161, 0.5765380
913.3982, 0.6044310
913.8803, 0.6331100
914.3624, 0.6468200
914.8445, 0.6487350
915.3267, 0.6265260
915.8088, 0.6089780
916.2909, 0.5429380
916.7730, 0.2086330
917.2551, 0.3808520
917.7372, 0.5354000
918.2194, 3.0792000E-02
918.7015, 0.6526490
919.1836, 0.4680020
919.6657, 5.8182001E-02
920.1478, 0.2710040
920.6299, 0.1692730
921.1121, 0.5266040
921.5942, 0.7603150
922.0763, 0.8189850
922.5584, 0.5578000
923.0405, 4.5990001E-02
923.5226, 0.1944270
924.0048, 0.1582490
924.4869, 0.5832980
924.9690, 0.8432770
925.4511, 0.9178090
925.9332, 0.6629560
926.4153, 0.1006390
926.8975, 0.2435460
927.3796, 6.1165001E-02
927.8617, 0.1868440
928.3438, 0.3343050
928.8259, 0.4231950
929.3080, 0.8024220
929.7902, 1.462601
930.2723, 1.738518
930.7544, 1.088501
931.2365, 0.1989360
931.7186, 0.3084640
932.2007, 0.4268260
932.6829, 0.1435930
933.1650, 1.180717
933.6471, 2.046112
934.1292, 2.090317
934.6113, 1.759399
935.0934, 1.660133
935.5756, 1.789726
936.0577, 1.928185
936.5398, 2.058746
937.0219, 2.096077
937.5040, 1.885315
937.9861, 1.570915
938.4683, 1.325233
938.9504, 1.192474
939.4325, 1.032433
939.9146, 0.7155380
940.3967, 0.5092700
940.8788, 0.6130140
941.3610, 0.9902110
941.8431, 1.129036
942.3252, 1.039139
942.8073, 0.9820710
943.2894, 1.298828
943.7715, 1.581482
944.2537, 1.293411
944.7358, 0.6188050
945.2179, 0.2681960
945.7000, 0.7921980
946.1821, 1.102051
946.6642, 0.9078900
947.1464, 0.4931720
947.6285, 0.4812390
948.1106, 0.8226850
948.5927, 1.171394
949.0748, 1.475136
949.5569, 1.642120
950.0391, 1.580208
950.5212, 1.354492
951.0033, 0.9765630
951.4854, 0.2683030
951.9675, 0.2093890
952.4496, 0.4927440
952.9318, 0.4805910
953.4139, 0.1465760
953.8960, 1.201271
954.3781, 1.441185
954.8602, 0.8957140
955.3423, 0.4557340
955.8245, 0.9073100
956.3066, 1.493935
956.7887, 1.643143
957.2708, 1.386192
957.7529, 1.332184
958.2350, 1.588158
958.7172, 1.869507
959.1993, 2.177063
959.6814, 2.359077
960.1635, 1.918793
960.6456, 1.070450
961.1277, 0.4781490
961.6099, 0.4438630
962.0920, 0.4539030
962.5741, 0.1064220
963.0562, 0.2840650
963.5383, 0.3428880
964.0204, 5.7342999E-02
964.5026, 0.4399570
964.9847, 0.8021010
965.4668, 1.134346
965.9489, 1.523613
966.4310, 1.842682
966.9131, 1.759926
967.3953, 1.283440
967.8774, 0.8442150
968.3595, 0.6017380
968.8416, 0.5099260
969.3237, 0.5679860
969.8058, 0.7582400
970.2880, 1.096451
970.7701, 1.633926
971.2522, 1.887009
971.7343, 1.618050
972.2164, 1.114159
972.6985, 0.6415180
973.1807, 0.2639920
973.6628, 0.1189580
974.1449, 0.4787980
974.6270, 0.6746670
975.1091, 0.3199770
975.5912, 4.0398002E-02
976.0734, 0.2067340
976.5555, 1.048302
977.0376, 1.659950
977.5197, 1.991890
978.0018, 1.943825
978.4839, 0.8986510
978.9661, 0.1528850
979.4482, 0.1217350
979.9303, 1.684494
980.4124, 2.417076
980.8945, 1.347290
981.3766, 0.4642410
981.8588, 0.4275670
982.3409, 0.9220580
982.8230, 1.110802
983.3051, 1.054779
983.7872, 1.082352
984.2693, 1.348289
984.7515, 1.633698
985.2336, 1.953278
985.7157, 2.178574
986.1978, 2.075417
986.6799, 1.129250
987.1620, 1.181046
987.6442, 2.597458
988.1263, 3.986160
988.6084, 3.764824
989.0905, 2.624687
989.5726, 2.363380
990.0547, 2.989845
990.5369, 3.422607
991.0190, 2.744598
991.5011, 2.061157
991.9832, 1.899445
992.4653, 2.164192
992.9474, 2.676926
993.4296, 3.512527
993.9117, 3.791786
994.3938, 3.060760
994.8759, 2.093460
995.3580, 1.877495
995.8401, 2.156441
996.3223, 2.554237
996.8044, 3.214912
997.2865, 3.429733
997.7686, 2.820892
998.2507, 2.099129
998.7328, 1.716469
999.2150, 1.677452
999.6971, 2.209419
1000.179, 3.279800
1000.661, 4.194481
1001.143, 4.411346
1001.626, 4.333603
1002.108, 4.123940
1002.590, 3.867531
1003.072, 3.935089
1003.554, 4.581985
1004.036, 4.928230
1004.518, 4.682396
1005.000, 4.260437
1005.482, 4.473106
1005.965, 5.076996
1006.447, 5.390190
1006.929, 5.173965
1007.411, 4.985512
1007.893, 5.076279
1008.375, 5.322144
1008.857, 5.654846
1009.339, 6.092369
1009.822, 6.334732
1010.304, 6.351860
1010.786, 6.409691
1011.268, 6.818153
1011.750, 7.258469
1012.232, 7.252960
1012.714, 6.958252
1013.196, 6.830666
1013.678, 7.431969
1014.161, 7.601891
1014.643, 7.029785
1015.125, 6.140488
1015.607, 5.444069
1016.089, 4.973679
1016.571, 4.943512
1017.053, 5.453224
1017.535, 5.810020
1018.018, 5.212364
1018.500, 4.459938
1018.982, 4.272064
1019.464, 4.706299
1019.946, 4.751213
1020.428, 4.298965
1020.910, 3.844505
1021.392, 3.582123
1021.874, 3.492844
1022.357, 3.610481
1022.839, 3.838074
1023.321, 3.946739
1023.803, 3.790451
1024.285, 3.590370
1024.767, 3.363884
1025.249, 3.142838
1025.731, 2.907333
1026.214, 2.652374
1026.696, 2.768074
1027.178, 3.284027
1027.660, 3.796539
1028.142, 4.128830
1028.624, 4.214531
1029.106, 3.851944
1029.588, 3.118828
1030.070, 2.638062
1030.553, 2.517937
1031.035, 2.462570
1031.517, 2.386841
1031.999, 2.364731
1032.481, 2.658638
1032.963, 3.100082
1033.445, 3.216637
1033.927, 2.790108
1034.410, 2.423218
1034.892, 2.438408
1035.374, 2.569839
1035.856, 2.673744
1036.338, 2.747833
1036.820, 2.528839
1037.302, 2.016647
1037.784, 1.678635
1038.266, 1.969711
1038.749, 2.436523
1039.231, 2.705116
1039.713, 2.785835
1040.195, 2.682793
1040.677, 2.252838
1041.159, 1.902710
1041.641, 1.664360
1042.123, 1.512627
1042.605, 1.431244
1043.088, 1.408089
1043.570, 1.452354
1044.052, 1.564125
1044.534, 1.558273
1045.016, 1.261826
1045.498, 0.8851240
1045.980, 0.3784640
1046.462, 0.1200940
1046.945, 0.2287450
1047.427, 1.471130
1047.909, 2.268318
1048.391, 2.020470
1048.873, 1.521721
1049.355, 1.607567
1049.837, 1.971786
1050.319, 2.191086
1050.802, 1.999931
1051.284, 2.131180
1051.766, 2.828056
1052.248, 3.315483
1052.730, 2.847717
1053.212, 1.752342
1053.694, 1.130829
1054.176, 0.9591140
1054.658, 1.019089
1055.141, 1.477776
1055.623, 1.820114
1056.105, 1.733261
1056.587, 1.516518
1057.069, 1.681793
1057.551, 2.265289
1058.033, 2.572891
1058.515, 2.463882
1058.997, 2.237808
1059.480, 2.150085
1059.962, 2.146240
1060.444, 2.207687
1060.926, 2.325363
1061.408, 2.220825
1061.890, 1.792191
1062.372, 1.393188
1062.854, 1.117386
1063.337, 0.9837880
1063.819, 1.070496
1064.301, 1.315773
1064.783, 1.653503
1065.265, 2.190102
1065.747, 2.507515
1066.229, 2.347946
1066.711, 2.051781
1067.193, 1.837708
1067.676, 1.696281
1068.158, 1.277687
1068.640, 0.6295090
1069.122, 0.2937850
1069.604, 0.8924180
1070.086, 1.602829
1070.568, 1.984344
1071.050, 2.069527
1071.532, 1.962547
1072.015, 1.659958
1072.497, 1.122124
1072.979, 0.2419430
1073.461, 0.4421540
1073.943, 9.1949001E-02
1074.425, 0.6666110
1074.907, 0.9073330
1075.389, 0.5751650
1075.872, 0.3840180
1076.354, 0.6091380
1076.836, 0.8805620
1077.318, 1.181412
1077.800, 1.379959
1078.282, 0.8801880
1078.764, 1.2321000E-02
1079.246, 8.4690005E-03
1079.729, 1.587715
1080.211, 2.788452
1080.693, 2.008667
1081.175, 0.8131710
1081.657, 0.4275440
1082.139, 0.8510130
1082.621, 1.093826
1083.103, 1.157303
1083.585, 1.059113
1084.068, 0.6298520
1084.550, 0.2356720
1085.032, 0.3036270
1085.514, 0.6395110
1085.996, 0.8972700
1086.478, 0.9895170
1086.960, 1.135208
1087.442, 1.405716
1087.924, 1.527115
1088.406, 1.024399
1088.889, 0.2903520
1089.371, 0.1284030
1089.853, 0.4796830
1090.335, 0.7261200
1090.817, 0.5495760
1091.299, 0.3501360
1091.781, 0.2106400
1092.263, 0.1134110
1092.746, 1.1604000E-02
1093.228, 0.1323780
1093.710, 4.6119999E-02
1094.192, 0.3011400
1094.674, 0.6602020
1095.156, 1.047943
1095.638, 1.226082
1096.120, 0.8777620
1096.603, 0.1411440
1097.085, 4.6500999E-02
1097.567, 0.3417510
1098.049, 0.7616200
1098.531, 1.072746
1099.013, 1.206154
1099.495, 0.8989790
1099.977, 0.4671250
1100.459, 0.3486480
1100.942, 0.7879180
1101.424, 0.9647450
1101.906, 0.8203050
1102.388, 0.5993500
1102.870, 0.4018710
1103.352, 0.2675480
1103.834, 0.2670210
1104.316, 0.3908840
1104.798, 0.6183090
1105.281, 1.268829
1105.763, 1.526512
1106.245, 1.161461
1106.727, 0.5801770
1107.209, 0.1501010
1107.691, 0.1094890
1108.173, 6.6597000E-02
1108.655, 0.6419450
1109.138, 0.9459840
1109.620, 0.1650540
1110.102, 0.4925380
1110.584, 0.2924800
1111.066, 0.3375550
1111.548, 0.4332660
1112.030, 2.2353999E-02
1112.512, 0.1142880
1112.995, 0.1784970
1113.477, 0.4727860
1113.959, 0.4035110
1114.441, 0.1493300
1114.923, 0.2595210
1115.405, 0.7897340
1115.887, 0.8639760
1116.369, 0.4131850
1116.851, 0.1256410
1117.333, 0.6646650
1117.816, 1.084511
1118.298, 1.178230
1118.780, 1.070473
1119.262, 0.9410860
1119.744, 0.8423000
1120.226, 0.6388470
1120.708, 0.2328950
1121.190, 3.3585001E-02
1121.673, 0.1230620
1122.155, 0.5069890
1122.637, 0.6540070
1123.119, 0.6324540
1123.601, 0.6294780
1124.083, 0.8797230
1124.565, 0.9100190
1125.047, 0.5323560
1125.530, 8.2549997E-02
1126.012, 0.1679150
1126.494, 0.2253190
1126.976, 0.1532520
1127.458, 6.1287001E-02
1127.940, 0.5407030
1128.422, 1.748909
1128.904, 2.798653
1129.386, 3.442421
1129.869, 3.611595
1130.351, 2.844635
1130.833, 1.168137
1131.315, 0.5431140
1131.797, 1.280968
1132.279, 2.047501
1132.761, 1.676781
1133.243, 1.041809
1133.725, 0.6410750
1134.208, 0.5410230
1134.690, 0.9978180
1135.172, 2.150513
1135.654, 2.713638
1136.136, 2.270592
1136.618, 1.613327
1137.100, 1.654816
1137.582, 1.940781
1138.065, 1.937737
1138.547, 1.521194
1139.029, 1.331253
1139.511, 1.419342
1139.993, 1.594040
1140.475, 1.836952
1140.957, 2.033401
1141.439, 1.931068
1141.922, 1.677620
1142.404, 1.512810
1142.886, 1.487488
1143.368, 1.625748
1143.850, 2.066093
1144.332, 2.346420
1144.814, 2.036911
1145.296, 1.433884
1145.778, 1.325981
1146.260, 1.584946
1146.743, 1.829926
1147.225, 1.835159
1147.707, 1.933975
1148.189, 2.363213
1148.671, 2.646896
1149.153, 2.155945
1149.635, 1.133034
1150.117, 0.8467860
1150.600, 1.226944
1151.082, 1.566093
1151.564, 1.584450
1152.046, 1.422691
1152.528, 1.032494
1153.010, 0.5803530
1153.492, 0.1824490
1153.974, 0.1217420
1154.457, 0.2048720
1154.939, 1.175896
1155.421, 1.931824
1155.903, 1.821915
1156.385, 1.483879
1156.867, 1.220688
1157.349, 1.023010
1157.831, 0.8347930
1158.313, 0.6515660
1158.796, 0.6306760
1159.278, 0.8137660
1159.760, 1.031807
1160.242, 1.131752
1160.724, 1.213951
1161.206, 1.309288
1161.688, 1.449196
1162.170, 1.919289
1162.652, 2.787346
1163.135, 3.252266
1163.617, 3.034409
1164.099, 2.536934
1164.581, 1.963409
1165.063, 1.471764
1165.545, 1.280334
1166.027, 1.458443
1166.509, 1.485611
1166.992, 1.329437
1167.474, 1.198921
1167.956, 1.205437
1168.438, 1.191200
1168.920, 0.6706470
1169.402, 4.4052001E-02
1169.884, 2.7832000E-02
1170.366, 0.8769530
1170.849, 1.296997
1171.331, 1.071396
1171.813, 0.8992160
1172.295, 1.271385
1172.777, 1.826561
1173.259, 2.033943
1173.741, 2.005371
1174.223, 1.929085
1174.705, 1.781898
1175.188, 1.663414
1175.670, 1.553650
1176.152, 1.521156
1176.634, 1.767937
1177.116, 2.052116
1177.598, 1.744011
1178.080, 1.056160
1178.562, 0.6448820
1179.044, 0.9745100
1179.527, 1.208687
1180.009, 1.229088
1180.491, 1.224319
1180.973, 1.450439
1181.455, 1.774490
1181.937, 1.862045
1182.419, 1.742096
1182.901, 1.620964
1183.384, 1.553024
1183.866, 1.515015
1184.348, 1.537880
1184.830, 1.574196
1185.312, 1.617256
1185.794, 1.601799
1186.276, 1.288124
1186.758, 0.6984940
1187.240, 0.2957530
1187.723, 0.2666630
1188.205, 0.4044110
1188.687, 0.7203370
1189.169, 1.132256
1189.651, 1.672256
1190.133, 2.182922
1190.615, 2.010979
1191.097, 1.069145
1191.579, 0.3623660
1192.062, 0.3430180
1192.544, 0.6746750
1193.026, 1.444565
1193.508, 2.269943
1193.990, 2.119820
1194.472, 1.299133
1194.954, 0.9185100
1195.436, 1.223419
1195.919, 1.547417
1196.401, 1.528442
1196.883, 1.553993
1197.365, 1.884132
1197.847, 2.301575
1198.329, 1.999985
1198.811, 1.206291
1199.293, 0.8279720
1199.776, 1.159859
1200.258, 1.574379
1200.740, 1.903358
1201.222, 2.105911
1201.704, 2.170242
1202.186, 2.089752
1202.668, 1.768425
1203.150, 1.269676
1203.632, 0.8322370
1204.115, 0.5114060
1204.597, 0.3246460
1205.079, 0.3151250
1205.561, 0.4264220
1206.043, 0.6619640
1206.525, 0.9889680
1207.007, 1.325241
1207.489, 1.592178
1207.971, 1.426788
1208.454, 0.3419800
1208.936, 0.4953460
1209.418, 0.3799670
1209.900, 1.5106000E-02
1210.382, 0.1963270
1210.864, 0.2597200
1211.346, 5.5594999E-02
1211.828, 0.3374100
1212.311, 0.4412000
1212.793, 0.1654510
1213.275, 0.7305760
1213.757, 1.040497
1214.239, 1.146179
1214.721, 0.9754790
1215.203, 0.5921100
1215.685, 0.5324170
1216.167, 0.7401890
1216.650, 0.9156420
1217.132, 0.8695220
1217.614, 0.8238450
1218.096, 0.8699040
1218.578, 0.9207150
1219.060, 0.8485790
1219.542, 0.7107700
1220.024, 0.8710020
1220.506, 1.268196
1220.989, 1.532448
1221.471, 1.309364
1221.953, 1.162148
1222.435, 1.357628
1222.917, 1.564133
1223.399, 1.294716
1223.881, 0.7722470
1224.363, 0.7124560
1224.846, 1.058929
1225.328, 1.286217
1225.810, 0.9410630
1226.292, 0.7086640
1226.774, 0.7873920
1227.256, 0.9931180
1227.738, 1.099998
1228.220, 1.153816
1228.703, 1.315269
1229.185, 1.574265
1229.667, 1.799057
1230.149, 2.011597
1230.631, 2.042343
1231.113, 1.754311
1231.595, 1.438271
1232.077, 1.519753
1232.559, 1.852264
1233.042, 2.075592
1233.524, 2.145439
1234.006, 2.023026
1234.488, 1.317978
1234.970, 0.9899370
1235.452, 1.371895
1235.934, 1.865349
1236.416, 1.484497
1236.898, 0.6816020
1237.381, 0.5849380
1237.863, 1.197563
1238.345, 1.596977
1238.827, 1.166374
1239.309, 1.041878
1239.791, 1.534050
1240.273, 2.129959
1240.755, 2.127388
1241.238, 1.753395
1241.720, 1.293404
1242.202, 0.8050920
1242.684, 0.6838000
1243.166, 1.257645
1243.648, 1.440941
1244.130, 0.7337950
1244.612, 0.2391280
1245.094, 0.2469710
1245.577, 0.2283480
1246.059, 0.6607130
1246.541, 1.002411
1247.023, 1.237167
1247.505, 1.407570
1247.987, 1.286491
1248.469, 0.7078250
1248.951, 0.2396090
1249.433, 0.8512270
1249.916, 1.786774
1250.398, 2.137741
1250.880, 1.840012
1251.362, 1.501549
1251.844, 1.073448
1252.326, 0.9361420
1252.808, 1.225197
1253.290, 1.584946
1253.773, 1.587799
1254.255, 1.503365
1254.737, 1.646683
1255.219, 1.995888
1255.701, 2.159645
1256.183, 2.133018
1256.665, 1.878029
1257.147, 1.300377
1257.630, 0.8915560
1258.112, 1.322983
1258.594, 1.883118
1259.076, 1.885574
1259.558, 1.461525
1260.040, 1.230522
1260.522, 1.200233
1261.004, 1.159668
1261.486, 1.462624
1261.969, 1.710648
1262.451, 1.800476
1262.933, 1.621254
1263.415, 0.9128270
1263.897, 2.8396999E-02
1264.379, 5.3222999E-02
1264.861, 0.7071690
1265.343, 1.364967
1265.825, 1.758209
1266.308, 1.760811
1266.790, 0.7191390
1267.272, 5.9096999E-02
1267.754, 0.1949080
1268.236, 1.010689
1268.718, 1.135445
1269.200, 0.7621540
1269.682, 0.5295640
1270.165, 0.5715100
1270.647, 0.5956650
1271.129, 0.6615070
1271.611, 0.7508240
1272.093, 0.8719180
1272.575, 1.015793
1273.057, 0.8265460
1273.539, 0.4997020
1274.021, 0.6155780
1274.504, 1.335640
1274.986, 1.524147
1275.468, 0.6319500
1275.950, 4.6999999E-03
1276.432, 0.0000000E+00
##END=



