##NAMES=Enargite
##RRUFFID=R050442
##IDEAL CHEMISTRY=Cu_3_AsS_4_
##LOCALITY=Butte, Silver Bow County, Montana, USA
##OWNER=RRUFF
##SOURCE=University of Arizona Mineral Museum
##DESCRIPTION=Black prismatic crystals associated with pyrite
##STATUS=The identification of this mineral has been confirmed by X-ray diffraction and chemical analysis
##URL=rruff.info/R050442
##MEASURED CHEMISTRY=Cu_2.98_As_0.97_Sb_0.03_S_4_
143.401, 0.000
144.787, 82.987
146.172, 24.949
147.557, 64.054
148.942, 129.246
150.327, 3.315
151.711, 90.171
153.096, 88.934
154.480, 227.609
155.863, 249.854
157.247, 263.029
158.630, 293.354
160.013, 310.226
161.396, 428.017
162.779, 457.706
164.161, 560.781
165.544, 493.838
166.926, 497.139
168.308, 458.109
169.689, 462.809
171.070, 413.288
172.452, 363.308
173.833, 306.216
175.213, 247.438
176.594, 159.412
177.974, 165.236
179.354, 150.333
180.734, 79.086
182.114, 60.256
183.493, 36.946
184.872, 104.530
186.251, 104.494
187.630, 162.290
189.008, 74.555
190.387, 107.468
191.765, 69.049
193.143, 152.834
194.520, 120.581
195.898, 110.362
197.275, 136.170
198.652, 135.001
200.029, 127.848
201.405, 103.709
202.782, 159.581
204.158, 136.458
205.534, 234.333
206.909, 243.198
208.285, 210.047
209.660, 135.881
211.035, 112.702
212.410, 103.466
213.784, 234.458
215.159, 105.708
216.533, 105.695
217.907, 92.701
219.281, 5.231
220.654, 36.823
222.027, 58.006
223.400, 40.830
224.773, 29.755
226.146, 1.623
227.518, 49.575
228.891, 24.154
230.263, 0.176
231.634, 44.441
233.006, 28.981
234.377, 38.431
235.748, 52.559
237.119, 114.402
238.490, 96.901
239.860, 164.403
241.231, 189.907
242.601, 222.408
243.970, 278.901
245.340, 327.303
246.709, 392.820
248.079, 460.233
249.448, 581.608
250.816, 673.944
252.185, 814.490
253.553, 998.417
254.921, 1106.752
256.289, 1464.956
257.657, 1611.134
259.024, 1966.287
260.391, 2183.652
261.758, 2542.499
263.125, 2563.556
264.492, 2648.547
265.858, 2641.410
267.224, 2476.161
268.590, 2396.848
269.956, 2149.441
271.321, 2159.971
272.687, 2070.473
274.052, 1820.953
275.416, 1603.525
276.781, 1444.535
278.146, 1156.823
279.510, 1075.155
280.874, 789.518
282.237, 613.421
283.601, 557.281
284.964, 471.360
286.327, 360.550
287.690, 395.741
289.053, 343.979
290.416, 202.777
291.778, 276.861
293.140, 198.497
294.502, 203.113
295.863, 182.944
297.225, 77.577
298.586, 117.403
299.947, 125.431
301.308, 143.484
302.668, 95.255
304.029, 186.331
305.389, 191.613
306.749, 264.778
308.108, 289.034
309.468, 362.272
310.827, 474.472
312.186, 534.369
313.545, 580.337
314.903, 696.735
316.262, 819.622
317.620, 834.052
318.978, 1070.649
320.336, 1188.256
321.693, 1334.945
323.051, 1877.260
324.408, 1991.090
325.765, 2128.099
327.121, 2772.344
328.478, 3355.452
329.834, 4306.272
331.190, 5725.984
332.546, 7362.615
333.902, 9113.218
335.257, 10972.817
336.612, 11668.568
337.967, 11601.932
339.322, 10173.447
340.677, 8337.601
342.031, 6327.017
343.385, 4601.129
344.739, 3308.991
346.093, 2359.664
347.446, 1694.569
348.799, 1145.899
350.153, 885.238
351.505, 730.638
352.858, 576.347
354.210, 463.497
355.563, 346.045
356.915, 266.221
358.267, 243.156
359.618, 205.088
360.969, 241.220
362.321, 245.224
363.672, 290.310
365.022, 327.052
366.373, 348.984
367.723, 364.886
369.073, 473.106
370.423, 632.421
371.773, 871.622
373.122, 1040.588
374.471, 1329.286
375.821, 1868.908
377.169, 2613.023
378.518, 3581.698
379.866, 4477.363
381.215, 5233.949
382.563, 5519.115
383.910, 4893.941
385.258, 3952.779
386.605, 3050.699
387.952, 2400.321
389.299, 1745.750
390.646, 1259.038
391.992, 831.724
393.339, 619.297
394.685, 446.024
396.031, 434.673
397.376, 360.500
398.722, 326.578
400.067, 224.697
401.412, 284.160
402.757, 304.678
404.101, 288.225
405.446, 123.576
406.790, 148.031
408.134, 138.851
409.478, 181.801
410.821, 67.552
412.165, 30.312
413.508, 78.270
414.851, 25.979
416.193, 71.701
417.536, 12.383
418.878, 8.150
420.220, 23.052
421.562, 39.406
422.904, 31.458
424.245, 9.062
425.586, 7.500
426.927, 28.168
428.268, 53.701
429.609, 17.222
430.949, 9.730
432.289, 49.258
433.629, 42.773
434.969, 81.254
436.309, 59.729
437.648, 11.182
438.987, 116.624
440.326, 40.053
441.665, 55.261
443.003, 72.869
444.342, 55.253
445.680, 30.598
447.018, 81.912
448.355, 40.207
449.693, 8.511
451.030, 3.752
452.367, 38.002
453.704, 31.670
455.041, 11.759
456.377, 6.471
457.713, 24.925
459.049, 24.637
460.385, 0.515
461.721, 3.398
463.056, 48.655
464.391, 21.933
465.726, 8.860
467.061, 36.177
468.395, 28.200
469.730, 21.200
471.064, 57.177
472.398, 10.869
473.731, 70.068
475.065, 5.012
476.398, 55.890
477.731, 8.228
479.064, 87.627
480.397, 63.462
481.729, 22.346
483.062, 91.146
484.394, 64.928
485.725, 9.697
487.057, 48.445
488.389, 51.182
489.720, 93.900
491.051, 89.762
492.382, 83.291
493.712, 67.963
495.043, 50.619
496.373, 1.260
497.703, 74.882
499.032, 26.498
500.362, 101.098
501.691, 24.686
503.020, 86.257
504.349, 102.814
505.678, 88.359
507.007, 83.893
508.335, 68.418
509.663, 22.934
510.991, 20.820
512.319, 15.252
513.646, 2.577
514.973, 31.903
516.300, 39.379
517.627, 59.846
518.954, 39.308
520.280, 27.762
521.607, 55.206
522.933, 26.640
524.259, 68.063
525.584, 100.479
526.910, 72.885
528.235, 67.288
529.560, 41.680
530.885, 66.061
532.209, 48.431
533.534, 89.793
534.858, 110.148
536.182, 74.495
537.506, 74.835
538.829, 75.584
540.152, 66.495
541.476, 77.812
542.799, 83.167
544.121, 89.495
545.444, 125.843
546.766, 120.749
548.088, 106.573
549.410, 117.945
550.732, 96.316
552.053, 65.696
553.375, 76.490
554.696, 76.469
556.017, 76.859
557.337, 64.246
558.658, 61.626
559.978, 71.000
561.298, 79.366
562.618, 106.732
563.938, 79.090
565.257, 1.647
566.576, 64.690
567.895, 30.001
569.214, 86.322
570.533, 68.322
571.851, 17.133
573.170, 96.163
574.488, 65.931
575.805, 88.925
577.123, 47.571
578.440, 36.167
579.758, 65.138
581.075, 36.085
582.391, 55.534
583.708, 106.392
585.024, 32.352
586.341, 124.100
587.657, 79.964
588.972, 60.614
590.288, 52.199
591.603, 52.052
592.918, 57.381
594.233, 55.849
595.548, 83.733
596.863, 84.314
598.177, 93.824
599.491, 72.162
600.805, 88.982
602.119, 75.871
603.432, 107.681
604.746, 100.475
606.059, 120.297
607.372, 104.031
608.685, 102.001
609.997, 109.494
611.309, 31.207
612.621, 95.769
613.933, 128.322
615.245, 71.830
616.557, 95.501
617.868, 104.140
619.179, 66.676
620.490, 94.264
621.801, 121.772
623.111, 92.964
624.421, 56.983
625.731, 113.654
627.041, 97.288
628.351, 127.990
629.660, 61.740
630.970, 87.502
632.279, 85.176
633.588, 128.406
634.896, 69.268
636.205, 63.457
637.513, 69.369
638.821, 27.159
640.129, 67.909
641.437, 117.938
642.744, 114.919
644.051, 82.563
645.358, 113.970
646.665, 96.729
647.972, 141.707
649.278, 69.647
650.584, 124.576
651.890, 94.453
653.196, 162.134
654.502, 160.586
655.807, 153.397
657.113, 159.029
658.418, 209.014
659.722, 216.577
661.027, 199.397
662.331, 243.276
663.636, 248.145
664.940, 306.034
666.244, 367.842
667.547, 362.426
668.851, 357.131
670.154, 487.738
671.457, 455.666
672.760, 494.390
674.062, 502.077
675.365, 476.985
676.667, 490.531
677.969, 535.291
679.271, 464.025
680.572, 427.573
681.874, 391.374
683.175, 419.229
684.476, 320.878
685.777, 324.589
687.077, 295.227
688.378, 207.930
689.678, 198.635
690.978, 171.682
692.278, 144.528
693.577, 80.628
694.877, 67.492
696.176, 86.227
697.475, 123.948
698.774, 35.730
700.072, 102.347
701.371, 59.725
702.669, 115.478
703.967, 87.269
705.265, 113.014
706.562, 141.804
707.860, 160.618
709.157, 180.293
710.454, 241.010
711.751, 174.724
713.047, 229.774
714.344, 305.450
715.640, 256.135
716.936, 298.817
718.232, 285.499
719.527, 306.196
720.823, 389.226
722.118, 356.738
723.413, 502.002
724.708, 378.990
726.002, 276.666
727.297, 342.317
728.591, 254.753
729.885, 255.232
731.179, 232.871
732.472, 219.723
733.766, 184.284
735.059, 154.799
736.352, 152.449
737.645, 187.000
738.937, 186.651
740.230, 147.338
741.522, 123.905
742.814, 78.591
744.106, 135.275
745.397, 101.032
746.689, 37.682
747.980, 92.330
749.271, 32.075
750.562, 36.737
751.853, 95.407
753.143, 101.076
754.433, 103.742
755.723, 117.406
757.013, 120.067
758.303, 85.726
759.592, 117.382
760.881, 55.037
762.170, 85.689
763.459, 72.339
764.748, 58.991
766.036, 115.642
767.325, 34.198
768.613, 74.854
769.901, 72.509
771.188, 34.163
772.476, 87.815
773.763, 20.466
775.050, 15.115
776.337, 48.762
777.624, 78.421
778.910, 92.084
780.196, 86.909
781.482, 90.413
782.768, 17.074
784.054, 62.734
785.339, 44.326
786.625, 12.784
787.910, 30.350
789.195, 10.257
790.479, 22.862
791.764, 28.466
793.048, 33.067
794.332, 17.403
795.616, 2.184
796.900, 18.233
798.183, 11.336
799.467, 26.097
800.750, 24.453
802.033, 14.001
803.316, 18.545
804.598, 14.085
805.880, 10.623
807.163, 44.157
808.445, 43.689
809.726, 30.780
811.008, 25.731
812.289, 15.338
813.570, 74.746
814.851, 44.250
816.132, 45.752
817.413, 28.251
818.693, 18.747
819.973, 22.239
821.253, 29.729
822.533, 16.782
823.813, 15.694
825.092, 5.831
826.371, 16.362
827.650, 19.095
828.929, 17.450
830.208, 2.992
831.486, 41.431
832.764, 21.868
834.042, 37.304
835.320, 17.738
836.598, 27.112
837.875, 12.404
839.152, 62.014
840.429, 28.429
841.706, 85.843
842.983, 18.255
844.259, 0.336
845.536, 22.068
846.812, 2.531
848.088, 4.865
849.363, 39.257
850.639, 14.351
851.914, 26.031
853.189, 27.621
854.464, 7.260
855.739, 61.102
857.013, 25.462
858.288, 36.819
859.562, 14.825
860.836, 16.519
862.110, 58.860
863.383, 48.200
864.656, 56.538
865.930, 2.126
867.203, 30.205
868.475, 24.534
869.748, 50.861
871.020, 29.814
872.292, 63.493
873.564, 27.797
874.836, 99.100
876.108, 9.403
877.379, 5.297
878.650, 97.997
879.922, 55.289
881.192, 82.580
882.463, 11.129
883.733, 69.154
885.004, 0.435
886.274, 65.712
887.544, 37.991
888.813, 66.270
890.083, 40.553
891.352, 77.834
892.621, 81.114
893.890, 56.391
895.159, 83.668
896.427, 64.942
897.695, 13.217
898.964, 62.489
900.232, 70.741
901.499, 13.014
902.767, 77.239
904.034, 95.481
905.301, 91.748
906.568, 79.013
907.835, 97.284
909.102, 33.553
910.368, 100.822
911.634, 45.092
912.900, 147.360
914.166, 76.626
915.432, 122.890
916.697, 104.153
917.962, 83.415
919.227, 102.675
920.492, 68.902
921.757, 179.159
923.021, 212.413
924.285, 171.255
925.550, 95.886
926.813, 98.047
928.077, 101.185
929.341, 86.430
930.604, 128.673
931.867, 113.915
933.130, 134.156
934.393, 107.401
935.655, 111.544
936.918, 113.785
938.180, 129.191
939.442, 103.553
940.703, 142.825
941.965, 115.932
943.226, 145.089
944.488, 124.269
945.749, 102.467
947.009, 149.527
948.270, 113.593
949.530, 158.593
950.791, 98.699
952.051, 119.366
953.311, 129.361
954.570, 110.475
955.830, 156.609
957.089, 104.723
958.348, 159.823
959.607, 127.044
960.866, 96.263
962.124, 157.453
963.383, 184.618
964.641, 139.738
965.899, 156.957
967.156, 167.175
968.414, 181.391
969.671, 163.562
970.928, 189.702
972.185, 158.855
973.442, 153.039
974.699, 169.091
975.955, 167.216
977.211, 169.215
978.468, 219.964
979.723, 170.101
980.979, 197.101
982.234, 199.170
983.490, 178.385
984.745, 156.533
986.000, 230.746
987.254, 153.875
988.509, 197.043
989.763, 253.343
991.017, 181.553
992.271, 195.728
993.525, 226.939
994.779, 230.073
996.032, 241.388
997.285, 237.835
998.538, 274.027
999.791, 269.022
1001.044, 277.854
1002.296, 267.033
1003.548, 290.314
1004.800, 265.662
1006.052, 321.509
1007.304, 299.712
1008.555, 254.941
1009.807, 330.215
1011.058, 317.366
1012.309, 303.637
1013.559, 334.893
1014.810, 302.105
1016.060, 285.330
1017.310, 350.301
1018.560, 324.516
1019.810, 295.782
1021.060, 293.981
1022.309, 255.323
1023.558, 275.657
1024.807, 257.888
1026.056, 296.154
1027.305, 257.269
1028.553, 257.969
1029.801, 282.181
1031.049, 219.372
1032.297, 229.109
1033.545, 264.519
1034.793, 283.768
1036.040, 213.861
1037.287, 226.792
1038.534, 177.230
1039.781, 196.737
1041.027, 242.934
1042.274, 280.126
1043.520, 233.364
1044.766, 241.588
1046.012, 227.795
1047.257, 234.625
1048.503, 255.735
1049.748, 221.900
1050.993, 251.083
1052.238, 271.226
1053.483, 259.406
1054.727, 249.606
1055.971, 278.783
1057.216, 273.088
1058.459, 271.261
1059.703, 234.635
1060.947, 309.558
1062.190, 259.731
1063.433, 232.979
1064.676, 312.188
1065.919, 202.490
1067.162, 256.852
1068.404, 279.116
1069.646, 216.304
1070.888, 200.545
1072.130, 213.712
1073.372, 265.868
1074.613, 193.032
1075.855, 251.185
1077.096, 216.432
1078.337, 251.581
1079.578, 213.806
1080.818, 253.238
1082.059, 237.075
1083.299, 193.183
1084.539, 228.385
1085.779, 171.558
1087.018, 179.743
1088.258, 193.888
1089.497, 172.084
1090.736, 188.959
1091.975, 243.494
1093.213, 192.673
1094.452, 152.821
1095.690, 134.024
1096.928, 178.172
1098.166, 123.406
1099.404, 174.666
1100.642, 152.863
1101.879, 113.016
1103.116, 177.167
1104.353, 144.870
1105.590, 100.099
1106.827, 109.370
1108.063, 127.793
1109.299, 129.933
1110.536, 151.217
1111.771, 163.251
1113.007, 90.629
1114.243, 160.767
1115.478, 140.995
1116.713, 69.171
1117.948, 123.309
1119.183, 86.730
1120.418, 129.364
1121.652, 152.195
1122.886, 156.791
1124.120, 86.055
1125.354, 112.055
1126.588, 99.223
1127.821, 84.806
1129.055, 124.301
1130.288, 64.735
1131.521, 103.676
1132.753, 103.128
1133.986, 120.439
1135.218, 98.831
1136.450, 89.208
1137.682, 119.078
1138.914, 83.499
1140.146, 44.713
1141.377, 87.451
1142.609, 103.625
1143.840, 27.713
1145.071, 50.797
1146.301, 67.878
1147.532, 64.073
1148.762, 8.759
1149.992, 86.461
1151.222, 4.721
1152.452, 72.891
1153.682, 35.721
1154.911, 39.463
1156.140, 17.613
1157.369, 16.738
1158.598, 45.877
1159.827, 0.024
1161.055, 21.155
1162.284, 31.265
1163.512, 28.396
1164.740, 8.525
1165.967, 26.973
1167.195, 9.137
1168.422, 44.744
1169.650, 6.745
1170.877, 3.937
1172.103, 35.002
1173.330, 8.059
1174.557, 32.048
1175.783, 110.132
1177.009, 33.115
1178.235, 48.094
1179.461, 5.749
1180.686, 33.662
1181.912, 26.626
1183.137, 18.592
1184.362, 8.448
1185.587, 0.498
1186.811, 17.459
1188.036, 38.537
1189.260, 47.478
1190.484, 30.418
1191.708, 33.331
1192.932, 37.238
1194.155, 5.859
1195.378, 51.033
1196.602, 11.079
1197.825, 54.796
1199.047, 33.666
1200.270, 48.532
1201.492, 37.392
1202.715, 48.248
1203.937, 28.900
1205.159, 102.927
1206.380, 3.751
1207.602, 6.182
1208.823, 45.623
1210.044, 26.423
1211.265, 35.218
1212.486, 13.066
1213.707, 5.850
1214.927, 21.247
1216.147, 39.110
1217.367, 26.163
1218.587, 43.291
1219.807, 47.678
1221.027, 43.428
1222.246, 50.174
1223.465, 22.914
1224.684, 59.648
1225.903, 27.377
1227.121, 3.101
1228.340, 59.818
1229.558, 19.471
1230.776, 31.223
1231.994, 37.912
1233.212, 34.597
1234.429, 53.278
1235.646, 35.132
1236.864, 21.805
1238.081, 52.467
1239.297, 40.126
1240.514, 65.777
1241.730, 33.423
1242.947, 80.064
1244.163, 26.695
1245.378, 9.901
1246.594, 35.586
1247.810, 61.131
1249.025, 67.813
1250.240, 0.844
1251.455, 27.768
1252.670, 17.391
1253.885, 5.406
1255.099, 47.688
1256.313, 10.046
1257.527, 31.357
1258.741, 33.173
1259.955, 53.097
1261.168, 25.687
1262.382, 37.204
1263.595, 45.713
1264.808, 28.758
1266.021, 46.728
1267.233, 57.207
1268.446, 0.680
1269.658, 83.145
1270.870, 22.601
1272.082, 81.047
1273.294, 51.111
1274.505, 68.920
1275.716, 6.347
1276.928, 5.768
1278.139, 17.171
1279.349, 64.569
1280.560, 35.960
1281.770, 61.345
1282.981, 0.717
1284.191, 46.081
1285.401, 19.439
1286.610, 1.209
1287.820, 27.135
1289.029, 59.473
1290.239, 47.788
1291.448, 53.105
1292.656, 19.416
1293.865, 24.721
1295.073, 14.163
1296.282, 11.096
1297.490, 20.933
1298.698, 5.212
1299.906, 14.103
1301.113, 18.487
1302.320, 23.679
1303.528, 18.861
1304.735, 17.106
1305.942, 19.825
1307.148, 23.376
1308.355, 17.589
1309.561, 16.783
1310.767, 3.886
1311.973, 52.059
1313.179, 5.850
1314.384, 62.342
1315.590, 9.403
1316.795, 26.874
1318.000, 27.757
1319.205, 67.659
1320.410, 18.799
1321.614, 85.955
1322.819, 97.087
1324.023, 10.768
1325.227, 0.825
1326.431, 119.929
1327.634, 71.394
1328.838, 42.423
1330.041, 44.797
1331.244, 18.659
1332.447, 23.534
1333.650, 8.464
1334.852, 34.625
1336.055, 60.665
1337.257, 63.711
1338.459, 68.769
1339.661, 72.541
1340.862, 48.268
1342.064, 62.353
1343.265, 99.415
1344.466, 88.437
1345.667, 63.493
1346.868, 101.523
1348.068, 88.573
1349.269, 69.491
1350.469, 115.536
1351.669, 13.661
1352.869, 109.586
1354.069, 94.578
1355.268, 143.489
1356.468, 19.450
1357.667, 67.296
1358.866, 88.075
1360.065, 90.946
1361.263, 113.886
1362.462, 65.766
1363.660, 77.715
1364.858, 42.672
1366.056, 104.617
1367.254, 83.572
1368.451, 49.431
1369.649, 122.391
1370.846, 33.279
1372.043, 98.973
1373.240, 60.969
1374.436, 111.506
1375.633, 97.672
1376.829, 71.867
1378.025, 46.994
1379.221, 3.190
1380.417, 57.347
1381.613, 41.286
1382.808, 88.423
1384.003, 122.005
1385.199, 110.944
1386.393, 103.792
1387.588, 109.905
1388.783, 84.646
1389.977, 97.609
1391.171, 78.031
1392.365, 61.100
1393.559, 105.583
1394.753, 43.510
1395.946, 55.552
1397.140, 78.881
1398.333, 79.740
1399.526, 96.617
1400.719, 78.037
1401.911, 110.069
1403.104, 115.927
1404.296, 105.884
1405.488, 141.562
1406.680, 93.056
1407.872, 12.423
1409.063, 61.040
1410.255, 43.716
1411.446, 84.350
1412.637, 87.516
1413.828, 78.300
1415.018, 88.955
1416.209, 90.554
1417.399, 75.228
1418.589, 98.934
1419.779, 81.775
1420.969, 81.164
1422.159, 85.956
1423.348, 83.737
1424.537, 84.525
1425.726, 79.345
1426.915, 82.163
1428.104, 71.915
1429.293, 73.670
1430.481, 75.422
1431.669, 89.166
1432.857, 78.915
1434.045, 98.494
1435.233, 81.494
1436.420, 116.843
1437.608, 93.560
1438.795, 38.271
1439.982, 126.975
1441.169, 63.670
1442.355, 85.356
1443.542, 16.033
1444.728, 61.438
1445.914, 55.387
1447.100, 120.052
1448.286, 95.323
1449.472, 59.965
1450.657, 94.601
1451.842, 50.237
1453.027, 42.870
1454.212, 72.538
1455.397, 106.203
1456.581, 92.860
1457.766, 5.512
1458.950, 28.175
1460.134, 24.836
1461.318, 123.495
1462.501, 72.089
1463.685, 79.753
1464.868, 40.422
1466.051, 60.121
1467.234, 22.821
1468.417, 64.546
1469.600, 23.701
1470.782, 50.079
1471.965, 129.881
1473.147, 24.685
1474.329, 78.490
1475.510, 65.364
1476.692, 17.248
1477.873, 75.141
1479.055, 50.045
1480.236, 36.963
1481.416, 100.896
1482.597, 71.863
1483.778, 45.852
1484.958, 60.865
1486.138, 54.905
1487.318, 39.975
1488.498, 50.077
1489.678, 44.221
1490.857, 49.407
1492.037, 48.379
1493.216, 21.896
1494.395, 30.708
1495.574, 62.511
1496.752, 50.296
1497.931, 0.943
1499.109, 56.781
1500.287, 24.451
1501.465, 17.043
1502.643, 34.521
1503.820, 15.829
1504.998, 45.994
1506.175, 23.228
1507.352, 4.256
1508.529, 22.737
1509.706, 7.304
1510.882, 47.863
1512.059, 7.828
1513.235, 0.145
1514.411, 0.000
##END=



