##NAMES=Enargite
##RRUFFID=R070176
##IDEAL CHEMISTRY=Cu_3_AsS_4_
##LOCALITY=Zuni Mine (Zu√±i Mine), Anvil Mountain, Silverton, Silverton District, San Juan County, Colorado, USA
##OWNER=RRUFF
##SOURCE=Michael Scott
##DESCRIPTION=Massive fine grained dark gray metallic, associated with zunyite
##STATUS=The identification of this mineral has been confirmed by single-crystal X-ray diffraction.
##URL=rruff.info/R070176
136.6823, 0.0000000E+00
137.1645, 4.727448
137.6466, 11.24834
138.1287, 19.75278
138.6108, 28.17929
139.0929, 29.48969
139.5750, 20.92503
140.0572, 11.42035
140.5393, 7.311676
141.0214, 11.03136
141.5035, 13.45346
141.9856, 13.10921
142.4677, 12.56776
142.9499, 9.477554
143.4320, 5.623260
143.9141, 2.763733
144.3962, 3.053772
144.8783, 9.552750
145.3604, 14.53857
145.8425, 16.27408
146.3247, 14.14357
146.8068, 10.98900
147.2889, 4.116028
147.7710, 2.961761
148.2531, 4.643692
148.7352, 5.218094
149.2174, 14.79668
149.6995, 20.36534
150.1816, 20.11299
150.6637, 18.70335
151.1458, 14.08272
151.6279, 7.968964
152.1101, 5.502258
152.5922, 9.113968
153.0743, 15.14212
153.5564, 21.74815
154.0385, 32.06277
154.5206, 39.51128
155.0028, 42.40913
155.4849, 41.06740
155.9670, 38.81046
156.4491, 34.66345
156.9312, 30.67618
157.4133, 28.56450
157.8955, 30.54753
158.3776, 32.70767
158.8597, 32.89166
159.3418, 30.57396
159.8239, 31.06192
160.3060, 41.27689
160.7882, 54.09821
161.2703, 60.49670
161.7524, 49.61440
162.2345, 37.05899
162.7166, 31.40688
163.1987, 35.02504
163.6808, 40.90173
164.1630, 49.03123
164.6451, 57.14178
165.1272, 60.45464
165.6093, 50.80615
166.0914, 38.53444
166.5735, 32.70747
167.0557, 37.28297
167.5378, 43.68896
168.0199, 46.81738
168.5020, 44.02376
168.9841, 44.85593
169.4662, 61.13617
169.9484, 79.97337
170.4305, 85.95709
170.9126, 63.89618
171.3947, 36.63197
171.8768, 25.84395
172.3589, 29.89523
172.8411, 37.52989
173.3232, 43.88693
173.8053, 47.13208
174.2874, 45.78510
174.7695, 32.58824
175.2516, 16.33577
175.7338, 9.954025
176.2159, 11.90901
176.6980, 15.60674
177.1801, 16.91432
177.6622, 17.82393
178.1443, 17.61337
178.6264, 19.19522
179.1086, 21.48088
179.5907, 21.27481
180.0728, 17.91029
180.5549, 13.77029
181.0370, 11.62883
181.5191, 11.27901
182.0013, 11.48177
182.4834, 11.68872
182.9655, 11.89381
183.4476, 12.11798
183.9297, 12.38515
184.4118, 12.62846
184.8940, 12.05159
185.3761, 10.73747
185.8582, 10.87895
186.3403, 15.91170
186.8224, 24.53081
187.3046, 29.76474
187.7867, 29.27245
188.2688, 25.42157
188.7509, 24.52327
189.2330, 26.85771
189.7151, 28.84222
190.1973, 25.90208
190.6794, 18.54402
191.1615, 14.08180
191.6436, 16.24654
192.1257, 22.70837
192.6078, 22.21671
193.0900, 13.41966
193.5721, 3.662796
194.0542, 2.921066
194.5363, 11.43311
195.0184, 17.24768
195.5005, 13.94989
195.9826, 2.769531
196.4648, 6.5459996E-02
196.9469, 7.965469
197.4290, 18.42233
197.9111, 17.51434
198.3932, 3.421173
198.8753, 8.638611
199.3575, 10.71309
199.8396, 2.061279
200.3217, 2.042252
200.8038, 0.2068480
201.2859, 4.641006
201.7680, 2.442307
202.2502, 8.180954
202.7323, 18.07291
203.2144, 22.44084
203.6965, 20.63113
204.1786, 17.69064
204.6607, 13.41814
205.1429, 8.479416
205.6250, 4.169754
206.1071, 4.6921000E-02
206.5892, 1.782471
207.0713, 1.104004
207.5534, 10.72401
208.0356, 15.14981
208.5177, 11.09270
208.9998, 1.270233
209.4819, 2.102173
209.9640, 3.674332
210.4461, 10.40201
210.9282, 10.83067
211.4104, 1.837677
211.8925, 2.165665
212.3746, 3.712967
212.8567, 17.54477
213.3388, 21.04605
213.8209, 9.649536
214.3031, 4.750092
214.7852, 11.25008
215.2673, 7.051804
215.7494, 2.244492
216.2315, 2.042801
216.7136, 5.774780
217.1958, 5.636230
217.6779, 0.9265750
218.1600, 8.280441
218.6421, 9.980453
219.1242, 3.344131
219.6063, 3.027084
220.0885, 6.772125
220.5706, 7.390915
221.0527, 10.60931
221.5348, 19.26186
222.0169, 27.96797
222.4990, 28.61891
222.9812, 15.46298
223.4633, 5.441742
223.9454, 5.057495
224.4275, 17.71204
224.9096, 23.58224
225.3917, 19.53700
225.8739, 10.92577
226.3560, 6.608047
226.8381, 8.629913
227.3202, 11.37817
227.8023, 12.75645
228.2844, 11.58043
228.7665, 12.98253
229.2487, 18.75659
229.7308, 26.26598
230.2129, 29.95505
230.6950, 27.67870
231.1771, 24.84619
231.6592, 23.51591
232.1414, 24.02414
232.6235, 25.49417
233.1056, 28.86337
233.5877, 32.53090
234.0698, 32.30243
234.5519, 24.32286
235.0341, 17.95070
235.5162, 18.22527
235.9983, 29.73608
236.4804, 37.34842
236.9625, 39.22461
237.4446, 37.21021
237.9268, 37.61449
238.4089, 41.44385
238.8910, 46.39069
239.3731, 51.40515
239.8552, 56.82886
240.3373, 61.55972
240.8195, 65.08801
241.3016, 67.80704
241.7837, 71.98022
242.2658, 79.73831
242.7479, 86.22762
243.2300, 88.11382
243.7122, 82.26714
244.1943, 78.12505
244.6764, 76.11725
245.1585, 76.32704
245.6406, 79.43546
246.1227, 86.68442
246.6048, 95.29437
247.0870, 103.9802
247.5691, 114.9999
248.0512, 121.2578
248.5333, 120.3376
249.0154, 113.2322
249.4975, 107.9614
249.9797, 102.2917
250.4618, 101.1539
250.9439, 109.5131
251.4260, 134.0392
251.9081, 153.7787
252.3902, 163.7072
252.8724, 164.9401
253.3545, 174.6785
253.8366, 198.7252
254.3187, 223.6097
254.8008, 237.8483
255.2829, 235.9504
255.7651, 235.2104
256.2472, 238.1057
256.7293, 243.9720
257.2114, 251.2841
257.6935, 260.9340
258.1756, 271.9767
258.6577, 283.3944
259.1399, 295.0901
259.6220, 307.6373
260.1041, 322.0727
260.5862, 338.0708
261.0683, 350.7439
261.5504, 359.7586
262.0326, 365.8978
262.5147, 370.1064
262.9968, 372.8025
263.4789, 372.0679
263.9610, 366.1527
264.4431, 355.2303
264.9253, 348.1786
265.4074, 346.5940
265.8895, 346.0907
266.3716, 343.4859
266.8537, 340.3132
267.3358, 329.0104
267.8180, 304.2084
268.3001, 266.9342
268.7822, 243.5972
269.2643, 237.9826
269.7464, 239.9227
270.2285, 240.6652
270.7107, 240.4147
271.1928, 236.7497
271.6749, 228.0403
272.1570, 214.2779
272.6391, 202.2411
273.1212, 192.4625
273.6034, 185.2446
274.0855, 182.5356
274.5676, 185.6750
275.0497, 183.9678
275.5318, 172.4864
276.0139, 152.1960
276.4961, 138.4124
276.9782, 132.5304
277.4603, 131.1343
277.9424, 132.0740
278.4245, 135.9093
278.9066, 136.0900
279.3888, 129.4882
279.8709, 117.2805
280.3530, 108.8038
280.8351, 104.8553
281.3172, 101.9635
281.7993, 96.46881
282.2815, 88.30768
282.7636, 79.30484
283.2457, 69.05038
283.7278, 58.31122
284.2099, 51.73837
284.6920, 50.08691
285.1741, 49.00406
285.6563, 43.53757
286.1384, 33.85043
286.6205, 24.29770
287.1026, 15.74399
287.5847, 8.272125
288.0668, 2.154877
288.5490, 2.607605
289.0311, 6.015656
289.5132, 9.041382
289.9953, 11.19733
290.4774, 8.828949
290.9595, 3.064880
291.4417, 18.73505
291.9238, 20.27344
292.4059, 6.864532
292.8880, 7.043732
293.3701, 5.534241
293.8522, 7.930267
294.3344, 18.81003
294.8165, 22.24866
295.2986, 21.00177
295.7807, 19.65466
296.2628, 18.29202
296.7449, 17.68292
297.2271, 18.91116
297.7092, 21.33701
298.1913, 23.39838
298.6734, 23.90103
299.1555, 24.42191
299.6376, 28.25629
300.1198, 35.31451
300.6019, 41.97546
301.0840, 43.55124
301.5661, 41.82925
302.0482, 40.31781
302.5303, 39.30728
303.0125, 39.85590
303.4946, 43.39597
303.9767, 49.75845
304.4588, 56.84741
304.9409, 64.99393
305.4230, 72.30524
305.9052, 76.09192
306.3873, 73.79730
306.8694, 69.93887
307.3515, 68.66504
307.8336, 69.45825
308.3157, 69.78906
308.7979, 68.16208
309.2800, 65.21332
309.7621, 61.45599
310.2442, 56.17136
310.7263, 51.39664
311.2084, 49.28784
311.6906, 49.03415
312.1727, 47.67163
312.6548, 41.84839
313.1369, 35.21225
313.6190, 30.96664
314.1011, 30.44012
314.5833, 31.18976
315.0654, 32.30563
315.5475, 33.83374
316.0296, 35.88593
316.5117, 38.17667
316.9938, 41.22668
317.4760, 45.55164
317.9580, 51.97406
318.4402, 58.10806
318.9223, 61.85687
319.4044, 64.77991
319.8865, 70.19492
320.3686, 83.17950
320.8507, 95.71179
321.3329, 103.2347
321.8150, 101.3897
322.2971, 103.0722
322.7792, 110.0139
323.2613, 122.0235
323.7434, 138.7564
324.2256, 167.2412
324.7077, 194.2696
325.1898, 214.7646
325.6719, 224.7161
326.1540, 237.6961
326.6361, 255.5998
327.1183, 276.5865
327.6004, 298.0432
328.0825, 322.0635
328.5646, 344.3644
329.0467, 361.0006
329.5288, 367.2273
330.0110, 388.6371
330.4931, 437.4946
330.9752, 494.7860
331.4573, 536.4316
331.9394, 550.8513
332.4215, 568.2197
332.9037, 595.7586
333.3858, 634.0541
333.8679, 673.7008
334.3500, 717.4250
334.8321, 759.8318
335.3142, 794.3198
335.7964, 815.5049
336.2785, 843.7582
336.7606, 887.0125
337.2427, 943.4600
337.7248, 987.2936
338.2069, 1017.679
338.6891, 1037.192
339.1712, 1050.458
339.6533, 1059.310
340.1354, 1048.474
340.6175, 1013.813
341.0996, 957.8372
341.5818, 887.5909
342.0639, 800.6747
342.5460, 712.7393
343.0281, 632.5064
343.5102, 560.6815
343.9923, 497.8959
344.4745, 445.7254
344.9566, 401.7031
345.4387, 364.4381
345.9208, 334.2750
346.4029, 302.1368
346.8850, 256.7442
347.3672, 203.4056
347.8493, 164.8568
348.3314, 146.5754
348.8135, 137.7230
349.2956, 123.4715
349.7777, 104.9474
350.2599, 87.30368
350.7419, 74.73181
351.2241, 64.55371
351.7062, 50.48621
352.1883, 30.93979
352.6704, 12.45898
353.1525, 1.565399
353.6346, 3.022888
354.1168, 4.627411
354.5989, 3.797546
355.0810, 1.288330
355.5631, 3.846222
356.0452, 12.06775
356.5273, 16.63947
357.0095, 8.146790
357.4916, 5.834747
357.9737, 14.41022
358.4558, 8.010651
358.9379, 5.1879999E-03
359.4200, 0.8221440
359.9022, 5.263458
360.3843, 8.360809
360.8664, 2.819031
361.3485, 7.181305
361.8306, 17.79483
362.3127, 30.39096
362.7949, 40.87231
363.2770, 48.48007
363.7591, 53.18063
364.2412, 54.85690
364.7233, 49.93323
365.2054, 45.12708
365.6876, 44.06522
366.1697, 42.55188
366.6518, 48.88425
367.1339, 71.23096
367.6160, 104.2112
368.0981, 128.2479
368.5803, 135.1048
369.0624, 140.2227
369.5445, 149.2183
370.0266, 162.3895
370.5087, 178.5002
370.9908, 200.8503
371.4730, 225.3506
371.9551, 243.4372
372.4372, 248.0576
372.9193, 256.7401
373.4014, 278.2982
373.8835, 315.9172
374.3657, 343.5577
374.8478, 359.4888
375.3299, 367.4577
375.8120, 369.7803
376.2941, 364.3905
376.7762, 363.7240
377.2584, 374.1605
377.7405, 393.3435
378.2226, 399.9750
378.7047, 391.9711
379.1868, 381.0584
379.6689, 379.7436
380.1511, 387.2016
380.6332, 390.3182
381.1153, 385.1286
381.5974, 374.9348
382.0795, 366.2661
382.5616, 359.0475
383.0438, 354.6526
383.5259, 355.7779
384.0080, 360.4666
384.4901, 365.0205
384.9722, 371.0720
385.4543, 371.8875
385.9364, 355.9553
386.4185, 326.5517
386.9007, 296.8353
387.3828, 275.5841
387.8649, 256.7737
388.3470, 231.8900
388.8291, 199.0035
389.3112, 167.4590
389.7934, 145.5864
390.2755, 129.9432
390.7576, 115.2619
391.2397, 96.46666
391.7218, 80.12314
392.2039, 70.97116
392.6861, 69.23198
393.1682, 68.65479
393.6503, 69.45396
394.1324, 68.98889
394.6145, 64.86765
395.0966, 49.81056
395.5788, 38.07272
396.0609, 33.05470
396.5430, 34.45110
397.0251, 39.66452
397.5072, 55.69806
397.9893, 69.99373
398.4715, 75.99170
398.9536, 67.50673
399.4357, 59.29700
399.9178, 51.20459
400.3999, 43.40559
400.8820, 36.05920
401.3642, 27.16954
401.8463, 21.73337
402.3284, 22.89621
402.8105, 33.37556
403.2926, 36.85483
403.7747, 29.93765
404.2569, 20.09660
404.7390, 17.86911
405.2211, 24.92528
405.7032, 32.90250
406.1853, 40.90903
406.6674, 48.24348
407.1496, 48.90065
407.6317, 41.94733
408.1138, 32.52670
408.5959, 23.98337
409.0780, 16.53276
409.5602, 12.55644
410.0423, 13.33395
410.5244, 16.72414
411.0065, 19.34898
411.4886, 21.22845
411.9707, 22.81891
412.4529, 26.08202
412.9350, 29.14680
413.4171, 27.43985
413.8992, 19.33949
414.3813, 10.26807
414.8634, 4.197205
415.3456, 0.7723690
415.8277, 0.5444340
416.3098, 3.480377
416.7919, 8.503983
417.2740, 10.75725
417.7561, 9.718796
418.2382, 7.750229
418.7203, 4.392670
419.2025, 1.752426
419.6846, 2.158737
420.1667, 13.16534
420.6488, 20.42513
421.1309, 17.07033
421.6130, 4.638855
422.0952, 5.785736
422.5773, 14.29901
423.0594, 18.49039
423.5415, 16.91946
424.0236, 2.667145
424.5057, 7.849152
424.9879, 14.12865
425.4700, 16.53239
425.9521, 15.50111
426.4342, 7.751038
426.9163, 1.417526
427.3984, 2.8305000E-02
427.8806, 4.904556
428.3627, 5.128677
428.8448, 2.006317
429.3269, 9.904449
429.8090, 9.816071
430.2911, 0.1160740
430.7733, 7.757904
431.2554, 10.33119
431.7375, 9.259628
432.2196, 12.02237
432.7017, 19.20459
433.1838, 24.98907
433.6660, 21.82510
434.1481, 12.48152
434.6302, 10.48361
435.1123, 19.86510
435.5944, 32.30933
436.0765, 35.88907
436.5587, 32.25963
437.0408, 28.08957
437.5229, 27.42004
438.0050, 28.10175
438.4871, 27.41328
438.9692, 25.08826
439.4514, 22.65685
439.9335, 22.56723
440.4156, 22.77097
440.8977, 20.51317
441.3798, 11.25075
441.8619, 2.557007
442.3441, 3.319565
442.8262, 6.038773
443.3083, 3.638916
443.7904, 12.49521
444.2725, 28.59593
444.7546, 35.90816
445.2368, 25.01344
445.7189, 17.69557
446.2010, 17.53052
446.6831, 22.32062
447.1652, 27.60995
447.6473, 34.68907
448.1295, 40.74796
448.6116, 45.12898
449.0937, 47.93951
449.5758, 48.55594
450.0579, 46.98683
450.5400, 43.24142
451.0221, 36.38951
451.5042, 25.33582
451.9864, 16.73483
452.4685, 12.36324
452.9506, 11.20738
453.4327, 8.873611
453.9148, 5.090118
454.3969, 2.399780
454.8791, 2.785049
455.3612, 5.799393
455.8433, 10.21344
456.3254, 16.55388
456.8075, 21.78883
457.2896, 20.78168
457.7718, 15.14653
458.2539, 9.860153
458.7360, 6.518387
459.2181, 5.039886
459.7002, 6.367798
460.1823, 10.34537
460.6645, 13.26427
461.1466, 8.923584
461.6287, 3.963348
462.1108, 5.761444
462.5929, 23.88638
463.0750, 38.68750
463.5572, 39.52844
464.0393, 30.76352
464.5214, 24.32774
465.0035, 27.81422
465.4856, 30.50720
465.9677, 26.85985
466.4499, 12.74002
466.9320, 4.073502
467.4141, 2.639450
467.8962, 5.913513
468.3783, 11.80650
468.8604, 23.93901
469.3426, 31.85434
469.8247, 32.73903
470.3068, 27.68130
470.7889, 23.86597
471.2710, 21.15810
471.7531, 20.06816
472.2353, 22.26306
472.7174, 27.82162
473.1995, 28.45952
473.6816, 22.18225
474.1637, 14.87279
474.6458, 17.31537
475.1280, 28.02016
475.6101, 35.99344
476.0922, 32.82469
476.5743, 24.71637
477.0564, 24.63681
477.5385, 32.43716
478.0207, 40.08432
478.5028, 41.71425
478.9849, 39.25452
479.4670, 34.65639
479.9491, 25.24886
480.4312, 17.67743
480.9134, 19.36568
481.3955, 26.84317
481.8776, 31.64398
482.3597, 24.90825
482.8418, 17.78156
483.3239, 15.93567
483.8060, 20.86172
484.2881, 26.11339
484.7703, 33.09668
485.2524, 38.53661
485.7345, 39.40591
486.2166, 30.07147
486.6987, 23.82184
487.1808, 23.12619
487.6630, 27.08591
488.1451, 29.92480
488.6272, 30.92519
489.1093, 30.88466
489.5914, 29.99959
490.0735, 28.16586
490.5557, 27.15611
491.0378, 27.33797
491.5199, 27.46446
492.0020, 24.41928
492.4841, 18.83737
492.9662, 17.20337
493.4484, 25.29431
493.9305, 36.07538
494.4126, 34.58382
494.8947, 22.04416
495.3768, 9.460251
495.8589, 2.113510
496.3411, 0.2312770
496.8232, 4.408173
497.3053, 18.95143
497.7874, 31.78819
498.2695, 33.51912
498.7516, 28.99661
499.2338, 25.89510
499.7159, 29.78616
500.1980, 32.46414
500.6801, 29.41515
501.1622, 20.98059
501.6443, 16.42406
502.1265, 20.48517
502.6086, 25.53955
503.0907, 27.11670
503.5728, 22.77446
504.0549, 19.08163
504.5370, 15.81815
505.0192, 13.43692
505.5013, 13.32262
505.9834, 16.42310
506.4655, 19.02963
506.9476, 19.07085
507.4297, 16.43176
507.9119, 15.05960
508.3940, 15.27142
508.8761, 14.74287
509.3582, 9.982742
509.8403, 2.431519
510.3224, 2.071106
510.8046, 1.999725
511.2867, 0.3903810
511.7688, 2.571075
512.2509, 4.290649
512.7330, 6.091156
513.2151, 9.246780
513.6973, 11.82217
514.1794, 11.20006
514.6615, 7.267319
515.1436, 4.875076
515.6257, 7.380432
516.1078, 11.89032
516.5900, 15.83562
517.0721, 17.87485
517.5542, 20.57286
518.0363, 26.58289
518.5184, 33.45151
519.0005, 35.14453
519.4827, 28.06473
519.9648, 20.26646
520.4469, 13.46640
520.9290, 7.377914
521.4111, 4.918320
521.8932, 6.165787
522.3754, 10.91898
522.8575, 21.90927
523.3396, 39.77527
523.8217, 47.86998
524.3038, 41.45259
524.7859, 27.94476
525.2681, 20.19598
525.7502, 17.37711
526.2323, 15.74287
526.7144, 12.56447
527.1965, 9.781494
527.6786, 11.24049
528.1608, 16.93640
528.6429, 22.70270
529.1250, 25.59084
529.6071, 26.91473
530.0892, 28.13403
530.5714, 29.86421
531.0535, 30.92705
531.5356, 30.27751
532.0176, 28.75491
532.4998, 28.09549
532.9819, 29.30573
533.4640, 30.77728
533.9461, 32.21071
534.4282, 33.70166
534.9103, 34.46451
535.3925, 34.14249
535.8746, 33.65347
536.3567, 33.48244
536.8388, 33.39044
537.3209, 35.39368
537.8030, 41.53580
538.2852, 47.26019
538.7673, 41.55910
539.2494, 23.88446
539.7315, 10.05022
540.2136, 8.533829
540.6957, 14.80040
541.1779, 18.69789
541.6600, 20.36336
542.1421, 21.82059
542.6242, 25.48065
543.1063, 29.01483
543.5884, 28.80925
544.0706, 22.77274
544.5527, 16.73737
545.0348, 13.63315
545.5169, 12.86511
545.9990, 13.47650
546.4811, 15.88849
546.9633, 18.92747
547.4454, 23.78511
547.9275, 30.22249
548.4096, 31.45895
548.8917, 23.24750
549.3738, 14.11861
549.8560, 8.272675
550.3381, 6.517746
550.8202, 5.961304
551.3023, 7.418457
551.7844, 8.914856
552.2665, 6.226685
552.7487, 0.9888000
553.2308, 3.671356
553.7129, 2.816086
554.1950, 13.69023
554.6771, 17.59842
555.1592, 15.04324
555.6414, 11.46307
556.1235, 9.486450
556.6056, 9.002548
557.0877, 10.78876
557.5698, 15.32513
558.0519, 18.27492
558.5341, 14.92688
559.0162, 9.079910
559.4983, 5.283371
559.9804, 7.195190
560.4625, 8.595566
560.9446, 7.648392
561.4268, 4.908585
561.9089, 2.248535
562.3910, 0.2626500
562.8731, 2.706314
563.3552, 6.131866
563.8373, 11.19676
564.3195, 9.023712
564.8016, 3.581787
565.2837, 17.11066
565.7658, 22.64888
566.2479, 20.11562
566.7300, 16.22815
567.2122, 11.48218
567.6943, 6.640747
568.1764, 1.754807
568.6585, 2.532104
569.1406, 3.577209
569.6227, 2.926331
570.1049, 11.37796
570.5870, 14.13513
571.0691, 11.88480
571.5512, 10.80464
572.0333, 16.88815
572.5154, 23.97273
572.9976, 26.89154
573.4797, 23.00214
573.9618, 19.82664
574.4439, 19.94273
574.9260, 21.39558
575.4081, 21.63614
575.8903, 21.12277
576.3724, 19.46324
576.8545, 15.26340
577.3366, 9.866150
577.8187, 6.381897
578.3008, 4.909485
578.7830, 5.011292
579.2651, 6.993546
579.7472, 10.64075
580.2293, 14.58401
580.7114, 19.13664
581.1935, 21.18138
581.6757, 14.40123
582.1578, 2.942917
582.6399, 3.548080
583.1220, 1.475586
583.6041, 3.819138
584.0862, 9.877991
584.5684, 15.71660
585.0505, 18.76999
585.5326, 16.37122
586.0147, 12.47852
586.4968, 7.907486
586.9789, 2.846130
587.4611, 0.2189180
587.9432, 0.7789460
588.4253, 0.5943600
588.9074, 4.115433
589.3895, 11.34578
589.8716, 16.21790
590.3538, 18.61374
590.8359, 18.80957
591.3180, 16.95305
591.8001, 3.9459001E-02
592.2822, 15.79759
592.7643, 24.48428
593.2465, 26.40433
593.7286, 1.292496
594.2107, 11.08702
594.6928, 6.892532
595.1749, 2.124573
595.6570, 16.83203
596.1392, 4.348221
596.6213, 10.04764
597.1034, 10.24086
597.5854, 16.93430
598.0676, 9.552155
598.5497, 6.359116
599.0318, 0.1290740
599.5139, 3.085175
599.9960, 0.4311830
600.4781, 5.492950
600.9603, 10.95875
601.4424, 15.19215
601.9245, 20.97450
602.4066, 31.20026
602.8887, 43.04655
603.3708, 41.60605
603.8530, 24.62685
604.3351, 9.989655
604.8172, 11.40440
605.2993, 24.02560
605.7814, 28.99179
606.2635, 25.60544
606.7457, 19.78178
607.2278, 14.62802
607.7099, 11.09053
608.1920, 11.29076
608.6741, 18.08496
609.1563, 23.64108
609.6384, 19.57303
610.1205, 12.07550
610.6026, 11.49954
611.0847, 32.45190
611.5668, 47.95883
612.0490, 47.00763
612.5311, 32.47427
613.0132, 24.35468
613.4953, 24.95602
613.9774, 28.07498
614.4595, 31.63980
614.9417, 35.92239
615.4238, 35.89430
615.9059, 30.59520
616.3880, 25.05153
616.8701, 26.30276
617.3522, 32.03065
617.8344, 32.50500
618.3165, 24.13507
618.7986, 14.46988
619.2807, 11.23813
619.7628, 12.79195
620.2449, 15.68478
620.7271, 21.91890
621.2092, 25.59074
621.6913, 20.77831
622.1734, 9.648453
622.6555, 4.683884
623.1376, 13.88568
623.6198, 23.45900
624.1019, 27.66718
624.5840, 25.37361
625.0661, 23.59282
625.5482, 22.45203
626.0303, 21.60547
626.5125, 20.21208
626.9946, 18.34909
627.4767, 18.59944
627.9588, 21.51248
628.4409, 25.14787
628.9230, 26.38995
629.4052, 25.91101
629.8873, 25.97235
630.3694, 29.56703
630.8515, 32.29741
631.3336, 30.26346
631.8157, 24.05092
632.2979, 15.99741
632.7800, 1.069031
633.2621, 10.48811
633.7442, 11.42815
634.2263, 1.083313
634.7084, 9.402222
635.1906, 11.59824
635.6727, 10.84061
636.1548, 8.567886
636.6369, 3.634964
637.1190, 1.924149
637.6011, 4.220413
638.0833, 8.870255
638.5654, 16.08603
639.0475, 24.80013
639.5296, 25.99684
640.0117, 12.33849
640.4938, 4.352005
640.9760, 5.797424
641.4581, 4.453644
641.9402, 14.30807
642.4223, 17.94296
642.9044, 18.88565
643.3865, 18.67825
643.8687, 17.47559
644.3508, 17.45752
644.8329, 20.86494
645.3150, 22.68665
645.7971, 20.02066
646.2792, 9.341629
646.7614, 6.032776
647.2435, 13.62009
647.7256, 23.44000
648.2077, 24.98642
648.6898, 17.97127
649.1719, 11.10217
649.6541, 4.762543
650.1362, 1.298508
650.6183, 7.678802
651.1004, 20.68222
651.5825, 29.05872
652.0646, 21.31485
652.5468, 11.68640
653.0289, 15.06482
653.5110, 28.14859
653.9931, 34.73627
654.4752, 22.93466
654.9573, 9.097351
655.4395, 1.287476
655.9216, 1.001251
656.4037, 1.826324
656.8858, 3.653351
657.3679, 6.474182
657.8500, 11.31180
658.3322, 18.62848
658.8143, 24.19809
659.2964, 28.01028
659.7785, 29.38297
660.2606, 24.78500
660.7427, 16.28140
661.2249, 12.90280
661.7070, 19.51791
662.1891, 28.49286
662.6712, 31.79193
663.1533, 31.19525
663.6354, 31.06839
664.1175, 33.50168
664.5996, 36.64313
665.0817, 40.30206
665.5638, 44.34091
666.0460, 46.50174
666.5281, 44.17453
667.0102, 43.03247
667.4923, 46.64337
667.9744, 56.23700
668.4565, 58.35709
668.9387, 50.53262
669.4208, 43.43396
669.9029, 49.87363
670.3850, 66.38931
670.8671, 75.95215
671.3492, 75.17862
671.8314, 71.63672
672.3135, 71.70645
672.7956, 74.69940
673.2777, 79.72092
673.7598, 91.85321
674.2419, 99.53323
674.7241, 93.68234
675.2062, 79.76843
675.6883, 71.46915
676.1704, 75.30621
676.6525, 79.53430
677.1346, 82.12018
677.6168, 83.08575
678.0989, 81.68976
678.5810, 76.69641
679.0631, 74.11371
679.5452, 79.72070
680.0273, 91.28537
680.5095, 96.54199
680.9916, 95.41223
681.4737, 91.80139
681.9558, 88.21811
682.4379, 84.40485
682.9200, 78.66113
683.4022, 68.68567
683.8843, 64.58908
684.3664, 79.44122
684.8485, 98.64975
685.3306, 106.6373
685.8127, 91.53433
686.2949, 76.95181
686.7770, 62.64139
687.2591, 49.95074
687.7412, 41.68774
688.2233, 38.06976
688.7054, 37.49243
689.1876, 41.33676
689.6697, 46.33157
690.1518, 42.23264
690.6339, 30.49738
691.1160, 20.52075
691.5981, 21.09518
692.0803, 25.84824
692.5624, 27.08173
693.0445, 24.80234
693.5266, 22.19244
694.0087, 18.33417
694.4908, 16.28802
694.9730, 18.98410
695.4551, 29.36795
695.9372, 34.28317
696.4193, 31.89844
696.9014, 26.32104
697.3835, 20.03348
697.8657, 12.63013
698.3478, 8.058685
698.8299, 7.181366
699.3120, 8.454224
699.7941, 11.00201
700.2762, 13.49521
700.7584, 11.23959
701.2405, 0.7623600
701.7226, 11.70587
702.2047, 10.73836
702.6868, 2.350616
703.1689, 4.575989
703.6511, 6.932343
704.1332, 7.780884
704.6153, 7.715942
705.0974, 6.820374
705.5795, 5.078613
706.0616, 1.661011
706.5438, 0.9216610
707.0259, 1.906830
707.5080, 1.279266
707.9901, 2.069824
708.4722, 8.301514
708.9543, 13.51184
709.4365, 13.78351
709.9186, 11.60385
710.4007, 10.08542
710.8828, 9.387085
711.3649, 12.54791
711.8470, 27.08392
712.3292, 42.85672
712.8113, 51.01196
713.2934, 45.85992
713.7755, 42.27725
714.2576, 42.41156
714.7397, 44.16397
715.2219, 45.94684
715.7040, 48.40942
716.1861, 47.87119
716.6682, 42.73270
717.1503, 36.35837
717.6324, 34.01730
718.1146, 35.21930
718.5967, 37.62323
719.0788, 41.16714
719.5609, 44.58698
720.0430, 46.35165
720.5251, 46.95047
721.0073, 47.60175
721.4894, 49.28564
721.9715, 50.60199
722.4536, 50.84766
722.9357, 50.13513
723.4178, 49.62119
723.9000, 48.53906
724.3821, 48.04642
724.8642, 49.98721
725.3463, 53.83072
725.8284, 52.90509
726.3105, 46.89236
726.7927, 41.47906
727.2748, 39.90912
727.7569, 42.08942
728.2390, 50.84335
728.7211, 66.81111
729.2032, 76.75621
729.6853, 65.85910
730.1674, 49.37190
730.6495, 40.32806
731.1317, 44.54596
731.6138, 47.86507
732.0959, 50.70139
732.5780, 51.04297
733.0601, 45.78311
733.5422, 33.07610
734.0244, 24.37711
734.5065, 21.22450
734.9886, 21.14322
735.4707, 21.24181
735.9528, 21.36174
736.4349, 20.93964
736.9171, 18.86780
737.3992, 18.12411
737.8813, 24.82294
738.3634, 34.26599
738.8455, 37.84792
739.3276, 27.30832
739.8098, 16.66490
740.2919, 8.551880
740.7740, 3.221252
741.2561, 2.758163
741.7382, 8.707184
742.2203, 13.60164
742.7025, 15.17195
743.1846, 14.13007
743.6667, 13.07126
744.1488, 11.96277
744.6309, 10.24919
745.1130, 5.112442
745.5952, 0.6773220
746.0773, 3.563232
746.5594, 13.07066
747.0415, 21.01627
747.5236, 24.29869
748.0057, 24.75592
748.4879, 22.74321
748.9700, 17.54596
749.4521, 14.01009
749.9342, 12.84828
750.4163, 12.18680
750.8984, 10.26880
751.3806, 7.134506
751.8627, 6.483154
752.3448, 8.801666
752.8269, 11.28508
753.3090, 9.995300
753.7911, 7.206329
754.2733, 6.930359
754.7554, 10.46115
755.2375, 14.61923
755.7196, 18.60861
756.2017, 21.94884
756.6838, 24.17847
757.1660, 25.73967
757.6481, 25.15430
758.1302, 21.32938
758.6123, 16.31375
759.0944, 12.60825
759.5765, 9.719696
760.0587, 9.683762
760.5408, 14.49731
761.0229, 19.58249
761.5050, 17.44829
761.9871, 10.37152
762.4692, 4.355576
762.9514, 1.659332
763.4335, 1.011169
763.9156, 2.434830
764.3977, 5.147018
764.8798, 8.428207
765.3619, 14.94266
765.8441, 18.49382
766.3262, 16.51427
766.8083, 10.84409
767.2904, 9.599167
767.7725, 12.21922
768.2546, 14.53603
768.7368, 15.60159
769.2189, 15.04842
769.7010, 10.20888
770.1831, 2.202393
770.6652, 2.999954
771.1473, 1.636108
771.6295, 7.380386
772.1116, 7.463318
772.5937, 1.821320
773.0758, 1.759491
773.5579, 2.199585
774.0400, 0.2807770
774.5222, 4.692764
775.0043, 12.82495
775.4864, 17.43498
775.9685, 18.26648
776.4506, 17.06680
776.9327, 13.32568
777.4149, 8.900391
777.8970, 9.215591
778.3791, 14.53967
778.8612, 18.23708
779.3433, 14.50525
779.8254, 8.110809
780.3076, 2.024124
780.7897, 4.938187
781.2718, 5.481781
781.7539, 5.511353
782.2360, 18.05455
782.7181, 24.82867
783.2003, 25.25104
783.6824, 24.47932
784.1645, 22.65730
784.6466, 19.89470
785.1287, 14.64194
785.6108, 8.807556
786.0930, 7.439651
786.5751, 12.74504
787.0572, 16.83704
787.5393, 11.86505
788.0214, 4.896973
788.5035, 2.542236
788.9857, 12.33115
789.4678, 18.02359
789.9499, 17.22618
790.4320, 14.12880
790.9141, 14.92110
791.3962, 20.12495
791.8784, 19.53819
792.3605, 9.970947
792.8426, 0.2686000
793.3247, 0.2502440
793.8068, 5.823685
794.2889, 8.942734
794.7711, 3.420105
795.2531, 1.057022
795.7352, 2.228378
796.2173, 9.239105
796.6995, 13.53581
797.1816, 14.40970
797.6637, 12.21185
798.1458, 4.442505
798.6279, 4.320328
799.1100, 3.386734
799.5922, 6.877869
800.0743, 14.98669
800.5564, 17.01578
801.0385, 16.29141
801.5206, 17.85583
802.0027, 19.98589
802.4849, 18.95572
802.9670, 7.073380
803.4491, 1.569687
803.9312, 8.8867001E-02
804.4133, 9.011139
804.8954, 16.64500
805.3776, 24.01819
805.8597, 27.23111
806.3418, 23.40736
806.8239, 16.44867
807.3060, 18.63895
807.7881, 28.56808
808.2703, 33.81592
808.7524, 24.66637
809.2345, 12.51727
809.7166, 9.901337
810.1987, 14.18037
810.6808, 17.82304
811.1630, 17.95134
811.6451, 17.21454
812.1272, 15.53844
812.6093, 13.62939
813.0914, 14.65028
813.5735, 19.88744
814.0557, 23.05728
814.5378, 20.30208
815.0199, 15.06953
815.5020, 18.13036
815.9841, 27.60182
816.4662, 34.36810
816.9484, 31.36006
817.4305, 25.58160
817.9126, 20.84573
818.3947, 17.52713
818.8768, 17.20464
819.3589, 26.77823
819.8411, 30.62982
820.3232, 22.13432
820.8053, 4.815140
821.2874, 0.6936950
821.7695, 6.417297
822.2516, 15.13138
822.7338, 23.00412
823.2159, 27.46655
823.6980, 19.71706
824.1801, 3.034332
824.6622, 8.148468
825.1443, 2.454956
825.6265, 6.699875
826.1086, 13.06706
826.5907, 16.59842
827.0728, 20.15759
827.5549, 25.03755
828.0370, 27.32764
828.5192, 24.24991
829.0013, 17.82251
829.4834, 15.77383
829.9655, 17.84952
830.4476, 21.36534
830.9297, 25.16557
831.4119, 29.28596
831.8940, 35.00919
832.3761, 41.54662
832.8582, 45.06036
833.3403, 42.82315
833.8224, 38.61636
834.3046, 32.63371
834.7867, 25.54900
835.2688, 22.61546
835.7509, 24.58812
836.2330, 26.91595
836.7151, 28.13591
837.1973, 27.86931
837.6794, 24.03918
838.1615, 17.45100
838.6436, 11.88359
839.1257, 9.603729
839.6078, 9.925186
840.0900, 13.02983
840.5721, 18.35062
841.0542, 21.97192
841.5363, 22.89749
842.0184, 23.56456
842.5005, 25.61717
842.9827, 27.88069
843.4648, 23.95555
843.9469, 14.11246
844.4290, 4.318863
844.9111, 5.510056
845.3932, 11.18970
845.8754, 3.451218
846.3575, 13.44467
846.8396, 24.75758
847.3217, 18.70270
847.8038, 12.87831
848.2859, 15.76274
848.7681, 24.07358
849.2502, 21.48630
849.7323, 4.687408
850.2144, 6.351410
850.6965, 1.686172
851.1786, 11.68835
851.6608, 19.84473
852.1429, 23.19902
852.6250, 24.34972
853.1071, 24.31981
853.5892, 22.67557
854.0714, 16.70297
854.5535, 8.272461
855.0356, 4.664856
855.5177, 8.395477
855.9998, 13.20665
856.4819, 18.59698
856.9641, 23.27057
857.4462, 20.45586
857.9283, 10.83423
858.4104, 4.134079
858.8925, 4.317032
859.3746, 9.217499
859.8568, 22.25755
860.3389, 38.03290
860.8210, 43.96442
861.3030, 23.18817
861.7852, 8.113403
862.2673, 7.337311
862.7494, 14.96300
863.2315, 18.20081
863.7136, 16.45338
864.1957, 15.87071
864.6779, 19.00768
865.1600, 22.31746
865.6421, 18.54276
866.1242, 10.74667
866.6063, 5.897797
867.0884, 7.879990
867.5706, 11.72957
868.0527, 18.77858
868.5348, 25.22252
869.0169, 25.07895
869.4990, 12.68773
869.9811, 10.14272
870.4633, 24.08115
870.9454, 41.83449
871.4275, 40.21584
871.9096, 24.87843
872.3917, 15.27008
872.8738, 17.76472
873.3560, 23.70203
873.8381, 31.06712
874.3202, 35.94296
874.8023, 34.38940
875.2844, 18.04056
875.7665, 6.338379
876.2487, 1.120804
876.7308, 3.381821
877.2129, 3.900558
877.6950, 19.58568
878.1771, 26.63911
878.6592, 21.86627
879.1414, 14.84430
879.6235, 15.98576
880.1056, 20.07216
880.5877, 20.58315
881.0698, 14.39833
881.5519, 11.08730
882.0341, 14.80492
882.5162, 18.51286
882.9983, 19.24367
883.4804, 16.36998
883.9625, 15.56513
884.4446, 17.19257
884.9268, 18.64229
885.4089, 15.13824
885.8910, 11.01117
886.3731, 14.96812
886.8552, 28.03799
887.3373, 36.62294
887.8195, 29.43605
888.3016, 20.77734
888.7837, 20.08640
889.2658, 28.26796
889.7479, 27.64398
890.2300, 15.92973
890.7122, 5.479797
891.1943, 6.328033
891.6764, 13.67624
892.1585, 14.09961
892.6406, 8.840607
893.1227, 7.307632
893.6049, 19.00711
894.0870, 32.19193
894.5691, 41.63919
895.0512, 46.89143
895.5333, 47.12422
896.0154, 40.96260
896.4976, 32.81305
896.9797, 22.21428
897.4618, 12.40833
897.9439, 15.27715
898.4260, 28.11685
898.9081, 37.37238
899.3903, 32.11609
899.8724, 25.20660
900.3545, 26.18590
900.8366, 31.79428
901.3187, 32.75807
901.8008, 26.25194
902.2830, 18.39804
902.7651, 7.477448
903.2472, 2.148300
903.7293, 1.995422
904.2114, 17.35518
904.6935, 26.50328
905.1757, 22.70401
905.6578, 16.40079
906.1399, 15.72719
906.6220, 18.58916
907.1041, 22.16876
907.5862, 28.85701
908.0684, 31.01720
908.5505, 27.29744
909.0326, 22.27832
909.5147, 21.81201
909.9968, 25.38074
910.4789, 23.19844
910.9611, 13.28352
911.4432, 5.156555
911.9253, 10.47073
912.4074, 20.84518
912.8895, 26.68196
913.3716, 25.12752
913.8538, 26.00557
914.3359, 35.26155
914.8180, 42.03705
915.3001, 38.44244
915.7822, 24.48309
916.2643, 15.55695
916.7465, 11.80504
917.2286, 11.36842
917.7107, 14.87595
918.1928, 19.64757
918.6749, 24.25909
919.1570, 28.56816
919.6392, 27.57349
920.1213, 12.67186
920.6034, 1.522919
921.0855, 0.8419950
921.5676, 8.296783
922.0497, 12.78300
922.5319, 14.23413
923.0140, 16.93839
923.4961, 26.23718
923.9782, 33.90901
924.4603, 25.33369
924.9424, 7.426163
925.4246, 3.900162
925.9067, 2.402405
926.3888, 9.175705
926.8708, 12.38503
927.3530, 14.41498
927.8351, 20.80734
928.3172, 32.13095
928.7993, 36.73837
929.2814, 31.78786
929.7635, 22.20998
930.2457, 9.951889
930.7278, 1.655670
931.2099, 6.823181
931.6920, 1.665115
932.1741, 4.037033
932.6563, 11.53876
933.1384, 17.77129
933.6205, 19.12872
934.1026, 14.38120
934.5847, 16.44917
935.0668, 26.85312
935.5490, 36.14679
936.0311, 35.10460
936.5132, 29.11339
936.9953, 25.45374
937.4774, 24.54218
937.9595, 20.89908
938.4417, 6.870193
938.9238, 3.594070
939.4059, 4.618286
939.8880, 2.679443
940.3701, 10.10208
940.8522, 17.65208
941.3344, 24.12405
941.8165, 30.50848
942.2986, 34.03116
942.7807, 28.13855
943.2628, 16.65932
943.7449, 9.291351
944.2271, 14.94257
944.7092, 17.36166
945.1913, 9.782715
945.6734, 6.3538000E-02
946.1555, 4.068146
946.6376, 22.06003
947.1198, 34.97398
947.6019, 38.88928
948.0840, 37.87404
948.5661, 34.34625
949.0482, 29.55196
949.5303, 24.71896
950.0125, 18.74915
950.4946, 16.71265
950.9767, 21.20503
951.4588, 27.25317
951.9409, 32.66049
952.4230, 37.37236
952.9052, 33.56441
953.3873, 20.89485
953.8694, 8.398499
954.3515, 0.5351720
954.8336, 3.567093
955.3157, 6.070801
955.7979, 27.14420
956.2800, 37.81310
956.7621, 26.04439
957.2442, 16.02853
957.7263, 16.05377
958.2084, 22.84868
958.6906, 25.89346
959.1727, 25.40923
959.6548, 22.96317
960.1369, 17.62048
960.6190, 12.74526
961.1011, 11.21223
961.5833, 12.20885
962.0654, 13.47072
962.5475, 15.60110
963.0296, 16.11655
963.5117, 14.03781
963.9938, 11.65009
964.4760, 11.81314
964.9581, 14.24033
965.4402, 18.02730
965.9223, 23.17999
966.4044, 28.17889
966.8865, 33.83279
967.3687, 37.46182
967.8508, 35.34200
968.3329, 25.65564
968.8150, 22.13930
969.2971, 26.71819
969.7792, 31.95584
970.2614, 34.95624
970.7435, 35.09308
971.2256, 27.92236
971.7077, 15.37672
972.1898, 6.515717
972.6719, 9.997208
973.1541, 14.55453
973.6362, 15.00932
974.1183, 12.60045
974.6004, 11.18045
975.0825, 11.53856
975.5646, 8.465622
976.0468, 1.055130
976.5289, 9.328690
977.0110, 1.928452
977.4931, 14.03302
977.9752, 24.67010
978.4573, 24.39180
978.9395, 25.13405
979.4216, 35.14185
979.9037, 44.33011
980.3858, 44.94521
980.8679, 35.95982
981.3500, 28.73267
981.8322, 23.42113
982.3143, 18.44173
982.7964, 9.406204
983.2785, 1.768417
983.7606, 6.743149
984.2427, 21.80168
984.7249, 30.21373
985.2070, 16.91267
985.6891, 9.539169
986.1712, 17.93802
986.6533, 34.58105
987.1354, 39.00278
987.6176, 31.99692
988.0997, 19.45670
988.5818, 2.050461
989.0639, 17.08223
989.5460, 3.247177
990.0281, 22.33524
990.5103, 37.22301
990.9924, 29.38962
991.4745, 26.67616
991.9566, 32.15616
992.4387, 36.29507
992.9208, 27.01540
993.4029, 9.121674
993.8850, 1.612640
994.3671, 4.915833
994.8492, 7.890594
995.3314, 1.170517
995.8135, 5.559036
996.2956, 6.469376
996.7777, 2.367752
997.2598, 3.629898
997.7419, 13.19679
998.2241, 18.73814
998.7062, 16.73969
999.1883, 10.91107
999.6704, 4.942429
1000.153, 7.6049998E-02
1000.635, 1.045822
1001.117, 5.142319
1001.599, 10.91858
1002.081, 14.51907
1002.563, 16.76062
1003.045, 18.52391
1003.527, 19.84674
1004.009, 17.94006
1004.492, 12.31513
1004.974, 8.252060
1005.456, 12.31511
1005.938, 18.59048
1006.420, 21.10324
1006.902, 19.56628
1007.384, 18.86404
1007.866, 20.11128
1008.349, 21.35913
1008.831, 22.34406
1009.313, 22.64124
1009.795, 20.70804
1010.277, 16.96626
1010.759, 12.81703
1011.241, 6.408066
1011.723, 3.894989
1012.205, 12.45442
1012.688, 24.90904
1013.170, 32.74437
1013.652, 34.50706
1014.134, 33.94354
1014.616, 30.26944
1015.098, 28.04416
1015.580, 34.39825
1016.062, 43.70174
1016.544, 45.47690
1017.027, 39.67371
1017.509, 35.19829
1017.991, 35.28296
1018.473, 37.72397
1018.955, 42.61327
1019.437, 48.88773
1019.919, 53.64372
1020.401, 56.74562
1020.884, 55.09966
1021.366, 45.48907
1021.848, 35.47884
1022.330, 32.13596
1022.812, 32.65927
1023.294, 33.37433
1023.776, 33.47171
1024.258, 34.20868
1024.740, 35.74707
1025.223, 37.50430
1025.705, 39.70280
1026.187, 41.62161
1026.669, 41.36638
1027.151, 38.84085
1027.633, 34.06609
1028.115, 21.48065
1028.597, 12.47649
1029.079, 14.29651
1029.562, 23.38829
1030.044, 30.08913
1030.526, 34.39047
1031.008, 36.53624
1031.490, 35.87917
1031.972, 35.03690
1032.454, 39.28624
1032.936, 44.31264
1033.419, 43.85356
1033.901, 33.99829
1034.383, 24.49687
1034.865, 14.74619
1035.347, 9.767258
1035.829, 17.51279
1036.311, 33.92612
1036.793, 33.27676
1037.276, 18.27303
1037.758, 8.306351
1038.240, 21.58197
1038.722, 35.47791
1039.204, 37.85759
1039.686, 31.75612
1040.168, 24.92603
1040.650, 16.92422
1041.132, 10.57243
1041.615, 6.135666
1042.097, 4.022812
1042.579, 5.068436
1043.061, 8.547455
1043.543, 14.04442
1044.025, 22.14963
1044.507, 28.59810
1044.989, 33.73915
1045.471, 35.05542
1045.954, 30.25424
1046.436, 21.15106
1046.918, 15.82162
1047.400, 15.50739
1047.882, 16.49979
1048.364, 17.68221
1048.846, 19.05539
1049.328, 21.29330
1049.811, 23.45053
1050.293, 24.14453
1050.775, 23.52777
1051.257, 19.89853
1051.739, 12.23669
1052.221, 6.101822
1052.703, 8.768784
1053.185, 15.48268
1053.667, 20.46164
1054.150, 23.23186
1054.632, 23.62199
1055.114, 15.38202
1055.596, 12.42635
1056.078, 21.38640
1056.560, 36.94263
1057.042, 43.98962
1057.524, 42.81476
1058.006, 36.01709
1058.489, 20.01180
1058.971, 8.862076
1059.453, 17.11845
1059.935, 30.69385
1060.417, 34.02994
1060.899, 23.07700
1061.381, 22.49004
1061.863, 33.75806
1062.346, 43.93883
1062.828, 41.70248
1063.310, 34.34631
1063.792, 32.49849
1064.274, 34.16531
1064.756, 31.45851
1065.238, 12.27107
1065.720, 2.089890
1066.203, 7.022568
1066.685, 19.81943
1067.167, 33.28094
1067.649, 44.95792
1068.131, 42.85698
1068.613, 23.01425
1069.095, 7.728806
1069.577, 12.21054
1070.059, 23.42174
1070.542, 36.26785
1071.024, 49.61852
1071.506, 47.89078
1071.988, 30.25601
1072.470, 19.13742
1072.952, 29.90860
1073.434, 44.17691
1073.916, 40.58168
1074.398, 27.39340
1074.881, 17.94254
1075.363, 16.60446
1075.845, 16.30806
1076.327, 17.67856
1076.809, 18.50760
1077.291, 14.91183
1077.773, 9.794159
1078.255, 11.09610
1078.738, 18.36349
1079.220, 26.07120
1079.702, 34.94958
1080.184, 39.61383
1080.666, 38.07755
1081.148, 32.03986
1081.630, 23.63184
1082.112, 13.30673
1082.594, 6.491928
1083.077, 4.081665
1083.559, 6.132736
1084.041, 18.28442
1084.523, 30.90878
1085.005, 34.38135
1085.487, 27.78473
1085.969, 21.88425
1086.451, 16.51440
1086.933, 12.45242
1087.416, 10.25337
1087.898, 9.351608
1088.380, 7.723663
1088.862, 6.911652
1089.344, 9.997833
1089.826, 25.81168
1090.308, 33.28333
1090.790, 28.41852
1091.272, 19.91051
1091.755, 14.60822
1092.237, 12.40967
1092.719, 13.93716
1093.201, 18.82587
1093.683, 23.24423
1094.165, 22.74843
1094.647, 24.10825
1095.129, 32.99094
1095.612, 44.52631
1096.094, 47.24084
1096.576, 41.11314
1097.058, 36.91208
1097.540, 37.20859
1098.022, 36.74579
1098.504, 27.08945
1098.986, 16.90382
1099.469, 16.32051
1099.951, 27.40265
1100.433, 28.37785
1100.915, 16.76913
1101.397, 5.209991
1101.879, 1.988831
1102.361, 4.561340
1102.843, 0.1687320
1103.325, 8.714996
1103.807, 15.97559
1104.290, 18.92384
1104.772, 23.53064
1105.254, 32.37144
1105.736, 39.53941
1106.218, 39.04080
1106.700, 32.93221
1107.182, 28.71086
1107.664, 25.90227
1108.147, 24.00963
1108.629, 22.22609
1109.111, 22.12070
1109.593, 26.75951
1110.075, 32.01358
1110.557, 30.94183
1111.039, 23.60393
1111.521, 11.29013
1112.004, 6.639023
1112.486, 19.55501
1112.968, 14.58759
1113.450, 4.613144
1113.932, 0.9683380
1114.414, 3.115509
1114.896, 2.821640
1115.378, 19.35802
1115.860, 28.65695
1116.343, 23.15639
1116.825, 12.23167
1117.307, 4.814941
1117.789, 1.228302
1118.271, 3.045395
1118.753, 14.50322
1119.235, 18.00914
1119.717, 9.511841
1120.199, 1.348434
1120.682, 2.804321
1121.164, 8.906952
1121.646, 5.501984
1122.128, 3.841354
1122.610, 8.338272
1123.092, 2.482895
1123.574, 10.01431
1124.056, 9.275955
1124.539, 6.386551
1125.021, 9.115387
1125.503, 15.76790
1125.985, 14.45952
1126.467, 5.284973
1126.949, 1.241440
1127.431, 4.073364
1127.913, 10.72180
1128.396, 14.10809
1128.878, 15.44052
1129.360, 14.18126
1129.842, 10.85928
1130.324, 9.496796
1130.806, 10.99472
1131.288, 13.20552
1131.770, 15.36751
1132.252, 16.51172
1132.734, 14.40970
1133.217, 9.290466
1133.699, 10.41792
1134.181, 19.16995
1134.663, 25.55725
1135.145, 25.20345
1135.627, 22.45100
1136.109, 23.42642
1136.591, 25.35672
1137.074, 23.38177
1137.556, 12.10580
1138.038, 11.63988
1138.520, 26.89264
1139.002, 39.79642
1139.484, 35.73369
1139.966, 23.54482
1140.448, 22.17575
1140.931, 27.90579
1141.413, 30.78522
1141.895, 21.80728
1142.377, 18.17978
1142.859, 23.90881
1143.341, 31.72963
1143.823, 33.89346
1144.305, 32.18297
1144.787, 33.98869
1145.270, 38.78578
1145.752, 39.71608
1146.234, 27.26060
1146.716, 17.94211
1147.198, 18.13733
1147.680, 23.39110
1148.162, 26.84268
1148.644, 28.60892
1149.126, 30.06281
1149.609, 31.51021
1150.091, 30.71921
1150.573, 22.60925
1151.055, 15.30951
1151.537, 14.42740
1152.019, 18.36880
1152.501, 20.45013
1152.983, 20.73819
1153.466, 24.91405
1153.948, 36.67564
1154.430, 45.22328
1154.912, 38.09140
1155.394, 25.52196
1155.876, 16.16632
1156.358, 10.21538
1156.840, 12.87526
1157.322, 25.30818
1157.805, 35.20490
1158.287, 37.58553
1158.769, 33.93201
1159.251, 19.43977
1159.733, 2.306534
1160.215, 3.399597
1160.697, 10.23349
1161.179, 17.01370
1161.661, 15.72855
1162.144, 13.41014
1162.626, 17.37552
1163.108, 21.81104
1163.590, 15.84261
1164.072, 3.500977
1164.554, 3.526245
1165.036, 0.4660950
1165.518, 3.609634
1166.000, 5.354080
1166.483, 5.687241
1166.965, 2.968338
1167.447, 0.4027560
1167.929, 0.1001740
1168.411, 4.331924
1168.893, 9.661163
1169.375, 18.05063
1169.857, 22.70915
1170.340, 21.31181
1170.822, 18.33350
1171.304, 20.20528
1171.786, 24.04294
1172.268, 22.42363
1172.750, 14.76700
1173.232, 10.03026
1173.714, 14.14352
1174.197, 19.06491
1174.679, 23.13470
1175.161, 25.78322
1175.643, 24.37607
1176.125, 20.35419
1176.607, 18.14426
1177.089, 18.80257
1177.571, 20.87749
1178.053, 28.34921
1178.536, 31.54921
1179.018, 22.70808
1179.500, 6.925507
1179.982, 7.474564
1180.464, 20.54254
1180.946, 31.11536
1181.428, 30.30811
1181.910, 26.06760
1182.392, 21.35394
1182.875, 17.02693
1183.357, 12.65884
1183.839, 8.558823
1184.321, 17.01532
1184.803, 35.27916
1185.285, 42.96805
1185.767, 14.66203
1186.249, 8.127029
1186.732, 4.393570
1187.214, 26.61772
1187.696, 32.76013
1188.178, 22.35342
1188.660, 15.19182
1189.142, 11.57162
1189.624, 11.00099
1190.106, 15.44672
1190.589, 20.40721
1191.071, 24.38181
1191.553, 26.63400
1192.035, 25.42799
1192.517, 20.51813
1192.999, 17.92375
1193.481, 18.11188
1193.963, 18.81631
1194.445, 17.61615
1194.927, 17.05588
1195.410, 20.53291
1195.892, 25.63544
1196.374, 25.56961
1196.856, 19.91260
1197.338, 15.65012
1197.820, 13.53859
1198.302, 15.30464
1198.784, 27.98372
1199.267, 40.39717
1199.749, 42.82831
1200.231, 36.86888
1200.713, 29.72501
1201.195, 21.18504
1201.677, 15.23834
1202.159, 13.04469
1202.641, 11.94836
1203.124, 7.943008
1203.606, 5.074387
1204.088, 8.046799
1204.570, 16.34084
1205.052, 23.77065
1205.534, 30.55554
1206.016, 34.12332
1206.498, 33.51935
1206.980, 30.00229
1207.463, 19.82036
1207.945, 10.59666
1208.427, 12.49258
1208.909, 25.68137
1209.391, 34.43684
1209.873, 38.53481
1210.355, 40.36748
1210.837, 41.18916
1211.319, 39.56038
1211.802, 31.25995
1212.284, 21.28165
1212.766, 15.79536
1213.248, 15.36008
1213.730, 16.22292
1214.212, 18.55530
1214.694, 19.41222
1215.176, 13.51149
1215.659, 10.22610
1216.141, 25.78995
1216.623, 45.72198
1217.105, 47.15735
1217.587, 23.16661
1218.069, 12.83308
1218.551, 17.62135
1219.033, 22.23764
1219.516, 13.96210
1219.998, 4.006180
1220.480, 1.197983
1220.962, 3.524963
1221.444, 7.470032
1221.926, 13.64908
1222.408, 16.27383
1222.890, 15.50836
1223.372, 14.93185
1223.854, 19.98563
1224.337, 23.72174
1224.819, 16.01584
1225.301, 3.991333
1225.783, 5.177948
1226.265, 22.97382
1226.747, 31.99200
1227.229, 30.26944
1227.711, 25.83710
1228.193, 23.91476
1228.676, 22.84082
1229.158, 22.01376
1229.640, 20.84836
1230.122, 16.93658
1230.604, 9.541168
1231.086, 10.84686
1231.568, 22.87500
1232.050, 31.77600
1232.533, 20.92795
1233.015, 8.178192
1233.497, 9.023712
1233.979, 17.88315
1234.461, 17.02719
1234.943, 6.291382
1235.425, 0.8578190
1235.907, 3.324219
1236.390, 7.673187
1236.872, 13.74243
1237.354, 15.66684
1237.836, 3.134888
1238.318, 15.25444
1238.800, 11.98868
1239.282, 11.31213
1239.764, 21.04593
1240.246, 9.423523
1240.729, 2.903320
1241.211, 1.367065
1241.693, 5.156250
1242.175, 14.19919
1242.657, 22.81219
1243.139, 17.84793
1243.621, 1.687134
1244.103, 5.540588
1244.585, 3.198364
1245.068, 12.88318
1245.550, 15.72812
1246.032, 15.58154
1246.514, 14.07349
1246.996, 12.37030
1247.478, 14.65674
1247.960, 20.28873
1248.442, 27.09103
1248.925, 36.12057
1249.407, 38.94876
1249.889, 22.81863
1250.371, 9.294556
1250.853, 10.53909
1251.335, 20.78131
1251.817, 20.74194
1252.299, 13.72070
1252.781, 11.43469
1253.264, 19.20752
1253.746, 23.18231
1254.228, 13.49319
1254.710, 6.100403
1255.192, 9.419403
1255.674, 19.07175
1256.156, 22.56699
1256.638, 22.12387
1257.120, 23.81387
1257.603, 31.79800
1258.085, 32.93698
1258.567, 20.10532
1259.049, 10.55692
1259.531, 15.33597
1260.013, 26.59930
1260.495, 27.36755
1260.977, 21.56516
1261.460, 17.01608
1261.942, 15.93643
1262.424, 15.67175
1262.906, 16.03867
1263.388, 17.01294
1263.870, 18.35748
1264.352, 20.48477
1264.834, 27.60983
1265.317, 35.10669
1265.799, 33.66580
1266.281, 15.73438
1266.763, 7.090515
1267.245, 9.352966
1267.727, 12.75705
1268.209, 11.13055
1268.691, 8.611908
1269.173, 11.02142
1269.656, 15.56921
1270.138, 17.59079
1270.620, 16.11288
1271.102, 16.04224
1271.584, 17.49350
1272.066, 18.34146
1272.548, 16.12027
1273.030, 14.69940
1273.512, 17.93243
1273.995, 24.93860
1274.477, 22.66678
1274.959, 10.03943
1275.441, 7.118134
1275.923, 13.10672
1276.405, 16.11008
1276.887, 6.856445
1277.369, 0.6279910
1277.852, 4.672028
1278.334, 13.86844
1278.816, 18.78293
1279.298, 19.50955
1279.780, 19.13019
1280.262, 17.66275
1280.744, 15.25699
1281.226, 7.974030
1281.708, 5.499298
1282.191, 15.83282
1282.673, 26.67361
1283.155, 27.48752
1283.637, 20.56152
1284.119, 15.34213
1284.601, 12.40695
1285.083, 13.63159
1285.565, 26.70941
1286.047, 33.34775
1286.530, 30.46606
1287.012, 23.59827
1287.494, 14.82550
1287.976, 6.303253
1288.458, 3.100403
1288.940, 4.071167
1289.422, 6.230377
1289.904, 12.08621
1290.386, 12.13623
1290.869, 4.350586
1291.351, 1.767609
1291.833, 1.914642
1292.315, 10.47919
1292.797, 20.58572
1293.279, 30.16611
1293.761, 33.38605
1294.243, 28.10767
1294.726, 23.50052
1295.208, 19.48587
1295.690, 17.88840
1296.172, 21.67377
1296.654, 26.44177
1297.136, 31.09378
1297.618, 32.88184
1298.100, 26.57965
1298.583, 10.50430
1299.065, 8.171051
1299.547, 18.43628
1300.029, 25.69629
1300.511, 21.93411
1300.993, 16.33862
1301.475, 13.54477
1301.957, 11.21259
1302.439, 5.410583
1302.922, 2.276855
1303.404, 2.574799
1303.886, 16.90179
1304.368, 27.40491
1304.850, 23.36087
1305.332, 20.59073
1305.814, 14.50192
1306.296, 15.45883
1306.778, 11.33215
1307.261, 5.938019
1307.743, 0.0000000E+00
##END=



