##NAMES=Enstatite
##RRUFFID=R070550
##IDEAL CHEMISTRY=MgSiO_3_
##LOCALITY=Tanzania
##OWNER=RRUFF
##SOURCE=www.multicolour.com
##DESCRIPTION=Brown, translucent, vitreous crystal fragment
##STATUS=The identification of this mineral has been confirmed by X-ray diffraction and chemical analysis
##URL=rruff.info/R070550
##MEASURED CHEMISTRY=(Mg_0.90_Fe_0.10_)_Î£=1_Si_1.00_O_3_
125.7391, 0.0000000E+00
126.2212, 3.445068
126.7033, 27.23242
127.1854, 55.90411
127.6675, 81.02716
128.1497, 105.2789
128.6318, 138.8818
129.1139, 187.5943
129.5960, 237.8641
130.0781, 280.7528
130.5602, 316.5034
131.0424, 342.5282
131.5245, 352.2111
132.0066, 347.6534
132.4887, 333.3885
132.9708, 288.6987
133.4529, 235.4002
133.9351, 183.3185
134.4172, 132.6200
134.8993, 86.95459
135.3814, 47.01666
135.8635, 12.83575
136.3456, 8.536133
136.8278, 5.148254
137.3099, 3.444336
137.7920, 2.621338
138.2741, 8.531982
138.7562, 18.61786
139.2383, 13.82281
139.7205, 8.556335
140.2026, 25.81372
140.6847, 26.44141
141.1668, 25.45020
141.6489, 31.23553
142.1310, 45.25061
142.6132, 62.65521
143.0953, 76.18188
143.5774, 82.03448
144.0595, 96.90454
144.5416, 131.4330
145.0237, 169.6184
145.5059, 201.4508
145.9880, 224.3091
146.4701, 242.9421
146.9522, 264.0607
147.4343, 287.0096
147.9164, 314.4906
148.3986, 352.6504
148.8807, 391.4333
149.3628, 423.4323
149.8449, 446.1912
150.3270, 462.7588
150.8091, 479.1956
151.2912, 501.2109
151.7734, 512.0144
152.2555, 506.6969
152.7376, 493.5919
153.2197, 478.5209
153.7018, 463.8508
154.1839, 449.8348
154.6661, 437.1198
155.1482, 426.6669
155.6303, 416.2905
156.1124, 403.7877
156.5945, 392.1877
157.0766, 385.4208
157.5588, 384.9746
158.0409, 387.8964
158.5230, 386.6630
159.0051, 369.5532
159.4872, 363.2488
159.9693, 376.4938
160.4515, 392.4418
160.9336, 397.8462
161.4157, 390.0909
161.8978, 375.6315
162.3799, 371.9002
162.8620, 385.3165
163.3442, 402.2070
163.8263, 422.7898
164.3084, 446.1905
164.7905, 475.6759
165.2726, 513.2220
165.7547, 549.9667
166.2369, 559.1739
166.7190, 525.5766
167.2011, 485.7930
167.6832, 438.8865
168.1653, 389.1914
168.6474, 341.3681
169.1296, 297.1668
169.6117, 257.1771
170.0938, 223.4644
170.5759, 193.5618
171.0580, 171.7457
171.5401, 163.4409
172.0223, 162.4579
172.5044, 159.0200
172.9865, 148.4058
173.4686, 134.3286
173.9507, 128.0746
174.4328, 132.8525
174.9150, 139.4006
175.3971, 149.7440
175.8792, 160.1497
176.3613, 162.4640
176.8434, 151.6996
177.3255, 134.8821
177.8077, 132.3918
178.2898, 151.4333
178.7719, 170.2165
179.2540, 183.9269
179.7361, 193.9398
180.2182, 202.4406
180.7004, 210.0817
181.1825, 217.2581
181.6646, 224.9744
182.1467, 233.6390
182.6288, 241.9988
183.1109, 248.1866
183.5931, 253.0219
184.0752, 261.2911
184.5573, 274.7150
185.0394, 291.4018
185.5215, 306.4958
186.0036, 317.1077
186.4858, 332.3882
186.9679, 357.7943
187.4500, 389.4482
187.9321, 418.8737
188.4142, 442.2338
188.8963, 464.0426
189.3785, 496.2308
189.8606, 543.9518
190.3427, 585.0224
190.8248, 615.6957
191.3069, 634.7313
191.7890, 638.5605
192.2712, 624.7134
192.7533, 598.2866
193.2354, 566.1025
193.7175, 526.8827
194.1996, 488.6094
194.6817, 454.1533
195.1639, 422.6412
195.6460, 391.5526
196.1281, 359.3473
196.6102, 328.5938
197.0923, 306.0865
197.5744, 292.7362
198.0566, 278.3227
198.5387, 256.2349
199.0208, 231.8409
199.5029, 216.4918
199.9850, 215.2659
200.4671, 218.0112
200.9493, 207.7056
201.4314, 183.7424
201.9135, 162.8563
202.3956, 150.9225
202.8777, 144.1263
203.3598, 137.3151
203.8420, 129.5930
204.3241, 119.9992
204.8062, 105.4942
205.2883, 86.10931
205.7704, 69.95142
206.2525, 60.76221
206.7347, 55.70972
207.2168, 49.62183
207.6989, 40.02844
208.1810, 30.63843
208.6631, 26.46613
209.1452, 27.28345
209.6274, 30.88599
210.1095, 37.63275
210.5916, 45.66394
211.0737, 52.56580
211.5558, 57.93219
212.0379, 64.52136
212.5201, 75.57471
213.0022, 90.81689
213.4843, 106.4302
213.9664, 120.1091
214.4485, 134.5554
214.9306, 153.1748
215.4128, 175.8257
215.8949, 197.6828
216.3770, 213.4688
216.8591, 224.6036
217.3412, 244.1039
217.8233, 276.1608
218.3055, 314.7463
218.7876, 357.3799
219.2697, 403.8415
219.7518, 446.5567
220.2339, 475.9547
220.7160, 495.5769
221.1982, 528.2397
221.6803, 589.5477
222.1624, 652.8248
222.6445, 694.2945
223.1266, 716.2540
223.6087, 742.8241
224.0909, 790.2640
224.5730, 855.2177
225.0551, 916.2753
225.5372, 968.0649
226.0193, 1020.599
226.5014, 1079.527
226.9836, 1144.083
227.4657, 1211.399
227.9478, 1278.768
228.4299, 1348.936
228.9120, 1430.275
229.3941, 1524.052
229.8763, 1625.587
230.3584, 1728.189
230.8405, 1836.140
231.3226, 1962.081
231.8047, 2113.281
232.2868, 2283.205
232.7690, 2458.539
233.2511, 2647.054
233.7332, 2825.576
234.2153, 2994.376
234.6974, 3146.828
235.1796, 3277.553
235.6617, 3389.912
236.1438, 3462.262
236.6259, 3441.836
237.1080, 3314.692
237.5901, 3152.795
238.0723, 2948.056
238.5544, 2722.670
239.0365, 2501.246
239.5186, 2290.955
240.0007, 2089.751
240.4828, 1894.803
240.9650, 1701.116
241.4471, 1525.396
241.9292, 1373.609
242.4113, 1237.732
242.8934, 1109.787
243.3755, 987.9350
243.8577, 877.6490
244.3398, 786.1485
244.8219, 718.8091
245.3040, 650.4210
245.7861, 573.9966
246.2682, 501.1794
246.7504, 440.2070
247.2325, 391.4585
247.7146, 349.8386
248.1967, 311.8045
248.6788, 277.3073
249.1609, 244.9656
249.6431, 209.9756
250.1252, 181.0112
250.6073, 166.8176
251.0894, 163.0175
251.5715, 155.6280
252.0536, 133.6059
252.5358, 98.75720
253.0179, 77.88434
253.5000, 80.52130
253.9821, 84.50714
254.4642, 85.62280
254.9463, 83.71729
255.4285, 79.22656
255.9106, 72.34998
256.3927, 63.21844
256.8748, 52.17975
257.3569, 35.62689
257.8390, 21.36505
258.3211, 9.685425
258.8033, 0.8198240
259.2854, 4.711243
259.7675, 6.690125
260.2496, 6.036804
260.7317, 4.410095
261.2138, 0.4824220
261.6960, 2.581665
262.1781, 2.622498
262.6602, 0.3109130
263.1423, 9.683228
263.6244, 25.03619
264.1065, 39.17645
264.5887, 40.59174
265.0708, 20.57587
265.5529, 12.66333
266.0350, 27.40723
266.5171, 43.80188
266.9992, 50.71936
267.4814, 48.10657
267.9635, 42.38074
268.4456, 39.53247
268.9277, 39.81458
269.4098, 39.53186
269.8919, 36.08270
270.3741, 34.56036
270.8562, 40.64758
271.3383, 49.97437
271.8204, 52.59619
272.3025, 39.33264
272.7846, 14.45172
273.2668, 3.417114
273.7489, 16.96051
274.2310, 29.37036
274.7131, 32.27521
275.1952, 30.08002
275.6773, 28.93433
276.1595, 32.12805
276.6416, 36.38959
277.1237, 33.96796
277.6058, 21.79913
278.0879, 11.45532
278.5700, 7.765076
279.0522, 6.269348
279.5343, 3.637878
280.0164, 0.9320070
280.4985, 7.084473
280.9806, 15.24902
281.4627, 25.68750
281.9449, 34.27344
282.4270, 38.06140
282.9091, 41.47821
283.3912, 49.84106
283.8733, 63.06860
284.3554, 72.20251
284.8376, 66.10547
285.3197, 49.17444
285.8018, 42.82141
286.2839, 53.29620
286.7660, 68.67700
287.2481, 78.98102
287.7303, 85.60065
288.2124, 93.96674
288.6945, 105.8178
289.1766, 120.9375
289.6587, 140.1801
290.1408, 164.3336
290.6230, 188.0385
291.1051, 207.0593
291.5872, 222.8502
292.0693, 239.0259
292.5514, 252.8082
293.0335, 269.9023
293.5157, 297.0556
293.9978, 332.8602
294.4799, 367.8512
294.9620, 396.9120
295.4441, 422.1337
295.9262, 450.1527
296.4084, 484.1431
296.8905, 514.9534
297.3726, 539.2841
297.8547, 557.7143
298.3368, 572.0548
298.8189, 583.4439
299.3011, 588.2916
299.7832, 579.3765
300.2653, 553.1706
300.7474, 523.7372
301.2295, 487.8323
301.7116, 451.8322
302.1938, 420.1534
302.6759, 394.0275
303.1580, 374.6982
303.6401, 363.8986
304.1222, 362.8130
304.6043, 364.3313
305.0865, 371.6001
305.5686, 378.1603
306.0507, 381.2111
306.5328, 380.9131
307.0149, 378.1161
307.4970, 373.0853
307.9792, 366.3152
308.4613, 361.6669
308.9434, 364.0104
309.4255, 362.9771
309.9076, 351.3561
310.3897, 337.5568
310.8719, 332.7301
311.3540, 341.4305
311.8361, 358.0332
312.3182, 370.4023
312.8003, 373.6257
313.2824, 383.2133
313.7646, 397.2196
314.2467, 419.0382
314.7288, 453.2032
315.2109, 498.9976
315.6930, 549.1965
316.1751, 598.2280
316.6573, 646.3459
317.1394, 688.8626
317.6215, 716.3505
318.1036, 748.8620
318.5857, 801.0275
319.0678, 866.1348
319.5500, 925.7885
320.0321, 969.3083
320.5142, 999.5216
320.9963, 1023.923
321.4784, 1040.104
321.9605, 1055.517
322.4427, 1070.091
322.9248, 1089.350
323.4069, 1118.292
323.8890, 1157.040
324.3711, 1204.207
324.8532, 1258.174
325.3354, 1319.796
325.8175, 1394.203
326.2996, 1485.195
326.7817, 1587.653
327.2638, 1693.380
327.7459, 1802.393
328.2281, 1914.665
328.7102, 2030.031
329.1923, 2148.602
329.6744, 2268.329
330.1565, 2388.834
330.6386, 2521.427
331.1208, 2675.270
331.6029, 2850.815
332.0850, 3037.412
332.5671, 3234.744
333.0492, 3443.653
333.5313, 3659.143
334.0135, 3882.940
334.4956, 4129.366
334.9777, 4407.441
335.4598, 4714.270
335.9419, 5029.309
336.4240, 5357.255
336.9062, 5688.015
337.3883, 6038.985
337.8704, 6384.308
338.3525, 6693.384
338.8346, 6954.964
339.3167, 7171.713
339.7989, 7354.590
340.2810, 7540.866
340.7631, 7602.974
341.2452, 7525.804
341.7273, 7358.573
342.2094, 7114.882
342.6916, 6806.269
343.1737, 6447.180
343.6558, 6045.114
344.1379, 5599.436
344.6200, 5163.874
345.1021, 4729.134
345.5843, 4313.266
346.0664, 3911.667
346.5485, 3532.087
347.0306, 3185.059
347.5127, 2874.841
347.9948, 2596.563
348.4770, 2343.260
348.9591, 2114.891
349.4412, 1911.950
349.9233, 1744.590
350.4054, 1597.953
350.8875, 1463.139
351.3697, 1339.159
351.8518, 1225.742
352.3339, 1120.441
352.8160, 1025.545
353.2981, 948.8341
353.7802, 895.3362
354.2624, 851.6709
354.7445, 807.3765
355.2266, 762.8730
355.7087, 720.2997
356.1908, 678.6927
356.6729, 640.1556
357.1551, 606.7997
357.6372, 578.3522
358.1193, 554.3669
358.6014, 536.6064
359.0835, 521.6801
359.5656, 496.6948
360.0478, 454.9711
360.5299, 414.5657
361.0120, 380.1417
361.4941, 349.4122
361.9762, 318.6257
362.4583, 286.8048
362.9405, 256.9336
363.4226, 233.4989
363.9047, 218.9563
364.3868, 203.2413
364.8689, 180.5625
365.3510, 162.0510
365.8332, 154.6796
366.3153, 156.6864
366.7974, 161.7516
367.2795, 165.1597
367.7616, 168.0173
368.2437, 177.4019
368.7259, 198.6339
369.2080, 218.6390
369.6901, 235.2651
370.1722, 249.3748
370.6543, 260.0048
371.1364, 266.9640
371.6186, 276.4249
372.1007, 298.1108
372.5828, 332.9393
373.0649, 364.7919
373.5470, 386.6177
374.0291, 410.5781
374.5113, 445.8490
374.9934, 490.7242
375.4755, 536.5782
375.9576, 581.8759
376.4397, 624.4460
376.9218, 660.2489
377.4040, 688.6539
377.8861, 715.5609
378.3682, 746.5613
378.8503, 777.6320
379.3324, 799.2468
379.8145, 810.9327
380.2967, 813.7162
380.7788, 806.3431
381.2609, 790.6566
381.7430, 767.4330
382.2251, 735.9274
382.7072, 705.6427
383.1894, 690.5714
383.6715, 696.6202
384.1536, 701.2133
384.6357, 701.6416
385.1178, 702.9297
385.5999, 705.0831
386.0821, 710.4438
386.5642, 724.4474
387.0463, 750.9272
387.5284, 789.2314
388.0105, 834.3331
388.4926, 890.9751
388.9748, 948.6782
389.4569, 1003.393
389.9390, 1059.574
390.4211, 1121.360
390.9032, 1189.639
391.3853, 1263.068
391.8675, 1338.804
392.3496, 1415.944
392.8317, 1501.021
393.3138, 1601.071
393.7959, 1703.000
394.2780, 1800.567
394.7602, 1891.836
395.2423, 1977.504
395.7244, 2060.882
396.2065, 2137.536
396.6886, 2199.351
397.1707, 2245.858
397.6529, 2284.587
398.1350, 2322.804
398.6171, 2352.095
399.0992, 2357.757
399.5813, 2334.908
400.0634, 2304.674
400.5456, 2277.585
401.0277, 2246.671
401.5098, 2198.239
401.9919, 2129.826
402.4740, 2058.250
402.9561, 2000.207
403.4383, 1957.460
403.9204, 1909.074
404.4025, 1852.477
404.8846, 1794.044
405.3667, 1731.987
405.8488, 1670.276
406.3310, 1614.742
406.8131, 1568.862
407.2952, 1531.289
407.7773, 1506.247
408.2594, 1502.930
408.7415, 1492.728
409.2237, 1463.522
409.7058, 1433.227
410.1879, 1411.879
410.6700, 1397.778
411.1521, 1388.016
411.6342, 1373.255
412.1164, 1357.366
412.5985, 1352.915
413.0806, 1366.069
413.5627, 1378.190
414.0448, 1386.422
414.5269, 1384.506
415.0091, 1360.068
415.4912, 1301.704
415.9733, 1246.785
416.4554, 1231.253
416.9375, 1240.923
417.4196, 1232.469
417.9018, 1193.503
418.3839, 1143.164
418.8660, 1102.309
419.3481, 1072.822
419.8302, 1035.275
420.3123, 991.3503
420.7945, 937.7309
421.2766, 867.1851
421.7587, 785.2246
422.2408, 703.2164
422.7229, 627.0724
423.2050, 556.5106
423.6872, 491.4048
424.1693, 430.9386
424.6514, 377.1077
425.1335, 334.0692
425.6156, 294.3324
426.0977, 252.6031
426.5799, 208.3069
427.0620, 164.9596
427.5441, 123.7853
428.0262, 85.95447
428.5083, 56.54443
428.9904, 36.42944
429.4726, 22.54541
429.9547, 16.32166
430.4368, 14.71448
430.9189, 14.25409
431.4010, 14.56903
431.8831, 14.65674
432.3653, 12.73792
432.8474, 9.838562
433.3295, 9.398438
433.8116, 12.30920
434.2937, 17.33417
434.7758, 22.98553
435.2580, 29.27191
435.7401, 38.62054
436.2222, 51.81799
436.7043, 67.48108
437.1864, 85.25177
437.6685, 104.9108
438.1507, 126.6260
438.6328, 150.6488
439.1149, 175.1689
439.5970, 195.8979
440.0791, 212.0627
440.5612, 225.7966
441.0434, 238.0178
441.5255, 247.3922
442.0076, 256.1612
442.4897, 261.8335
442.9718, 256.8073
443.4539, 233.4382
443.9361, 196.1512
444.4182, 160.8549
444.9003, 127.7050
445.3824, 96.38800
445.8645, 65.67194
446.3466, 37.86212
446.8288, 15.59314
447.3109, 0.5133670
447.7930, 12.48962
448.2751, 21.06952
448.7572, 26.35400
449.2393, 26.31030
449.7215, 19.99921
450.2036, 18.03839
450.6857, 32.11945
451.1678, 59.90741
451.6499, 73.16864
452.1320, 60.62238
452.6142, 47.95026
453.0963, 45.11151
453.5784, 46.97095
454.0605, 45.84949
454.5426, 39.44373
455.0247, 30.97833
455.5069, 24.70129
455.9890, 20.95587
456.4711, 17.88049
456.9532, 16.43817
457.4353, 14.72784
457.9174, 12.24500
458.3995, 9.044922
458.8817, 5.066162
459.3638, 2.7100001E-02
459.8459, 4.942871
460.3280, 7.087524
460.8101, 6.366638
461.2922, 7.690186
461.7744, 14.35718
462.2565, 20.64050
462.7386, 19.03430
463.2207, 10.42346
463.7028, 4.941528
464.1849, 13.44708
464.6671, 6.960754
465.1492, 17.66241
465.6313, 19.17859
466.1134, 15.97821
466.5955, 3.810547
467.0776, 10.63171
467.5598, 18.25073
468.0419, 0.5234380
468.5240, 29.39258
469.0061, 11.08197
469.4882, 12.05573
469.9703, 4.235596
470.4525, 15.52582
470.9346, 20.94318
471.4167, 18.73309
471.8988, 5.372131
472.3809, 5.196106
472.8630, 13.74231
473.3452, 17.50317
473.8273, 11.02209
474.3094, 2.002075
474.7915, 4.477051
475.2736, 7.807556
475.7557, 7.007080
476.2379, 1.104004
476.7200, 12.91046
477.2021, 22.69806
477.6842, 30.01172
478.1663, 33.50696
478.6484, 31.60065
479.1306, 25.34753
479.6127, 19.55963
480.0948, 11.13965
480.5769, 7.181824
481.0590, 12.91315
481.5411, 21.47815
482.0233, 24.41248
482.5054, 21.31592
482.9875, 20.02448
483.4696, 29.80542
483.9517, 49.55206
484.4338, 54.91113
484.9160, 32.93610
485.3981, 16.03381
485.8802, 16.24573
486.3623, 23.37842
486.8444, 25.74017
487.3265, 20.46448
487.8087, 16.73346
488.2908, 25.15283
488.7729, 41.49023
489.2550, 51.74475
489.7371, 54.00262
490.2192, 52.60974
490.7014, 49.40979
491.1835, 45.00012
491.6656, 42.25323
492.1477, 41.18726
492.6298, 41.79071
493.1119, 44.90677
493.5941, 49.32333
494.0762, 53.87643
494.5583, 58.13791
495.0404, 61.64282
495.5225, 63.95667
496.0046, 65.09769
496.4868, 64.64597
496.9689, 62.15076
497.4510, 58.47089
497.9331, 51.51382
498.4152, 44.56241
498.8973, 41.92773
499.3795, 44.84631
499.8616, 49.32751
500.3437, 50.16599
500.8258, 48.91199
501.3079, 53.30948
501.7900, 65.11926
502.2722, 79.16052
502.7543, 92.87592
503.2364, 105.7232
503.7185, 115.8192
504.2006, 119.7455
504.6827, 125.0706
505.1649, 134.0901
505.6470, 146.1356
506.1291, 161.7460
506.6112, 180.5877
507.0933, 199.6020
507.5754, 215.3366
508.0576, 227.4827
508.5397, 241.4767
509.0218, 256.7416
509.5039, 273.6063
509.9860, 295.0370
510.4681, 318.6713
510.9503, 340.9941
511.4324, 361.0427
511.9145, 382.0970
512.3966, 408.3908
512.8787, 438.5904
513.3608, 465.6062
513.8430, 487.5212
514.3251, 512.3240
514.8072, 545.4661
515.2893, 585.9708
515.7714, 628.3506
516.2535, 679.8812
516.7357, 722.6674
517.2178, 745.9901
517.6999, 760.3760
518.1820, 777.1662
518.6641, 798.1435
519.1462, 819.2581
519.6284, 837.0629
520.1105, 851.5620
520.5926, 863.3044
521.0747, 874.5330
521.5568, 878.8458
522.0389, 867.4695
522.5211, 854.6614
523.0032, 851.1006
523.4853, 858.2041
523.9674, 865.8887
524.4495, 871.8087
524.9316, 874.3771
525.4138, 874.6229
525.8959, 874.4674
526.3780, 861.0693
526.8601, 829.1657
527.3422, 784.5553
527.8243, 746.9876
528.3065, 717.2118
528.7886, 687.6872
529.2707, 654.5338
529.7528, 624.8200
530.2349, 604.1975
530.7170, 591.4873
531.1992, 581.1029
531.6813, 568.7498
532.1634, 556.3869
532.6455, 550.2068
533.1276, 549.2737
533.6097, 558.5984
534.0919, 588.2045
534.5740, 621.9973
535.0561, 649.2302
535.5382, 670.1091
536.0203, 688.9214
536.5024, 709.1946
536.9846, 727.0110
537.4667, 737.1318
537.9488, 740.5756
538.4309, 744.5067
538.9130, 753.1858
539.3951, 758.7915
539.8773, 747.3016
540.3594, 710.1989
540.8415, 684.8848
541.3236, 680.9707
541.8057, 678.3710
542.2878, 665.6802
542.7700, 648.2433
543.2521, 636.6150
543.7342, 636.0515
544.2163, 639.9985
544.6984, 639.5281
545.1805, 634.3530
545.6627, 630.6823
546.1448, 630.9622
546.6269, 629.5123
547.1090, 617.9386
547.5911, 601.1498
548.0732, 593.1018
548.5554, 604.9799
549.0375, 612.3190
549.5196, 599.3746
550.0017, 576.5823
550.4838, 561.0269
550.9659, 554.9574
551.4481, 544.7197
551.9302, 516.6112
552.4123, 472.5565
552.8944, 433.0403
553.3765, 398.6287
553.8586, 367.7863
554.3408, 340.5006
554.8229, 315.6585
555.3050, 292.6754
555.7871, 271.5632
556.2692, 252.6402
556.7513, 237.2380
557.2335, 224.1596
557.7156, 210.8688
558.1977, 197.2044
558.6798, 185.1623
559.1619, 176.3674
559.6440, 168.9708
560.1262, 158.6296
560.6083, 141.3522
561.0904, 131.9489
561.5725, 137.5571
562.0546, 143.7260
562.5367, 142.1879
563.0189, 135.8852
563.5010, 131.6559
563.9831, 132.6914
564.4652, 135.5710
564.9473, 133.4395
565.4294, 125.9801
565.9116, 126.6690
566.3937, 142.1704
566.8758, 156.1835
567.3579, 155.3116
567.8400, 144.4925
568.3221, 134.1908
568.8043, 122.7964
569.2864, 116.5608
569.7685, 120.5032
570.2506, 130.4351
570.7327, 142.6226
571.2148, 155.4691
571.6970, 164.6166
572.1791, 165.5378
572.6612, 160.0950
573.1433, 161.2334
573.6254, 174.0039
574.1075, 183.8003
574.5897, 187.5054
575.0718, 187.9247
575.5539, 186.0512
576.0360, 182.4404
576.5181, 179.0737
577.0002, 178.2408
577.4824, 177.4140
577.9645, 173.1433
578.4466, 165.9013
578.9287, 157.8976
579.4108, 149.7480
579.8929, 141.7899
580.3751, 134.6175
580.8572, 128.6583
581.3393, 121.3426
581.8214, 111.1187
582.3035, 101.4878
582.7856, 92.59998
583.2678, 85.44238
583.7499, 82.12982
584.2320, 83.07166
584.7141, 83.85596
585.1962, 78.25488
585.6783, 68.44644
586.1605, 65.81262
586.6426, 72.67758
587.1247, 74.30963
587.6068, 58.89716
588.0889, 35.47504
588.5710, 27.01282
589.0532, 39.66013
589.5353, 48.63983
590.0174, 48.47952
590.4995, 44.74271
590.9816, 38.38889
591.4637, 32.09048
591.9459, 32.57721
592.4280, 44.09009
592.9101, 58.19177
593.3922, 57.66779
593.8743, 40.87192
594.3564, 27.51682
594.8386, 18.96973
595.3207, 15.14908
595.8028, 19.10812
596.2849, 27.52087
596.7670, 32.87213
597.2491, 33.62082
597.7313, 32.18112
598.2134, 26.90442
598.6955, 21.48431
599.1776, 22.92871
599.6597, 30.55365
600.1418, 35.35095
600.6240, 30.20990
601.1061, 17.20169
601.5882, 3.952271
602.0703, 11.33759
602.5524, 22.24414
603.0345, 26.93045
603.5167, 27.30405
603.9988, 22.71872
604.4809, 14.46347
604.9630, 7.213654
605.4451, 0.9460450
605.9272, 1.895020
606.4094, 5.232788
606.8915, 16.71619
607.3736, 17.94519
607.8557, 5.607422
608.3378, 8.530396
608.8199, 12.44772
609.3021, 6.569244
609.7842, 1.134155
610.2663, 5.336639
610.7484, 9.084351
611.2305, 9.273712
611.7126, 6.887939
612.1948, 0.7879940
612.6769, 8.049591
613.1590, 13.58679
613.6411, 10.03207
614.1232, 2.865845
614.6053, 1.675690
615.0875, 3.760712
615.5696, 3.709595
616.0517, 1.427643
616.5338, 1.497650
617.0159, 3.248138
617.4980, 3.909058
617.9802, 2.655151
618.4623, 5.501404
618.9444, 9.552826
619.4265, 3.164185
619.9086, 6.301666
620.3907, 10.12543
620.8729, 7.241058
621.3550, 5.018585
621.8371, 10.59427
622.3192, 19.70865
622.8013, 24.37650
623.2834, 24.74161
623.7656, 24.00690
624.2477, 23.07599
624.7298, 22.67535
625.2119, 24.11017
625.6940, 28.11685
626.1761, 30.74240
626.6583, 31.35934
627.1404, 31.51282
627.6225, 31.09732
628.1046, 30.81073
628.5867, 31.39084
629.0688, 33.03891
629.5510, 35.62402
630.0331, 39.86023
630.5152, 44.81003
630.9973, 47.99475
631.4794, 49.35770
631.9615, 50.11566
632.4437, 50.55737
632.9258, 51.07202
633.4079, 51.94510
633.8900, 52.14139
634.3721, 56.67596
634.8542, 69.95377
635.3364, 82.50894
635.8185, 90.62939
636.3006, 95.50223
636.7827, 98.44482
637.2648, 99.98029
637.7469, 102.1400
638.2291, 106.1776
638.7112, 112.4009
639.1933, 122.0515
639.6754, 135.2614
640.1575, 149.8501
640.6396, 165.2336
641.1218, 181.0997
641.6039, 196.9326
642.0860, 212.5827
642.5681, 228.8946
643.0502, 247.8798
643.5323, 265.4040
644.0145, 276.9854
644.4966, 287.1094
644.9787, 302.3253
645.4608, 324.4921
645.9429, 349.6264
646.4250, 372.2412
646.9072, 395.1994
647.3893, 427.1674
647.8714, 468.2780
648.3535, 513.6091
648.8356, 561.8065
649.3177, 611.1368
649.7999, 658.7596
650.2820, 702.7481
650.7641, 751.1101
651.2462, 801.7435
651.7283, 858.4053
652.2104, 926.9319
652.6926, 1000.124
653.1747, 1066.663
653.6568, 1124.021
654.1389, 1184.513
654.6210, 1261.626
655.1031, 1348.509
655.5853, 1427.997
656.0674, 1500.180
656.5495, 1581.004
657.0316, 1678.382
657.5137, 1783.720
657.9958, 1885.307
658.4780, 1982.683
658.9601, 2075.308
659.4422, 2162.135
659.9243, 2244.973
660.4064, 2341.118
660.8885, 2426.444
661.3707, 2471.014
661.8528, 2470.423
662.3349, 2446.631
662.8170, 2411.526
663.2991, 2364.777
663.7813, 2305.300
664.2634, 2232.888
664.7455, 2147.430
665.2276, 2048.807
665.7097, 1945.745
666.1918, 1848.637
666.6740, 1756.842
667.1561, 1672.228
667.6382, 1592.918
668.1203, 1523.404
668.6024, 1462.235
669.0845, 1413.226
669.5667, 1381.707
670.0488, 1367.452
670.5309, 1361.705
671.0130, 1361.178
671.4951, 1365.727
671.9772, 1372.786
672.4594, 1384.676
672.9415, 1410.931
673.4236, 1454.244
673.9057, 1502.676
674.3878, 1542.816
674.8699, 1575.524
675.3521, 1614.579
675.8342, 1655.494
676.3163, 1711.365
676.7984, 1797.746
677.2805, 1890.429
677.7626, 1969.165
678.2448, 2036.759
678.7269, 2111.871
679.2090, 2208.146
679.6911, 2305.583
680.1732, 2393.222
680.6553, 2472.086
681.1375, 2543.705
681.6196, 2607.947
682.1017, 2661.789
682.5838, 2703.595
683.0659, 2731.123
683.5480, 2736.468
684.0302, 2719.499
684.5123, 2680.137
684.9944, 2618.261
685.4765, 2534.052
685.9586, 2420.000
686.4407, 2283.577
686.9229, 2144.429
687.4050, 2003.577
687.8871, 1862.416
688.3692, 1718.510
688.8513, 1575.938
689.3334, 1435.054
689.8156, 1298.825
690.2977, 1174.316
690.7798, 1065.557
691.2619, 969.6297
691.7440, 881.8974
692.2261, 802.3255
692.7083, 733.9199
693.1904, 678.0933
693.6725, 626.9040
694.1546, 575.2999
694.6367, 525.4543
695.1188, 483.6907
695.6010, 455.6143
696.0831, 421.9313
696.5652, 370.2656
697.0473, 324.2217
697.5294, 300.7961
698.0115, 290.4238
698.4937, 276.6810
698.9758, 254.3128
699.4579, 229.9333
699.9400, 207.7643
700.4221, 188.4816
700.9042, 174.3592
701.3864, 165.1290
701.8685, 156.6927
702.3506, 147.5302
702.8327, 137.8618
703.3148, 127.6305
703.7969, 116.4652
704.2791, 108.3625
704.7612, 107.5976
705.2433, 103.6859
705.7254, 90.43744
706.2075, 75.63245
706.6896, 66.98721
707.1718, 64.76862
707.6539, 62.90973
708.1360, 58.35934
708.6181, 53.77625
709.1002, 51.69553
709.5823, 50.47342
710.0645, 47.70184
710.5466, 43.01859
711.0287, 37.24960
711.5108, 30.53467
711.9929, 23.88129
712.4750, 21.68381
712.9572, 24.77588
713.4393, 29.36887
713.9214, 37.32446
714.4035, 42.77982
714.8856, 38.60565
715.3677, 27.80646
715.8499, 21.12436
716.3320, 21.38806
716.8141, 22.14096
717.2962, 22.86328
717.7783, 22.42142
718.2604, 19.13321
718.7426, 13.90207
719.2247, 8.692688
719.7068, 4.351227
720.1889, 1.833710
720.6710, 4.075745
721.1531, 9.274384
721.6353, 9.732239
722.1174, 4.869965
722.5995, 0.1831050
723.0816, 3.535553
723.5637, 5.423828
724.0458, 6.129303
724.5280, 5.753296
725.0101, 3.789551
725.4922, 1.197693
725.9743, 6.145233
726.4564, 11.62878
726.9385, 15.89334
727.4207, 15.85843
727.9028, 11.53235
728.3849, 8.888855
728.8670, 11.27811
729.3491, 16.13062
729.8312, 23.59424
730.3134, 31.19736
730.7955, 33.00934
731.2776, 28.35022
731.7597, 23.08044
732.2418, 22.02332
732.7239, 25.13766
733.2061, 32.08087
733.6882, 43.37936
734.1703, 53.42770
734.6524, 61.56421
735.1345, 67.33563
735.6166, 68.64603
736.0988, 67.04434
736.5809, 69.58322
737.0630, 79.73779
737.5451, 88.11682
738.0272, 93.74268
738.5093, 96.88739
738.9915, 95.85931
739.4736, 92.98264
739.9557, 92.67972
740.4378, 96.67862
740.9199, 101.8642
741.4020, 105.9084
741.8842, 108.9465
742.3663, 110.1124
742.8484, 110.0095
743.3305, 114.8828
743.8126, 128.8278
744.2947, 143.8289
744.7769, 147.6166
745.2590, 139.9089
745.7411, 138.9615
746.2232, 146.7040
746.7053, 157.3389
747.1874, 172.4459
747.6696, 187.2887
748.1517, 198.8371
748.6338, 207.0497
749.1159, 210.1425
749.5980, 200.8935
750.0801, 194.4714
750.5623, 201.9177
751.0444, 212.1581
751.5265, 214.9107
752.0086, 208.9081
752.4907, 195.4211
752.9728, 174.8777
753.4550, 153.0258
753.9371, 138.0920
754.4192, 128.8071
754.9013, 120.4934
755.3834, 112.6184
755.8655, 103.8351
756.3477, 93.86877
756.8298, 82.46063
757.3119, 68.07263
757.7940, 48.56622
758.2761, 35.79865
758.7582, 34.15921
759.2404, 33.56467
759.7225, 33.19489
760.2046, 30.88528
760.6867, 20.99695
761.1688, 3.984283
761.6509, 3.511627
762.1331, 14.22229
762.6152, 31.61374
763.0973, 31.70364
763.5794, 23.20074
764.0615, 18.83957
764.5436, 19.35571
765.0258, 17.17044
765.5079, 6.969208
765.9900, 5.790588
766.4721, 10.64163
766.9542, 8.645599
767.4363, 7.176208
767.9185, 7.380219
768.4006, 7.564117
768.8827, 6.448029
769.3648, 4.759430
769.8469, 4.282166
770.3290, 5.564911
770.8112, 6.346222
771.2933, 7.411957
771.7754, 6.997070
772.2575, 2.500336
772.7396, 2.701477
773.2217, 4.048737
773.7039, 1.195496
774.1860, 4.0130999E-02
774.6681, 4.112427
775.1502, 7.890839
775.6323, 7.695251
776.1144, 5.301636
776.5966, 2.258331
777.0787, 0.4946900
777.5608, 0.4892270
778.0429, 4.977295
778.5250, 11.56281
779.0071, 10.13931
779.4893, 2.410339
779.9714, 1.350494
780.4535, 0.3014220
780.9356, 3.490814
781.4177, 6.204498
781.8998, 8.295349
782.3820, 9.418976
782.8641, 9.661957
783.3462, 8.693665
783.8283, 5.144867
784.3104, 2.221588
784.7925, 1.053345
785.2747, 1.021912
785.7568, 1.858093
786.2389, 3.507019
786.7210, 4.561737
787.2031, 3.617462
787.6852, 3.203888
788.1674, 6.351410
788.6495, 9.595367
789.1316, 8.160187
789.6137, 2.501587
790.0958, 3.319244
790.5779, 7.467560
791.0601, 9.018250
791.5422, 5.035706
792.0243, 2.397186
792.5064, 7.191223
792.9885, 8.788666
793.4706, 8.384064
793.9528, 6.356750
794.4349, 4.078949
794.9170, 4.231567
795.3991, 7.216064
795.8812, 7.856506
796.3633, 4.711853
796.8455, 2.704102
797.3276, 4.345825
797.8097, 6.944489
798.2918, 8.040710
798.7739, 7.636810
799.2560, 4.797089
799.7382, 7.358368
800.2203, 12.84659
800.7024, 0.3335880
801.1845, 14.94894
801.6666, 14.83203
802.1487, 4.277557
802.6309, 2.586853
803.1130, 4.3182001E-02
803.5951, 5.624847
804.0772, 12.71954
804.5593, 17.89835
805.0414, 13.97354
805.5236, 3.613434
806.0057, 3.380859
806.4878, 3.419250
806.9699, 0.3063660
807.4520, 5.528900
807.9341, 11.07919
808.4163, 8.929413
808.8984, 1.901672
809.3805, 4.791046
809.8626, 6.620361
810.3447, 18.83276
810.8268, 20.42337
811.3090, 13.41672
811.7911, 7.319244
812.2732, 0.4562990
812.7553, 2.444916
813.2374, 1.485565
813.7195, 6.295990
814.2017, 10.27869
814.6838, 13.21289
815.1659, 14.52652
815.6480, 13.97711
816.1301, 13.84341
816.6122, 13.37680
817.0944, 15.16373
817.5765, 24.95352
818.0586, 35.80914
818.5407, 36.83566
819.0228, 28.05109
819.5049, 19.35550
819.9871, 18.04947
820.4692, 18.52765
820.9513, 10.62857
821.4334, 1.008484
821.9155, 1.400421
822.3976, 9.718201
822.8798, 18.91101
823.3619, 18.95773
823.8440, 13.53867
824.3261, 8.144226
824.8082, 3.103882
825.2903, 4.281250
825.7725, 13.89948
826.2546, 20.54065
826.7367, 20.31982
827.2188, 16.34686
827.7009, 10.66129
828.1830, 3.396820
828.6651, 0.6689760
829.1472, 0.6434020
829.6293, 2.103241
830.1115, 5.053253
830.5936, 6.802490
831.0757, 3.468140
831.5578, 1.789368
832.0399, 2.136993
832.5220, 5.011841
833.0042, 10.74466
833.4863, 8.780762
833.9684, 6.350281
834.4505, 10.58228
834.9326, 17.36841
835.4147, 19.68829
835.8969, 16.69592
836.3790, 12.89258
836.8611, 11.54221
837.3432, 11.06464
837.8253, 7.867401
838.3074, 3.902771
838.7896, 4.818359
839.2717, 10.75775
839.7538, 16.83820
840.2359, 20.28775
840.7180, 22.23315
841.2001, 23.94080
841.6823, 25.33279
842.1644, 30.88483
842.6465, 41.90781
843.1286, 50.98773
843.6107, 56.02026
844.0928, 57.29855
844.5750, 53.08847
845.0571, 44.29428
845.5392, 44.45535
846.0213, 61.92120
846.5034, 74.95145
846.9855, 78.48962
847.4677, 81.04639
847.9498, 85.65720
848.4319, 92.60022
848.9140, 102.9370
849.3961, 118.0305
849.8782, 131.7157
850.3604, 139.0138
850.8425, 146.8760
851.3246, 162.9470
851.8067, 179.8692
852.2888, 185.7434
852.7709, 181.5796
853.2531, 181.6405
853.7352, 196.4939
854.2173, 212.6391
854.6994, 215.1817
855.1815, 210.4805
855.6636, 208.3132
856.1458, 209.3708
856.6279, 212.5638
857.1100, 217.3007
857.5921, 218.8564
858.0742, 211.2300
858.5563, 197.7068
859.0385, 185.7343
859.5206, 175.0864
860.0027, 168.1878
860.4848, 165.9353
860.9669, 163.3132
861.4490, 155.7748
861.9312, 144.0732
862.4133, 130.3517
862.8954, 112.3751
863.3775, 101.4974
863.8596, 101.5766
864.3417, 101.9247
864.8239, 99.19958
865.3060, 93.02298
865.7881, 81.79254
866.2702, 64.47339
866.7523, 48.99155
867.2344, 31.77481
867.7166, 22.55832
868.1987, 27.31067
868.6808, 35.91959
869.1629, 43.20340
869.6450, 47.93701
870.1271, 47.96143
870.6093, 41.72849
871.0914, 35.46164
871.5735, 32.52707
872.0556, 29.18817
872.5377, 20.43335
873.0198, 10.44223
873.5020, 5.911346
873.9841, 7.824768
874.4662, 11.98856
874.9483, 17.56204
875.4304, 21.38754
875.9125, 18.75711
876.3947, 12.47943
876.8768, 6.895782
877.3589, 2.887299
877.8410, 1.350372
878.3231, 2.714233
878.8052, 5.073425
879.2874, 5.430542
879.7695, 4.724915
880.2516, 6.490601
880.7337, 10.01059
881.2158, 10.19687
881.6979, 5.547363
882.1801, 0.6715700
882.6622, 0.8483580
883.1443, 0.6857300
883.6264, 5.140106
884.1085, 13.73224
884.5906, 15.05966
885.0728, 4.941010
885.5549, 0.8115540
886.0370, 7.278290
886.5191, 19.02243
887.0012, 20.15591
887.4833, 10.15546
887.9655, 4.624573
888.4476, 6.569641
888.9297, 7.975616
889.4118, 3.572266
889.8939, 2.418549
890.3760, 14.14182
890.8582, 31.88556
891.3403, 41.06293
891.8224, 38.73694
892.3045, 34.70502
892.7866, 26.28574
893.2687, 21.60086
893.7509, 27.99643
894.2330, 37.29160
894.7151, 39.70218
895.1972, 36.00357
895.6793, 35.35114
896.1614, 44.24124
896.6436, 50.06177
897.1257, 42.40833
897.6078, 31.11450
898.0899, 24.18707
898.5720, 21.82220
899.0541, 22.06635
899.5363, 24.57437
900.0184, 29.74994
900.5005, 42.05539
900.9826, 52.85184
901.4647, 48.20093
901.9468, 35.22876
902.4290, 28.44672
902.9111, 29.28879
903.3932, 29.85767
903.8753, 25.17657
904.3574, 18.58856
904.8395, 14.42520
905.3217, 12.42471
905.8038, 12.37421
906.2859, 13.76553
906.7680, 12.04376
907.2501, 6.603607
907.7322, 2.677246
908.2144, 3.982635
908.6965, 8.696564
909.1786, 12.27161
909.6607, 15.00598
910.1428, 19.02350
910.6249, 25.28027
911.1071, 28.54395
911.5892, 25.82666
912.0713, 20.73642
912.5534, 17.03116
913.0355, 15.09488
913.5176, 17.12457
913.9998, 24.77679
914.4819, 32.14661
914.9640, 38.54355
915.4461, 44.29471
915.9282, 49.35571
916.4103, 54.04108
916.8925, 58.59564
917.3746, 62.37805
917.8567, 69.86932
918.3388, 84.24329
918.8209, 98.41516
919.3030, 111.4969
919.7852, 122.8466
920.2673, 131.1882
920.7494, 137.8690
921.2315, 146.5800
921.7136, 158.4012
922.1957, 170.1357
922.6779, 179.4906
923.1600, 190.6107
923.6421, 207.4932
924.1242, 225.6430
924.6063, 240.8716
925.0884, 252.5652
925.5706, 260.8928
926.0527, 263.9538
926.5348, 267.2518
927.0169, 276.6902
927.4990, 283.9489
927.9811, 278.4066
928.4633, 267.5582
928.9454, 266.1163
929.4275, 276.1006
929.9096, 283.1156
930.3917, 275.8489
930.8738, 266.4868
931.3560, 264.7563
931.8381, 266.3696
932.3202, 266.4755
932.8023, 264.7429
933.2844, 262.0244
933.7665, 258.6543
934.2487, 255.5546
934.7308, 254.1007
935.2129, 252.9257
935.6950, 250.9454
936.1771, 247.5505
936.6592, 241.1789
937.1414, 231.9180
937.6235, 220.7947
938.1056, 208.1115
938.5877, 196.9528
939.0698, 193.1534
939.5519, 193.1468
940.0341, 187.5544
940.5162, 177.4564
940.9983, 168.9407
941.4804, 163.2295
941.9625, 156.4228
942.4446, 145.3378
942.9268, 132.3416
943.4089, 122.1019
943.8910, 114.0540
944.3731, 104.2264
944.8552, 92.65994
945.3373, 85.55115
945.8195, 85.20367
946.3016, 84.51984
946.7837, 75.78421
947.2658, 62.51022
947.7479, 57.96002
948.2300, 62.26154
948.7122, 60.88266
949.1943, 51.80432
949.6764, 44.86206
950.1585, 45.25916
950.6406, 45.53510
951.1227, 34.59760
951.6049, 14.96500
952.0870, 9.793884
952.5691, 22.44699
953.0512, 30.96826
953.5333, 32.59924
954.0154, 29.45288
954.4976, 21.38754
954.9797, 11.33911
955.4618, 3.321594
955.9439, 2.944153
956.4260, 1.003143
956.9081, 22.77719
957.3903, 31.98062
957.8724, 16.73615
958.3545, 0.6902770
958.8366, 1.076019
959.3187, 9.468048
959.8008, 6.581512
960.2830, 11.61987
960.7651, 19.21793
961.2472, 10.37759
961.7293, 1.505280
962.2114, 4.892303
962.6935, 9.050110
963.1757, 11.79507
963.6578, 12.25180
964.1399, 6.889496
964.6220, 9.080414
965.1041, 17.18253
965.5862, 12.38550
966.0684, 6.386444
966.5505, 0.5606990
967.0326, 5.209381
967.5147, 3.139832
967.9968, 3.669983
968.4789, 7.231903
968.9611, 6.175323
969.4432, 4.293121
969.9253, 0.4612120
970.4074, 3.233521
970.8895, 0.4454960
971.3716, 3.716644
971.8538, 5.203522
972.3359, 4.237946
972.8180, 3.034241
973.3001, 2.246124
973.7822, 0.4832760
974.2643, 5.583893
974.7465, 9.040131
975.2286, 3.675659
975.7107, 4.052734
976.1928, 7.726837
976.6749, 6.684509
977.1570, 0.7872310
977.6392, 16.58798
978.1213, 27.92029
978.6034, 24.62750
979.0855, 19.24286
979.5676, 18.10123
980.0497, 19.60535
980.5319, 21.50275
981.0140, 23.44376
981.4961, 25.11526
981.9782, 24.72803
982.4603, 26.59332
982.9424, 33.82828
983.4246, 41.88141
983.9067, 49.05011
984.3888, 54.40656
984.8709, 55.08679
985.3530, 51.44406
985.8351, 52.34912
986.3173, 64.15701
986.7994, 76.33640
987.2815, 85.33600
987.7636, 92.84860
988.2457, 101.0040
988.7278, 108.2130
989.2100, 109.3995
989.6921, 104.4822
990.1742, 106.8331
990.6563, 123.3695
991.1384, 145.6957
991.6205, 181.2432
992.1027, 211.0103
992.5848, 212.4200
993.0669, 199.1913
993.5490, 196.0281
994.0311, 207.8457
994.5132, 227.5509
994.9954, 258.8639
995.4775, 288.9008
995.9596, 309.5630
996.4417, 328.2534
996.9238, 349.3096
997.4059, 374.1305
997.8881, 405.9248
998.3702, 444.9703
998.8523, 479.7898
999.3344, 499.2924
999.8165, 521.1205
1000.299, 554.9352
1000.781, 594.5463
1001.263, 634.8953
1001.745, 676.1738
1002.227, 720.0475
1002.709, 766.8036
1003.191, 816.7954
1003.673, 871.3406
1004.156, 927.0624
1004.638, 983.0495
1005.120, 1038.525
1005.602, 1093.880
1006.084, 1148.319
1006.566, 1200.149
1007.048, 1248.957
1007.530, 1300.555
1008.013, 1367.527
1008.495, 1425.432
1008.977, 1458.065
1009.459, 1479.384
1009.941, 1503.374
1010.423, 1525.385
1010.905, 1531.396
1011.387, 1518.736
1011.869, 1508.555
1012.352, 1514.520
1012.834, 1518.507
1013.316, 1510.811
1013.798, 1498.531
1014.280, 1484.954
1014.762, 1473.021
1015.244, 1467.437
1015.726, 1469.056
1016.208, 1473.745
1016.691, 1480.503
1017.173, 1489.304
1017.655, 1502.323
1018.137, 1514.672
1018.619, 1522.693
1019.101, 1529.002
1019.583, 1534.011
1020.065, 1537.908
1020.548, 1553.936
1021.030, 1600.556
1021.512, 1640.559
1021.994, 1655.701
1022.476, 1664.185
1022.958, 1677.250
1023.440, 1694.840
1023.922, 1714.946
1024.405, 1737.106
1024.887, 1757.574
1025.369, 1771.873
1025.851, 1789.164
1026.333, 1819.977
1026.815, 1847.178
1027.297, 1859.416
1027.779, 1860.884
1028.261, 1857.632
1028.744, 1851.006
1029.226, 1844.609
1029.708, 1845.443
1030.190, 1837.551
1030.672, 1819.532
1031.154, 1790.236
1031.636, 1743.303
1032.118, 1688.275
1032.600, 1638.818
1033.083, 1594.293
1033.565, 1542.915
1034.047, 1475.716
1034.529, 1414.859
1035.011, 1369.806
1035.493, 1322.904
1035.975, 1264.076
1036.457, 1201.083
1036.940, 1142.075
1037.422, 1086.866
1037.904, 1030.224
1038.386, 963.2083
1038.868, 910.2202
1039.350, 883.6455
1039.832, 854.2594
1040.314, 809.1315
1040.797, 759.8531
1041.279, 719.2151
1041.761, 684.0826
1042.243, 642.0534
1042.725, 585.4898
1043.207, 542.9139
1043.689, 519.0395
1044.171, 500.9371
1044.653, 490.2561
1045.135, 476.1375
1045.618, 447.2622
1046.100, 409.2214
1046.582, 379.9758
1047.064, 361.2034
1047.546, 343.9853
1048.028, 328.5327
1048.510, 314.7447
1048.992, 303.1732
1049.475, 290.8085
1049.957, 274.5265
1050.439, 257.0146
1050.921, 244.2488
1051.403, 236.4536
1051.885, 230.9475
1052.367, 228.3654
1052.849, 223.5404
1053.332, 215.2943
1053.814, 204.7628
1054.296, 192.0585
1054.778, 179.7162
1055.260, 172.5851
1055.742, 169.9354
1056.224, 165.3817
1056.706, 158.6459
1057.188, 149.6805
1057.671, 138.3643
1058.153, 135.8690
1058.635, 148.5997
1059.117, 163.8350
1059.599, 166.0362
1060.081, 156.3522
1060.563, 141.3923
1061.045, 123.1375
1061.527, 116.3329
1062.010, 120.1249
1062.492, 115.4611
1062.974, 95.33197
1063.456, 76.32251
1063.938, 75.04700
1064.420, 83.30511
1064.902, 89.32471
1065.384, 91.90326
1065.867, 85.87543
1066.349, 73.37677
1066.831, 62.22659
1067.313, 54.75491
1067.795, 50.60715
1068.277, 50.36267
1068.759, 50.39130
1069.241, 46.58679
1069.724, 39.80612
1070.206, 28.29398
1070.688, 16.04520
1071.170, 12.57193
1071.652, 17.37323
1072.134, 19.92743
1072.616, 14.57852
1073.098, 9.472900
1073.580, 11.97882
1074.063, 16.32874
1074.545, 18.48886
1075.027, 18.54251
1075.509, 15.30994
1075.991, 10.54980
1076.473, 9.677917
1076.955, 14.83420
1077.437, 17.34979
1077.919, 7.813141
1078.401, 1.555878
1078.884, 12.17441
1079.366, 23.93097
1079.848, 20.11996
1080.330, 8.434998
1080.812, 6.342010
1081.294, 16.38876
1081.776, 22.05542
1082.258, 19.26608
1082.741, 12.69507
1083.223, 2.156738
1083.705, 14.41196
1084.187, 19.26892
1084.669, 17.63184
1085.151, 7.551331
1085.633, 9.513336
1086.115, 17.97247
1086.598, 12.33365
1087.080, 8.851166
1087.562, 8.859528
1088.044, 9.139069
1088.526, 9.201813
1089.008, 7.451111
1089.490, 0.9344480
1089.972, 7.199188
1090.454, 6.388245
1090.937, 5.421356
1091.419, 12.43817
1091.901, 13.98965
1092.383, 13.79297
1092.865, 12.26562
1093.347, 11.39340
1093.829, 12.62668
1094.311, 14.64059
1094.793, 15.61203
1095.276, 15.43750
1095.758, 13.31360
1096.240, 10.08823
1096.722, 12.00626
1097.204, 19.07758
1097.686, 18.18781
1098.168, 3.822479
1098.650, 9.599548
1099.133, 6.556335
1099.615, 5.142761
1100.097, 13.53055
1100.579, 17.70062
1101.061, 12.22699
1101.543, 0.7335820
1102.025, 5.481354
1102.507, 3.755615
1102.990, 2.654388
1103.472, 13.47256
1103.954, 21.21625
1104.436, 15.89157
1104.918, 6.504517
1105.400, 0.4885250
1105.882, 1.350861
1106.364, 3.940369
1106.846, 13.61887
1107.328, 19.36087
1107.811, 18.26993
1108.293, 14.64935
1108.775, 5.858795
1109.257, 1.078369
1109.739, 9.355957
1110.221, 19.17181
1110.703, 20.35956
1111.185, 16.39142
1111.668, 14.88895
1112.150, 16.62347
1112.632, 14.99921
1113.114, 4.520111
1113.596, 2.069275
1114.078, 2.066833
1114.560, 0.2702030
1115.042, 5.961212
1115.525, 10.40994
1116.007, 7.076019
1116.489, 0.8830260
1116.971, 11.54816
1117.453, 5.549347
1117.935, 15.95480
1118.417, 20.01553
1118.899, 0.6079410
1119.381, 10.17139
1119.864, 8.041595
1120.346, 5.166687
1120.828, 19.70035
1121.310, 1.563721
1121.792, 15.44489
1122.274, 16.25687
1122.756, 22.71698
1123.238, 16.19693
1123.720, 13.36581
1124.203, 23.04276
1124.685, 25.44504
1125.167, 16.54111
1125.649, 21.99796
1126.131, 1.204132
1126.613, 3.206573
1127.095, 14.69626
1127.577, 9.192657
1128.060, 17.55954
1128.542, 19.78387
1129.024, 15.68472
1129.506, 12.45648
1129.988, 13.39804
1130.470, 15.57697
1130.952, 18.51749
1131.434, 20.36346
1131.917, 18.82684
1132.399, 16.39877
1132.881, 15.15042
1133.363, 15.16199
1133.845, 16.08630
1134.327, 17.86279
1134.809, 20.59772
1135.291, 26.19702
1135.773, 29.84430
1136.255, 28.77390
1136.738, 28.23285
1137.220, 32.53244
1137.702, 35.97147
1138.184, 31.09067
1138.666, 21.04816
1139.148, 19.20239
1139.630, 28.68365
1140.112, 30.28369
1140.595, 21.56696
1141.077, 16.61810
1141.559, 18.07968
1142.041, 23.09979
1142.523, 31.08575
1143.005, 37.46768
1143.487, 33.88092
1143.969, 22.64102
1144.452, 12.14474
1144.934, 3.009399
1145.416, 1.088013
1145.898, 0.5027160
1146.380, 1.444519
1146.862, 3.700378
1147.344, 7.178650
1147.826, 12.45044
1148.308, 17.79385
1148.791, 21.85156
1149.273, 24.06589
1149.755, 24.41458
1150.237, 22.70908
1150.719, 17.86520
1151.201, 10.79565
1151.683, 3.211792
1152.165, 4.810181
1152.647, 7.166168
1153.130, 3.671661
1153.612, 13.14243
1154.094, 15.22052
1154.576, 15.35056
1155.058, 17.72913
1155.540, 19.66727
1156.022, 16.11826
1156.504, 7.645325
1156.987, 3.007599
1157.469, 3.189880
1157.951, 5.144592
1158.433, 9.326477
1158.915, 14.51096
1159.397, 21.59875
1159.879, 24.28625
1160.361, 18.67111
1160.844, 10.47879
1161.326, 6.763397
1161.808, 7.338287
1162.290, 9.315125
1162.772, 12.26859
1163.254, 13.40515
1163.736, 12.71765
1164.218, 12.84631
1164.700, 14.14816
1165.182, 14.05884
1165.665, 10.36658
1166.147, 6.208160
1166.629, 4.404999
1167.111, 4.440186
1167.593, 6.511017
1168.075, 9.704681
1168.557, 14.13855
1169.039, 18.36487
1169.522, 17.43057
1170.004, 9.876801
1170.486, 7.873199
1170.968, 23.91431
1171.450, 33.21674
1171.932, 23.10947
1172.414, 12.42523
1172.896, 11.54837
1173.379, 14.43948
1173.861, 14.79068
1174.343, 13.47522
1174.825, 14.63358
1175.307, 21.56229
1175.789, 20.21274
1176.271, 8.133636
1176.753, 2.488464
1177.235, 7.760620
1177.718, 11.86072
1178.200, 8.445740
1178.682, 2.603760
1179.164, 7.0160002E-02
1179.646, 0.2268980
1180.128, 0.4010620
1180.610, 1.973053
1181.092, 5.750702
1181.574, 10.70712
1182.057, 14.66171
1182.539, 17.12155
1183.021, 14.63690
1183.503, 5.154968
1183.985, 1.631989
1184.467, 4.775085
1184.949, 11.49484
1185.431, 7.907471
1185.914, 2.985016
1186.396, 4.474945
1186.878, 10.47592
1187.360, 18.84134
1187.842, 28.74466
1188.324, 32.18506
1188.806, 24.89111
1189.288, 19.33185
1189.771, 16.13608
1190.253, 13.37167
1190.735, 10.47455
1191.217, 8.073792
1191.699, 6.501831
1192.181, 6.031799
1192.663, 7.695862
1193.145, 10.45880
1193.627, 8.132751
1194.109, 2.135101
1194.592, 1.494598
1195.074, 5.794250
1195.556, 8.223572
1196.038, 7.327545
1196.520, 8.130127
1197.002, 14.18988
1197.484, 18.99387
1197.966, 13.93582
1198.449, 7.748322
1198.931, 9.846619
1199.413, 14.13684
1199.895, 13.11664
1200.377, 9.023407
1200.859, 7.074768
1201.341, 8.009796
1201.823, 10.70856
1202.306, 18.47610
1202.788, 21.60217
1203.270, 16.75815
1203.752, 12.26767
1204.234, 9.825531
1204.716, 9.384155
1205.198, 11.31360
1205.680, 14.55106
1206.162, 17.64896
1206.645, 20.51099
1207.127, 23.56671
1207.609, 26.16177
1208.091, 22.64752
1208.573, 13.82996
1209.055, 7.063507
1209.537, 4.382446
1210.019, 3.876434
1210.501, 4.980621
1210.984, 7.460724
1211.466, 9.272705
1211.948, 12.32150
1212.430, 22.08740
1212.912, 30.87863
1213.394, 26.92291
1213.876, 17.26529
1214.358, 16.53226
1214.841, 25.52713
1215.323, 30.26910
1215.805, 26.91824
1216.287, 22.86642
1216.769, 19.18521
1217.251, 12.33661
1217.733, 2.844482
1218.215, 10.01089
1218.698, 3.006500
1219.180, 23.57910
1219.662, 34.81418
1220.144, 37.49338
1220.626, 32.39429
1221.108, 21.49103
1221.590, 14.61694
1222.072, 11.67288
1222.554, 9.552490
1223.036, 7.521729
1223.519, 6.118408
1224.001, 5.580078
1224.483, 5.175232
1224.965, 2.803589
1225.447, 1.970215
1225.929, 8.211548
1226.411, 14.28506
1226.893, 13.11539
1227.376, 8.417145
1227.858, 4.257172
1228.340, 2.026398
1228.822, 4.525940
1229.304, 14.72015
1229.786, 16.67218
1230.268, 6.597076
1230.750, 1.544220
1231.233, 4.987518
1231.715, 8.784271
1232.197, 9.216888
1232.679, 10.35727
1233.161, 16.82529
1233.643, 25.32413
1234.125, 29.74042
1234.607, 31.09958
1235.089, 30.82785
1235.572, 29.59988
1236.054, 28.35526
1236.536, 27.23093
1237.018, 25.46228
1237.500, 23.00198
1237.982, 22.74789
1238.464, 31.64099
1238.946, 32.93793
1239.428, 10.99670
1239.911, 6.128662
1240.393, 2.010681
1240.875, 7.033661
1241.357, 9.736481
1241.839, 9.918152
1242.321, 15.52966
1242.803, 25.24072
1243.285, 25.26898
1243.768, 15.82745
1244.250, 7.990845
1244.732, 0.5950010
1245.214, 1.317291
1245.696, 0.5100100
1246.178, 6.565552
1246.660, 17.43253
1247.142, 26.21439
1247.625, 24.29492
1248.107, 19.95303
1248.589, 20.85269
1249.071, 22.94806
1249.553, 21.18225
1250.035, 18.13742
1250.517, 18.86014
1250.999, 22.14868
1251.481, 23.37308
1251.964, 22.04919
1252.446, 19.08505
1252.928, 13.55496
1253.410, 8.808655
1253.892, 4.992188
1254.374, 3.629974
1254.856, 5.500366
1255.338, 8.226349
1255.820, 6.732880
1256.303, 7.779694
1256.785, 9.916504
1257.267, 12.93301
1257.749, 15.67645
1258.231, 18.26193
1258.713, 27.77383
1259.195, 39.65686
1259.677, 41.82599
1260.160, 33.38525
1260.642, 26.49933
1261.124, 26.72202
1261.606, 23.73346
1262.088, 9.050629
1262.570, 0.5487370
1263.052, 6.765656
1263.534, 12.21704
1264.016, 6.510803
1264.499, 0.5551150
1264.981, 3.307526
1265.463, 14.39560
1265.945, 24.30902
1266.427, 31.84192
1266.909, 27.94635
1267.391, 16.92416
1267.873, 7.963562
1268.355, 4.525085
1268.838, 2.501038
1269.320, 0.7657470
1269.802, 2.2217000E-02
1270.284, 0.2241520
1270.766, 0.0000000E+00
##END=



