##NAMES=Epidote
##RRUFFID=R110127
##IDEAL CHEMISTRY=Ca_2_Fe^3+^Al_2_(Si_2_O_7_)(SiO_4_)O(OH)
##LOCALITY=Alchori, Pakistan
##OWNER=RRUFF
##SOURCE=Jack Lowell
##DESCRIPTION=Pale brown transparent prismatic crystals associated with green diopside, R110128
##STATUS=The identification of this mineral has been confirmed only by single crystal X-ray diffraction.
##URL=rruff.info/R110127
179.2017, 0.0000000E+00
179.6838, 2.538330
180.1659, 3.742676
180.6480, 3.368652
181.1301, 2.756165
181.6122, 3.903931
182.0944, 5.921265
182.5765, 7.298218
183.0586, 6.831116
183.5407, 4.846436
184.0228, 3.455444
184.5049, 3.420105
184.9871, 4.216431
185.4692, 4.220398
185.9513, 3.448853
186.4334, 2.924622
186.9155, 3.361877
187.3976, 3.890564
187.8798, 4.878906
188.3619, 6.358765
188.8440, 7.415649
189.3261, 7.763611
189.8082, 7.301758
190.2903, 7.093994
190.7725, 7.774841
191.2546, 9.065002
191.7367, 10.77045
192.2188, 12.46008
192.7009, 13.34100
193.1830, 13.35803
193.6652, 10.52917
194.1473, 7.747253
194.6294, 7.628784
195.1115, 8.509583
195.5936, 8.424744
196.0757, 7.188171
196.5579, 5.514587
197.0400, 4.606018
197.5221, 4.533142
198.0042, 4.443115
198.4863, 3.778442
198.9684, 2.530090
199.4506, 1.533752
199.9327, 0.8753050
200.4148, 0.4614260
200.8969, 9.8266996E-02
201.3790, 0.2020870
201.8611, 0.4423220
202.3433, 0.5810550
202.8254, 0.5989380
203.3075, 0.7535400
203.7896, 1.187866
204.2717, 1.679260
204.7538, 1.481018
205.2360, 0.3466800
205.7181, 0.5199580
206.2002, 2.5330000E-02
206.6823, 2.440186
207.1644, 3.152466
207.6465, 1.115173
208.1287, 2.360901
208.6108, 3.093201
209.0929, 0.1619260
209.5750, 2.993164
210.0571, 4.109192
210.5392, 2.708618
211.0214, 1.604248
211.5035, 1.197144
211.9856, 1.187439
212.4677, 0.4331670
212.9498, 1.315857
213.4319, 3.306763
213.9140, 5.198914
214.3962, 7.092590
214.8783, 8.583801
215.3604, 9.489624
215.8425, 9.993469
216.3246, 10.69421
216.8067, 11.54285
217.2889, 12.69067
217.7710, 14.33112
218.2531, 16.70569
218.7352, 18.80829
219.2173, 20.41119
219.6994, 21.69055
220.1816, 23.34161
220.6637, 25.37994
221.1458, 27.77985
221.6279, 30.60992
222.1100, 34.27344
222.5921, 37.30109
223.0743, 39.28772
223.5564, 40.53973
224.0385, 42.70544
224.5206, 46.06195
225.0027, 49.81342
225.4848, 53.55237
225.9670, 57.40350
226.4491, 60.86438
226.9312, 63.65839
227.4133, 66.02411
227.8954, 69.34631
228.3775, 73.91699
228.8597, 78.90680
229.3418, 83.66467
229.8239, 87.67249
230.3060, 92.62994
230.7881, 98.86047
231.2702, 106.1481
231.7524, 113.1611
232.2345, 119.3450
232.7166, 125.8433
233.1987, 133.3566
233.6808, 142.6114
234.1629, 151.1204
234.6451, 158.3746
235.1272, 164.7524
235.6093, 172.2249
236.0914, 181.6451
236.5735, 190.9872
237.0556, 199.2673
237.5378, 205.9781
238.0199, 212.2203
238.5020, 217.7592
238.9841, 222.9194
239.4662, 228.7930
239.9483, 235.9208
240.4305, 243.1040
240.9126, 249.6075
241.3947, 254.4415
241.8768, 260.9470
242.3589, 270.1684
242.8410, 281.0974
243.3232, 290.2383
243.8053, 296.4996
244.2874, 302.3876
244.7695, 308.9514
245.2516, 315.9250
245.7337, 324.2793
246.2159, 334.5762
246.6980, 346.2119
247.1801, 357.0046
247.6622, 366.5334
248.1443, 375.9519
248.6264, 385.7599
249.1086, 396.4269
249.5907, 406.6388
250.0728, 416.3754
250.5549, 425.6015
251.0370, 434.3790
251.5191, 443.2908
252.0013, 450.9243
252.4834, 456.8497
252.9655, 461.2715
253.4476, 463.4973
253.9297, 463.3040
254.4118, 461.0032
254.8940, 457.3752
255.3761, 452.7195
255.8582, 446.2321
256.3403, 437.3068
256.8224, 425.1721
257.3046, 413.1313
257.7867, 401.6470
258.2688, 390.0596
258.7509, 376.9388
259.2330, 361.6393
259.7151, 346.3492
260.1973, 331.7052
260.6794, 317.9200
261.1615, 304.9089
261.6436, 292.7172
262.1257, 281.3752
262.6078, 271.0869
263.0900, 262.1562
263.5721, 253.9383
264.0542, 246.3196
264.5363, 239.1725
265.0184, 232.4244
265.5005, 225.9804
265.9827, 220.1904
266.4648, 215.5367
266.9469, 212.2465
267.4290, 209.4544
267.9111, 207.2001
268.3932, 205.6702
268.8754, 203.3817
269.3575, 200.0635
269.8396, 196.2737
270.3217, 192.7173
270.8038, 189.3533
271.2859, 186.2327
271.7681, 183.3234
272.2502, 180.6276
272.7323, 178.5211
273.2144, 177.2089
273.6965, 176.1042
274.1786, 174.7108
274.6608, 173.0808
275.1429, 170.8521
275.6250, 167.9288
276.1071, 164.3501
276.5892, 160.2747
277.0714, 155.8386
277.5535, 150.6810
278.0356, 143.9918
278.5177, 135.5201
278.9998, 128.1558
279.4819, 122.8669
279.9641, 119.0334
280.4462, 114.0546
280.9283, 107.6799
281.4104, 101.1617
281.8925, 95.42810
282.3746, 90.48877
282.8568, 85.92487
283.3389, 81.87537
283.8210, 78.03229
284.3031, 73.23352
284.7852, 67.33081
285.2673, 61.82501
285.7495, 57.92969
286.2316, 55.54395
286.7137, 53.15973
287.1958, 50.55347
287.6779, 47.93201
288.1600, 45.73737
288.6422, 43.96991
289.1243, 42.33130
289.6064, 40.60486
290.0885, 38.82178
290.5706, 37.17175
291.0527, 35.54700
291.5349, 34.29932
292.0170, 34.44177
292.4991, 35.80359
292.9812, 36.68036
293.4633, 35.58429
293.9454, 33.20892
294.4276, 31.86456
294.9097, 31.80847
295.3918, 32.23724
295.8739, 32.32941
296.3560, 32.09314
296.8381, 31.56390
297.3203, 30.53741
297.8024, 29.27802
298.2845, 28.51154
298.7666, 28.32764
299.2487, 27.87244
299.7308, 26.06268
300.2130, 23.24146
300.6951, 20.41797
301.1772, 17.96783
301.6593, 15.76227
302.1414, 13.55713
302.6235, 11.36914
303.1057, 9.345337
303.5878, 7.679871
304.0699, 6.270813
304.5520, 4.993591
305.0341, 4.128235
305.5162, 3.090393
305.9984, 0.7566530
306.4805, 2.604065
306.9626, 5.297913
307.4447, 5.648438
307.9268, 4.781128
308.4089, 4.248291
308.8911, 5.028870
309.3732, 5.349182
309.8553, 2.994568
310.3374, 1.218689
310.8195, 4.579163
311.3016, 4.905457
311.7838, 3.975647
312.2659, 3.288696
312.7480, 3.053528
313.2301, 3.271545
313.7122, 3.686523
314.1943, 4.545410
314.6765, 6.365723
315.1586, 10.67896
315.6407, 15.10767
316.1228, 17.94849
316.6049, 18.53613
317.0870, 19.42456
317.5692, 21.91199
318.0513, 25.33771
318.5334, 28.76691
319.0155, 31.71112
319.4976, 34.75989
319.9797, 38.19586
320.4619, 42.06891
320.9440, 45.94458
321.4261, 49.72339
321.9082, 53.38556
322.3903, 56.89417
322.8724, 59.83496
323.3546, 63.00751
323.8367, 66.70148
324.3188, 70.89801
324.8009, 75.07892
325.2830, 79.25391
325.7651, 83.30383
326.2473, 87.14465
326.7294, 90.73395
327.2115, 94.19995
327.6936, 97.44312
328.1757, 100.5418
328.6578, 103.9498
329.1400, 107.3971
329.6221, 111.4246
330.1042, 116.2912
330.5863, 122.0392
331.0684, 128.6304
331.5505, 136.4136
332.0327, 144.9209
332.5148, 153.0284
332.9969, 160.3660
333.4790, 167.7388
333.9611, 175.4114
334.4432, 183.2363
334.9254, 191.9540
335.4075, 202.1298
335.8896, 212.5554
336.3717, 221.4871
336.8538, 228.3726
337.3359, 234.8290
337.8180, 241.0753
338.3001, 247.0985
338.7823, 253.6654
339.2644, 260.9893
339.7465, 268.3527
340.2286, 275.2041
340.7107, 281.5742
341.1928, 287.0538
341.6750, 291.3135
342.1571, 294.7548
342.6392, 298.4051
343.1213, 302.3107
343.6034, 306.1396
344.0855, 309.5346
344.5677, 312.5432
345.0498, 316.4893
345.5319, 321.6772
346.0140, 327.5554
346.4961, 333.0219
346.9782, 338.0656
347.4604, 343.3682
347.9425, 349.1385
348.4246, 355.5159
348.9067, 363.1355
349.3888, 372.2855
349.8709, 381.0997
350.3531, 388.0725
350.8352, 393.0321
351.3173, 395.3170
351.7994, 393.9366
352.2815, 389.8618
352.7636, 384.8836
353.2458, 378.9380
353.7279, 370.8625
354.2100, 359.2193
354.6921, 344.7806
355.1742, 329.1336
355.6563, 312.7977
356.1385, 295.4036
356.6206, 275.6900
357.1027, 254.0821
357.5848, 233.2798
358.0669, 214.6011
358.5490, 197.4141
359.0312, 181.1567
359.5133, 165.4408
359.9954, 150.8934
360.4775, 138.0706
360.9596, 126.6152
361.4417, 115.9662
361.9239, 105.9706
362.4060, 96.54657
362.8881, 87.49493
363.3702, 78.64929
363.8523, 71.00098
364.3344, 65.56891
364.8166, 61.21558
365.2987, 56.65436
365.7808, 50.77936
366.2629, 45.62927
366.7450, 42.05157
367.2271, 40.04980
367.7093, 37.81116
368.1914, 34.47540
368.6735, 31.18890
369.1556, 28.69684
369.6377, 27.77338
370.1198, 26.76233
370.6020, 25.61951
371.0841, 24.33508
371.5662, 22.86169
372.0483, 20.96747
372.5304, 19.17017
373.0125, 17.70282
373.4947, 16.71558
373.9768, 15.62994
374.4589, 14.34882
374.9410, 13.03241
375.4231, 11.97784
375.9052, 11.26489
376.3874, 10.60309
376.8695, 9.864441
377.3516, 9.065979
377.8337, 8.811523
378.3158, 9.285461
378.7979, 9.841553
379.2801, 9.685303
379.7622, 8.771240
380.2443, 8.254944
380.7264, 8.273682
381.2085, 8.899963
381.6906, 10.66693
382.1728, 13.58612
382.6549, 16.27850
383.1370, 17.36328
383.6191, 17.31732
384.1012, 18.06787
384.5833, 19.89062
385.0655, 22.21039
385.5476, 24.39392
386.0297, 26.45477
386.5118, 28.36102
386.9939, 30.26910
387.4760, 31.96820
387.9582, 33.18134
388.4403, 33.91943
388.9224, 34.23029
389.4045, 33.89972
389.8866, 33.25391
390.3687, 32.76788
390.8509, 32.96033
391.3330, 33.00671
391.8151, 32.39081
392.2972, 31.15753
392.7793, 29.46875
393.2614, 26.47833
393.7436, 23.66077
394.2257, 22.25195
394.7078, 23.31769
395.1899, 23.71277
395.6720, 21.71893
396.1541, 18.44080
396.6363, 15.65820
397.1184, 14.38989
397.6005, 13.12598
398.0826, 11.39923
398.5647, 9.160034
399.0468, 6.635193
399.5290, 3.177002
400.0111, 0.1837770
400.4932, 2.616211
400.9753, 3.318298
401.4574, 4.165466
401.9395, 5.389221
402.4217, 6.889404
402.9038, 8.188782
403.3859, 9.276062
403.8680, 10.17346
404.3501, 10.82361
404.8322, 11.06030
405.3144, 11.68060
405.7965, 12.90240
406.2786, 14.24365
406.7607, 14.87811
407.2428, 14.70532
407.7249, 14.39667
408.2071, 14.24750
408.6892, 14.17230
409.1713, 13.68616
409.6534, 12.81580
410.1355, 11.36328
410.6176, 9.121460
411.0998, 6.128479
411.5819, 2.478577
412.0640, 2.142151
412.5461, 6.856812
413.0282, 10.22150
413.5103, 12.37842
413.9925, 14.26941
414.4746, 16.12085
414.9567, 18.18469
415.4388, 20.97803
415.9209, 24.64447
416.4030, 28.32050
416.8852, 31.07623
417.3673, 33.43500
417.8494, 36.25360
418.3315, 40.16595
418.8136, 44.43542
419.2957, 48.73096
419.7779, 53.02515
420.2600, 57.38104
420.7421, 61.79645
421.2242, 66.30658
421.7063, 70.82526
422.1884, 75.43372
422.6706, 80.05200
423.1527, 84.37842
423.6348, 88.77112
424.1169, 93.90649
424.5990, 100.5482
425.0811, 107.3646
425.5633, 114.0795
426.0454, 120.7327
426.5275, 126.8676
427.0096, 132.3302
427.4917, 137.4272
427.9738, 142.4167
428.4560, 147.2759
428.9381, 152.0244
429.4202, 156.7180
429.9023, 161.2126
430.3844, 165.2960
430.8665, 168.9619
431.3487, 172.1532
431.8308, 174.2084
432.3129, 174.9436
432.7950, 178.4758
433.2771, 185.4423
433.7592, 193.6258
434.2414, 199.9669
434.7235, 204.6884
435.2056, 210.4142
435.6877, 218.1896
436.1698, 227.3182
436.6519, 236.4954
437.1341, 245.7572
437.6162, 255.4204
438.0983, 266.1417
438.5804, 277.4369
439.0625, 288.2624
439.5446, 298.1473
440.0268, 308.5778
440.5089, 320.7789
440.9910, 334.5575
441.4731, 349.2914
441.9552, 366.4589
442.4373, 383.2390
442.9195, 397.3906
443.4016, 408.9287
443.8837, 421.1705
444.3658, 436.0747
444.8479, 451.9297
445.3300, 467.2142
445.8122, 481.2773
446.2943, 495.3708
446.7764, 510.4000
447.2585, 525.6969
447.7406, 539.5605
448.2227, 551.7236
448.7049, 562.6104
449.1870, 572.7649
449.6691, 582.4880
450.1512, 589.2329
450.6333, 592.5824
451.1154, 593.3837
451.5976, 592.3304
452.0797, 589.4050
452.5618, 584.8524
453.0439, 578.7075
453.5260, 571.0173
454.0081, 561.6799
454.4903, 550.7603
454.9724, 537.5344
455.4545, 520.6642
455.9366, 500.7520
456.4187, 480.9375
456.9008, 461.5067
457.3830, 441.7877
457.8651, 421.0861
458.3472, 399.6591
458.8293, 379.3658
459.3114, 360.5331
459.7935, 343.0322
460.2757, 326.3544
460.7578, 310.6152
461.2399, 296.0470
461.7220, 283.4342
462.2041, 271.7095
462.6862, 259.8762
463.1684, 247.5837
463.6505, 236.1157
464.1326, 226.4267
464.6147, 218.0708
465.0968, 210.3258
465.5789, 203.2031
466.0611, 196.6605
466.5432, 190.6501
467.0253, 185.2333
467.5074, 180.4443
467.9895, 176.1802
468.4716, 172.7708
468.9538, 170.4985
469.4359, 169.9993
469.9180, 169.3783
470.4001, 168.1724
470.8822, 166.8179
471.3643, 166.2740
471.8465, 166.9706
472.3286, 167.1419
472.8107, 166.1409
473.2928, 164.2177
473.7749, 162.8320
474.2570, 162.0638
474.7392, 161.4156
475.2213, 160.5788
475.7034, 159.5578
476.1855, 158.3386
476.6676, 156.8790
477.1497, 155.3972
477.6319, 154.2621
478.1140, 153.3838
478.5961, 152.4681
479.0782, 151.3622
479.5603, 150.1771
480.0424, 149.2527
480.5246, 148.4920
481.0067, 147.2490
481.4888, 143.8206
481.9709, 140.4444
482.4530, 139.4395
482.9352, 142.3756
483.4173, 144.6199
483.8994, 144.0889
484.3815, 141.8887
484.8636, 139.6360
485.3457, 137.3699
485.8279, 135.2538
486.3100, 133.7866
486.7921, 132.9142
487.2742, 130.4160
487.7563, 124.8741
488.2384, 119.1812
488.7206, 115.1030
489.2027, 113.5699
489.6848, 110.8703
490.1669, 106.6740
490.6490, 101.9072
491.1311, 97.52850
491.6133, 93.40729
492.0954, 90.07538
492.5775, 87.95404
493.0596, 86.62964
493.5417, 84.42090
494.0238, 81.31445
494.5060, 78.15326
494.9881, 75.08649
495.4702, 72.46405
495.9523, 71.26001
496.4344, 71.75336
496.9165, 72.94110
497.3987, 74.24927
497.8808, 75.49884
498.3629, 76.32568
498.8450, 75.98206
499.3271, 75.68774
499.8092, 76.32587
500.2914, 77.78040
500.7735, 79.29541
501.2556, 80.25879
501.7377, 81.48566
502.2198, 83.46802
502.7019, 86.43158
503.1841, 89.81274
503.6662, 94.07440
504.1483, 98.52344
504.6304, 102.2599
505.1125, 104.5189
505.5946, 107.2674
506.0768, 111.1323
506.5589, 115.7556
507.0410, 119.1614
507.5231, 120.6948
508.0052, 122.8055
508.4873, 127.5128
508.9695, 134.7866
509.4516, 139.7068
509.9337, 141.9826
510.4158, 142.9498
510.8979, 143.5676
511.3800, 144.0388
511.8622, 145.3706
512.3443, 148.2080
512.8264, 151.4711
513.3085, 153.7745
513.7906, 155.2985
514.2728, 156.6799
514.7549, 158.6838
515.2370, 160.4537
515.7191, 160.9438
516.2012, 160.0103
516.6833, 159.5072
517.1655, 160.6981
517.6476, 162.4965
518.1297, 163.9965
518.6118, 166.0038
519.0939, 166.4783
519.5760, 164.4735
520.0582, 160.7336
520.5403, 157.0195
521.0224, 153.3179
521.5045, 149.7123
521.9866, 146.2416
522.4688, 142.8835
522.9509, 139.4785
523.4330, 135.9155
523.9151, 132.4708
524.3972, 129.2908
524.8793, 126.3822
525.3615, 123.9188
525.8436, 122.0051
526.3257, 120.2022
526.8078, 118.0612
527.2899, 115.5286
527.7720, 112.3967
528.2542, 108.5105
528.7363, 104.0768
529.2184, 99.25568
529.7005, 94.09808
530.1826, 88.63599
530.6647, 82.62622
531.1469, 76.51581
531.6290, 70.73175
532.1111, 65.53998
532.5932, 59.87683
533.0753, 52.90710
533.5574, 45.44031
534.0396, 38.43506
534.5217, 31.83441
535.0038, 25.91364
535.4859, 20.77545
535.9680, 16.31879
536.4501, 12.17291
536.9323, 8.412109
537.4144, 4.837341
537.8965, 1.303101
538.3786, 2.199951
538.8607, 4.976501
539.3428, 6.993591
539.8250, 8.352478
540.3071, 8.770996
540.7892, 8.390259
541.2713, 8.722900
541.7534, 10.20233
542.2355, 11.89935
542.7177, 12.58539
543.1998, 12.42053
543.6819, 11.87952
544.1640, 10.96771
544.6461, 9.933655
545.1282, 9.138916
545.6104, 8.494812
546.0925, 7.459595
546.5746, 5.029480
547.0567, 2.616821
547.5388, 1.468750
548.0209, 2.507263
548.5031, 2.235840
548.9852, 0.9100950
549.4673, 5.318909
549.9494, 9.307617
550.4315, 12.79987
550.9136, 15.86011
551.3958, 18.05072
551.8779, 19.92065
552.3600, 23.10132
552.8421, 27.78662
553.3242, 33.12775
553.8063, 38.87317
554.2885, 44.99609
554.7706, 51.01331
555.2527, 56.82135
555.7348, 63.62634
556.2169, 73.35046
556.6990, 84.83191
557.1812, 95.21411
557.6633, 103.8799
558.1454, 112.0595
558.6275, 120.9498
559.1096, 130.1595
559.5917, 139.1921
560.0739, 147.4852
560.5560, 155.7659
561.0381, 164.5443
561.5202, 173.6091
562.0023, 182.3718
562.4844, 189.6898
562.9666, 197.5375
563.4487, 207.0337
563.9308, 218.6506
564.4129, 229.2848
564.8950, 238.1707
565.3771, 246.8920
565.8593, 256.8468
566.3414, 268.2402
566.8235, 280.2569
567.3056, 293.2692
567.7877, 306.3849
568.2698, 318.0952
568.7520, 328.5280
569.2341, 338.1544
569.7162, 347.6040
570.1983, 356.2178
570.6804, 363.8693
571.1625, 370.1814
571.6447, 372.9535
572.1268, 371.3840
572.6089, 365.2338
573.0910, 353.7792
573.5731, 336.5404
574.0552, 316.9220
574.5374, 295.2968
575.0195, 272.2657
575.5016, 248.3183
575.9837, 221.5005
576.4658, 196.5549
576.9479, 172.9250
577.4301, 151.3547
577.9122, 133.3343
578.3943, 119.2972
578.8764, 107.6971
579.3585, 98.48590
579.8406, 91.46790
580.3228, 85.08075
580.8049, 79.20703
581.2870, 74.19696
581.7691, 70.20093
582.2512, 67.26709
582.7333, 65.56647
583.2155, 65.17059
583.6975, 65.40344
584.1796, 65.85431
584.6617, 66.49719
585.1439, 67.22675
585.6260, 67.94910
586.1081, 68.92419
586.5902, 70.25647
587.0723, 71.93573
587.5544, 73.95691
588.0366, 76.24750
588.5187, 79.00879
589.0008, 82.47668
589.4829, 86.59277
589.9650, 90.47711
590.4471, 94.00940
590.9293, 97.43585
591.4114, 100.7424
591.8935, 103.8480
592.3756, 107.5086
592.8577, 111.9174
593.3398, 116.3651
593.8220, 120.0778
594.3041, 123.1555
594.7862, 126.3433
595.2683, 129.7981
595.7504, 133.4149
596.2325, 137.3409
596.7147, 141.2639
597.1968, 144.4646
597.6789, 146.0657
598.1610, 147.4785
598.6431, 149.8560
599.1252, 152.9584
599.6074, 155.7838
600.0895, 157.8074
600.5716, 159.6951
601.0537, 161.9846
601.5358, 164.9808
602.0179, 166.9742
602.5001, 167.4470
602.9822, 167.4133
603.4643, 167.7144
603.9464, 168.6663
604.4285, 168.8360
604.9106, 167.9091
605.3928, 166.5067
605.8749, 166.0436
606.3570, 166.3972
606.8391, 165.1360
607.3212, 160.7904
607.8033, 155.0193
608.2855, 150.2158
608.7676, 146.1477
609.2497, 141.7939
609.7318, 136.8667
610.2139, 131.2567
610.6960, 124.4352
611.1782, 116.4610
611.6603, 109.3971
612.1424, 104.3806
612.6245, 100.1253
613.1066, 95.86035
613.5887, 91.34778
614.0709, 87.20190
614.5530, 83.66748
615.0351, 80.26422
615.5172, 76.34570
615.9993, 71.67902
616.4814, 67.43134
616.9636, 63.79712
617.4457, 60.62793
617.9278, 57.73090
618.4099, 55.06171
618.8920, 52.23999
619.3741, 49.03394
619.8563, 45.57971
620.3384, 42.13611
620.8205, 38.67139
621.3026, 35.06213
621.7847, 30.54932
622.2668, 26.33295
622.7490, 23.82556
623.2311, 23.34686
623.7132, 21.94269
624.1953, 17.83911
624.6774, 13.24304
625.1595, 9.706238
625.6417, 7.819153
626.1238, 5.922668
626.6059, 3.993164
627.0880, 2.142517
627.5701, 0.4313350
628.0522, 1.180298
628.5344, 2.161682
629.0165, 2.292114
629.4986, 1.900818
629.9807, 1.387695
630.4628, 0.8424070
630.9449, 0.7224120
631.4271, 1.930603
631.9092, 3.264282
632.3913, 3.088074
632.8734, 1.675110
633.3555, 0.7123410
633.8376, 1.749695
634.3198, 2.960449
634.8019, 3.127808
635.2840, 1.872986
635.7661, 0.9772950
636.2482, 0.5040890
636.7303, 0.5283200
637.2125, 1.258179
637.6946, 3.242065
638.1767, 4.247253
638.6588, 3.964478
639.1409, 3.057922
639.6230, 2.442322
640.1052, 2.084839
640.5873, 1.595642
641.0694, 0.8121340
641.5515, 4.8645001E-02
642.0336, 0.7416990
642.5157, 1.239685
642.9979, 1.467712
643.4800, 0.7056270
643.9621, 0.2171020
644.4442, 1.311646
644.9263, 3.669067
645.4084, 5.364502
645.8906, 4.897217
646.3727, 4.388977
646.8548, 4.970947
647.3369, 6.843933
647.8190, 8.246094
648.3011, 8.910156
648.7833, 9.492126
649.2654, 10.53247
649.7475, 12.10199
650.2296, 13.32184
650.7117, 14.05322
651.1938, 14.79065
651.6760, 16.32788
652.1581, 18.38647
652.6402, 20.02948
653.1223, 20.88208
653.6044, 21.51172
654.0865, 22.34723
654.5687, 23.35211
655.0508, 24.45996
655.5329, 25.84625
656.0150, 27.13995
656.4971, 28.19049
656.9792, 29.02466
657.4614, 29.81500
657.9435, 30.73163
658.4256, 31.38593
658.9077, 31.67035
659.3898, 31.58337
659.8719, 31.04401
660.3541, 29.96948
660.8362, 28.81689
661.3183, 27.92975
661.8004, 27.23584
662.2825, 26.32489
662.7646, 25.15576
663.2468, 24.09088
663.7289, 23.41394
664.2110, 23.06378
664.6931, 22.98260
665.1752, 23.23883
665.6573, 23.55780
666.1395, 23.95953
666.6216, 24.31915
667.1037, 24.47693
667.5858, 24.52838
668.0679, 24.16809
668.5500, 22.91626
669.0322, 21.44287
669.5143, 21.49359
669.9964, 23.49622
670.4785, 24.88562
670.9606, 24.71124
671.4427, 23.49945
671.9249, 22.43658
672.4070, 21.56616
672.8891, 21.31287
673.3712, 22.63422
673.8533, 24.27563
674.3354, 24.47760
674.8176, 23.37091
675.2997, 22.68970
675.7818, 23.41449
676.2639, 24.76459
676.7460, 26.46082
677.2281, 28.70770
677.7103, 30.18457
678.1924, 30.28766
678.6745, 30.19141
679.1566, 30.86755
679.6387, 32.59698
680.1208, 33.63159
680.6030, 33.64313
681.0851, 33.55640
681.5672, 34.74243
682.0493, 36.89722
682.5314, 38.79712
683.0135, 40.16095
683.4957, 41.09723
683.9778, 41.39703
684.4599, 41.38379
684.9420, 41.60498
685.4241, 42.58258
685.9063, 43.48444
686.3884, 44.24945
686.8705, 44.84985
687.3526, 45.02679
687.8347, 44.29932
688.3168, 43.86597
688.7990, 44.16736
689.2811, 44.98785
689.7632, 45.23322
690.2453, 44.95520
690.7274, 44.65759
691.2095, 44.49164
691.6917, 44.35583
692.1738, 44.48724
692.6559, 44.90564
693.1380, 45.02722
693.6201, 43.67200
694.1022, 42.15137
694.5844, 41.99805
695.0665, 43.65363
695.5486, 44.56702
696.0307, 43.11658
696.5128, 41.24945
696.9949, 40.56921
697.4771, 42.25488
697.9592, 42.52832
698.4413, 40.68829
698.9234, 38.38812
699.4055, 37.98633
699.8876, 39.52582
700.3698, 39.80109
700.8519, 38.00092
701.3340, 35.49872
701.8161, 34.21014
702.2982, 33.82129
702.7803, 33.45941
703.2625, 32.78705
703.7446, 31.93732
704.2267, 31.00818
704.7088, 30.01959
705.1909, 28.97198
705.6730, 27.55194
706.1552, 26.39716
706.6373, 25.65656
707.1194, 25.28149
707.6015, 25.14075
708.0836, 25.34210
708.5657, 25.32336
709.0479, 24.93701
709.5300, 24.16943
710.0121, 22.73193
710.4942, 20.64075
710.9763, 18.75403
711.4584, 18.04150
711.9406, 17.72516
712.4227, 16.84082
712.9048, 15.34369
713.3869, 13.63464
713.8690, 11.45111
714.3511, 9.474365
714.8333, 8.225342
715.3154, 8.099609
715.7975, 7.752380
716.2796, 7.083069
716.7617, 6.349426
717.2438, 5.847900
717.7260, 5.658875
718.2081, 5.047424
718.6902, 3.880432
719.1723, 2.756592
719.6544, 2.582642
720.1365, 2.941101
720.6187, 2.769714
721.1008, 1.651062
721.5829, 0.6232300
722.0650, 0.3603520
722.5471, 0.6503300
723.0292, 1.223083
723.5114, 2.344604
723.9935, 3.281921
724.4756, 3.777222
724.9577, 4.075256
725.4398, 4.687683
725.9219, 5.883179
726.4041, 6.644287
726.8862, 6.499207
727.3683, 5.885193
727.8504, 6.258484
728.3325, 7.324341
728.8146, 7.525696
729.2968, 5.406128
729.7789, 2.930359
730.2610, 2.323364
730.7431, 3.004578
731.2252, 3.688354
731.7073, 4.062439
732.1895, 4.547668
732.6716, 5.226257
733.1537, 5.849304
733.6358, 6.000488
734.1179, 5.542175
734.6000, 5.124146
735.0822, 5.190979
735.5643, 5.657227
736.0464, 4.970825
736.5285, 3.010376
737.0106, 1.293884
737.4927, 1.163513
737.9749, 2.063110
738.4570, 3.156433
738.9391, 4.250122
739.4212, 4.791748
739.9033, 4.353882
740.3854, 3.517212
740.8676, 2.377014
741.3497, 0.5026250
741.8318, 0.2670290
742.3139, 1.062134
742.7960, 2.740540
743.2781, 3.349609
743.7603, 2.575989
744.2424, 1.802063
744.7245, 1.101440
745.2066, 0.8911130
745.6887, 2.069092
746.1708, 3.908630
746.6530, 4.459900
747.1351, 3.195740
747.6172, 1.870300
748.0993, 2.024231
748.5814, 2.738464
749.0635, 2.895386
749.5457, 1.309753
750.0278, 0.5720210
750.5099, 1.392883
750.9920, 2.973083
751.4741, 4.543518
751.9562, 6.270813
752.4384, 7.160095
752.9205, 6.835876
753.4026, 6.084290
753.8847, 6.151306
754.3668, 6.795227
754.8489, 7.280090
755.3311, 7.208435
755.8132, 7.298889
756.2953, 8.544800
756.7774, 10.31726
757.2595, 11.48151
757.7416, 12.01263
758.2238, 11.54187
758.7059, 9.373779
759.1880, 6.331848
759.6701, 3.963074
760.1522, 2.154480
760.6343, 1.489380
761.1165, 2.476685
761.5986, 4.347595
762.0807, 5.232788
762.5628, 5.261841
763.0449, 5.165894
763.5270, 5.444824
764.0092, 5.604004
764.4913, 4.715454
764.9734, 3.256531
765.4555, 2.707886
765.9376, 5.230164
766.4197, 7.019714
766.9019, 5.915283
767.3840, 2.770508
767.8661, 1.777100
768.3482, 3.720398
768.8303, 5.487671
769.3124, 5.733887
769.7946, 4.887390
770.2767, 4.326721
770.7588, 4.054993
771.2409, 4.113770
771.7230, 5.244141
772.2051, 6.220459
772.6873, 5.412109
773.1694, 3.081543
773.6515, 1.351074
774.1336, 1.483276
774.6157, 1.881775
775.0978, 1.907349
775.5800, 1.572693
776.0621, 1.139099
776.5442, 0.4850460
777.0263, 8.4960997E-02
777.5084, 0.3704220
777.9905, 1.146667
778.4727, 1.399292
778.9548, 1.148010
779.4369, 0.9295040
779.9190, 1.086243
780.4011, 1.488892
780.8832, 2.250244
781.3654, 3.340942
781.8475, 3.797180
782.3296, 2.948853
782.8117, 1.680786
783.2938, 0.2911990
783.7759, 1.286682
784.2581, 2.127808
784.7402, 2.166870
785.2223, 1.633789
785.7044, 1.0380000E-03
786.1865, 2.157898
786.6686, 2.066345
787.1508, 0.3172610
787.6329, 2.363403
788.1150, 1.162231
788.5971, 0.7363890
789.0792, 0.4058840
789.5613, 2.837036
790.0435, 4.716553
790.5256, 3.018433
791.0077, 0.7536010
791.4898, 0.5841670
791.9719, 0.8753660
792.4540, 0.7290040
792.9362, 5.8590001E-03
793.4183, 0.6577760
793.9004, 0.4768680
794.3825, 0.1410520
794.8646, 0.1534420
795.3467, 1.450134
795.8289, 2.418884
796.3110, 1.530273
796.7931, 0.2570190
797.2752, 2.0691000E-02
797.7573, 1.200806
798.2394, 1.809204
798.7216, 0.8265380
799.2037, 2.6611000E-02
799.6858, 0.6036990
800.1679, 3.026184
800.6500, 3.591431
801.1321, 2.040405
801.6143, 0.3845210
802.0964, 0.7641600
802.5785, 2.242310
803.0606, 2.966003
803.5427, 2.664612
804.0248, 2.242004
804.5070, 2.186646
804.9891, 2.318604
805.4712, 2.568726
805.9533, 3.071167
806.4354, 3.080383
806.9175, 2.402954
807.3997, 1.591431
807.8818, 1.062622
808.3639, 0.7611690
808.8460, 0.1177370
809.3281, 1.674805
809.8102, 2.695923
810.2924, 1.351440
810.7745, 0.8724370
811.2566, 1.956726
811.7387, 1.561707
812.2208, 0.6259160
812.7029, 1.452271
813.1851, 3.199646
813.6672, 3.334839
814.1493, 1.181702
814.6314, 0.5635990
815.1135, 1.892578
815.5956, 3.709167
816.0778, 4.896912
816.5599, 5.556274
817.0420, 5.985962
817.5241, 6.182068
818.0062, 6.604797
818.4883, 7.892822
818.9705, 9.484741
819.4526, 10.78455
819.9347, 11.64758
820.4168, 12.43359
820.8989, 13.54083
821.3810, 14.26453
821.8632, 14.05444
822.3453, 12.72949
822.8274, 12.39014
823.3095, 13.19678
823.7916, 14.17633
824.2737, 14.58423
824.7559, 14.53906
825.2380, 13.88104
825.7201, 12.67560
826.2022, 12.40362
826.6843, 15.53491
827.1664, 18.58813
827.6486, 18.75549
828.1307, 15.18524
828.6128, 13.31946
829.0949, 13.71198
829.5770, 14.87231
830.0591, 16.26123
830.5413, 17.78247
831.0234, 18.39636
831.5055, 18.08514
831.9876, 17.87054
832.4697, 18.98065
832.9518, 20.21790
833.4340, 19.99878
833.9161, 18.35834
834.3982, 17.16577
834.8803, 17.51837
835.3624, 18.08655
835.8445, 18.28918
836.3267, 18.11859
836.8088, 18.13232
837.2909, 18.44342
837.7730, 18.42682
838.2551, 17.14355
838.7372, 15.47620
839.2194, 15.96106
839.7015, 18.27496
840.1836, 20.58954
840.6657, 21.84967
841.1478, 22.72089
841.6299, 23.40826
842.1121, 24.01654
842.5942, 24.92419
843.0763, 26.46802
843.5584, 27.89130
844.0405, 28.84491
844.5226, 29.38373
845.0048, 29.82007
845.4869, 30.13629
845.9690, 30.93060
846.4511, 32.77698
846.9332, 34.80341
847.4153, 35.89758
847.8975, 36.39954
848.3796, 37.24573
848.8617, 38.99097
849.3438, 40.80371
849.8259, 42.11621
850.3080, 43.33142
850.7902, 45.57910
851.2723, 48.98724
851.7544, 52.69397
852.2365, 56.75262
852.7186, 60.49530
853.2007, 62.36212
853.6829, 62.95178
854.1650, 63.96161
854.6471, 65.79901
855.1292, 68.46057
855.6113, 72.29291
856.0934, 76.79309
856.5756, 81.13580
857.0577, 84.95691
857.5398, 89.20581
858.0219, 94.11615
858.5040, 99.24194
858.9861, 103.6585
859.4683, 107.5170
859.9504, 111.4710
860.4325, 115.5851
860.9146, 119.8373
861.3967, 124.2687
861.8788, 128.7774
862.3610, 133.2474
862.8431, 137.2066
863.3252, 141.8836
863.8073, 147.9828
864.2894, 154.1590
864.7715, 158.7338
865.2537, 161.5876
865.7358, 165.6891
866.2179, 171.3867
866.7000, 177.7897
867.1821, 184.2042
867.6642, 190.6689
868.1464, 197.0137
868.6285, 203.2194
869.1106, 209.7828
869.5927, 217.5964
870.0748, 225.4922
870.5569, 232.7041
871.0391, 239.1942
871.5212, 244.5375
872.0033, 248.3348
872.4854, 252.3074
872.9675, 258.4049
873.4496, 265.4214
873.9318, 270.1122
874.4139, 272.4950
874.8960, 274.3512
875.3781, 276.0555
875.8602, 278.1414
876.3423, 281.3307
876.8245, 285.5906
877.3066, 288.5948
877.7887, 289.7482
878.2708, 291.1849
878.7529, 294.0859
879.2350, 297.8483
879.7172, 300.3398
880.1993, 301.7050
880.6814, 302.9114
881.1635, 304.7142
881.6456, 306.3635
882.1277, 307.0441
882.6099, 307.0861
883.0920, 307.4995
883.5741, 309.3645
884.0562, 310.1510
884.5383, 308.8237
885.0204, 306.6520
885.5026, 306.8287
885.9847, 309.1339
886.4668, 310.6807
886.9489, 310.6481
887.4310, 309.4774
887.9131, 306.4803
888.3953, 303.0549
888.8774, 301.3480
889.3595, 303.7308
889.8416, 305.2367
890.3237, 304.8456
890.8058, 303.6713
891.2880, 302.7395
891.7701, 302.0486
892.2522, 301.5939
892.7343, 301.4391
893.2164, 301.1489
893.6985, 300.0154
894.1807, 298.6460
894.6628, 297.9019
895.1449, 298.0588
895.6270, 297.4951
896.1091, 295.5936
896.5912, 292.7244
897.0734, 289.0073
897.5555, 284.4053
898.0376, 279.9789
898.5197, 275.8398
899.0018, 271.5153
899.4839, 266.0723
899.9661, 260.5480
900.4482, 257.7764
900.9303, 257.1265
901.4124, 254.5505
901.8945, 244.8341
902.3766, 235.8494
902.8588, 231.7416
903.3409, 231.6453
903.8230, 231.5085
904.3051, 231.2177
904.7872, 231.2281
905.2693, 231.8845
905.7515, 232.6688
906.2336, 232.0636
906.7157, 230.5232
907.1978, 229.3862
907.6799, 229.2817
908.1620, 229.6006
908.6442, 230.2061
909.1263, 231.0402
909.6084, 232.1161
910.0905, 233.9974
910.5726, 234.5165
911.0547, 233.1853
911.5369, 231.2223
912.0190, 230.3430
912.5011, 230.1334
912.9832, 229.3922
913.4653, 227.8896
913.9474, 226.0291
914.4296, 224.0948
914.9117, 221.8801
915.3938, 219.2950
915.8759, 216.5039
916.3580, 212.3811
916.8401, 206.5299
917.3223, 200.2793
917.8044, 194.7069
918.2865, 189.5055
918.7686, 182.9659
919.2507, 175.2743
919.7328, 168.1564
920.2150, 163.6381
920.6971, 159.2075
921.1792, 153.0496
921.6613, 145.3354
922.1434, 138.0764
922.6255, 131.2128
923.1077, 125.0125
923.5898, 119.6086
924.0719, 114.8561
924.5540, 110.4666
925.0361, 106.3271
925.5182, 102.1057
926.0004, 97.46936
926.4825, 92.92114
926.9646, 88.51331
927.4467, 84.39380
927.9288, 80.93323
928.4109, 78.67786
928.8931, 75.80225
929.3752, 72.09875
929.8573, 68.06921
930.3394, 63.92749
930.8215, 59.91992
931.3036, 57.13293
931.7858, 55.80811
932.2679, 53.97913
932.7500, 49.66296
933.2321, 44.76782
933.7142, 40.66333
934.1964, 37.62170
934.6785, 34.65100
935.1606, 31.87500
935.6427, 28.93494
936.1248, 25.31470
936.6069, 21.48694
937.0891, 19.50330
937.5712, 19.02930
938.0533, 18.54590
938.5354, 17.11938
939.0175, 15.51453
939.4996, 14.28833
939.9818, 13.18982
940.4639, 11.45203
940.9460, 8.537964
941.4281, 6.422241
941.9102, 5.688477
942.3923, 5.441040
942.8745, 4.021362
943.3566, 1.912231
943.8387, 0.5675050
944.3208, 0.5136720
944.8029, 0.6517330
945.2850, 0.5987550
945.7672, 0.5012210
946.2493, 0.3703610
946.7314, 8.7769002E-02
947.2135, 0.6401370
947.6956, 1.868896
948.1777, 2.902832
948.6599, 3.263306
949.1420, 3.006226
949.6241, 1.780640
950.1062, 0.1174320
950.5883, 0.8814700
951.0704, 2.465454
951.5526, 5.170410
952.0347, 3.878174
952.5168, 0.2082520
952.9989, 2.556519
953.4810, 2.913696
953.9631, 2.450195
954.4453, 1.344849
954.9274, 7.2998002E-02
955.4095, 1.152344
955.8916, 2.081055
956.3737, 1.883057
956.8558, 0.8159180
957.3380, 2.685669
957.8201, 2.073853
958.3022, 0.5219730
958.7843, 0.6584470
959.2664, 1.475220
959.7485, 1.884521
960.2307, 1.806152
960.7128, 1.752686
961.1949, 2.796387
961.6770, 3.845337
962.1591, 2.913208
962.6412, 1.7578000E-02
963.1234, 2.212280
963.6055, 1.977783
964.0876, 1.902710
964.5697, 3.049072
965.0518, 5.062866
965.5339, 6.507080
966.0161, 7.374756
966.4982, 7.769775
966.9803, 7.415283
967.4624, 7.106079
967.9445, 8.033203
968.4266, 9.549561
968.9088, 10.56628
969.3909, 9.755371
969.8730, 10.00964
970.3551, 12.01123
970.8372, 14.48511
971.3193, 16.00208
971.8015, 16.71838
972.2836, 18.22791
972.7657, 20.67163
973.2478, 23.42444
973.7299, 26.43140
974.2120, 29.26038
974.6942, 31.27673
975.1763, 32.45093
975.6584, 34.62427
976.1405, 38.28882
976.6226, 42.06421
977.1047, 45.45178
977.5869, 48.59229
978.0690, 51.89380
978.5511, 55.21741
979.0332, 58.09705
979.5153, 59.61743
979.9974, 61.73792
980.4796, 66.40918
980.9617, 71.90540
981.4438, 75.72546
981.9259, 77.20764
982.4080, 79.16138
982.8901, 81.90698
983.3723, 84.50745
983.8544, 86.06506
984.3365, 86.81116
984.8186, 87.11914
985.3007, 87.03479
985.7828, 86.61536
986.2650, 86.40857
986.7471, 85.26038
987.2292, 82.28015
987.7113, 77.95874
988.1934, 75.27600
988.6755, 74.33374
989.1577, 72.22144
989.6398, 67.39062
990.1219, 61.62048
990.6040, 56.70898
991.0861, 52.45239
991.5682, 48.52612
992.0504, 45.47461
992.5325, 41.66162
993.0146, 36.19824
993.4967, 30.97559
993.9788, 28.05432
994.4609, 27.10974
994.9431, 25.11768
995.4252, 21.92114
995.9073, 18.81604
996.3894, 16.55237
996.8715, 14.88037
997.3536, 13.76978
997.8358, 13.17078
998.3179, 12.46411
998.8000, 11.85803
999.2821, 10.47229
999.7642, 7.697021
1000.246, 4.487183
1000.728, 2.913696
1001.211, 2.509399
1001.693, 2.227295
1002.175, 2.073975
1002.657, 1.252441
1003.139, 1.807373
1003.621, 4.808105
1004.103, 5.461426
1004.585, 3.178711
1005.068, 2.059570
1005.550, 2.203003
1006.032, 2.750488
1006.514, 3.457031
1006.996, 3.904175
1007.478, 3.366821
1007.960, 2.011230
1008.442, 0.8520510
1008.924, 0.1546630
1009.407, 8.0932997E-02
1009.889, 0.1176760
1010.371, 0.4429930
1010.853, 0.3315430
1011.335, 9.5458999E-02
1011.817, 0.1564940
1012.299, 1.528809
1012.781, 2.585327
1013.263, 1.970337
1013.746, 0.6982420
1014.228, 0.3674320
1014.710, 1.238647
1015.192, 1.734375
1015.674, 1.691650
1016.156, 1.860474
1016.638, 2.748535
1017.120, 4.099731
1017.603, 5.183838
1018.085, 6.235474
1018.567, 8.010498
1019.049, 11.41028
1019.531, 14.75891
1020.013, 18.07227
1020.495, 20.90735
1020.977, 22.06848
1021.459, 21.47900
1021.942, 21.66675
1022.424, 22.99792
1022.906, 24.71326
1023.388, 26.49207
1023.870, 28.07898
1024.352, 29.07520
1024.834, 29.40161
1025.316, 30.22314
1025.799, 31.86194
1026.281, 33.54688
1026.763, 35.02515
1027.245, 36.33936
1027.727, 37.58606
1028.209, 38.81787
1028.691, 40.25195
1029.173, 42.68823
1029.656, 44.19360
1030.138, 42.99451
1030.620, 40.90955
1031.102, 39.88867
1031.584, 40.14099
1032.066, 40.21240
1032.548, 40.05615
1033.030, 39.73804
1033.512, 38.92090
1033.995, 38.22009
1034.477, 38.55139
1034.959, 39.77600
1035.441, 40.83862
1035.923, 41.83960
1036.405, 42.07263
1036.887, 41.08691
1037.369, 39.64563
1037.851, 39.38989
1038.334, 40.00159
1038.816, 40.18518
1039.298, 39.58118
1039.780, 38.88831
1040.262, 38.25769
1040.744, 37.95337
1041.226, 38.43408
1041.708, 39.81201
1042.191, 39.66223
1042.673, 37.75244
1043.155, 36.34534
1043.637, 36.92029
1044.119, 38.46729
1044.601, 39.98730
1045.083, 41.34583
1045.565, 42.17468
1046.047, 42.32788
1046.530, 41.86853
1047.012, 40.34729
1047.494, 38.90930
1047.976, 39.05444
1048.458, 40.44775
1048.940, 41.54541
1049.422, 42.22522
1049.904, 42.53198
1050.386, 41.73901
1050.869, 41.28625
1051.351, 42.79968
1051.833, 45.47949
1052.315, 45.81226
1052.797, 43.43835
1053.279, 41.36792
1053.761, 40.43530
1054.243, 39.96924
1054.726, 39.09131
1055.208, 38.14062
1055.690, 37.62915
1056.172, 37.81775
1056.654, 37.99377
1057.136, 38.35291
1057.618, 38.21606
1058.100, 36.81848
1058.583, 34.64526
1059.065, 33.89954
1059.547, 34.27747
1060.029, 34.35828
1060.511, 32.45911
1060.993, 31.00806
1061.475, 31.81396
1061.957, 33.47144
1062.439, 33.93994
1062.922, 32.93896
1063.404, 32.66797
1063.886, 33.37988
1064.368, 33.86633
1064.850, 32.65161
1065.332, 31.07397
1065.814, 30.43005
1066.296, 30.75549
1066.778, 31.42761
1067.261, 32.71594
1067.743, 33.34229
1068.225, 32.63330
1068.707, 31.66113
1069.189, 32.70422
1069.671, 34.93652
1070.153, 36.52283
1070.635, 37.03723
1071.118, 36.97620
1071.600, 35.98108
1072.082, 34.98682
1072.564, 34.37549
1073.046, 34.15210
1073.528, 35.05359
1074.010, 37.10498
1074.492, 39.21313
1074.974, 40.28064
1075.457, 41.24231
1075.939, 42.93640
1076.421, 45.17310
1076.903, 47.53198
1077.385, 50.17175
1077.867, 52.11731
1078.349, 53.14111
1078.831, 54.18091
1079.313, 55.45068
1079.796, 57.63184
1080.278, 62.82129
1080.760, 70.40076
1081.242, 75.89355
1081.724, 76.23950
1082.206, 76.35779
1082.688, 76.77991
1083.170, 77.95288
1083.652, 81.08643
1084.135, 85.74280
1084.617, 90.22461
1085.099, 94.25854
1085.581, 97.88843
1086.063, 100.6792
1086.545, 103.4946
1087.027, 106.9360
1087.509, 110.9548
1087.992, 115.4503
1088.474, 120.4409
1088.956, 124.4718
1089.438, 126.5334
1089.920, 128.1509
1090.402, 131.0031
1090.884, 134.3088
1091.366, 137.0023
1091.849, 138.9167
1092.331, 140.3909
1092.813, 141.5398
1093.295, 141.8575
1093.777, 141.1530
1094.259, 139.2800
1094.741, 135.5710
1095.223, 130.3177
1095.705, 124.8397
1096.188, 120.1750
1096.670, 114.5879
1097.152, 107.3555
1097.634, 99.72791
1098.116, 93.47095
1098.598, 88.14136
1099.080, 81.62085
1099.562, 73.71387
1100.044, 66.28503
1100.527, 59.94165
1101.009, 55.20203
1101.491, 53.00195
1101.973, 52.08887
1102.455, 49.05786
1102.937, 43.92859
1103.419, 38.69092
1103.901, 33.57861
1104.384, 29.22119
1104.866, 26.55017
1105.348, 24.77527
1105.830, 23.20874
1106.312, 21.82898
1106.794, 20.00305
1107.276, 17.38123
1107.758, 15.77063
1108.240, 16.58777
1108.723, 18.13281
1109.205, 17.41272
1109.687, 15.43689
1110.169, 14.17834
1110.651, 14.62427
1111.133, 14.97449
1111.615, 14.93445
1112.097, 15.03735
1112.579, 16.25476
1113.062, 17.96912
1113.544, 17.54834
1114.026, 15.37231
1114.508, 12.97290
1114.990, 10.27722
1115.472, 8.530396
1115.954, 8.925415
1116.436, 9.838135
1116.919, 8.785522
1117.401, 6.002197
1117.883, 4.994873
1118.365, 6.090210
1118.847, 7.262085
1119.329, 6.928101
1119.811, 6.331909
1120.293, 6.202393
1120.776, 6.546753
1121.258, 7.220337
1121.740, 8.367065
1122.222, 8.602295
1122.704, 7.458496
1123.186, 6.055298
1123.668, 5.461914
1124.150, 5.220703
1124.632, 4.829712
1125.115, 4.196167
1125.597, 3.781006
1126.079, 3.609863
1126.561, 3.628540
1127.043, 3.983276
1127.525, 4.263062
1128.007, 3.750488
1128.489, 2.725098
1128.971, 1.595825
1129.454, 0.3038330
1129.936, 0.4693600
1130.418, 0.2248540
1130.900, 0.2753910
1131.382, 1.964844
1131.864, 4.330322
1132.346, 4.106567
1132.828, 1.978516
1133.311, 0.2222900
1133.793, 0.3637700
1134.275, 0.2938230
1134.757, 0.6750490
1135.239, 1.767700
1135.721, 2.325317
1136.203, 2.339233
1136.685, 1.581177
1137.167, 0.1577150
1137.650, 0.6270750
1138.132, 0.4515380
1138.614, 1.869629
1139.096, 3.250488
1139.578, 4.340942
1140.060, 4.645020
1140.542, 4.168945
1141.024, 3.587402
1141.506, 2.985596
1141.989, 2.355469
1142.471, 1.553589
1142.953, 0.8664550
1143.435, 0.5502930
1143.917, 0.5686040
1144.399, 0.5767820
1144.881, 0.5151370
1145.363, 0.9061280
1145.846, 1.938110
1146.328, 3.012207
1146.810, 3.425049
1147.292, 3.529663
1147.774, 3.679077
1148.256, 3.905029
1148.738, 4.114624
1149.220, 4.305786
1149.703, 4.509888
1150.185, 4.936401
1150.667, 4.977661
1151.149, 3.075562
1151.631, 0.4240720
1152.113, 1.069824
1152.595, 0.7548830
1153.077, 6.8970002E-02
1153.559, 1.774414
1154.042, 2.806396
1154.524, 1.896118
1155.006, 0.1630860
1155.488, 0.2846680
1155.970, 1.599854
1156.452, 2.525391
1156.934, 2.838501
1157.416, 2.042114
1157.898, 0.8098140
1158.381, 3.159668
1158.863, 2.427856
1159.345, 0.3789060
1159.827, 0.9409180
1160.309, 0.2086180
1160.791, 0.9138180
1161.273, 0.3078610
1161.755, 1.427734
1162.238, 1.814209
1162.720, 1.988892
1163.202, 2.599243
1163.684, 3.519897
1164.166, 4.066650
1164.648, 4.195313
1165.130, 3.854004
1165.612, 2.278076
1166.094, 1.064453
1166.577, 1.190186
1167.059, 1.905273
1167.541, 2.077637
1168.023, 1.762695
1168.505, 1.583984
1168.987, 1.616699
1169.469, 1.390015
1169.951, 0.5343020
1170.433, 1.705688
1170.916, 0.2259520
1171.398, 3.817627
1171.880, 5.651367
1172.362, 5.749023
1172.844, 4.790527
1173.326, 2.691284
1173.808, 1.085693
1174.290, 2.119019
1174.773, 3.538696
1175.255, 3.049438
1175.737, 1.218262
1176.219, 1.792480
1176.701, 4.929688
1177.183, 5.937256
1177.665, 2.871948
1178.147, 0.1606450
1178.630, 1.832275
1179.112, 5.209717
1179.594, 5.797607
1180.076, 3.266357
1180.558, 2.732178
1181.040, 4.527832
1181.522, 6.060547
1182.004, 6.309448
1182.486, 5.768555
1182.969, 4.168213
1183.451, 2.600708
1183.933, 2.474365
1184.415, 4.122437
1184.897, 5.944946
1185.379, 8.122681
1185.861, 9.127563
1186.343, 7.114136
1186.825, 4.915405
1187.308, 6.963379
1187.790, 10.69958
1188.272, 12.00049
1188.754, 9.400024
1189.236, 6.788208
1189.718, 3.953979
1190.200, 2.180908
1190.682, 2.902710
1191.165, 4.849976
1191.647, 6.686890
1192.129, 8.010620
1192.611, 8.132446
1193.093, 5.948120
1193.575, 5.189087
1194.057, 6.236328
1194.539, 7.347412
1195.021, 6.890137
1195.504, 5.841187
1195.986, 5.422729
1196.468, 5.588989
1196.950, 6.272461
1197.432, 7.990479
1197.914, 8.969849
1198.396, 9.051514
1198.878, 8.535767
1199.360, 7.226318
1199.843, 5.801514
1200.325, 5.540894
1200.807, 6.129028
1201.289, 6.067871
1201.771, 4.690063
1202.253, 3.626465
1202.735, 3.018555
1203.217, 2.969971
1203.700, 3.888672
1204.182, 5.265137
1204.664, 6.448975
1205.146, 7.380371
1205.628, 8.083008
1206.110, 8.392212
1206.592, 8.779785
1207.074, 9.275513
1207.557, 9.925171
1208.039, 10.95911
1208.521, 12.06714
1209.003, 12.81299
1209.485, 13.14624
1209.967, 13.18970
1210.449, 13.02283
1210.931, 12.84497
1211.413, 12.72949
1211.896, 12.42542
1212.378, 11.23279
1212.860, 9.843140
1213.342, 9.433228
1213.824, 10.15686
1214.306, 10.75171
1214.788, 11.20325
1215.270, 11.19958
1215.752, 10.44263
1216.235, 9.473633
1216.717, 10.02832
1217.199, 10.93994
1217.681, 9.780640
1218.163, 6.000977
1218.645, 3.555298
1219.127, 3.028442
1219.609, 3.286255
1220.092, 4.236816
1220.574, 5.222168
1221.056, 5.167236
1221.538, 4.560181
1222.020, 3.955200
1222.502, 3.370605
1222.984, 3.575317
1223.466, 4.829346
1223.948, 5.893433
1224.431, 6.166504
1224.913, 6.334229
1225.395, 8.122803
1225.877, 10.07043
1226.359, 9.851685
1226.841, 6.370239
1227.323, 4.615601
1227.805, 4.961060
1228.287, 5.335327
1228.770, 5.091431
1229.252, 4.524536
1229.734, 3.845947
1230.216, 3.294434
1230.698, 3.319092
1231.180, 4.184937
1231.662, 4.502197
1232.144, 4.283691
1232.627, 3.556152
1233.109, 1.917969
1233.591, 0.4718020
1234.073, 1.068237
1234.555, 2.453613
1235.037, 2.944336
1235.519, 2.365234
1236.001, 0.7727050
1236.484, 1.912842
1236.966, 3.628540
1237.448, 2.819946
1237.930, 1.374390
1238.412, 1.250244
1238.894, 1.608276
1239.376, 1.361084
1239.858, 0.4796140
1240.340, 1.146484
1240.823, 3.535889
1241.305, 4.860352
1241.787, 3.226929
1242.269, 1.398315
1242.751, 2.149658
1243.233, 1.270752
1243.715, 1.433838
1244.197, 2.256348
1244.679, 2.482178
1245.162, 4.562744
1245.644, 6.020386
1246.126, 5.162964
1246.608, 3.804321
1247.090, 3.374634
1247.572, 3.025146
1248.054, 1.486084
1248.536, 1.339233
1249.019, 2.115601
1249.501, 0.9918210
1249.983, 0.2769780
1250.465, 0.6102290
1250.947, 0.9965820
1251.429, 2.269897
1251.911, 3.544800
1252.393, 3.828369
1252.875, 3.164795
1253.358, 3.300171
1253.840, 4.125122
1254.322, 4.829712
1254.804, 5.028198
1255.286, 4.881592
1255.768, 3.977173
1256.250, 3.216553
1256.732, 3.449707
1257.214, 4.540039
1257.697, 5.925537
1258.179, 7.447388
1258.661, 8.316895
1259.143, 7.894653
1259.625, 7.180298
1260.107, 5.958252
1260.589, 5.221924
1261.071, 6.466675
1261.554, 8.723511
1262.036, 8.512207
1262.518, 6.522705
1263.000, 5.234741
1263.482, 6.391357
1263.964, 7.105225
1264.446, 7.166504
1264.928, 6.572388
1265.411, 4.348145
1265.893, 1.985352
1266.375, 3.169800
1266.857, 6.585571
1267.339, 8.648193
1267.821, 7.247559
1268.303, 6.729614
1268.785, 7.399292
1269.267, 8.199097
1269.750, 7.803223
1270.232, 6.368896
1270.714, 6.356934
1271.196, 7.026733
1271.678, 6.359863
1272.160, 3.408447
1272.642, 2.766113
1273.124, 4.739136
1273.606, 6.718872
1274.089, 6.361328
1274.571, 5.623535
1275.053, 6.594116
1275.535, 8.211548
1276.017, 8.326294
1276.499, 6.712524
1276.981, 5.098633
1277.463, 3.099487
1277.946, 1.912842
1278.428, 2.972290
1278.910, 4.368896
1279.392, 5.272217
1279.874, 5.625122
1280.356, 5.290894
1280.838, 4.296753
1281.320, 3.246948
1281.802, 2.215942
1282.285, 1.654541
1282.767, 2.218994
1283.249, 2.767578
1283.731, 3.074341
1284.213, 2.971924
1284.695, 1.808350
1285.177, 6.1523002E-02
1285.659, 0.3056640
1286.141, 2.075317
1286.624, 3.418457
1287.106, 3.044922
1287.588, 2.945068
1288.070, 3.529541
1288.552, 4.051514
1289.034, 3.642456
1289.516, 4.055664
1289.998, 3.070190
1290.481, 3.924683
1290.963, 4.304810
1291.445, 3.721069
1291.927, 2.824707
1292.409, 1.439453
1292.891, 0.4625240
1293.373, 0.9039310
1293.855, 1.831299
1294.338, 2.123047
1294.820, 2.008911
1295.302, 1.885864
1295.784, 1.764160
1296.266, 1.676636
1296.748, 1.610962
1297.230, 1.841064
1297.712, 2.614868
1298.194, 3.647217
1298.677, 5.493774
1299.159, 6.850220
1299.641, 5.772583
1300.123, 2.137451
1300.605, 1.160645
1301.087, 2.536987
1301.569, 3.459473
1302.051, 1.962769
1302.533, 0.4610600
1303.016, 0.0000000E+00
##END=



