##NAMES=Epidote
##RRUFFID=R050131
##IDEAL CHEMISTRY=Ca_2_Fe^3+^Al_2_(Si_2_O_7_)(SiO_4_)O(OH)
##LOCALITY=Calumet mine, Chaffee County, Colorado, USA
##OWNER=RRUFF
##SOURCE=Dave Bunk Minerals
##DESCRIPTION=Green prismatic crystal
##STATUS=The identification of this mineral has been confirmed by X-ray diffraction and chemical analysis
##URL=rruff.info/R050131
##MEASURED CHEMISTRY=Ca_2.00_Al_2.00_(Fe^3+^_0.75_Al_0.25_)(SiO_4_)(Si_2_O_7_)O(OH)
109.7946, 0.0000000E+00
110.2767, 3.292084
110.7588, 4.638611
111.2410, 0.5767520
111.7231, 1.655884
112.2052, 0.9777530
112.6873, 1.085480
113.1694, 3.921951
113.6515, 7.060532
114.1337, 11.46596
114.6158, 17.50362
115.0979, 24.78638
115.5800, 32.53708
116.0621, 40.73703
116.5442, 49.13455
117.0264, 57.37894
117.5085, 65.55025
117.9906, 73.63985
118.4727, 81.62865
118.9548, 89.50613
119.4369, 97.25778
119.9191, 104.8833
120.4012, 112.4958
120.8833, 120.1335
121.3654, 126.9856
121.8475, 134.5985
122.3296, 144.2635
122.8118, 156.0013
123.2939, 168.1056
123.7760, 179.7838
124.2581, 190.9567
124.7402, 201.7586
125.2223, 209.7289
125.7045, 218.2040
126.1866, 231.0098
126.6687, 248.6137
127.1508, 269.0925
127.6329, 291.4440
128.1150, 315.1988
128.5972, 339.7045
129.0793, 364.3632
129.5614, 389.3160
130.0435, 414.4801
130.5256, 439.6627
131.0077, 465.5160
131.4899, 494.4424
131.9720, 526.1671
132.4541, 555.7952
132.9362, 577.5795
133.4183, 590.6434
133.9004, 598.5832
134.3826, 602.0034
134.8647, 600.1052
135.3468, 590.4452
135.8289, 572.9910
136.3110, 549.9150
136.7931, 521.3926
137.2753, 487.3981
137.7574, 453.4269
138.2395, 419.7561
138.7216, 386.8240
139.2037, 355.4685
139.6858, 325.3285
140.1680, 297.2206
140.6501, 271.5502
141.1322, 248.1091
141.6143, 227.0404
142.0964, 207.7228
142.5785, 189.9787
143.0607, 176.3666
143.5428, 167.4835
144.0249, 161.7772
144.5070, 157.2648
144.9891, 153.9941
145.4712, 151.8553
145.9534, 151.0306
146.4355, 151.8898
146.9176, 152.5418
147.3997, 153.1512
147.8818, 153.5066
148.3639, 153.2897
148.8461, 152.7252
149.3282, 151.3314
149.8103, 148.9239
150.2924, 145.2006
150.7745, 141.0500
151.2566, 135.4349
151.7388, 129.3183
152.2209, 126.0626
152.7030, 126.8939
153.1851, 130.0739
153.6672, 135.1924
154.1493, 141.1769
154.6315, 147.3257
155.1136, 153.7150
155.5957, 160.4167
156.0778, 167.5101
156.5599, 175.6503
157.0420, 183.9501
157.5242, 191.7610
158.0063, 198.6167
158.4884, 205.9524
158.9705, 213.8696
159.4526, 222.4017
159.9347, 231.9749
160.4169, 243.0950
160.8990, 255.0716
161.3811, 267.4055
161.8632, 280.5847
162.3453, 293.5143
162.8274, 305.7902
163.3096, 317.4348
163.7917, 328.8175
164.2738, 341.4225
164.7559, 353.3444
165.2380, 362.7067
165.7201, 367.9099
166.2023, 371.2007
166.6844, 374.5105
167.1665, 377.8997
167.6486, 377.7165
168.1307, 370.7867
168.6128, 359.9927
169.0950, 349.1022
169.5771, 339.6154
170.0592, 330.6515
170.5413, 321.4253
171.0234, 311.8082
171.5055, 302.3861
171.9877, 294.5277
172.4698, 287.0931
172.9519, 278.0519
173.4340, 264.8934
173.9161, 250.4084
174.3982, 237.5729
174.8804, 226.7238
175.3625, 216.2424
175.8446, 205.2010
176.3267, 193.5406
176.8088, 181.2117
177.2909, 167.2283
177.7731, 152.8393
178.2552, 139.6583
178.7373, 127.6851
179.2194, 117.0669
179.7015, 108.1412
180.1836, 100.6496
180.6658, 93.79105
181.1479, 86.83829
181.6300, 80.13562
182.1121, 74.38483
182.5942, 69.60483
183.0763, 65.96133
183.5585, 63.87061
184.0406, 63.21756
184.5227, 63.25256
185.0048, 63.70279
185.4869, 64.48251
185.9690, 65.45209
186.4511, 66.69998
186.9333, 67.91516
187.4154, 68.49243
187.8975, 68.47116
188.3796, 68.33447
188.8617, 69.23404
189.3438, 70.59933
189.8260, 69.67487
190.3081, 65.90070
190.7902, 59.78601
191.2723, 51.81842
191.7544, 41.95462
192.2365, 31.85349
192.7187, 22.22086
193.2008, 13.17209
193.6829, 5.512848
194.1650, 0.5434570
194.6471, 5.283813
195.1292, 9.284637
195.6114, 12.49808
196.0935, 15.51416
196.5756, 19.30414
197.0577, 23.83798
197.5398, 26.48654
198.0219, 26.38782
198.5041, 24.21381
198.9862, 22.39847
199.4683, 20.98010
199.9504, 19.70795
200.4325, 18.46039
200.9146, 17.26788
201.3968, 15.79584
201.8789, 13.89893
202.3610, 11.68976
202.8431, 9.771027
203.3252, 8.264496
203.8073, 6.718506
204.2895, 4.712341
204.7716, 2.190918
205.2537, 0.4558720
205.7358, 3.185425
206.2179, 5.994995
206.7000, 8.867004
207.1822, 11.83164
207.6643, 14.73035
208.1464, 17.24652
208.6285, 19.18805
209.1106, 21.67065
209.5927, 24.91037
210.0749, 28.88727
210.5570, 33.48798
211.0391, 38.76212
211.5212, 44.44946
212.0033, 50.37488
212.4854, 56.53888
212.9676, 62.90497
213.4497, 69.38611
213.9318, 76.03302
214.4139, 83.34067
214.8960, 91.66324
215.3781, 100.1924
215.8603, 108.1978
216.3424, 115.3237
216.8245, 122.6996
217.3066, 130.4763
217.7887, 138.6961
218.2708, 147.6063
218.7530, 157.5229
219.2351, 167.8947
219.7172, 177.8534
220.1993, 187.3136
220.6814, 196.9760
221.1635, 206.9933
221.6457, 217.4661
222.1278, 227.3420
222.6099, 235.9890
223.0920, 244.9814
223.5741, 255.7211
224.0562, 268.8481
224.5384, 282.6820
225.0205, 297.5192
225.5026, 313.2915
225.9847, 327.1675
226.4668, 338.0521
226.9489, 348.1453
227.4311, 359.4816
227.9132, 373.1097
228.3953, 386.2088
228.8774, 398.2634
229.3595, 409.3816
229.8416, 419.6855
230.3238, 429.9931
230.8059, 438.7917
231.2880, 444.3001
231.7701, 444.7477
232.2522, 445.5343
232.7343, 448.2098
233.2165, 452.9459
233.6986, 454.9316
234.1807, 452.7855
234.6628, 449.2930
235.1449, 447.0416
235.6270, 445.9102
236.1092, 446.2360
236.5913, 448.0159
237.0734, 451.2336
237.5555, 456.3181
238.0376, 463.5487
238.5197, 472.3370
239.0019, 482.0575
239.4840, 492.7321
239.9661, 504.3149
240.4482, 516.7083
240.9303, 529.9181
241.4124, 544.9933
241.8946, 562.9351
242.3767, 581.6740
242.8588, 599.1884
243.3409, 615.1792
243.8230, 630.6821
244.3051, 646.6235
244.7873, 662.8931
245.2694, 675.6383
245.7515, 684.9328
246.2336, 690.6315
246.7157, 692.7211
247.1978, 691.3809
247.6800, 686.2336
248.1621, 677.1273
248.6442, 664.0280
249.1263, 647.8006
249.6084, 627.7505
250.0905, 605.1263
250.5726, 580.5669
251.0548, 552.9221
251.5369, 525.4907
252.0190, 498.4624
252.5011, 471.7194
252.9832, 446.8095
253.4653, 423.5459
253.9475, 402.1580
254.4296, 382.9264
254.9117, 366.4333
255.3938, 350.5587
255.8759, 335.2396
256.3581, 320.5188
256.8402, 306.8168
257.3223, 294.1920
257.8044, 282.2766
258.2865, 270.9780
258.7686, 260.8884
259.2508, 250.0566
259.7329, 237.7578
260.2150, 224.7466
260.6971, 213.2490
261.1792, 203.8272
261.6613, 195.0717
262.1435, 186.2271
262.6256, 177.3829
263.1077, 168.4146
263.5898, 158.8124
264.0719, 149.1920
264.5540, 141.7954
265.0362, 137.0298
265.5183, 133.4772
266.0004, 130.3803
266.4825, 127.7174
266.9646, 125.7082
267.4467, 124.5835
267.9289, 123.9774
268.4110, 122.8529
268.8931, 120.7803
269.3752, 119.2391
269.8573, 119.2520
270.3394, 121.3427
270.8216, 122.3027
271.3037, 121.7360
271.7858, 120.3200
272.2679, 119.3116
272.7500, 118.5918
273.2321, 118.6870
273.7143, 120.3105
274.1964, 123.8080
274.6785, 125.8802
275.1606, 126.4727
275.6427, 125.7090
276.1248, 123.5533
276.6070, 119.8064
277.0891, 115.7007
277.5712, 111.5046
278.0533, 107.2098
278.5354, 103.8014
279.0175, 101.6090
279.4996, 99.60532
279.9818, 95.92004
280.4639, 90.29205
280.9460, 85.71786
281.4281, 83.48175
281.9102, 83.36407
282.3923, 83.06390
282.8745, 82.46176
283.3566, 82.05969
283.8387, 82.47632
284.3208, 83.72827
284.8029, 85.31100
285.2850, 87.13641
285.7672, 89.18402
286.2493, 91.32266
286.7314, 93.53421
287.2135, 95.97192
287.6956, 98.52429
288.1777, 101.2697
288.6599, 105.1880
289.1420, 110.9766
289.6241, 117.8804
290.1062, 123.8275
290.5883, 128.8123
291.0704, 133.2231
291.5526, 137.1470
292.0347, 140.7258
292.5168, 144.6716
292.9989, 149.2369
293.4810, 154.1431
293.9631, 159.5304
294.4453, 165.3109
294.9274, 169.7774
295.4095, 171.7509
295.8916, 171.4002
296.3737, 169.1681
296.8558, 165.0926
297.3380, 159.2428
297.8201, 151.7781
298.3022, 142.6024
298.7843, 131.4529
299.2664, 116.9901
299.7485, 100.3695
300.2307, 84.44141
300.7128, 69.22614
301.1949, 54.91614
301.6770, 41.07132
302.1591, 27.96185
302.6412, 16.75571
303.1234, 8.305298
303.6055, 1.936493
304.0876, 3.367462
304.5697, 7.537903
305.0518, 10.91257
305.5339, 13.86328
306.0161, 16.20587
306.4982, 17.47638
306.9803, 17.38309
307.4624, 16.18915
307.9445, 14.03958
308.4266, 10.94217
308.9088, 7.234161
309.3909, 3.024292
309.8730, 1.637939
310.3551, 6.682343
310.8372, 12.33228
311.3193, 18.22302
311.8015, 23.99905
312.2836, 29.77414
312.7657, 35.86011
313.2478, 42.89557
313.7299, 50.18033
314.2120, 57.10367
314.6942, 63.26715
315.1763, 69.27744
315.6584, 75.28040
316.1405, 81.51782
316.6226, 88.26392
317.1047, 96.54526
317.5869, 104.7839
318.0690, 111.7234
318.5511, 116.3341
319.0332, 121.0430
319.5153, 126.6622
319.9974, 133.0358
320.4796, 139.7202
320.9617, 147.1693
321.4438, 154.2936
321.9259, 160.2964
322.4080, 164.5088
322.8901, 169.2913
323.3723, 175.1027
323.8544, 181.8606
324.3365, 189.4529
324.8186, 198.4414
325.3007, 207.4707
325.7828, 216.2930
326.2650, 224.9671
326.7471, 233.5025
327.2292, 242.3156
327.7113, 250.8195
328.1934, 258.4835
328.6755, 264.8155
329.1577, 270.7249
329.6398, 275.9818
330.1219, 280.6051
330.6040, 285.9269
331.0861, 292.0248
331.5682, 298.7382
332.0504, 306.0286
332.5325, 314.2859
333.0146, 322.3885
333.4967, 330.5106
333.9788, 338.5019
334.4609, 345.4836
334.9431, 351.2203
335.4252, 356.3638
335.9073, 361.2074
336.3894, 365.9014
336.8715, 369.9680
337.3536, 373.1974
337.8358, 375.9750
338.3179, 379.2204
338.8000, 383.1069
339.2821, 386.9677
339.7642, 390.4621
340.2463, 393.4962
340.7285, 396.8177
341.2106, 400.0021
341.6927, 404.2116
342.1748, 410.9684
342.6569, 420.5085
343.1390, 431.6475
343.6212, 443.8740
344.1033, 457.3704
344.5854, 472.6427
345.0675, 489.4812
345.5496, 507.6536
346.0317, 527.8094
346.5139, 549.7025
346.9960, 568.9505
347.4781, 584.5452
347.9602, 597.0561
348.4423, 608.3546
348.9244, 618.4256
349.4066, 625.7580
349.8887, 630.0689
350.3708, 630.8986
350.8529, 626.6141
351.3350, 617.0639
351.8171, 602.5143
352.2993, 582.3329
352.7814, 557.3488
353.2635, 530.0466
353.7456, 501.3219
354.2277, 471.0078
354.7098, 437.9141
355.1920, 401.8335
355.6741, 365.8250
356.1562, 331.7434
356.6383, 300.1510
357.1204, 271.3853
357.6025, 246.1719
358.0847, 223.4728
358.5668, 202.7864
359.0489, 183.8887
359.5310, 166.5270
360.0131, 150.3395
360.4952, 135.5940
360.9774, 122.7859
361.4595, 112.4200
361.9416, 103.2725
362.4237, 94.93198
362.9058, 87.36447
363.3879, 80.45828
363.8701, 74.16736
364.3522, 68.59836
364.8343, 64.11902
365.3164, 61.48370
365.7985, 58.37820
366.2806, 53.82336
366.7628, 48.58667
367.2449, 43.93744
367.7270, 39.83002
368.2091, 36.32574
368.6912, 33.77567
369.1733, 32.54709
369.6555, 30.41003
370.1376, 26.52835
370.6197, 22.12729
371.1018, 18.20267
371.5839, 15.29941
372.0660, 12.07370
372.5482, 8.142151
373.0303, 3.670288
373.5124, 0.2400510
373.9945, 3.681305
374.4766, 6.461029
374.9587, 8.429932
375.4409, 9.353760
375.9230, 10.13528
376.4051, 10.74808
376.8872, 11.29553
377.3693, 12.19882
377.8514, 13.74713
378.3336, 14.60223
378.8157, 14.07593
379.2978, 12.14557
379.7799, 9.905853
380.2620, 7.233917
380.7441, 4.521271
381.2263, 2.620819
381.7084, 1.482849
382.1905, 0.7884520
382.6726, 5.119080
383.1547, 10.78714
383.6368, 15.50565
384.1190, 19.29324
384.6011, 23.27887
385.0832, 28.74503
385.5653, 35.13324
386.0474, 40.88379
386.5295, 45.43808
387.0117, 49.75073
387.4938, 55.44495
387.9759, 62.08353
388.4580, 68.14328
388.9401, 72.76407
389.4222, 76.35080
389.9044, 79.27087
390.3865, 81.55472
390.8686, 83.44632
391.3507, 85.74643
391.8328, 87.65540
392.3149, 87.96960
392.7971, 85.70026
393.2792, 82.15884
393.7613, 77.99417
394.2434, 73.16672
394.7255, 67.58398
395.2076, 60.73923
395.6898, 53.39624
396.1719, 46.08215
396.6540, 38.77643
397.1361, 31.69949
397.6182, 24.62930
398.1003, 17.82205
398.5825, 11.86188
399.0646, 7.104767
399.5467, 2.968658
400.0288, 0.6761170
400.5109, 3.743378
400.9930, 6.674225
401.4752, 9.847656
401.9573, 12.69226
402.4394, 14.61789
402.9215, 15.38257
403.4036, 15.62881
403.8857, 15.50174
404.3678, 14.95740
404.8499, 13.58310
405.3321, 11.10748
405.8142, 8.272888
406.2963, 5.770599
406.7784, 3.875000
407.2605, 0.6861570
407.7426, 4.069519
408.2248, 9.963928
408.7069, 16.25903
409.1890, 22.83380
409.6711, 29.93182
410.1532, 37.58017
410.6353, 45.80103
411.1175, 54.87418
411.5996, 64.76813
412.0817, 75.10303
412.5638, 85.47800
413.0459, 95.83127
413.5280, 106.6836
414.0102, 118.3267
414.4923, 130.3148
414.9744, 142.1061
415.4565, 153.8445
415.9386, 165.9135
416.4207, 178.6464
416.9029, 191.9802
417.3850, 205.6887
417.8671, 219.7265
418.3492, 234.8203
418.8313, 252.1331
419.3134, 270.8251
419.7956, 289.8420
420.2777, 308.8195
420.7598, 327.9120
421.2419, 347.4103
421.7240, 367.2704
422.2061, 387.9379
422.6883, 410.5169
423.1704, 433.4768
423.6525, 456.0872
424.1346, 478.5968
424.6167, 499.9997
425.0988, 520.3382
425.5810, 539.1846
426.0631, 555.5308
426.5452, 568.4487
427.0273, 579.6652
427.5094, 589.8755
427.9915, 599.2451
428.4737, 606.4281
428.9558, 610.4583
429.4379, 613.3265
429.9200, 616.7798
430.4021, 620.4750
430.8842, 625.6511
431.3664, 632.6895
431.8485, 641.2292
432.3306, 649.9079
432.8127, 658.7594
433.2948, 667.9435
433.7769, 677.4741
434.2591, 687.3655
434.7412, 697.9788
435.2233, 709.4982
435.7054, 720.9144
436.1875, 731.4749
436.6696, 741.1702
437.1518, 749.5829
437.6339, 756.2049
438.1160, 761.7361
438.5981, 767.0787
439.0802, 772.2178
439.5623, 777.5117
440.0445, 783.5507
440.5266, 789.9479
441.0087, 796.0143
441.4908, 801.2364
441.9729, 806.8718
442.4550, 813.1187
442.9372, 820.4756
443.4193, 829.9572
443.9014, 842.5670
444.3835, 856.8711
444.8656, 871.9380
445.3477, 887.7399
445.8299, 905.0093
446.3120, 925.5092
446.7941, 946.7604
447.2762, 966.6033
447.7583, 984.3248
448.2404, 1001.420
448.7226, 1020.094
449.2047, 1038.375
449.6868, 1050.085
450.1689, 1056.208
450.6510, 1054.567
451.1331, 1043.804
451.6153, 1022.988
452.0974, 998.3707
452.5795, 969.1115
453.0616, 937.1574
453.5437, 903.0704
454.0258, 866.7754
454.5080, 830.9070
454.9901, 795.7101
455.4722, 761.5400
455.9543, 727.9417
456.4364, 695.0040
456.9185, 664.2077
457.4007, 636.5067
457.8828, 611.5242
458.3649, 587.5845
458.8470, 564.8976
459.3291, 542.5504
459.8112, 519.5921
460.2934, 496.5759
460.7755, 474.8095
461.2576, 455.3048
461.7397, 436.5681
462.2218, 417.0629
462.7039, 396.9482
463.1861, 377.6467
463.6682, 359.8302
464.1503, 342.8432
464.6324, 326.5400
465.1145, 311.0166
465.5966, 295.1288
466.0788, 277.2423
466.5609, 258.9605
467.0430, 242.6707
467.5251, 230.1631
468.0072, 218.2562
468.4893, 206.2169
468.9715, 194.0581
469.4536, 182.5242
469.9357, 171.8313
470.4178, 161.5220
470.8999, 151.3345
471.3820, 140.7450
471.8642, 131.7071
472.3463, 124.5298
472.8284, 118.6133
473.3105, 112.9520
473.7926, 107.6797
474.2747, 102.6383
474.7569, 97.73480
475.2390, 92.89111
475.7211, 87.60236
476.2032, 81.70261
476.6853, 76.68359
477.1674, 73.97983
477.6496, 73.09659
478.1317, 72.41635
478.6138, 71.62735
479.0959, 71.21558
479.5780, 71.69168
480.0602, 72.91330
480.5423, 74.61597
481.0244, 76.82843
481.5065, 79.33652
481.9886, 81.84521
482.4707, 84.43124
482.9529, 87.60858
483.4350, 91.94791
483.9171, 96.80975
484.3992, 101.7086
484.8813, 106.6260
485.3634, 111.5791
485.8456, 116.2010
486.3277, 120.9071
486.8098, 126.2708
487.2919, 133.4260
487.7740, 140.0506
488.2561, 144.9809
488.7383, 148.4498
489.2204, 154.2387
489.7025, 163.1230
490.1846, 173.0066
490.6667, 183.0694
491.1488, 193.6306
491.6310, 201.8347
492.1131, 206.6890
492.5952, 210.7653
493.0773, 218.4720
493.5594, 229.8208
494.0415, 241.0511
494.5237, 250.8734
495.0058, 259.8419
495.4879, 269.3795
495.9700, 279.4503
496.4521, 290.0209
496.9342, 301.2735
497.4164, 312.9743
497.8985, 324.5112
498.3806, 335.8581
498.8627, 347.2764
499.3448, 359.2169
499.8269, 371.4249
500.3091, 383.5885
500.7912, 395.9118
501.2733, 407.8084
501.7554, 419.2102
502.2375, 430.0522
502.7196, 440.2408
503.2018, 449.5503
503.6839, 458.5059
504.1660, 467.2603
504.6481, 476.0274
505.1302, 484.4860
505.6123, 493.5353
506.0945, 501.6206
506.5766, 506.8506
507.0587, 508.6795
507.5408, 509.0026
508.0229, 507.8249
508.5050, 505.4843
508.9872, 503.5789
509.4693, 502.4855
509.9514, 499.3052
510.4335, 491.9218
510.9156, 480.8683
511.3977, 469.8605
511.8799, 459.1135
512.3619, 446.7595
512.8441, 430.3865
513.3262, 410.8892
513.8083, 390.1968
514.2904, 368.5426
514.7725, 346.3518
515.2546, 323.3415
515.7368, 300.1470
516.2189, 277.8152
516.7010, 256.6291
517.1831, 236.6568
517.6652, 217.9046
518.1473, 200.3670
518.6295, 184.1627
519.1116, 169.2151
519.5937, 155.6184
520.0758, 143.6049
520.5579, 133.3830
521.0400, 124.4136
521.5222, 117.1167
522.0043, 110.8597
522.4864, 104.5047
522.9685, 97.95944
523.4506, 91.47760
523.9327, 85.23169
524.4149, 79.17886
524.8970, 73.39301
525.3791, 67.83240
525.8612, 62.66370
526.3433, 58.40485
526.8254, 54.74820
527.3076, 49.78891
527.7897, 43.21078
528.2718, 36.09390
528.7539, 29.40659
529.2360, 23.12039
529.7181, 16.97952
530.2003, 10.64102
530.6824, 4.675323
531.1645, 0.6650090
531.6466, 5.259872
532.1287, 9.090668
532.6108, 12.05013
533.0930, 14.28761
533.5751, 15.77818
534.0572, 16.34784
534.5393, 16.99898
535.0214, 18.19478
535.5035, 19.40454
535.9857, 20.13005
536.4678, 20.40172
536.9499, 20.16705
537.4320, 19.33719
537.9141, 18.03450
538.3962, 16.51933
538.8784, 14.72672
539.3605, 12.89490
539.8426, 11.11063
540.3247, 9.358490
540.8068, 7.647766
541.2889, 5.987061
541.7711, 4.321320
542.2532, 2.982346
542.7353, 1.623764
543.2174, 0.8609770
543.6995, 4.711960
544.1816, 9.261169
544.6638, 14.05295
545.1459, 19.05319
545.6280, 24.11665
546.1101, 28.53783
546.5922, 33.60150
547.0743, 39.98230
547.5565, 47.61255
548.0386, 56.24155
548.5207, 66.60332
549.0028, 77.24780
549.4849, 86.98485
549.9670, 94.79712
550.4492, 105.8148
550.9313, 121.9559
551.4134, 139.6588
551.8955, 156.3318
552.3776, 170.9593
552.8597, 187.2654
553.3419, 206.1268
553.8240, 226.2515
554.3061, 245.0325
554.7882, 262.4079
555.2703, 279.5882
555.7524, 296.4571
556.2346, 313.3991
556.7167, 331.0100
557.1988, 349.2886
557.6809, 368.2005
558.1630, 387.3185
558.6451, 407.2874
559.1273, 428.7443
559.6094, 451.9887
560.0915, 476.4724
560.5736, 501.9186
561.0557, 528.6024
561.5378, 556.8427
562.0200, 588.2138
562.5021, 619.5057
562.9842, 649.9664
563.4663, 679.7539
563.9484, 710.3886
564.4305, 743.7849
564.9127, 775.4591
565.3948, 805.0752
565.8769, 832.4549
566.3590, 854.2604
566.8411, 871.4585
567.3232, 881.0042
567.8054, 881.6964
568.2875, 873.4802
568.7696, 853.9546
569.2517, 822.2065
569.7338, 781.3835
570.2159, 731.5302
570.6981, 675.4623
571.1802, 619.0037
571.6623, 562.1575
572.1444, 508.3280
572.6265, 459.2497
573.1086, 415.4058
573.5908, 377.7314
574.0729, 347.5784
574.5550, 322.4964
575.0371, 301.1388
575.5192, 283.4736
576.0013, 269.3683
576.4835, 259.5277
576.9656, 252.9845
577.4477, 249.1398
577.9298, 249.1325
578.4119, 249.4982
578.8940, 249.6263
579.3762, 250.6735
579.8583, 254.4461
580.3404, 261.3550
580.8225, 268.9811
581.3046, 276.6777
581.7867, 284.8486
582.2689, 294.2773
582.7510, 305.0332
583.2331, 316.9530
583.7152, 330.3505
584.1973, 344.8789
584.6794, 359.6711
585.1616, 374.6894
585.6437, 390.2852
586.1258, 407.1988
586.6079, 424.5933
587.0900, 441.5859
587.5721, 457.5667
588.0543, 474.7061
588.5364, 494.8664
589.0185, 516.1388
589.5006, 535.9823
589.9827, 554.5671
590.4648, 571.2387
590.9470, 584.4763
591.4291, 595.8863
591.9112, 610.8086
592.3933, 630.4683
592.8754, 649.9491
593.3575, 667.2357
593.8397, 682.6902
594.3218, 698.6141
594.8039, 714.7493
595.2860, 731.5278
595.7681, 749.9903
596.2502, 769.1927
596.7324, 786.9384
597.2145, 802.8780
597.6966, 817.9400
598.1787, 833.7690
598.6608, 848.6861
599.1429, 860.2552
599.6251, 866.8881
600.1072, 871.0385
600.5893, 873.8845
601.0714, 874.9554
601.5535, 872.8751
602.0356, 868.4396
602.5178, 859.3744
602.9999, 844.4431
603.4820, 823.8046
603.9641, 801.6116
604.4462, 777.3135
604.9283, 752.3064
605.4105, 726.9160
605.8926, 700.9390
606.3747, 675.7306
606.8568, 651.0024
607.3389, 626.8668
607.8210, 602.9695
608.3032, 579.3957
608.7853, 556.7465
609.2674, 534.8146
609.7495, 514.0314
610.2316, 494.5320
610.7137, 476.4954
611.1959, 459.9518
611.6780, 445.8232
612.1601, 432.5562
612.6422, 419.8120
613.1243, 407.5137
613.6064, 394.6549
614.0886, 381.5291
614.5707, 367.6968
615.0528, 352.7240
615.5349, 336.5994
616.0170, 320.6409
616.4991, 304.7617
616.9813, 288.8523
617.4634, 272.5567
617.9455, 255.7365
618.4276, 240.2852
618.9097, 226.4585
619.3918, 213.0382
619.8740, 197.8869
620.3561, 181.9382
620.8382, 167.3161
621.3203, 154.7882
621.8024, 143.5701
622.2845, 133.0712
622.7667, 123.2163
623.2488, 113.7429
623.7309, 104.0606
624.2130, 95.23758
624.6951, 87.93005
625.1772, 82.02457
625.6594, 76.11192
626.1415, 69.60559
626.6236, 63.77788
627.1057, 59.35129
627.5878, 56.54982
628.0699, 52.72095
628.5521, 47.55278
629.0342, 42.34328
629.5163, 38.42032
629.9984, 35.59007
630.4805, 32.62880
630.9626, 29.31126
631.4448, 26.21130
631.9269, 24.21198
632.4090, 22.84079
632.8911, 21.19438
633.3732, 18.63278
633.8553, 16.18565
634.3375, 14.65276
634.8196, 13.67360
635.3017, 12.47765
635.7838, 10.79858
636.2659, 8.936707
636.7480, 6.711823
637.2302, 4.233353
637.7123, 2.780106
638.1944, 2.856308
638.6765, 2.922546
639.1586, 2.088486
639.6407, 0.3756710
640.1229, 0.6235660
640.6050, 0.8124240
641.0871, 0.8893890
641.5692, 1.650162
642.0513, 2.758987
642.5334, 3.317047
643.0156, 3.080780
643.4977, 2.836472
643.9798, 3.385880
644.4619, 4.283524
644.9440, 4.954666
645.4261, 5.116257
645.9083, 5.126617
646.3904, 5.000732
646.8725, 4.802216
647.3546, 4.663269
647.8367, 4.716995
648.3188, 4.650909
648.8010, 4.416946
649.2831, 4.012985
649.7652, 3.356339
650.2473, 2.357132
650.7294, 1.560654
651.2115, 1.334229
651.6937, 1.538834
652.1758, 1.655975
652.6579, 1.683151
653.1400, 1.597717
653.6221, 1.453171
654.1042, 1.168274
654.5864, 0.6064450
655.0685, 0.2728730
655.5506, 1.260956
656.0327, 2.350922
656.5148, 3.443542
656.9969, 4.450455
657.4791, 5.629425
657.9612, 6.300476
658.4433, 5.985367
658.9254, 5.417084
659.4075, 5.728973
659.8896, 7.191574
660.3718, 8.589844
660.8539, 9.757462
661.3360, 10.63339
661.8181, 10.85316
662.3002, 10.50136
662.7823, 10.43678
663.2645, 11.33704
663.7466, 12.58780
664.2287, 13.26054
664.7108, 13.48285
665.1929, 13.87263
665.6750, 15.20304
666.1572, 16.44312
666.6393, 16.74374
667.1214, 15.92426
667.6035, 15.64457
668.0856, 16.64828
668.5677, 17.86037
669.0499, 18.71947
669.5320, 19.06115
670.0141, 19.69032
670.4962, 20.68858
670.9783, 21.76959
671.4604, 22.50794
671.9426, 22.97548
672.4247, 23.92681
672.9068, 25.63319
673.3889, 27.32345
673.8710, 27.89481
674.3531, 27.79689
674.8353, 27.91919
675.3174, 28.60947
675.7995, 29.56038
676.2816, 30.75198
676.7637, 32.07377
677.2458, 33.29682
677.7280, 34.39383
678.2101, 35.36399
678.6922, 36.04193
679.1743, 36.56204
679.6564, 37.82264
680.1385, 40.18122
680.6207, 42.21867
681.1028, 43.14458
681.5849, 43.21660
682.0670, 43.79793
682.5491, 44.88928
683.0313, 46.17669
683.5134, 47.68944
683.9955, 49.14205
684.4776, 50.12985
684.9597, 50.59238
685.4418, 50.86962
685.9240, 51.18004
686.4061, 51.38196
686.8882, 51.36249
687.3703, 51.09744
687.8524, 50.58311
688.3345, 49.40815
688.8167, 48.32117
689.2988, 48.21937
689.7809, 49.47536
690.2630, 50.12627
690.7451, 49.83531
691.2272, 49.08486
691.7094, 48.75814
692.1915, 48.72571
692.6736, 48.22301
693.1557, 46.79784
693.6378, 45.10794
694.1199, 43.80712
694.6021, 42.79637
695.0842, 41.87889
695.5663, 40.96446
696.0484, 40.14603
696.5305, 39.36040
697.0126, 38.67377
697.4948, 38.45989
697.9769, 39.36148
698.4590, 39.76752
698.9411, 38.92782
699.4232, 36.93705
699.9053, 35.60764
700.3875, 35.05047
700.8696, 34.61138
701.3517, 33.74715
701.8338, 32.60667
702.3159, 31.82917
702.7980, 31.43964
703.2802, 30.82275
703.7623, 29.25539
704.2444, 27.38888
704.7265, 25.83116
705.2086, 24.70431
705.6907, 23.72122
706.1729, 23.22586
706.6550, 22.58955
707.1371, 21.20012
707.6192, 18.29855
708.1013, 16.59975
708.5834, 16.59478
709.0656, 17.04063
709.5477, 16.17245
710.0298, 14.08293
710.5119, 12.43612
710.9940, 11.62962
711.4761, 11.18514
711.9582, 10.47512
712.4403, 9.666054
712.9224, 9.094650
713.4045, 9.170822
713.8867, 9.138206
714.3688, 8.386436
714.8509, 7.263817
715.3330, 6.518059
715.8151, 6.851967
716.2972, 6.871475
716.7794, 6.169418
717.2615, 4.987587
717.7436, 4.184441
718.2257, 3.790710
718.7078, 3.615723
719.1899, 3.649055
719.6721, 3.809990
720.1542, 3.951752
720.6363, 4.049591
721.1184, 3.915573
721.6005, 3.133881
722.0826, 2.264038
722.5648, 1.933510
723.0469, 2.130089
723.5290, 2.225456
724.0111, 1.784897
724.4932, 1.373299
724.9753, 1.388412
725.4575, 1.956993
725.9396, 2.071838
726.4217, 1.549828
726.9038, 0.9517360
727.3859, 0.7192230
727.8680, 0.8292390
728.3502, 0.7168500
728.8323, 0.3147050
729.3144, 5.3206999E-02
729.7965, 0.5538710
730.2786, 1.379539
730.7607, 1.838425
731.2429, 1.750793
731.7250, 1.699738
732.2071, 2.085289
732.6892, 2.516151
733.1713, 2.687096
733.6534, 2.009850
734.1356, 2.020744
734.6177, 3.080627
735.0998, 4.444344
735.5819, 5.073593
736.0640, 4.866241
736.5461, 4.913918
737.0283, 5.496819
737.5104, 6.298462
737.9925, 6.722404
738.4746, 6.853424
738.9567, 7.093254
739.4388, 7.741035
739.9210, 8.482849
740.4031, 9.066338
740.8852, 9.533363
741.3673, 10.00937
741.8494, 10.22639
742.3315, 10.78991
742.8137, 12.18832
743.2958, 14.00900
743.7779, 14.88722
744.2600, 14.55992
744.7421, 14.12143
745.2242, 13.87428
745.7064, 13.94614
746.1885, 14.74195
746.6706, 16.09315
747.1527, 17.28574
747.6348, 17.74584
748.1169, 17.98795
748.5991, 18.49909
749.0812, 19.31175
749.5633, 20.11755
750.0454, 20.63746
750.5275, 21.16125
751.0096, 21.83981
751.4918, 22.67220
751.9739, 23.53666
752.4560, 24.44286
752.9381, 25.42776
753.4202, 26.60888
753.9023, 27.89269
754.3845, 28.83594
754.8666, 29.44640
755.3487, 30.10029
755.8308, 31.08355
756.3129, 32.23174
756.7950, 33.33256
757.2772, 34.37543
757.7593, 35.54021
758.2414, 36.94417
758.7235, 38.46293
759.2056, 40.15673
759.6877, 42.12643
760.1699, 43.44165
760.6520, 43.77160
761.1341, 44.12203
761.6162, 45.30384
762.0983, 47.22562
762.5804, 49.10622
763.0626, 50.93990
763.5447, 52.63331
764.0268, 53.94320
764.5089, 55.15457
764.9910, 56.66518
765.4731, 58.62288
765.9553, 60.36805
766.4374, 61.65825
766.9195, 62.63306
767.4016, 63.44234
767.8837, 64.28234
768.3658, 64.34875
768.8480, 63.27771
769.3301, 62.06577
769.8122, 61.97749
770.2943, 62.84377
770.7764, 62.84212
771.2585, 61.72136
771.7407, 60.06065
772.2228, 58.33351
772.7049, 56.48009
773.1870, 54.38808
773.6691, 51.94632
774.1512, 49.52184
774.6334, 47.28333
775.1155, 45.10821
775.5976, 42.88789
776.0797, 40.75126
776.5618, 38.23577
777.0439, 35.09601
777.5261, 31.92149
778.0082, 29.52471
778.4903, 27.82289
778.9724, 26.06216
779.4545, 24.06754
779.9366, 22.06056
780.4188, 20.32248
780.9009, 18.75813
781.3830, 17.24230
781.8651, 15.83704
782.3472, 14.26652
782.8293, 12.16528
783.3115, 9.990166
783.7936, 8.357315
784.2757, 7.468407
784.7578, 6.573181
785.2399, 5.583252
785.7220, 4.617439
786.2042, 3.834328
786.6863, 3.213783
787.1684, 2.739914
787.6505, 2.532066
788.1326, 2.295570
788.6147, 1.533379
789.0969, 0.5565110
789.5790, 0.1044390
790.0611, 0.2158510
790.5432, 0.2926640
791.0253, 0.3619610
791.5074, 1.377998
791.9896, 2.162216
792.4717, 2.659592
792.9538, 2.965279
793.4359, 3.026161
793.9180, 3.071411
794.4001, 3.656601
794.8823, 4.592247
795.3644, 5.020248
795.8465, 4.393990
796.3286, 3.719330
796.8107, 3.976166
797.2928, 4.724915
797.7750, 5.232635
798.2571, 5.247047
798.7392, 5.048225
799.2213, 4.441200
799.7034, 3.780281
800.1855, 3.772079
800.6677, 4.590012
801.1498, 4.970459
801.6319, 4.504326
802.1140, 3.812920
802.5961, 4.066093
803.0782, 4.965004
803.5604, 5.641006
804.0425, 5.771545
804.5246, 5.587898
805.0067, 4.909775
805.4888, 4.104744
805.9709, 3.766853
806.4531, 4.910561
806.9352, 5.317207
807.4173, 4.534378
807.8994, 3.101875
808.3815, 1.936661
808.8636, 1.038605
809.3458, 0.4155270
809.8279, 0.1528780
810.3100, 2.6253000E-02
810.7921, 0.5391160
811.2742, 1.249687
811.7563, 1.879456
812.2385, 2.437103
812.7206, 2.729774
813.2027, 2.240417
813.6848, 1.560570
814.1669, 1.732559
814.6490, 3.341942
815.1312, 4.611771
815.6133, 5.212456
816.0954, 5.580788
816.5775, 6.650360
817.0596, 8.288338
817.5417, 9.438255
818.0239, 9.678574
818.5060, 9.735001
818.9881, 10.30049
819.4702, 11.20688
819.9523, 12.19691
820.4344, 13.29854
820.9166, 14.33858
821.3987, 15.15388
821.8808, 15.98508
822.3629, 17.16884
822.8450, 18.89047
823.3271, 20.12465
823.8093, 20.54710
824.2914, 20.88710
824.7735, 22.48477
825.2556, 24.83508
825.7377, 26.51244
826.2198, 26.82921
826.7020, 27.19066
827.1841, 28.91216
827.6662, 31.01610
828.1483, 32.40550
828.6304, 32.39819
829.1125, 32.24878
829.5947, 31.80402
830.0768, 31.40718
830.5589, 31.53841
831.0410, 32.18294
831.5231, 32.73651
832.0052, 33.12068
832.4874, 33.36638
832.9695, 33.44516
833.4516, 33.41644
833.9337, 33.40823
834.4158, 33.54906
834.8979, 33.38638
835.3801, 32.40050
835.8622, 31.28290
836.3443, 30.64841
836.8264, 30.71419
837.3085, 30.62015
837.7906, 30.31870
838.2728, 29.95572
838.7549, 29.47754
839.2370, 29.05269
839.7191, 29.39577
840.2012, 30.63593
840.6833, 31.81674
841.1655, 32.00261
841.6476, 31.97426
842.1297, 32.40471
842.6118, 33.39412
843.0939, 34.87697
843.5760, 37.18800
844.0582, 39.49933
844.5403, 41.26530
845.0224, 42.49164
845.5045, 43.64516
845.9866, 44.71985
846.4688, 45.99391
846.9509, 47.69461
847.4330, 49.73431
847.9151, 51.97691
848.3972, 54.41687
848.8793, 57.33522
849.3615, 61.44023
849.8436, 65.51932
850.3257, 68.72766
850.8078, 71.06233
851.2899, 74.71530
851.7720, 79.95996
852.2542, 85.43231
852.7363, 90.27402
853.2184, 94.73340
853.7005, 99.26973
854.1826, 103.9968
854.6647, 109.5655
855.1469, 116.8989
855.6290, 124.6223
856.1111, 131.8768
856.5932, 138.7096
857.0753, 146.0063
857.5574, 154.1040
858.0396, 162.1836
858.5217, 169.7348
859.0038, 177.0976
859.4859, 185.3120
859.9680, 194.3278
860.4501, 203.7410
860.9323, 213.8524
861.4144, 223.8481
861.8965, 232.6281
862.3786, 240.7840
862.8607, 249.9645
863.3428, 261.9428
863.8250, 273.3008
864.3071, 282.8488
864.7892, 291.4454
865.2713, 300.4434
865.7534, 309.9952
866.2355, 319.6327
866.7177, 329.5604
867.1998, 338.9648
867.6819, 346.8218
868.1640, 353.4003
868.6461, 359.4000
869.1282, 364.7101
869.6104, 370.1602
870.0925, 376.4534
870.5746, 382.9306
871.0567, 388.6960
871.5388, 393.0939
872.0209, 398.7655
872.5031, 406.0020
872.9852, 414.1128
873.4673, 422.3277
873.9494, 430.8287
874.4315, 440.1656
874.9136, 450.4301
875.3958, 461.7328
875.8779, 474.7755
876.3600, 488.7480
876.8421, 503.0457
877.3242, 517.6559
877.8063, 532.4609
878.2885, 547.2961
878.7706, 562.5605
879.2527, 578.7797
879.7348, 595.6147
880.2169, 611.5037
880.6990, 626.4246
881.1812, 640.4985
881.6633, 653.8849
882.1454, 666.3990
882.6275, 677.6771
883.1096, 687.6761
883.5917, 697.5656
884.0739, 707.6276
884.5560, 717.5963
885.0381, 727.8155
885.5202, 737.9171
886.0023, 745.2946
886.4844, 750.0267
886.9666, 754.3254
887.4487, 759.5449
887.9308, 764.5571
888.4129, 768.9299
888.8950, 772.0024
889.3771, 771.9975
889.8593, 767.4568
890.3414, 760.6867
890.8235, 752.2455
891.3056, 742.0856
891.7877, 730.4116
892.2698, 717.3024
892.7520, 701.3397
893.2341, 682.0186
893.7162, 660.7801
894.1983, 639.0073
894.6804, 617.0711
895.1625, 594.7456
895.6447, 571.4532
896.1268, 548.9357
896.6089, 526.9317
897.0910, 506.4366
897.5731, 488.0219
898.0552, 471.6537
898.5374, 457.2157
899.0195, 444.5651
899.5016, 433.5800
899.9837, 423.4589
900.4658, 414.9668
900.9479, 409.9004
901.4301, 408.4724
901.9122, 408.2628
902.3943, 407.9056
902.8764, 408.3673
903.3585, 410.3878
903.8406, 413.9209
904.3228, 418.2288
904.8049, 423.2166
905.2870, 429.2273
905.7691, 436.7844
906.2512, 445.3972
906.7333, 453.9132
907.2155, 462.5131
907.6976, 471.6743
908.1797, 482.1824
908.6618, 492.8137
909.1439, 502.9986
909.6260, 512.6487
910.1082, 521.9758
910.5903, 531.1614
911.0724, 539.4801
911.5545, 546.5459
912.0366, 552.9485
912.5187, 560.3258
913.0009, 568.0549
913.4830, 573.7788
913.9651, 576.7949
914.4472, 578.1158
914.9293, 578.4329
915.4114, 577.4306
915.8936, 574.6740
916.3757, 569.9305
916.8578, 563.9126
917.3399, 556.7037
917.8220, 548.1719
918.3041, 538.5064
918.7863, 527.4602
919.2684, 513.5512
919.7505, 496.7128
920.2326, 479.1963
920.7147, 463.2625
921.1968, 446.7528
921.6790, 427.3774
922.1611, 405.0042
922.6432, 383.4320
923.1253, 362.7263
923.6074, 342.9063
924.0895, 324.0072
924.5717, 305.8507
925.0538, 288.8251
925.5359, 272.6501
926.0180, 256.6244
926.5001, 239.8188
926.9822, 223.6210
927.4644, 208.8449
927.9465, 195.1394
928.4286, 181.9534
928.9107, 169.2212
929.3928, 156.9463
929.8749, 144.9791
930.3571, 133.6957
930.8392, 123.6917
931.3213, 114.6935
931.8034, 105.6976
932.2855, 96.44772
932.7676, 87.54166
933.2498, 79.33124
933.7319, 71.63852
934.2140, 64.13089
934.6961, 56.52077
935.1782, 50.05795
935.6603, 45.02341
936.1425, 40.40097
936.6246, 35.20389
937.1067, 29.74982
937.5888, 25.64346
938.0709, 22.73872
938.5530, 19.87270
939.0352, 15.96667
939.5173, 12.01279
939.9994, 8.597122
940.4815, 5.764557
940.9636, 3.611877
941.4457, 2.303421
941.9279, 1.150665
942.4100, 2.1438999E-02
942.8921, 1.061707
943.3742, 2.143127
943.8563, 3.124634
944.3384, 3.853363
944.8206, 4.307297
945.3027, 4.630157
945.7848, 5.059891
946.2669, 5.208282
946.7490, 4.594330
947.2311, 2.776016
947.7133, 1.494156
948.1954, 0.8976750
948.6775, 0.5086820
949.1596, 3.7888002E-02
949.6417, 0.5340580
950.1238, 1.479874
950.6060, 2.832077
951.0881, 4.106644
951.5702, 4.799667
952.0523, 5.510422
952.5344, 6.695160
953.0165, 8.235596
953.4987, 9.410324
953.9808, 10.18167
954.4629, 10.90141
954.9450, 11.72293
955.4271, 12.51427
955.9092, 12.92732
956.3914, 13.12451
956.8735, 13.51826
957.3556, 14.66080
957.8376, 15.42090
958.3198, 15.02449
958.8019, 14.26451
959.2840, 14.05444
959.7661, 14.56401
960.2482, 14.66963
960.7303, 14.29451
961.2125, 13.57188
961.6946, 12.26562
962.1767, 10.86317
962.6588, 10.10970
963.1409, 10.07889
963.6230, 10.10197
964.1052, 10.17851
964.5873, 9.983765
965.0694, 9.139923
965.5515, 7.892822
966.0336, 7.860016
966.5157, 9.038452
966.9979, 10.31590
967.4800, 11.07874
967.9621, 11.90868
968.4442, 13.53670
968.9263, 15.69896
969.4084, 17.89882
969.8906, 19.51933
970.3727, 21.90524
970.8548, 25.45763
971.3369, 29.41441
971.8190, 33.06451
972.3011, 36.38524
972.7833, 39.19852
973.2654, 41.43695
973.7475, 44.07401
974.2296, 48.19814
974.7117, 52.81607
975.1938, 57.14398
975.6760, 61.06764
976.1581, 65.18808
976.6402, 69.68282
977.1223, 73.98494
977.6044, 77.66866
978.0865, 81.13231
978.5687, 85.67435
979.0508, 90.92163
979.5329, 95.57124
980.0150, 99.18604
980.4971, 101.8515
980.9792, 103.3806
981.4614, 104.0423
981.9435, 104.3015
982.4256, 104.3745
982.9077, 103.4350
983.3898, 101.4003
983.8719, 98.51013
984.3541, 94.96030
984.8362, 90.74828
985.3183, 85.67274
985.8004, 79.69368
986.2825, 73.49240
986.7646, 67.02562
987.2468, 60.74290
987.7289, 54.73749
988.2110, 49.02924
988.6931, 43.98746
989.1752, 39.61011
989.6573, 35.25594
990.1395, 30.45911
990.6216, 25.96049
991.1037, 22.96630
991.5858, 20.72373
992.0679, 17.96441
992.5500, 13.49428
993.0322, 10.00720
993.5143, 7.991676
993.9964, 6.540733
994.4785, 4.886971
994.9606, 3.061150
995.4427, 1.270966
995.9249, 0.4449920
996.4070, 1.773758
996.8891, 2.006897
997.3712, 2.157005
997.8533, 3.097969
998.3354, 4.723434
998.8176, 5.889076
999.2997, 6.462402
999.7818, 6.875031
1000.264, 7.171806
1000.746, 7.472649
1001.228, 8.173523
1001.710, 9.014801
1002.192, 9.273483
1002.674, 8.484779
1003.157, 7.778885
1003.639, 7.789040
1004.121, 7.970413
1004.603, 7.924980
1005.085, 7.651566
1005.567, 7.010323
1006.049, 6.007393
1006.531, 4.654282
1007.014, 2.589684
1007.496, 0.4259340
1007.978, 0.9900670
1008.460, 1.860359
1008.942, 3.053284
1009.424, 4.584091
1009.906, 6.841896
1010.388, 10.15921
1010.870, 13.96868
1011.353, 17.27103
1011.835, 20.16528
1012.317, 22.84736
1012.799, 25.23591
1013.281, 28.14780
1013.763, 32.79424
1014.245, 37.79086
1014.727, 41.79335
1015.210, 44.68159
1015.692, 47.79156
1016.174, 51.08914
1016.656, 54.75089
1017.138, 58.89624
1017.620, 63.44632
1018.102, 68.54012
1018.584, 73.83158
1019.066, 78.49388
1019.549, 81.40878
1020.031, 84.67126
1020.513, 89.34859
1020.995, 94.14587
1021.477, 97.63377
1021.959, 99.80987
1022.441, 101.1878
1022.923, 101.8009
1023.406, 101.8351
1023.888, 101.4796
1024.370, 100.5913
1024.852, 98.99033
1025.334, 96.67219
1025.816, 93.92236
1026.298, 90.78353
1026.780, 87.26860
1027.262, 83.21198
1027.745, 79.01962
1028.227, 75.52891
1028.709, 72.62956
1029.191, 69.88663
1029.673, 67.12766
1030.155, 64.71659
1030.637, 62.95694
1031.119, 61.52800
1031.602, 60.05995
1032.084, 58.47516
1032.566, 57.62381
1033.048, 57.52397
1033.530, 57.97944
1034.012, 59.20212
1034.494, 60.64801
1034.976, 61.86287
1035.458, 62.82490
1035.941, 63.47419
1036.423, 63.42248
1036.905, 63.66998
1037.387, 64.33405
1037.869, 65.34380
1038.351, 66.76300
1038.833, 68.44315
1039.315, 69.90000
1039.797, 71.08244
1040.280, 71.90127
1040.762, 71.90944
1041.244, 71.89806
1041.726, 72.37443
1042.208, 73.27834
1042.690, 74.25751
1043.172, 75.34679
1043.654, 75.99406
1044.137, 75.91628
1044.619, 75.42086
1045.101, 74.66290
1045.583, 73.80604
1046.065, 73.11219
1046.547, 72.76052
1047.029, 72.36975
1047.511, 72.03586
1047.994, 71.46458
1048.476, 70.29630
1048.958, 68.69370
1049.440, 67.25423
1049.922, 65.99191
1050.404, 64.85802
1050.886, 63.99526
1051.368, 63.09408
1051.850, 61.97008
1052.333, 60.71735
1052.815, 59.35696
1053.297, 57.79262
1053.779, 56.70580
1054.261, 56.30945
1054.743, 55.98990
1055.225, 54.76463
1055.707, 53.36900
1056.189, 52.80679
1056.672, 53.32018
1057.154, 53.11039
1057.636, 51.71983
1058.118, 50.35622
1058.600, 49.49873
1059.082, 48.92530
1059.564, 48.14396
1060.046, 47.26772
1060.529, 46.57064
1061.011, 46.07701
1061.493, 45.80711
1061.975, 46.14701
1062.457, 46.42617
1062.939, 46.17439
1063.421, 45.41742
1063.903, 43.75606
1064.385, 41.19616
1064.868, 39.25986
1065.350, 39.32508
1065.832, 40.06400
1066.314, 40.38217
1066.796, 40.44194
1067.278, 40.84900
1067.760, 41.88361
1068.242, 42.61092
1068.724, 42.71252
1069.207, 42.89047
1069.689, 44.13007
1070.171, 46.05631
1070.653, 47.80312
1071.135, 49.24649
1071.617, 51.47490
1072.099, 55.40414
1072.581, 59.65177
1073.064, 63.75204
1073.546, 67.81412
1074.028, 72.19667
1074.510, 76.90831
1074.992, 82.61250
1075.474, 89.77269
1075.956, 96.72681
1076.438, 101.3175
1076.921, 105.8017
1077.403, 112.5604
1077.885, 122.0891
1078.367, 130.4424
1078.849, 137.4781
1079.331, 144.8132
1079.813, 153.8923
1080.295, 163.1919
1080.777, 170.5776
1081.260, 176.8147
1081.742, 183.5322
1082.224, 191.7095
1082.706, 199.8136
1083.188, 207.8388
1083.670, 215.6209
1084.152, 222.9724
1084.634, 230.0304
1085.116, 237.5641
1085.599, 245.3750
1086.081, 252.2246
1086.563, 257.7925
1087.045, 261.9434
1087.527, 264.5916
1088.009, 265.9446
1088.491, 266.6698
1088.973, 266.6923
1089.455, 264.5418
1089.938, 259.9153
1090.420, 253.3645
1090.902, 244.6940
1091.384, 234.7962
1091.866, 224.4738
1092.348, 213.7036
1092.830, 201.4162
1093.312, 187.2977
1093.795, 172.9837
1094.277, 159.0931
1094.759, 145.3944
1095.241, 130.8847
1095.723, 116.5485
1096.205, 103.9847
1096.687, 94.16000
1097.169, 85.20646
1097.651, 77.07329
1098.134, 69.71056
1098.616, 63.16998
1099.098, 57.33460
1099.580, 51.86299
1100.062, 46.82516
1100.544, 42.10258
1101.026, 37.22450
1101.508, 33.23332
1101.990, 30.78455
1102.473, 29.08298
1102.955, 27.33516
1103.437, 25.57126
1103.919, 24.19524
1104.401, 23.23901
1104.883, 22.13454
1105.365, 20.18488
1105.847, 18.20074
1106.330, 16.81491
1106.812, 15.90562
1107.294, 14.60110
1107.776, 12.66023
1108.258, 11.65318
1108.740, 12.06414
1109.222, 12.68703
1109.704, 12.18679
1110.187, 11.15318
1110.669, 10.21605
1111.151, 9.465965
1111.633, 8.701782
1112.115, 7.857689
1112.597, 7.147034
1113.079, 6.677666
1113.561, 6.327972
1114.043, 5.796051
1114.526, 5.197166
1115.008, 4.820808
1115.490, 4.874657
1115.972, 4.691307
1116.454, 3.808060
1116.936, 3.093132
1117.418, 3.133957
1117.900, 3.739731
1118.382, 3.972351
1118.865, 3.894112
1119.347, 3.776920
1119.829, 3.948860
1120.311, 3.846542
1120.793, 2.828499
1121.275, 1.704895
1121.757, 1.347622
1122.239, 1.799038
1122.722, 1.952663
1123.204, 1.792549
1123.686, 1.778442
1124.168, 2.572601
1124.650, 3.298428
1125.132, 3.300140
1125.614, 2.727818
1126.096, 2.045387
1126.578, 1.192711
1127.061, 0.5029410
1127.543, 2.0200000E-04
1128.025, 0.2665440
1128.507, 7.3279999E-02
1128.989, 0.2607770
1129.471, 0.3449330
1129.953, 0.1897850
1130.435, 0.2188450
1130.917, 0.6561390
1131.400, 0.7105980
1131.882, 6.7065999E-02
1132.364, 0.6759190
1132.846, 0.5081210
1133.328, 0.1268310
1133.810, 0.4923130
1134.292, 0.4586910
1134.774, 0.3231050
1135.257, 0.1323620
1135.739, 0.1321600
1136.221, 0.5686260
1136.703, 0.9931410
1137.185, 0.8947300
1137.667, 0.4137460
1138.149, 8.2451001E-02
1138.631, 0.5708810
1139.114, 0.8202170
1139.596, 0.5543860
1140.078, 0.1989520
1140.560, 1.9378999E-02
1141.042, 0.1244960
1141.524, 0.4079400
1142.006, 0.7930760
1142.488, 0.8317150
1142.970, 3.9112002E-02
1143.453, 0.7488520
1143.935, 0.5650140
1144.417, 7.3406003E-02
1144.899, 0.1569060
1145.381, 0.1058310
1145.863, 4.3010999E-02
1146.345, 2.9205000E-02
1146.827, 3.7380001E-03
1147.309, 0.2327540
1147.792, 0.5467720
1148.274, 0.9448890
1148.756, 1.305347
1149.238, 1.430859
1149.720, 1.301094
1150.202, 0.9736290
1150.684, 0.4294010
1151.166, 4.9065001E-02
1151.649, 0.1149830
1152.131, 8.3411999E-02
1152.613, 0.3190190
1153.095, 0.7229610
1153.577, 0.8644560
1154.059, 0.6726000
1154.541, 0.3702240
1155.023, 5.5491999E-02
1155.505, 0.3873020
1155.988, 0.2469750
1156.470, 5.9029002E-02
1156.952, 0.1597100
1157.434, 3.2570001E-02
1157.916, 0.1871110
1158.398, 0.6270750
1158.880, 0.7836070
1159.362, 0.4871030
1159.844, 1.0780000E-02
1160.327, 0.4720040
1160.809, 0.8221280
1161.291, 0.8936460
1161.773, 0.6312220
1162.255, 0.4964520
1162.737, 0.8180010
1163.219, 0.7976680
1163.701, 1.7250000E-02
1164.184, 1.065907
1164.666, 1.137508
1165.148, 0.5324020
1165.630, 0.1140370
1166.112, 0.7154310
1166.594, 1.073032
1167.076, 0.8739740
1167.558, 0.8030400
1168.041, 1.244576
1168.523, 1.991440
1169.005, 2.515915
1169.487, 2.780209
1169.969, 2.606468
1170.451, 1.573849
1170.933, 0.9608760
1171.415, 1.554482
1171.897, 2.342785
1172.380, 2.755955
1172.862, 2.860500
1173.344, 3.096470
1173.826, 3.399136
1174.308, 3.473400
1174.790, 3.107239
1175.272, 2.604897
1175.754, 1.696514
1176.236, 1.034004
1176.719, 1.309231
1177.201, 2.468426
1177.683, 3.095535
1178.165, 3.240490
1178.647, 3.328896
1179.129, 3.591434
1179.611, 3.861141
1180.093, 3.968494
1180.576, 4.112564
1181.058, 4.692715
1181.540, 5.709526
1182.022, 5.768238
1182.504, 4.792542
1182.986, 3.921535
1183.468, 3.870621
1183.950, 4.164528
1184.432, 4.838634
1184.915, 5.525181
1185.397, 5.626289
1185.879, 5.119156
1186.361, 4.535088
1186.843, 3.903385
1187.325, 3.525742
1187.807, 3.805145
1188.289, 4.245781
1188.771, 4.511189
1189.254, 4.683361
1189.736, 5.033215
1190.218, 5.555855
1190.700, 5.665886
1191.182, 5.282280
1191.664, 4.816998
1192.146, 4.544224
1192.628, 4.391541
1193.111, 4.320847
1193.593, 4.324642
1194.075, 4.418911
1194.557, 4.622822
1195.039, 4.726524
1195.521, 4.684978
1196.003, 4.727234
1196.485, 5.353157
1196.968, 5.874630
1197.450, 5.544109
1197.932, 4.527100
1198.414, 3.827698
1198.896, 3.439926
1199.378, 3.419991
1199.860, 3.875404
1200.342, 4.269798
1200.824, 3.911263
1201.307, 3.427864
1201.789, 3.442055
1202.271, 3.941418
1202.753, 4.560055
1203.235, 5.362591
1203.717, 5.613995
1204.199, 4.941360
1204.681, 4.203289
1205.163, 4.241276
1205.646, 4.608620
1206.128, 4.932465
1206.610, 5.185295
1207.092, 5.194260
1207.574, 4.960102
1208.056, 4.708210
1208.538, 4.512264
1209.020, 4.377251
1209.503, 4.416195
1209.985, 4.414974
1210.467, 4.038433
1210.949, 3.276306
1211.431, 2.963200
1211.913, 3.117626
1212.395, 3.329094
1212.877, 3.439327
1213.359, 3.506489
1213.842, 3.744133
1214.324, 3.938332
1214.806, 3.710388
1215.288, 3.005764
1215.770, 2.917320
1216.252, 3.461655
1216.734, 3.663929
1217.216, 2.770576
1217.698, 1.977203
1218.181, 2.697552
1218.663, 2.173542
1219.145, 2.243599
1219.627, 2.681194
1220.109, 2.533142
1220.591, 3.472080
1221.073, 4.207134
1221.555, 3.870522
1222.038, 3.318710
1222.520, 3.516171
1223.002, 3.884426
1223.484, 3.525749
1223.966, 3.675190
1224.448, 3.868587
1224.930, 3.165981
1225.412, 3.892170
1225.895, 3.124584
1226.377, 2.285709
1226.859, 2.662731
1227.341, 1.982742
1227.823, 3.107548
1228.305, 1.799282
1228.787, 1.429150
1229.269, 1.964703
1229.751, 2.530849
1230.234, 2.674316
1230.716, 2.654022
1231.198, 2.497643
1231.680, 2.348236
1232.162, 2.433075
1232.644, 2.776970
1233.126, 2.647644
1233.608, 2.083790
1234.090, 1.588894
1234.573, 1.416096
1235.055, 1.453472
1235.537, 1.833900
1236.019, 2.255581
1236.501, 2.396790
1236.983, 2.272072
1237.465, 2.319828
1237.947, 2.487320
1238.430, 2.241726
1238.912, 0.3979340
1239.394, 0.8315350
1239.876, 0.1611480
1240.358, 1.633797
1240.840, 1.845882
1241.322, 0.9943620
1241.804, 0.7502780
1242.286, 1.060684
1242.769, 1.316113
1243.251, 0.9331020
1243.733, 0.8239970
1244.215, 1.433075
1244.697, 2.169521
1245.179, 2.566395
1245.661, 2.633087
1246.143, 2.270851
1246.625, 1.558033
1247.108, 0.9283980
1247.590, 0.6157530
1248.072, 0.3361020
1248.554, 9.4990004E-03
1249.036, 0.2110370
1249.518, 8.4461004E-02
1250.000, 0.2866440
1250.482, 0.7149850
1250.965, 1.123966
1251.447, 1.251381
1251.929, 0.5951810
1252.411, 0.2498210
1252.893, 0.3533100
1253.375, 0.7389640
1253.857, 1.571934
1254.339, 2.406818
1254.822, 2.018295
1255.304, 0.8120420
1255.786, 0.3027610
1256.268, 1.319164
1256.750, 2.430271
1257.232, 3.723831
1257.714, 4.523262
1258.196, 3.898701
1258.678, 2.608532
1259.161, 1.531666
1259.643, 0.7012290
1260.125, 0.1181760
1260.607, 0.3109590
1261.089, 0.2151150
1261.571, 0.5108030
1262.053, 1.235096
1262.535, 1.466766
1263.017, 1.418201
1263.500, 1.076492
1263.982, 0.6650280
1264.464, 0.7772450
1264.946, 1.636173
1265.428, 1.901516
1265.910, 1.476402
1266.392, 1.025188
1266.874, 1.039722
1267.357, 1.238091
1267.839, 1.503582
1268.321, 1.794411
1268.803, 2.070442
1269.285, 2.338970
1269.767, 2.462166
1270.249, 2.424805
1270.731, 2.212929
1271.214, 1.516026
1271.696, 0.9788630
1272.178, 1.021305
1272.660, 1.287071
1273.142, 1.823009
1273.624, 2.497791
1274.106, 2.551395
1274.588, 2.047112
1275.070, 1.579189
1275.552, 1.351913
1276.035, 1.409733
1276.517, 1.958332
1276.999, 2.476418
1277.481, 2.306648
1277.963, 1.715042
1278.445, 1.566502
1278.927, 1.769779
1279.409, 1.889355
1279.892, 1.678349
1280.374, 1.542686
1280.856, 1.449905
1281.338, 1.530033
1281.820, 2.014572
1282.302, 2.613430
1282.784, 2.651848
1283.266, 2.290607
1283.749, 2.194469
1284.231, 2.986858
1284.713, 3.018841
1285.195, 2.100235
1285.677, 1.059242
1286.159, 0.2297590
1286.641, 0.2171170
1287.123, 0.1754040
1287.605, 1.009163
1288.088, 1.511192
1288.570, 1.570137
1289.052, 1.518055
1289.534, 1.387959
1290.016, 1.290085
1290.498, 1.323997
1290.980, 1.383060
1291.462, 1.303265
1291.944, 1.290489
1292.427, 1.759480
1292.909, 2.781963
1293.391, 2.439163
1293.873, 0.9224850
1294.355, 2.4700001E-02
1294.837, 1.190800
1295.319, 2.246445
1295.801, 1.798065
1296.284, 0.9813460
1296.766, 0.9114420
1297.248, 1.395805
1297.730, 1.409565
1298.212, 1.088093
1298.694, 0.9421310
1299.176, 1.420410
1299.658, 1.575523
1300.141, 1.014004
1300.623, 0.4722440
1301.105, 7.4305996E-02
1301.587, 0.1107100
1302.069, 0.1632310
1302.551, 0.7229230
1303.033, 1.262367
1303.515, 1.107819
1303.997, 0.9959750
1304.479, 2.500774
1304.962, 2.398598
1305.444, 0.0000000E+00
##END=



