##NAMES=Epidote
##RRUFFID=R110129
##IDEAL CHEMISTRY=Ca_2_Fe^3+^Al_2_(Si_2_O_7_)(SiO_4_)O(OH)
##LOCALITY=Quetta, Baluchistan, Pakistan
##OWNER=RRUFF
##SOURCE=Jack Lowell 
##DESCRIPTION=Dark green prismatic crystal
##STATUS=The identification of this mineral has been confirmed by single-crystal X-ray diffraction.
##URL=rruff.info/R110129
160.8812, 0.0000000E+00
161.3633, 0.2359370
161.8455, 0.5092320
162.3276, 0.6518060
162.8097, 0.3950790
163.2918, 0.1250670
163.7739, 0.1148030
164.2560, 8.4118001E-02
164.7382, 0.5530320
165.2203, 1.615376
165.7024, 2.428154
166.1845, 2.428265
166.6666, 2.145037
167.1487, 2.044714
167.6309, 2.371159
168.1130, 2.801102
168.5951, 3.131363
169.0772, 3.380997
169.5593, 3.650215
170.0414, 4.146246
170.5236, 4.653698
171.0057, 4.934628
171.4878, 4.693562
171.9699, 4.244064
172.4520, 4.073627
172.9341, 4.172157
173.4163, 4.337086
173.8984, 4.539547
174.3805, 4.699642
174.8626, 4.673107
175.3447, 4.261662
175.8268, 3.720196
176.3090, 3.339138
176.7911, 3.120163
177.2732, 2.931664
177.7553, 2.373966
178.2374, 1.577732
178.7195, 1.024883
179.2017, 1.247036
179.6838, 1.712872
180.1659, 1.470715
180.6480, 0.4726980
181.1301, 0.5427320
181.6122, 0.8380780
182.0944, 0.5544660
182.5765, 0.1499250
183.0586, 0.2313580
183.5407, 0.5897940
184.0228, 0.9196360
184.5049, 1.202301
184.9871, 1.536530
185.4692, 2.035557
185.9513, 2.688679
186.4334, 3.407364
186.9155, 4.345840
187.3976, 5.345341
187.8798, 5.804596
188.3619, 5.622364
188.8440, 5.221077
189.3261, 5.189415
189.8082, 5.501568
190.2903, 5.829746
190.7725, 5.976833
191.2546, 5.987076
191.7367, 6.121555
192.2188, 6.435333
192.7009, 6.769714
193.1830, 6.718109
193.6652, 6.275089
194.1473, 6.076935
194.6294, 6.597672
195.1115, 7.773556
195.5936, 8.772518
196.0757, 9.481819
196.5579, 10.10868
197.0400, 11.11848
197.5221, 12.55080
198.0042, 13.93414
198.4863, 14.99915
198.9684, 15.73800
199.4506, 16.48535
199.9327, 17.29173
200.4148, 18.07191
200.8969, 18.61795
201.3790, 18.91753
201.8611, 19.09413
202.3433, 19.31568
202.8254, 19.62982
203.3075, 19.40153
203.7896, 18.46575
204.2717, 17.07231
204.7538, 15.87664
205.2360, 15.01537
205.7181, 14.13446
206.2002, 13.03574
206.6823, 11.73444
207.1644, 10.53648
207.6465, 9.415810
208.1287, 8.441051
208.6108, 7.815933
209.0929, 7.593807
209.5750, 7.567532
210.0571, 7.685421
210.5392, 8.030930
211.0214, 8.105396
211.5035, 7.744839
211.9856, 7.125313
212.4677, 6.878082
212.9498, 7.118095
213.4319, 7.474346
213.9140, 7.699360
214.3962, 7.707565
214.8783, 7.912369
215.3604, 8.419254
215.8425, 9.139221
216.3246, 9.667999
216.8067, 9.914806
217.2889, 10.15513
217.7710, 10.52233
218.2531, 10.95707
218.7352, 11.64934
219.2173, 12.88854
219.6994, 14.50427
220.1816, 15.57267
220.6637, 15.82868
221.1458, 16.02948
221.6279, 16.70834
222.1100, 18.20602
222.5921, 19.30614
223.0743, 19.76025
223.5564, 19.73331
224.0385, 20.05261
224.5206, 20.88003
225.0027, 21.78255
225.4848, 22.52352
225.9670, 23.13114
226.4491, 23.49149
226.9312, 23.55291
227.4133, 23.36018
227.8954, 23.11317
228.3775, 22.77751
228.8597, 22.44343
229.3418, 22.25878
229.8239, 22.60513
230.3060, 22.17498
230.7881, 20.54922
231.2702, 18.02854
231.7524, 16.12401
232.2345, 15.10589
232.7166, 14.34324
233.1987, 13.47852
233.6808, 12.39302
234.1629, 11.45811
234.6451, 10.64321
235.1272, 9.987606
235.6093, 9.674152
236.0914, 9.855682
236.5735, 10.16836
237.0556, 10.38757
237.5378, 10.34663
238.0199, 10.60946
238.5020, 11.43139
238.9841, 12.58398
239.4662, 13.08874
239.9483, 12.58127
240.4305, 11.95607
240.9126, 11.69508
241.3947, 12.01574
241.8768, 12.24223
242.3589, 12.45959
242.8410, 12.56021
243.3232, 12.11117
243.8053, 10.84783
244.2874, 9.396500
244.7695, 8.083332
245.2516, 6.987640
245.7337, 5.822407
246.2159, 4.521931
246.6980, 3.146332
247.1801, 1.918106
247.6622, 0.8641850
248.1443, 0.1036490
248.6264, 1.079327
249.1086, 2.337551
249.5907, 2.933456
250.0728, 2.622604
250.5549, 1.706238
251.0370, 0.9868620
251.5191, 0.5722540
252.0013, 0.1800800
252.4834, 0.2938040
252.9655, 0.7857780
253.4476, 1.527740
253.9297, 2.615166
254.4118, 3.908649
254.8940, 5.063484
255.3761, 5.810551
255.8582, 6.902756
256.3403, 8.744717
256.8224, 11.65178
257.3046, 14.24793
257.7867, 16.48495
258.2688, 18.41712
258.7509, 20.09456
259.2330, 21.38242
259.7151, 22.64933
260.1973, 23.99276
260.6794, 25.32717
261.1615, 27.00983
261.6436, 29.06101
262.1257, 31.42039
262.6078, 34.08203
263.0900, 37.26041
263.5721, 40.16792
264.0542, 42.35218
264.5363, 43.64372
265.0184, 45.57313
265.5005, 48.32349
265.9827, 51.53077
266.4648, 54.73467
266.9469, 57.87080
267.4290, 61.11856
267.9111, 64.46791
268.3932, 67.87155
268.8754, 72.07492
269.3575, 77.40279
269.8396, 83.01608
270.3217, 87.66758
270.8038, 91.05453
271.2859, 94.60732
271.7681, 98.81127
272.2502, 103.6103
272.7323, 108.0408
273.2144, 112.1814
273.6965, 115.6342
274.1786, 118.0674
274.6608, 119.5755
275.1429, 119.6619
275.6250, 118.1925
276.1071, 115.2160
276.5892, 110.7061
277.0714, 104.4546
277.5535, 97.46770
278.0356, 90.54310
278.5177, 83.67467
278.9998, 77.08209
279.4819, 70.72272
279.9641, 64.66084
280.4462, 59.44942
280.9283, 55.11725
281.4104, 51.47097
281.8925, 48.32292
282.3746, 45.65910
282.8568, 43.46640
283.3389, 41.76813
283.8210, 40.51244
284.3031, 39.57598
284.7852, 38.99550
285.2673, 38.64018
285.7495, 38.42870
286.2316, 38.34379
286.7137, 38.32259
287.1958, 38.31498
287.6779, 38.39150
288.1600, 38.71490
288.6422, 39.30226
289.1243, 40.04916
289.6064, 40.92187
290.0885, 41.90237
290.5706, 42.83310
291.0527, 43.65120
291.5349, 44.52946
292.0170, 45.71614
292.4991, 47.19757
292.9812, 48.95629
293.4633, 51.01450
293.9454, 53.33360
294.4276, 55.85538
294.9097, 58.60757
295.3918, 61.31950
295.8739, 63.86634
296.3560, 66.13947
296.8381, 67.73663
297.3203, 68.14252
297.8024, 67.78342
298.2845, 67.67109
298.7666, 67.88521
299.2487, 67.70679
299.7308, 66.26630
300.2130, 63.81514
300.6951, 61.09830
301.1772, 58.18428
301.6593, 55.29657
302.1414, 52.67266
302.6235, 50.33569
303.1057, 48.29732
303.5878, 46.76886
304.0699, 45.54470
304.5520, 44.25120
305.0341, 42.45515
305.5162, 40.82750
305.9984, 40.13871
306.4805, 40.29997
306.9626, 40.72169
307.4447, 41.18921
307.9268, 41.67403
308.4089, 42.08639
308.8911, 42.26525
309.3732, 42.54218
309.8553, 43.27973
310.3374, 44.36068
310.8195, 45.41226
311.3016, 46.36723
311.7838, 47.11203
312.2659, 47.49858
312.7480, 47.35535
313.2301, 47.18652
313.7122, 47.75362
314.1943, 48.52148
314.6765, 48.34903
315.1586, 46.12688
315.6407, 43.23462
316.1228, 40.40751
316.6049, 37.71192
317.0870, 35.26693
317.5692, 33.22528
318.0513, 31.46262
318.5334, 29.82289
319.0155, 28.34497
319.4976, 26.91608
319.9797, 25.44605
320.4619, 23.92101
320.9440, 22.61264
321.4261, 21.61797
321.9082, 20.85830
322.3903, 20.26336
322.8724, 20.02072
323.3546, 19.75341
323.8367, 19.30846
324.3188, 18.68404
324.8009, 18.17931
325.2830, 17.93276
325.7651, 17.77640
326.2473, 17.60337
326.7294, 17.61983
327.2115, 17.34899
327.6936, 16.63395
328.1757, 15.57828
328.6578, 14.59013
329.1400, 13.86550
329.6221, 13.05336
330.1042, 11.96787
330.5863, 10.20794
331.0684, 8.810192
331.5505, 8.009861
332.0327, 7.550751
332.5148, 6.861629
332.9969, 5.794380
333.4790, 4.661812
333.9611, 3.542770
334.4432, 2.417652
334.9254, 1.478802
335.4075, 0.7539370
335.8896, 0.1880570
336.3717, 0.2672080
336.8538, 0.5680050
337.3359, 0.9182700
337.8180, 1.436363
338.3001, 2.096684
338.7823, 2.384258
339.2644, 2.258938
339.7465, 1.948013
340.2286, 1.462318
340.7107, 0.6724240
341.1928, 0.2555160
341.6750, 0.4562760
342.1571, 1.092587
342.6392, 1.493019
343.1213, 1.667923
343.6034, 1.576698
344.0855, 1.086880
344.5677, 0.2205660
345.0498, 0.5532910
345.5319, 1.156555
346.0140, 1.673199
346.4961, 2.285889
346.9782, 2.986660
347.4604, 3.630676
347.9425, 4.019432
348.4246, 4.265358
348.9067, 4.859692
349.3888, 5.902721
349.8709, 6.924362
350.3531, 7.224510
350.8352, 6.979675
351.3173, 6.845551
351.7994, 7.265598
352.2815, 7.917942
352.7636, 8.208050
353.2458, 8.135666
353.7279, 8.077667
354.2100, 8.460720
354.6921, 9.059128
355.1742, 9.472328
355.6563, 9.468399
356.1385, 9.349033
356.6206, 9.347740
357.1027, 9.464760
357.5848, 9.699284
358.0669, 10.14238
358.5490, 10.65770
359.0312, 11.10770
359.5133, 11.43924
359.9954, 11.77358
360.4775, 12.21885
360.9596, 12.72092
361.4417, 13.15781
361.9239, 13.38795
362.4060, 13.61582
362.8881, 13.96064
363.3702, 14.45196
363.8523, 14.96896
364.3344, 15.64296
364.8166, 16.26332
365.2987, 16.59176
365.7808, 16.10438
366.2629, 15.77998
366.7450, 16.09657
367.2271, 17.04997
367.7093, 17.47412
368.1914, 16.95100
368.6735, 16.03492
369.1556, 15.07571
369.6377, 14.19232
370.1198, 13.15651
370.6020, 11.79726
371.0841, 10.25562
371.5662, 9.053677
372.0483, 8.430489
372.5304, 7.872662
373.0125, 7.172695
373.4947, 6.293228
373.9768, 5.385113
374.4589, 4.413250
374.9410, 3.430237
375.4231, 2.508167
375.9052, 1.593327
376.3874, 0.8798070
376.8695, 0.4993970
377.3516, 0.4365580
377.8337, 0.1766850
378.3158, 0.3530500
378.7979, 0.8865740
379.2801, 1.121841
379.7622, 1.045971
380.2443, 1.008297
380.7264, 1.106880
381.2085, 1.261505
381.6906, 1.239529
382.1728, 1.038902
382.6549, 0.8061520
383.1370, 0.6644330
383.6191, 0.5792160
384.1012, 0.3902320
384.5833, 4.6989001E-02
385.0655, 0.2891500
385.5476, 0.3729550
386.0297, 0.2576710
386.5118, 0.1324310
386.9939, 3.9558001E-02
387.4760, 1.0117000E-02
387.9582, 0.1579590
388.4403, 0.4884640
388.9224, 0.7307930
389.4045, 0.5403790
389.8866, 0.1560940
390.3687, 7.3008999E-02
390.8509, 0.1798290
391.3330, 0.3972400
391.8151, 0.1374360
392.2972, 0.4968410
392.7793, 1.089523
393.2614, 1.516937
393.7436, 1.787378
394.2257, 1.889025
394.7078, 1.734898
395.1899, 1.594799
395.6720, 1.728348
396.1541, 1.926868
396.6363, 1.819927
397.1184, 0.7949140
397.6005, 0.1192740
398.0826, 0.4648510
398.5647, 0.1370540
399.0468, 0.1117210
399.5290, 0.5963630
400.0111, 1.276264
400.4932, 1.933853
400.9753, 2.550823
401.4574, 3.208691
401.9395, 3.815731
402.4217, 4.484676
402.9038, 5.648293
403.3859, 7.470947
403.8680, 9.481113
404.3501, 11.46843
404.8322, 13.38234
405.3144, 15.36104
405.7965, 17.30269
406.2786, 19.40063
406.7607, 22.02611
407.2428, 25.27106
407.7249, 28.54953
408.2071, 31.59155
408.6892, 34.47415
409.1713, 37.66516
409.6534, 41.22619
410.1355, 44.81471
410.6176, 47.96859
411.0998, 50.81758
411.5819, 54.09562
412.0640, 58.07729
412.5461, 62.33577
413.0282, 66.19968
413.5103, 69.73325
413.9925, 73.39733
414.4746, 77.36968
414.9567, 81.71856
415.4388, 86.60661
415.9209, 92.14325
416.4030, 97.71888
416.8852, 102.6891
417.3673, 107.4392
417.8494, 112.6077
418.3315, 118.8403
418.8136, 125.2867
419.2957, 131.5003
419.7779, 137.4670
420.2600, 143.4989
420.7421, 150.0160
421.2242, 156.4590
421.7063, 162.3544
422.1884, 168.1413
422.6706, 172.6160
423.1527, 175.3828
423.6348, 176.6881
424.1169, 177.0304
424.5990, 176.9247
425.0811, 175.4491
425.5633, 172.1063
426.0454, 166.7059
426.5275, 160.8260
427.0096, 153.8393
427.4917, 146.7980
427.9738, 140.5237
428.4560, 135.1477
428.9381, 130.2623
429.4202, 125.7418
429.9023, 121.7576
430.3844, 118.6918
430.8665, 116.6081
431.3487, 115.3270
431.8308, 114.7458
432.3129, 114.8547
432.7950, 115.9263
433.2771, 118.1365
433.7592, 120.8524
434.2414, 123.2641
434.7235, 125.4147
435.2056, 127.8016
435.6877, 130.5366
436.1698, 133.5850
436.6519, 136.9071
437.1341, 140.5400
437.6162, 144.6836
438.0983, 149.8994
438.5804, 155.6488
439.0625, 160.9287
439.5446, 165.4413
440.0268, 169.9901
440.5089, 174.9351
440.9910, 180.4689
441.4731, 186.8934
441.9552, 195.2204
442.4373, 203.8743
442.9195, 211.7841
443.4016, 218.9243
443.8837, 226.3723
444.3658, 234.5822
444.8479, 243.3035
445.3300, 252.2549
445.8122, 261.6889
446.2943, 271.0750
446.7764, 280.6751
447.2585, 290.2041
447.7406, 298.9428
448.2227, 306.2600
448.7049, 313.4007
449.1870, 321.0104
449.6691, 329.3278
450.1512, 336.1785
450.6333, 341.2629
451.1154, 345.1503
451.5976, 348.3952
452.0797, 351.1286
452.5618, 352.8524
453.0439, 353.7188
453.5260, 353.3916
454.0081, 350.8089
454.4903, 345.8657
454.9724, 339.4545
455.4545, 332.1996
455.9366, 323.9305
456.4187, 312.9541
456.9008, 299.1383
457.3830, 283.4750
457.8651, 267.1982
458.3472, 250.1819
458.8293, 232.7426
459.3114, 214.2849
459.7935, 195.9538
460.2757, 178.6527
460.7578, 162.4568
461.2399, 147.3484
461.7220, 133.3976
462.2041, 120.4579
462.6862, 108.5546
463.1684, 97.71566
463.6505, 87.92441
464.1326, 79.51212
464.6147, 72.17848
465.0968, 65.40055
465.5789, 59.07891
466.0611, 53.44523
466.5432, 48.73254
467.0253, 44.88765
467.5074, 41.06997
467.9895, 36.82123
468.4716, 32.87199
468.9538, 29.61739
469.4359, 27.39381
469.9180, 25.19843
470.4001, 22.93410
470.8822, 20.74124
471.3643, 18.83418
471.8465, 17.28129
472.3286, 15.81266
472.8107, 14.36465
473.2928, 12.98089
473.7749, 11.70866
474.2570, 10.55390
474.7392, 9.542076
475.2213, 8.676014
475.7034, 7.963810
476.1855, 7.436115
476.6676, 7.089725
477.1497, 6.815365
477.6319, 6.634804
478.1140, 6.542694
478.5961, 6.413021
479.0782, 5.919476
479.5603, 5.442432
480.0424, 5.569279
480.5246, 6.237579
481.0067, 6.890759
481.4888, 7.059143
481.9709, 7.093937
482.4530, 7.343330
482.9352, 8.004074
483.4173, 8.542736
483.8994, 8.535133
484.3815, 8.340649
484.8636, 8.489307
485.3457, 9.560417
485.8279, 10.54153
486.3100, 11.05178
486.7921, 11.08941
487.2742, 11.44721
487.7563, 12.32971
488.2384, 13.33041
488.7206, 14.20827
489.2027, 14.86054
489.6848, 15.66303
490.1669, 16.64866
490.6490, 17.75675
491.1311, 18.94634
491.6133, 20.22892
492.0954, 21.44349
492.5775, 22.52588
493.0596, 23.50544
493.5417, 24.45944
494.0238, 25.38075
494.5060, 26.42260
494.9881, 27.85659
495.4702, 29.48190
495.9523, 30.80251
496.4344, 31.70415
496.9165, 32.48724
497.3987, 33.54371
497.8808, 34.69128
498.3629, 35.56654
498.8450, 36.07685
499.3271, 36.22153
499.8092, 35.81467
500.2914, 34.95458
500.7735, 34.21035
501.2556, 33.99947
501.7377, 33.81255
502.2198, 33.30254
502.7019, 32.20816
503.1841, 31.36034
503.6662, 31.01288
504.1483, 30.90229
504.6304, 30.73804
505.1125, 30.55962
505.5946, 30.25628
506.0768, 29.69997
506.5589, 28.99229
507.0410, 28.68109
507.5231, 28.89671
508.0052, 29.14067
508.4873, 29.15531
508.9695, 28.93915
509.4516, 28.66043
509.9337, 28.30507
510.4158, 27.94803
510.8979, 27.76480
511.3800, 27.68107
511.8622, 27.34424
512.3443, 26.54086
512.8264, 25.61666
513.3085, 24.99585
513.7906, 24.63615
514.2728, 24.38572
514.7549, 24.15558
515.2370, 24.00061
515.7191, 23.94689
516.2012, 23.99397
516.6833, 24.21392
517.1655, 24.78581
517.6476, 25.46792
518.1297, 26.05452
518.6118, 26.49231
519.0939, 26.84647
519.5760, 27.10096
520.0582, 27.27719
520.5403, 27.45254
521.0224, 27.85607
521.5045, 27.94222
521.9866, 27.58373
522.4688, 26.77512
522.9509, 25.50792
523.4330, 23.67541
523.9151, 21.61509
524.3972, 19.52946
524.8793, 17.42583
525.3615, 15.38888
525.8436, 13.42433
526.3257, 11.48820
526.8078, 9.480915
527.2899, 7.439497
527.7720, 5.574705
528.2542, 3.972277
528.7363, 2.615374
529.2184, 1.480482
529.7005, 0.5701140
530.1826, 0.1634370
530.6647, 0.6371650
531.1469, 1.010429
531.6290, 1.434055
532.1111, 1.941345
532.5932, 2.420269
533.0753, 2.965782
533.5574, 3.402452
534.0396, 3.538050
534.5217, 2.834967
535.0038, 2.426260
535.4859, 2.684067
535.9680, 3.361055
536.4501, 3.667809
536.9323, 3.429350
537.4144, 3.119001
537.8965, 2.920933
538.3786, 2.841482
538.8607, 2.622169
539.3428, 2.246845
539.8250, 1.785563
540.3071, 1.269075
540.7892, 0.7131480
541.2713, 0.2550560
541.7534, 2.1597000E-02
542.2355, 0.3614730
542.7177, 1.159231
543.1998, 2.319820
543.6819, 3.522457
544.1640, 4.569506
544.6461, 5.609968
545.1282, 6.729996
545.6104, 7.946608
546.0925, 9.381634
546.5746, 11.08438
547.0567, 13.02884
547.5388, 15.20905
548.0209, 17.60673
548.5031, 20.28839
548.9852, 23.47282
549.4673, 26.86925
549.9494, 30.17284
550.4315, 33.27461
550.9136, 36.44717
551.3958, 39.78826
551.8779, 43.21252
552.3600, 46.35653
552.8421, 49.13350
553.3242, 51.99089
553.8063, 55.16030
554.2885, 58.59212
554.7706, 61.79966
555.2527, 64.74224
555.7348, 67.88791
556.2169, 71.75376
556.6990, 76.12141
557.1812, 80.46472
557.6633, 84.62160
558.1454, 89.04729
558.6275, 94.25822
559.1096, 100.0180
559.5917, 106.0270
560.0739, 112.3821
560.5560, 118.6629
561.0381, 124.5976
561.5202, 130.2206
562.0023, 135.9240
562.4844, 142.6974
562.9666, 148.8206
563.4487, 153.6637
563.9308, 157.4124
564.4129, 159.1276
564.8950, 159.0499
565.3771, 156.6668
565.8593, 151.3266
566.3414, 142.5667
566.8235, 132.5143
567.3056, 120.8800
567.7877, 108.6223
568.2698, 97.12765
568.7520, 86.33007
569.2341, 76.78735
569.7162, 68.61297
570.1983, 61.78576
570.6804, 56.26730
571.1625, 52.01418
571.6447, 48.52967
572.1268, 45.56520
572.6089, 43.15990
573.0910, 41.46225
573.5731, 40.51182
574.0552, 39.92738
574.5374, 39.55904
575.0195, 39.45099
575.5016, 39.64102
575.9837, 40.32795
576.4658, 41.07351
576.9479, 41.76025
577.4301, 42.49866
577.9122, 43.48904
578.3943, 44.66850
578.8764, 46.26453
579.3585, 48.46541
579.8406, 51.16174
580.3228, 53.54250
580.8049, 55.55182
581.2870, 57.59157
581.7691, 60.01413
582.2512, 62.71166
582.7333, 65.34217
583.2155, 67.91354
583.6975, 70.57948
584.1796, 73.81458
584.6617, 77.22543
585.1439, 80.17030
585.6260, 82.39729
586.1081, 84.32325
586.5902, 85.98613
587.0723, 87.52560
587.5544, 89.20131
588.0366, 91.48676
588.5187, 93.57764
589.0008, 95.09404
589.4829, 96.03999
589.9650, 97.12587
590.4471, 98.39082
590.9293, 99.80227
591.4114, 101.3157
591.8935, 102.9341
592.3756, 104.9224
592.8577, 107.2901
593.3398, 109.8126
593.8220, 112.4452
594.3041, 115.1769
594.7862, 117.6823
595.2683, 119.9299
595.7504, 121.8461
596.2325, 123.4322
596.7147, 124.6735
597.1968, 125.4811
597.6789, 126.0195
598.1610, 125.9650
598.6431, 124.9607
599.1252, 123.1089
599.6074, 120.9099
600.0895, 118.6209
600.5716, 115.9495
601.0537, 112.6141
601.5358, 108.4293
602.0179, 104.4928
602.5001, 100.9371
602.9822, 97.52768
603.4643, 94.02466
603.9464, 90.22624
604.4285, 86.88837
604.9106, 84.09486
605.3928, 81.70972
605.8749, 79.46127
606.3570, 77.35573
606.8391, 75.62848
607.3212, 74.54330
607.8033, 73.62339
608.2855, 71.91504
608.7676, 69.67680
609.2497, 67.79702
609.7318, 67.16364
610.2139, 66.81316
610.6960, 66.04450
611.1782, 64.82690
611.6603, 63.45178
612.1424, 62.06726
612.6245, 60.50905
613.1066, 58.69460
613.5887, 56.64294
614.0709, 54.19743
614.5530, 51.02623
615.0351, 47.73372
615.5172, 44.94181
615.9993, 42.73948
616.4814, 40.53322
616.9636, 38.25816
617.4457, 35.91643
617.9278, 33.37377
618.4099, 30.66626
618.8920, 28.18486
619.3741, 26.20451
619.8563, 24.42687
620.3384, 22.36399
620.8205, 20.10101
621.3026, 18.06543
621.7847, 16.47830
622.2668, 15.22270
622.7490, 14.36872
623.2311, 13.95963
623.7132, 13.37450
624.1953, 12.21726
624.6774, 10.98691
625.1595, 10.02627
625.6417, 9.403177
626.1238, 8.949551
626.6059, 8.791632
627.0880, 8.672569
627.5701, 8.233221
628.0522, 7.445166
628.5344, 6.581005
629.0165, 5.621302
629.4986, 4.729362
629.9807, 4.302359
630.4628, 4.266523
630.9449, 4.235350
631.4271, 3.973032
631.9092, 3.643391
632.3913, 3.454950
632.8734, 3.378170
633.3555, 3.232471
633.8376, 2.852356
634.3198, 2.431772
634.8019, 2.074335
635.2840, 1.790461
635.7661, 1.566395
636.2482, 1.415678
636.7303, 1.307518
637.2125, 1.253683
637.6946, 1.360806
638.1767, 1.141228
638.6588, 0.4086570
639.1409, 0.3609500
639.6230, 0.3593270
640.1052, 0.3553640
640.5873, 0.9237860
641.0694, 1.138519
641.5515, 1.080450
642.0336, 0.7460670
642.5157, 0.2223380
642.9979, 0.2444230
643.4800, 0.6037960
643.9621, 0.7991350
644.4442, 0.6604820
644.9263, 0.2633860
645.4084, 4.0171001E-02
645.8906, 0.3878000
646.3727, 0.7159370
646.8548, 0.6800060
647.3369, 0.1987740
647.8190, 2.1144999E-02
648.3011, 0.1046180
648.7833, 0.3669780
649.2654, 0.6749950
649.7475, 1.055731
650.2296, 1.139692
650.7117, 0.8570500
651.1938, 0.4747810
651.6760, 0.3361070
652.1581, 0.3719830
652.6402, 0.3669530
653.1223, 0.2411650
653.6044, 0.1061150
654.0865, 7.1245000E-02
654.5687, 9.8070003E-02
655.0508, 0.1123920
655.5329, 7.3523998E-02
656.0150, 3.2729998E-02
656.4971, 2.1400000E-03
656.9792, 1.6543999E-02
657.4614, 1.3504000E-02
657.9435, 5.0055001E-02
658.4256, 6.7514002E-02
658.9077, 2.0643000E-02
659.3898, 0.2057880
659.8719, 0.1667080
660.3541, 0.1580870
660.8362, 0.4130480
661.3183, 0.2684400
661.8004, 0.1759610
662.2825, 0.4715600
662.7646, 0.6000060
663.2468, 0.6208930
663.7289, 0.4850010
664.2110, 0.3132070
664.6931, 0.2660370
665.1752, 0.3997580
665.6573, 0.6032690
666.1395, 0.8546810
666.6216, 1.136495
667.1037, 1.427219
667.5858, 1.830904
668.0679, 2.098076
668.5500, 2.141703
669.0322, 2.067664
669.5143, 2.104218
669.9964, 2.264744
670.4785, 2.470430
670.9606, 2.704206
671.4427, 2.962076
671.9249, 3.243115
672.4070, 3.543211
672.8891, 3.821863
673.3712, 4.009943
673.8533, 4.189499
674.3354, 4.479141
674.8176, 4.869178
675.2997, 5.223795
675.7818, 5.399176
676.2639, 5.573538
676.7460, 5.860035
677.2281, 6.285782
677.7103, 6.754717
678.1924, 7.272694
678.6745, 7.822162
679.1566, 8.443007
679.6387, 9.206453
680.1208, 9.625299
680.6030, 9.587214
681.0851, 9.454930
681.5672, 9.685805
682.0493, 10.21027
682.5314, 10.83464
683.0135, 11.57279
683.4957, 12.24700
683.9778, 12.60467
684.4599, 12.75248
684.9420, 12.87178
685.4241, 12.82878
685.9063, 12.98606
686.3884, 13.71370
686.8705, 14.77436
687.3526, 15.31593
687.8347, 14.99901
688.3168, 14.62126
688.7990, 14.41801
689.2811, 14.33808
689.7632, 14.00648
690.2453, 13.38331
690.7274, 12.78239
691.2095, 12.37574
691.6917, 12.12395
692.1738, 11.99770
692.6559, 11.98244
693.1380, 11.80745
693.6201, 11.12182
694.1022, 10.27324
694.5844, 9.615465
695.0665, 9.217669
695.5486, 8.851965
696.0307, 8.486191
696.5128, 8.097598
696.9949, 7.634432
697.4771, 7.128671
697.9592, 6.575638
698.4413, 5.837118
698.9234, 5.171877
699.4055, 5.012709
699.8876, 5.374331
700.3698, 5.419367
700.8519, 4.925599
701.3340, 4.200513
701.8161, 3.627630
702.2982, 3.203476
702.7803, 2.882757
703.2625, 2.657794
703.7446, 2.449510
704.2267, 2.168797
704.7088, 1.906312
705.1909, 1.851701
705.6730, 2.292825
706.1552, 2.622423
706.6373, 2.661310
707.1194, 2.463146
707.6015, 2.282123
708.0836, 2.148158
708.5657, 2.027200
709.0479, 1.911470
709.5300, 1.787300
710.0121, 1.638005
710.4942, 1.465731
710.9763, 1.299232
711.4584, 1.109550
711.9406, 0.9570750
712.4227, 0.9528800
712.9048, 1.094736
713.3869, 1.210382
713.8690, 1.302402
714.3511, 1.279066
714.8333, 1.014803
715.3154, 0.3132250
715.7975, 4.7530001E-03
716.2796, 0.2730330
716.7617, 0.7019010
717.2438, 0.9603370
717.7260, 1.026318
718.2081, 0.8327750
718.6902, 0.3060830
719.1723, 0.1297340
719.6544, 0.2094300
720.1365, 0.9931760
720.6187, 1.412154
721.1008, 1.207932
721.5829, 0.8408880
722.0650, 0.5618290
722.5471, 0.3689830
723.0292, 0.2544200
723.5114, 0.2496560
723.9935, 0.2828390
724.4756, 0.3761170
724.9577, 0.4924270
725.4398, 0.5923230
725.9219, 0.6141770
726.4041, 0.6016330
726.8862, 0.5503850
727.3683, 0.5023660
727.8504, 0.4755820
728.3325, 0.4880300
728.8146, 0.5390210
729.2968, 0.6395630
729.7789, 0.7703320
730.2610, 0.7839030
730.7431, 0.7239980
731.2252, 0.6258880
731.7073, 0.4116490
732.1895, 0.2972100
732.6716, 0.4233440
733.1537, 0.7823130
733.6358, 0.9751080
734.1179, 0.9080660
734.6000, 0.7532650
735.0822, 0.6083310
735.5643, 0.4907620
736.0464, 0.3400410
736.5285, 0.1391390
737.0106, 6.1907999E-02
737.4927, 0.3530120
737.9749, 0.8018960
738.4570, 1.038004
738.9391, 0.5573310
739.4212, 1.216931
739.9033, 1.614129
740.3854, 1.758827
740.8676, 0.8836760
741.3497, 1.311155
741.8318, 1.202499
742.3139, 1.077661
742.7960, 1.710584
743.2781, 0.9945430
743.7603, 1.596477
744.2424, 1.640199
744.7245, 1.927696
745.2066, 1.694815
745.6887, 1.624161
746.1708, 2.067932
746.6530, 2.204294
747.1351, 1.876714
747.6172, 2.155137
748.0993, 1.344958
748.5814, 1.481265
749.0635, 2.027311
749.5457, 1.715202
750.0278, 1.992695
750.5099, 2.059639
750.9920, 1.141028
751.4741, 1.527247
751.9562, 1.327511
752.4384, 1.308328
752.9205, 1.584741
753.4026, 1.936003
753.8847, 1.955338
754.3668, 1.729638
754.8489, 1.619700
755.3311, 1.795247
755.8132, 2.009459
756.2953, 2.068947
756.7774, 2.010495
757.2595, 1.897062
757.7416, 1.594787
758.2238, 1.420757
758.7059, 1.576578
759.1880, 1.876114
759.6701, 1.909866
760.1522, 1.582120
760.6343, 1.290929
761.1165, 1.108832
761.5986, 1.050855
762.0807, 1.270255
762.5628, 1.697474
763.0449, 1.921219
763.5270, 1.567254
764.0092, 1.088538
764.4913, 0.8549120
764.9734, 0.8415840
765.4555, 0.9662260
765.9376, 1.479435
766.4197, 1.828850
766.9019, 1.687292
767.3840, 1.190319
767.8661, 0.9842870
768.3482, 1.175224
768.8303, 1.339948
769.3124, 1.270376
769.7946, 1.059878
770.2767, 1.089652
770.7588, 1.329339
771.2409, 1.489600
771.7230, 1.300020
772.2051, 1.012402
772.6873, 0.9155560
773.1694, 0.9746360
773.6515, 0.9124530
774.1336, 0.4426270
774.6157, 3.7220001E-02
775.0978, 7.5172000E-02
775.5800, 9.2413001E-02
776.0621, 0.2192620
776.5442, 0.2926230
777.0263, 0.3382980
777.5084, 0.3685490
777.9905, 0.4032730
778.4727, 0.6317700
778.9548, 1.035091
779.4369, 1.320803
779.9190, 1.147457
780.4011, 0.8412210
780.8832, 0.7533830
781.3654, 0.9056300
781.8475, 0.9810940
782.3296, 0.6204610
782.8117, 8.0554999E-02
783.2938, 0.5567010
783.7759, 0.9142640
784.2581, 1.006400
784.7402, 6.9582000E-02
785.2223, 0.4360650
785.7044, 0.2648790
786.1865, 6.1597999E-02
786.6686, 0.5813820
787.1508, 0.2599700
787.6329, 0.2285390
788.1150, 0.1716990
788.5971, 0.3485130
789.0792, 1.6067000E-02
789.5613, 0.2300900
790.0435, 7.3202997E-02
790.5256, 7.4207000E-02
791.0077, 0.3931310
791.4898, 0.6253510
791.9719, 0.1961690
792.4540, 4.1212998E-02
792.9362, 0.2144670
793.4183, 0.4558540
793.9004, 0.5646320
794.3825, 0.5743530
794.8646, 0.5378610
795.3467, 0.4440520
795.8289, 0.3985340
796.3110, 0.5392540
796.7931, 0.7364190
797.2752, 0.8690700
797.7573, 0.9290050
798.2394, 0.9226540
798.7216, 0.7582920
799.2037, 0.6342750
799.6858, 0.7454700
800.1679, 1.159320
800.6500, 1.224171
801.1321, 0.9032170
801.6143, 0.5448300
802.0964, 0.5522070
802.5785, 0.7418270
803.0606, 0.7413350
803.5427, 0.4957010
804.0248, 0.2583860
804.5070, 0.2259520
804.9891, 0.2351320
805.4712, 0.1348710
805.9533, 0.1713180
806.4354, 0.2993850
806.9175, 0.2210370
807.3997, 2.2160001E-03
807.8818, 0.4502850
808.3639, 1.118952
808.8460, 1.117113
809.3281, 0.3528560
809.8102, 0.4937860
810.2924, 0.8558010
810.7745, 0.9174290
811.2566, 0.8832740
811.7387, 0.7653520
812.2208, 0.6763380
812.7029, 0.6750970
813.1851, 0.7145610
813.6672, 0.7553410
814.1493, 0.7809600
814.6314, 0.8857520
815.1135, 1.108963
815.5956, 1.307343
816.0778, 1.241024
816.5599, 1.028988
817.0420, 1.312088
817.5241, 2.134092
818.0062, 2.930662
818.4883, 3.224964
818.9705, 3.309977
819.4526, 3.465483
819.9347, 3.744219
820.4168, 3.982414
820.8989, 4.102650
821.3810, 4.205389
821.8632, 4.345453
822.3453, 4.531376
822.8274, 4.661558
823.3095, 4.716074
823.7916, 4.838203
824.2737, 5.185787
824.7559, 5.656111
825.2380, 6.004728
825.7201, 6.221626
826.2022, 6.542467
826.6843, 7.245108
827.1664, 7.982410
827.6486, 8.557711
828.1307, 8.963642
828.6128, 9.086544
829.0949, 8.790659
829.5770, 8.444759
830.0591, 8.251844
830.5413, 8.197840
831.0234, 8.067692
831.5055, 7.862181
831.9876, 7.754707
832.4697, 8.026369
832.9518, 8.367819
833.4340, 8.445658
833.9161, 8.246315
834.3982, 7.969730
834.8803, 7.553833
835.3624, 7.206524
835.8445, 7.051718
836.3267, 7.081724
836.8088, 6.955759
837.2909, 6.616772
837.7730, 6.364780
838.2551, 6.461027
838.7372, 6.736122
839.2194, 6.700792
839.7015, 6.413742
840.1836, 6.217554
840.6657, 6.295708
841.1478, 6.548807
841.6299, 6.943521
842.1121, 7.440584
842.5942, 7.731817
843.0763, 7.701231
843.5584, 7.726282
844.0405, 7.938667
844.5226, 8.318520
845.0048, 8.639669
845.4869, 8.968700
845.9690, 9.308018
846.4511, 9.651070
846.9332, 10.01921
847.4153, 10.42574
847.8975, 10.92810
848.3796, 11.57794
848.8617, 12.55232
849.3438, 13.45704
849.8259, 14.17052
850.3080, 14.76735
850.7902, 15.48101
851.2723, 16.33819
851.7544, 17.07031
852.2365, 17.53910
852.7186, 17.95312
853.2007, 18.71999
853.6829, 19.73489
854.1650, 20.71185
854.6471, 21.50785
855.1292, 22.29387
855.6113, 23.12307
856.0934, 24.00850
856.5756, 25.00387
857.0577, 26.18474
857.5398, 27.30703
858.0219, 28.35437
858.5040, 29.32581
858.9861, 30.08396
859.4683, 30.71071
859.9504, 31.64765
860.4325, 33.05735
860.9146, 34.55531
861.3967, 35.83899
861.8788, 36.97003
862.3610, 38.02181
862.8431, 38.89161
863.3252, 39.88662
863.8073, 41.11910
864.2894, 42.37975
864.7715, 43.43457
865.2537, 44.27151
865.7358, 45.16689
866.2179, 46.15115
866.7000, 47.07281
867.1821, 47.73400
867.6642, 48.24736
868.1464, 48.72998
868.6285, 49.16904
869.1106, 49.88258
869.5927, 51.01586
870.0748, 52.47175
870.5569, 54.26735
871.0391, 56.52039
871.5212, 58.13745
872.0033, 58.94965
872.4854, 59.75782
872.9675, 61.20188
873.4496, 63.07380
873.9318, 64.94971
874.4139, 66.78807
874.8960, 68.35075
875.3781, 69.04480
875.8602, 69.80973
876.3423, 71.31046
876.8245, 73.56986
877.3066, 75.64114
877.7887, 77.42981
878.2708, 79.27246
878.7529, 81.43072
879.2350, 83.69054
879.7172, 85.24569
880.1993, 86.17987
880.6814, 87.14959
881.1635, 88.63013
881.6456, 90.17739
882.1277, 91.44837
882.6099, 92.51472
883.0920, 93.60983
883.5741, 94.98252
884.0562, 96.07355
884.5383, 96.81648
885.0204, 97.30410
885.5026, 97.42289
885.9847, 97.34821
886.4668, 96.91319
886.9489, 96.15385
887.4310, 94.85355
887.9131, 92.43661
888.3953, 89.43920
888.8774, 86.65799
889.3595, 84.54701
889.8416, 82.34731
890.3237, 79.96220
890.8058, 77.42912
891.2880, 74.67441
891.7701, 71.67628
892.2522, 68.90431
892.7343, 66.37957
893.2164, 64.10458
893.6985, 62.09837
894.1807, 60.35619
894.6628, 58.80023
895.1449, 57.41669
895.6270, 56.31773
896.1091, 55.44564
896.5912, 54.96636
897.0734, 54.98454
897.5555, 55.52854
898.0376, 56.22507
898.5197, 57.06962
899.0018, 58.06852
899.4839, 59.25379
899.9661, 60.57742
900.4482, 61.92299
900.9303, 63.31630
901.4124, 64.85129
901.8945, 66.55476
902.3766, 68.44693
902.8588, 70.55737
903.3409, 72.86787
903.8230, 75.52713
904.3051, 78.72401
904.7872, 81.54905
905.2693, 83.50824
905.7515, 85.20425
906.2336, 88.03385
906.7157, 91.65564
907.1978, 95.08691
907.6799, 97.95286
908.1620, 100.4878
908.6442, 102.6376
909.1263, 104.5935
909.6084, 106.7361
910.0905, 109.3108
910.5726, 111.3999
911.0547, 112.8521
911.5369, 114.0514
912.0190, 115.7571
912.5011, 117.6203
912.9832, 118.4933
913.4653, 118.0408
913.9474, 117.5436
914.4296, 118.4658
914.9117, 119.2571
915.3938, 118.4177
915.8759, 115.4112
916.3580, 112.8459
916.8401, 111.0000
917.3223, 108.9012
917.8044, 105.8169
918.2865, 101.9440
918.7686, 97.80860
919.2507, 93.43995
919.7328, 89.02628
920.2150, 84.84824
920.6971, 80.51920
921.1792, 75.62041
921.6613, 70.22350
922.1434, 65.09043
922.6255, 60.16099
923.1077, 55.62458
923.5898, 51.58923
924.0719, 47.92132
924.5540, 44.15612
925.0361, 40.36793
925.5182, 36.96746
926.0004, 34.23852
926.4825, 31.65312
926.9646, 28.80726
927.4467, 25.87771
927.9288, 23.16023
928.4109, 20.50035
928.8931, 18.39720
929.3752, 17.05468
929.8573, 15.93807
930.3394, 14.35199
930.8215, 12.47236
931.3036, 10.88809
931.7858, 9.672796
932.2679, 8.621168
932.7500, 7.650230
933.2321, 6.726107
933.7142, 5.791332
934.1964, 4.841793
934.6785, 3.935806
935.1606, 3.014927
935.6427, 2.305498
936.1248, 2.018028
936.6069, 2.011705
937.0891, 1.891817
937.5712, 1.647543
938.0533, 1.230810
938.5354, 0.4024410
939.0175, 0.3899900
939.4996, 0.8926510
939.9818, 1.136656
940.4639, 1.208961
940.9460, 0.9991550
941.4281, 0.9169390
941.9102, 1.054726
942.3923, 1.272272
942.8745, 1.378574
943.3566, 1.396986
943.8387, 1.379988
944.3208, 1.349909
944.8029, 1.257971
945.2850, 0.9937380
945.7672, 0.7173600
946.2493, 0.6018680
946.7314, 0.7206550
947.2135, 0.7442130
947.6956, 0.6449300
948.1777, 0.5140300
948.6599, 0.4183160
949.1420, 0.3370380
949.6241, 0.2992820
950.1062, 0.2976230
950.5883, 0.1269360
951.0704, 0.5053500
951.5526, 1.164881
952.0347, 1.661921
952.5168, 2.002396
952.9989, 2.157743
953.4810, 2.069294
953.9631, 2.071232
954.4453, 2.259167
954.9274, 2.585527
955.4095, 3.046188
955.8916, 3.573296
956.3737, 4.026400
956.8558, 4.328587
957.3380, 4.613842
957.8201, 4.943726
958.3022, 5.269247
958.7843, 5.534475
959.2664, 5.720034
959.7485, 5.970654
960.2307, 6.297363
960.7128, 6.632406
961.1949, 6.816887
961.6770, 7.023489
962.1591, 7.549088
962.6412, 8.396528
963.1234, 9.207031
963.6055, 9.749233
964.0876, 10.36081
964.5697, 11.17064
965.0518, 12.14201
965.5339, 13.17494
966.0161, 14.27270
966.4982, 15.29063
966.9803, 16.02548
967.4624, 16.89778
967.9445, 18.48467
968.4266, 20.50161
968.9088, 22.44647
969.3909, 24.28070
969.8730, 25.90054
970.3551, 27.22670
970.8372, 28.46188
971.3193, 29.79133
971.8015, 31.22126
972.2836, 32.99447
972.7657, 35.13284
973.2478, 37.24589
973.7299, 38.98081
974.2120, 40.62355
974.6942, 42.45067
975.1763, 44.48251
975.6584, 46.40306
976.1405, 48.37626
976.6226, 49.88290
977.1047, 50.61900
977.5869, 50.85822
978.0690, 51.40586
978.5511, 52.11707
979.0332, 52.47012
979.5153, 52.26917
979.9974, 51.63790
980.4796, 50.61431
980.9617, 49.19569
981.4438, 47.41788
981.9259, 45.27322
982.4080, 42.67035
982.8901, 39.47894
983.3723, 36.26367
983.8544, 33.72168
984.3365, 31.51349
984.8186, 28.87051
985.3007, 25.74171
985.7828, 22.99250
986.2650, 21.18692
986.7471, 19.63218
987.2292, 18.00448
987.7113, 16.34726
988.1934, 14.92009
988.6755, 13.73165
989.1577, 12.54615
989.6398, 11.24652
990.1219, 9.977810
990.6040, 8.928205
991.0861, 8.034500
991.5682, 7.190811
992.0504, 6.388390
992.5325, 5.597960
993.0146, 4.749432
993.4967, 3.996611
993.9788, 3.511560
994.4609, 3.260225
994.9431, 2.985468
995.4252, 2.671053
995.9073, 2.204893
996.3894, 1.199852
996.8715, 0.2543470
997.3536, 0.1329020
997.8358, 3.3112999E-02
998.3179, 0.1384790
998.8000, 0.2164060
999.2821, 0.1342120
999.7642, 0.2009660
1000.246, 0.6655430
1000.728, 1.019693
1001.211, 1.278076
1001.693, 1.471247
1002.175, 1.613926
1002.657, 1.683147
1003.139, 1.671844
1003.621, 1.559731
1004.103, 1.322319
1004.585, 0.9344270
1005.068, 0.6415270
1005.550, 0.4391520
1006.032, 0.2809700
1006.514, 0.2543640
1006.996, 0.1750240
1007.478, 0.2935240
1007.960, 1.071480
1008.442, 1.677608
1008.924, 1.860550
1009.407, 2.003496
1009.889, 2.154840
1010.371, 2.339809
1010.853, 2.638073
1011.335, 3.032423
1011.817, 3.368835
1012.299, 3.589025
1012.781, 3.855227
1013.263, 4.407974
1013.746, 4.995165
1014.228, 5.360815
1014.710, 5.452860
1015.192, 5.490156
1015.674, 5.415670
1016.156, 5.478310
1016.638, 5.887558
1017.120, 6.511333
1017.603, 7.246111
1018.085, 7.975042
1018.567, 8.262827
1019.049, 7.199877
1019.531, 6.548258
1020.013, 7.152517
1020.495, 8.231527
1020.977, 8.581429
1021.459, 8.177454
1021.942, 8.153049
1022.424, 8.688053
1022.906, 9.317291
1023.388, 9.606060
1023.870, 9.777990
1024.352, 10.05928
1024.834, 10.48345
1025.316, 10.88817
1025.799, 11.25310
1026.281, 11.61092
1026.763, 11.94519
1027.245, 12.30621
1027.727, 12.79930
1028.209, 13.44236
1028.691, 14.30145
1029.173, 15.48566
1029.656, 16.76236
1030.138, 18.15442
1030.620, 19.48671
1031.102, 20.52927
1031.584, 21.17097
1032.066, 22.20628
1032.548, 23.68227
1033.030, 25.29268
1033.512, 26.81051
1033.995, 28.28942
1034.477, 29.81356
1034.959, 31.35148
1035.441, 32.73200
1035.923, 33.91525
1036.405, 34.91992
1036.887, 35.68203
1037.369, 36.35976
1037.851, 37.37869
1038.334, 38.60229
1038.816, 39.58543
1039.298, 40.23445
1039.780, 40.60506
1040.262, 40.61702
1040.744, 40.45621
1041.226, 40.26976
1041.708, 40.06507
1042.191, 39.79308
1042.673, 39.45486
1043.155, 39.01768
1043.637, 38.53749
1044.119, 37.87587
1044.601, 36.65469
1045.083, 35.10823
1045.565, 33.82092
1046.047, 33.25586
1046.530, 32.51691
1047.012, 31.46459
1047.494, 30.32262
1047.976, 29.26862
1048.458, 28.32407
1048.940, 27.69849
1049.422, 27.39717
1049.904, 27.20349
1050.386, 26.99122
1050.869, 26.83123
1051.351, 26.83202
1051.833, 26.92855
1052.315, 26.82543
1052.797, 26.48228
1053.279, 26.20141
1053.761, 25.98558
1054.243, 26.05892
1054.726, 26.97048
1055.208, 28.21160
1055.690, 29.06358
1056.172, 29.22418
1056.654, 29.44086
1057.136, 29.69713
1057.618, 30.13656
1058.100, 30.96145
1058.583, 32.02557
1059.065, 32.68243
1059.547, 33.01526
1060.029, 33.40020
1060.511, 34.34724
1060.993, 35.01896
1061.475, 34.82310
1061.957, 34.27522
1062.439, 34.10740
1062.922, 34.37415
1063.404, 34.45368
1063.886, 34.29842
1064.368, 33.93476
1064.850, 33.20640
1065.332, 32.43875
1065.814, 31.95575
1066.296, 31.75150
1066.778, 31.47756
1067.261, 30.96038
1067.743, 30.69210
1068.225, 30.82192
1068.707, 31.19988
1069.189, 31.57394
1069.671, 31.97984
1070.153, 32.46970
1070.635, 32.99952
1071.118, 33.86708
1071.600, 35.36357
1072.082, 36.98767
1072.564, 38.45087
1073.046, 39.75735
1073.528, 41.07005
1074.010, 42.40528
1074.492, 44.15834
1074.974, 46.89918
1075.457, 49.70637
1075.939, 51.67813
1076.421, 54.38071
1076.903, 56.85886
1077.385, 58.95965
1077.867, 61.67519
1078.349, 63.54320
1078.831, 65.42895
1079.313, 68.41106
1079.796, 71.75622
1080.278, 74.21995
1080.760, 75.92960
1081.242, 78.01338
1081.724, 81.24236
1082.206, 84.31544
1082.688, 87.07887
1083.170, 89.38216
1083.652, 90.92842
1084.135, 91.76273
1084.617, 92.06478
1085.099, 91.93360
1085.581, 90.92258
1086.063, 88.57651
1086.545, 85.35258
1087.027, 81.46587
1087.509, 76.98673
1087.992, 72.30794
1088.474, 67.43055
1088.956, 62.19234
1089.438, 56.27176
1089.920, 50.39568
1090.402, 44.89309
1090.884, 39.96644
1091.366, 35.98186
1091.849, 33.33127
1092.331, 30.61626
1092.813, 27.76557
1093.295, 25.09142
1093.777, 22.79373
1094.259, 20.84463
1094.741, 19.21535
1095.223, 17.88074
1095.705, 16.66979
1096.188, 15.52745
1096.670, 14.46666
1097.152, 13.46891
1097.634, 12.59192
1098.116, 11.97619
1098.598, 11.53776
1099.080, 10.83046
1099.562, 9.816204
1100.044, 8.923392
1100.527, 8.484365
1101.009, 8.214950
1101.491, 8.001199
1101.973, 7.756582
1102.455, 7.276401
1102.937, 6.561546
1103.419, 5.964448
1103.901, 5.578833
1104.384, 5.301889
1104.866, 5.097103
1105.348, 4.922913
1105.830, 4.739960
1106.312, 4.549285
1106.794, 4.322736
1107.276, 4.068894
1107.758, 3.729043
1108.240, 3.217678
1108.723, 2.669852
1109.205, 2.221621
1109.687, 1.916590
1110.169, 1.820989
1110.651, 2.262283
1111.133, 2.282175
1111.615, 1.588519
1112.097, 0.8939520
1112.579, 0.8679270
1113.062, 1.275040
1113.544, 1.268998
1114.026, 0.9411920
1114.508, 0.6060080
1114.990, 0.2653840
1115.472, 0.1095100
1115.954, 0.3477690
1116.436, 0.6753030
1116.919, 0.6583150
1117.401, 0.3309890
1117.883, 0.1651940
1118.365, 0.1980100
1118.847, 0.2212990
1119.329, 1.1393000E-02
1119.811, 0.1869790
1120.293, 0.1857660
1120.776, 3.3750001E-02
1121.258, 0.1075350
1121.740, 0.2465350
1122.222, 0.2470650
1122.704, 5.2214999E-02
1123.186, 0.1599150
1123.668, 0.2052200
1124.150, 0.1759210
1124.632, 0.1882380
1125.115, 0.2644540
1125.597, 0.1877820
1126.079, 0.1123450
1126.561, 0.3443500
1127.043, 0.4249330
1127.525, 0.3379810
1128.007, 0.1169760
1128.489, 0.6999790
1128.971, 1.000607
1129.454, 0.8920880
1129.936, 0.5082670
1130.418, 0.3481080
1130.900, 1.064996
1131.382, 1.202815
1131.864, 0.9182810
1132.346, 0.5753940
1132.828, 0.2123060
1133.311, 5.2014001E-02
1133.793, 0.2111680
1134.275, 0.1869040
1134.757, 0.2193940
1135.239, 0.6060290
1135.721, 0.5001810
1136.203, 1.4466000E-02
1136.685, 0.1621340
1137.167, 4.2826999E-02
1137.650, 0.2004380
1138.132, 6.8617001E-02
1138.614, 0.2921880
1139.096, 0.1693300
1139.578, 0.1144470
1140.060, 0.2869520
1140.542, 0.3484120
1141.024, 0.3200180
1141.506, 0.2017400
1141.989, 4.0344000E-02
1142.471, 0.2672990
1142.953, 0.4799220
1143.435, 0.3289040
1143.917, 9.5712997E-02
1144.399, 0.3311600
1144.881, 0.3526210
1145.363, 0.3593530
1145.846, 0.3958230
1146.328, 0.4249680
1146.810, 0.3809870
1147.292, 0.3248520
1147.774, 0.3399950
1148.256, 0.4447620
1148.738, 0.4584510
1149.220, 0.3518700
1149.703, 0.2398510
1150.185, 0.1500410
1150.667, 9.9212997E-02
1151.149, 0.1930700
1151.631, 0.3112550
1152.113, 0.2229750
1152.595, 0.2447710
1153.077, 0.4584970
1153.559, 0.3248150
1154.042, 6.3529000E-02
1154.524, 0.2796630
1155.006, 0.6146430
1155.488, 0.7262370
1155.970, 0.6687120
1156.452, 0.5735030
1156.934, 0.5273120
1157.416, 0.3373580
1157.898, 0.1704250
1158.381, 0.5687590
1158.863, 0.4229770
1159.345, 9.4637997E-02
1159.827, 0.2640420
1160.309, 0.1631670
1160.791, 0.1048820
1161.273, 0.1654990
1161.755, 0.3968240
1162.238, 1.016708
1162.720, 1.579426
1163.202, 1.515780
1163.684, 0.9301080
1164.166, 0.5379710
1164.648, 0.3606010
1165.130, 0.2629750
1165.612, 0.2587750
1166.094, 0.2088310
1166.577, 6.0697000E-02
1167.059, 0.3319190
1167.541, 0.1830240
1168.023, 0.3426000
1168.505, 0.6743760
1168.987, 0.7539870
1169.469, 0.7427500
1169.951, 0.8041290
1170.433, 0.7541270
1170.916, 0.2905650
1171.398, 0.3235400
1171.880, 0.3556290
1172.362, 0.1852620
1172.844, 0.6224580
1173.326, 0.8361370
1173.808, 0.8694560
1174.290, 0.5601850
1174.773, 0.2469430
1175.255, 0.2293860
1175.737, 0.4561370
1176.219, 0.7151370
1176.701, 1.020123
1177.183, 1.073715
1177.665, 0.7141480
1178.147, 0.3502530
1178.630, 0.3797250
1179.112, 0.5947950
1179.594, 0.8422270
1180.076, 1.107396
1180.558, 1.236938
1181.040, 1.220830
1181.522, 1.128407
1182.004, 0.9429550
1182.486, 0.7915730
1182.969, 0.9006210
1183.451, 1.077903
1183.933, 1.030696
1184.415, 0.6496520
1184.897, 0.6123060
1185.379, 0.9759450
1185.861, 1.304796
1186.343, 1.384762
1186.825, 1.247889
1187.308, 0.7425790
1187.790, 0.1489640
1188.272, 9.5591001E-02
1188.754, 0.1126060
1189.236, 0.4695350
1189.718, 1.032022
1190.200, 1.438249
1190.682, 1.313041
1191.165, 1.008266
1191.647, 1.002631
1192.129, 1.164294
1192.611, 1.202410
1193.093, 0.8861310
1193.575, 0.8553840
1194.057, 1.188665
1194.539, 1.502146
1195.021, 1.498367
1195.504, 1.321854
1195.986, 1.083875
1196.468, 0.8357320
1196.950, 0.7695510
1197.432, 0.9828880
1197.914, 1.251322
1198.396, 1.616859
1198.878, 1.831806
1199.360, 1.508928
1199.843, 0.9817320
1200.325, 0.6418770
1200.807, 0.5158710
1201.289, 0.6647160
1201.771, 1.291447
1202.253, 1.754654
1202.735, 1.980816
1203.217, 2.037703
1203.700, 1.978005
1204.182, 1.808990
1204.664, 1.478428
1205.146, 1.022703
1205.628, 0.6706020
1206.110, 0.4358380
1206.592, 0.3555470
1207.074, 0.4587980
1207.557, 0.6459670
1208.039, 0.8686720
1208.521, 1.051787
1209.003, 1.018191
1209.485, 0.7785560
1209.967, 0.7566370
1210.449, 1.131373
1210.931, 1.326118
1211.413, 1.198682
1211.896, 0.9954360
1212.378, 1.065325
1212.860, 1.236818
1213.342, 1.228765
1213.824, 1.297126
1214.306, 1.408024
1214.788, 1.302334
1215.270, 1.500132
1215.752, 1.415867
1216.235, 1.199972
1216.717, 1.043039
1217.199, 0.9869820
1217.681, 1.065127
1218.163, 1.293385
1218.645, 1.435953
1219.127, 1.532014
1219.609, 1.360134
1220.092, 0.7024470
1220.574, 7.2453000E-02
1221.056, 0.3860510
1221.538, 1.150361
1222.020, 1.690722
1222.502, 1.874495
1222.984, 1.906595
1223.466, 1.771626
1223.948, 1.580804
1224.431, 1.341713
1224.913, 1.088850
1225.395, 0.8475180
1225.877, 0.6970200
1226.359, 0.7576010
1226.841, 0.6325790
1227.323, 1.155406
1227.805, 0.6741750
1228.287, 0.3631010
1228.770, 0.5424930
1229.252, 0.9114940
1229.734, 1.307979
1230.216, 1.631151
1230.698, 1.610749
1231.180, 1.098374
1231.662, 0.8346340
1232.144, 0.8541920
1232.627, 0.9012540
1233.109, 0.8940800
1233.591, 0.8173900
1234.073, 0.4839570
1234.555, 0.1448410
1235.037, 0.2082140
1235.519, 0.8117890
1236.001, 1.096490
1236.484, 1.047640
1236.966, 0.9011830
1237.448, 0.7443960
1237.930, 0.6202900
1238.412, 0.5818950
1238.894, 0.5951800
1239.376, 0.6165210
1239.858, 0.6393330
1240.340, 0.7119040
1240.823, 0.8417410
1241.305, 0.8607170
1241.787, 0.5411170
1242.269, 0.2623930
1242.751, 0.5117200
1243.233, 0.9111450
1243.715, 0.9495690
1244.197, 0.5678240
1244.679, 0.3604590
1245.162, 0.3225250
1245.644, 0.3740910
1246.126, 0.5803000
1246.608, 0.7398510
1247.090, 0.4534610
1247.572, 0.1513820
1248.054, 0.3967790
1248.536, 1.221562
1249.019, 1.595947
1249.501, 1.542871
1249.983, 1.335850
1250.465, 0.9886600
1250.947, 0.7073270
1251.429, 0.6340590
1251.911, 0.6406140
1252.393, 0.6307550
1252.875, 0.6109400
1253.358, 0.4710900
1253.840, 0.2544310
1254.322, 0.2416050
1254.804, 0.9036030
1255.286, 1.359614
1255.768, 1.176841
1256.250, 0.8194890
1256.732, 0.6719460
1257.214, 0.6927570
1257.697, 0.4854540
1258.179, 0.1380950
1258.661, 5.8766000E-02
1259.143, 0.8629440
1259.625, 1.305229
1260.107, 0.9672210
1260.589, 0.5355890
1261.071, 0.7152930
1261.554, 1.239720
1262.036, 1.197277
1262.518, 0.7396180
1263.000, 0.3565470
1263.482, 0.1082030
1263.964, 0.1859920
1264.446, 0.7391200
1264.928, 1.282712
1265.411, 1.350844
1265.893, 1.159175
1266.375, 1.127005
1266.857, 1.195752
1267.339, 1.192395
1267.821, 1.049085
1268.303, 0.8393240
1268.785, 0.5145080
1269.267, 0.3011100
1269.750, 0.4837830
1270.232, 0.8229630
1270.714, 1.097554
1271.196, 1.277588
1271.678, 1.276942
1272.160, 1.025509
1272.642, 0.8251940
1273.124, 0.6795790
1273.606, 0.6060650
1274.089, 0.6463820
1274.571, 0.7209120
1275.053, 0.7705360
1275.535, 0.8001750
1276.017, 0.8620160
1276.499, 0.9861450
1276.981, 0.8831110
1277.463, 0.5518550
1277.946, 0.2631260
1278.428, 0.1772210
1278.910, 0.2069040
1279.392, 0.4593330
1279.874, 0.7019650
1280.356, 0.6159130
1280.838, 0.2118700
1281.320, 7.3220998E-02
1281.802, 0.1832430
1282.285, 0.2733660
1282.767, 0.1181930
1283.249, 2.0814000E-02
1283.731, 2.7445000E-02
1284.213, 0.2035190
1284.695, 0.7860150
1285.177, 1.593709
1285.659, 1.594055
1286.141, 0.9816930
1286.624, 0.5786690
1287.106, 0.9748900
1287.588, 1.260641
1288.070, 1.315364
1288.552, 1.241040
1289.034, 1.063065
1289.516, 0.8416870
1289.998, 0.7161950
1290.481, 0.6610630
1290.963, 0.6080690
1291.445, 0.5262370
1291.927, 0.4904290
1292.409, 0.5231360
1292.891, 0.5021800
1293.373, 0.1841850
1293.855, 0.1238870
1294.338, 4.8455000E-02
1294.820, 0.4816050
1295.302, 0.7684170
1295.784, 0.8675200
1296.266, 0.8854260
1296.748, 0.8208310
1297.230, 0.6968030
1297.712, 0.4586320
1298.194, 0.2467590
1298.677, 6.9889999E-03
1299.159, 1.1475000E-02
1299.641, 0.1753730
1300.123, 0.5590030
1300.605, 0.8476580
1301.087, 0.9826270
1301.569, 0.8795750
1302.051, 0.4457310
1302.533, 8.9256003E-02
1303.016, 0.0000000E+00
##END=



