##NAMES=Erythrite
##RRUFFID=R050073
##IDEAL CHEMISTRY=Co^2+^_3_(As^5+^O_4_)_2_&#183;8H_2_O
##LOCALITY=Bou Azzer, Morocco
##OWNER=RRUFF
##SOURCE=Rock Currier
##DESCRIPTION=Crimson flattened crystals
##STATUS=The identification of this mineral has been confirmed by X-ray diffraction and chemical analysis
##URL=rruff.info/R050073
##MEASURED CHEMISTRY=(Co_0.65_Mg_0.35_)_3_(As_1.00_O_4_)_2_Â·8H_2_O
52.866, 0.000
54.266, 32.803
55.666, 33.416
57.065, 84.579
58.464, 91.577
59.863, 67.050
61.262, 11.633
62.661, 16.220
64.059, 3.776
65.458, 2.758
66.856, 12.451
68.253, 8.371
69.651, 7.585
71.048, 55.848
72.445, 24.875
73.842, 84.458
75.239, 195.559
76.635, 110.142
78.031, 116.168
79.427, 90.604
80.823, 178.420
82.218, 172.288
83.614, 305.082
85.009, 219.884
86.404, 203.975
87.798, 207.337
89.193, 311.956
90.587, 519.819
91.981, 425.923
93.375, 474.284
94.768, 490.889
96.161, 465.716
97.554, 489.744
98.947, 536.952
100.340, 582.327
101.732, 605.857
103.124, 656.532
104.516, 799.345
105.908, 1034.289
107.300, 1175.359
108.691, 1306.549
110.082, 1628.856
111.473, 2168.276
112.864, 2960.805
114.254, 3897.441
115.644, 4161.182
117.034, 3770.021
118.424, 2742.960
119.813, 1829.994
121.203, 1388.121
122.592, 954.338
123.981, 680.644
125.369, 536.035
126.758, 420.510
128.146, 438.066
129.534, 401.824
130.922, 436.903
132.309, 356.236
133.696, 426.650
135.083, 453.107
136.470, 528.595
137.857, 628.077
139.243, 740.550
140.630, 837.007
142.016, 1107.453
143.401, 1370.890
144.787, 1795.327
146.172, 2555.776
147.557, 3557.243
148.942, 4701.731
150.327, 5615.246
151.711, 6251.786
153.096, 6186.355
154.480, 6087.957
155.863, 5195.592
157.247, 3997.263
158.630, 2875.970
160.013, 2003.715
161.396, 1435.500
162.779, 1036.324
164.161, 802.188
165.544, 584.094
166.926, 529.042
168.308, 502.031
169.689, 529.063
171.070, 539.138
172.452, 555.254
173.833, 539.411
175.213, 531.608
176.594, 523.846
177.974, 485.123
179.354, 510.438
180.734, 505.791
182.114, 543.180
183.493, 574.607
184.872, 642.069
186.251, 794.565
187.630, 915.097
189.008, 1060.662
190.387, 1240.261
191.765, 1368.892
193.143, 1493.555
194.520, 1812.249
195.898, 1905.974
197.275, 2247.729
198.652, 2581.513
200.029, 3016.327
201.405, 3422.169
202.782, 4062.038
204.158, 4828.104
205.534, 5745.801
206.909, 6800.473
208.285, 7596.923
209.660, 8130.806
211.035, 8231.371
212.410, 7633.144
213.784, 6948.941
215.159, 5923.762
216.533, 4846.609
217.907, 4021.478
219.281, 3233.241
220.654, 2669.937
222.027, 2170.560
223.400, 1919.077
224.773, 1706.597
226.146, 1512.106
227.518, 1423.077
228.891, 1311.643
230.263, 1349.180
231.634, 1293.779
233.006, 1413.186
234.377, 1440.013
235.748, 1461.980
237.119, 1561.136
238.490, 1564.364
239.860, 1719.663
241.231, 1793.020
242.601, 1759.452
243.970, 1712.941
245.340, 1666.488
246.709, 1536.099
248.079, 1471.663
249.448, 1357.499
250.816, 1292.278
252.185, 1230.109
253.553, 1178.000
254.921, 1152.944
256.289, 1159.938
257.657, 1207.975
259.024, 1225.072
260.391, 1259.206
261.758, 1358.372
263.125, 1294.604
264.492, 1338.868
265.858, 1252.178
267.224, 1265.531
268.590, 1195.926
269.956, 1016.362
271.321, 1016.839
272.687, 914.357
274.052, 723.916
275.416, 643.513
276.781, 603.150
278.146, 495.825
279.510, 406.536
280.874, 393.279
282.237, 280.056
283.601, 298.857
284.964, 184.677
286.327, 149.515
287.690, 232.380
289.053, 219.262
290.416, 219.162
291.778, 292.079
293.140, 305.012
294.502, 334.960
295.863, 477.921
297.225, 473.895
298.586, 655.880
299.947, 739.877
301.308, 839.884
302.668, 913.903
304.029, 923.334
305.389, 966.975
306.749, 893.027
308.108, 781.091
309.468, 719.166
310.827, 612.251
312.186, 511.348
313.545, 413.455
314.903, 370.572
316.262, 262.700
317.620, 287.838
318.978, 200.985
320.336, 184.143
321.693, 180.309
323.051, 191.485
324.408, 194.669
325.765, 215.863
327.121, 359.064
328.478, 361.944
329.834, 442.491
331.190, 440.716
332.546, 582.949
333.902, 577.188
335.257, 626.225
336.612, 626.879
337.967, 626.946
339.322, 573.211
340.677, 521.381
342.031, 404.758
343.385, 364.039
344.739, 234.325
346.093, 150.616
347.446, 107.912
348.799, 44.211
350.153, 27.515
351.505, 4.177
352.858, 53.867
354.210, 100.562
355.563, 73.274
356.915, 78.996
358.267, 38.730
359.618, 88.468
360.969, 98.220
362.321, 45.990
363.672, 57.766
365.022, 34.551
366.373, 61.330
367.723, 23.874
369.073, 47.030
370.423, 43.049
371.773, 85.177
373.122, 47.385
374.471, 91.613
375.821, 110.916
377.169, 68.982
378.518, 165.142
379.866, 135.215
381.215, 120.284
382.563, 172.360
383.910, 164.309
385.258, 151.147
386.605, 188.243
387.952, 200.176
389.299, 162.330
390.646, 237.231
391.992, 247.214
393.339, 239.955
394.685, 299.860
396.031, 310.857
397.376, 378.700
398.722, 317.960
400.067, 422.741
401.412, 438.134
402.757, 494.053
404.101, 562.613
405.446, 648.231
406.790, 579.542
408.134, 697.807
409.478, 744.625
410.821, 845.206
412.165, 909.559
413.508, 970.063
414.851, 1088.218
416.193, 1214.833
417.536, 1360.616
418.878, 1551.281
420.220, 1761.600
421.562, 1998.675
422.904, 2188.899
424.245, 2381.840
425.586, 2776.164
426.927, 3194.457
428.268, 3674.816
429.609, 4023.541
430.949, 4437.906
432.289, 4963.596
433.629, 5670.268
434.969, 5918.938
436.309, 6454.615
437.648, 6602.300
438.987, 6833.817
440.326, 6748.105
441.665, 6437.592
443.003, 6184.433
444.342, 5912.233
445.680, 5464.230
447.018, 5291.216
448.355, 4990.690
449.693, 4756.654
451.030, 4533.767
452.367, 4555.708
453.704, 4510.638
455.041, 4611.556
456.377, 4810.462
457.713, 4751.356
459.049, 4867.240
460.385, 4876.113
461.721, 4861.974
463.056, 4734.821
464.391, 4442.657
465.726, 3985.482
467.061, 3743.293
468.395, 3463.094
469.730, 3104.881
471.064, 2832.657
472.398, 2457.420
473.731, 2267.172
475.065, 1936.910
476.398, 1803.637
477.731, 1590.351
479.064, 1515.052
480.397, 1345.742
481.729, 1164.418
483.062, 1065.083
484.394, 927.734
485.725, 916.374
487.057, 763.000
488.389, 703.615
489.720, 668.216
491.051, 582.804
492.382, 491.381
493.712, 422.944
495.043, 373.495
496.373, 308.033
497.703, 279.559
499.032, 257.205
500.362, 247.572
501.691, 250.060
503.020, 214.535
504.349, 229.997
505.678, 236.447
507.007, 144.884
508.335, 199.309
509.663, 169.721
510.991, 158.120
512.319, 157.407
513.646, 122.893
514.973, 152.930
516.300, 104.397
517.627, 127.529
518.954, 120.572
520.280, 107.112
521.607, 110.084
522.933, 88.723
524.259, 120.770
525.584, 55.864
526.910, 52.670
528.235, 74.917
529.560, 54.154
530.885, 48.380
532.209, 56.594
533.534, 39.799
534.858, 35.992
536.182, 75.172
537.506, 42.342
538.829, 50.501
540.152, 85.650
541.476, 89.791
542.799, 52.921
544.121, 0.043
545.444, 64.139
546.766, 14.226
548.088, 9.295
549.410, 52.656
550.732, 12.342
552.053, 50.679
553.375, 21.750
554.696, 6.855
556.017, 14.013
557.337, 32.865
558.658, 21.294
559.978, 31.485
561.298, 10.286
562.618, 66.960
563.938, 3.261
565.257, 15.585
566.576, 47.938
567.895, 57.334
569.214, 4.780
570.533, 35.248
571.851, 21.753
573.170, 65.287
574.488, 45.872
575.805, 40.499
577.123, 10.163
578.440, 86.848
579.758, 1.595
581.075, 16.642
582.391, 131.129
583.708, 10.018
585.024, 58.845
586.341, 44.751
587.657, 51.693
588.972, 46.674
590.288, 53.130
591.603, 53.853
592.918, 54.828
594.233, 55.963
595.548, 57.130
596.863, 55.334
598.177, 52.582
599.491, 39.972
600.805, 47.148
602.119, 13.479
603.432, 5.179
604.746, 9.833
606.059, 28.515
607.372, 68.120
608.685, 5.248
609.997, 26.380
611.309, 8.005
612.621, 11.630
613.933, 20.252
615.245, 52.875
616.557, 166.497
617.868, 64.118
619.179, 143.740
620.490, 102.361
621.801, 99.982
623.111, 153.604
624.421, 153.227
625.731, 176.851
627.041, 197.475
628.351, 241.101
629.660, 263.728
630.970, 288.666
632.279, 318.733
633.588, 333.620
634.896, 381.256
636.205, 405.893
637.513, 464.534
638.821, 516.177
640.129, 552.824
641.437, 630.474
642.744, 662.127
644.051, 635.785
645.358, 696.446
646.665, 741.112
647.972, 722.783
649.278, 827.458
650.584, 860.137
651.890, 863.823
653.196, 935.513
654.502, 896.209
655.807, 902.910
657.113, 802.618
658.418, 875.332
659.722, 948.052
661.027, 867.779
662.331, 796.512
663.636, 728.997
664.940, 803.451
666.244, 843.452
667.547, 850.852
668.851, 727.988
670.154, 771.069
671.457, 732.867
672.760, 676.691
674.062, 665.542
675.365, 670.417
676.667, 643.309
677.969, 685.228
679.271, 640.179
680.572, 673.149
681.874, 671.141
683.175, 655.137
684.476, 655.152
685.777, 692.192
687.077, 733.240
688.378, 654.262
689.678, 777.346
690.978, 683.277
692.278, 710.155
693.577, 656.288
694.877, 743.341
696.176, 712.499
697.475, 721.682
698.774, 782.885
700.072, 842.115
701.371, 780.746
702.669, 784.021
703.967, 833.495
705.265, 870.769
706.562, 896.333
707.860, 948.842
709.157, 940.624
710.454, 988.281
711.751, 1029.889
713.047, 1012.687
714.344, 994.101
715.640, 1133.025
716.936, 1066.368
718.232, 906.114
719.527, 1180.037
720.823, 1351.434
722.118, 1421.330
723.413, 1086.604
724.708, 1271.336
726.002, 1250.910
727.297, 1220.217
728.591, 1480.490
729.885, 1203.535
731.179, 1457.873
732.472, 1501.020
733.766, 1642.905
735.059, 1570.452
736.352, 1568.022
737.645, 1776.207
738.937, 1859.524
740.230, 1768.998
741.522, 1694.596
742.814, 1795.431
744.106, 1812.927
745.397, 1953.803
746.689, 2120.375
747.980, 2092.982
749.271, 2212.615
750.562, 2325.263
751.853, 2564.926
753.143, 2612.458
754.433, 2774.892
755.723, 2866.826
757.013, 2974.438
758.303, 3288.115
759.592, 3431.611
760.881, 3623.138
762.170, 3932.194
763.459, 4248.777
764.748, 4569.229
766.036, 4810.870
767.325, 5394.541
768.613, 5774.242
769.901, 6359.974
771.188, 7015.734
772.476, 7583.524
773.763, 9059.344
775.050, 9439.193
776.337, 10833.073
777.624, 12266.980
778.910, 13176.918
780.196, 14886.885
781.482, 16906.879
782.768, 19181.906
784.054, 21704.961
785.339, 24875.047
786.625, 28207.162
787.910, 31607.307
789.195, 35778.480
790.479, 39447.695
791.764, 43138.898
793.048, 48708.211
794.332, 49610.520
795.616, 51912.859
796.900, 53035.223
798.183, 53080.621
799.467, 51648.051
800.750, 49674.512
802.033, 48105.000
803.316, 43170.520
804.598, 40070.082
805.880, 35244.656
807.163, 32489.264
808.445, 28474.912
809.726, 25441.582
811.008, 22540.277
812.289, 20016.012
813.570, 17567.775
814.851, 15512.565
816.132, 13676.386
817.413, 11972.240
818.693, 10612.124
819.973, 9527.042
821.253, 8384.987
822.533, 7638.965
823.813, 6863.972
825.092, 6276.011
826.371, 5654.081
827.650, 5254.871
828.929, 4849.003
830.208, 4527.555
831.486, 4261.742
832.764, 3879.605
834.042, 3647.057
835.320, 3516.332
836.598, 3332.636
837.875, 3261.970
839.152, 3097.404
840.429, 3051.801
841.706, 3061.232
842.983, 2943.962
844.259, 2989.461
845.536, 3050.981
846.812, 3127.396
848.088, 3264.964
849.363, 3369.952
850.639, 3601.767
851.914, 3753.965
853.189, 3877.774
854.464, 4116.508
855.739, 4246.370
857.013, 4368.261
858.288, 4382.199
859.562, 4288.001
860.836, 4242.134
862.110, 4191.101
863.383, 3985.215
864.656, 3976.147
865.930, 3804.146
867.203, 3728.232
868.475, 3442.138
869.748, 3046.580
871.020, 2704.498
872.292, 2521.661
873.564, 2295.240
874.836, 2147.740
876.108, 1979.623
877.379, 1745.039
878.650, 1719.783
879.922, 1638.896
881.192, 1580.522
882.463, 1435.158
883.733, 1401.402
885.004, 1386.644
886.274, 1264.167
887.544, 1290.790
888.813, 1349.498
890.083, 1314.471
891.352, 1292.228
892.621, 1326.060
893.890, 1216.080
895.159, 1273.669
896.427, 1332.771
897.695, 1297.846
898.964, 1346.735
900.232, 1278.803
901.499, 1311.659
902.767, 1295.328
904.034, 1340.330
905.301, 1232.881
906.568, 1262.596
907.835, 1244.931
909.102, 1221.568
910.368, 1253.231
911.634, 1178.752
912.900, 1146.358
914.166, 1102.881
915.432, 1132.053
916.697, 1023.575
917.962, 925.993
919.227, 965.851
920.492, 842.711
921.757, 836.241
923.021, 776.012
924.285, 715.472
925.550, 741.300
926.813, 662.908
928.077, 598.608
929.341, 604.120
930.604, 471.643
931.867, 544.177
933.130, 471.724
934.393, 466.281
935.655, 409.124
936.918, 383.044
938.180, 403.586
939.442, 351.302
940.703, 296.921
941.965, 316.954
943.226, 252.676
944.488, 273.464
945.749, 229.574
947.009, 247.426
948.270, 202.105
949.530, 186.093
950.791, 151.464
952.051, 139.393
953.311, 131.294
954.570, 93.996
955.830, 135.758
957.089, 91.473
958.348, 112.334
959.607, 103.079
960.866, 134.949
962.124, 86.816
963.383, 42.662
964.641, 80.454
965.899, 75.216
967.156, 112.137
968.414, 75.182
969.671, 62.894
970.928, 111.847
972.185, 51.692
973.442, 49.509
974.699, 47.837
975.955, 9.814
977.211, 11.863
978.468, 31.167
979.723, 3.709
980.979, 20.446
982.234, 9.383
983.490, 27.718
984.745, 11.787
986.000, 5.140
987.254, 22.068
988.509, 24.321
989.763, 3.517
991.017, 3.336
992.271, 2.206
993.525, 57.963
994.779, 1.124
996.032, 51.108
997.285, 26.950
998.538, 14.844
999.791, 36.448
1001.044, 31.589
1002.296, 37.878
1003.548, 64.171
1004.800, 25.867
1006.052, 61.767
1007.304, 60.634
1008.555, 14.908
1009.807, 58.209
1011.058, 26.333
1012.309, 39.340
1013.559, 71.812
1014.810, 73.201
1016.060, 64.686
1017.310, 46.971
1018.560, 46.567
1019.810, 37.628
1021.060, 43.678
1022.309, 30.270
1023.558, 1.447
1024.807, 1.550
1026.056, 4.794
1027.305, 6.804
1028.553, 15.729
1029.801, 4.290
1031.049, 10.724
1032.297, 41.342
1033.545, 1.607
1034.793, 15.996
1036.040, 50.936
1037.287, 3.395
1038.534, 27.892
1039.781, 10.998
1041.027, 54.431
1042.274, 23.523
1043.520, 15.612
1044.766, 5.642
1046.012, 17.309
1047.257, 20.825
1048.503, 4.845
1049.748, 29.019
1050.993, 8.044
1052.238, 13.878
1053.483, 8.786
1054.727, 0.729
1055.971, 32.490
1057.216, 32.300
1058.459, 28.860
1059.703, 3.868
1060.947, 31.660
1062.190, 30.399
1063.433, 76.953
1064.676, 66.782
1065.919, 40.101
1067.162, 62.632
1068.404, 30.554
1069.646, 32.000
1070.888, 52.390
1072.130, 38.403
1073.372, 90.139
1074.613, 39.514
1075.855, 54.921
1077.096, 49.461
1078.337, 105.851
1079.578, 128.008
1080.818, 114.181
1082.059, 121.401
1083.299, 99.538
1084.539, 52.764
1085.779, 104.119
1087.018, 54.140
1088.258, 27.362
1089.497, 100.432
1090.736, 51.644
1091.975, 83.656
1093.213, 29.655
1094.452, 52.505
1095.690, 70.474
1096.928, 108.499
1098.166, 63.490
1099.404, 47.483
1100.642, 71.386
1101.879, 76.140
1103.116, 151.046
1104.353, 108.801
1105.590, 143.604
1106.827, 91.360
1108.063, 121.938
1109.299, 94.732
1110.536, 98.571
1111.771, 106.072
1113.007, 121.654
1114.243, 131.751
1115.478, 96.359
1116.713, 82.942
1117.948, 50.862
1119.183, 96.747
1120.418, 123.536
1121.652, 132.270
1122.886, 70.089
1124.120, 99.620
1125.354, 92.403
1126.588, 103.977
1127.821, 125.587
1129.055, 123.102
1130.288, 166.118
1131.521, 123.402
1132.753, 115.004
1133.986, 116.003
1135.218, 117.253
1136.450, 121.264
1137.682, 68.527
1138.914, 137.308
1140.146, 136.749
1141.377, 146.647
1142.609, 94.355
1143.840, 155.252
1145.071, 86.167
1146.301, 140.151
1147.532, 160.913
1148.762, 120.252
1149.992, 151.832
1151.222, 77.104
1152.452, 111.818
1153.682, 77.514
1154.911, 70.926
1156.140, 156.439
1157.369, 86.331
1158.598, 80.793
1159.827, 69.385
1161.055, 135.021
1162.284, 101.475
1163.512, 110.555
1164.740, 68.923
1165.967, 115.593
1167.195, 76.162
1168.422, 114.848
1169.650, 87.412
1170.877, 41.611
1172.103, 53.426
1173.330, 31.310
1174.557, 53.899
1175.783, 65.929
1177.009, 65.606
1178.235, 11.629
1179.461, 67.503
1180.686, 34.325
1181.912, 40.391
1183.137, 114.952
1184.362, 38.445
1185.587, 57.453
1186.811, 84.548
1188.036, 42.023
1189.260, 84.573
1190.484, 82.215
1191.708, 93.051
1192.932, 83.018
1194.155, 62.307
1195.378, 75.990
1196.602, 52.203
1197.825, 85.499
1199.047, 80.127
1200.270, 77.794
1201.492, 66.321
1202.715, 93.267
1203.937, 76.901
1205.159, 63.597
1206.380, 73.460
1207.602, 56.242
1208.823, 64.316
1210.044, 102.372
1211.265, 59.824
1212.486, 133.776
1213.707, 94.655
1214.927, 35.523
1216.147, 104.161
1217.367, 111.558
1218.587, 86.952
1219.807, 129.581
1221.027, 100.451
1222.246, 86.924
1223.465, 57.504
1224.684, 80.000
1225.903, 132.792
1227.121, 121.409
1228.340, 105.034
1229.558, 120.147
1230.776, 93.682
1231.994, 60.913
1233.212, 135.672
1234.429, 76.827
1235.646, 104.173
1236.864, 64.555
1238.081, 105.693
1239.297, 102.937
1240.514, 134.165
1241.730, 94.133
1242.947, 74.201
1244.163, 76.797
1245.378, 69.696
1246.594, 83.302
1247.810, 112.226
1249.025, 69.161
1250.240, 99.400
1251.455, 81.467
1252.670, 86.560
1253.885, 122.491
1255.099, 64.490
1256.313, 54.340
1257.527, 121.172
1258.741, 95.005
1259.955, 22.991
1261.168, 75.981
1262.382, 74.670
1263.595, 108.215
1264.808, 47.345
1266.021, 83.985
1267.233, 126.711
1268.446, 43.874
1269.658, 105.294
1270.870, 62.773
1272.082, 13.156
1273.294, 75.592
1274.505, 37.091
1275.716, 46.547
1276.928, 58.086
1278.139, 59.483
1279.349, 61.944
1280.560, 50.478
1281.770, 89.932
1282.981, 43.200
1284.191, 115.936
1285.401, 7.807
1286.610, 87.419
1287.820, 60.655
1289.029, 69.874
1290.239, 60.338
1291.448, 68.008
1292.656, 83.248
1293.865, 83.429
1295.073, 66.423
1296.282, 49.729
1297.490, 42.325
1298.698, 54.227
1299.906, 90.811
1301.113, 58.341
1302.320, 22.394
1303.528, 59.079
1304.735, 20.727
1305.942, 31.223
1307.148, 30.143
1308.355, 63.969
1309.561, 0.195
1310.767, 43.393
1311.973, 47.250
1313.179, 0.088
1314.384, 47.770
1315.590, 75.491
1316.795, 70.757
1318.000, 73.197
1319.205, 51.197
1320.410, 59.586
1321.614, 68.073
1322.819, 0.453
1324.023, 47.917
1325.227, 58.370
1326.431, 3.586
1327.634, 11.455
1328.838, 14.814
1330.041, 32.293
1331.244, 16.615
1332.447, 67.078
1333.650, 19.824
1334.852, 64.582
1336.055, 11.951
1337.257, 44.439
1338.459, 84.776
1339.661, 68.974
1340.862, 84.248
1342.064, 93.385
1343.265, 65.610
1344.466, 107.100
1345.667, 57.326
1346.868, 65.478
1348.068, 68.747
1349.269, 11.121
1350.469, 65.241
1351.669, 78.420
1352.869, 40.508
1354.069, 30.578
1355.268, 15.809
1356.468, 126.818
1357.667, 74.122
1358.866, 114.264
1360.065, 43.975
1361.263, 140.125
1362.462, 2.379
1363.660, 57.490
1364.858, 70.912
1366.056, 73.965
1367.254, 134.981
1368.451, 90.792
1369.649, 60.714
1370.846, 95.832
1372.043, 86.953
1373.240, 7.908
1374.436, 111.870
1375.633, 112.642
1376.829, 32.219
1378.025, 109.046
1379.221, 82.657
1380.417, 118.274
1381.613, 46.613
1382.808, 131.315
1384.003, 76.073
1385.199, 57.493
1386.393, 120.896
1387.588, 19.400
1388.783, 95.874
1389.977, 65.444
1391.171, 137.553
1392.365, 120.104
1393.559, 59.833
1394.753, 82.180
1395.946, 82.217
1397.140, 81.392
1398.333, 110.606
1399.526, 108.022
1400.719, 93.627
1401.911, 154.519
1403.104, 58.329
1404.296, 59.182
1405.488, 98.628
1406.680, 122.570
1407.872, 26.399
1409.063, 73.319
1410.255, 73.213
1411.446, 6.720
1412.637, 26.559
1413.828, 120.856
1415.018, 121.113
1416.209, 112.238
1417.399, 108.922
1418.589, 102.094
1419.779, 105.871
1420.969, 82.574
1422.159, 50.148
1423.348, 29.734
1424.537, 38.263
1425.726, 82.510
1426.915, 50.789
1428.104, 88.510
1429.293, 65.205
1430.481, 65.035
1431.669, 12.438
1432.857, 17.984
1434.045, 118.561
1435.233, 72.126
1436.420, 118.510
1437.608, 98.205
1438.795, 16.423
1439.982, 54.782
1441.169, 107.287
1442.355, 103.561
1443.542, 55.003
1444.728, 77.095
1445.914, 75.488
1447.100, 92.724
1448.286, 68.190
1449.472, 63.651
1450.657, 48.588
1451.842, 121.972
1453.027, 123.054
1454.212, 75.344
1455.397, 99.432
1456.581, 50.981
1457.766, 74.036
1458.950, 98.004
1460.134, 50.075
1461.318, 170.166
1462.501, 78.305
1463.685, 96.132
1464.868, 127.943
1466.051, 36.330
1467.234, 103.111
1468.417, 54.174
1469.600, 64.086
1470.782, 69.991
1471.965, 79.889
1473.147, 70.416
1474.329, 78.144
1475.510, 83.737
1476.692, 54.615
1477.873, 59.592
1479.055, 20.707
1480.236, 42.562
1481.416, 124.740
1482.597, 101.594
1483.778, 84.458
1484.958, 77.403
1486.138, 2.321
1487.318, 107.086
1488.498, 139.979
1489.678, 69.848
1490.857, 8.634
1492.037, 84.410
1493.216, 59.236
1494.395, 60.052
1495.574, 64.562
1496.752, 82.452
1497.931, 69.093
1499.109, 76.261
1500.287, 49.228
1501.465, 49.623
1502.643, 38.637
1503.820, 11.272
1504.998, 20.382
1506.175, 6.016
1507.352, 59.554
1508.529, 30.476
1509.706, 45.414
1510.882, 80.360
1512.059, 120.290
1513.235, 26.226
1514.411, 13.675
1515.587, 12.950
1516.762, 41.971
1517.938, 20.638
1519.113, 36.850
1520.288, 0.006
1521.463, 27.572
1522.638, 0.000
##END=



