##NAMES=Eskebornite
##RRUFFID=R060791
##IDEAL CHEMISTRY=CuFeSe_2_
##LOCALITY=Slavkovice Morava, Czech Republic
##OWNER=RRUFF
##SOURCE=Michael Scott
##DESCRIPTION=Brass colored metallic massive
##STATUS=The identification of this mineral is confirmed by single-crystal X-ray diffraction and chemical analysis.
##URL=rruff.info/R060791
##MEASURED CHEMISTRY=Cu_1.00_(Fe_0.98_Pb_0.02_)_Σ=1_(Se_1.93_S_0.07_)_Σ=2_ ; the lighter inclusions (not analyzed) contain (WDS scan only): Cu, Tl, Se, Fe 
154.7890, 0.0000000E+00
155.2710, 4.539612
155.7530, 10.03424
156.2350, 16.87292
156.7170, 20.34589
157.2000, 14.21851
157.6820, 23.70428
158.1640, 22.36041
158.6460, 21.67828
159.1280, 19.89966
159.6100, 11.57697
160.0920, 0.6489260
160.5740, 7.022278
161.0570, 3.267578
161.5390, 7.043823
162.0210, 21.42841
162.5030, 43.55054
162.9850, 65.42157
163.4670, 87.10120
163.9490, 107.4095
164.4310, 118.4986
164.9130, 105.5170
165.3960, 85.39606
165.8780, 75.29486
166.3600, 88.52057
166.8420, 108.0630
167.3240, 124.0573
167.8060, 136.3574
168.2880, 148.8510
168.7700, 162.1717
169.2530, 177.6249
169.7350, 197.2296
170.2170, 228.8119
170.6990, 260.7170
171.1810, 285.6208
171.6630, 304.0207
172.1450, 308.5138
172.6270, 285.8054
173.1090, 244.5440
173.5920, 203.2313
174.0740, 169.1002
174.5560, 140.7717
175.0380, 116.9643
175.5200, 97.32629
176.0020, 82.15631
176.4840, 71.16333
176.9660, 64.82635
177.4490, 64.68243
177.9310, 76.97028
178.4130, 95.20441
178.8950, 107.2461
179.3770, 109.1647
179.8590, 108.6784
180.3410, 115.3124
180.8230, 128.6541
181.3050, 145.4747
181.7880, 165.3906
182.2700, 187.2213
182.7520, 208.1091
183.2340, 226.2595
183.7160, 244.3848
184.1980, 266.8360
184.6800, 293.5496
185.1620, 322.7785
185.6450, 357.5361
186.1270, 394.9897
186.6090, 423.0957
187.0910, 432.2184
187.5730, 433.5281
188.0550, 456.5050
188.5370, 502.8307
189.0190, 556.1462
189.5010, 605.3463
189.9840, 650.3707
190.4660, 685.5759
190.9480, 701.9448
191.4300, 707.6987
191.9120, 736.5073
192.3940, 790.8660
192.8760, 855.9857
193.3580, 920.4202
193.8400, 983.8464
194.3230, 1037.915
194.8050, 1096.096
195.2870, 1149.131
195.7690, 1113.533
196.2510, 973.8546
196.7330, 786.8745
197.2150, 618.9722
197.6970, 468.3408
198.1800, 347.2478
198.6620, 266.4938
199.1440, 225.2538
199.6260, 190.2681
200.1080, 161.6345
200.5900, 138.9792
201.0720, 122.6566
201.5540, 113.0013
202.0360, 106.9996
202.5190, 104.7643
203.0010, 106.8883
203.4830, 105.7441
203.9650, 100.2555
204.4470, 92.57959
204.9290, 87.23901
205.4110, 84.73480
205.8930, 82.43665
206.3760, 78.13232
206.8580, 70.74280
207.3400, 68.13568
207.8220, 71.65051
208.3040, 79.28894
208.7860, 87.20880
209.2680, 96.83905
209.7500, 102.7894
210.2320, 100.2916
210.7140, 86.16064
211.1970, 77.70428
211.6790, 76.77448
212.1610, 81.87872
212.6430, 89.49487
213.1250, 100.8607
213.6070, 110.9073
214.0890, 116.4564
214.5720, 116.7376
215.0540, 116.2524
215.5360, 113.4792
216.0180, 109.5268
216.5000, 111.4277
216.9820, 121.8707
217.4640, 133.8447
217.9460, 143.3941
218.4280, 150.9337
218.9110, 154.8582
219.3930, 153.9271
219.8750, 148.7259
220.3570, 144.5430
220.8390, 142.9451
221.3210, 140.0354
221.8030, 131.2253
222.2850, 110.2177
222.7670, 99.44354
223.2500, 105.7396
223.7320, 126.6975
224.2140, 138.0671
224.6960, 135.1164
225.1780, 128.8459
225.6600, 127.6874
226.1420, 133.9820
226.6240, 140.1099
227.1070, 143.7878
227.5890, 145.4269
228.0710, 153.6440
228.5530, 174.5802
229.0350, 195.2999
229.5170, 203.8649
229.9990, 192.8967
230.4810, 184.8968
230.9630, 184.3242
231.4450, 191.0800
231.9280, 195.7964
232.4100, 197.6736
232.8920, 198.4194
233.3740, 199.5428
233.8560, 201.5696
234.3380, 201.7777
234.8200, 199.8448
235.3030, 195.7560
235.7850, 191.6437
236.2670, 187.3942
236.7490, 183.4159
237.2310, 180.5677
237.7130, 180.2560
238.1950, 176.7600
238.6770, 167.5062
239.1590, 152.0246
239.6410, 143.9037
240.1240, 146.6465
240.6060, 153.4708
241.0880, 157.6932
241.5700, 158.2096
242.0520, 158.0553
242.5340, 157.6890
243.0160, 157.1040
243.4980, 156.3727
243.9810, 153.7918
244.4630, 152.7298
244.9450, 156.9449
245.4270, 168.7897
245.9090, 181.3706
246.3910, 194.1492
246.8730, 207.3228
247.3550, 216.0538
247.8370, 217.5925
248.3200, 217.3255
248.8020, 221.2600
249.2840, 231.3139
249.7660, 241.5466
250.2480, 251.6491
250.7300, 261.9243
251.2120, 267.8628
251.6940, 267.9694
252.1760, 265.3326
252.6590, 262.9534
253.1410, 260.3626
253.6230, 259.0286
254.1050, 259.6219
254.5870, 262.3039
255.0690, 264.4892
255.5510, 266.7358
256.0330, 267.9763
256.5160, 267.0309
256.9980, 263.5931
257.4800, 258.4778
257.9620, 251.8828
258.4440, 243.7279
258.9260, 233.5013
259.4080, 219.3457
259.8900, 205.0811
260.3720, 194.8603
260.8550, 188.8374
261.3370, 186.7322
261.8190, 191.5374
262.3010, 203.6223
262.7830, 201.9688
263.2650, 182.1761
263.7470, 154.5912
264.2290, 128.1001
264.7110, 100.9746
265.1940, 80.77576
265.6760, 71.44601
266.1580, 72.65106
266.6400, 69.69775
267.1220, 61.02032
267.6040, 50.79855
268.0860, 44.31494
268.5690, 43.55347
269.0510, 39.04382
269.5330, 26.69724
270.0150, 7.435120
270.4970, 3.750275
270.9790, 4.372070
271.4610, 1.930511
271.9430, 4.826080
272.4250, 15.00348
272.9080, 21.16101
273.3900, 19.72409
273.8720, 11.73068
274.3540, 5.425720
274.8360, 0.8649900
275.3180, 2.289642
275.8000, 3.892792
276.2820, 3.631744
276.7640, 4.212219
277.2470, 6.829712
277.7290, 10.77258
278.2110, 11.51468
278.6930, 8.275330
279.1750, 4.554291
279.6570, 3.457397
280.1390, 5.105621
280.6210, 7.496979
281.1030, 10.82104
281.5860, 14.40726
282.0680, 15.22571
282.5500, 12.80740
283.0320, 10.12424
283.5140, 10.24350
283.9960, 13.10709
284.4780, 14.36377
284.9600, 12.83847
285.4430, 9.453186
285.9250, 6.686035
286.4070, 4.545837
286.8890, 3.074402
287.3710, 2.905701
287.8530, 3.801849
288.3350, 3.463135
288.8170, 1.177155
289.2990, 2.186523
289.7820, 5.562775
290.2640, 8.894470
290.7460, 10.06122
291.2280, 5.782806
291.7100, 2.532806
292.1920, 8.549469
292.6740, 11.33643
293.1560, 11.29868
293.6380, 7.155304
294.1210, 0.6108700
294.6030, 6.269409
295.0850, 4.559204
295.5670, 2.177521
296.0490, 7.372040
296.5310, 10.13660
297.0130, 11.10745
297.4960, 10.36258
297.9780, 8.244781
298.4600, 6.413971
298.9420, 6.746094
299.4240, 7.939117
299.9060, 7.274048
300.3880, 4.144958
300.8700, 0.2483220
301.3520, 3.166168
301.8350, 5.935211
302.3170, 7.435638
302.7990, 7.134857
303.2810, 5.470673
303.7630, 2.419312
304.2450, 2.447113
304.7270, 6.681091
305.2090, 6.299011
305.6910, 3.059937
306.1740, 0.7022400
306.6560, 1.090485
307.1380, 3.127930
307.6200, 6.376465
308.1020, 11.10361
308.5840, 14.65549
309.0660, 13.68930
309.5480, 10.93045
310.0300, 9.491058
310.5130, 11.82114
310.9950, 15.35040
311.4770, 18.78580
311.9590, 22.07611
312.4410, 23.38339
312.9230, 19.56378
313.4050, 13.73605
313.8870, 9.740051
314.3700, 10.15063
314.8520, 11.55276
315.3340, 11.98752
315.8160, 11.55121
316.2980, 12.00009
316.7800, 15.12344
317.2620, 18.97302
317.7440, 21.83722
318.2260, 21.84735
318.7090, 22.12845
319.1910, 25.09052
319.6730, 29.93961
320.1550, 31.70483
320.6370, 25.14923
321.1190, 17.28870
321.6010, 12.69693
322.0830, 15.33578
322.5650, 17.74142
323.0480, 18.33881
323.5300, 17.57202
324.0120, 17.08511
324.4940, 16.55032
324.9760, 16.81528
325.4580, 18.33365
325.9400, 22.24194
326.4220, 25.74625
326.9050, 29.82263
327.3870, 33.43420
327.8690, 33.91461
328.3510, 25.51028
328.8330, 18.99429
329.3150, 18.29880
329.7970, 26.24554
330.2790, 32.51636
330.7620, 38.90375
331.2440, 43.87582
331.7260, 43.92572
332.2080, 33.50424
332.6900, 25.62479
333.1720, 25.10751
333.6540, 34.37296
334.1360, 37.74823
334.6180, 31.59497
335.1000, 22.95959
335.5830, 20.88797
336.0650, 28.28931
336.5470, 35.35852
337.0290, 40.55344
337.5110, 43.86566
337.9930, 42.36203
338.4750, 33.65024
338.9570, 24.74246
339.4400, 24.05148
339.9220, 33.75891
340.4040, 39.36716
340.8860, 36.20316
341.3680, 27.19275
341.8500, 25.97931
342.3320, 34.43915
342.8140, 43.53409
343.2970, 44.77283
343.7790, 38.56915
344.2610, 35.82352
344.7430, 39.39017
345.2250, 45.81689
345.7070, 45.97647
346.1890, 39.64920
346.6710, 34.96216
347.1530, 41.43622
347.6350, 54.93491
348.1180, 57.11246
348.6000, 43.47794
349.0820, 26.27902
349.5640, 24.82080
350.0460, 35.76666
350.5280, 43.95053
351.0100, 36.77145
351.4920, 22.81335
351.9750, 17.54813
352.4570, 22.43674
352.9390, 30.61993
353.4210, 38.02475
353.9030, 43.40451
354.3850, 44.77582
354.8670, 36.12112
355.3490, 26.08469
355.8320, 25.40396
356.3140, 33.86810
356.7960, 40.31619
357.2780, 33.74683
357.7600, 21.69208
358.2420, 13.67642
358.7240, 14.75577
359.2060, 18.46228
359.6880, 23.85046
360.1710, 29.97720
360.6530, 31.34979
361.1350, 19.03238
361.6170, 4.794220
362.0990, 1.881866
362.5810, 6.164185
363.0630, 13.17529
363.5450, 11.60751
364.0270, 4.985626
364.5100, 2.943695
364.9920, 17.04608
365.4740, 29.07919
365.9560, 29.03793
366.4380, 7.398865
366.9200, 6.291275
367.4020, 4.026978
367.8840, 6.895996
368.3660, 15.29782
368.8490, 20.14685
369.3310, 22.92264
369.8130, 23.01462
370.2950, 19.56058
370.7770, 19.00604
371.2590, 24.93860
371.7410, 31.07700
372.2240, 30.78366
372.7060, 18.96072
373.1880, 10.23328
373.6700, 7.375458
374.1520, 9.955872
374.6340, 14.51788
375.1160, 22.43271
375.5980, 29.65518
376.0800, 32.54947
376.5620, 29.92068
377.0450, 29.34506
377.5270, 32.74954
378.0090, 37.81088
378.4910, 37.36597
378.9730, 30.58502
379.4550, 24.10074
379.9370, 23.21838
380.4190, 27.20969
380.9020, 25.78351
381.3840, 17.04761
381.8660, 6.939636
382.3480, 3.982269
382.8300, 7.581696
383.3120, 13.40543
383.7940, 21.59859
384.2760, 30.30946
384.7590, 34.94583
385.2410, 35.34436
385.7230, 34.13622
386.2050, 34.35034
386.6870, 34.71513
387.1690, 32.43704
387.6510, 24.72147
388.1330, 15.88747
388.6150, 9.549362
389.0980, 5.781784
389.5800, 4.765472
390.0620, 9.210770
390.5440, 15.26483
391.0260, 19.14259
391.5080, 20.05095
391.9900, 18.68295
392.4720, 12.37964
392.9540, 4.025177
393.4370, 1.7806999E-02
393.9190, 9.271881
394.4010, 18.43599
394.8830, 18.71689
395.3650, 6.054520
395.8470, 1.178223
396.3290, 9.481537
396.8110, 25.31696
397.2930, 31.71506
397.7760, 13.74278
398.2580, 0.8997650
398.7400, 4.157516
399.2220, 4.492996
399.7040, 8.696869
400.1860, 4.904495
400.6680, 0.6662900
401.1510, 4.063034
401.6330, 4.020416
402.1150, 4.052383
402.5970, 4.853836
403.0790, 5.823196
403.5610, 4.584930
404.0430, 0.3255920
404.5250, 4.505966
405.0070, 4.896332
405.4900, 8.2457997E-02
405.9720, 0.5491940
406.4540, 8.999832
406.9360, 19.30972
407.4180, 21.74280
407.9000, 15.67909
408.3820, 9.152496
408.8640, 4.346069
409.3460, 1.293732
409.8280, 0.8302000
410.3110, 3.258911
410.7930, 5.800598
411.2750, 4.584641
411.7570, 1.037888
412.2390, 1.086227
412.7210, 8.000732
413.2030, 16.42453
413.6850, 17.83675
414.1680, 13.35934
414.6500, 8.447464
415.1320, 5.444748
415.6140, 4.463440
416.0960, 6.707809
416.5780, 13.45969
417.0600, 18.71381
417.5420, 16.16528
418.0250, 9.238037
418.5070, 3.770081
418.9890, 1.227600
419.4710, 1.435760
419.9530, 5.936340
420.4350, 15.15929
420.9170, 21.59457
421.3990, 20.96764
421.8810, 17.23923
422.3640, 13.60545
422.8460, 9.296585
423.3280, 6.761505
423.8100, 7.301056
424.2920, 10.17624
424.7740, 11.96558
425.2560, 12.20084
425.7380, 13.08907
426.2200, 15.30359
426.7030, 19.96249
427.1850, 22.90909
427.6670, 24.29829
428.1490, 23.82414
428.6310, 20.23170
429.1130, 11.07008
429.5950, 5.105362
430.0770, 5.863541
430.5600, 12.52061
431.0420, 15.65126
431.5240, 14.32623
432.0060, 12.43927
432.4880, 14.32565
432.9700, 19.77817
433.4520, 21.90845
433.9340, 18.62952
434.4170, 12.99539
434.8990, 10.99800
435.3810, 12.33437
435.8630, 13.86246
436.3450, 13.80331
436.8270, 12.64311
437.3090, 11.19397
437.7910, 9.856537
438.2730, 8.963669
438.7550, 7.806122
439.2380, 6.910690
439.7200, 6.485855
440.2020, 7.213974
440.6840, 7.989395
441.1660, 7.230728
441.6480, 5.339920
442.1300, 5.007980
442.6120, 9.715897
443.0950, 15.21767
443.5770, 18.20830
444.0590, 17.24286
444.5410, 15.33543
445.0230, 12.26105
445.5050, 8.861374
445.9870, 6.811188
446.4690, 7.174805
446.9520, 8.120819
447.4340, 8.921753
447.9160, 9.299423
448.3980, 11.64751
448.8800, 19.46944
449.3620, 26.26021
449.8440, 25.32086
450.3260, 11.67838
450.8080, 2.577469
451.2900, 1.459518
451.7730, 6.206970
452.2550, 8.526062
452.7370, 7.644043
453.2190, 7.094757
453.7010, 10.03247
454.1830, 16.47008
454.6650, 17.81877
455.1470, 12.84370
455.6300, 6.116913
456.1120, 2.365082
456.5940, 1.540085
457.0760, 4.495178
457.5580, 14.34418
458.0400, 25.63571
458.5220, 28.40170
459.0040, 23.19507
459.4870, 16.52362
459.9690, 11.63776
460.4510, 8.307190
460.9330, 6.267517
461.4150, 5.778503
461.8970, 6.600143
462.3790, 8.272858
462.8610, 10.76880
463.3430, 14.07378
463.8260, 19.04166
464.3080, 24.15387
464.7900, 29.83125
465.2720, 36.39777
465.7540, 38.64447
466.2360, 31.49533
466.7180, 21.96733
467.2000, 15.39915
467.6820, 12.35561
468.1650, 12.15479
468.6470, 16.69609
469.1290, 24.04686
469.6110, 27.81468
470.0930, 25.93503
470.5750, 24.32353
471.0570, 26.05522
471.5390, 31.94911
472.0220, 33.42215
472.5040, 29.13893
472.9860, 23.40466
473.4680, 22.62025
473.9500, 26.81610
474.4320, 29.48299
474.9140, 28.99709
475.3960, 26.08241
475.8780, 20.92291
476.3610, 13.98709
476.8430, 9.110199
477.3250, 12.12782
477.8070, 18.54669
478.2890, 19.85858
478.7710, 14.46266
479.2530, 8.096985
479.7350, 4.404648
480.2170, 3.280685
480.7000, 4.564865
481.1820, 12.55919
481.6640, 19.10864
482.1460, 18.24539
482.6280, 10.98756
483.1100, 4.891571
483.5920, 2.344971
484.0740, 1.893494
484.5560, 2.993164
485.0390, 7.691971
485.5210, 10.03392
486.0030, 6.578003
486.4850, 1.331253
486.9670, 0.4566350
487.4490, 7.796158
487.9310, 13.59885
488.4140, 15.50266
488.8960, 13.63370
489.3780, 10.53400
489.8600, 4.990524
490.3420, 0.9872130
490.8240, 2.292023
491.3060, 9.233978
491.7880, 14.98407
492.2700, 18.88434
492.7530, 21.46585
493.2350, 25.37856
493.7170, 29.78841
494.1990, 28.80045
494.6810, 12.85860
495.1630, 7.853104
495.6450, 13.08199
496.1270, 3.406769
496.6090, 7.230469
497.0920, 6.316833
497.5740, 0.8474270
498.0560, 0.4286800
498.5380, 6.695358
499.0200, 13.94087
499.5020, 16.78401
499.9840, 16.48947
500.4660, 15.44432
500.9480, 13.15430
501.4310, 11.45639
501.9130, 11.19260
502.3950, 12.50494
502.8770, 14.23189
503.3590, 15.56920
503.8410, 17.29314
504.3230, 20.59625
504.8050, 29.22955
505.2880, 31.40511
505.7700, 22.96880
506.2520, 9.876572
506.7340, 7.042465
507.2160, 17.48242
507.6980, 25.77846
508.1800, 24.10461
508.6620, 14.42622
509.1450, 11.95285
509.6270, 17.35173
510.1090, 24.27470
510.5910, 26.67174
511.0730, 25.88295
511.5550, 26.69780
512.0370, 31.37680
512.5190, 34.82634
513.0010, 28.42746
513.4840, 15.53273
513.9660, 6.256546
514.4480, 8.629547
514.9300, 14.01492
515.4120, 16.35832
515.8940, 15.48904
516.3760, 14.63930
516.8580, 14.74126
517.3410, 14.91592
517.8230, 14.24789
518.3050, 10.72331
518.7870, 8.951614
519.2690, 9.724579
519.7510, 12.40067
520.2330, 16.79945
520.7150, 26.57129
521.1970, 31.87437
521.6800, 28.28058
522.1620, 16.08572
522.6440, 9.403870
523.1260, 9.620941
523.6080, 11.68997
524.0900, 11.83794
524.5720, 10.09793
525.0540, 8.299988
525.5360, 6.598129
526.0190, 4.951294
526.5010, 2.731415
526.9830, 0.3375550
527.4650, 0.6305540
527.9470, 2.502304
528.4290, 6.293106
528.9110, 5.129822
529.3930, 0.1965640
529.8750, 3.193176
530.3580, 2.487106
530.8400, 11.21060
531.3220, 18.27609
531.8040, 22.89845
532.2860, 23.60820
532.7680, 14.81775
533.2500, 3.089157
533.7320, 2.398499
534.2140, 7.424896
534.6970, 14.68961
535.1790, 14.91522
535.6610, 9.166672
536.1430, 6.507919
536.6250, 7.771988
537.1070, 10.77887
537.5890, 15.55150
538.0710, 23.00598
538.5540, 24.37224
539.0360, 17.86626
539.5180, 9.491089
540.0000, 7.573700
540.4820, 11.36208
540.9640, 13.94540
541.4460, 12.80229
541.9280, 10.07693
542.4110, 9.005341
542.8930, 9.371475
543.3750, 10.20236
543.8570, 11.58905
544.3390, 12.74959
544.8210, 12.13483
545.3030, 9.307831
545.7850, 8.617554
546.2680, 15.83699
546.7500, 24.46817
547.2320, 28.44003
547.7140, 20.93163
548.1960, 15.14392
548.6780, 14.30194
549.1600, 16.48625
549.6420, 16.48685
550.1240, 11.76865
550.6060, 8.581055
551.0890, 8.888977
551.5710, 12.71524
552.0530, 18.52008
552.5350, 27.53458
553.0170, 34.48505
553.4990, 34.31856
553.9810, 28.41936
554.4630, 23.04071
554.9450, 18.57782
555.4280, 15.53061
555.9100, 15.03026
556.3920, 17.18997
556.8740, 20.59358
557.3560, 25.32840
557.8380, 28.99522
558.3200, 30.02196
558.8020, 28.63623
559.2840, 24.52109
559.7670, 10.32048
560.2490, 1.584885
560.7310, 0.8256530
561.2130, 20.36896
561.6950, 33.90614
562.1770, 28.10684
562.6590, 14.99042
563.1410, 7.559174
563.6240, 9.679459
564.1060, 11.56029
564.5880, 11.93764
565.0700, 11.32851
565.5520, 11.28389
566.0340, 11.74081
566.5160, 13.02924
566.9980, 15.96121
567.4810, 20.12167
567.9630, 22.92065
568.4450, 24.50113
568.9270, 23.33012
569.4090, 13.75261
569.8910, 0.8335880
570.3730, 3.047516
570.8550, 7.563278
571.3380, 19.41840
571.8200, 20.51921
572.3020, 14.61450
572.7840, 8.338272
573.2660, 0.3275450
573.7480, 3.767593
574.2300, 2.162796
574.7120, 16.52344
575.1940, 24.01953
575.6770, 14.13205
576.1590, 3.680008
576.6410, 0.1242980
577.1230, 5.554047
577.6050, 10.82919
578.0870, 16.25374
578.5690, 21.13983
579.0510, 24.61620
579.5330, 26.64398
580.0160, 27.73018
580.4980, 27.89082
580.9800, 27.27090
581.4620, 26.06145
581.9440, 24.29843
582.4260, 22.15785
582.9080, 19.84471
583.3900, 17.17105
583.8720, 12.75182
584.3550, 6.861023
584.8370, 3.447281
585.3190, 7.523163
585.8010, 13.64957
586.2830, 17.25243
586.7650, 17.50072
587.2470, 15.15976
587.7290, 6.352173
588.2110, 3.052368
588.6940, 5.777328
589.1760, 6.911743
589.6580, 15.23215
590.1400, 14.79997
590.6220, 8.153137
591.1040, 5.313705
591.5860, 6.962692
592.0680, 9.649918
592.5510, 11.66054
593.0330, 13.06757
593.5150, 14.68996
593.9970, 16.62675
594.4790, 17.66394
594.9610, 14.41154
595.4430, 9.868484
595.9250, 11.47186
596.4070, 23.21263
596.8900, 32.89377
597.3720, 26.16132
597.8540, 11.80525
598.3360, 3.616608
598.8180, 13.70822
599.3000, 23.48122
599.7820, 24.97763
600.2650, 19.73741
600.7470, 17.44862
601.2290, 22.74431
601.7110, 26.71899
602.1930, 25.42842
602.6750, 17.94522
603.1570, 13.09045
603.6390, 11.20908
604.1210, 11.08412
604.6040, 12.58058
605.0860, 15.53343
605.5680, 15.69371
606.0500, 11.88139
606.5320, 6.884476
607.0140, 4.105972
607.4960, 3.250763
607.9780, 3.491852
608.4600, 4.706238
608.9430, 6.688965
609.4250, 9.896103
609.9070, 13.91467
610.3890, 17.00766
610.8710, 17.12674
611.3530, 17.24928
611.8350, 20.49681
612.3170, 29.20479
612.7990, 29.22021
613.2820, 11.85207
613.7640, 6.750565
614.2460, 14.90450
614.7280, 9.970932
615.2100, 2.696274
615.6920, 8.119278
616.1740, 18.06729
616.6560, 17.59477
617.1380, 7.468704
617.6210, 1.178131
618.1030, 5.007965
618.5850, 12.66331
619.0670, 12.93657
619.5490, 7.474350
620.0310, 3.914597
620.5130, 9.072281
620.9950, 16.17747
621.4770, 19.61418
621.9600, 18.93938
622.4420, 17.98909
622.9240, 18.14835
623.4060, 18.46910
623.8880, 18.35339
624.3700, 18.03520
624.8520, 16.61353
625.3340, 13.01039
625.8170, 9.176819
626.2990, 8.226761
626.7810, 11.08125
627.2630, 11.68132
627.7450, 7.395416
628.2270, 1.462570
628.7090, 4.663116
629.1910, 15.52625
629.6740, 22.78197
630.1560, 15.22926
630.6380, 3.231186
631.1200, 1.938477
631.6020, 10.29326
632.0840, 18.55128
632.5660, 19.07152
633.0480, 17.64137
633.5310, 19.62387
634.0130, 28.27095
634.4950, 31.52232
634.9770, 21.38344
635.4590, 8.338608
635.9410, 2.022461
636.4230, 5.034882
636.9050, 9.507050
637.3870, 16.31543
637.8700, 22.91006
638.3520, 22.79012
638.8340, 15.49588
639.3160, 10.95837
639.7980, 14.55858
640.2800, 21.68651
640.7620, 20.86313
641.2440, 13.42052
641.7260, 7.654633
642.2090, 11.17647
642.6910, 17.25233
643.1730, 20.12485
643.6550, 19.34509
644.1370, 15.62415
644.6190, 2.952942
645.1010, 8.489426
645.5830, 10.74019
646.0650, 5.087555
646.5480, 14.64902
647.0300, 15.18733
647.5120, 12.26697
647.9940, 14.26447
648.4760, 23.06584
648.9580, 27.72102
649.4400, 25.25922
649.9220, 18.83794
650.4040, 12.57054
650.8870, 7.204025
651.3690, 8.673431
651.8510, 30.61876
652.3330, 54.87997
652.8150, 53.55609
653.2970, 30.71217
653.7790, 10.55212
654.2610, 8.814041
654.7440, 12.24588
655.2260, 11.73465
655.7080, 4.799377
656.1900, 2.258820
656.6720, 12.18042
657.1540, 22.02798
657.6360, 22.32448
658.1180, 8.103958
658.6010, 0.1786040
659.0830, 0.3603520
659.5650, 3.513657
660.0470, 5.261642
660.5290, 5.195633
661.0110, 8.421600
661.4930, 18.55354
661.9750, 28.89749
662.4580, 28.27344
662.9400, 19.69838
663.4220, 12.04631
663.9040, 9.709290
664.3860, 9.716644
664.8680, 11.37344
665.3500, 14.26282
665.8320, 15.36131
666.3140, 11.56206
666.7970, 7.949753
667.2790, 6.526291
667.7610, 7.378876
668.2430, 10.59250
668.7250, 18.46320
669.2070, 24.40891
669.6890, 20.61366
670.1710, 7.588470
670.6530, 0.6513060
671.1350, 1.694214
671.6180, 6.349701
672.1000, 12.53990
672.5820, 19.42580
673.0640, 23.60843
673.5460, 23.53897
674.0280, 20.48674
674.5100, 11.54970
674.9920, 0.7828980
675.4740, 3.733353
675.9570, 8.407242
676.4390, 18.74063
676.9210, 20.71925
677.4030, 16.18013
677.8850, 14.09192
678.3670, 15.64731
678.8490, 17.03094
679.3310, 15.39384
679.8140, 11.47202
680.2960, 15.05246
680.7780, 26.63216
681.2600, 36.97214
681.7420, 38.21739
682.2240, 33.06494
682.7060, 24.67175
683.1880, 12.55289
683.6700, 4.270294
684.1530, 7.785995
684.6350, 16.37302
685.1170, 23.43535
685.5990, 27.67923
686.0810, 29.92076
686.5630, 30.07477
687.0450, 28.42488
687.5280, 24.91133
688.0100, 18.39204
688.4920, 12.94110
688.9740, 9.090988
689.4560, 6.786728
689.9380, 6.245895
690.4200, 7.366379
690.9020, 8.429199
691.3840, 8.689346
691.8670, 8.387878
692.3490, 7.619263
692.8310, 6.512985
693.3130, 5.738052
693.7950, 5.559357
694.2770, 5.911758
694.7590, 7.584137
695.2410, 10.22775
695.7230, 12.38405
696.2060, 15.40218
696.6880, 18.04666
697.1700, 19.72836
697.6520, 20.84427
698.1340, 18.06142
698.6160, 9.178802
699.0980, 2.139404
699.5800, 10.08629
700.0620, 28.89203
700.5450, 34.89563
701.0270, 21.25047
701.5090, 5.222565
701.9910, 7.735886
702.4730, 19.77126
702.9550, 25.56332
703.4370, 12.91260
703.9190, 3.096527
704.4020, 4.824005
704.8840, 14.07372
705.3660, 21.72017
705.8480, 27.64384
706.3300, 31.02682
706.8120, 31.13016
707.2940, 28.63383
707.7760, 26.13881
708.2580, 23.48111
708.7410, 22.05670
709.2230, 24.48563
709.7050, 28.22588
710.1870, 25.09145
710.6690, 15.69539
711.1510, 7.557632
711.6330, 5.279221
712.1150, 6.597076
712.5970, 10.75327
713.0800, 18.10876
713.5620, 23.00957
714.0440, 21.99376
714.5260, 19.16924
715.0080, 17.22000
715.4900, 16.51411
715.9720, 15.56252
716.4550, 13.67618
716.9370, 12.74651
717.4190, 15.80281
717.9010, 22.47746
718.3830, 27.38339
718.8650, 29.49162
719.3470, 30.36215
719.8290, 31.91701
720.3110, 33.64615
720.7940, 34.57161
721.2760, 33.76378
721.7580, 32.80644
722.2400, 33.08838
722.7220, 33.71875
723.2040, 32.68051
723.6860, 25.74280
724.1680, 22.62231
724.6510, 26.75769
725.1330, 35.44371
725.6150, 39.28297
726.0970, 37.70055
726.5790, 34.62340
727.0610, 31.06653
727.5430, 27.52193
728.0250, 25.32864
728.5070, 24.39964
728.9900, 24.07394
729.4720, 24.25945
729.9540, 24.61853
730.4360, 25.08469
730.9180, 25.66238
731.4000, 27.31435
731.8820, 33.45357
732.3640, 38.05006
732.8460, 37.25079
733.3280, 29.17336
733.8110, 24.33290
734.2930, 23.39568
734.7750, 23.85773
735.2570, 23.23203
735.7390, 21.85059
736.2210, 23.20184
736.7030, 28.34091
737.1850, 31.41318
737.6670, 21.60867
738.1500, 7.641388
738.6320, 2.882339
739.1140, 16.14450
739.5960, 27.61095
740.0780, 26.76408
740.5600, 20.65347
741.0420, 19.45403
741.5240, 29.92781
742.0070, 33.80161
742.4890, 26.41379
742.9710, 14.01315
743.4530, 8.711731
743.9350, 10.56757
744.4170, 13.81961
744.8990, 16.95482
745.3810, 20.19420
745.8640, 24.93396
746.3460, 30.21556
746.8280, 33.17421
747.3100, 30.03435
747.7920, 26.40460
748.2740, 26.10904
748.7560, 28.26459
749.2380, 28.06828
749.7210, 23.73511
750.2030, 18.55904
750.6850, 13.71310
751.1670, 8.960281
751.6490, 0.1345980
752.1310, 14.31601
752.6130, 21.84875
753.0950, 7.389954
753.5770, 18.60973
754.0600, 26.77180
754.5420, 17.79495
755.0240, 7.936157
755.5060, 7.857407
755.9880, 11.08574
756.4700, 12.45709
756.9520, 11.00845
757.4340, 10.82408
757.9160, 10.42522
758.3990, 12.40619
758.8810, 19.90219
759.3630, 35.69518
759.8450, 41.69119
760.3270, 35.67856
760.8090, 27.31494
761.2910, 27.73032
761.7730, 33.83257
762.2550, 33.91257
762.7380, 24.66391
763.2200, 15.99013
763.7020, 17.33899
764.1840, 23.70581
764.6660, 29.74246
765.1480, 36.56998
765.6300, 38.52534
766.1120, 28.65654
766.5940, 16.97957
767.0770, 15.72443
767.5590, 29.17818
768.0410, 36.53308
768.5230, 33.55244
769.0050, 26.92360
769.4870, 28.48659
769.9690, 35.82339
770.4510, 38.77101
770.9340, 31.99142
771.4160, 23.84264
771.8980, 22.04166
772.3800, 24.03749
772.8620, 25.16008
773.3440, 21.58449
773.8260, 19.88266
774.3080, 23.08670
774.7910, 28.76562
775.2730, 31.06532
775.7550, 28.76279
776.2370, 27.76703
776.7190, 30.80203
777.2010, 35.14378
777.6830, 33.80533
778.1650, 27.58548
778.6480, 20.46896
779.1300, 12.43993
779.6120, 5.708084
780.0940, 2.861053
780.5760, 3.138519
781.0580, 3.378937
781.5400, 0.9189150
782.0220, 1.357193
782.5040, 6.934830
782.9870, 21.99657
783.4690, 30.36801
783.9510, 30.86914
784.4330, 29.12137
784.9150, 28.19247
785.3970, 26.93425
785.8790, 19.50974
786.3610, 7.032867
786.8430, 1.702316
787.3260, 1.628540
787.8080, 9.148834
788.2900, 15.25774
788.7720, 19.56627
789.2540, 23.09840
789.7360, 27.87115
790.2180, 29.92551
790.7000, 26.18550
791.1820, 16.26358
791.6650, 13.51627
792.1470, 19.64857
792.6290, 24.78845
793.1110, 18.04094
793.5930, 5.592010
794.0750, 6.465652
794.5570, 20.92886
795.0390, 34.03467
795.5210, 34.81206
796.0040, 30.01398
796.4860, 23.94250
796.9680, 16.63596
797.4500, 11.35143
797.9320, 8.541611
798.4140, 7.228333
798.8960, 6.496597
799.3780, 6.042419
799.8600, 9.704529
800.3430, 18.23222
800.8250, 26.30849
801.3070, 29.92429
801.7890, 29.48860
802.2710, 24.48344
802.7530, 14.30382
803.2350, 5.991730
803.7180, 3.605545
804.2000, 4.761353
804.6820, 7.945572
805.1640, 14.56233
805.6460, 18.99359
806.1280, 20.21335
806.6100, 20.59462
807.0920, 23.07739
807.5740, 27.59166
808.0570, 26.88144
808.5390, 19.92969
809.0210, 11.90143
809.5030, 7.897018
809.9850, 5.530472
810.4670, 1.980545
810.9490, 3.268341
811.4310, 3.259338
811.9140, 12.39105
812.3960, 29.56705
812.8780, 35.16864
813.3600, 23.16284
813.8420, 12.48366
814.3240, 1.929230
814.8060, 4.884232
815.2880, 0.9268800
815.7700, 11.11827
816.2530, 15.94893
816.7350, 10.73380
817.2170, 4.037201
817.6990, 5.169144
818.1810, 8.856598
818.6630, 8.000656
819.1450, 2.696808
819.6270, 9.486893
820.1090, 7.798172
820.5920, 1.976776
821.0740, 5.379349
821.5560, 15.36397
822.0380, 21.54311
822.5200, 23.13179
823.0020, 21.73499
823.4840, 17.97972
823.9660, 12.86397
824.4480, 8.345749
824.9310, 4.194046
825.4130, 3.162781
825.8950, 11.42094
826.3770, 21.57964
826.8590, 25.85384
827.3410, 16.76955
827.8230, 11.21379
828.3050, 10.01111
828.7870, 11.56795
829.2700, 15.59729
829.7520, 22.12315
830.2340, 23.16553
830.7160, 16.86139
831.1980, 9.455765
831.6800, 6.854645
832.1620, 8.022049
832.6440, 12.23393
833.1270, 21.60632
833.6090, 27.86523
834.0910, 27.14763
834.5730, 22.30254
835.0550, 15.77695
835.5370, 5.214859
836.0190, 3.6789000E-02
836.5010, 1.190231
836.9840, 5.739395
837.4660, 11.28979
837.9480, 17.32439
838.4300, 21.02185
838.9120, 21.46918
839.3940, 21.73753
839.8760, 24.82274
840.3580, 28.95511
840.8410, 31.85591
841.3230, 32.26620
841.8050, 33.59286
842.2870, 37.71135
842.7690, 40.05548
843.2510, 36.15923
843.7330, 25.48537
844.2150, 19.01494
844.6970, 17.78731
845.1800, 18.79030
845.6620, 18.70409
846.1440, 18.17630
846.6260, 18.17926
847.1080, 18.86266
847.5900, 20.22388
848.0720, 23.23344
848.5540, 26.26646
849.0360, 27.96791
849.5190, 28.00674
850.0010, 27.97301
850.4830, 28.24968
850.9650, 27.45277
851.4470, 21.68982
851.9290, 13.60974
852.4110, 15.27707
852.8930, 28.54082
853.3750, 37.78696
853.8580, 23.76654
854.3400, 5.299545
854.8220, 0.1378780
855.3040, 15.51759
855.7860, 25.86571
856.2680, 27.57423
856.7500, 26.34563
857.2320, 26.03494
857.7140, 26.34384
858.1970, 24.78102
858.6790, 21.21565
859.1610, 17.17381
859.6430, 13.13860
860.1250, 9.767166
860.6070, 7.312149
861.0890, 5.744293
861.5710, 7.022263
862.0540, 17.18973
862.5360, 25.56230
863.0180, 25.51331
863.5000, 16.19971
863.9820, 11.09450
864.4640, 10.83073
864.9460, 12.22536
865.4280, 13.60339
865.9110, 14.96083
866.3930, 16.59671
866.8750, 18.39998
867.3570, 19.36514
867.8390, 17.32167
868.3210, 15.58411
868.8030, 17.07346
869.2850, 22.12091
869.7670, 22.94080
870.2500, 17.34213
870.7320, 11.11191
871.2140, 6.389130
871.6960, 3.083817
872.1780, 0.3459170
872.6600, 1.971283
873.1420, 1.580475
873.6240, 4.795135
874.1060, 12.14256
874.5890, 16.63518
875.0710, 18.46829
875.5530, 19.04752
876.0350, 16.58957
876.5170, 15.56311
876.9990, 17.47221
877.4810, 20.94307
877.9630, 22.23499
878.4450, 21.59550
878.9280, 20.47777
879.4100, 19.33754
879.8920, 17.87888
880.3740, 13.91080
880.8560, 9.369461
881.3380, 8.890717
881.8200, 19.49551
882.3020, 28.25592
882.7840, 30.02686
883.2670, 28.19003
883.7490, 29.47121
884.2310, 35.04292
884.7130, 36.65727
885.1950, 31.54321
885.6770, 24.05939
886.1590, 19.30748
886.6410, 17.19714
887.1240, 17.34140
887.6060, 20.93423
888.0880, 24.41965
888.5700, 26.26466
889.0520, 27.01926
889.5340, 27.20645
890.0160, 25.80820
890.4980, 27.10954
890.9810, 32.56252
891.4630, 37.90904
891.9450, 37.26617
892.4270, 32.07289
892.9090, 26.85820
893.3910, 22.47420
893.8730, 17.29326
894.3550, 7.713181
894.8380, 1.466766
895.3200, 5.731934
895.8020, 3.509201
896.2840, 1.791641
896.7660, 13.07201
897.2480, 22.24252
897.7300, 21.75937
898.2120, 13.19582
898.6940, 4.482895
899.1770, 3.937408
899.6590, 6.974884
900.1410, 4.365616
900.6230, 19.17358
901.1050, 28.43163
901.5870, 31.32230
902.0690, 32.78659
902.5510, 33.73535
903.0330, 33.14481
903.5160, 30.26794
903.9980, 25.45392
904.4800, 20.46599
904.9620, 14.83507
905.4440, 11.21365
905.9260, 14.44183
906.4080, 18.54764
906.8900, 15.57703
907.3720, 7.901016
907.8550, 5.157639
908.3370, 17.52884
908.8190, 25.94569
909.3010, 24.72615
909.7830, 17.20224
910.2650, 12.46094
910.7470, 10.49228
911.2290, 9.012238
911.7110, 7.054855
912.1940, 5.595703
912.6760, 7.024734
913.1580, 9.688278
913.6400, 10.06647
914.1220, 2.633301
914.6040, 1.356232
915.0860, 1.642380
915.5680, 7.555450
916.0510, 11.44832
916.5330, 13.64058
917.0150, 15.95105
917.4970, 18.30336
917.9790, 20.26567
918.4610, 21.91460
918.9430, 22.34076
919.4250, 19.12502
919.9070, 9.843979
920.3900, 4.773544
920.8720, 11.76978
921.3540, 20.43362
921.8360, 23.59216
922.3180, 20.24229
922.8000, 20.67613
923.2820, 25.45860
923.7640, 29.53177
924.2470, 27.12257
924.7290, 22.35458
925.2110, 20.94345
925.6930, 22.92564
926.1750, 26.14912
926.6570, 35.45236
927.1390, 40.56435
927.6210, 34.69189
928.1040, 20.49210
928.5860, 14.56290
929.0680, 17.70732
929.5500, 22.57526
930.0320, 27.63034
930.5140, 30.78227
930.9960, 27.04591
931.4780, 19.36198
931.9600, 13.94255
932.4430, 15.57076
932.9250, 17.39062
933.4070, 16.56317
933.8890, 15.04739
934.3710, 16.88527
934.8530, 23.06992
935.3350, 24.52809
935.8170, 18.36641
936.2990, 11.32829
936.7820, 13.99684
937.2640, 21.29211
937.7460, 24.11009
938.2280, 18.76170
938.7100, 14.10605
939.1920, 13.28108
939.6740, 14.93781
940.1560, 19.11823
940.6380, 27.10741
941.1210, 28.87134
941.6030, 23.88098
942.0850, 16.67924
942.5670, 7.223297
943.0490, 8.0886997E-02
943.5310, 4.116455
944.0130, 19.29459
944.4950, 29.15741
944.9770, 23.19702
945.4600, 14.89133
945.9420, 8.114426
946.4240, 3.462265
946.9060, 6.125854
947.3880, 16.52820
947.8700, 26.44330
948.3520, 33.66721
948.8340, 37.02487
949.3170, 31.99429
949.7990, 22.04553
950.2810, 15.10556
950.7630, 16.53038
951.2450, 18.21701
951.7270, 19.22986
952.2090, 19.20570
952.6910, 16.33755
953.1740, 10.30254
953.6560, 8.634918
954.1380, 12.98260
954.6200, 19.80171
955.1020, 30.64873
955.5840, 39.54160
956.0660, 37.10039
956.5480, 17.45706
957.0310, 2.958725
957.5130, 1.136108
957.9950, 0.2852630
958.4770, 4.426178
958.9590, 11.17807
959.4410, 19.19194
959.9230, 28.40379
960.4050, 31.63464
960.8870, 17.21744
961.3700, 0.2167660
961.8520, 7.186554
962.3340, 4.412491
962.8160, 1.593384
963.2980, 15.95938
963.7800, 23.54237
964.2620, 18.56244
964.7440, 6.654556
965.2260, 1.419724
965.7090, 2.376953
966.1910, 7.280304
966.6730, 18.40768
967.1550, 26.94817
967.6370, 20.76074
968.1190, 9.612411
968.6010, 6.921219
969.0830, 25.04012
969.5650, 32.51909
970.0480, 25.98026
970.5300, 15.90610
971.0120, 12.82605
971.4940, 14.88214
971.9760, 15.47098
972.4580, 13.90262
972.9400, 10.43607
973.4220, 0.4288020
973.9040, 7.947403
974.3870, 8.494614
974.8690, 1.145081
975.3510, 7.810867
975.8330, 19.72800
976.3150, 28.58438
976.7970, 31.91098
977.2790, 30.32779
977.7610, 22.30786
978.2440, 10.28917
978.7260, 1.596695
979.2080, 1.243469
979.6900, 2.694519
980.1720, 5.467804
980.6540, 7.839355
981.1360, 7.058197
981.6180, 2.418320
982.1010, 1.724289
982.5830, 5.371460
983.0650, 6.179901
983.5470, 1.664978
984.0290, 12.79520
984.5110, 18.71971
984.9930, 17.71259
985.4750, 16.18074
985.9570, 16.13226
986.4400, 15.94060
986.9220, 15.24231
987.4040, 13.89943
987.8860, 8.699402
988.3680, 0.1562810
988.8500, 6.088837
989.3320, 3.380737
989.8140, 2.410263
990.2960, 7.023636
990.7790, 10.42639
991.2610, 12.68556
991.7430, 13.02412
992.2250, 13.37309
992.7070, 13.88550
993.1890, 14.61526
993.6710, 17.04749
994.1530, 20.05913
994.6350, 16.46916
995.1180, 2.886642
995.6000, 5.642426
996.0820, 8.686630
996.5640, 27.92812
997.0460, 36.19009
997.5280, 31.07350
998.0100, 23.56741
998.4920, 12.28790
998.9740, 3.152847
999.4570, 8.8317998E-02
999.9390, 1.641220
1000.421, 6.652634
1000.903, 13.74890
1001.385, 17.94736
1001.867, 12.32436
1002.349, 8.108917
1002.831, 12.02402
1003.314, 18.95168
1003.796, 18.40489
1004.278, 9.575699
1004.760, 3.661087
1005.242, 2.866074
1005.724, 4.949692
1006.206, 9.476913
1006.688, 14.34778
1007.171, 16.74225
1007.653, 15.61638
1008.135, 14.00519
1008.617, 11.10561
1009.099, 9.565674
1009.581, 11.36842
1010.063, 16.04387
1010.545, 21.25070
1011.027, 26.53308
1011.510, 27.93944
1011.992, 17.94856
1012.474, 8.156372
1012.956, 7.457901
1013.438, 13.08014
1013.920, 15.62009
1014.402, 12.65773
1014.884, 13.27153
1015.367, 20.08652
1015.849, 28.01041
1016.331, 28.88960
1016.813, 25.18451
1017.295, 22.02620
1017.777, 20.59367
1018.259, 18.98991
1018.741, 15.41490
1019.223, 12.39644
1019.706, 11.28435
1020.188, 12.76959
1020.670, 13.68144
1021.152, 13.75465
1021.634, 14.18608
1022.116, 13.86542
1022.598, 15.70061
1023.080, 27.25165
1023.563, 43.43958
1024.045, 49.84436
1024.527, 34.75296
1025.009, 23.79434
1025.491, 20.49957
1025.973, 21.40569
1026.455, 22.42569
1026.937, 23.43358
1027.419, 24.18636
1027.901, 24.73901
1028.384, 24.08055
1028.866, 18.69998
1029.348, 14.26228
1029.830, 15.71854
1030.312, 22.96947
1030.794, 28.36539
1031.276, 31.92911
1031.758, 32.94604
1032.241, 30.68634
1032.723, 27.73241
1033.205, 26.61807
1033.687, 26.81772
1034.169, 27.25835
1034.651, 29.04694
1035.133, 28.74156
1035.615, 24.30215
1036.098, 19.63374
1036.580, 21.20934
1037.062, 27.53891
1037.544, 27.30548
1038.026, 19.16037
1038.508, 10.92918
1038.990, 7.300018
1039.472, 6.535858
1039.954, 7.800186
1040.437, 10.82532
1040.919, 14.24883
1041.401, 18.67876
1041.883, 22.69276
1042.365, 25.63582
1042.847, 28.44005
1043.329, 34.32150
1043.811, 41.11559
1044.293, 43.70203
1044.776, 36.66753
1045.258, 32.45908
1045.740, 35.64668
1046.222, 39.94652
1046.704, 39.84967
1047.186, 35.92543
1047.668, 29.92731
1048.150, 21.90726
1048.633, 16.91228
1049.115, 21.52942
1049.597, 28.00604
1050.079, 31.86333
1050.561, 32.62059
1051.043, 29.69473
1051.525, 21.44000
1052.007, 15.20036
1052.490, 12.94884
1052.972, 12.86835
1053.454, 12.04501
1053.936, 11.62274
1054.418, 12.45557
1054.900, 14.78445
1055.382, 18.47852
1055.864, 27.14465
1056.346, 33.09589
1056.828, 30.85117
1057.311, 21.37274
1057.793, 14.61499
1058.275, 10.43716
1058.757, 7.460999
1059.239, 2.613922
1059.721, 0.9049380
1060.203, 8.795074
1060.685, 21.71628
1061.168, 29.38855
1061.650, 30.76663
1062.132, 28.81369
1062.614, 22.97156
1063.096, 17.25952
1063.578, 16.35257
1064.060, 18.54767
1064.542, 22.73984
1065.025, 28.95007
1065.507, 30.02556
1065.989, 16.86198
1066.471, 6.933533
1066.953, 6.928131
1067.435, 14.16179
1067.917, 20.61449
1068.399, 26.03221
1068.881, 28.49295
1069.364, 25.97572
1069.846, 22.88857
1070.328, 22.28691
1070.810, 22.38538
1071.292, 21.14381
1071.774, 18.22229
1072.256, 14.94273
1072.738, 11.16115
1073.220, 8.185104
1073.703, 7.561218
1074.185, 8.049286
1074.667, 7.691330
1075.149, 6.937302
1075.631, 8.223221
1076.113, 17.29306
1076.595, 19.34995
1077.077, 8.506973
1077.559, 5.025696
1078.042, 1.758987
1078.524, 12.54462
1079.006, 20.10526
1079.488, 15.57825
1079.970, 11.66670
1080.452, 21.60458
1080.934, 29.41634
1081.416, 22.45786
1081.899, 3.468170
1082.381, 3.290207
1082.863, 21.50908
1083.345, 35.47874
1083.827, 32.18820
1084.309, 24.18134
1084.791, 21.32529
1085.273, 21.96498
1085.755, 23.71838
1086.238, 28.16057
1086.720, 29.00745
1087.202, 25.40506
1087.684, 20.72638
1088.166, 17.59135
1088.648, 15.55708
1089.130, 13.27960
1089.612, 11.04193
1090.094, 10.85786
1090.577, 16.13182
1091.059, 20.19948
1091.541, 21.28178
1092.023, 20.50476
1092.505, 20.47139
1092.987, 20.64163
1093.469, 16.78853
1093.951, 6.919052
1094.434, 1.170242
1094.916, 10.36000
1095.398, 22.92769
1095.880, 31.27200
1096.362, 34.99057
1096.844, 32.88675
1097.326, 24.60468
1097.808, 16.37257
1098.291, 9.890335
1098.773, 6.277115
1099.255, 10.67841
1099.737, 17.62234
1100.219, 18.02876
1100.701, 0.2012940
1101.183, 4.266327
1101.665, 8.691803
1102.147, 23.73039
1102.630, 26.46446
1103.112, 22.18202
1103.594, 22.49007
1104.076, 26.62173
1104.558, 28.06520
1105.040, 20.27785
1105.522, 14.36595
1106.004, 12.57263
1106.486, 14.33578
1106.969, 21.34081
1107.451, 31.95979
1107.933, 35.28636
1108.415, 28.58949
1108.897, 21.22084
1109.379, 16.96066
1109.861, 16.74673
1110.343, 23.29814
1110.826, 34.95178
1111.308, 41.56389
1111.790, 43.14322
1112.272, 36.98785
1112.754, 16.67570
1113.236, 1.186035
1113.718, 5.380234
1114.200, 22.63675
1114.682, 32.32144
1115.165, 30.39719
1115.647, 25.61244
1116.129, 16.77948
1116.611, 8.962418
1117.093, 5.747849
1117.575, 6.308380
1118.057, 11.95500
1118.539, 20.34769
1119.021, 24.21419
1119.504, 17.11015
1119.986, 10.89368
1120.468, 5.718552
1120.950, 3.126343
1121.432, 5.126114
1121.914, 10.59383
1122.396, 16.48250
1122.878, 22.48245
1123.361, 27.04955
1123.843, 29.59587
1124.325, 29.44823
1124.807, 25.32745
1125.289, 18.99658
1125.771, 15.46159
1126.253, 14.46243
1126.735, 12.44415
1127.218, 7.414764
1127.700, 5.871750
1128.182, 18.80508
1128.664, 32.74220
1129.146, 33.79913
1129.628, 21.71284
1130.110, 15.85938
1130.592, 16.59267
1131.074, 19.60573
1131.557, 24.68457
1132.039, 28.60115
1132.521, 26.18849
1133.003, 20.56758
1133.485, 16.85252
1133.967, 17.42842
1134.449, 17.00406
1134.931, 15.57906
1135.413, 11.66377
1135.896, 0.1524960
1136.378, 12.60278
1136.860, 11.12526
1137.342, 1.208893
1137.824, 11.03397
1138.306, 14.57544
1138.788, 13.55286
1139.270, 4.877823
1139.752, 2.709579
1140.235, 6.800842
1140.717, 26.12589
1141.199, 35.54260
1141.681, 32.90479
1142.163, 27.45157
1142.645, 19.81290
1143.127, 14.52974
1143.609, 14.54710
1144.092, 17.08902
1144.574, 13.45938
1145.056, 5.201279
1145.538, 0.9796910
1146.020, 3.331772
1146.502, 8.239960
1146.984, 16.44777
1147.466, 23.45079
1147.948, 25.59149
1148.431, 23.33556
1148.913, 21.66403
1149.395, 20.50793
1149.877, 18.04524
1150.359, 11.19394
1150.841, 6.273041
1151.323, 12.56752
1151.805, 21.30942
1152.287, 19.17072
1152.770, 0.2844390
1153.252, 2.099106
1153.734, 13.93987
1154.216, 28.53284
1154.698, 22.49062
1155.180, 11.85815
1155.662, 16.70644
1156.144, 30.17206
1156.627, 31.36499
1157.109, 11.09828
1157.591, 1.495880
1158.073, 7.236557
1158.555, 16.15068
1159.037, 14.78474
1159.519, 9.682983
1160.001, 9.460281
1160.484, 14.26593
1160.966, 20.16483
1161.448, 29.53584
1161.930, 33.58533
1162.412, 29.69801
1162.894, 21.66592
1163.376, 13.70892
1163.858, 6.414932
1164.340, 0.5252690
1164.823, 3.972595
1165.305, 5.113388
1165.787, 0.9515530
1166.269, 4.642670
1166.751, 11.31670
1167.233, 17.54166
1167.715, 18.76649
1168.197, 16.30623
1168.679, 13.60239
1169.162, 10.87697
1169.644, 10.34691
1170.126, 16.41798
1170.608, 20.85616
1171.090, 18.15477
1171.572, 10.02106
1172.054, 3.865021
1172.536, 8.1573002E-02
1173.019, 1.025665
1173.501, 1.179413
1173.983, 5.414139
1174.465, 35.27661
1174.947, 61.54922
1175.429, 56.52405
1175.911, 21.65308
1176.393, 0.2586980
1176.875, 8.631699
1177.358, 7.942566
1177.840, 8.429993
1178.322, 23.15868
1178.804, 26.58852
1179.286, 22.62350
1179.768, 14.59363
1180.250, 2.430603
1180.732, 0.7910310
1181.214, 6.202545
1181.697, 14.43448
1182.179, 18.15619
1182.661, 19.91904
1183.143, 22.38100
1183.625, 24.09412
1184.107, 19.06039
1184.589, 6.490143
1185.071, 0.7442320
1185.554, 4.819336
1186.036, 11.68042
1186.518, 17.45952
1187.000, 21.18477
1187.482, 20.79810
1187.964, 17.00049
1188.446, 15.20695
1188.928, 15.40749
1189.411, 18.61707
1189.893, 27.01328
1190.375, 32.45093
1190.857, 21.50061
1191.339, 6.055084
1191.821, 0.8540650
1192.303, 2.380676
1192.785, 6.443680
1193.267, 11.79410
1193.750, 14.47530
1194.232, 10.52629
1194.714, 5.881424
1195.196, 7.265930
1195.678, 11.50851
1196.160, 15.25620
1196.642, 17.90808
1197.124, 20.34706
1197.606, 22.49716
1198.089, 24.07947
1198.571, 24.88785
1199.053, 24.28548
1199.535, 19.22826
1200.017, 12.78818
1200.499, 11.15262
1200.981, 17.76390
1201.463, 23.13736
1201.945, 27.15002
1202.428, 29.60690
1202.910, 31.68524
1203.392, 31.15036
1203.874, 21.06950
1204.356, 5.694382
1204.838, 0.3467710
1205.320, 9.560669
1205.802, 16.86914
1206.285, 19.87582
1206.767, 21.30374
1207.249, 24.23692
1207.731, 26.85837
1208.213, 25.25778
1208.695, 20.50024
1209.177, 20.33815
1209.659, 29.83644
1210.141, 32.18259
1210.624, 23.25409
1211.106, 11.51308
1211.588, 5.389816
1212.070, 3.945648
1212.552, 8.802475
1213.034, 19.17377
1213.516, 21.98946
1213.998, 13.05267
1214.480, 5.401321
1214.963, 1.836578
1215.445, 1.001541
1215.927, 0.6287080
1216.409, 2.004639
1216.891, 9.320190
1217.373, 23.93599
1217.855, 28.06264
1218.337, 15.72949
1218.820, 6.868774
1219.302, 9.219391
1219.784, 15.03770
1220.266, 11.23943
1220.748, 3.584335
1221.230, 0.7827150
1221.712, 5.438599
1222.194, 8.708023
1222.677, 9.295746
1223.159, 10.86150
1223.641, 16.03453
1224.123, 21.87715
1224.605, 22.34811
1225.087, 20.97072
1225.569, 24.52011
1226.051, 39.62531
1226.533, 40.90811
1227.016, 23.78227
1227.498, 7.808044
1227.980, 3.573502
1228.462, 5.856339
1228.944, 8.674286
1229.426, 12.66025
1229.908, 20.09921
1230.390, 35.53387
1230.872, 41.59067
1231.355, 34.24530
1231.837, 26.89484
1232.319, 31.54131
1232.801, 39.11862
1233.283, 35.69147
1233.765, 25.60371
1234.247, 17.50046
1234.729, 12.30225
1235.212, 11.63495
1235.694, 16.05405
1236.176, 22.02161
1236.658, 30.01257
1237.140, 35.43262
1237.622, 29.90424
1238.104, 18.01236
1238.586, 10.20245
1239.068, 7.170624
1239.551, 8.829269
1240.033, 16.07349
1240.515, 21.89159
1240.997, 18.94930
1241.479, 12.99370
1241.961, 7.434830
1242.443, 4.029678
1242.925, 7.811310
1243.407, 21.46530
1243.890, 28.76967
1244.372, 27.57869
1244.854, 23.98436
1245.336, 22.45061
1245.818, 20.88242
1246.300, 16.98376
1246.782, 11.46945
1247.264, 6.987061
1247.747, 3.200424
1248.229, 3.205185
1248.711, 7.668915
1249.193, 12.73918
1249.675, 16.06071
1250.157, 18.40012
1250.639, 20.59044
1251.121, 21.78622
1251.604, 19.09094
1252.086, 12.30661
1252.568, 5.913681
1253.050, 0.7910920
1253.532, 0.7125240
1254.014, 8.994705
1254.496, 17.67139
1254.978, 14.04042
1255.460, 3.340561
1255.943, 2.512726
1256.425, 10.76263
1256.907, 14.25563
1257.389, 9.649933
1257.871, 5.719986
1258.353, 10.73587
1258.835, 15.70981
1259.317, 15.50269
1259.799, 11.38136
1260.281, 5.811951
1260.764, 0.3066560
1261.246, 1.784973
1261.728, 3.056656
1262.210, 9.580292
1262.692, 18.61000
1263.174, 24.95171
1263.656, 25.86694
1264.138, 23.00562
1264.621, 20.93715
1265.103, 19.22180
1265.585, 15.96997
1266.067, 10.19957
1266.549, 6.053192
1267.031, 4.910706
1267.513, 5.799850
1267.995, 9.098541
1268.478, 13.05667
1268.960, 14.87796
1269.442, 15.19516
1269.924, 17.04573
1270.406, 22.34656
1270.888, 24.44901
1271.370, 21.88182
1271.852, 17.61407
1272.334, 10.86426
1272.817, 5.602585
1273.299, 6.305756
1273.781, 9.543747
1274.263, 8.509979
1274.745, 1.249802
1275.227, 2.586136
1275.709, 8.338867
1276.191, 16.18924
1276.673, 11.04436
1277.156, 3.001144
1277.638, 8.614655
1278.120, 19.71016
1278.602, 23.16669
1279.084, 12.19290
1279.566, 6.687836
1280.048, 13.11545
1280.530, 18.18515
1281.013, 19.50305
1281.495, 17.87021
1281.977, 12.91061
1282.459, 6.292267
1282.941, 0.0000000E+00
##END=



