##NAMES=Eskolaite
##RRUFFID=R060892
##IDEAL CHEMISTRY=Cr_2_O_3_
##LOCALITY=Outokumpu, Finland
##OWNER=RRUFF
##SOURCE=Michael Scott
##DESCRIPTION=Black submetallic hexagonal prisms
##STATUS=The identification of this mineral has been confirmed by single-crystal X-ray diffraction.
##URL=rruff.info/R060892
206.3800, 0.0000000E+00
206.8621, 7.962891
207.3442, 2.106812
207.8263, 0.3272710
208.3084, 13.99048
208.7905, 28.01807
209.2727, 38.24304
209.7548, 45.51855
210.2369, 65.13428
210.7190, 57.62720
211.2011, 46.83020
211.6832, 38.47668
212.1654, 32.81592
212.6475, 25.32288
213.1296, 9.234253
213.6117, 5.807861
214.0938, 8.919312
214.5760, 3.439697
215.0581, 18.38025
215.5402, 23.39526
216.0223, 18.53503
216.5044, 15.16284
216.9865, 17.62000
217.4687, 22.21594
217.9508, 25.99670
218.4329, 28.98645
218.9150, 29.50354
219.3971, 23.10059
219.8792, 10.78870
220.3614, 5.449707
220.8435, 13.23816
221.3256, 26.95056
221.8077, 41.10571
222.2898, 56.09448
222.7719, 65.05774
223.2541, 59.44360
223.7362, 42.14697
224.2183, 28.55554
224.7004, 20.81445
225.1825, 19.64771
225.6646, 28.10547
226.1468, 46.02502
226.6289, 59.39368
227.1110, 55.30530
227.5931, 39.82056
228.0752, 34.07227
228.5573, 45.91040
229.0395, 60.71338
229.5216, 63.69690
230.0037, 56.24377
230.4858, 48.00269
230.9679, 41.76562
231.4500, 37.82776
231.9322, 36.63232
232.4143, 37.97546
232.8964, 42.82190
233.3785, 55.34399
233.8606, 73.51379
234.3427, 87.60156
234.8249, 94.48352
235.3070, 95.54980
235.7891, 91.28833
236.2712, 80.61902
236.7533, 69.84766
237.2354, 63.87646
237.7176, 62.08557
238.1997, 63.14526
238.6818, 70.14795
239.1639, 78.04980
239.6460, 80.87866
240.1281, 78.23059
240.6103, 74.14807
241.0924, 70.81384
241.5745, 68.33948
242.0566, 66.94116
242.5387, 67.87146
243.0208, 69.00110
243.5030, 68.44409
243.9851, 66.35852
244.4672, 64.49719
244.9493, 64.49792
245.4314, 65.39307
245.9135, 63.53381
246.3957, 53.85059
246.8778, 46.43420
247.3599, 49.47314
247.8420, 60.20825
248.3241, 68.35779
248.8062, 68.34583
249.2884, 62.81042
249.7705, 60.02087
250.2526, 58.45300
250.7347, 61.03003
251.2168, 73.42505
251.6989, 90.40173
252.1811, 100.8043
252.6632, 99.51587
253.1453, 91.09143
253.6274, 85.19116
254.1095, 80.71704
254.5916, 80.22180
255.0738, 86.55005
255.5559, 96.36035
256.0380, 105.8180
256.5201, 113.8090
257.0022, 120.2452
257.4843, 124.9449
257.9665, 127.3448
258.4486, 128.9366
258.9307, 125.4927
259.4128, 123.7504
259.8949, 131.8926
260.3770, 150.6293
260.8592, 172.3329
261.3413, 188.3291
261.8234, 191.3932
262.3055, 193.5281
262.7876, 198.1222
263.2697, 200.6853
263.7519, 200.3240
264.2340, 196.5527
264.7161, 197.7012
265.1982, 211.6992
265.6803, 239.6233
266.1624, 260.7031
266.6446, 276.7371
267.1267, 285.2667
267.6088, 277.5063
268.0909, 261.8435
268.5730, 256.9524
269.0551, 276.8728
269.5373, 317.9774
270.0194, 348.1952
270.5015, 358.2195
270.9836, 366.2126
271.4657, 371.9700
271.9478, 377.8956
272.4300, 387.8978
272.9121, 403.2122
273.3942, 420.8752
273.8763, 432.3159
274.3584, 429.8120
274.8405, 433.7024
275.3227, 452.5895
275.8048, 474.9059
276.2869, 488.2008
276.7690, 488.6699
277.2511, 487.0488
277.7332, 502.5687
278.2154, 543.3433
278.6975, 575.7729
279.1796, 585.0547
279.6617, 593.2576
280.1438, 616.2109
280.6259, 654.6897
281.1081, 694.2041
281.5902, 718.7983
282.0723, 727.5281
282.5544, 740.0793
283.0365, 756.8385
283.5186, 779.0376
284.0008, 811.0322
284.4829, 849.8394
284.9650, 885.3230
285.4471, 910.9111
285.9292, 927.6345
286.4113, 938.3984
286.8935, 937.6415
287.3756, 941.9138
287.8577, 960.9521
288.3398, 991.0728
288.8219, 1026.944
289.3040, 1073.565
289.7862, 1119.813
290.2683, 1145.785
290.7504, 1147.965
291.2325, 1152.380
291.7146, 1179.609
292.1967, 1214.525
292.6789, 1232.749
293.1610, 1225.767
293.6431, 1210.248
294.1252, 1200.437
294.6073, 1194.469
295.0894, 1179.236
295.5716, 1145.507
296.0537, 1104.462
296.5358, 1078.507
297.0179, 1073.971
297.5000, 1061.175
297.9821, 1025.068
298.4643, 973.4341
298.9464, 918.8687
299.4285, 864.1577
299.9106, 809.7689
300.3927, 754.8982
300.8748, 698.7893
301.3570, 647.7512
301.8391, 602.4874
302.3212, 562.6206
302.8033, 531.5658
303.2854, 508.0730
303.7675, 480.4872
304.2497, 435.9993
304.7318, 372.8047
305.2139, 327.7839
305.6960, 311.6697
306.1781, 300.0884
306.6602, 283.5603
307.1424, 262.8323
307.6245, 241.3193
308.1066, 220.9775
308.5887, 201.7566
309.0708, 183.3671
309.5529, 169.3425
310.0351, 152.0068
310.5172, 125.3086
310.9993, 97.03833
311.4814, 76.01392
311.9635, 65.58997
312.4456, 62.50085
312.9278, 62.40369
313.4099, 72.61096
313.8920, 69.53296
314.3741, 40.63452
314.8562, 8.891968
315.3383, 13.37170
315.8205, 23.63745
316.3026, 23.83826
316.7847, 10.75781
317.2668, 17.98279
317.7489, 30.59265
318.2310, 11.53149
318.7132, 7.620239
319.1953, 10.71033
319.6774, 3.268433
320.1595, 2.7588001E-02
320.6416, 12.19067
321.1237, 33.60767
321.6059, 47.32263
322.0880, 52.91943
322.5701, 52.07751
323.0522, 41.92285
323.5343, 27.06580
324.0164, 12.55676
324.4986, 0.5070800
324.9807, 12.65125
325.4628, 24.47192
325.9449, 35.91650
326.4270, 46.72986
326.9091, 58.91797
327.3913, 67.99377
327.8734, 65.62134
328.3555, 48.70337
328.8376, 38.25342
329.3197, 48.73071
329.8018, 70.82874
330.2840, 87.92847
330.7661, 96.56287
331.2482, 101.2375
331.7303, 106.0486
332.2124, 111.0040
332.6945, 116.6218
333.1767, 119.2106
333.6588, 125.3560
334.1409, 142.7185
334.6230, 169.4841
335.1051, 195.4323
335.5872, 213.4456
336.0694, 224.6354
336.5515, 240.3132
337.0336, 261.0745
337.5157, 284.8665
337.9979, 313.0806
338.4800, 343.7056
338.9621, 372.9833
339.4442, 399.4023
339.9263, 426.8438
340.4084, 462.5344
340.8906, 506.3394
341.3727, 560.4436
341.8548, 640.0189
342.3369, 717.2205
342.8190, 767.7595
343.3011, 792.7246
343.7833, 815.9929
344.2654, 865.7119
344.7475, 944.4221
345.2296, 1001.843
345.7117, 1026.880
346.1938, 1041.524
346.6760, 1055.108
347.1581, 1064.758
347.6402, 1064.101
348.1223, 1048.966
348.6044, 1022.630
349.0865, 993.5928
349.5687, 964.3531
350.0508, 921.6570
350.5329, 844.9253
351.0150, 759.3527
351.4971, 693.2671
351.9792, 654.7379
352.4614, 619.6470
352.9435, 565.2175
353.4256, 498.0419
353.9077, 444.8169
354.3898, 414.4009
354.8719, 395.0437
355.3541, 374.7628
355.8362, 353.7676
356.3183, 332.8295
356.8004, 309.2911
357.2825, 287.7749
357.7646, 274.7893
358.2468, 270.0040
358.7289, 266.0472
359.2110, 257.6765
359.6931, 245.2871
360.1752, 233.2274
360.6573, 221.0413
361.1395, 209.7229
361.6216, 199.2118
362.1037, 189.8224
362.5858, 181.9534
363.0679, 175.8092
363.5500, 171.2756
364.0322, 167.9878
364.5143, 163.4993
364.9964, 165.1204
365.4785, 179.1368
365.9606, 193.5715
366.4427, 201.7570
366.9249, 202.6270
367.4070, 197.4709
367.8891, 185.8503
368.3712, 167.9468
368.8533, 154.4932
369.3354, 146.0687
369.8176, 141.7491
370.2997, 141.8427
370.7818, 145.2052
371.2639, 150.7695
371.7460, 159.1246
372.2281, 167.0016
372.7103, 172.8533
373.1924, 176.0950
373.6745, 174.1030
374.1566, 161.7531
374.6387, 149.1091
375.1208, 148.5660
375.6030, 161.4069
376.0851, 169.8491
376.5672, 159.5983
377.0493, 139.6924
377.5314, 127.7269
378.0135, 126.3246
378.4957, 127.4309
378.9778, 124.7582
379.4599, 118.7836
379.9420, 112.9817
380.4241, 107.4722
380.9063, 103.4716
381.3884, 102.9347
381.8705, 104.5229
382.3526, 104.0715
382.8347, 98.47595
383.3168, 90.64648
383.7990, 88.87939
384.2811, 106.1884
384.7632, 111.9268
385.2453, 94.52771
385.7274, 73.15247
386.2095, 62.97766
386.6917, 66.25342
387.1738, 76.46375
387.6559, 88.62268
388.1380, 103.3679
388.6201, 110.2155
389.1022, 104.4475
389.5844, 95.54688
390.0665, 83.50659
390.5486, 71.16663
391.0307, 62.92505
391.5128, 60.65552
391.9949, 63.45251
392.4771, 71.77893
392.9592, 86.58142
393.4413, 98.26770
393.9234, 105.8970
394.4055, 107.0242
394.8876, 97.55981
395.3698, 76.57922
395.8519, 57.29492
396.3340, 43.64441
396.8161, 36.87903
397.2982, 43.16040
397.7803, 64.33118
398.2625, 83.30957
398.7446, 83.90454
399.2267, 66.34143
399.7088, 59.38599
400.1909, 74.27502
400.6730, 88.10632
401.1552, 92.57642
401.6373, 88.41406
402.1194, 75.13831
402.6015, 52.19910
403.0836, 27.33215
403.5657, 17.12793
404.0479, 36.10852
404.5300, 44.87854
405.0121, 34.06055
405.4942, 19.57666
405.9763, 11.69873
406.4584, 12.28540
406.9406, 17.16760
407.4227, 22.45813
407.9048, 27.64160
408.3869, 33.27368
408.8690, 40.22729
409.3511, 47.30420
409.8333, 58.66724
410.3154, 68.24036
410.7975, 66.61072
411.2796, 49.58923
411.7617, 31.69421
412.2438, 26.17139
412.7260, 31.39697
413.2081, 39.68774
413.6902, 51.91248
414.1723, 62.20471
414.6544, 60.20935
415.1365, 47.24402
415.6187, 39.98218
416.1008, 45.11304
416.5829, 54.58862
417.0650, 64.46899
417.5471, 73.32849
418.0292, 76.92517
418.5114, 72.69128
418.9935, 62.53857
419.4756, 51.53064
419.9577, 33.43494
420.4398, 23.08960
420.9219, 27.16504
421.4041, 35.62866
421.8862, 39.89246
422.3683, 38.37842
422.8504, 34.94629
423.3325, 33.22742
423.8146, 33.26355
424.2968, 34.68652
424.7789, 39.89941
425.2610, 43.31372
425.7431, 41.13635
426.2252, 36.69800
426.7073, 36.19019
427.1895, 43.71130
427.6716, 49.63794
428.1537, 35.75061
428.6358, 3.475830
429.1179, 10.76892
429.6000, 11.15149
430.0822, 40.64966
430.5643, 42.37451
431.0464, 18.27917
431.5285, 1.741089
432.0106, 7.091431
432.4927, 20.27246
432.9749, 30.13965
433.4570, 35.65222
433.9391, 35.61316
434.4212, 27.87634
434.9033, 15.78943
435.3854, 12.24475
435.8676, 28.05322
436.3497, 38.39075
436.8318, 38.86035
437.3139, 34.80151
437.7960, 29.64954
438.2781, 24.73193
438.7603, 21.19910
439.2424, 19.70886
439.7245, 20.23694
440.2066, 26.65051
440.6887, 44.94604
441.1708, 60.92749
441.6530, 71.63818
442.1351, 76.73193
442.6172, 73.92480
443.0993, 60.30762
443.5814, 46.58630
444.0635, 46.53516
444.5457, 58.27197
445.0278, 66.44080
445.5099, 66.73938
445.9920, 64.30676
446.4741, 64.62939
446.9562, 67.41968
447.4384, 69.67371
447.9205, 74.45447
448.4026, 75.60217
448.8847, 64.60754
449.3668, 45.29871
449.8489, 30.54175
450.3311, 27.01904
450.8132, 31.29077
451.2953, 34.61279
451.7774, 36.35339
452.2595, 38.12158
452.7416, 41.37024
453.2238, 43.56262
453.7059, 43.93652
454.1880, 41.80713
454.6701, 35.27808
455.1522, 20.59949
455.6343, 0.8792720
456.1165, 8.074341
456.5986, 2.090332
457.0807, 4.655762
457.5628, 6.298950
458.0449, 6.320068
458.5270, 8.462769
459.0092, 13.68250
459.4913, 18.17114
459.9734, 21.17505
460.4555, 21.35522
460.9376, 13.12695
461.4197, 5.159424
461.9019, 20.69116
462.3840, 20.42957
462.8661, 5.693115
463.3482, 1.601074
463.8303, 20.75317
464.3124, 35.31067
464.7946, 32.39185
465.2767, 20.25671
465.7588, 9.933594
466.2409, 5.084717
466.7230, 4.073853
467.2051, 4.972412
467.6873, 8.139282
468.1694, 11.54993
468.6515, 21.83508
469.1336, 25.12195
469.6157, 8.546875
470.0978, 17.23767
470.5800, 31.74939
471.0621, 23.49304
471.5442, 7.193237
472.0263, 2.660278
472.5084, 9.250977
472.9905, 14.73120
473.4727, 15.62280
473.9548, 14.89404
474.4369, 17.06885
474.9190, 22.02905
475.4011, 22.96289
475.8832, 10.83118
476.3654, 0.7392580
476.8475, 9.130859
477.3296, 30.10999
477.8117, 43.15759
478.2938, 37.23633
478.7759, 20.55005
479.2581, 12.77844
479.7402, 20.17102
480.2223, 25.55383
480.7044, 28.53369
481.1865, 29.90674
481.6686, 28.64526
482.1508, 25.98804
482.6329, 25.56799
483.1150, 30.93213
483.5971, 39.14783
484.0792, 41.17896
484.5613, 34.98145
485.0435, 34.40332
485.5256, 49.10376
486.0077, 68.08862
486.4898, 77.09094
486.9719, 74.78101
487.4540, 71.08167
487.9362, 67.26282
488.4183, 63.82959
488.9004, 61.16870
489.3825, 59.32410
489.8646, 59.05347
490.3467, 60.83301
490.8289, 64.29712
491.3110, 68.17371
491.7931, 71.93774
492.2752, 76.80481
492.7573, 82.55017
493.2394, 89.60974
493.7216, 101.7161
494.2037, 116.8367
494.6858, 125.3672
495.1679, 116.1740
495.6500, 94.53760
496.1321, 84.95886
496.6143, 90.86865
497.0964, 98.46533
497.5785, 103.8223
498.0606, 107.1322
498.5427, 108.1335
499.0248, 106.3334
499.5070, 104.6290
499.9891, 105.0122
500.4712, 106.0212
500.9533, 106.7650
501.4355, 106.7626
501.9176, 102.1689
502.3997, 88.92725
502.8818, 69.51208
503.3639, 58.27893
503.8460, 62.38184
504.3282, 65.91760
504.8103, 66.18433
505.2924, 66.33301
505.7745, 70.49475
506.2566, 78.28369
506.7387, 84.15466
507.2209, 81.24780
507.7030, 72.23157
508.1851, 72.23376
508.6672, 84.77783
509.1493, 96.16003
509.6314, 101.8365
510.1136, 102.3822
510.5957, 97.02136
511.0778, 83.78992
511.5599, 73.49487
512.0420, 72.54651
512.5241, 76.63867
513.0062, 80.79004
513.4883, 84.44739
513.9705, 87.21350
514.4526, 88.68677
514.9347, 89.71484
515.4168, 94.97607
515.8989, 109.7676
516.3810, 121.6625
516.8632, 126.6675
517.3453, 130.7393
517.8274, 140.2559
518.3095, 156.0129
518.7916, 171.4004
519.2737, 178.4625
519.7559, 178.8209
520.2380, 180.8453
520.7201, 185.2123
521.2022, 195.1182
521.6843, 216.5205
522.1664, 240.0280
522.6486, 249.4099
523.1307, 240.8967
523.6128, 236.1036
524.0949, 246.5420
524.5770, 261.2612
525.0591, 268.8713
525.5413, 269.0201
526.0234, 266.6631
526.5055, 264.1481
526.9876, 262.8374
527.4697, 268.1677
527.9518, 290.4977
528.4340, 298.9270
528.9161, 277.0067
529.3982, 254.0320
529.8803, 248.7435
530.3624, 260.3113
530.8445, 277.8519
531.3267, 301.0842
531.8088, 321.3984
532.2909, 316.0576
532.7730, 285.5674
533.2551, 274.1680
533.7372, 302.5664
534.2194, 346.3203
534.7015, 366.8301
535.1836, 358.4321
535.6657, 370.6798
536.1478, 418.0747
536.6299, 478.5867
537.1121, 543.8884
537.5942, 612.0151
538.0763, 676.9873
538.5584, 735.4998
539.0405, 795.1587
539.5226, 865.4685
540.0048, 944.5186
540.4869, 1042.777
540.9690, 1158.107
541.4511, 1298.090
541.9332, 1476.776
542.4153, 1680.945
542.8975, 1879.388
543.3796, 2054.619
543.8617, 2233.848
544.3438, 2443.100
544.8259, 2676.131
545.3080, 2917.854
545.7902, 3164.850
546.2723, 3419.788
546.7544, 3687.296
547.2365, 3970.022
547.7186, 4239.480
548.2007, 4501.920
548.6829, 4746.528
549.1650, 4998.989
549.6471, 5217.793
550.1292, 5367.320
550.6113, 5435.445
551.0934, 5412.108
551.5756, 5278.500
552.0577, 5042.671
552.5398, 4736.047
553.0219, 4346.371
553.5040, 3933.874
553.9861, 3510.347
554.4683, 3089.867
554.9504, 2689.722
555.4325, 2303.945
555.9146, 1960.016
556.3967, 1667.368
556.8788, 1420.238
557.3610, 1220.482
557.8431, 1062.204
558.3252, 924.8945
558.8073, 795.5583
559.2894, 677.5455
559.7715, 582.0251
560.2537, 514.0125
560.7358, 456.2844
561.2179, 417.6624
561.7000, 379.8669
562.1821, 326.0365
562.6642, 262.8080
563.1464, 215.5173
563.6285, 205.4550
564.1106, 205.7899
564.5927, 186.1169
565.0748, 151.4224
565.5569, 121.4346
566.0391, 101.9342
566.5212, 88.26257
567.0033, 75.35364
567.4854, 63.32056
567.9675, 50.85718
568.4496, 35.58081
568.9318, 22.69031
569.4139, 15.20496
569.8960, 10.33337
570.3781, 2.827271
570.8602, 8.155762
571.3423, 14.73462
571.8245, 4.326538
572.3066, 18.46948
572.7887, 30.61060
573.2708, 30.03760
573.7529, 24.78088
574.2350, 19.15100
574.7172, 11.36304
575.1993, 4.366455
575.6814, 35.85352
576.1635, 54.70850
576.6456, 47.11218
577.1277, 30.16309
577.6099, 13.20435
578.0920, 0.2948000
578.5741, 4.359131
579.0562, 5.648804
579.5383, 21.90649
580.0204, 24.17151
580.5026, 7.776001
580.9847, 1.561157
581.4668, 5.076660
581.9489, 13.17517
582.4310, 12.17688
582.9132, 4.686035
583.3953, 1.130737
583.8774, 1.037231
584.3596, 1.293213
584.8417, 8.827026
585.3238, 19.07507
585.8059, 21.67749
586.2880, 14.70911
586.7701, 7.620850
587.2523, 10.86646
587.7344, 23.61353
588.2165, 26.23010
588.6986, 11.38391
589.1807, 3.031250
589.6628, 18.87549
590.1450, 29.41516
590.6271, 24.87878
591.1092, 6.147949
591.5913, 9.423340
592.0734, 7.789673
592.5555, 1.498901
593.0377, 2.580200
593.5198, 3.162964
594.0019, 1.256104
594.4840, 16.58923
594.9661, 35.78503
595.4482, 32.13538
595.9304, 2.650757
596.4125, 30.88940
596.8946, 56.12085
597.3767, 71.93909
597.8588, 68.25012
598.3409, 56.45801
598.8231, 51.86987
599.3052, 59.43884
599.7873, 75.01282
600.2694, 96.57678
600.7515, 122.8450
601.2336, 148.7242
601.7158, 173.4352
602.1979, 200.6512
602.6800, 231.7635
603.1621, 267.1887
603.6442, 309.8442
604.1263, 365.4606
604.6085, 415.6472
605.0906, 447.7126
605.5727, 482.8619
606.0548, 537.1041
606.5369, 606.8540
607.0190, 681.0103
607.5012, 753.6375
607.9833, 826.6733
608.4654, 905.6677
608.9475, 990.1874
609.4296, 1067.024
609.9117, 1135.697
610.3939, 1192.512
610.8760, 1231.155
611.3581, 1254.944
611.8402, 1280.654
612.3223, 1329.979
612.8044, 1351.046
613.2866, 1320.398
613.7687, 1259.997
614.2508, 1187.181
614.7329, 1106.687
615.2150, 1020.101
615.6971, 927.3379
616.1793, 831.8049
616.6614, 743.0896
617.1435, 662.3405
617.6256, 583.1882
618.1077, 502.0242
618.5898, 425.7544
619.0720, 358.7798
619.5541, 301.3754
620.0362, 259.0120
620.5183, 242.5929
621.0004, 230.1461
621.4825, 210.5118
621.9647, 188.8051
622.4468, 173.4952
622.9289, 165.4012
623.4110, 156.8093
623.8931, 138.7117
624.3752, 115.1854
624.8574, 111.1947
625.3395, 135.3048
625.8216, 151.9268
626.3037, 145.6622
626.7858, 133.9797
627.2679, 134.2902
627.7501, 145.4012
628.2322, 152.9414
628.7143, 148.2223
629.1964, 143.2434
629.6785, 148.1693
630.1606, 158.6921
630.6428, 166.0028
631.1249, 168.1404
631.6070, 169.7593
632.0891, 175.7506
632.5712, 185.8597
633.0533, 197.2222
633.5355, 211.3818
634.0176, 219.5051
634.4997, 212.4276
634.9818, 205.5133
635.4639, 213.4559
635.9460, 236.1821
636.4282, 261.4401
636.9103, 292.5574
637.3924, 316.9023
637.8745, 320.5538
638.3566, 312.8345
638.8387, 312.0779
639.3209, 323.1755
639.8030, 336.3379
640.2851, 339.6709
640.7672, 333.8315
641.2493, 334.1235
641.7314, 342.0895
642.2136, 352.2336
642.6957, 364.1289
643.1778, 376.4390
643.6599, 389.3470
644.1420, 402.9573
644.6241, 410.8126
645.1063, 404.3718
645.5884, 397.1924
646.0705, 401.1284
646.5526, 412.4539
647.0347, 423.3945
647.5168, 430.5050
647.9990, 432.5161
648.4811, 426.1746
648.9632, 412.4047
649.4453, 411.5193
649.9274, 431.5033
650.4095, 445.2277
650.8917, 436.3508
651.3738, 420.8857
651.8559, 417.7561
652.3380, 427.6588
652.8201, 433.0940
653.3022, 427.0818
653.7844, 419.9319
654.2665, 416.2490
654.7486, 415.2820
655.2307, 416.1914
655.7128, 418.3019
656.1949, 418.1008
656.6771, 411.9153
657.1592, 399.7115
657.6413, 378.9641
658.1234, 343.8279
658.6055, 317.4384
659.0876, 311.5974
659.5698, 315.7892
660.0519, 318.2341
660.5340, 319.1771
661.0161, 314.4558
661.4982, 299.7703
661.9803, 282.6743
662.4625, 262.6732
662.9446, 245.1195
663.4267, 241.6365
663.9088, 253.8145
664.3909, 266.5404
664.8730, 260.6128
665.3552, 241.2260
665.8373, 240.2744
666.3194, 261.8364
666.8015, 279.5092
667.2836, 281.4192
667.7657, 278.8860
668.2479, 287.5374
668.7300, 307.8350
669.2121, 324.8240
669.6942, 329.5361
670.1763, 339.4424
670.6584, 366.9030
671.1406, 401.4376
671.6227, 430.9475
672.1048, 452.3694
672.5869, 467.2742
673.0690, 472.6857
673.5511, 474.8964
674.0333, 492.3046
674.5154, 525.0989
674.9975, 561.6409
675.4796, 601.6266
675.9617, 635.9597
676.4438, 652.0586
676.9260, 648.6589
677.4081, 653.8772
677.8902, 672.0605
678.3723, 692.1812
678.8544, 712.5000
679.3365, 733.6510
679.8187, 757.0282
680.3008, 782.2308
680.7829, 806.8381
681.2650, 830.0784
681.7471, 850.7155
682.2292, 865.2852
682.7114, 874.9084
683.1935, 884.3663
683.6756, 894.2783
684.1577, 909.8595
684.6398, 938.4490
685.1219, 977.4506
685.6041, 1000.130
686.0862, 996.2930
686.5683, 991.6870
687.0504, 983.9456
687.5325, 981.5151
688.0146, 992.6636
688.4968, 1013.361
688.9789, 1032.162
689.4610, 1048.561
689.9431, 1055.529
690.4252, 1039.597
690.9073, 1014.778
691.3895, 1006.656
691.8716, 1014.473
692.3537, 1018.645
692.8358, 1005.445
693.3179, 982.8127
693.8000, 974.9047
694.2822, 987.1094
694.7643, 981.4597
695.2464, 940.4688
695.7285, 901.5034
696.2106, 891.6641
696.6927, 898.1437
697.1749, 895.7075
697.6570, 879.1536
698.1391, 858.1824
698.6212, 833.2400
699.1033, 809.2573
699.5854, 788.6619
700.0676, 770.9653
700.5497, 756.6427
701.0318, 746.7080
701.5139, 738.7440
701.9960, 729.5383
702.4781, 719.0391
702.9603, 705.8513
703.4424, 690.5582
703.9245, 668.4211
704.4066, 631.5027
704.8887, 591.2139
705.3708, 569.9033
705.8530, 573.8669
706.3351, 576.4062
706.8172, 580.5890
707.2993, 575.6914
707.7814, 550.1185
708.2635, 516.7756
708.7457, 492.4019
709.2278, 480.6934
709.7099, 473.9062
710.1920, 466.5160
710.6741, 459.8926
711.1563, 457.2042
711.6384, 457.6505
712.1205, 457.6228
712.6026, 455.9795
713.0847, 447.5728
713.5668, 423.5386
714.0490, 384.4833
714.5311, 365.8420
715.0132, 385.1862
715.4953, 396.2881
715.9774, 386.7877
716.4595, 369.1866
716.9417, 350.6359
717.4238, 331.9235
717.9059, 313.7437
718.3880, 293.0956
718.8701, 277.1731
719.3522, 276.0735
719.8344, 281.0691
720.3165, 276.5710
720.7986, 260.4708
721.2807, 241.5562
721.7628, 225.7495
722.2449, 211.7736
722.7271, 194.8363
723.2092, 174.2823
723.6913, 164.7921
724.1734, 172.6353
724.6555, 179.4944
725.1376, 174.1571
725.6198, 159.0968
726.1019, 140.2894
726.5840, 112.3921
727.0661, 93.35132
727.5482, 92.39099
728.0303, 93.29517
728.5125, 86.88672
728.9946, 75.96509
729.4767, 66.03748
729.9588, 58.89453
730.4409, 52.47034
730.9230, 43.49866
731.4052, 34.74585
731.8873, 33.45300
732.3694, 38.08997
732.8515, 38.27161
733.3336, 29.94495
733.8157, 17.50928
734.2979, 5.488647
734.7800, 6.140503
735.2621, 10.23389
735.7442, 1.496948
736.2263, 4.504517
736.7084, 1.643188
737.1906, 3.799072
737.6727, 7.295410
738.1548, 8.754150
738.6369, 8.834473
739.1190, 8.240723
739.6011, 5.470337
740.0833, 2.373657
740.5654, 11.51978
741.0475, 17.81348
741.5296, 20.81909
742.0117, 22.09229
742.4938, 22.87646
742.9760, 21.72595
743.4581, 14.99268
743.9402, 3.683350
744.4223, 7.377808
744.9044, 18.05347
745.3865, 23.78113
745.8687, 20.79053
746.3508, 12.40295
746.8329, 5.941406
747.3150, 0.8768310
747.7971, 0.1849370
748.2792, 25.96460
748.7614, 40.35693
749.2435, 15.56238
749.7256, 20.00159
750.2077, 24.23743
750.6898, 10.05505
751.1719, 33.86426
751.6541, 12.34229
752.1362, 18.49097
752.6183, 26.99109
753.1004, 20.76038
753.5825, 16.55029
754.0646, 18.54834
754.5468, 21.30908
755.0289, 20.48938
755.5110, 16.04224
755.9931, 5.165771
756.4752, 12.92773
756.9573, 20.50098
757.4395, 11.81873
757.9216, 2.292114
758.4037, 15.27795
758.8858, 26.21570
759.3679, 30.15381
759.8500, 19.66211
760.3322, 12.86975
760.8143, 13.57178
761.2964, 14.48926
761.7785, 12.78577
762.2606, 8.041260
762.7427, 2.060669
763.2249, 19.69556
763.7070, 30.85950
764.1891, 22.76367
764.6712, 6.463623
765.1533, 8.231201
765.6354, 19.61584
766.1176, 25.11121
766.5997, 23.94385
767.0818, 18.74646
767.5639, 11.56055
768.0460, 3.081787
768.5281, 3.540161
769.0103, 8.686890
769.4924, 7.394897
769.9745, 4.442627
770.4566, 17.51953
770.9387, 22.67480
771.4208, 20.44287
771.9030, 18.36353
772.3851, 14.11084
772.8672, 13.36682
773.3493, 19.39404
773.8314, 26.48584
774.3135, 31.22852
774.7957, 34.09790
775.2778, 38.16809
775.7599, 46.34204
776.2420, 47.25671
776.7241, 22.46423
777.2062, 6.204590
777.6884, 10.61694
778.1705, 5.169312
778.6526, 25.18445
779.1347, 42.92810
779.6168, 56.39624
780.0989, 62.79321
780.5811, 62.69702
781.0632, 58.31226
781.5453, 49.01477
782.0274, 40.85510
782.5095, 34.10205
782.9916, 33.10522
783.4738, 44.81604
783.9559, 67.89612
784.4380, 80.63940
784.9201, 73.86963
785.4022, 69.26636
785.8843, 71.62634
786.3665, 74.09167
786.8486, 70.89587
787.3307, 64.72632
787.8128, 62.65002
788.2949, 67.79065
788.7770, 72.24048
789.2592, 72.61450
789.7413, 69.76147
790.2234, 61.42969
790.7055, 51.10498
791.1876, 47.40747
791.6697, 52.90479
792.1519, 59.77515
792.6340, 59.07825
793.1161, 53.26660
793.5982, 51.18909
794.0803, 52.30371
794.5624, 49.36182
795.0446, 39.24390
795.5267, 32.36804
796.0088, 40.63367
796.4909, 60.18945
796.9730, 64.63696
797.4551, 44.79785
797.9373, 30.72363
798.4194, 29.55054
798.9015, 29.34570
799.3836, 20.77161
799.8657, 9.268311
800.3478, 6.126465
800.8300, 15.01562
801.3121, 23.03259
801.7942, 25.88562
802.2763, 27.18323
802.7584, 28.18079
803.2405, 29.83252
803.7227, 34.39685
804.2048, 42.05603
804.6869, 48.60181
805.1690, 50.21521
805.6511, 49.25671
806.1332, 49.29517
806.6154, 49.25623
807.0975, 43.90601
807.5796, 32.29443
808.0617, 25.64465
808.5438, 33.11731
809.0259, 47.07214
809.5081, 51.16101
809.9902, 43.30286
810.4723, 41.47925
810.9544, 50.05420
811.4365, 54.98755
811.9186, 44.85425
812.4008, 30.93164
812.8829, 35.24585
813.3650, 65.16174
813.8471, 80.14368
814.3292, 69.97729
814.8113, 56.77283
815.2935, 42.45410
815.7756, 32.56433
816.2577, 32.88940
816.7398, 41.76538
817.2219, 50.41675
817.7040, 56.34851
818.1862, 60.22510
818.6683, 62.94885
819.1504, 63.61255
819.6325, 60.47852
820.1146, 54.08704
820.5967, 44.49146
821.0789, 31.18311
821.5610, 21.32202
822.0431, 27.52844
822.5252, 44.96216
823.0073, 56.52161
823.4894, 61.96167
823.9716, 70.58594
824.4537, 86.47754
824.9358, 93.89966
825.4179, 72.47229
825.9000, 27.56567
826.3821, 6.299805
826.8643, 17.08484
827.3464, 23.01880
827.8285, 13.60449
828.3106, 7.613403
828.7927, 22.32092
829.2748, 49.14783
829.7570, 62.87341
830.2391, 58.29578
830.7212, 54.00525
831.2033, 53.29993
831.6854, 51.12585
832.1675, 43.73022
832.6497, 34.38831
833.1318, 26.34021
833.6139, 20.32349
834.0960, 17.35681
834.5781, 17.28455
835.0602, 19.75781
835.5424, 32.51782
836.0245, 46.86133
836.5066, 44.53162
836.9887, 27.70898
837.4708, 15.98767
837.9529, 20.81799
838.4351, 30.28259
838.9172, 24.04993
839.3993, 9.582764
839.8814, 17.52332
840.3635, 46.13794
840.8456, 55.64539
841.3278, 28.70154
841.8099, 4.892334
842.2920, 7.124634
842.7741, 18.16833
843.2562, 30.14673
843.7383, 24.83716
844.2205, 22.15356
844.7026, 27.84192
845.1847, 33.23499
845.6668, 30.89722
846.1489, 23.29541
846.6310, 19.07471
847.1132, 17.60669
847.5953, 20.90173
848.0774, 37.61316
848.5595, 49.11682
849.0416, 44.82251
849.5237, 32.87878
850.0059, 22.19446
850.4880, 14.00745
850.9701, 8.864136
851.4522, 5.757446
851.9343, 7.154053
852.4164, 19.11707
852.8986, 33.04907
853.3807, 37.96765
853.8628, 35.54382
854.3449, 35.41943
854.8270, 42.62195
855.3091, 49.31323
855.7913, 43.64062
856.2734, 34.04187
856.7555, 40.20410
857.2376, 56.79956
857.7197, 57.44543
858.2018, 34.56860
858.6840, 11.73669
859.1661, 14.40662
859.6482, 33.44470
860.1303, 37.03772
860.6124, 25.24646
861.0945, 16.35974
861.5767, 13.60205
862.0588, 12.38306
862.5409, 8.778076
863.0230, 6.357178
863.5051, 15.34668
863.9872, 41.46033
864.4694, 52.95715
864.9515, 43.61072
865.4336, 30.97144
865.9157, 17.55420
866.3978, 6.432373
866.8799, 1.272827
867.3621, 1.645386
867.8442, 3.849731
868.3263, 9.423584
868.8084, 14.46838
869.2905, 20.12524
869.7726, 23.40076
870.2548, 19.76770
870.7369, 13.12244
871.2190, 11.77295
871.7011, 18.31140
872.1832, 21.46826
872.6653, 11.94861
873.1475, 1.530762
873.6296, 0.4633790
874.1117, 1.767090
874.5938, 0.9049070
875.0759, 3.028198
875.5580, 3.285522
876.0402, 5.043213
876.5223, 15.75256
877.0044, 22.12061
877.4865, 25.88599
877.9686, 33.25220
878.4507, 41.93738
878.9329, 37.74731
879.4150, 15.58191
879.8971, 5.461670
880.3792, 0.2285160
880.8613, 23.24341
881.3434, 26.89514
881.8256, 12.50732
882.3077, 4.478149
882.7898, 8.320557
883.2719, 13.02185
883.7540, 11.09497
884.2361, 6.422852
884.7183, 8.059570
885.2004, 16.67566
885.6825, 19.74854
886.1646, 15.11951
886.6467, 12.35364
887.1288, 15.84619
887.6110, 21.20190
888.0931, 24.12805
888.5752, 24.56189
889.0573, 20.99805
889.5394, 5.924927
890.0215, 1.402710
890.5037, 2.098145
890.9858, 11.83008
891.4679, 29.64270
891.9500, 50.15759
892.4321, 65.14905
892.9142, 74.74170
893.3964, 72.79785
893.8785, 42.14844
894.3606, 19.03638
894.8427, 24.61951
895.3248, 41.11731
895.8069, 54.09229
896.2891, 60.58252
896.7712, 58.71155
897.2533, 44.45618
897.7354, 31.39148
898.2175, 29.72656
898.6996, 31.47253
899.1818, 27.96118
899.6639, 21.73010
900.1460, 19.84900
900.6281, 24.05835
901.1102, 28.99438
901.5923, 30.06812
902.0745, 31.05884
902.5566, 38.42334
903.0387, 48.89966
903.5208, 56.79285
904.0029, 60.82983
904.4850, 57.95862
904.9672, 46.72327
905.4493, 37.49438
905.9314, 47.68970
906.4135, 70.88000
906.8956, 86.47070
907.3777, 94.13232
907.8599, 86.87976
908.3420, 62.87183
908.8241, 43.18066
909.3062, 45.31982
909.7883, 60.12622
910.2704, 62.93530
910.7526, 52.80542
911.2347, 47.98181
911.7168, 49.61218
912.1990, 55.19006
912.6811, 65.02661
913.1632, 74.84644
913.6453, 80.67175
914.1274, 82.52356
914.6096, 79.50977
915.0917, 68.40881
915.5738, 61.14941
916.0559, 59.36377
916.5380, 61.24585
917.0201, 70.20386
917.5023, 79.26843
917.9844, 73.32446
918.4665, 47.09167
918.9486, 34.26624
919.4307, 44.78491
919.9128, 55.10974
920.3950, 66.07300
920.8771, 70.84985
921.3592, 57.77161
921.8413, 34.98572
922.3234, 26.53442
922.8055, 41.32178
923.2877, 52.30688
923.7698, 53.58508
924.2519, 50.73181
924.7340, 41.97461
925.2161, 33.44275
925.6982, 33.51709
926.1804, 41.08997
926.6625, 45.78333
927.1446, 43.60217
927.6267, 38.87036
928.1088, 30.21252
928.5909, 22.84302
929.0731, 23.18518
929.5552, 27.30664
930.0373, 26.98962
930.5194, 20.90198
931.0015, 16.47681
931.4836, 18.54883
931.9658, 23.86426
932.4479, 30.53503
932.9300, 38.15991
933.4121, 49.21399
933.8942, 60.75500
934.3763, 62.67908
934.8585, 51.56628
935.3406, 39.29712
935.8227, 39.23474
936.3048, 44.28601
936.7869, 43.61816
937.2690, 38.92065
937.7512, 35.28125
938.2333, 34.01062
938.7154, 31.73633
939.1975, 26.18420
939.6796, 18.72888
940.1617, 11.23425
940.6439, 3.304321
941.1260, 10.05627
941.6081, 25.71069
942.0902, 24.96338
942.5723, 3.748657
943.0544, 18.59851
943.5366, 26.58765
944.0187, 25.02063
944.5008, 22.01245
944.9829, 18.38196
945.4650, 23.07617
945.9471, 36.17114
946.4293, 39.66479
946.9114, 26.17603
947.3935, 8.088379
947.8756, 2.374512
948.3577, 4.674805
948.8398, 7.134277
949.3220, 33.90051
949.8041, 47.69250
950.2862, 43.83936
950.7683, 37.95483
951.2504, 38.01282
951.7325, 38.59241
952.2147, 30.47864
952.6968, 14.57544
953.1789, 10.53979
953.6610, 21.66443
954.1431, 28.28259
954.6252, 26.34119
955.1074, 21.64062
955.5895, 16.58972
956.0716, 12.80627
956.5537, 14.03308
957.0358, 21.23718
957.5179, 24.87402
958.0001, 22.62085
958.4822, 22.97314
958.9643, 28.78101
959.4464, 36.42249
959.9285, 46.20349
960.4106, 54.19714
960.8928, 47.83606
961.3749, 20.03979
961.8570, 1.803955
962.3391, 4.019531
962.8212, 4.950317
963.3033, 2.666138
963.7855, 3.533569
964.2676, 17.75623
964.7497, 35.79163
965.2318, 45.92358
965.7139, 46.11108
966.1960, 42.40125
966.6782, 27.43677
967.1603, 17.81030
967.6424, 27.48328
968.1245, 39.52197
968.6066, 33.96313
969.0887, 13.70227
969.5709, 2.146484
970.0530, 0.1138920
970.5351, 7.305176
971.0172, 35.27832
971.4993, 59.10974
971.9814, 69.26392
972.4636, 68.23389
972.9457, 54.96912
973.4278, 31.04211
973.9099, 15.36121
974.3920, 12.00049
974.8741, 14.88000
975.3563, 33.99951
975.8384, 47.19666
976.3205, 32.54089
976.8026, 9.003662
977.2847, 7.617432
977.7668, 30.79187
978.2490, 44.61975
978.7311, 32.81116
979.2132, 23.70581
979.6953, 26.41577
980.1774, 33.23315
980.6595, 40.43896
981.1417, 47.33301
981.6238, 54.14966
982.1059, 60.96851
982.5880, 63.77466
983.0701, 60.34937
983.5522, 54.18347
984.0344, 43.44788
984.5165, 33.34973
984.9986, 26.75684
985.4807, 24.37646
985.9628, 29.81335
986.4449, 44.62268
986.9271, 50.05127
987.4092, 27.12744
987.8913, 9.257813
988.3734, 19.31995
988.8555, 34.57385
989.3376, 32.28992
989.8198, 18.94958
990.3019, 14.76855
990.7840, 25.72095
991.2661, 30.49109
991.7482, 12.30969
992.2303, 4.068726
992.7125, 0.8806150
993.1946, 6.347900
993.6767, 2.109863
994.1588, 19.17004
994.6409, 22.55566
995.1230, 5.250244
995.6052, 14.54260
996.0873, 34.84180
996.5694, 48.28833
997.0515, 46.32129
997.5336, 38.77271
998.0157, 34.65393
998.4979, 34.36121
998.9800, 34.55176
999.4621, 33.98950
999.9442, 35.73718
1000.426, 44.63672
1000.908, 53.36865
1001.391, 57.52844
1001.873, 59.27881
1002.355, 59.42627
1002.837, 59.59363
1003.319, 64.40552
1003.801, 76.64124
1004.283, 84.97278
1004.765, 83.22449
1005.247, 77.20105
1005.730, 69.75037
1006.212, 60.31995
1006.694, 44.42407
1007.176, 26.11206
1007.658, 19.24524
1008.140, 30.02808
1008.622, 41.54382
1009.104, 44.85059
1009.587, 48.21716
1010.069, 61.35461
1010.551, 73.71875
1011.033, 70.99402
1011.515, 56.87927
1011.997, 45.71448
1012.479, 41.45667
1012.961, 41.50391
1013.443, 51.92859
1013.926, 57.98193
1014.408, 43.44666
1014.890, 26.01575
1015.372, 27.06494
1015.854, 42.40417
1016.336, 53.49158
1016.818, 55.04614
1017.300, 54.32776
1017.783, 51.72449
1018.265, 50.39331
1018.747, 55.60193
1019.229, 60.07874
1019.711, 56.56470
1020.193, 45.42688
1020.675, 27.80627
1021.157, 0.5623780
1021.639, 11.63977
1022.122, 26.59033
1022.604, 55.48560
1023.086, 36.18201
1023.568, 4.543701
1024.050, 6.425415
1024.532, 7.2019999E-03
1025.014, 7.325806
1025.496, 13.32092
1025.979, 16.08630
1026.461, 11.81226
1026.943, 8.669189
1027.425, 8.700562
1027.907, 12.23218
1028.389, 21.32739
1028.871, 33.76758
1029.353, 44.95264
1029.835, 53.84143
1030.318, 61.58801
1030.800, 72.40942
1031.282, 77.60522
1031.764, 73.09827
1032.246, 63.25342
1032.728, 43.89197
1033.210, 23.71924
1033.692, 23.67590
1034.174, 49.80103
1034.657, 70.32886
1035.139, 82.70837
1035.621, 88.59314
1036.103, 84.27466
1036.585, 77.38757
1037.067, 67.99316
1037.549, 61.20300
1038.031, 71.22168
1038.514, 104.3727
1038.996, 114.1595
1039.478, 76.51892
1039.960, 52.40710
1040.442, 58.26086
1040.924, 68.62317
1041.406, 68.66504
1041.888, 65.11157
1042.370, 69.55371
1042.853, 82.62939
1043.335, 92.61389
1043.817, 101.0299
1044.299, 102.7715
1044.781, 94.35388
1045.263, 83.89990
1045.745, 72.77551
1046.227, 65.01904
1046.709, 67.18896
1047.192, 78.69678
1047.674, 87.58618
1048.156, 95.32898
1048.638, 94.62390
1049.120, 80.87756
1049.602, 69.86841
1050.084, 69.31372
1050.566, 71.54724
1051.049, 65.20386
1051.531, 52.82288
1052.013, 55.93811
1052.495, 80.58740
1052.977, 86.27686
1053.459, 65.73669
1053.941, 49.48962
1054.423, 49.90063
1054.906, 54.13464
1055.388, 49.13892
1055.870, 38.65540
1056.352, 34.24426
1056.834, 35.93591
1057.316, 42.48523
1057.798, 54.13550
1058.280, 56.67078
1058.762, 45.44434
1059.245, 34.54810
1059.727, 35.49097
1060.209, 42.91321
1060.691, 47.61243
1061.173, 49.29395
1061.655, 43.33154
1062.137, 31.72498
1062.619, 30.97632
1063.101, 43.28088
1063.584, 51.91406
1064.066, 45.77039
1064.548, 35.73425
1065.030, 37.23743
1065.512, 46.50671
1065.994, 58.09729
1066.476, 68.90930
1066.958, 68.39453
1067.441, 56.90710
1067.923, 43.13684
1068.405, 30.98621
1068.887, 26.15015
1069.369, 42.32324
1069.851, 62.35889
1070.333, 58.91895
1070.815, 44.74927
1071.297, 42.27014
1071.780, 50.02356
1072.262, 55.58862
1072.744, 54.82886
1073.226, 50.93103
1073.708, 45.15491
1074.190, 38.25195
1074.672, 29.21399
1075.154, 20.73352
1075.636, 12.45044
1076.119, 8.236694
1076.601, 19.53064
1077.083, 45.24890
1077.565, 59.07922
1078.047, 42.32471
1078.529, 25.75732
1079.011, 25.29834
1079.494, 27.12463
1079.976, 21.43860
1080.458, 14.67664
1080.940, 18.25464
1081.422, 30.84631
1081.904, 40.62122
1082.386, 49.78943
1082.868, 47.38293
1083.350, 16.20227
1083.833, 7.652588
1084.315, 6.133057
1084.797, 4.602661
1085.279, 14.66821
1085.761, 21.72302
1086.243, 17.27100
1086.725, 7.246460
1087.207, 7.897461
1087.689, 37.21838
1088.172, 65.10840
1088.654, 57.57788
1089.136, 42.46875
1089.618, 35.33130
1090.100, 32.26135
1090.582, 26.52893
1091.064, 18.22034
1091.546, 12.17737
1092.029, 8.562134
1092.511, 5.203735
1092.993, 0.1586910
1093.475, 6.166748
1093.957, 32.10437
1094.439, 56.59131
1094.921, 53.68787
1095.403, 31.94165
1095.885, 21.45825
1096.368, 21.37512
1096.850, 20.19409
1097.332, 17.36633
1097.814, 16.88818
1098.296, 19.83472
1098.778, 22.51538
1099.260, 22.06946
1099.742, 20.10120
1100.224, 19.34045
1100.707, 18.98303
1101.189, 16.65820
1101.671, 13.13000
1102.153, 9.501953
1102.635, 6.966309
1103.117, 10.31812
1103.599, 22.06165
1104.081, 32.88855
1104.564, 33.04041
1105.046, 29.37695
1105.528, 26.73682
1106.010, 26.43579
1106.492, 32.14697
1106.974, 41.10474
1107.456, 47.42566
1107.938, 49.59009
1108.421, 47.02905
1108.903, 35.02075
1109.385, 25.68518
1109.867, 24.75769
1110.349, 28.25513
1110.831, 39.89966
1111.313, 50.12146
1111.795, 43.60156
1112.277, 22.48840
1112.760, 7.210205
1113.242, 1.795410
1113.724, 0.5942380
1114.206, 2.722534
1114.688, 1.265991
1115.170, 22.84387
1115.652, 39.70056
1116.134, 30.17883
1116.616, 6.759644
1117.099, 0.8720700
1117.581, 9.267090
1118.063, 15.13953
1118.545, 16.69824
1119.027, 12.35034
1119.509, 1.745361
1119.991, 5.068970
1120.473, 15.86230
1120.956, 39.01343
1121.438, 34.54797
1121.920, 11.68787
1122.402, 7.165161
1122.884, 19.02905
1123.366, 31.28552
1123.848, 41.60767
1124.330, 37.74670
1124.813, 17.44861
1125.295, 2.118408
1125.777, 8.381836
1126.259, 22.22864
1126.741, 24.97119
1127.223, 21.14087
1127.705, 16.41052
1128.187, 12.48743
1128.669, 14.41626
1129.151, 20.21802
1129.634, 20.37683
1130.116, 11.06470
1130.598, 2.262329
1131.080, 0.2009280
1131.562, 1.085327
1132.044, 5.611328
1132.526, 11.93604
1133.008, 21.40173
1133.491, 30.39343
1133.973, 32.34619
1134.455, 27.24658
1134.937, 23.42615
1135.419, 25.10583
1135.901, 23.62170
1136.383, 13.43176
1136.865, 5.229980
1137.348, 4.052246
1137.830, 5.549683
1138.312, 7.205444
1138.794, 8.490845
1139.276, 7.814575
1139.758, 4.756592
1140.240, 3.292969
1140.722, 4.058716
1141.204, 3.607544
1141.687, 0.8010250
1142.169, 1.729248
1142.651, 2.740845
1143.133, 2.919922
1143.615, 2.659912
1144.097, 2.309814
1144.579, 5.109131
1145.061, 9.061035
1145.543, 2.092896
1146.026, 13.60925
1146.508, 24.79089
1146.990, 27.87842
1147.472, 24.21777
1147.954, 13.60950
1148.436, 3.901245
1148.918, 6.401733
1149.400, 12.34607
1149.883, 7.000244
1150.365, 0.3157960
1150.847, 12.56226
1151.329, 36.32239
1151.811, 48.42798
1152.293, 43.27161
1152.775, 32.92139
1153.257, 15.47424
1153.740, 3.958130
1154.222, 5.823853
1154.704, 11.48926
1155.186, 13.79077
1155.668, 18.05701
1156.150, 36.67029
1156.632, 63.61670
1157.114, 70.00085
1157.596, 47.73877
1158.078, 33.19324
1158.561, 27.49170
1159.043, 27.46826
1159.525, 34.89453
1160.007, 40.63879
1160.489, 39.50269
1160.971, 33.75562
1161.453, 25.47717
1161.935, 16.34595
1162.418, 14.33984
1162.900, 18.32812
1163.382, 20.39722
1163.864, 19.72803
1164.346, 12.97693
1164.828, 0.6964110
1165.310, 2.686768
1165.792, 13.78223
1166.275, 31.75378
1166.757, 26.51794
1167.239, 15.56018
1167.721, 19.73975
1168.203, 32.35901
1168.685, 48.08679
1169.167, 61.12903
1169.649, 58.48364
1170.131, 37.98682
1170.614, 21.85413
1171.096, 21.10913
1171.578, 21.98840
1172.060, 21.16699
1172.542, 20.32263
1173.024, 19.13013
1173.506, 19.07800
1173.988, 21.79626
1174.470, 26.78613
1174.953, 33.29321
1175.435, 42.65613
1175.917, 44.49976
1176.399, 36.80188
1176.881, 29.49988
1177.363, 23.21741
1177.845, 23.78296
1178.327, 35.51392
1178.810, 46.79773
1179.292, 44.18274
1179.774, 33.98315
1180.256, 30.32031
1180.738, 32.52820
1181.220, 37.22900
1181.702, 42.52222
1182.184, 40.77820
1182.667, 33.16833
1183.149, 32.81384
1183.631, 45.99316
1184.113, 59.08875
1184.595, 66.98157
1185.077, 69.23132
1185.559, 63.49512
1186.041, 53.67981
1186.523, 33.15967
1187.005, 16.73376
1187.488, 35.26062
1187.970, 84.51331
1188.452, 109.3281
1188.934, 91.07324
1189.416, 75.18030
1189.898, 60.55823
1190.380, 51.91846
1190.862, 50.24622
1191.345, 56.21533
1191.827, 73.98242
1192.309, 90.78723
1192.791, 85.26917
1193.273, 63.01172
1193.755, 50.90869
1194.237, 48.74072
1194.719, 59.54944
1195.202, 79.82068
1195.684, 83.90198
1196.166, 67.08813
1196.648, 48.56848
1197.130, 39.23389
1197.612, 38.94702
1198.094, 58.16211
1198.576, 75.15515
1199.058, 59.30200
1199.541, 35.19409
1200.023, 33.63416
1200.505, 46.93896
1200.987, 57.35876
1201.469, 61.59375
1201.951, 59.34839
1202.433, 41.99536
1202.915, 34.47058
1203.397, 55.31091
1203.880, 64.43762
1204.362, 43.27405
1204.844, 21.87292
1205.326, 22.88989
1205.808, 32.45398
1206.290, 24.36633
1206.772, 2.154785
1207.254, 8.751831
1207.737, 8.703125
1208.219, 1.249268
1208.701, 12.44250
1209.183, 28.43188
1209.665, 44.51990
1210.147, 51.97815
1210.629, 44.54736
1211.111, 35.14160
1211.594, 35.59302
1212.076, 42.71973
1212.558, 62.97595
1213.040, 79.82568
1213.522, 65.90356
1214.004, 36.55188
1214.486, 24.02185
1214.968, 31.88562
1215.450, 37.23730
1215.932, 30.39514
1216.415, 32.25305
1216.897, 51.70776
1217.379, 69.32178
1217.861, 85.69800
1218.343, 88.57458
1218.825, 64.81995
1219.307, 35.55554
1219.789, 32.16992
1220.272, 49.22473
1220.754, 66.05420
1221.236, 80.94775
1221.718, 76.87549
1222.200, 57.15051
1222.682, 47.02429
1223.164, 49.99084
1223.646, 45.13770
1224.129, 20.99243
1224.611, 5.516479
1225.093, 35.31860
1225.575, 67.68030
1226.057, 65.79749
1226.539, 52.85681
1227.021, 47.10669
1227.503, 46.92273
1227.985, 48.35168
1228.468, 50.75903
1228.950, 53.28809
1229.432, 55.21985
1229.914, 59.92676
1230.396, 69.75378
1230.878, 76.35461
1231.360, 78.65625
1231.842, 76.55518
1232.324, 69.65942
1232.807, 59.78381
1233.289, 47.82227
1233.771, 37.12671
1234.253, 38.66772
1234.735, 46.09277
1235.217, 34.16138
1235.699, 13.59167
1236.181, 16.28564
1236.664, 34.88525
1237.146, 36.13794
1237.628, 11.07825
1238.110, 7.916626
1238.592, 0.3785400
1239.074, 9.002441
1239.556, 13.96118
1240.038, 14.17725
1240.521, 1.417725
1241.003, 10.76648
1241.485, 12.09705
1241.967, 48.59729
1242.449, 60.09460
1242.931, 48.25598
1243.413, 51.62842
1243.895, 70.38281
1244.377, 81.60083
1244.859, 82.55688
1245.342, 80.88562
1245.824, 78.69312
1246.306, 72.21802
1246.788, 58.72827
1247.270, 47.08337
1247.752, 49.78540
1248.234, 56.09253
1248.716, 56.35718
1249.199, 51.96362
1249.681, 38.50024
1250.163, 24.97876
1250.645, 16.70874
1251.127, 20.04309
1251.609, 23.82544
1252.091, 15.48511
1252.573, 15.01929
1253.056, 14.28528
1253.538, 14.83826
1254.020, 18.22400
1254.502, 18.03040
1254.984, 10.28894
1255.466, 4.727295
1255.948, 11.81250
1256.430, 22.79407
1256.912, 16.05530
1257.395, 3.082642
1257.877, 10.15442
1258.359, 26.30078
1258.841, 28.38745
1259.323, 16.40881
1259.805, 8.178223
1260.287, 5.170654
1260.769, 3.697021
1261.251, 1.187622
1261.734, 0.1168210
1262.216, 5.117188
1262.698, 0.0000000E+00
##END=



