##NAMES=Esperite
##RRUFFID=R060295
##IDEAL CHEMISTRY=PbCa_2_(ZnSiO_4_)_3_
##LOCALITY=Parker Shaft, Franklin, Sussex County, New Jersey, USA
##OWNER=RRUFF
##SOURCE=Michael Scott
##DESCRIPTION=Tan colored massive associated with black franklinite
##STATUS=The identification of this mineral is confirmed by single-crystal X-ray diffraction and chemical analysis.
##URL=rruff.info/R060295
##MEASURED CHEMISTRY=(Ca_1.98_Pb_0.02_)_Î£=2_Pb_1.00_Zn_3.00_(Si_1.00_O_4_)_3_
111.6215, 0.0000000E+00
112.1036, 9.9120997E-02
112.5858, 0.2935790
113.0679, 6.411682
113.5500, 20.69067
114.0321, 39.62946
114.5142, 63.50146
114.9964, 92.20026
115.4785, 120.2778
115.9606, 142.6713
116.4427, 160.0627
116.9248, 168.8663
117.4069, 163.3501
117.8891, 148.4637
118.3712, 134.2673
118.8533, 123.0644
119.3354, 111.9890
119.8175, 97.76520
120.2996, 81.27673
120.7818, 66.70911
121.2639, 57.02673
121.7460, 51.52234
122.2281, 48.54944
122.7102, 49.35712
123.1923, 52.81775
123.6745, 58.91669
124.1566, 67.02478
124.6387, 76.25067
125.1208, 86.01288
125.6029, 98.28174
126.0850, 107.0346
126.5672, 113.1837
127.0493, 116.1715
127.5314, 115.9512
128.0135, 113.7024
128.4956, 111.6255
128.9777, 107.9331
129.4599, 94.40344
129.9420, 80.62549
130.4241, 66.94379
130.9062, 54.92975
131.3883, 46.52063
131.8704, 43.68890
132.3526, 45.30597
132.8347, 45.52844
133.3168, 44.86078
133.7989, 43.20764
134.2810, 39.82611
134.7632, 35.23267
135.2453, 31.45831
135.7274, 29.63782
136.2095, 29.57843
136.6916, 29.95923
137.1737, 30.72614
137.6559, 31.88324
138.1380, 33.48975
138.6201, 35.60516
139.1022, 37.48694
139.5843, 38.63306
140.0664, 39.19153
140.5486, 39.38995
141.0307, 40.05438
141.5128, 40.39044
141.9949, 37.85052
142.4770, 31.20874
142.9591, 23.40527
143.4413, 14.98663
143.9234, 6.538940
144.4055, 1.036377
144.8876, 7.155762
145.3697, 11.81573
145.8518, 14.92542
146.3340, 15.97659
146.8161, 15.75528
147.2982, 13.81061
147.7803, 10.60223
148.2624, 7.186920
148.7445, 4.622681
149.2267, 3.211243
149.7088, 1.488861
150.1909, 0.7478330
150.6730, 3.043121
151.1551, 4.834381
151.6372, 6.234283
152.1194, 8.075562
152.6015, 11.38876
153.0836, 16.80048
153.5657, 22.26044
154.0478, 28.06674
154.5299, 33.75909
155.0121, 39.03952
155.4942, 43.88455
155.9763, 47.91800
156.4584, 50.31198
156.9405, 51.25955
157.4226, 50.88513
157.9048, 47.89240
158.3869, 43.55420
158.8690, 40.77875
159.3511, 40.83133
159.8332, 41.91367
160.3153, 41.57990
160.7975, 39.79153
161.2796, 38.13019
161.7617, 38.04913
162.2438, 39.33966
162.7259, 39.42755
163.2081, 36.72128
163.6902, 33.42453
164.1723, 30.94766
164.6544, 29.41064
165.1365, 28.65112
165.6186, 28.48932
166.1008, 28.92621
166.5829, 29.94571
167.0650, 31.73834
167.5471, 33.97055
168.0292, 36.59940
168.5113, 39.58978
168.9935, 42.70145
169.4756, 47.04434
169.9577, 50.83081
170.4398, 54.65652
170.9219, 57.90042
171.4040, 61.46863
171.8862, 66.34073
172.3683, 72.83365
172.8504, 80.20950
173.3325, 86.77942
173.8146, 92.08792
174.2967, 96.93460
174.7789, 101.5013
175.2610, 105.5783
175.7431, 108.5993
176.2252, 110.2570
176.7073, 111.2456
177.1894, 113.9259
177.6716, 120.1976
178.1537, 125.6378
178.6358, 129.5267
179.1179, 132.0158
179.6000, 133.2569
180.0821, 133.0829
180.5643, 132.0050
181.0464, 131.6956
181.5285, 132.9903
182.0106, 133.7092
182.4927, 133.1871
182.9748, 131.3603
183.4570, 127.7872
183.9391, 121.6997
184.4212, 113.9156
184.9033, 106.5446
185.3854, 99.65649
185.8675, 93.09265
186.3497, 86.55963
186.8318, 80.03088
187.3139, 74.18228
187.7960, 69.07056
188.2781, 64.94836
188.7602, 62.45996
189.2424, 62.15958
189.7245, 62.57758
190.2066, 61.79764
190.6887, 59.53839
191.1708, 57.02878
191.6530, 54.11026
192.1351, 51.38760
192.6172, 49.52240
193.0993, 48.83936
193.5814, 48.84088
194.0635, 48.45798
194.5457, 47.14575
195.0278, 46.61261
195.5099, 47.72040
195.9920, 49.42233
196.4741, 50.65021
196.9562, 50.90408
197.4384, 50.57828
197.9205, 50.92532
198.4026, 53.44421
198.8847, 54.47885
199.3668, 52.74902
199.8489, 49.65811
200.3311, 46.89178
200.8132, 45.32629
201.2953, 44.37039
201.7774, 41.79785
202.2595, 35.30017
202.7416, 29.27658
203.2238, 24.36621
203.7059, 20.34174
204.1880, 16.82965
204.6701, 13.66779
205.1522, 10.97049
205.6343, 8.891632
206.1165, 7.836334
206.5986, 6.848541
207.0807, 5.127533
207.5628, 3.315399
208.0449, 2.760986
208.5270, 4.274719
209.0092, 7.212250
209.4913, 9.044281
209.9734, 9.182617
210.4555, 9.232849
210.9376, 9.598907
211.4197, 10.28110
211.9019, 11.37698
212.3840, 13.01926
212.8661, 14.99088
213.3482, 16.79160
213.8303, 18.76666
214.3124, 20.06885
214.7946, 19.62140
215.2767, 17.78925
215.7588, 16.65210
216.2409, 17.46625
216.7230, 19.31927
217.2052, 20.44980
217.6873, 20.70581
218.1694, 20.51346
218.6515, 19.98914
219.1336, 19.15192
219.6157, 18.54904
220.0979, 18.36597
220.5800, 18.57358
221.0621, 19.18179
221.5442, 20.27020
222.0263, 21.44415
222.5084, 22.34766
222.9906, 22.97610
223.4727, 23.46051
223.9548, 23.89453
224.4369, 24.14917
224.9190, 24.06540
225.4011, 23.60187
225.8833, 22.99561
226.3654, 22.51160
226.8475, 22.17453
227.3296, 21.84674
227.8117, 21.57684
228.2938, 21.25226
228.7760, 20.69992
229.2581, 19.90524
229.7402, 19.17554
230.2223, 18.93414
230.7044, 19.32562
231.1865, 19.75513
231.6687, 20.32248
232.1508, 20.79794
232.6329, 20.87827
233.1150, 20.57431
233.5971, 20.32660
234.0792, 20.83545
234.5614, 22.55695
235.0435, 23.91916
235.5256, 24.87854
236.0077, 25.54330
236.4898, 25.83133
236.9719, 25.79883
237.4541, 25.72836
237.9362, 26.03107
238.4183, 26.93964
238.9004, 27.65817
239.3825, 28.29688
239.8646, 28.70328
240.3468, 28.73126
240.8289, 28.38483
241.3110, 27.79202
241.7931, 27.02725
242.2752, 25.76062
242.7573, 25.41162
243.2395, 26.03134
243.7216, 27.36179
244.2037, 29.74054
244.6858, 32.95648
245.1679, 35.95953
245.6501, 37.46445
246.1322, 36.86359
246.6143, 37.12735
247.0964, 39.33832
247.5785, 41.50146
248.0606, 41.88141
248.5428, 40.51746
249.0249, 39.14496
249.5070, 39.59958
249.9891, 42.29147
250.4712, 43.95154
250.9533, 44.16284
251.4355, 43.56039
251.9176, 42.38602
252.3997, 40.77768
252.8818, 39.13562
253.3639, 37.78461
253.8460, 36.74298
254.3282, 35.79651
254.8103, 35.19131
255.2924, 34.30682
255.7745, 32.61560
256.2566, 30.22940
256.7387, 27.84647
257.2209, 25.97290
257.7030, 24.57367
258.1851, 23.03833
258.6672, 20.82846
259.1493, 18.97577
259.6314, 18.53964
260.1136, 19.34164
260.5957, 19.84348
261.0778, 18.99252
261.5599, 17.19626
262.0420, 15.87564
262.5241, 15.17233
263.0063, 14.79077
263.4884, 14.61523
263.9705, 14.62769
264.4526, 14.67963
264.9347, 14.82553
265.4168, 14.86227
265.8990, 14.43237
266.3811, 13.31494
266.8632, 12.22791
267.3453, 11.78320
267.8274, 11.88702
268.3095, 11.72659
268.7917, 10.40894
269.2738, 9.308807
269.7559, 10.35187
270.2380, 13.94592
270.7201, 17.63501
271.2022, 19.81943
271.6844, 20.63107
272.1665, 20.89166
272.6486, 20.45322
273.1307, 19.86847
273.6128, 19.58426
274.0949, 19.60999
274.5771, 20.05136
275.0592, 21.02853
275.5413, 22.49759
276.0234, 24.27597
276.5055, 26.66644
276.9876, 28.91434
277.4698, 30.65475
277.9519, 31.86096
278.4340, 32.42139
278.9161, 31.98163
279.3982, 30.76538
279.8803, 29.80441
280.3625, 29.41003
280.8446, 28.85895
281.3267, 27.67432
281.8088, 26.02896
282.2909, 24.29529
282.7730, 22.51120
283.2552, 20.80106
283.7373, 19.68375
284.2194, 19.56610
284.7015, 19.27383
285.1836, 17.95880
285.6658, 16.18530
286.1479, 14.79666
286.6300, 14.23618
287.1121, 14.23590
287.5942, 14.20624
288.0764, 14.08829
288.5585, 14.09778
289.0406, 14.45407
289.5227, 14.91235
290.0048, 15.13351
290.4869, 14.92612
290.9691, 14.70197
291.4512, 15.31094
291.9333, 17.13397
292.4154, 18.57883
292.8975, 19.11255
293.3796, 19.19211
293.8618, 18.93179
294.3439, 18.36606
294.8260, 17.99225
295.3081, 18.77121
295.7902, 21.15887
296.2723, 22.52252
296.7545, 21.93558
297.2366, 20.50516
297.7187, 18.45798
298.2008, 15.96243
298.6829, 13.56860
299.1650, 12.08096
299.6472, 11.65802
300.1293, 10.56552
300.6114, 8.057465
301.0935, 5.405243
301.5756, 3.035156
302.0577, 0.9969480
302.5399, 0.7764590
303.0220, 2.301880
303.5041, 3.581360
303.9862, 4.726440
304.4683, 5.831024
304.9504, 6.651764
305.4326, 6.942078
305.9147, 6.913361
306.3968, 7.012817
306.8789, 7.655243
307.3610, 8.546692
307.8431, 8.292419
308.3253, 5.877380
308.8074, 3.889771
309.2895, 3.059082
309.7716, 2.981110
310.2537, 3.365570
310.7358, 4.178101
311.2180, 4.946167
311.7001, 4.484894
312.1822, 2.091522
312.6643, 5.3099999E-03
313.1464, 1.572052
313.6285, 2.587158
314.1107, 2.602997
314.5928, 1.568024
315.0749, 0.6020200
315.5570, 1.535034
316.0391, 5.024963
316.5212, 8.007874
317.0034, 9.603210
317.4855, 11.06451
317.9676, 13.07828
318.4497, 15.68286
318.9318, 18.46677
319.4139, 20.89185
319.8961, 22.85019
320.3782, 25.49924
320.8603, 29.78436
321.3424, 33.89230
321.8245, 37.10388
322.3066, 39.57074
322.7888, 41.79538
323.2709, 44.05688
323.7530, 46.36887
324.2351, 48.72894
324.7172, 50.91302
325.1993, 53.53299
325.6815, 56.85858
326.1636, 60.70178
326.6457, 64.82166
327.1278, 69.06641
327.6099, 73.42999
328.0920, 78.24774
328.5742, 84.43332
329.0563, 89.01248
329.5384, 89.74457
330.0205, 89.71313
330.5026, 91.76401
330.9847, 96.61023
331.4669, 102.1826
331.9490, 105.8705
332.4311, 107.3116
332.9132, 108.7786
333.3953, 111.2592
333.8774, 113.3517
334.3596, 114.0428
334.8417, 113.3927
335.3238, 112.3871
335.8059, 112.2050
336.2880, 112.8770
336.7701, 112.2861
337.2523, 109.6237
337.7344, 106.4483
338.2165, 103.6255
338.6986, 100.8905
339.1807, 97.52774
339.6628, 92.98380
340.1450, 87.50500
340.6271, 81.83850
341.1092, 75.49963
341.5913, 69.98035
342.0735, 65.87073
342.5556, 62.76959
343.0377, 60.41354
343.5198, 58.91049
344.0019, 57.48502
344.4840, 54.49146
344.9662, 49.25977
345.4483, 45.31656
345.9304, 44.96127
346.4125, 45.62003
346.8946, 45.44675
347.3767, 44.14920
347.8589, 42.99939
348.3410, 43.33377
348.8231, 45.11710
349.3052, 46.88425
349.7873, 48.18503
350.2694, 49.75436
350.7516, 52.14246
351.2337, 55.22748
351.7158, 58.42850
352.1979, 61.63513
352.6800, 64.72067
353.1621, 67.07324
353.6443, 68.23740
354.1264, 69.69598
354.6085, 72.62805
355.0906, 76.36121
355.5727, 79.84326
356.0548, 82.59531
356.5370, 85.11774
357.0191, 88.20325
357.5012, 91.91290
357.9833, 95.36234
358.4654, 98.32361
358.9475, 100.6986
359.4297, 102.0980
359.9118, 102.2105
360.3939, 102.6550
360.8760, 104.7076
361.3581, 108.1552
361.8402, 112.1240
362.3224, 116.9347
362.8045, 121.3569
363.2866, 124.1180
363.7687, 125.3713
364.2508, 125.9849
364.7329, 125.7672
365.2151, 125.2328
365.6972, 125.5814
366.1793, 127.2311
366.6614, 128.7169
367.1435, 128.7201
367.6256, 127.5636
368.1078, 126.3740
368.5899, 125.5356
369.0720, 124.4661
369.5541, 123.0624
370.0362, 121.3385
370.5183, 118.5674
371.0005, 114.2382
371.4826, 108.6051
371.9647, 102.4646
372.4468, 95.96118
372.9289, 88.73984
373.4110, 80.20239
373.8932, 70.98029
374.3753, 62.37656
374.8574, 54.73633
375.3395, 47.73279
375.8216, 40.99463
376.3037, 34.47968
376.7859, 28.73578
377.2680, 23.97726
377.7501, 19.89853
378.2322, 16.28290
378.7143, 13.09909
379.1964, 10.35446
379.6786, 8.079376
380.1607, 6.263794
380.6428, 4.602417
381.1249, 2.955597
381.6070, 1.599731
382.0891, 0.8217160
382.5713, 0.3782040
383.0534, 0.2343140
383.5355, 1.255463
384.0176, 2.410980
384.4997, 3.111664
384.9818, 3.001587
385.4640, 2.986328
385.9461, 2.985321
386.4282, 3.145172
386.9103, 4.018127
387.3924, 5.457825
387.8745, 6.235352
388.3567, 4.820831
388.8388, 0.7052920
389.3209, 1.888153
389.8030, 1.999451
390.2851, 1.853333
390.7672, 2.115417
391.2494, 2.781677
391.7315, 3.717865
392.2136, 4.862762
392.6957, 6.139526
393.1778, 7.212158
393.6599, 7.591461
394.1421, 8.487457
394.6242, 10.28778
395.1063, 12.45566
395.5884, 14.63620
396.0706, 16.69128
396.5527, 18.44684
397.0348, 19.59799
397.5169, 19.93726
397.9990, 20.47098
398.4811, 20.99219
398.9633, 21.90573
399.4454, 23.57974
399.9275, 25.80658
400.4096, 28.13715
400.8917, 30.38620
401.3738, 32.42743
401.8560, 33.55716
402.3381, 32.98676
402.8202, 33.02451
403.3023, 34.91168
403.7844, 37.42877
404.2665, 39.31052
404.7487, 40.16577
405.2308, 40.61710
405.7129, 41.29291
406.1950, 42.18961
406.6771, 43.49561
407.1592, 45.66010
407.6414, 47.81766
408.1235, 49.38669
408.6056, 50.39496
409.0877, 51.11011
409.5698, 51.82797
410.0519, 52.33667
410.5341, 51.98602
411.0162, 50.55682
411.4983, 49.08353
411.9804, 48.36652
412.4625, 47.97266
412.9446, 47.18549
413.4268, 45.78131
413.9089, 44.14624
414.3910, 42.43723
414.8731, 40.71561
415.3552, 39.27200
415.8373, 38.18799
416.3195, 37.44559
416.8016, 37.26761
417.2837, 37.73932
417.7658, 37.59546
418.2479, 36.09784
418.7300, 34.02628
419.2122, 31.89429
419.6943, 29.83014
420.1764, 28.74930
420.6585, 29.57220
421.1406, 32.15421
421.6227, 34.35333
422.1049, 35.77887
422.5870, 37.30844
423.0691, 39.21249
423.5512, 41.46762
424.0333, 44.09946
424.5154, 47.11929
424.9976, 50.33316
425.4797, 53.33899
425.9618, 55.84390
426.4439, 58.75284
426.9260, 61.57687
427.4081, 65.17096
427.8903, 70.48358
428.3724, 77.30209
428.8545, 84.38605
429.3366, 90.65771
429.8187, 96.23816
430.3008, 102.9080
430.7830, 112.0272
431.2651, 120.8489
431.7472, 128.6023
432.2293, 135.9582
432.7114, 143.7535
433.1935, 152.2767
433.6757, 160.9499
434.1578, 168.6454
434.6399, 174.9462
435.1220, 181.6573
435.6041, 188.9876
436.0862, 196.6431
436.5684, 204.7365
437.0505, 213.0677
437.5326, 221.1367
438.0147, 228.3164
438.4968, 235.0097
438.9789, 242.8125
439.4611, 252.2542
439.9432, 261.4389
440.4253, 269.5413
440.9074, 277.0433
441.3895, 284.3389
441.8716, 291.5241
442.3538, 298.5855
442.8359, 305.5467
443.3180, 312.4280
443.8001, 319.1667
444.2822, 326.1826
444.7643, 332.2580
445.2465, 336.6096
445.7286, 339.3288
446.2107, 339.6101
446.6928, 336.2736
447.1749, 331.0971
447.6570, 326.5993
448.1392, 322.5008
448.6213, 315.6870
449.1034, 304.3445
449.5855, 289.3506
450.0677, 272.8846
450.5498, 254.3389
451.0319, 235.9623
451.5140, 218.7575
451.9961, 201.8578
452.4782, 183.8584
452.9604, 164.5908
453.4425, 145.8583
453.9246, 129.4902
454.4067, 115.6308
454.8888, 102.8972
455.3709, 91.46371
455.8531, 80.81360
456.3352, 70.73068
456.8173, 61.33533
457.2994, 52.74457
457.7815, 45.04916
458.2636, 38.21262
458.7458, 32.14688
459.2279, 26.99692
459.7100, 22.35855
460.1921, 18.38901
460.6742, 14.70303
461.1563, 10.83646
461.6385, 6.974670
462.1206, 3.880371
462.6027, 2.261230
463.0848, 1.862762
463.5669, 1.366791
464.0490, 0.6574100
464.5312, 9.2834003E-02
465.0133, 0.3006590
465.4954, 0.4555050
465.9775, 0.1324460
466.4596, 0.7702330
466.9417, 1.498901
467.4239, 1.084503
467.9060, 0.2294920
468.3881, 0.9407350
468.8702, 0.9643860
469.3523, 0.5322270
469.8344, 0.6374820
470.3166, 2.277130
470.7987, 3.374054
471.2808, 2.647461
471.7629, 1.967407
472.2450, 3.507599
472.7271, 6.829529
473.2093, 9.504028
473.6914, 10.27847
474.1735, 10.53787
474.6556, 12.80807
475.1377, 17.65063
475.6198, 21.79007
476.1020, 24.38358
476.5841, 26.39020
477.0662, 28.67706
477.5483, 31.27872
478.0304, 33.60187
478.5125, 35.06287
478.9947, 35.84625
479.4768, 37.55289
479.9589, 41.93625
480.4410, 45.12045
480.9231, 45.84439
481.4052, 45.51105
481.8874, 45.49780
482.3695, 46.15775
482.8516, 47.01343
483.3337, 47.49417
483.8158, 47.56137
484.2979, 47.56665
484.7801, 47.08508
485.2622, 47.05420
485.7443, 47.98404
486.2264, 49.53076
486.7085, 51.17487
487.1906, 52.78171
487.6728, 54.21295
488.1549, 55.20493
488.6370, 55.72855
489.1191, 56.28110
489.6012, 56.96054
490.0833, 57.81519
490.5655, 59.07788
491.0476, 60.60010
491.5297, 61.45663
492.0118, 60.48718
492.4939, 59.12613
492.9760, 59.11993
493.4582, 60.48749
493.9403, 62.80170
494.4224, 66.21271
494.9045, 70.09103
495.3866, 72.67386
495.8687, 73.32263
496.3509, 74.47067
496.8330, 77.08252
497.3151, 80.28610
497.7972, 83.12122
498.2793, 85.51257
498.7614, 87.95636
499.2436, 90.86658
499.7257, 94.23138
500.2078, 97.74747
500.6899, 102.0579
501.1720, 105.5661
501.6541, 107.7918
502.1363, 109.2775
502.6184, 110.8055
503.1005, 112.4819
503.5826, 113.4202
504.0647, 112.2300
504.5468, 108.6357
505.0290, 105.6940
505.5111, 104.0949
505.9932, 102.3150
506.4753, 99.50455
506.9575, 96.21268
507.4396, 93.30493
507.9217, 91.10889
508.4038, 89.36435
508.8859, 88.01218
509.3680, 87.00046
509.8502, 85.39838
510.3323, 82.68390
510.8144, 79.82281
511.2965, 77.83810
511.7786, 76.58475
512.2607, 75.25186
512.7429, 73.69635
513.2250, 71.94165
513.7071, 69.98160
514.1892, 67.82364
514.6713, 65.42163
515.1534, 62.69647
515.6356, 59.86093
516.1177, 57.43649
516.5998, 56.20248
517.0819, 53.46130
517.5640, 48.02731
518.0461, 41.98325
518.5283, 36.61868
519.0104, 31.93182
519.4925, 27.39468
519.9746, 22.61642
520.4567, 17.81900
520.9388, 13.75873
521.4210, 10.06216
521.9031, 7.907013
522.3852, 8.685638
522.8673, 9.875397
523.3494, 9.845490
523.8315, 8.456268
524.3137, 6.278595
524.7958, 3.158630
525.2779, 0.3250430
525.7600, 1.800476
526.2421, 0.7167360
526.7242, 0.2696230
527.2064, 0.3923650
527.6885, 1.564911
528.1706, 1.781586
528.6527, 0.8103640
529.1348, 0.4023130
529.6169, 2.053619
530.0991, 3.401428
530.5812, 2.725281
531.0633, 3.614442
531.5454, 2.761719
532.0275, 3.297302
532.5096, 2.057861
532.9918, 1.198639
533.4739, 1.125946
533.9560, 0.8518070
534.4381, 8.6760998E-02
534.9202, 1.188171
535.4023, 1.954895
535.8845, 2.271667
536.3666, 2.215912
536.8487, 1.766785
537.3308, 0.9245610
537.8129, 0.7220460
538.2950, 1.863403
538.7772, 2.731049
539.2593, 2.745544
539.7414, 2.424683
540.2235, 2.350983
540.7056, 2.669495
541.1877, 3.024841
541.6699, 3.069519
542.1520, 2.833008
542.6341, 2.408356
543.1162, 1.565918
543.5983, 1.123535
544.0804, 2.143372
544.5626, 3.830414
545.0447, 4.695618
545.5268, 4.393341
546.0089, 3.532867
546.4910, 1.961609
546.9731, 0.1843260
547.4553, 0.6481320
547.9374, 0.2931820
548.4195, 0.2626650
548.9016, 1.9347999E-02
549.3837, 1.052094
549.8658, 1.608612
550.3480, 1.296600
550.8301, 0.9931950
551.3122, 1.028351
551.7943, 1.163635
552.2764, 1.116302
552.7585, 0.8038940
553.2407, 0.2851560
553.7228, 0.5027770
554.2049, 1.612183
554.6870, 1.989532
555.1691, 1.062408
555.6512, 0.1872250
556.1334, 6.1127000E-02
556.6155, 1.3397000E-02
557.0976, 0.2511600
557.5797, 1.021698
558.0618, 1.360748
558.5439, 2.477671
559.0261, 2.556549
559.5082, 4.588379
559.9903, 5.907410
560.4724, 6.446411
560.9545, 5.636108
561.4366, 3.917694
561.9188, 3.496063
562.4009, 5.704987
562.8830, 7.580292
563.3651, 7.648010
563.8472, 6.869354
564.3293, 6.468262
564.8115, 6.742493
565.2936, 7.527283
565.7757, 8.731140
566.2578, 10.36166
566.7399, 11.65570
567.2220, 11.97845
567.7042, 12.75952
568.1863, 14.68658
568.6684, 16.90839
569.1505, 18.47015
569.6326, 19.25674
570.1147, 19.99466
570.5969, 21.16220
571.0790, 22.75699
571.5611, 25.20920
572.0432, 28.95734
572.5253, 32.32544
573.0074, 33.81052
573.4896, 34.68100
573.9717, 36.98767
574.4538, 41.31052
574.9359, 45.51291
575.4180, 48.41357
575.9001, 50.68570
576.3823, 53.09897
576.8644, 55.79129
577.3465, 58.99988
577.8286, 63.06424
578.3107, 67.66257
578.7928, 71.19693
579.2750, 72.56680
579.7571, 74.30161
580.2392, 76.65369
580.7213, 79.30835
581.2034, 81.97748
581.6855, 84.67633
582.1677, 87.76245
582.6498, 91.67087
583.1319, 95.94766
583.6140, 98.81046
584.0961, 99.90454
584.5782, 101.4808
585.0604, 104.3657
585.5425, 107.6413
586.0246, 110.9933
586.5067, 114.3879
586.9889, 116.8183
587.4710, 117.4326
587.9531, 117.0418
588.4352, 116.5096
588.9174, 115.8102
589.3995, 114.6753
589.8816, 113.2395
590.3637, 111.4080
590.8458, 108.7570
591.3279, 104.9941
591.8101, 100.9509
592.2922, 96.32532
592.7743, 91.75711
593.2564, 87.93048
593.7385, 84.34946
594.2206, 79.89218
594.7028, 74.05792
595.1849, 67.77689
595.6670, 62.80624
596.1491, 59.40240
596.6312, 55.48969
597.1133, 50.22092
597.5955, 45.32535
598.0776, 41.69937
598.5597, 39.04910
599.0418, 36.95984
599.5239, 35.68695
600.0060, 34.08838
600.4882, 30.55728
600.9703, 26.07523
601.4524, 23.14810
601.9345, 22.31882
602.4166, 22.39493
602.8987, 22.58313
603.3809, 22.76019
603.8630, 22.06488
604.3451, 20.18475
604.8272, 17.94397
605.3093, 14.71628
605.7914, 11.76617
606.2736, 10.42807
606.7557, 10.68060
607.2378, 11.37973
607.7199, 11.79236
608.2020, 11.87149
608.6841, 11.20380
609.1663, 9.414459
609.6484, 7.979492
610.1305, 7.743958
610.6126, 7.794342
611.0947, 7.186737
611.5768, 5.957123
612.0590, 5.200348
612.5411, 5.879822
613.0232, 6.859650
613.5053, 6.804474
613.9874, 5.882721
614.4695, 4.890686
614.9517, 4.082977
615.4338, 3.551086
615.9159, 3.617279
616.3980, 4.806244
616.8801, 5.221649
617.3622, 3.866486
617.8444, 2.750092
618.3265, 3.151703
618.8086, 4.222137
619.2907, 4.464783
619.7728, 3.352081
620.2549, 1.893799
620.7371, 1.334564
621.2192, 1.640747
621.7013, 2.074249
622.1834, 2.705658
622.6655, 3.233185
623.1476, 3.636383
623.6298, 3.760651
624.1119, 3.226624
624.5940, 1.719360
625.0761, 0.4255980
625.5582, 0.1486210
626.0403, 0.2478640
626.5225, 0.2625430
627.0046, 1.324493
627.4867, 1.902374
627.9688, 1.270203
628.4509, 1.824862
628.9330, 1.147888
629.4152, 1.493439
629.8973, 1.623352
630.3794, 1.009644
630.8615, 0.7146000
631.3436, 1.866943
631.8257, 3.808960
632.3079, 4.805511
632.7900, 3.818481
633.2721, 2.097534
633.7542, 1.295563
634.2363, 1.349457
634.7184, 1.806061
635.2006, 2.729675
635.6827, 3.600586
636.1648, 3.986877
636.6469, 3.896362
637.1290, 3.603790
637.6111, 2.700897
638.0933, 2.094299
638.5754, 2.240967
639.0575, 2.750549
639.5396, 3.376465
640.0217, 3.956329
640.5038, 4.038391
640.9860, 3.089111
641.4681, 1.476654
641.9502, 1.173401
642.4323, 2.935394
642.9144, 4.101227
643.3965, 3.392090
643.8787, 2.467712
644.3608, 2.706512
644.8429, 3.843750
645.3250, 4.326904
645.8071, 2.681152
646.2892, 0.8533940
646.7714, 1.276978
647.2535, 3.219543
647.7356, 4.193481
648.2177, 3.432129
648.6998, 2.079956
649.1819, 1.348755
649.6641, 1.250824
650.1462, 1.560944
650.6283, 2.968384
651.1104, 3.901855
651.5925, 3.762421
652.0746, 3.171295
652.5568, 2.654633
653.0389, 2.343811
653.5210, 2.235596
654.0031, 2.411896
654.4852, 2.741241
654.9673, 2.791779
655.4495, 2.518768
655.9316, 2.486603
656.4137, 3.064331
656.8958, 3.754517
657.3779, 3.912018
657.8600, 3.559814
658.3422, 2.918945
658.8243, 1.708038
659.3064, 0.5515750
659.7885, 0.5765380
660.2706, 1.310547
660.7527, 0.7186580
661.2349, 1.308167
661.7170, 3.270477
662.1991, 3.263153
662.6812, 1.410706
663.1633, 0.8209230
663.6454, 2.484558
664.1276, 3.446869
664.6097, 1.417358
665.0918, 0.8656620
665.5739, 0.5187380
666.0560, 2.507568
666.5381, 1.952269
667.0203, 4.349487
667.5024, 2.962524
667.9845, 3.046967
668.4666, 4.190002
668.9487, 4.643188
669.4308, 3.702087
669.9130, 2.280945
670.3951, 1.534851
670.8772, 1.492706
671.3593, 1.922302
671.8414, 3.661743
672.3235, 4.872894
672.8057, 4.669159
673.2878, 4.057922
673.7699, 4.150513
674.2520, 5.083740
674.7341, 6.021179
675.2162, 6.472839
675.6984, 6.440582
676.1805, 5.717316
676.6626, 4.337341
677.1447, 3.218170
677.6268, 2.701874
678.1089, 2.718018
678.5911, 3.083344
679.0732, 3.962280
679.5553, 4.394989
680.0374, 3.904785
680.5195, 3.548187
681.0016, 3.979675
681.4838, 4.648468
681.9659, 4.688477
682.4480, 3.982819
682.9301, 3.364380
683.4122, 3.787628
683.8943, 4.928864
684.3765, 5.376343
684.8586, 4.955200
685.3407, 4.578491
685.8228, 4.748779
686.3049, 5.052795
686.7870, 4.795929
687.2692, 3.995392
687.7513, 3.306610
688.2334, 2.666168
688.7155, 2.316193
689.1976, 2.471191
689.6797, 2.990784
690.1619, 3.766052
690.6440, 4.709717
691.1261, 5.550110
691.6082, 5.991455
692.0903, 6.094727
692.5724, 6.387878
693.0546, 7.103760
693.5367, 7.393829
694.0188, 6.725464
694.5009, 5.776642
694.9830, 5.139648
695.4651, 4.791199
695.9473, 4.473877
696.4294, 4.305756
696.9116, 3.992767
697.3937, 2.996368
697.8758, 1.765335
698.3579, 1.112015
698.8400, 1.228867
699.3221, 1.699768
699.8043, 2.165771
700.2864, 2.693085
700.7685, 3.664185
701.2506, 5.719315
701.7327, 6.795639
702.2148, 5.607742
702.6970, 4.114929
703.1791, 3.615448
703.6612, 3.950912
704.1433, 4.042236
704.6254, 3.231873
705.1075, 2.387238
705.5897, 2.364105
706.0718, 2.775940
706.5539, 2.760315
707.0360, 2.192459
707.5181, 1.687805
708.0002, 1.747360
708.4824, 2.275070
708.9645, 2.798767
709.4466, 3.616714
709.9287, 3.841858
710.4108, 2.824829
710.8929, 1.760605
711.3751, 1.242630
711.8572, 1.220428
712.3393, 1.544235
712.8214, 2.363846
713.3035, 2.968216
713.7856, 2.361771
714.2678, 1.186234
714.7499, 1.005753
715.2320, 1.957535
715.7141, 2.680664
716.1962, 2.219864
716.6783, 1.005051
717.1605, 0.3008420
717.6426, 0.2286070
718.1247, 0.4594730
718.6068, 1.336090
719.0889, 2.142334
719.5710, 2.687012
720.0532, 2.967972
720.5353, 2.821426
721.0174, 2.142380
721.4995, 1.762634
721.9816, 2.960205
722.4637, 4.759766
722.9459, 5.000473
723.4280, 3.699997
723.9101, 2.392487
724.3922, 1.726410
724.8743, 1.339615
725.3564, 0.8390500
725.8386, 2.4460001E-02
726.3207, 0.1655730
726.8028, 1.068298
727.2849, 2.054520
727.7670, 2.005539
728.2491, 1.478058
728.7313, 1.206375
729.2134, 1.301422
729.6955, 1.356171
730.1776, 0.8436130
730.6597, 0.3052980
731.1418, 0.8305820
731.6240, 2.249405
732.1061, 3.525604
732.5882, 4.331955
733.0703, 4.758850
733.5524, 4.860123
734.0345, 4.554291
734.5167, 3.639206
734.9988, 0.9311370
735.4809, 0.6347200
735.9630, 0.2816010
736.4451, 1.830551
736.9272, 2.591370
737.4094, 2.493164
737.8915, 2.128525
738.3736, 1.622070
738.8557, 1.227814
739.3378, 1.301224
739.8199, 1.768524
740.3021, 2.358276
740.7842, 2.970978
741.2663, 3.372635
741.7484, 3.364197
742.2305, 3.104370
742.7126, 3.211472
743.1948, 4.036407
743.6769, 4.409805
744.1590, 3.959305
744.6411, 3.415482
745.1232, 3.085327
745.6053, 2.959869
746.0875, 3.014740
746.5696, 3.309433
747.0517, 3.501617
747.5338, 3.306076
748.0159, 2.842545
748.4980, 2.062454
748.9802, 1.104599
749.4623, 0.8703000
749.9444, 1.885315
750.4265, 3.485947
750.9086, 4.441711
751.3907, 4.606522
751.8729, 4.844650
752.3550, 5.746017
752.8371, 5.911804
753.3192, 4.058578
753.8013, 1.787216
754.2834, 1.086304
754.7656, 2.134995
755.2477, 2.920303
755.7298, 1.992737
756.2119, 0.7997590
756.6940, 1.022400
757.1761, 2.047104
757.6583, 2.080673
758.1404, 0.7139590
758.6225, 0.4413760
759.1046, 0.3961640
759.5867, 2.773148
760.0688, 3.440262
760.5510, 1.600311
761.0331, 0.1602630
761.5152, 0.2301180
761.9973, 0.1640630
762.4794, 1.0208000E-02
762.9615, 0.2325590
763.4437, 0.5905150
763.9258, 1.077057
764.4079, -1.367877
764.8900, 2.407418
765.3721, 4.527319
765.8542, 5.080777
766.3364, -0.6238759
766.8185, 1.752523
767.3006, 0.8904033
767.7827, -0.1045128
768.2648, 3.409259
768.7469, -1.385164
769.2291, 2.057106
769.7112, 2.211439
770.1933, 3.870579
770.6754, 2.271201
771.1575, 1.678276
771.6396, 4.344913
772.1218, 5.206703
772.6039, 3.232218
773.0860, 4.987012
773.5681, 7.8762114E-02
774.0502, 1.017427
774.5323, 4.478772
775.0145, 2.668123
775.4966, 4.482495
775.9787, 4.916258
776.4608, -0.9242617
776.9429, 4.146828
777.4250, 4.499003
777.9072, 0.2933500
778.3893, 0.4008030
778.8714, 5.0751001E-02
779.3535, 0.6027980
779.8356, 1.035950
780.3177, 1.222092
780.7999, 0.9971620
781.2820, 0.6474000
781.7641, 1.242188
782.2462, 0.4478000
782.7283, 2.171127
783.2104, 2.607407
783.6926, 1.946915
784.1747, 0.6417240
784.6568, 1.232529
785.1389, 2.735413
785.6210, 2.939819
786.1031, 2.229034
786.5853, 0.9380040
787.0674, 0.7260280
787.5495, 1.479797
788.0316, 0.6934810
788.5137, 0.7698970
788.9958, 1.674759
789.4780, 1.978439
789.9601, 2.288666
790.4422, 3.017181
790.9243, 3.085495
791.4064, 1.567123
791.8885, 0.1625210
792.3707, 0.9474640
792.8528, 0.8596040
793.3349, 0.7913820
793.8170, 1.388367
794.2991, 1.929520
794.7813, 1.952957
795.2634, 1.612259
795.7455, 1.101212
796.2276, 0.4519500
796.7097, 0.4272610
797.1918, 1.625305
797.6740, 2.802139
798.1561, 3.227707
798.6382, 2.873199
799.1203, 2.749985
799.6024, 3.202652
800.0845, 2.989243
800.5667, 3.008674
801.0488, 1.825821
801.5309, 2.611542
802.0130, 1.108047
802.4951, 0.3249050
802.9772, 1.260864
803.4594, 2.120560
803.9415, 1.839478
804.4236, 1.229477
804.9057, 1.409866
805.3878, 2.424652
805.8699, 3.346268
806.3521, 3.550690
806.8342, 3.301956
807.3163, 2.888519
807.7985, 2.425400
808.2806, 2.205963
808.7627, 2.271606
809.2448, 2.592560
809.7269, 3.206116
810.2090, 3.973907
810.6912, 4.410538
811.1733, 4.107498
811.6554, 4.444107
812.1375, 6.078140
812.6196, 7.638870
813.1017, 8.666031
813.5839, 9.231873
814.0660, 9.148682
814.5481, 8.398987
815.0302, 8.435852
815.5123, 10.67210
815.9944, 13.07956
816.4766, 13.90390
816.9587, 13.87796
817.4408, 14.02751
817.9229, 14.60623
818.4050, 15.67281
818.8871, 17.33333
819.3693, 19.32233
819.8514, 20.83467
820.3335, 21.84308
820.8156, 23.03268
821.2977, 24.40320
821.7798, 26.34891
822.2620, 29.44061
822.7441, 33.16585
823.2262, 35.99750
823.7083, 37.37050
824.1904, 39.19391
824.6725, 41.51126
825.1547, 44.30438
825.6368, 47.52248
826.1189, 51.21616
826.6010, 55.58267
827.0831, 60.61536
827.5652, 65.81357
828.0474, 70.16241
828.5295, 75.05215
829.0116, 82.62381
829.4937, 92.01561
829.9758, 101.0043
830.4579, 109.1520
830.9401, 117.4193
831.4222, 126.5264
831.9043, 136.4699
832.3864, 147.3226
832.8685, 158.9517
833.3506, 171.9245
833.8328, 187.1636
834.3149, 202.1357
834.7970, 214.7342
835.2791, 226.3106
835.7612, 239.2878
836.2433, 253.8569
836.7255, 268.4230
837.2076, 282.4087
837.6897, 296.5531
838.1718, 311.1786
838.6539, 326.1714
839.1360, 341.5605
839.6182, 357.2268
840.1003, 372.8476
840.5824, 388.0493
841.0645, 402.9810
841.5466, 417.7922
842.0287, 432.5585
842.5109, 447.6133
842.9930, 462.9144
843.4751, 476.5371
843.9572, 487.3220
844.4393, 495.4726
844.9214, 501.0995
845.4036, 504.1021
845.8857, 504.9954
846.3678, 505.0072
846.8499, 500.5905
847.3320, 489.3012
847.8141, 473.7409
848.2963, 456.4728
848.7784, 437.5960
849.2605, 416.2953
849.7426, 390.9194
850.2247, 364.9190
850.7068, 338.7998
851.1890, 313.3648
851.6711, 289.1838
852.1532, 266.4262
852.6353, 245.3884
853.1174, 226.2941
853.5995, 208.1538
854.0817, 189.2981
854.5638, 170.4387
855.0459, 153.7721
855.5280, 139.3030
856.0101, 126.4264
856.4922, 114.8750
856.9744, 104.8954
857.4565, 97.03113
857.9386, 91.21144
858.4207, 85.27237
858.9028, 78.89195
859.3849, 72.88286
859.8671, 67.32657
860.3492, 62.30949
860.8313, 58.09012
861.3134, 54.43680
861.7955, 50.61942
862.2776, 46.17444
862.7598, 42.52151
863.2419, 40.77043
863.7240, 39.22539
864.2061, 36.49026
864.6882, 33.24323
865.1703, 30.71877
865.6525, 29.20943
866.1346, 28.05943
866.6167, 26.79938
867.0988, 25.54018
867.5809, 24.30161
868.0630, 23.21103
868.5452, 23.01253
869.0273, 23.77516
869.5094, 23.95143
869.9915, 22.22632
870.4736, 19.73483
870.9557, 19.76006
871.4379, 22.99852
871.9200, 24.68344
872.4021, 24.02115
872.8842, 23.18912
873.3663, 22.92886
873.8484, 23.16670
874.3306, 23.92143
874.8127, 25.20662
875.2948, 26.41206
875.7769, 27.73143
876.2590, 28.66010
876.7411, 28.72220
877.2233, 28.58986
877.7054, 28.84598
878.1875, 29.43001
878.6696, 30.01526
879.1517, 30.49623
879.6339, 30.83879
880.1160, 30.91711
880.5981, 30.90254
881.0802, 30.89435
881.5623, 31.01093
882.0444, 31.67290
882.5266, 32.98561
883.0087, 34.36028
883.4908, 35.10501
883.9729, 35.46962
884.4550, 36.40300
884.9371, 37.90796
885.4193, 39.85831
885.9014, 42.21536
886.3835, 45.12630
886.8656, 48.92830
887.3477, 53.19867
887.8298, 56.72353
888.3120, 59.00841
888.7941, 61.78011
889.2762, 65.41180
889.7583, 69.02924
890.2404, 72.18802
890.7225, 75.34982
891.2047, 78.81543
891.6868, 82.68695
892.1689, 87.44608
892.6510, 93.91470
893.1331, 100.4156
893.6152, 106.4244
894.0974, 111.8318
894.5795, 116.3091
895.0616, 120.1389
895.5437, 123.9252
896.0258, 127.9417
896.5079, 132.1427
896.9901, 136.9205
897.4722, 141.6830
897.9543, 145.1936
898.4364, 147.3922
898.9185, 147.8419
899.4006, 146.4004
899.8828, 144.5323
900.3649, 143.6076
900.8470, 143.1104
901.3291, 141.1143
901.8112, 137.4352
902.2933, 133.0388
902.7755, 127.4977
903.2576, 122.3933
903.7397, 118.9677
904.2218, 116.1183
904.7039, 111.8600
905.1860, 105.9065
905.6682, 100.9164
906.1503, 97.44431
906.6324, 94.28302
907.1145, 91.83414
907.5966, 89.00566
908.0787, 84.31946
908.5609, 78.54346
909.0430, 74.10303
909.5251, 72.01465
910.0072, 70.07794
910.4893, 66.98724
910.9714, 63.66785
911.4536, 60.98198
911.9357, 58.79382
912.4178, 56.74840
912.8999, 54.72662
913.3820, 52.79489
913.8641, 51.11926
914.3463, 49.37085
914.8284, 46.89642
915.3105, 43.80067
915.7926, 40.31158
916.2748, 36.51329
916.7569, 33.24953
917.2390, 31.01747
917.7211, 29.39781
918.2032, 27.68228
918.6854, 25.87738
919.1675, 24.08687
919.6496, 22.23544
920.1317, 20.69574
920.6138, 19.80295
921.0959, 18.84929
921.5781, 16.90512
922.0602, 14.34129
922.5423, 13.03836
923.0244, 13.97456
923.5065, 14.27539
923.9886, 13.28761
924.4708, 12.25793
924.9529, 11.36586
925.4350, 10.95580
925.9171, 11.66412
926.3992, 13.43904
926.8813, 15.02686
927.3635, 15.81094
927.8456, 16.42924
928.3277, 17.25272
928.8098, 18.09497
929.2919, 18.82423
929.7740, 19.41644
930.2562, 19.94301
930.7383, 20.43707
931.2204, 20.70515
931.7025, 20.49359
932.1846, 19.89461
932.6667, 19.09178
933.1489, 18.15579
933.6310, 17.25339
934.1131, 16.41826
934.5952, 15.60419
935.0773, 14.80934
935.5594, 13.89030
936.0416, 12.35855
936.5237, 10.18784
937.0058, 8.775070
937.4879, 8.329788
937.9700, 7.761734
938.4521, 6.562759
938.9343, 5.260422
939.4164, 4.461945
939.8985, 4.126358
940.3806, 3.826065
940.8627, 3.599518
941.3448, 3.483673
941.8270, 3.572266
942.3091, 3.481308
942.7912, 3.086304
943.2733, 2.420547
943.7554, 1.453018
944.2375, 1.824028
944.7197, 1.073410
945.2018, 2.418152
945.6839, 3.416336
946.1660, 3.758362
946.6481, 3.739014
947.1302, 3.452774
947.6124, 3.090942
948.0945, 3.110901
948.5766, 3.791046
949.0587, 4.240967
949.5408, 3.681915
950.0229, 2.746109
950.5051, 2.185211
950.9872, 1.826340
951.4693, 1.214050
951.9514, 0.3048400
952.4335, 0.5764310
952.9156, 1.037613
953.3978, 1.366348
953.8799, 2.188446
954.3620, 2.352524
954.8441, 3.490051
955.3262, 3.083038
955.8083, 2.996490
956.2905, 3.640930
956.7726, 4.500046
957.2547, 4.967178
957.7368, 5.049530
958.2189, 4.698853
958.7010, 3.878281
959.1832, 3.615036
959.6653, 4.183441
960.1474, 4.638855
960.6295, 4.337357
961.1116, 3.795441
961.5938, 4.059235
962.0759, 5.320374
962.5580, 5.499771
963.0401, 4.036789
963.5222, 2.660110
964.0043, 1.848953
964.4865, 1.103012
964.9686, 0.1539150
965.4507, 1.605606
965.9328, 2.356628
966.4149, 2.376602
966.8970, 1.840988
967.3792, 2.113096
967.8613, 1.470688
968.3434, 1.889542
968.8255, 1.860931
969.3076, 1.902374
969.7897, 2.084747
970.2719, 2.424210
970.7540, 3.043503
971.2361, 3.531036
971.7182, 3.613281
972.2003, 3.598129
972.6824, 3.733231
973.1646, 3.939041
973.6467, 4.169556
974.1288, 4.345734
974.6109, 4.079086
975.0930, 2.820496
975.5751, 1.570709
976.0573, 1.290955
976.5394, 1.604492
977.0215, 2.188202
977.5036, 0.6437534
977.9857, 3.299783
978.4678, 4.773393
978.9500, 5.128098
979.4321, 1.012737
979.9142, 2.669559
980.3963, 2.013150
980.8784, 1.261886
981.3605, 3.731118
981.8427, 0.2659091
982.3248, 2.684064
982.8069, 2.753698
983.2890, 3.898188
983.7711, 2.715166
984.2532, 2.251044
984.7354, 4.115164
985.2175, 4.690120
985.6996, 3.239169
986.1817, 4.451985
986.6638, 0.9054831
987.1459, 1.535355
987.6281, 0.7823180
988.1102, 4.5012999E-02
988.5923, 0.2969670
989.0744, 0.1244350
989.5565, 0.7214050
990.0386, 1.654053
990.5208, 2.703461
991.0029, 3.452301
991.4850, 3.463089
991.9671, 2.903488
992.4492, 2.375061
992.9313, 1.790054
993.4135, 1.472565
993.8956, 1.599091
994.3777, 1.751602
994.8598, 1.855515
995.3419, 1.889023
995.8240, 1.751984
996.3062, 1.496902
996.7883, 1.445862
997.2704, 1.180616
997.7525, 2.092712
998.2346, 0.8244780
998.7167, 0.1481170
999.1989, 0.1564180
999.6810, 1.112762
1000.163, 2.172424
1000.645, 3.166901
1001.127, 3.495163
1001.609, 2.399216
1002.092, 1.556732
1002.574, 1.978714
1003.056, 2.487030
1003.538, 2.107300
1004.020, 1.258621
1004.502, 0.6868740
1004.984, 0.5414120
1005.466, 0.5100100
1005.948, 0.5406800
1006.431, 0.3889620
1006.913, 0.6360020
1007.395, 1.464340
1007.877, 0.1781310
1008.359, 2.227615
1008.841, 2.915787
1009.323, 1.199768
1009.805, 0.4478000
1010.288, 1.2985000E-02
1010.770, 1.312561
1011.252, 2.212341
1011.734, 2.720062
1012.216, 2.825012
1012.698, 2.559937
1013.180, 1.873199
1013.662, 0.7809450
1014.144, 7.3363997E-02
1014.627, 0.1372380
1015.109, 0.8835140
1015.591, 1.141739
1016.073, 1.022797
1016.555, 0.7074430
1017.037, 0.3246460
1017.519, 0.5887450
1018.001, 1.873627
1018.484, 3.213287
1018.966, 3.179886
1019.448, 2.238281
1019.930, 2.226440
1020.412, 2.998901
1020.894, 3.159378
1021.376, 2.473785
1021.858, 1.526550
1022.340, 0.6021580
1022.823, 7.4584998E-02
1023.305, 4.9270999E-02
1023.787, 0.5955350
1024.269, 0.5518950
1024.751, 0.2233120
1025.233, 3.7597999E-02
1025.715, 1.781448
1026.197, 3.097244
1026.680, 2.694550
1027.162, 1.412598
1027.644, 0.8222500
1028.126, 0.9421540
1028.608, 0.9380040
1029.090, 0.7009890
1029.572, 0.9005280
1030.054, 1.854477
1030.536, 2.741852
1031.019, 2.957687
1031.501, 2.809326
1031.983, 3.034821
1032.465, 2.778464
1032.947, 3.640182
1033.429, 2.164246
1033.911, 0.8558040
1034.393, 0.2282410
1034.875, 0.5745390
1035.358, 0.5064850
1035.840, 2.364746
1036.322, 3.446945
1036.804, 3.614792
1037.286, 3.671829
1037.768, 3.550613
1038.250, 3.446381
1038.732, 3.526413
1039.215, 3.477097
1039.697, 2.900009
1040.179, 2.077545
1040.661, 1.785492
1041.143, 2.263672
1041.625, 2.380890
1042.107, 1.652954
1042.589, 1.253494
1043.072, 1.348160
1043.554, 1.852493
1044.036, 3.074539
1044.518, 4.621552
1045.000, 5.560486
1045.482, 5.666275
1045.964, 5.799057
1046.446, 6.684158
1046.928, 6.773788
1047.411, 4.427719
1047.893, 2.369614
1048.375, 3.314438
1048.857, 5.891479
1049.339, 6.617249
1049.821, 4.742798
1050.303, 3.252747
1050.785, 2.592880
1051.267, 2.366104
1051.750, 2.879501
1052.232, 3.405991
1052.714, 3.117218
1053.196, 2.458832
1053.678, 2.541611
1054.160, 3.636032
1054.642, 4.666550
1055.124, 5.405869
1055.607, 6.034714
1056.089, 6.611969
1056.571, 7.023483
1057.053, 7.483780
1057.535, 7.106403
1058.017, 7.418411
1058.499, 5.869629
1058.981, 4.524063
1059.464, 3.390274
1059.946, 3.052902
1060.428, 4.568665
1060.910, 6.316864
1061.392, 6.870148
1061.874, 6.582626
1062.356, 6.520554
1062.838, 6.932480
1063.320, 6.786774
1063.802, 4.902054
1064.285, 3.440048
1064.767, 3.965759
1065.249, 4.687851
1065.731, 4.036240
1066.213, 2.605499
1066.695, 1.632416
1067.177, 1.452988
1067.659, 1.588669
1068.142, 1.931351
1068.624, 2.696228
1069.106, 4.488007
1069.588, 6.206146
1070.070, 6.968674
1070.552, 6.954651
1071.034, 6.410629
1071.516, 5.453262
1071.999, 4.911606
1072.481, 5.485687
1072.963, 6.213257
1073.445, 6.877777
1073.927, 7.246078
1074.409, 6.862259
1074.891, 6.165924
1075.373, 5.939514
1075.855, 6.277878
1076.338, 6.582642
1076.820, 6.709427
1077.302, 6.591019
1077.784, 5.780273
1078.266, 5.141693
1078.748, 5.733948
1079.230, 6.730209
1079.712, 6.754471
1080.194, 5.751709
1080.677, 4.764145
1081.159, 3.981766
1081.641, 3.850418
1082.123, 5.346573
1082.605, 6.669968
1083.087, 6.333801
1083.569, 5.219559
1084.052, 4.462738
1084.534, 4.164612
1085.016, 3.857437
1085.498, 3.231522
1085.980, 3.034958
1086.462, 4.153320
1086.944, 5.190002
1087.426, 5.093887
1087.908, 4.510986
1088.391, 4.051086
1088.873, 3.879395
1089.355, 4.469604
1089.837, 6.308395
1090.319, 7.394089
1090.801, 6.172958
1091.283, 5.018860
1091.765, 5.617996
1092.247, 6.628448
1092.730, 6.527359
1093.212, 5.727829
1093.694, 5.494247
1094.176, 6.167938
1094.658, 6.877975
1095.140, 7.342880
1095.622, 7.738693
1096.104, 8.249374
1096.587, 8.629883
1097.069, 8.860001
1097.551, 8.727112
1098.033, 7.746048
1098.515, 5.811447
1098.997, 3.859009
1099.479, 1.445663
1099.961, 2.5467001E-02
1100.443, 0.7484740
1100.926, 1.926285
1101.408, 2.223495
1101.890, 3.396591
1102.372, 3.301620
1102.854, 5.405640
1103.336, 6.939133
1103.818, 7.975372
1104.300, 7.749619
1104.782, 4.564346
1105.265, 1.807419
1105.747, 1.895416
1106.229, 3.063019
1106.711, 2.986633
1107.193, 1.714386
1107.675, 0.8049470
1108.157, 0.3992920
1108.639, 0.4434810
1109.122, 1.124908
1109.604, 2.029114
1110.086, 3.355545
1110.568, 4.524460
1111.050, 4.938873
1111.532, 4.730957
1112.014, 4.463593
1112.496, 4.257080
1112.979, 3.718552
1113.461, 2.777191
1113.943, 1.572464
1114.425, 0.6357270
1114.907, 0.4050643
1115.389, 0.1542947
1115.871, 0.5765080
1116.353, 0.5879360
1116.835, 1.460953
1117.318, 1.864838
1117.800, 1.515091
1118.282, 1.224335
1118.764, 0.9517820
1119.246, 1.012421
1119.728, 1.882935
1120.210, 2.904099
1120.692, 3.014008
1121.174, 2.228256
1121.657, 1.535767
1122.139, 1.018738
1122.621, 0.2579040
1123.103, 0.2099681
1123.585, 1.806915
1124.067, 0.4148560
1124.549, 1.454147
1125.031, 2.171661
1125.514, 1.926056
1125.996, 1.473709
1126.478, 0.6229860
1126.960, 0.6577910
1127.442, 1.795624
1127.924, 3.030472
1128.406, 4.191132
1128.888, 4.800766
1129.370, 4.418594
1129.853, 3.382294
1130.335, 2.368622
1130.817, 1.371811
1131.299, 0.9855190
1131.781, 1.244080
1132.263, 1.311676
1132.745, 1.006210
1133.227, 0.9329830
1133.709, 1.478485
1134.192, 2.030212
1134.674, 1.574448
1135.156, 0.4620060
1135.638, 7.8827001E-02
1136.120, 0.3946080
1136.602, 1.568497
1137.084, 3.429062
1137.566, 3.851852
1138.049, 2.039124
1138.531, 5.7921998E-02
1139.013, 8.7250002E-02
1139.495, 0.7360080
1139.977, 0.8338170
1140.459, 0.5243380
1140.941, 0.9100190
1141.423, 1.757965
1141.906, 1.765671
1142.388, 0.7691500
1142.870, 0.1290740
1143.352, 0.7676390
1143.834, 1.578415
1144.316, 0.8735050
1144.798, 0.2062840
1145.280, 0.5715790
1145.762, 0.2644200
1146.245, 1.757278
1146.727, 0.1584780
1147.209, 0.9825740
1147.691, 0.3001100
1148.173, 1.783264
1148.655, 2.165314
1149.137, 1.978210
1149.619, 1.298492
1150.101, 0.6196900
1150.584, 0.6620640
1151.066, 1.111694
1151.548, 1.223404
1152.030, 0.8876040
1152.512, 0.5988460
1152.994, 0.5328520
1153.476, 0.6358800
1153.958, 1.028992
1154.441, 1.417892
1154.923, 1.742798
1155.405, 1.850800
1155.887, 1.404541
1156.369, 0.5868990
1156.851, 1.7517000E-02
1157.333, 0.3149110
1157.815, 6.9031000E-02
1158.297, 2.179794
1158.780, 3.831528
1159.262, 4.223267
1159.744, 4.021423
1160.226, 3.385284
1160.708, 2.621780
1161.190, 2.318451
1161.672, 2.527176
1162.154, 2.469482
1162.636, 1.895432
1163.119, 1.514679
1163.601, 1.438751
1164.083, 1.489410
1164.565, 1.604950
1165.047, 1.796906
1165.529, 2.180908
1166.011, 2.610321
1166.493, 2.393921
1166.976, 1.287003
1167.458, 0.8612210
1167.940, 1.282669
1168.422, 1.540665
1168.904, 1.345459
1169.386, 1.168274
1169.868, 1.306091
1170.350, 1.705566
1170.833, 2.339661
1171.315, 3.133041
1171.797, 3.697128
1172.279, 3.983521
1172.761, 3.666992
1173.243, 2.889160
1173.725, 2.337341
1174.207, 2.184601
1174.689, 2.221695
1175.172, 2.275620
1175.654, 2.419510
1176.136, 3.022736
1176.618, 3.710480
1177.100, 3.347778
1177.582, 2.374313
1178.064, 2.291458
1178.546, 3.141159
1179.028, 3.479431
1179.511, 2.556931
1179.993, 1.661484
1180.475, 1.807495
1180.957, 2.541916
1181.439, 4.374466
1181.921, 6.063141
1182.403, 5.347885
1182.885, 3.158310
1183.368, 1.788864
1183.850, 1.704132
1184.332, 1.762421
1184.814, 1.435410
1185.296, 1.272095
1185.778, 1.830688
1186.260, 2.242401
1186.742, 1.511185
1187.224, 0.7210240
1187.707, 1.246582
1188.189, 2.750473
1188.671, 3.937256
1189.153, 4.885544
1189.635, 4.775894
1190.117, 1.988419
1190.599, 0.5457310
1191.081, 1.990204
1191.564, 3.566757
1192.046, 3.726166
1192.528, 3.295975
1193.010, 3.387619
1193.492, 3.940613
1193.974, 4.534378
1194.456, 5.363724
1194.938, 5.072678
1195.421, 3.327225
1195.903, 1.932388
1196.385, 1.326981
1196.867, 1.849426
1197.349, 3.860748
1197.831, 4.171025
1198.313, 6.913616
1198.795, 8.473793
1199.277, 8.915072
1199.760, 4.886369
1200.242, 6.629748
1200.724, 6.059911
1201.206, 5.395220
1201.688, 7.951008
1202.170, 4.572383
1202.652, 7.077100
1203.134, 7.233301
1203.616, 8.464353
1204.099, 7.367988
1204.581, 6.990432
1205.063, 8.941126
1205.545, 9.602654
1206.027, 8.238258
1206.509, 9.537646
1206.991, 6.077705
1207.473, 6.794143
1207.956, 9.312580
1208.438, 8.065212
1208.920, 9.407156
1209.402, 9.762938
1209.884, 5.637102
1210.366, 9.305261
1210.848, 9.602777
1211.330, 6.439360
1211.813, 9.840559
1212.295, 7.154279
1212.777, 6.640815
1213.259, 7.762556
1213.741, 7.179655
1214.223, 9.284312
1214.705, 8.799850
1215.187, 8.084076
1215.669, 8.377802
1216.151, 7.740577
1216.634, 8.551145
1217.116, 7.666118
1217.598, 8.583101
1218.080, 9.908520
1218.562, 6.806122
1219.044, 6.071884
1219.526, 6.542618
1220.008, 7.532623
1220.491, 8.590454
1220.973, 9.296631
1221.455, 8.750153
1221.937, 7.363388
1222.419, 5.746246
1222.901, 4.310730
1223.383, 4.483215
1223.865, 5.936279
1224.348, 6.817230
1224.830, 6.517471
1225.312, 6.045746
1225.794, 5.863220
1226.276, 6.167847
1226.758, 7.813034
1227.240, 9.292221
1227.722, 8.918579
1228.204, 7.781403
1228.687, 7.501556
1229.169, 7.856552
1229.651, 7.450241
1230.133, 5.876205
1230.615, 4.715286
1231.097, 4.480957
1231.579, 4.361008
1232.061, 4.515106
1232.543, 4.325485
1233.026, 3.121338
1233.508, 1.920853
1233.990, 1.967133
1234.472, 2.938889
1234.954, 3.433899
1235.436, 3.440643
1235.918, 2.797394
1236.400, 1.382385
1236.883, 0.7639010
1237.365, 1.279297
1237.847, 1.864532
1238.329, 1.953354
1238.811, 1.786041
1239.293, 1.585175
1239.775, 1.462585
1240.257, 1.790558
1240.740, 2.215897
1241.222, 1.621124
1241.704, 0.4560240
1242.186, 0.1429440
1242.668, 0.8035890
1243.150, 1.506714
1243.632, 1.879959
1244.114, 1.941238
1244.596, 1.305923
1245.078, 0.8663480
1245.561, 1.495377
1246.043, 2.255630
1246.525, 2.337677
1247.007, 2.021210
1247.489, 1.747116
1247.971, 1.556702
1248.453, 1.402237
1248.935, 1.268158
1249.418, 1.200104
1249.900, 1.243591
1250.382, 1.271515
1250.864, 1.308136
1251.346, 1.204697
1251.828, 0.8318330
1252.310, 0.3710170
1252.792, 2.5070000E-02
1253.275, 0.1639710
1253.757, 0.1563110
1254.239, 0.2467190
1254.721, 0.6570430
1255.203, 0.4495540
1255.685, 1.014526
1256.167, 0.7725980
1256.649, 0.3862460
1257.131, 0.1980440
1257.614, 9.2116997E-02
1258.096, 9.7699999E-04
1258.578, 0.1325840
1259.060, 0.4134220
1259.542, 0.7228240
1260.024, 0.7506710
1260.506, 0.7655640
1260.988, -0.6402186
1261.470, 2.142468
1261.953, 3.742916
1262.435, 4.224311
1262.917, 0.2356070
1263.399, 2.019102
1263.881, 1.489349
1264.363, 0.8647631
1264.845, 3.460647
1265.327, 0.1221272
1265.810, 2.667126
1266.292, 2.863412
1266.774, 4.134580
1267.256, 3.078214
1267.738, 2.740765
1268.220, 4.731554
1268.702, 5.433187
1269.184, 4.108888
1269.667, 5.448548
1270.149, 2.028723
1270.631, 2.785246
1271.113, 5.343704
1271.595, 4.136432
1272.077, 5.518481
1272.559, 5.914360
1273.041, 1.828630
1273.523, 5.536885
1274.005, 5.874508
1274.488, 2.751373
1274.970, 6.192573
1275.452, 3.546399
1275.934, 3.073032
1276.416, 4.234879
1276.898, 3.692074
1277.380, 4.788864
1277.862, 4.240860
1278.345, 3.690964
1278.827, 3.662064
1279.309, 3.935211
1279.791, 4.523483
1280.273, 4.451431
1280.755, 3.907242
1281.237, 4.298874
1281.719, 4.122772
1282.202, 3.660629
1282.684, 3.599243
1283.166, 1.954956
1283.648, 1.205292
1284.130, 2.193314
1284.612, 3.419785
1285.094, 3.971619
1285.576, 3.774368
1286.058, 1.917999
1286.541, 9.3989996E-03
1287.023, 0.0000000E+00
##END=



