##NAMES=Ettringite
##RRUFFID=R070208
##IDEAL CHEMISTRY=Ca_6_Al_2_(S^6+^O_4_)_3_(OH)_12_&#183;26H_2_O
##LOCALITY=Hatrurim Formation, Negev Desert, West of Dead Sea, southern Israel
##OWNER=RRUFF
##SOURCE=Michael Scott
##DESCRIPTION=Canary yellow to colorless prismatic and tabular hexagonal crystals associated with colorless afwillite, R070296.
##STATUS=The identification of this mineral has been confirmed only by single crystal X-ray diffraction.
##URL=rruff.info/R070208
191.4084, 0.0000000E+00
191.8905, 12.67407
192.3727, 8.302490
192.8548, 1.141113
193.3369, 3.330811
193.8190, 13.77734
194.3011, 23.05566
194.7832, 28.31860
195.2654, 30.81982
195.7475, 32.51685
196.2296, 29.82861
196.7117, 33.48096
197.1938, 53.16870
197.6759, 74.22095
198.1581, 81.90039
198.6402, 71.57568
199.1223, 53.18262
199.6044, 45.31104
200.0865, 53.05420
200.5686, 61.78394
201.0508, 72.90356
201.5329, 82.67627
202.0150, 87.73755
202.4971, 87.31519
202.9792, 83.60645
203.4613, 79.70459
203.9435, 74.47803
204.4256, 72.11377
204.9077, 75.11816
205.3898, 78.92896
205.8719, 80.22559
206.3540, 78.40454
206.8362, 75.56567
207.3183, 74.31323
207.8004, 74.46167
208.2825, 76.98560
208.7646, 86.46899
209.2467, 94.54810
209.7289, 95.27295
210.2110, 88.62158
210.6931, 79.49292
211.1752, 72.76782
211.6573, 67.64038
212.1395, 68.40063
212.6216, 84.10645
213.1037, 97.64307
213.5858, 98.78442
214.0679, 88.76685
214.5500, 76.41504
215.0322, 70.59839
215.5143, 74.00122
215.9964, 77.69995
216.4785, 75.80566
216.9606, 76.39868
217.4427, 80.28735
217.9249, 85.14087
218.4070, 87.54834
218.8891, 88.42822
219.3712, 85.91846
219.8533, 90.81104
220.3354, 116.0903
220.8176, 134.7383
221.2997, 137.6619
221.7818, 128.0408
222.2639, 114.1819
222.7460, 99.73755
223.2281, 84.96802
223.7103, 74.99048
224.1924, 69.00220
224.6745, 67.38135
225.1566, 74.00757
225.6387, 83.29834
226.1208, 87.26807
226.6030, 81.26758
227.0851, 68.73462
227.5672, 60.95215
228.0493, 64.16797
228.5314, 65.74854
229.0135, 61.03491
229.4957, 53.52148
229.9778, 47.17383
230.4599, 43.56689
230.9420, 42.82935
231.4241, 43.63281
231.9062, 48.70630
232.3884, 51.33569
232.8705, 47.96313
233.3526, 43.80103
233.8347, 40.34082
234.3168, 39.66089
234.7989, 40.32568
235.2811, 43.83301
235.7632, 52.75928
236.2453, 56.07446
236.7274, 49.45142
237.2095, 40.34741
237.6916, 32.87183
238.1738, 28.57593
238.6559, 24.58423
239.1380, 15.27148
239.6201, 3.739746
240.1022, 11.52344
240.5843, 8.120361
241.0665, 26.47510
241.5486, 27.55200
242.0307, 12.59521
242.5128, 4.763428
242.9949, 7.964844
243.4770, 2.479980
243.9592, 6.216553
244.4413, 8.538086
244.9234, 17.63843
245.4055, 19.37378
245.8876, 1.397949
246.3697, 6.860596
246.8519, 3.461182
247.3340, 0.4223630
247.8161, 11.88965
248.2982, 5.465088
248.7803, 7.129639
249.2624, 7.973633
249.7446, 14.18286
250.2267, 8.740967
250.7088, 7.069824
251.1909, 17.08545
251.6730, 20.40796
252.1551, 13.52612
252.6373, 20.05029
253.1194, 2.619629
253.6015, 6.203857
254.0836, 18.85205
254.5657, 12.54395
255.0478, 19.26318
255.5300, 21.01318
256.0121, 0.2045900
256.4942, 18.61304
256.9763, 20.05249
257.4584, 4.065918
257.9406, 21.10962
258.4227, 7.510986
258.9048, 4.839355
259.3869, 10.38892
259.8690, 7.352661
260.3511, 17.83386
260.8333, 15.27820
261.3154, 11.54980
261.7975, 12.89551
262.2796, 0.1652830
262.7617, 13.47339
263.2438, 8.857544
263.7260, 13.30115
264.2081, 19.79089
264.6902, 10.53259
265.1723, 17.92822
265.6544, 0.5247800
266.1365, 2.632813
266.6187, 3.453003
267.1008, 18.08362
267.5829, 0.2816160
268.0650, 2.239014
268.5471, 13.64685
269.0292, 12.59875
269.5114, 16.74695
269.9935, 5.479614
270.4756, 8.680420
270.9577, 7.882813
271.4398, 20.86462
271.9219, 22.95520
272.4041, 11.91296
272.8862, 0.9183350
273.3683, 14.85571
273.8504, 5.128052
274.3325, 8.149170
274.8146, 2.018066
275.2968, 0.8310550
275.7789, 0.1584470
276.2610, 6.971924
276.7431, 3.911987
277.2252, 8.126343
277.7073, 6.894409
278.1895, 9.559570
278.6716, 11.78357
279.1537, 3.788818
279.6358, 4.785645
280.1179, 15.07434
280.6000, 3.104858
281.0822, 2.446777
281.5643, 3.442505
282.0464, 17.10474
282.5285, 17.61572
283.0106, 5.821411
283.4927, 13.75415
283.9749, 6.858765
284.4570, 7.239868
284.9391, 12.06641
285.4212, 16.14246
285.9033, 17.83057
286.3854, 17.05347
286.8676, 15.54102
287.3497, 9.699463
287.8318, 6.629639
288.3139, 12.64380
288.7960, 24.52759
289.2781, 34.01794
289.7603, 36.75061
290.2424, 33.31641
290.7245, 25.81189
291.2066, 6.544312
291.6887, 7.080078
292.1708, 8.770630
292.6530, 4.703003
293.1351, 3.156250
293.6172, 6.964844
294.0993, 11.95312
294.5814, 10.24402
295.0635, 5.738037
295.5457, 13.87744
296.0278, 9.575928
296.5099, 1.343262
296.9920, 7.636353
297.4741, 15.96094
297.9562, 19.48755
298.4384, 10.96729
298.9205, 11.82690
299.4026, 24.30591
299.8847, 17.09546
300.3668, 8.512451
300.8489, 4.185547
301.3311, 4.879395
301.8131, 8.341309
302.2953, 15.75024
302.7774, 25.17993
303.2595, 29.50391
303.7416, 26.47217
304.2237, 20.54712
304.7058, 7.024414
305.1880, 7.089355
305.6701, 12.10620
306.1522, 5.578613
306.6343, 5.942871
307.1164, 7.511963
307.5985, 4.748291
308.0807, 12.29712
308.5628, 8.191895
309.0449, 0.5026860
309.5270, 7.202393
310.0091, 14.08154
310.4912, 19.14624
310.9734, 20.24438
311.4555, 18.23608
311.9376, 17.09155
312.4197, 16.64795
312.9018, 17.27808
313.3839, 20.95605
313.8661, 25.38257
314.3482, 26.48047
314.8303, 17.68311
315.3124, 5.125244
315.7945, 1.573242
316.2766, 7.928467
316.7588, 15.12769
317.2409, 18.46240
317.7230, 19.55103
318.2051, 21.79224
318.6872, 26.30737
319.1693, 30.20068
319.6515, 30.77393
320.1336, 28.28003
320.6157, 26.91309
321.0978, 27.82910
321.5799, 29.16626
322.0620, 26.43213
322.5442, 18.15259
323.0263, 14.37378
323.5084, 20.95288
323.9905, 32.19263
324.4726, 39.74756
324.9547, 42.47339
325.4369, 42.92090
325.9190, 44.57080
326.4011, 47.66724
326.8832, 50.60889
327.3653, 54.94824
327.8474, 57.65820
328.3296, 54.65771
328.8117, 48.40308
329.2938, 47.10693
329.7759, 56.17725
330.2580, 72.45483
330.7401, 81.26196
331.2223, 75.50513
331.7044, 71.98486
332.1865, 73.69922
332.6686, 77.70190
333.1507, 82.43823
333.6328, 87.07153
334.1150, 91.11646
334.5971, 92.52930
335.0792, 91.04590
335.5613, 90.95068
336.0434, 90.48950
336.5255, 92.77368
337.0077, 99.77417
337.4898, 111.1060
337.9719, 124.9893
338.4540, 139.9236
338.9361, 154.9387
339.4182, 162.2583
339.9004, 151.4409
340.3825, 149.5344
340.8646, 174.0984
341.3467, 208.1038
341.8288, 225.8416
342.3109, 215.9653
342.7931, 196.5686
343.2752, 195.4041
343.7573, 215.0798
344.2394, 234.6060
344.7215, 248.7524
345.2036, 261.2888
345.6858, 274.9377
346.1679, 289.8994
346.6500, 305.8545
347.1321, 326.2920
347.6142, 347.5283
348.0963, 355.9900
348.5785, 345.0874
349.0606, 337.9238
349.5427, 357.7505
350.0248, 396.5867
350.5069, 430.5469
350.9890, 456.6257
351.4712, 474.8713
351.9533, 482.9561
352.4354, 482.8606
352.9175, 482.6001
353.3996, 484.2495
353.8817, 488.2737
354.3639, 496.5300
354.8460, 509.7751
355.3281, 523.1248
355.8102, 537.2195
356.2923, 551.2812
356.7744, 564.3047
357.2566, 575.3589
357.7387, 581.9849
358.2208, 580.8945
358.7029, 570.3918
359.1850, 561.2119
359.6671, 551.9688
360.1493, 545.1870
360.6314, 543.8643
361.1135, 545.8259
361.5956, 546.9763
362.0777, 545.0764
362.5598, 539.9324
363.0420, 530.3894
363.5241, 513.7974
364.0062, 497.3062
364.4883, 480.4265
364.9704, 464.4382
365.4525, 450.3496
365.9347, 438.2874
366.4168, 428.1963
366.8989, 418.9705
367.3810, 410.0979
367.8631, 406.5225
368.3452, 414.8340
368.8274, 420.7253
369.3095, 415.4629
369.7916, 402.4043
370.2737, 389.7930
370.7558, 381.6960
371.2379, 376.0554
371.7201, 368.9873
372.2022, 360.1318
372.6843, 353.6338
373.1664, 353.3350
373.6485, 355.1760
374.1306, 352.3013
374.6128, 342.7224
375.0949, 334.8918
375.5770, 334.8889
376.0591, 339.4812
376.5412, 341.8169
377.0233, 340.2158
377.5055, 338.8650
377.9876, 344.0071
378.4697, 356.6489
378.9518, 358.2346
379.4339, 334.3459
379.9160, 312.1052
380.3982, 312.8118
380.8803, 329.1809
381.3624, 338.1277
381.8445, 326.2112
382.3266, 301.7241
382.8087, 289.7849
383.2909, 307.6211
383.7730, 315.8293
384.2551, 307.6865
384.7372, 293.5796
385.2193, 281.5583
385.7014, 273.0667
386.1836, 264.9504
386.6657, 253.7378
387.1478, 239.2805
387.6299, 225.3667
388.1120, 210.6062
388.5941, 198.0935
389.0763, 190.4780
389.5584, 185.3064
390.0405, 178.1877
390.5226, 166.2444
391.0047, 154.2998
391.4868, 151.9729
391.9690, 160.7798
392.4511, 164.6902
392.9332, 157.4990
393.4153, 145.3074
393.8974, 133.9541
394.3795, 123.4958
394.8617, 112.5339
395.3438, 98.00269
395.8259, 83.34082
396.3080, 75.04712
396.7901, 73.97046
397.2722, 74.62671
397.7544, 73.78149
398.2365, 71.48340
398.7186, 68.50464
399.2007, 64.79419
399.6828, 60.52539
400.1649, 53.42188
400.6471, 46.35327
401.1292, 46.07568
401.6113, 54.86499
402.0934, 64.52832
402.5755, 62.48071
403.0576, 43.57593
403.5398, 28.24292
404.0219, 13.49487
404.5040, 4.338867
404.9861, 7.784180
405.4682, 19.06274
405.9503, 26.17896
406.4325, 20.69263
406.9146, 7.385498
407.3967, 4.340820
407.8788, 19.01465
408.3609, 28.60474
408.8430, 24.57837
409.3252, 16.94141
409.8073, 13.09277
410.2894, 14.24536
410.7715, 17.53125
411.2536, 21.68701
411.7357, 26.22314
412.2179, 28.42871
412.7000, 27.81250
413.1821, 25.60596
413.6642, 20.29126
414.1463, 14.90063
414.6284, 13.46777
415.1106, 19.93530
415.5927, 27.33423
416.0748, 30.59131
416.5569, 30.43140
417.0390, 28.86255
417.5211, 26.41187
418.0033, 23.29321
418.4854, 19.25879
418.9675, 12.85596
419.4496, 11.09106
419.9317, 19.07104
420.4138, 27.80200
420.8960, 29.60449
421.3781, 26.41895
421.8602, 26.59790
422.3423, 36.50659
422.8244, 53.19897
423.3065, 59.39819
423.7887, 42.44653
424.2708, 35.06860
424.7529, 51.05591
425.2350, 70.01978
425.7171, 73.34521
426.1992, 59.76123
426.6814, 44.01074
427.1635, 40.65649
427.6456, 48.47852
428.1277, 54.08569
428.6098, 56.96851
429.0919, 58.82837
429.5741, 59.69189
430.0562, 60.50928
430.5383, 62.42822
431.0204, 65.55762
431.5025, 70.16431
431.9846, 78.23657
432.4668, 88.25317
432.9489, 94.87524
433.4310, 96.52466
433.9131, 94.32715
434.3952, 86.49683
434.8773, 71.61230
435.3595, 69.99121
435.8416, 95.50586
436.3237, 123.1196
436.8058, 136.7291
437.2879, 139.7542
437.7701, 143.4266
438.2522, 153.5869
438.7343, 167.1960
439.2164, 176.6752
439.6985, 181.8788
440.1806, 182.7324
440.6628, 172.0544
441.1449, 163.4832
441.6270, 167.5959
442.1091, 183.3320
442.5912, 201.0261
443.0733, 214.3953
443.5555, 223.3281
444.0376, 226.7141
444.5197, 222.3406
445.0018, 218.6106
445.4839, 218.0048
445.9660, 220.4485
446.4482, 227.8467
446.9303, 241.2549
447.4124, 251.7919
447.8945, 253.5066
448.3766, 248.0863
448.8587, 236.9659
449.3409, 219.8250
449.8230, 207.2156
450.3051, 208.9518
450.7872, 223.0146
451.2693, 231.6033
451.7514, 237.0408
452.2336, 235.4054
452.7157, 218.3346
453.1978, 195.9395
453.6799, 183.6003
454.1620, 185.2980
454.6441, 191.5071
455.1263, 189.5822
455.6084, 176.2034
456.0905, 168.2623
456.5726, 172.9409
457.0547, 176.7817
457.5368, 177.7499
458.0190, 174.6982
458.5011, 165.7482
458.9832, 150.0316
459.4653, 130.2007
459.9474, 108.0349
460.4295, 83.46338
460.9117, 71.83008
461.3938, 82.47461
461.8759, 98.33740
462.3580, 104.8579
462.8401, 103.3485
463.3222, 99.89502
463.8044, 96.73047
464.2865, 91.83850
464.7686, 82.27551
465.2507, 69.13928
465.7328, 55.79370
466.2149, 42.97278
466.6971, 33.36243
467.1792, 32.86292
467.6613, 48.13074
468.1434, 58.74915
468.6255, 66.54883
469.1076, 68.28430
469.5898, 59.19788
470.0719, 42.01477
470.5540, 22.29407
471.0361, 1.787842
471.5182, 14.41248
472.0003, 7.480347
472.4825, 36.02014
472.9646, 65.84180
473.4467, 60.28271
473.9288, 45.11047
474.4109, 35.01343
474.8930, 30.91248
475.3752, 27.83716
475.8573, 22.72095
476.3394, 16.92175
476.8215, 12.16736
477.3036, 8.510742
477.7857, 8.204224
478.2679, 14.89331
478.7500, 23.58301
479.2321, 20.26062
479.7142, 2.718994
480.1963, 16.83044
480.6784, 9.286377
481.1606, 4.479492
481.6427, 11.15894
482.1248, 9.747070
482.6069, 5.171631
483.0890, 0.7169190
483.5711, 3.382690
484.0533, 5.927856
484.5354, 6.690796
485.0175, 6.140381
485.4996, 2.444092
485.9817, 1.039673
486.4638, 0.8226320
486.9460, 3.010498
487.4281, 6.485352
487.9102, 5.037231
488.3923, 0.9090580
488.8744, 2.346069
489.3565, 10.87390
489.8387, 16.26587
490.3208, 11.67761
490.8029, 1.431030
491.2850, 5.104004
491.7671, 6.867798
492.2492, 8.116699
492.7314, 8.157837
493.2135, 9.593018
493.6956, 18.33228
494.1777, 33.21387
494.6598, 43.76135
495.1419, 41.35583
495.6241, 28.16760
496.1062, 18.02820
496.5883, 10.48999
497.0704, 7.124756
497.5525, 13.63135
498.0346, 20.33301
498.5168, 17.67761
498.9989, 5.685425
499.4810, 6.718506
499.9631, 12.53003
500.4452, 12.87854
500.9273, 11.38794
501.4095, 7.569702
501.8916, 3.838745
502.3737, 5.1392000E-02
502.8558, 2.236450
503.3379, 0.2044680
503.8200, 7.495239
504.3022, 13.97620
504.7843, 17.60791
505.2664, 18.11621
505.7485, 13.12732
506.2306, 3.603882
506.7127, 3.530151
507.1949, 2.827026
507.6770, 2.741699
508.1591, 0.1816410
508.6412, 25.36450
509.1233, 38.64026
509.6054, 29.34204
510.0876, 14.94775
510.5697, 8.204468
511.0518, 9.247070
511.5339, 10.20166
512.0161, 3.255249
512.4982, 6.461304
512.9803, 2.412476
513.4624, 18.30371
513.9445, 35.31396
514.4266, 42.67139
514.9088, 41.57971
515.3909, 30.90405
515.8730, 9.178711
516.3551, 3.635498
516.8372, 4.590210
517.3193, 19.78931
517.8015, 31.96899
518.2836, 39.60693
518.7657, 39.65088
519.2478, 29.42615
519.7299, 15.36169
520.2120, 13.38257
520.6942, 32.68884
521.1763, 46.65930
521.6584, 58.00708
522.1405, 62.24219
522.6226, 50.02466
523.1047, 28.72559
523.5869, 16.64771
524.0690, 25.08838
524.5511, 43.54736
525.0332, 56.56274
525.5153, 64.14075
525.9974, 66.56421
526.4796, 61.14600
526.9617, 55.06726
527.4438, 57.72302
527.9259, 67.84656
528.4080, 74.20935
528.8901, 71.08179
529.3723, 67.13660
529.8544, 69.90063
530.3365, 76.89392
530.8186, 82.50208
531.3007, 84.98669
531.7828, 86.72827
532.2650, 91.56641
532.7471, 100.7426
533.2292, 105.2982
533.7113, 100.9772
534.1934, 96.76562
534.6755, 94.10388
535.1577, 93.65833
535.6398, 96.36243
536.1219, 102.6135
536.6040, 110.8877
537.0861, 121.4047
537.5682, 132.6182
538.0504, 137.6069
538.5325, 135.6243
539.0146, 139.1775
539.4967, 160.4331
539.9788, 193.5076
540.4609, 208.8856
540.9431, 194.8625
541.4252, 181.1715
541.9073, 170.5482
542.3894, 165.2775
542.8715, 170.2902
543.3536, 184.1946
543.8358, 198.6154
544.3179, 207.1746
544.8000, 210.0132
545.2821, 207.5736
545.7642, 197.0751
546.2463, 190.1763
546.7285, 191.6357
547.2106, 195.5439
547.6927, 199.6492
548.1748, 203.9033
548.6569, 204.6926
549.1390, 196.2386
549.6211, 185.4872
550.1032, 180.5461
550.5853, 180.4851
551.0674, 180.4924
551.5496, 178.4880
552.0317, 176.5598
552.5138, 178.7499
552.9959, 188.4401
553.4780, 190.5620
553.9601, 180.3751
554.4423, 168.8466
554.9244, 163.0084
555.4065, 157.9258
555.8886, 142.6626
556.3707, 112.7252
556.8528, 84.04919
557.3350, 79.01453
557.8171, 94.45251
558.2992, 100.7646
558.7813, 91.64294
559.2634, 85.77539
559.7455, 100.4480
560.2277, 127.0601
560.7098, 137.9670
561.1919, 126.7725
561.6740, 109.8580
562.1561, 85.48682
562.6382, 62.46851
563.1204, 51.65918
563.6025, 53.02417
564.0846, 58.15295
564.5667, 60.92493
565.0488, 61.30615
565.5309, 60.38855
566.0131, 58.24219
566.4952, 56.38293
566.9773, 55.21826
567.4594, 53.77527
567.9415, 51.02380
568.4236, 47.30090
568.9058, 44.28186
569.3879, 43.69238
569.8700, 43.05127
570.3521, 37.13196
570.8342, 29.15991
571.3163, 29.18872
571.7985, 40.47205
572.2806, 53.78003
572.7627, 57.54370
573.2448, 50.39941
573.7269, 46.66931
574.2090, 52.05640
574.6912, 53.68970
575.1733, 43.13098
575.6554, 29.08337
576.1375, 20.72925
576.6196, 20.26184
577.1017, 24.91968
577.5839, 35.68811
578.0660, 49.53503
578.5481, 55.46741
579.0302, 52.63721
579.5123, 47.45654
579.9944, 40.34790
580.4766, 34.76379
580.9587, 38.84412
581.4408, 54.88306
581.9229, 68.81885
582.4050, 80.29688
582.8871, 87.60657
583.3693, 85.37280
583.8514, 78.55798
584.3335, 79.79456
584.8156, 94.98584
585.2977, 111.7148
585.7798, 106.7373
586.2620, 77.25171
586.7441, 59.54089
587.2262, 59.11719
587.7083, 64.20618
588.1904, 71.37793
588.6725, 78.74438
589.1547, 82.16077
589.6368, 78.12781
590.1189, 78.05310
590.6010, 94.76624
591.0831, 114.5564
591.5652, 116.0796
592.0474, 100.7584
592.5295, 89.10327
593.0116, 95.40125
593.4937, 112.9739
593.9758, 121.1617
594.4579, 116.7205
594.9401, 110.5243
595.4222, 99.97107
595.9043, 91.05188
596.3864, 87.66321
596.8685, 88.33765
597.3506, 89.65540
597.8328, 92.16003
598.3149, 91.38892
598.7970, 77.57629
599.2791, 57.80334
599.7612, 52.00488
600.2433, 64.03491
600.7255, 81.07922
601.2076, 93.12634
601.6897, 100.4520
602.1718, 105.2588
602.6539, 104.3633
603.1360, 105.2764
603.6182, 114.9580
604.1003, 121.5948
604.5824, 112.7926
605.0645, 91.68420
605.5466, 73.52808
606.0287, 67.45410
606.5109, 68.41357
606.9930, 71.01453
607.4751, 74.60889
607.9572, 71.86340
608.4393, 58.37415
608.9214, 48.78625
609.4036, 61.36060
609.8857, 96.20129
610.3678, 112.7814
610.8499, 99.80200
611.3320, 84.74670
611.8141, 72.02100
612.2963, 61.41357
612.7784, 51.99048
613.2605, 44.04224
613.7426, 40.46826
614.2247, 43.49329
614.7068, 50.15991
615.1890, 54.31824
615.6711, 56.38159
616.1532, 58.30774
616.6353, 62.27307
617.1174, 63.14587
617.5995, 51.34827
618.0817, 26.53918
618.5638, 15.31628
619.0459, 31.93701
619.5280, 47.00061
620.0101, 45.96155
620.4922, 38.58789
620.9744, 39.71936
621.4565, 50.68054
621.9386, 57.97339
622.4207, 46.73889
622.9028, 23.28625
623.3849, 13.48767
623.8671, 19.48169
624.3492, 26.94116
624.8313, 32.79187
625.3134, 37.00671
625.7955, 40.21594
626.2776, 42.33691
626.7598, 38.96875
627.2419, 19.83093
627.7240, 5.506226
628.2061, 11.44519
628.6882, 26.81189
629.1703, 35.63904
629.6525, 34.52966
630.1346, 31.06165
630.6167, 33.26257
631.0988, 39.45300
631.5809, 39.31714
632.0630, 31.04773
632.5452, 23.08484
633.0273, 15.57922
633.5094, 11.44824
633.9915, 15.56018
634.4736, 27.48535
634.9557, 37.16919
635.4379, 39.83093
635.9200, 42.89539
636.4021, 55.20923
636.8842, 68.89355
637.3663, 67.73584
637.8484, 50.14795
638.3306, 34.43762
638.8127, 41.66882
639.2948, 66.95447
639.7769, 78.36243
640.2590, 70.36072
640.7411, 68.67737
641.2233, 86.20264
641.7054, 108.0469
642.1875, 116.9689
642.6696, 114.0804
643.1517, 112.6985
643.6339, 109.3417
644.1160, 114.7522
644.5981, 141.4747
645.0802, 178.1636
645.5623, 208.7854
646.0444, 229.3901
646.5266, 243.5850
647.0087, 254.8297
647.4908, 262.8162
647.9729, 266.4868
648.4550, 265.0205
648.9371, 266.6509
649.4193, 275.9264
649.9014, 286.3506
650.3835, 289.9336
650.8656, 288.1133
651.3477, 291.5510
651.8298, 310.2968
652.3120, 325.2908
652.7941, 325.5753
653.2762, 317.8115
653.7583, 311.4644
654.2404, 307.5778
654.7225, 300.2065
655.2047, 284.0968
655.6868, 261.4747
656.1689, 238.6431
656.6510, 214.6788
657.1331, 196.7993
657.6152, 189.8822
658.0974, 184.7537
658.5795, 173.4996
659.0616, 157.0647
659.5437, 139.4091
660.0258, 118.7316
660.5079, 99.49023
660.9901, 81.27905
661.4722, 66.48499
661.9543, 59.11377
662.4364, 58.08179
662.9185, 57.89795
663.4006, 55.25183
663.8828, 50.24951
664.3649, 41.92627
664.8470, 30.08398
665.3291, 21.64673
665.8112, 18.29602
666.2933, 16.94531
666.7755, 15.48926
667.2576, 14.19128
667.7397, 14.01306
668.2218, 14.80774
668.7039, 16.93298
669.1860, 26.36780
669.6682, 32.31921
670.1503, 21.87927
670.6324, 0.4940190
671.1145, 16.20654
671.5966, 20.69312
672.0787, 16.48853
672.5609, 5.129395
673.0430, 11.77051
673.5251, 21.76758
674.0072, 22.85596
674.4893, 22.19824
674.9714, 24.36865
675.4536, 27.41638
675.9357, 26.00293
676.4178, 16.88013
676.8999, 10.38806
677.3820, 8.161621
677.8641, 7.141479
678.3463, 4.934692
678.8284, 3.127930
679.3105, 5.210083
679.7926, 12.27612
680.2747, 19.74500
680.7568, 24.92346
681.2390, 26.89111
681.7211, 21.02405
682.2032, 7.608887
682.6853, 1.853760
683.1674, 2.089600
683.6495, 2.971069
684.1317, 7.943359
684.6138, 13.39368
685.0959, 14.71692
685.5780, 9.284302
686.0601, 2.972168
686.5422, 5.491943
687.0244, 12.54810
687.5065, 12.81592
687.9886, 6.483398
688.4707, 2.248779
688.9528, 8.980591
689.4349, 17.31799
689.9171, 14.80627
690.3992, 5.006104
690.8813, 1.077515
691.3634, 0.5059810
691.8455, 1.474243
692.3276, 0.5814210
692.8098, 6.014893
693.2919, 8.970459
693.7740, 8.784546
694.2561, 7.485352
694.7382, 1.090698
695.2203, 2.290894
695.7025, 6.106201
696.1846, 22.71899
696.6667, 34.05505
697.1488, 36.97498
697.6309, 33.72058
698.1130, 19.35449
698.5952, 2.938965
699.0773, 3.677490
699.5594, 0.3616940
700.0415, 7.050781
700.5236, 14.69568
701.0057, 20.74463
701.4879, 19.73669
701.9700, 11.13293
702.4521, 7.675415
702.9342, 13.23901
703.4163, 16.59180
703.8984, 7.710693
704.3806, 6.539429
704.8627, 8.713135
705.3448, 6.907471
705.8269, 17.28503
706.3090, 14.93799
706.7911, 10.90747
707.2733, 11.78296
707.7554, 15.48535
708.2375, 17.70447
708.7196, 17.20898
709.2017, 16.47058
709.6838, 17.59595
710.1660, 20.05261
710.6481, 23.59802
711.1302, 27.96509
711.6123, 27.35876
712.0944, 18.17432
712.5765, 10.18530
713.0587, 17.27612
713.5408, 40.67480
714.0229, 52.95459
714.5050, 43.47229
714.9871, 37.61658
715.4692, 43.29370
715.9514, 50.25427
716.4335, 48.43225
716.9156, 39.44751
717.3977, 33.73511
717.8798, 37.46289
718.3619, 43.01453
718.8441, 45.48022
719.3262, 45.20239
719.8083, 40.20752
720.2904, 31.94910
720.7725, 29.21826
721.2546, 38.22070
721.7368, 54.38855
722.2189, 69.35889
722.7010, 85.16797
723.1831, 84.11511
723.6652, 53.12085
724.1473, 28.83350
724.6295, 40.02161
725.1116, 67.90808
725.5937, 72.02136
726.0758, 42.92725
726.5579, 24.70471
727.0400, 33.94275
727.5222, 47.60767
728.0043, 55.05005
728.4864, 56.04016
728.9685, 47.79553
729.4506, 31.91260
729.9327, 21.51929
730.4149, 35.59338
730.8970, 60.26465
731.3791, 62.26477
731.8612, 43.95361
732.3433, 27.34131
732.8254, 18.59045
733.3076, 14.39355
733.7897, 11.65210
734.2718, 10.36182
734.7539, 10.32434
735.2360, 11.64075
735.7181, 14.08032
736.2003, 18.45752
736.6824, 23.60730
737.1645, 30.28076
737.6466, 36.22864
738.1287, 35.13892
738.6108, 20.86072
739.0930, 10.25232
739.5751, 18.85364
740.0572, 32.17944
740.5393, 31.01050
741.0214, 18.38647
741.5035, 9.127075
741.9857, 9.988159
742.4678, 16.80725
742.9499, 25.58264
743.4320, 35.64563
743.9141, 40.47656
744.3962, 38.60901
744.8784, 37.54309
745.3605, 42.48120
745.8426, 48.56274
746.3247, 46.28528
746.8068, 32.47864
747.2889, 27.02356
747.7711, 43.08667
748.2532, 53.22986
748.7353, 44.53003
749.2174, 31.03967
749.6995, 26.36536
750.1816, 30.48145
750.6638, 35.83191
751.1459, 40.49890
751.6280, 41.94263
752.1101, 35.07373
752.5922, 24.23181
753.0743, 16.55493
753.5565, 13.70300
754.0386, 16.78528
754.5207, 27.29895
755.0028, 40.21838
755.4849, 46.28540
755.9670, 45.32910
756.4492, 36.95508
756.9313, 15.12195
757.4134, 0.9207760
757.8955, 8.281006
758.3776, 23.88843
758.8597, 28.55420
759.3419, 21.26270
759.8240, 20.75098
760.3061, 36.37158
760.7882, 49.60913
761.2703, 53.64319
761.7524, 51.72778
762.2346, 45.55835
762.7167, 36.84900
763.1988, 28.49353
763.6809, 19.51221
764.1630, 12.95227
764.6451, 15.25830
765.1273, 22.18872
765.6094, 21.43286
766.0915, 12.28406
766.5736, 5.893555
767.0557, 9.498657
767.5378, 18.41113
768.0200, 22.17224
768.5021, 19.62732
768.9842, 19.13147
769.4663, 22.46619
769.9484, 24.28015
770.4305, 21.89978
770.9127, 16.94836
771.3948, 10.37781
771.8769, 1.613037
772.3590, 1.436401
772.8411, 6.973145
773.3232, 15.50110
773.8054, 17.82605
774.2875, 19.36511
774.7696, 29.24133
775.2517, 45.17273
775.7338, 53.50122
776.2159, 44.84399
776.6981, 29.59485
777.1802, 16.72009
777.6623, 6.792603
778.1444, 2.306763
778.6265, 2.894531
779.1086, 3.932129
779.5908, 2.959839
780.0729, 0.1236570
780.5550, 5.534180
781.0371, 14.90625
781.5192, 17.57617
782.0013, 11.81970
782.4835, 3.565674
782.9656, 8.260254
783.4477, 18.37451
783.9298, 18.18909
784.4119, 7.425659
784.8940, 0.5170900
785.3762, 1.085693
785.8583, 0.1529540
786.3404, 4.652344
786.8225, 10.87500
787.3046, 19.05164
787.7867, 27.83142
788.2689, 33.54602
788.7510, 33.99927
789.2331, 33.27026
789.7152, 34.86902
790.1973, 37.50378
790.6794, 40.06030
791.1616, 41.78149
791.6437, 40.65930
792.1258, 35.81812
792.6079, 27.87402
793.0900, 15.85645
793.5721, 0.8763430
794.0543, 5.591675
794.5364, 2.788818
795.0185, 4.605347
795.5006, 18.53125
795.9827, 29.51624
796.4648, 26.57458
796.9470, 11.23743
797.4291, 1.470215
797.9112, 1.676636
798.3933, 1.058472
798.8754, 2.433594
799.3575, 5.425781
799.8397, 6.362183
800.3218, 4.969116
800.8039, 0.2568360
801.2860, 10.85767
801.7681, 16.46484
802.2502, 7.384033
802.7324, 5.013916
803.2145, 13.27454
803.6966, 16.18665
804.1787, 9.322998
804.6608, 6.412598
805.1429, 17.71570
805.6251, 10.16870
806.1072, 4.843994
806.5893, 1.454590
807.0714, 25.19092
807.5535, 35.34106
808.0356, 26.01624
808.5178, 13.21045
808.9999, 7.083496
809.4820, 5.509277
809.9641, 2.894043
810.4462, 2.427979
810.9283, 2.453857
811.4105, 6.072632
811.8926, 14.66040
812.3747, 21.49646
812.8568, 25.71887
813.3389, 26.80322
813.8210, 24.72681
814.3032, 17.82568
814.7853, 4.438232
815.2674, 18.82666
815.7495, 10.52161
816.2316, 4.783936
816.7137, 13.51147
817.1959, 16.00366
817.6780, 19.08008
818.1601, 26.13818
818.6422, 31.80786
819.1243, 30.08081
819.6064, 24.88818
820.0886, 22.34607
820.5707, 22.04089
821.0528, 20.50415
821.5349, 16.59253
822.0170, 13.32605
822.4991, 14.10742
822.9813, 18.35535
823.4634, 24.67200
823.9455, 33.35693
824.4276, 37.07947
824.9097, 33.29968
825.3918, 29.36670
825.8740, 30.91760
826.3561, 36.38928
826.8382, 40.48511
827.3203, 42.11169
827.8024, 44.94922
828.2845, 52.72729
828.7667, 57.07507
829.2488, 50.71362
829.7309, 41.66418
830.2130, 40.39844
830.6951, 48.03601
831.1772, 55.30725
831.6594, 59.75867
832.1415, 63.67859
832.6236, 67.05127
833.1057, 71.13708
833.5878, 77.50134
834.0699, 85.78040
834.5521, 94.34241
835.0342, 102.4219
835.5163, 110.7773
835.9984, 120.8684
836.4805, 131.4565
836.9626, 141.1593
837.4448, 149.2614
837.9269, 152.7511
838.4090, 150.7688
838.8911, 148.2533
839.3732, 149.4728
839.8553, 156.8247
840.3375, 181.2948
840.8196, 223.3032
841.3017, 256.9028
841.7838, 277.1932
842.2659, 289.5526
842.7480, 294.6350
843.2302, 298.1617
843.7123, 315.7972
844.1944, 354.1942
844.6765, 384.6696
845.1586, 402.3749
845.6407, 419.2386
846.1229, 429.1965
846.6050, 447.3375
847.0871, 493.1637
847.5692, 564.5181
848.0513, 632.2180
848.5334, 689.9430
849.0156, 747.1815
849.4977, 804.4238
849.9798, 864.0066
850.4619, 924.2241
850.9440, 989.4967
851.4261, 1069.370
851.9083, 1167.717
852.3904, 1267.364
852.8725, 1357.539
853.3546, 1443.505
853.8367, 1537.018
854.3188, 1629.856
854.8010, 1706.551
855.2831, 1763.773
855.7652, 1807.343
856.2473, 1844.593
856.7294, 1860.641
857.2115, 1820.353
857.6937, 1735.149
858.1758, 1655.914
858.6579, 1587.260
859.1400, 1508.584
859.6221, 1409.986
860.1042, 1297.397
860.5864, 1174.131
861.0685, 1041.792
861.5506, 933.1433
862.0327, 852.8298
862.5148, 781.3922
862.9969, 714.7439
863.4791, 652.4694
863.9612, 592.9055
864.4433, 537.6915
864.9254, 491.4484
865.4075, 454.8453
865.8896, 425.6216
866.3718, 404.4009
866.8539, 389.2792
867.3360, 386.0897
867.8181, 384.5118
868.3002, 370.8702
868.7823, 345.5504
869.2645, 324.9917
869.7466, 315.5347
870.2287, 308.6576
870.7108, 299.2990
871.1929, 292.7383
871.6750, 296.6060
872.1572, 306.6559
872.6393, 312.6693
873.1214, 310.5099
873.6035, 306.2172
874.0856, 297.7954
874.5677, 292.8401
875.0499, 306.1603
875.5320, 328.3440
876.0141, 338.7063
876.4962, 334.5248
876.9783, 326.7223
877.4604, 321.5774
877.9426, 321.1978
878.4247, 332.5505
878.9068, 351.5867
879.3889, 363.2393
879.8710, 366.6974
880.3531, 364.2856
880.8353, 356.3245
881.3174, 352.4857
881.7995, 365.6254
882.2816, 392.6062
882.7637, 415.0293
883.2458, 433.4780
883.7280, 440.7532
884.2101, 432.8835
884.6922, 422.1425
885.1743, 414.0198
885.6564, 412.1591
886.1385, 424.3120
886.6207, 457.2306
887.1028, 468.9674
887.5849, 442.1592
888.0670, 422.5310
888.5491, 424.7444
889.0313, 436.1897
889.5134, 450.4399
889.9955, 465.3188
890.4776, 469.4521
890.9597, 453.1323
891.4418, 440.5054
891.9240, 437.3088
892.4061, 436.7201
892.8882, 434.8582
893.3703, 432.3124
893.8524, 430.7246
894.3345, 430.4432
894.8167, 433.0862
895.2988, 446.4196
895.7809, 454.1769
896.2630, 441.1210
896.7451, 423.1538
897.2272, 416.4757
897.7094, 419.6758
898.1915, 426.3806
898.6736, 434.4188
899.1557, 436.8326
899.6378, 424.1010
900.1199, 405.4119
900.6021, 390.2216
901.0842, 378.7672
901.5663, 372.4415
902.0484, 370.6638
902.5305, 368.0630
903.0126, 360.3894
903.4948, 350.1381
903.9769, 338.2722
904.4590, 326.2719
904.9411, 320.3810
905.4232, 319.8752
905.9053, 317.6455
906.3875, 311.3866
906.8696, 304.3087
907.3517, 299.7094
907.8338, 296.3113
908.3159, 291.0116
908.7980, 283.8672
909.2802, 268.1647
909.7623, 241.7207
910.2444, 218.0027
910.7265, 203.4795
911.2086, 195.5254
911.6907, 191.2969
912.1729, 190.7007
912.6550, 185.9670
913.1371, 174.9464
913.6192, 166.2753
914.1013, 160.1277
914.5834, 159.6792
915.0656, 172.4110
915.5477, 188.8727
916.0298, 185.9751
916.5119, 156.7256
916.9940, 134.2262
917.4761, 121.2029
917.9583, 111.1263
918.4404, 102.5538
918.9225, 96.21570
919.4046, 93.90125
919.8867, 94.39111
920.3688, 93.54614
920.8510, 92.78040
921.3331, 86.79211
921.8152, 68.11108
922.2973, 51.80017
922.7794, 42.97632
923.2615, 41.38318
923.7437, 52.19897
924.2258, 71.94836
924.7079, 78.13367
925.1900, 53.99194
925.6721, 31.84399
926.1542, 24.03845
926.6364, 24.16089
927.1185, 31.44312
927.6006, 41.24414
928.0827, 46.96265
928.5648, 47.20093
929.0469, 45.02490
929.5291, 41.34229
930.0112, 36.80420
930.4933, 32.13159
930.9754, 26.70203
931.4575, 18.27527
931.9396, 8.492920
932.4218, 1.519775
932.9039, 1.155884
933.3860, 0.1256100
933.8681, 7.450195
934.3502, 16.65015
934.8323, 24.55457
935.3145, 29.41614
935.7966, 25.38892
936.2787, 13.87585
936.7608, 4.093994
937.2429, 0.9504390
937.7250, 1.278931
938.2072, 2.424438
938.6893, 3.665283
939.1714, 2.665894
939.6535, 0.1846920
940.1356, 0.5825200
940.6177, 0.9805910
941.0999, 3.862793
941.5820, 7.910767
942.0641, 9.884888
942.5462, 0.8507080
943.0283, 15.94263
943.5104, 22.55969
943.9926, 18.95288
944.4747, 15.13965
944.9568, 14.23877
945.4389, 11.37012
945.9210, 0.9982910
946.4031, 11.86218
946.8853, 10.85266
947.3674, 3.931519
947.8495, 10.38367
948.3316, 6.302246
948.8137, 3.860352
949.2958, 8.390625
949.7780, 12.90051
950.2601, 9.045654
950.7422, 1.252319
951.2243, 7.378174
951.7064, 8.438843
952.1885, 11.87891
952.6707, 20.03857
953.1528, 23.82263
953.6349, 17.53198
954.1170, 7.887939
954.5991, 4.076050
955.0812, 5.845215
955.5634, 5.678467
956.0455, 1.887573
956.5276, 2.7588001E-02
957.0097, 0.2369380
957.4918, 3.630615
957.9739, 14.02112
958.4561, 23.99695
958.9382, 18.86487
959.4203, 3.612061
959.9024, 8.256470
960.3845, 17.80273
960.8666, 36.55066
961.3488, 39.07129
961.8309, 35.18652
962.3130, 28.42981
962.7951, 22.24133
963.2772, 23.10986
963.7593, 31.41003
964.2415, 37.78625
964.7236, 38.12402
965.2057, 42.58984
965.6878, 59.27124
966.1699, 74.39844
966.6520, 76.70605
967.1342, 71.61047
967.6163, 71.59314
968.0984, 78.41028
968.5805, 84.57874
969.0626, 88.13953
969.5447, 92.89746
970.0269, 99.31250
970.5090, 108.4644
970.9911, 120.2292
971.4732, 134.2283
971.9553, 150.4576
972.4374, 168.4668
972.9196, 190.6509
973.4017, 214.5206
973.8838, 245.2054
974.3659, 289.2167
974.8480, 337.3000
975.3301, 375.2745
975.8123, 410.5840
976.2944, 467.5757
976.7765, 556.7375
977.2586, 645.4458
977.7407, 718.8871
978.2228, 798.6282
978.7050, 891.5692
979.1871, 997.0675
979.6692, 1111.315
980.1513, 1236.848
980.6334, 1383.817
981.1155, 1556.111
981.5977, 1743.380
982.0798, 1958.356
982.5619, 2168.861
983.0440, 2362.465
983.5261, 2542.302
984.0082, 2721.219
984.4904, 2890.917
984.9725, 3021.196
985.4546, 3109.334
985.9367, 3142.028
986.4188, 3100.305
986.9009, 3018.144
987.3831, 2911.341
987.8652, 2778.242
988.3473, 2607.883
988.8294, 2407.552
989.3115, 2204.822
989.7936, 2006.837
990.2758, 1811.096
990.7579, 1608.883
991.2400, 1418.148
991.7221, 1255.074
992.2042, 1107.329
992.6863, 952.1394
993.1685, 794.3224
993.6506, 662.7166
994.1327, 572.0443
994.6148, 494.8951
995.0969, 418.0016
995.5790, 351.7384
996.0612, 305.9519
996.5433, 273.5702
997.0254, 248.6752
997.5075, 228.1914
997.9896, 205.1979
998.4717, 174.8677
998.9539, 149.4823
999.4360, 140.7523
999.9181, 132.3202
1000.400, 108.1775
1000.882, 79.67090
1001.364, 63.78162
1001.847, 60.98279
1002.329, 61.39172
1002.811, 62.39087
1003.293, 63.13440
1003.775, 64.11133
1004.257, 64.07654
1004.739, 63.88074
1005.221, 61.08960
1005.703, 49.53064
1006.186, 33.01892
1006.668, 25.16919
1007.150, 33.19312
1007.632, 39.53308
1008.114, 35.22253
1008.596, 29.15466
1009.078, 25.53979
1009.560, 23.20752
1010.043, 20.40808
1010.525, 17.16589
1011.007, 14.62024
1011.489, 13.46973
1011.971, 11.65247
1012.453, 3.888916
1012.935, 0.1724850
1013.417, 13.39612
1013.899, 28.99854
1014.382, 27.90540
1014.864, 13.89954
1015.346, 5.081177
1015.828, 6.922729
1016.310, 11.24866
1016.792, 20.98071
1017.274, 24.85742
1017.756, 9.445557
1018.239, 7.764526
1018.721, 7.299072
1019.203, 5.572998
1019.685, 9.377441
1020.167, 3.925903
1020.649, 10.43359
1021.131, 5.902710
1021.613, 20.46936
1022.095, 19.94727
1022.578, 14.17651
1023.060, 11.94556
1023.542, 12.39978
1024.024, 11.15454
1024.506, 7.074463
1024.988, 3.588867
1025.470, 1.283569
1025.952, 0.1354980
1026.435, 2.135498
1026.917, 3.483276
1027.399, 2.315796
1027.881, 10.08008
1028.363, 6.192749
1028.845, 13.55640
1029.327, 23.14294
1029.809, 7.790894
1030.292, 4.302490
1030.774, 4.287109
1031.256, 4.0160999E-02
1031.738, 6.426636
1032.220, 12.07947
1032.702, 11.85291
1033.184, 4.906982
1033.666, 0.9284670
1034.148, 5.837158
1034.630, 8.147461
1035.113, 6.098633
1035.595, 3.001709
1036.077, 9.6439999E-03
1036.559, 2.592529
1037.041, 3.712646
1037.523, 3.271362
1038.005, 5.109497
1038.487, 14.23914
1038.970, 17.48059
1039.452, 7.794678
1039.934, 0.3665770
1040.416, 4.624512
1040.898, 12.14392
1041.380, 12.25525
1041.862, 5.805298
1042.344, 2.143066
1042.826, 1.438477
1043.309, 3.647339
1043.791, 12.76221
1044.273, 16.80469
1044.755, 6.793335
1045.237, 3.454468
1045.719, 1.333618
1046.201, 17.53015
1046.683, 28.97266
1047.166, 37.06104
1047.648, 34.17444
1048.130, 14.26538
1048.612, 1.322754
1049.094, 3.308716
1049.576, 12.04443
1050.058, 19.83252
1050.540, 30.45654
1051.022, 57.69141
1051.505, 105.3296
1051.987, 129.1320
1052.469, 124.9723
1052.951, 120.1805
1053.433, 119.3632
1053.915, 129.9840
1054.397, 159.3878
1054.879, 195.9609
1055.361, 217.2703
1055.844, 225.1530
1056.326, 241.4570
1056.808, 266.2874
1057.290, 296.3119
1057.772, 330.9774
1058.254, 371.9905
1058.736, 420.8282
1059.218, 469.1934
1059.701, 506.4733
1060.183, 533.7361
1060.665, 556.3640
1061.147, 572.7015
1061.629, 572.3591
1062.111, 554.9337
1062.593, 525.8630
1063.075, 487.6600
1063.557, 445.8665
1064.040, 405.6055
1064.522, 366.4203
1065.004, 326.6852
1065.486, 288.0463
1065.968, 254.3788
1066.450, 225.8311
1066.932, 203.2867
1067.414, 185.7285
1067.896, 164.7668
1068.379, 132.4587
1068.861, 103.2261
1069.343, 97.77771
1069.825, 102.1569
1070.307, 95.42590
1070.789, 83.56995
1071.271, 82.15637
1071.753, 91.06458
1072.236, 99.83911
1072.718, 104.7810
1073.200, 101.5840
1073.682, 79.31519
1074.164, 56.16138
1074.646, 47.13013
1075.128, 46.13257
1075.610, 48.23999
1076.093, 49.96362
1076.575, 46.90540
1077.057, 38.09729
1077.539, 31.54199
1078.021, 31.75305
1078.503, 33.03113
1078.985, 36.79858
1079.467, 38.32971
1079.949, 31.12085
1080.432, 21.26404
1080.914, 19.40723
1081.396, 26.37451
1081.878, 32.94592
1082.360, 34.55249
1082.842, 40.14673
1083.324, 58.13794
1083.806, 71.81665
1084.288, 69.93359
1084.771, 62.92419
1085.253, 63.74243
1085.735, 69.33362
1086.217, 65.51819
1086.699, 46.23169
1087.181, 34.16418
1087.663, 30.01758
1088.145, 31.96692
1088.628, 43.71997
1089.110, 55.47266
1089.592, 60.09753
1090.074, 58.88684
1090.556, 53.60144
1091.038, 43.79529
1091.520, 43.13232
1092.002, 53.33557
1092.484, 60.77417
1092.967, 63.39893
1093.449, 64.16797
1093.931, 64.21582
1094.413, 63.92017
1094.895, 63.53638
1095.377, 63.48267
1095.859, 66.70349
1096.341, 72.24170
1096.823, 69.95740
1097.306, 60.57141
1097.788, 60.86890
1098.270, 75.45972
1098.752, 86.08765
1099.234, 77.02820
1099.716, 61.30176
1100.198, 58.92725
1100.680, 64.42102
1101.163, 68.66748
1101.645, 70.76025
1102.127, 66.72351
1102.609, 58.58667
1103.091, 56.70166
1103.573, 66.94885
1104.055, 76.51355
1104.537, 70.13318
1105.020, 63.47498
1105.502, 74.37622
1105.984, 91.22620
1106.466, 102.6874
1106.948, 106.3954
1107.430, 99.03052
1107.912, 81.07825
1108.394, 70.01965
1108.876, 77.49585
1109.359, 86.24646
1109.841, 89.93982
1110.323, 92.87183
1110.805, 96.92542
1111.287, 102.1906
1111.769, 111.6652
1112.251, 122.9086
1112.733, 122.9484
1113.215, 102.6487
1113.698, 91.36658
1114.180, 95.78601
1114.662, 99.27124
1115.144, 98.49866
1115.626, 97.22485
1116.108, 98.05176
1116.590, 99.92102
1117.072, 100.7635
1117.555, 99.98926
1118.037, 103.0366
1118.519, 111.9897
1119.001, 111.0237
1119.483, 95.74548
1119.965, 88.55713
1120.447, 100.0046
1120.929, 115.2899
1121.411, 119.2640
1121.894, 115.5489
1122.376, 113.3846
1122.858, 111.9823
1123.340, 104.2505
1123.822, 92.56964
1124.304, 94.99847
1124.786, 112.1617
1125.268, 120.0026
1125.750, 104.8308
1126.233, 84.02185
1126.715, 75.59033
1127.197, 73.80811
1127.679, 70.34174
1128.161, 68.69257
1128.643, 78.47614
1129.125, 94.37872
1129.607, 101.0242
1130.090, 95.19055
1130.572, 88.83173
1131.054, 87.26404
1131.536, 87.80438
1132.018, 91.06061
1132.500, 93.70764
1132.982, 94.25671
1133.464, 92.33069
1133.947, 84.73315
1134.429, 74.27228
1134.911, 72.89850
1135.393, 87.73761
1135.875, 92.04175
1136.357, 72.03430
1136.839, 58.83972
1137.321, 61.21814
1137.803, 66.32935
1138.286, 66.90411
1138.768, 66.29376
1139.250, 70.84161
1139.732, 79.00922
1140.214, 74.12817
1140.696, 53.21881
1141.178, 43.25867
1141.660, 46.97101
1142.142, 50.41571
1142.625, 49.18530
1143.107, 46.07721
1143.589, 43.13031
1144.071, 40.26215
1144.553, 35.15765
1145.035, 30.61194
1145.517, 39.49670
1145.999, 55.54675
1146.482, 57.30853
1146.964, 45.50165
1147.446, 36.05505
1147.928, 34.95776
1148.410, 36.56116
1148.892, 39.81226
1149.374, 38.62311
1149.856, 21.71387
1150.339, 3.365906
1150.821, 2.160828
1151.303, 0.5965580
1151.785, 5.299500
1152.267, 10.16394
1152.749, 13.40314
1153.231, 14.60437
1153.713, 14.04370
1154.195, 7.328308
1154.677, 5.058777
1155.160, 15.11688
1155.642, 25.45038
1156.124, 29.46912
1156.606, 28.62677
1157.088, 24.35529
1157.570, 16.92676
1158.052, 8.887268
1158.534, 1.308289
1159.017, 4.666443
1159.499, 4.7363002E-02
1159.981, 8.432129
1160.463, 20.20062
1160.945, 26.70319
1161.427, 21.15784
1161.909, 9.784851
1162.391, 0.5092770
1162.874, 6.294800
1163.356, 9.901733
1163.838, 9.741028
1164.320, 1.495239
1164.802, 12.58942
1165.284, 22.43787
1165.766, 25.24506
1166.248, 27.54047
1166.730, 34.86475
1167.213, 40.09082
1167.695, 36.42542
1168.177, 28.98663
1168.659, 19.27509
1169.141, 10.82184
1169.623, 9.877930
1170.105, 13.29803
1170.587, 9.735352
1171.069, 4.580688
1171.552, 10.66095
1172.034, 3.176208
1172.516, 12.34338
1172.998, 11.53473
1173.480, 7.442871
1173.962, 0.2951050
1174.444, 5.225830
1174.926, 4.7424000E-02
1175.409, 11.95782
1175.891, 19.76093
1176.373, 23.28412
1176.855, 22.34180
1177.337, 16.73578
1177.819, 16.18884
1178.301, 22.38190
1178.783, 29.46442
1179.266, 34.61298
1179.748, 35.33295
1180.230, 27.98175
1180.712, 16.46747
1181.194, 3.811768
1181.676, 6.362732
1182.158, 4.514954
1182.640, 3.700073
1183.122, 4.445313
1183.604, 1.720642
1184.087, 1.100037
1184.569, 12.83789
1185.051, 21.62189
1185.533, 9.565308
1186.015, 0.4797970
1186.497, 7.670837
1186.979, 17.79865
1187.461, 23.26697
1187.944, 24.78070
1188.426, 22.41010
1188.908, 17.32501
1189.390, 16.46594
1189.872, 20.30573
1190.354, 27.84741
1190.836, 41.56384
1191.318, 46.92743
1191.801, 39.70844
1192.283, 33.02728
1192.765, 34.84564
1193.247, 36.51282
1193.729, 24.93774
1194.211, 8.680664
1194.693, 10.98792
1195.175, 24.63025
1195.657, 31.43256
1196.140, 32.29218
1196.622, 30.86407
1197.104, 28.80829
1197.586, 26.49707
1198.068, 26.43793
1198.550, 30.76556
1199.032, 45.72961
1199.514, 56.10474
1199.996, 51.77020
1200.479, 40.97021
1200.961, 22.25067
1201.443, 5.672668
1201.925, 11.11224
1202.407, 36.53809
1202.889, 43.73022
1203.371, 23.94519
1203.853, 12.74695
1204.336, 11.93365
1204.818, 10.58044
1205.300, 5.816284
1205.782, 3.558960
1206.264, 7.076904
1206.746, 12.95862
1207.228, 20.59204
1207.710, 28.43567
1208.193, 32.35687
1208.675, 32.90247
1209.157, 28.30090
1209.639, 21.33008
1210.121, 19.01898
1210.603, 21.42352
1211.085, 23.28540
1211.567, 22.54755
1212.049, 19.60986
1212.531, 9.443176
1213.014, 4.258606
1213.496, 18.18341
1213.978, 31.03955
1214.460, 25.45569
1214.942, 13.14148
1215.424, 8.909241
1215.906, 11.06708
1216.388, 10.67596
1216.871, 6.240295
1217.353, 9.935425
1217.835, 26.38080
1218.317, 28.64001
1218.799, 10.06110
1219.281, 3.399353
1219.763, 1.067871
1220.245, 6.931458
1220.728, 11.97083
1221.210, 15.10620
1221.692, 19.01190
1222.174, 21.83832
1222.656, 16.76141
1223.138, 9.296082
1223.620, 11.59924
1224.102, 21.22675
1224.584, 26.88757
1225.067, 26.14630
1225.549, 20.25586
1226.031, 13.07495
1226.513, 9.667053
1226.995, 8.505493
1227.477, 10.61823
1227.959, 23.03210
1228.441, 32.33923
1228.923, 27.35040
1229.406, 14.57007
1229.888, 5.317383
1230.370, 7.8429997E-02
1230.852, 5.519226
1231.334, 0.0000000E+00
##END=



