##NAMES=Euclase
##RRUFFID=R050032
##IDEAL CHEMISTRY=BeAlSiO_4_(OH)
##LOCALITY=Minas Gerais, Brazil
##OWNER=RRUFF
##SOURCE=University of Arizona Mineral Museum
##DESCRIPTION=Colorless crystal fragments
##STATUS=The identification of this mineral has been confirmed by X-ray diffraction and chemical analysis
##URL=rruff.info/R050032
##MEASURED CHEMISTRY=Be_1.00_Al_1.00_Si_1.00_O_4_(OH)
130.3772, 0.0000000E+00
130.8593, 1.431717
131.3414, 0.4284820
131.8235, 0.1519470
132.3056, 1.629333
132.7877, 4.763458
133.2699, 9.281982
133.7520, 15.10080
134.2341, 21.68671
134.7162, 28.40384
135.1983, 35.23840
135.6804, 43.91812
136.1626, 54.15128
136.6447, 66.26306
137.1268, 81.40689
137.6089, 100.0906
138.0910, 119.4259
138.5731, 137.3791
139.0553, 153.8909
139.5374, 170.3266
140.0195, 186.1031
140.5016, 201.9086
140.9837, 218.4106
141.4658, 232.0021
141.9480, 252.2296
142.4301, 286.5903
142.9122, 341.6961
143.3943, 397.7781
143.8764, 461.3846
144.3585, 531.2211
144.8407, 565.4832
145.3228, 556.8237
145.8049, 517.4136
146.2870, 456.0267
146.7691, 350.0690
147.2512, 252.6365
147.7334, 172.6461
148.2155, 109.4190
148.6976, 63.41415
149.1797, 43.11716
149.6618, 37.60428
150.1439, 32.51617
150.6261, 26.04843
151.1082, 21.58762
151.5903, 20.65811
152.0724, 25.89908
152.5545, 28.76736
153.0366, 25.02228
153.5188, 18.60693
154.0009, 17.26624
154.4830, 31.30853
154.9651, 43.81836
155.4472, 47.00766
155.9293, 32.88403
156.4115, 19.76001
156.8936, 10.88382
157.3757, 5.709900
157.8578, 2.174805
158.3399, 1.478699
158.8221, 3.004028
159.3042, 0.9443660
159.7863, 9.691162
160.2684, 19.39264
160.7505, 22.53302
161.2326, 20.82697
161.7148, 23.22992
162.1969, 38.14883
162.6790, 58.16098
163.1611, 75.87305
163.6432, 90.90741
164.1253, 104.0720
164.6075, 110.9431
165.0896, 109.4929
165.5717, 108.1789
166.0538, 105.4981
166.5359, 104.4705
167.0180, 109.6819
167.5002, 120.6547
167.9823, 135.7698
168.4644, 152.1901
168.9465, 168.1812
169.4286, 188.6791
169.9107, 217.0598
170.3929, 250.4645
170.8750, 282.3597
171.3571, 304.7478
171.8392, 325.4409
172.3213, 350.9409
172.8034, 380.0132
173.2856, 419.7164
173.7677, 481.3670
174.2498, 560.9206
174.7319, 643.1774
175.2140, 706.0827
175.6961, 768.7717
176.1783, 853.9365
176.6604, 951.2698
177.1425, 1096.292
177.6246, 1367.497
178.1067, 1745.196
178.5888, 2120.289
179.0710, 2535.190
179.5531, 2885.159
180.0352, 2893.438
180.5173, 2369.668
180.9994, 1600.485
181.4815, 1022.316
181.9637, 628.3062
182.4458, 361.6311
182.9279, 206.4709
183.4100, 144.9478
183.8921, 107.5842
184.3742, 81.65710
184.8564, 63.92285
185.3385, 47.49744
185.8206, 32.09729
186.3027, 19.87994
186.7848, 14.13855
187.2669, 14.20184
187.7491, 14.71564
188.2312, 12.68433
188.7133, 9.639038
189.1954, 9.658508
189.6775, 13.48096
190.1596, 17.04431
190.6418, 13.60699
191.1239, 3.409119
191.6060, 4.017029
192.0881, 3.595520
192.5702, 3.742615
193.0524, 10.36450
193.5345, 16.58563
194.0166, 21.23682
194.4987, 22.08337
194.9808, 18.98108
195.4629, 14.21844
195.9451, 8.615540
196.4272, 2.129883
196.9093, 5.579224
197.3914, 15.91681
197.8735, 25.29413
198.3556, 25.00165
198.8378, 13.41321
199.3199, 2.560974
199.8020, 0.7766110
200.2841, 9.033936
200.7662, 11.18219
201.2483, 3.706726
201.7305, 8.007263
202.2126, 8.863525
202.6947, 4.236023
203.1768, 16.63379
203.6589, 17.51666
204.1410, 4.519775
204.6232, 2.660034
205.1053, 0.4323120
205.5874, 7.903931
206.0695, 10.75806
206.5516, 6.239929
207.0337, 1.216675
207.5159, 1.843445
207.9980, 10.55853
208.4801, 12.89636
208.9622, 4.933411
209.4443, 10.72138
209.9264, 21.19006
210.4086, 25.39734
210.8907, 26.57562
211.3728, 26.98877
211.8549, 26.68628
212.3370, 25.19543
212.8191, 21.07422
213.3013, 15.21124
213.7834, 15.34961
214.2655, 23.18573
214.7476, 34.34735
215.2297, 44.32471
215.7118, 51.00745
216.1940, 62.40692
216.6761, 78.44183
217.1582, 99.47900
217.6403, 133.3601
218.1224, 183.9316
218.6045, 241.6035
219.0867, 298.6758
219.5688, 357.1848
220.0509, 409.0063
220.5330, 449.5140
221.0151, 478.9393
221.4972, 510.9506
221.9794, 543.4537
222.4615, 581.1473
222.9436, 630.1212
223.4257, 693.9617
223.9078, 762.2596
224.3899, 828.8781
224.8721, 893.0394
225.3542, 976.6259
225.8363, 1080.693
226.3184, 1203.765
226.8005, 1346.450
227.2827, 1508.577
227.7648, 1689.047
228.2469, 1886.798
228.7290, 2100.091
229.2111, 2334.995
229.6932, 2579.362
230.1754, 2852.258
230.6575, 3173.990
231.1396, 3506.360
231.6217, 3953.029
232.1038, 4547.684
232.5859, 5302.634
233.0681, 6187.197
233.5502, 7458.279
234.0323, 8672.540
234.5144, 9187.995
234.9965, 8825.628
235.4786, 8043.859
235.9608, 6855.627
236.4429, 5113.880
236.9250, 3718.874
237.4071, 2737.824
237.8892, 2073.644
238.3713, 1587.878
238.8535, 1326.905
239.3356, 1167.709
239.8177, 1080.788
240.2998, 1076.774
240.7819, 1107.112
241.2640, 1186.184
241.7462, 1291.713
242.2283, 1384.668
242.7104, 1452.311
243.1925, 1528.320
243.6746, 1624.128
244.1567, 1743.862
244.6389, 1870.956
245.1210, 2002.813
245.6031, 2143.127
246.0852, 2295.065
246.5673, 2448.503
247.0494, 2630.603
247.5316, 2847.600
248.0137, 3093.720
248.4958, 3395.642
248.9779, 3751.154
249.4600, 4162.537
249.9421, 4627.169
250.4243, 5156.399
250.9064, 5723.420
251.3885, 6312.432
251.8706, 6908.905
252.3527, 7576.514
252.8348, 8269.891
253.3170, 9059.169
253.7991, 10079.02
254.2812, 11343.53
254.7633, 12794.14
255.2454, 14538.12
255.7275, 16817.50
256.2097, 18484.98
256.6918, 19673.14
257.1739, 20143.21
257.6560, 19315.93
258.1381, 16689.47
258.6202, 13782.03
259.1024, 11030.86
259.5845, 8374.441
260.0666, 6249.724
260.5487, 4730.635
261.0308, 3692.584
261.5129, 2878.854
261.9951, 2339.779
262.4772, 1926.863
262.9593, 1600.301
263.4414, 1366.779
263.9235, 1170.979
264.4056, 1016.741
264.8878, 894.8624
265.3699, 784.8896
265.8520, 684.2654
266.3341, 603.3572
266.8162, 548.0081
267.2983, 521.4780
267.7805, 494.3883
268.2626, 464.1001
268.7447, 437.1775
269.2268, 425.8804
269.7089, 433.1747
270.1910, 446.4476
270.6732, 461.6162
271.1553, 478.6067
271.6374, 497.4654
272.1195, 517.9622
272.6016, 540.2923
273.0837, 564.3297
273.5659, 590.2642
274.0480, 616.9900
274.5301, 642.5941
275.0122, 666.6234
275.4943, 697.8594
275.9764, 735.0706
276.4586, 783.4211
276.9407, 851.3758
277.4228, 938.1702
277.9049, 1037.051
278.3870, 1142.944
278.8691, 1256.331
279.3513, 1390.872
279.8334, 1550.095
280.3155, 1721.405
280.7976, 1881.622
281.2798, 2027.768
281.7619, 2198.811
282.2440, 2399.139
282.7261, 2632.823
283.2082, 2939.212
283.6903, 3326.706
284.1725, 3756.027
284.6546, 4245.024
285.1367, 4781.553
285.6188, 5156.221
286.1009, 5314.856
286.5830, 5252.993
287.0652, 4891.881
287.5473, 4202.194
288.0294, 3408.696
288.5115, 2715.889
288.9936, 2121.902
289.4757, 1635.894
289.9579, 1268.255
290.4400, 1005.671
290.9221, 815.3538
291.4042, 700.1975
291.8863, 621.2296
292.3684, 544.3597
292.8506, 471.8538
293.3327, 412.4205
293.8148, 371.3248
294.2969, 343.0948
294.7790, 317.8446
295.2611, 295.4840
295.7433, 274.4096
296.2254, 253.6761
296.7075, 232.8013
297.1896, 211.1452
297.6717, 187.3411
298.1538, 163.1263
298.6360, 139.3265
299.1181, 116.1919
299.6002, 99.17133
300.0823, 97.09515
300.5644, 103.4088
301.0465, 105.3835
301.5287, 97.61975
302.0108, 86.77832
302.4929, 80.72839
302.9750, 78.64014
303.4571, 76.06238
303.9392, 69.05292
304.4214, 60.00244
304.9035, 51.54089
305.3856, 43.02875
305.8677, 37.61737
306.3498, 41.86737
306.8319, 52.75226
307.3141, 59.66125
307.7962, 52.91345
308.2783, 40.66205
308.7604, 30.65564
309.2425, 24.90851
309.7246, 21.00574
310.2068, 17.07617
310.6889, 13.74194
311.1710, 12.55469
311.6531, 17.38763
312.1352, 22.74902
312.6173, 24.43890
313.0995, 21.10864
313.5816, 16.02411
314.0637, 8.448547
314.5458, 0.2859500
315.0279, 4.949951
315.5100, 3.839661
315.9922, 1.012146
316.4743, 1.044922
316.9564, 1.729858
317.4385, 2.947205
317.9206, 9.135315
318.4027, 15.37347
318.8849, 14.78424
319.3670, 5.289734
319.8491, 23.00818
320.3312, 29.42963
320.8133, 22.28363
321.2954, 13.70142
321.7776, 0.2720340
322.2597, 11.31409
322.7418, 13.92352
323.2239, 6.855347
323.7060, 23.35052
324.1881, 27.21637
324.6703, 17.04761
325.1524, 9.248169
325.6345, 5.230835
326.1166, 3.931335
326.5987, 4.471069
327.0808, 8.488953
327.5630, 12.42041
328.0451, 16.31647
328.5272, 20.10773
329.0093, 22.22064
329.4914, 22.16754
329.9735, 20.87445
330.4557, 18.92273
330.9378, 16.37415
331.4199, 12.86072
331.9020, 6.939026
332.3841, 0.2319950
332.8662, 2.048828
333.3484, 6.330566
333.8305, 12.76654
334.3126, 9.638184
334.7947, 6.929199
335.2768, 21.04443
335.7589, 31.85040
336.2411, 39.78833
336.7232, 46.40460
337.2053, 51.96881
337.6874, 55.23865
338.1695, 53.91168
338.6516, 46.76947
339.1338, 46.39136
339.6159, 54.65369
340.0980, 67.07635
340.5801, 75.42236
341.0622, 79.22864
341.5443, 84.29468
342.0265, 91.35144
342.5086, 100.9378
342.9907, 119.7078
343.4728, 148.2498
343.9549, 183.0289
344.4370, 222.2120
344.9192, 264.8647
345.4013, 303.7159
345.8834, 331.7719
346.3655, 354.8915
346.8476, 386.1479
347.3297, 425.3361
347.8119, 473.2020
348.2940, 528.4341
348.7761, 592.5909
349.2582, 668.6108
349.7403, 759.3268
350.2225, 862.1663
350.7046, 993.9420
351.1867, 1148.160
351.6688, 1265.340
352.1509, 1305.661
352.6331, 1281.474
353.1152, 1205.184
353.5973, 1063.068
354.0794, 900.2852
354.5615, 742.2458
355.0436, 593.6252
355.5258, 468.4872
356.0079, 382.6354
356.4900, 319.1468
356.9721, 263.3937
357.4542, 212.0822
357.9363, 172.0798
358.4185, 152.1787
358.9006, 145.6768
359.3827, 140.9778
359.8648, 133.2452
360.3469, 126.4032
360.8290, 121.4514
361.3112, 117.9849
361.7933, 120.2708
362.2754, 134.3230
362.7575, 153.0687
363.2396, 168.8929
363.7217, 172.2547
364.2039, 180.1234
364.6860, 197.5141
365.1681, 224.7046
365.6502, 254.7801
366.1323, 290.0491
366.6144, 326.2958
367.0966, 360.6965
367.5787, 386.0060
368.0608, 417.6927
368.5429, 457.9295
369.0250, 505.9308
369.5071, 556.1744
369.9893, 605.9899
370.4714, 660.6999
370.9535, 723.0879
371.4356, 793.5864
371.9177, 868.6136
372.3998, 946.0679
372.8820, 1029.264
373.3641, 1126.195
373.8462, 1240.872
374.3283, 1358.181
374.8104, 1464.923
375.2925, 1558.466
375.7747, 1685.079
376.2568, 1848.261
376.7389, 2039.205
377.2210, 2252.776
377.7031, 2491.176
378.1852, 2719.006
378.6674, 2942.658
379.1495, 3147.539
379.6316, 3288.561
380.1137, 3366.214
380.5958, 3360.463
381.0779, 3221.316
381.5601, 2968.570
382.0422, 2709.074
382.5243, 2451.489
383.0064, 2212.837
383.4885, 2009.755
383.9706, 1843.025
384.4528, 1733.221
384.9349, 1711.024
385.4170, 1749.457
385.8991, 1802.620
386.3812, 1862.457
386.8633, 1942.564
387.3455, 2061.769
387.8276, 2210.926
388.3097, 2371.483
388.7918, 2512.970
389.2739, 2674.237
389.7560, 2884.356
390.2382, 3145.903
390.7203, 3452.523
391.2024, 3791.583
391.6845, 4174.689
392.1666, 4620.854
392.6487, 5237.553
393.1309, 5821.733
393.6130, 6375.971
394.0951, 6878.687
394.5772, 7077.268
395.0593, 6815.521
395.5414, 6288.251
396.0236, 5617.707
396.5057, 4614.690
396.9878, 3710.105
397.4699, 2942.750
397.9520, 2306.082
398.4341, 1784.492
398.9163, 1413.157
399.3984, 1121.421
399.8805, 889.8777
400.3626, 729.9026
400.8447, 597.8034
401.3268, 500.0192
401.8090, 425.5408
402.2911, 357.5385
402.7732, 295.4500
403.2553, 243.1616
403.7374, 203.0953
404.2195, 174.7611
404.7017, 149.9591
405.1838, 129.4093
405.6659, 110.2161
406.1480, 88.12256
406.6301, 62.88831
407.1122, 44.85028
407.5944, 38.24524
408.0765, 37.40637
408.5586, 27.58655
409.0407, 8.944519
409.5228, 8.433777
410.0049, 18.40186
410.4871, 21.84912
410.9692, 20.59985
411.4513, 14.18762
411.9334, 5.599426
412.4155, 3.292969
412.8976, 11.94995
413.3798, 18.50055
413.8619, 19.56592
414.3440, 19.72382
414.8261, 24.99780
415.3082, 35.49390
415.7903, 44.55365
416.2725, 41.03467
416.7546, 36.27283
417.2367, 43.39203
417.7188, 75.90137
418.2009, 110.6007
418.6830, 136.5123
419.1652, 155.7791
419.6473, 175.2098
420.1294, 197.9668
420.6115, 221.0421
421.0937, 244.6384
421.5758, 274.3004
422.0579, 291.5620
422.5400, 289.7042
423.0221, 275.0570
423.5042, 257.6887
423.9864, 231.3011
424.4685, 209.3965
424.9506, 193.8589
425.4327, 185.4114
425.9148, 183.6658
426.3969, 186.2990
426.8791, 198.3392
427.3612, 225.9548
427.8433, 274.0961
428.3254, 320.4434
428.8075, 358.4268
429.2896, 393.9669
429.7718, 446.6198
430.2539, 518.3283
430.7360, 596.7666
431.2181, 670.1197
431.7002, 739.9614
432.1823, 829.3795
432.6645, 939.9757
433.1466, 1069.181
433.6287, 1215.998
434.1108, 1378.171
434.5929, 1546.211
435.0750, 1713.256
435.5572, 1883.502
436.0393, 2056.846
436.5214, 2234.331
437.0035, 2438.986
437.4856, 2662.954
437.9677, 2930.719
438.4499, 3272.971
438.9320, 3689.000
439.4141, 4195.886
439.8962, 4899.685
440.3783, 5710.125
440.8604, 6415.328
441.3426, 7127.599
441.8247, 7542.179
442.3068, 7419.765
442.7889, 6642.899
443.2710, 5773.083
443.7531, 4798.849
444.2353, 3872.470
444.7174, 3145.494
445.1995, 2731.686
445.6816, 2429.948
446.1637, 2228.945
446.6458, 2123.919
447.1280, 2059.575
447.6101, 2053.823
448.0922, 2069.064
448.5743, 2084.630
449.0564, 2095.546
449.5385, 2123.485
450.0207, 2179.652
450.5028, 2243.233
450.9849, 2273.875
451.4670, 2267.728
451.9491, 2247.289
452.4312, 2224.830
452.9134, 2196.920
453.3955, 2132.710
453.8776, 2029.884
454.3597, 1909.715
454.8418, 1791.556
455.3239, 1673.579
455.8061, 1551.462
456.2882, 1417.599
456.7703, 1287.012
457.2524, 1183.787
457.7345, 1103.591
458.2166, 1026.349
458.6988, 938.6321
459.1809, 849.1970
459.6630, 768.9511
460.1451, 698.6801
460.6272, 633.9141
461.1093, 570.4620
461.5915, 511.4868
462.0736, 462.2833
462.5557, 432.5317
463.0378, 404.9773
463.5199, 375.4578
464.0020, 344.1234
464.4842, 310.9828
464.9663, 268.2003
465.4484, 229.0775
465.9305, 200.4769
466.4126, 186.5045
466.8947, 175.5445
467.3769, 170.3978
467.8590, 167.6475
468.3411, 161.0685
468.8232, 148.5331
469.3053, 136.2849
469.7874, 125.3885
470.2696, 114.9731
470.7517, 103.9502
471.2338, 92.80035
471.7159, 81.95770
472.1980, 70.63226
472.6801, 58.68298
473.1623, 50.15253
473.6444, 46.93573
474.1265, 45.18408
474.6086, 36.49341
475.0907, 22.12299
475.5728, 10.22058
476.0550, 6.094421
476.5371, 6.824890
477.0192, 9.103638
477.5013, 12.87695
477.9834, 14.48694
478.4655, 9.621033
478.9477, 1.334595
479.4298, 6.421875
479.9119, 13.64880
480.3940, 18.73065
480.8761, 21.38959
481.3582, 21.30408
481.8404, 17.43616
482.3225, 2.088989
482.8046, 11.05621
483.2867, 14.70636
483.7688, 4.855347
484.2509, 2.708252
484.7331, 7.877319
485.2152, 9.494507
485.6973, 6.023987
486.1794, 6.967651
486.6615, 17.51642
487.1436, 23.88232
487.6258, 26.57727
488.1079, 27.23639
488.5900, 24.49518
489.0721, 23.51465
489.5542, 29.33557
490.0363, 42.10059
490.5185, 45.49908
491.0006, 36.54169
491.4827, 26.83942
491.9648, 35.33545
492.4470, 58.47949
492.9291, 76.33447
493.4112, 77.69281
493.8933, 73.58350
494.3754, 80.25842
494.8575, 96.88647
495.3397, 117.8416
495.8218, 142.6868
496.3039, 168.6669
496.7860, 192.6489
497.2681, 214.5049
497.7502, 234.4733
498.2324, 250.3285
498.7145, 265.1693
499.1966, 283.5105
499.6787, 303.3310
500.1608, 330.0710
500.6429, 371.2202
501.1251, 425.1855
501.6072, 466.8920
502.0893, 478.9514
502.5714, 492.7899
503.0535, 524.0579
503.5356, 581.8972
504.0178, 635.3485
504.4999, 684.2359
504.9820, 728.4046
505.4641, 769.1067
505.9462, 806.9980
506.4283, 837.4459
506.9105, 858.3964
507.3926, 870.7910
507.8747, 880.1574
508.3568, 886.8896
508.8389, 882.8139
509.3210, 860.7456
509.8032, 823.1216
510.2853, 775.3624
510.7674, 717.1259
511.2495, 653.1415
511.7316, 584.6434
512.2137, 513.8773
512.6959, 446.5377
513.1780, 383.1117
513.6601, 324.6623
514.1422, 271.4375
514.6243, 223.5990
515.1064, 182.1409
515.5886, 149.1843
516.0707, 121.3909
516.5528, 97.20569
517.0349, 76.55121
517.5170, 58.72534
517.9991, 43.25793
518.4813, 30.88617
518.9634, 23.35394
519.4455, 25.58423
519.9276, 24.01514
520.4097, 14.34454
520.8918, 1.682007
521.3740, 14.15759
521.8561, 23.15015
522.3382, 28.39581
522.8203, 28.73981
523.3024, 24.44226
523.7845, 19.16547
524.2667, 12.26202
524.7488, 7.575012
525.2309, 11.88074
525.7130, 22.73639
526.1951, 31.79480
526.6772, 38.27448
527.1594, 39.65240
527.6415, 28.74298
528.1236, 8.579163
528.6057, 7.743225
529.0878, 8.765015
529.5699, 5.554932
530.0521, 6.631653
530.5342, 14.18817
531.0163, 21.07782
531.4984, 22.36926
531.9805, 23.02539
532.4626, 28.31812
532.9448, 43.66748
533.4269, 58.13843
533.9090, 71.57935
534.3911, 83.37384
534.8732, 89.58990
535.3553, 85.37793
535.8375, 84.86969
536.3196, 95.33899
536.8017, 117.5275
537.2838, 137.3062
537.7659, 154.5293
538.2480, 170.0820
538.7302, 183.8621
539.2123, 196.6226
539.6944, 212.4943
540.1765, 234.2202
540.6586, 256.6414
541.1407, 276.6738
541.6229, 292.9090
542.1050, 300.6418
542.5871, 298.6847
543.0692, 286.2764
543.5513, 258.5432
544.0334, 215.7674
544.5156, 175.0126
544.9977, 143.8927
545.4798, 118.4086
545.9619, 95.88727
546.4440, 76.74677
546.9261, 59.14093
547.4083, 38.38409
547.8904, 19.94385
548.3725, 14.71753
548.8546, 33.04822
549.3367, 47.38525
549.8188, 49.56226
550.3010, 40.88306
550.7831, 36.55701
551.2652, 37.14130
551.7473, 40.23627
552.2294, 45.12054
552.7115, 51.50555
553.1937, 55.08765
553.6758, 54.39594
554.1579, 55.60242
554.6400, 67.39374
555.1221, 87.46844
555.6042, 108.9865
556.0864, 129.8650
556.5685, 151.0824
557.0506, 171.0325
557.5327, 191.3144
558.0148, 217.6696
558.4969, 254.6825
558.9791, 297.4540
559.4612, 342.3715
559.9433, 388.1216
560.4254, 439.9169
560.9075, 500.6437
561.3896, 566.7196
561.8718, 635.2723
562.3539, 703.2161
562.8360, 779.3075
563.3181, 865.1141
563.8002, 958.2019
564.2823, 1052.968
564.7645, 1146.265
565.2466, 1252.226
565.7287, 1372.606
566.2108, 1508.794
566.6929, 1666.993
567.1750, 1846.406
567.6572, 2046.545
568.1393, 2260.641
568.6214, 2493.176
569.1035, 2746.367
569.5856, 3023.306
570.0677, 3319.267
570.5499, 3663.795
571.0320, 4021.194
571.5141, 4337.380
571.9962, 4673.476
572.4783, 4884.397
572.9604, 4884.125
573.4426, 4696.546
573.9247, 4445.300
574.4068, 4086.467
574.8889, 3725.808
575.3710, 3398.519
575.8531, 3105.841
576.3353, 2857.977
576.8174, 2653.961
577.2995, 2499.776
577.7816, 2407.587
578.2637, 2382.328
578.7458, 2371.201
579.2280, 2365.416
579.7101, 2372.848
580.1922, 2414.508
580.6743, 2485.653
581.1564, 2558.037
581.6385, 2643.683
582.1207, 2709.975
582.6028, 2712.861
583.0849, 2654.003
583.5670, 2551.296
584.0491, 2398.770
584.5313, 2217.709
585.0134, 2019.728
585.4955, 1799.619
585.9776, 1591.366
586.4597, 1399.231
586.9418, 1224.859
587.4240, 1073.020
587.9061, 940.4241
588.3882, 833.6112
588.8703, 757.5599
589.3524, 706.2792
589.8345, 664.1565
590.3167, 632.3833
590.7988, 604.7560
591.2809, 576.2416
591.7630, 549.4979
592.2451, 543.1920
592.7272, 557.9661
593.2094, 577.5714
593.6915, 585.6609
594.1736, 589.5433
594.6557, 604.2021
595.1378, 633.2812
595.6199, 666.7086
596.1021, 696.4572
596.5842, 725.8412
597.0663, 759.7269
597.5485, 799.7834
598.0306, 844.0671
598.5127, 892.5786
598.9948, 944.9302
599.4769, 1000.387
599.9590, 1066.911
600.4412, 1128.199
600.9233, 1184.081
601.4054, 1236.985
601.8875, 1250.095
602.3696, 1218.890
602.8517, 1158.380
603.3339, 1076.921
603.8160, 975.2242
604.2981, 867.1637
604.7802, 752.7786
605.2623, 640.9518
605.7444, 541.7731
606.2266, 454.6976
606.7087, 383.4547
607.1908, 333.5509
607.6729, 293.1565
608.1550, 253.1933
608.6371, 214.8465
609.1193, 180.4415
609.6014, 151.3983
610.0835, 126.2616
610.5656, 105.3196
611.0477, 88.83398
611.5298, 74.74683
612.0120, 65.07733
612.4941, 55.80249
612.9762, 43.17572
613.4583, 23.91266
613.9404, 13.27423
614.4225, 13.69702
614.9047, 19.91534
615.3868, 26.89752
615.8689, 34.24109
616.3510, 34.84802
616.8331, 23.41272
617.3152, 8.460449
617.7974, 3.426025
618.2795, 6.434631
618.7616, 9.903015
619.2437, 10.40033
619.7258, 9.194275
620.2079, 7.493469
620.6901, 5.374207
621.1722, 1.269653
621.6543, 9.829895
622.1364, 20.03516
622.6185, 23.88025
623.1006, 18.66510
623.5828, 12.51270
624.0649, 4.131836
624.5470, 5.324524
625.0291, 11.67633
625.5112, 11.70233
625.9933, 15.78284
626.4755, 29.93750
626.9576, 46.51703
627.4397, 45.78949
627.9218, 30.19019
628.4039, 18.57611
628.8860, 22.01105
629.3682, 33.97137
629.8503, 47.78076
630.3324, 62.80872
630.8145, 75.26953
631.2966, 79.10297
631.7787, 82.27863
632.2609, 90.84424
632.7430, 106.4624
633.2251, 123.0920
633.7072, 138.0001
634.1893, 154.9788
634.6714, 177.1597
635.1536, 206.3295
635.6357, 235.1617
636.1178, 263.6904
636.5999, 291.4614
637.0820, 316.2794
637.5641, 337.7110
638.0463, 359.9689
638.5284, 384.8181
639.0105, 411.6973
639.4926, 436.8292
639.9747, 460.7745
640.4568, 489.6241
640.9390, 536.7936
641.4211, 584.5721
641.9032, 612.0590
642.3853, 617.7219
642.8674, 631.4398
643.3495, 675.9581
643.8317, 724.9890
644.3138, 761.1454
644.7959, 779.6492
645.2780, 789.9891
645.7601, 792.3371
646.2422, 786.5775
646.7244, 772.3486
647.2065, 749.6458
647.6886, 717.5474
648.1707, 673.7747
648.6528, 624.1071
649.1349, 577.8696
649.6171, 535.1778
650.0992, 495.7171
650.5813, 458.3154
651.0634, 424.7091
651.5455, 399.7151
652.0276, 381.5176
652.5098, 361.3376
652.9919, 329.0604
653.4740, 297.3083
653.9561, 275.7661
654.4382, 267.8302
654.9203, 254.8523
655.4025, 228.7950
655.8846, 201.9520
656.3667, 183.1025
656.8488, 176.9918
657.3309, 163.6351
657.8130, 139.4395
658.2952, 112.9758
658.7773, 95.66626
659.2594, 87.06049
659.7415, 84.58380
660.2236, 90.77679
660.7057, 98.05353
661.1879, 91.09821
661.6700, 74.23779
662.1521, 60.96350
662.6342, 60.08020
663.1163, 62.78827
663.5984, 66.80756
664.0806, 71.02710
664.5627, 67.93842
665.0448, 46.65009
665.5269, 26.00146
666.0090, 13.30560
666.4911, 8.920410
666.9733, 11.24554
667.4554, 24.39624
667.9375, 36.12286
668.4196, 34.15436
668.9017, 19.02985
669.3839, 8.041321
669.8660, 2.708374
670.3481, 1.798157
670.8302, 6.035706
671.3123, 13.48541
671.7944, 20.19501
672.2766, 25.84241
672.7587, 28.84973
673.2408, 26.75305
673.7229, 21.46674
674.2050, 16.71106
674.6871, 12.30396
675.1693, 9.869690
675.6514, 9.776306
676.1335, 11.96167
676.6156, 17.14056
677.0977, 28.23956
677.5798, 35.56384
678.0620, 33.22650
678.5441, 22.48090
679.0262, 15.69574
679.5083, 12.50757
679.9904, 10.41486
680.4725, 10.98254
680.9547, 11.45282
681.4368, 2.634216
681.9189, 18.02899
682.4010, 31.98865
682.8831, 18.87457
683.3652, 3.621643
683.8474, 17.42963
684.3295, 12.61151
684.8116, 8.371704
685.2937, 8.582336
685.7758, 10.36395
686.2579, 9.356934
686.7401, 2.806763
687.2222, 1.889099
687.7043, 11.61456
688.1864, 25.25720
688.6685, 24.49817
689.1506, 10.25708
689.6328, 2.588989
690.1149, 6.100525
690.5970, 5.280579
691.0791, 8.512512
691.5612, 14.65515
692.0433, 17.86505
692.5255, 11.95148
693.0076, 4.609741
693.4897, 0.9079590
693.9718, 1.574219
694.4539, 1.637634
694.9360, 1.345642
695.4182, 3.444214
695.9003, 1.504944
696.3824, 6.981873
696.8645, 7.304688
697.3466, 3.365479
697.8287, 14.77808
698.3109, 14.48730
698.7930, 4.656189
699.2751, 3.604187
699.7572, 8.545593
700.2393, 10.68524
700.7214, 9.717407
701.2036, 6.459717
701.6857, 2.209778
702.1678, 5.466064
702.6499, 10.68036
703.1320, 8.314758
703.6141, 1.933105
704.0963, 0.7997440
704.5784, 10.87927
705.0605, 17.57532
705.5426, 16.16748
706.0247, 9.120544
706.5068, 7.632568
706.9890, 12.14777
707.4711, 18.46259
707.9532, 27.54889
708.4353, 36.13696
708.9174, 32.55579
709.3995, 18.10510
709.8817, 5.614197
710.3638, 5.006287
710.8459, 9.631653
711.3280, 15.25232
711.8101, 22.01874
712.2922, 24.17200
712.7744, 9.918091
713.2565, 1.823364
713.7386, 3.079041
714.2207, 37.16235
714.7028, 54.46252
715.1849, 50.41711
715.6671, 37.77759
716.1492, 30.93011
716.6313, 29.19397
717.1134, 22.21692
717.5955, 6.105774
718.0776, 8.594666
718.5598, 6.201721
719.0419, 6.783142
719.5240, 17.65881
720.0061, 18.78406
720.4882, 20.70831
720.9703, 34.07477
721.4525, 51.43561
721.9346, 55.77393
722.4167, 29.58380
722.8988, 10.24304
723.3809, 6.100891
723.8630, 13.75043
724.3452, 20.37341
724.8273, 26.00275
725.3094, 30.74561
725.7915, 34.73474
726.2736, 37.67346
726.7557, 38.13770
727.2379, 36.42792
727.7200, 35.04175
728.2021, 35.41772
728.6842, 37.13177
729.1663, 41.17065
729.6484, 47.70160
730.1306, 49.94714
730.6127, 38.53125
731.0948, 28.52350
731.5769, 28.88330
732.0590, 43.05139
732.5411, 53.17670
733.0233, 58.43488
733.5054, 61.55786
733.9875, 66.18066
734.4696, 71.52185
734.9517, 69.03918
735.4338, 55.92303
735.9160, 46.04791
736.3981, 58.94128
736.8802, 82.46759
737.3623, 98.34125
737.8444, 98.09283
738.3266, 96.68665
738.8087, 97.80194
739.2908, 101.7979
739.7729, 108.3776
740.2551, 120.3432
740.7372, 132.4116
741.2193, 144.5378
741.7014, 155.3885
742.1835, 163.1418
742.6656, 167.6858
743.1478, 175.7867
743.6299, 189.2549
744.1120, 207.9719
744.5941, 233.5353
745.0762, 264.3789
745.5583, 296.4767
746.0405, 330.3398
746.5226, 362.0131
747.0047, 385.3939
747.4868, 402.6904
747.9689, 427.8350
748.4510, 464.8307
748.9332, 506.5864
749.4153, 550.6873
749.8974, 597.4941
750.3795, 654.5940
750.8616, 723.7388
751.3438, 788.4210
751.8259, 829.4245
752.3080, 859.6207
752.7901, 915.2222
753.2722, 995.3502
753.7543, 1074.069
754.2365, 1137.165
754.7186, 1189.378
755.2007, 1235.613
755.6828, 1278.408
756.1649, 1302.029
756.6470, 1307.497
757.1292, 1289.834
757.6113, 1243.712
758.0934, 1165.480
758.5755, 1072.672
759.0576, 960.2610
759.5397, 848.0058
760.0219, 755.6749
760.5040, 680.0604
760.9861, 613.0206
761.4682, 553.7198
761.9503, 498.1628
762.4324, 442.4019
762.9146, 389.1154
763.3967, 341.0726
763.8788, 296.5405
764.3609, 262.3796
764.8430, 246.3701
765.3251, 238.0612
765.8073, 224.4313
766.2894, 201.8904
766.7715, 184.2747
767.2536, 175.8176
767.7357, 170.9658
768.2178, 157.5386
768.7000, 138.9811
769.1821, 128.3844
769.6642, 132.9421
770.1463, 140.7143
770.6284, 142.0382
771.1105, 140.0052
771.5927, 140.0387
772.0748, 146.8134
772.5569, 150.8276
773.0390, 146.1947
773.5211, 137.1525
774.0032, 136.5488
774.4854, 147.9351
774.9675, 156.9612
775.4496, 157.0139
775.9317, 153.2430
776.4138, 161.6354
776.8959, 180.6689
777.3781, 200.3456
777.8602, 216.8112
778.3423, 231.1458
778.8244, 240.5702
779.3065, 247.6178
779.7886, 261.1776
780.2708, 290.1730
780.7529, 319.5570
781.2350, 343.5581
781.7171, 363.3296
782.1992, 389.0901
782.6813, 421.2795
783.1635, 456.7797
783.6456, 496.4733
784.1277, 537.7100
784.6098, 570.6642
785.0919, 596.3079
785.5740, 625.4236
786.0562, 668.0847
786.5383, 715.3978
787.0204, 762.6604
787.5025, 809.7037
787.9846, 846.3983
788.4667, 862.6853
788.9489, 875.2736
789.4310, 893.0148
789.9131, 916.7544
790.3952, 927.1671
790.8773, 923.8387
791.3594, 908.6576
791.8416, 881.6062
792.3237, 843.9690
792.8058, 796.8252
793.2879, 740.0392
793.7700, 682.8319
794.2521, 632.3945
794.7343, 583.5103
795.2164, 530.9493
795.6985, 470.5713
796.1806, 420.4738
796.6627, 386.0785
797.1448, 357.3917
797.6270, 327.6556
798.1091, 295.6422
798.5912, 275.0762
799.0733, 268.0427
799.5554, 260.6155
800.0375, 234.6475
800.5197, 200.0022
801.0018, 175.8784
801.4839, 165.7290
801.9660, 160.0293
802.4481, 158.7644
802.9302, 155.8627
803.4124, 145.2794
803.8945, 119.2687
804.3766, 101.2463
804.8587, 93.14575
805.3408, 90.51367
805.8229, 91.11279
806.3051, 94.89612
806.7872, 94.12756
807.2693, 87.78564
807.7514, 79.04834
808.2335, 68.33289
808.7156, 58.30164
809.1978, 54.19470
809.6799, 59.74609
810.1620, 62.27393
810.6441, 52.81323
811.1262, 39.89636
811.6083, 32.25684
812.0905, 33.92261
812.5726, 31.64331
813.0547, 23.94604
813.5368, 14.65491
814.0189, 6.538208
814.5010, 0.2711180
814.9832, 1.494141
815.4653, 12.77075
815.9474, 23.44873
816.4295, 24.31091
816.9116, 18.59436
817.3937, 9.473389
817.8759, 7.032471
818.3580, 17.38708
818.8401, 14.79773
819.3222, 7.384521
819.8043, 1.705322
820.2864, 2.805420
820.7686, 2.506714
821.2507, 3.659424
821.7328, 12.50195
822.2149, 23.39111
822.6970, 33.42395
823.1791, 33.71497
823.6613, 19.17896
824.1434, 5.039429
824.6255, 0.9569090
825.1076, 3.066895
825.5897, 7.172241
826.0718, 16.95178
826.5540, 21.87671
827.0361, 18.84668
827.5182, 14.57092
828.0003, 18.61780
828.4824, 30.82593
828.9645, 38.82007
829.4467, 40.95105
829.9288, 37.68274
830.4109, 24.88110
830.8930, 8.549316
831.3751, 1.461304
831.8572, 1.281616
832.3394, 1.806763
832.8215, 10.62439
833.3036, 24.83069
833.7857, 28.16052
834.2678, 16.06787
834.7499, 5.401855
835.2321, 4.131714
835.7142, 8.919678
836.1963, 0.7479250
836.6784, 16.51599
837.1605, 27.83215
837.6426, 29.26733
838.1248, 28.95154
838.6069, 32.36853
839.0890, 37.86621
839.5711, 43.93274
840.0532, 53.86450
840.5353, 56.86487
841.0175, 45.42493
841.4996, 34.20068
841.9817, 40.15723
842.4638, 64.13293
842.9459, 84.92029
843.4280, 100.9214
843.9102, 111.5222
844.3923, 112.2919
844.8744, 108.4481
845.3565, 108.4550
845.8386, 114.6868
846.3207, 122.2155
846.8029, 128.2749
847.2850, 135.3273
847.7671, 146.0474
848.2492, 163.8546
848.7313, 174.9047
849.2134, 176.3727
849.6956, 178.0719
850.1777, 191.9010
850.6598, 214.3293
851.1419, 232.9087
851.6240, 246.0190
852.1061, 257.4326
852.5883, 266.6425
853.0704, 277.7445
853.5525, 296.2869
854.0346, 328.0382
854.5167, 350.1710
854.9988, 354.8932
855.4810, 358.4407
855.9631, 372.1704
856.4452, 396.2854
856.9273, 424.2308
857.4094, 455.7834
857.8915, 490.4226
858.3737, 527.0649
858.8558, 566.3008
859.3379, 608.6453
859.8200, 653.7332
860.3021, 703.1526
860.7842, 752.7766
861.2664, 810.4009
861.7485, 880.2999
862.2306, 964.4315
862.7127, 1045.057
863.1948, 1120.453
863.6769, 1202.810
864.1591, 1295.686
864.6412, 1403.885
865.1233, 1543.594
865.6054, 1715.339
866.0875, 1903.544
866.5696, 2096.991
867.0518, 2308.381
867.5339, 2540.243
868.0160, 2797.061
868.4981, 3096.497
868.9802, 3442.060
869.4623, 3823.523
869.9445, 4230.804
870.4266, 4667.802
870.9087, 5157.103
871.3908, 5702.006
871.8729, 6267.451
872.3550, 6825.700
872.8372, 7408.929
873.3193, 8033.707
873.8014, 8707.440
874.2835, 9437.039
874.7656, 10249.98
875.2477, 11092.73
875.7299, 11955.16
876.2120, 12833.85
876.6941, 13765.82
877.1762, 14747.54
877.6583, 15699.50
878.1404, 16632.30
878.6226, 17456.08
879.1047, 18124.78
879.5869, 18585.95
880.0690, 18722.93
880.5511, 18479.45
881.0332, 17911.60
881.5153, 16937.62
881.9974, 15687.20
882.4796, 14344.79
882.9617, 12883.02
883.4438, 11466.52
883.9259, 10126.23
884.4080, 8894.157
884.8901, 7839.407
885.3723, 6939.962
885.8544, 6140.538
886.3365, 5436.067
886.8186, 4817.924
887.3007, 4301.711
887.7828, 3872.998
888.2650, 3509.592
888.7471, 3221.777
889.2292, 2977.076
889.7113, 2773.552
890.1934, 2608.333
890.6755, 2479.734
891.1577, 2384.612
891.6398, 2309.958
892.1219, 2255.351
892.6040, 2221.335
893.0861, 2205.803
893.5682, 2210.464
894.0504, 2239.099
894.5325, 2293.141
895.0146, 2370.086
895.4967, 2469.445
895.9788, 2591.701
896.4609, 2734.629
896.9431, 2899.448
897.4252, 3094.502
897.9073, 3320.482
898.3894, 3561.090
898.8715, 3797.914
899.3536, 4053.470
899.8358, 4355.635
900.3179, 4706.954
900.8000, 5063.313
901.2821, 5411.536
901.7642, 5771.783
902.2463, 6158.509
902.7285, 6564.370
903.2106, 6983.184
903.6927, 7413.764
904.1748, 7864.050
904.6569, 8388.740
905.1390, 8904.055
905.6212, 9346.025
906.1033, 9706.210
906.5854, 9983.618
907.0675, 10194.51
907.5496, 10289.85
908.0317, 10259.73
908.5139, 10108.19
908.9960, 9834.019
909.4781, 9437.647
909.9602, 8953.324
910.4423, 8371.775
910.9244, 7751.684
911.4066, 7145.664
911.8887, 6560.559
912.3708, 6000.144
912.8529, 5458.765
913.3350, 4958.254
913.8171, 4502.683
914.2993, 4091.642
914.7814, 3733.659
915.2635, 3431.262
915.7456, 3149.449
916.2277, 2883.973
916.7098, 2634.253
917.1920, 2396.657
917.6741, 2178.353
918.1562, 1993.457
918.6383, 1852.587
919.1204, 1723.443
919.6025, 1598.641
920.0847, 1481.264
920.5668, 1373.734
921.0489, 1276.184
921.5310, 1184.489
922.0131, 1098.640
922.4952, 1021.222
922.9774, 955.7793
923.4595, 899.7285
923.9416, 851.8916
924.4237, 811.6270
924.9058, 769.4065
925.3879, 720.2512
925.8701, 669.0410
926.3522, 615.7369
926.8343, 561.2610
927.3164, 518.6267
927.7985, 488.7114
928.2806, 460.9379
928.7628, 430.4163
929.2449, 400.0072
929.7270, 372.6305
930.2091, 348.8197
930.6912, 329.3030
931.1733, 317.0201
931.6555, 307.1578
932.1376, 303.0011
932.6197, 298.2877
933.1018, 279.2126
933.5839, 242.3838
934.0660, 219.1522
934.5482, 218.9889
935.0303, 221.5820
935.5124, 194.3260
935.9945, 152.8800
936.4766, 126.1566
936.9587, 126.3907
937.4409, 125.0955
937.9230, 106.9158
938.4051, 88.44739
938.8872, 84.44824
939.3693, 99.44348
939.8514, 101.3245
940.3336, 89.04126
940.8157, 70.79492
941.2978, 48.38806
941.7799, 26.66980
942.2620, 10.18945
942.7441, 0.2000730
943.2263, 1.882202
943.7084, 39.18164
944.1905, 67.88354
944.6726, 67.82605
945.1547, 43.95654
945.6368, 25.96704
946.1190, 13.78137
946.6011, 6.645264
947.0832, 5.694824
947.5653, 7.954834
948.0474, 13.65369
948.5295, 19.15808
949.0117, 16.02539
949.4938, 12.10156
949.9759, 31.70740
950.4580, 33.04431
950.9401, 25.70093
951.4222, 23.96021
951.9044, 27.92126
952.3865, 30.66382
952.8686, 30.93298
953.3507, 30.54419
953.8328, 31.56165
954.3149, 33.00940
954.7971, 33.54089
955.2792, 32.56201
955.7613, 32.19446
956.2434, 36.67029
956.7255, 37.13989
957.2076, 26.13196
957.6898, 4.070801
958.1719, 11.36230
958.6540, 20.35364
959.1361, 26.46619
959.6182, 27.83411
960.1003, 30.95459
960.5825, 42.54626
961.0646, 61.75549
961.5467, 82.42505
962.0288, 101.5613
962.5109, 125.2820
962.9930, 156.9852
963.4752, 191.8812
963.9573, 216.2246
964.4394, 231.4741
964.9215, 247.1029
965.4036, 263.2998
965.8857, 287.0323
966.3679, 326.9967
966.8500, 376.4391
967.3321, 427.3235
967.8142, 479.8196
968.2963, 531.1978
968.7784, 582.9382
969.2606, 629.7156
969.7427, 665.0333
970.2248, 690.3337
970.7069, 709.9897
971.1890, 724.3135
971.6711, 735.5890
972.1533, 756.9091
972.6354, 765.7896
973.1175, 743.2195
973.5996, 689.2661
974.0817, 630.4896
974.5638, 564.6503
975.0460, 502.1754
975.5281, 447.2451
976.0102, 397.7517
976.4923, 347.7617
976.9744, 298.9037
977.4565, 255.9625
977.9387, 221.2050
978.4208, 192.5112
978.9029, 175.6815
979.3850, 161.4856
979.8671, 133.9617
980.3492, 88.01672
980.8314, 62.81958
981.3135, 66.41467
981.7956, 73.83765
982.2777, 55.46777
982.7598, 24.31287
983.2419, 3.177856
983.7241, 25.26550
984.2062, 37.44409
984.6883, 28.56409
985.1704, 19.21631
985.6525, 19.21301
986.1346, 27.37561
986.6168, 31.44324
987.0989, 31.47400
987.5810, 29.15759
988.0631, 22.26587
988.5452, 16.13794
989.0273, 19.17029
989.5095, 26.90869
989.9916, 27.78003
990.4737, 15.39075
990.9558, 1.824219
991.4379, 13.30725
991.9200, 26.34558
992.4022, 29.41150
992.8843, 24.87927
993.3664, 22.37366
993.8485, 23.21204
994.3306, 29.16016
994.8127, 49.91846
995.2949, 70.59033
995.7770, 75.56409
996.2591, 61.21887
996.7412, 54.77454
997.2233, 57.36694
997.7054, 63.87744
998.1876, 71.31274
998.6697, 80.44714
999.1518, 95.23450
999.6339, 113.9027
1000.116, 129.5604
1000.598, 135.7681
1001.080, 142.1135
1001.562, 150.1503
1002.044, 161.0374
1002.527, 178.9901
1003.009, 204.4508
1003.491, 228.0391
1003.973, 246.9463
1004.455, 266.4579
1004.937, 289.3394
1005.419, 317.6493
1005.901, 354.6661
1006.384, 403.0077
1006.866, 450.3103
1007.348, 489.2825
1007.830, 532.3156
1008.312, 587.4583
1008.794, 654.0510
1009.276, 727.0979
1009.758, 806.1389
1010.240, 892.3130
1010.723, 982.4507
1011.205, 1083.992
1011.687, 1201.588
1012.169, 1334.648
1012.651, 1478.182
1013.133, 1629.343
1013.615, 1803.797
1014.097, 2007.292
1014.580, 2225.976
1015.062, 2436.174
1015.544, 2646.679
1016.026, 2875.002
1016.508, 3124.073
1016.990, 3381.839
1017.472, 3640.832
1017.954, 3910.828
1018.436, 4204.898
1018.919, 4518.467
1019.401, 4808.518
1019.883, 5075.107
1020.365, 5296.628
1020.847, 5466.627
1021.329, 5580.611
1021.811, 5645.145
1022.293, 5649.039
1022.776, 5563.951
1023.258, 5349.636
1023.740, 5100.317
1024.222, 4818.107
1024.704, 4513.950
1025.186, 4194.412
1025.668, 3866.513
1026.150, 3564.496
1026.632, 3291.714
1027.115, 3041.066
1027.597, 2806.461
1028.079, 2594.879
1028.561, 2411.621
1029.043, 2255.000
1029.525, 2105.243
1030.007, 1963.544
1030.489, 1838.665
1030.972, 1734.049
1031.454, 1650.081
1031.936, 1594.800
1032.418, 1557.931
1032.900, 1518.276
1033.382, 1456.861
1033.864, 1409.463
1034.346, 1381.374
1034.828, 1365.231
1035.311, 1353.888
1035.793, 1347.501
1036.275, 1347.434
1036.757, 1353.784
1037.239, 1367.503
1037.721, 1393.677
1038.203, 1423.657
1038.685, 1452.831
1039.167, 1480.452
1039.650, 1500.531
1040.132, 1507.300
1040.614, 1531.716
1041.096, 1585.747
1041.578, 1657.539
1042.060, 1733.019
1042.542, 1813.170
1043.024, 1898.379
1043.507, 1984.260
1043.989, 2080.974
1044.471, 2192.677
1044.953, 2314.790
1045.435, 2439.875
1045.917, 2570.027
1046.399, 2741.049
1046.881, 2951.654
1047.364, 3180.558
1047.846, 3407.108
1048.328, 3654.474
1048.810, 3933.520
1049.292, 4247.623
1049.774, 4601.871
1050.256, 5004.100
1050.738, 5416.742
1051.220, 5829.266
1051.703, 6256.506
1052.185, 6704.073
1052.667, 7174.199
1053.149, 7666.977
1053.631, 8181.110
1054.113, 8724.942
1054.595, 9323.610
1055.077, 9928.407
1055.559, 10527.26
1056.042, 11110.42
1056.524, 11659.69
1057.006, 12169.49
1057.488, 12594.21
1057.970, 12930.12
1058.452, 13152.16
1058.934, 13258.47
1059.416, 13231.99
1059.899, 13055.10
1060.381, 12718.91
1060.863, 12270.13
1061.345, 11702.67
1061.827, 11059.73
1062.309, 10345.06
1062.791, 9591.860
1063.273, 8847.442
1063.755, 8111.049
1064.238, 7418.815
1064.720, 6767.418
1065.202, 6171.893
1065.684, 5651.320
1066.166, 5186.891
1066.648, 4722.967
1067.130, 4274.169
1067.612, 3874.398
1068.094, 3540.830
1068.577, 3246.772
1069.059, 2978.622
1069.541, 2738.451
1070.023, 2523.494
1070.505, 2332.698
1070.987, 2163.796
1071.469, 2016.030
1071.951, 1878.411
1072.434, 1734.140
1072.916, 1600.545
1073.398, 1504.831
1073.880, 1436.487
1074.362, 1359.467
1074.844, 1249.524
1075.326, 1153.863
1075.808, 1079.773
1076.291, 1018.716
1076.773, 961.0521
1077.255, 905.8450
1077.737, 850.7473
1078.219, 795.6510
1078.701, 745.0479
1079.183, 705.5568
1079.665, 668.6599
1080.147, 628.3756
1080.630, 585.2993
1081.112, 545.2343
1081.594, 508.7726
1082.076, 480.7717
1082.558, 467.5776
1083.040, 453.8143
1083.522, 424.3607
1084.004, 387.1830
1084.486, 351.7479
1084.969, 313.3606
1085.451, 294.5018
1085.933, 299.1176
1086.415, 304.4678
1086.897, 294.7975
1087.379, 275.3505
1087.861, 248.7939
1088.343, 218.7582
1088.826, 200.8538
1089.308, 221.5234
1089.790, 226.0653
1090.272, 196.9939
1090.754, 157.0172
1091.236, 144.7064
1091.718, 153.6027
1092.200, 153.0997
1092.682, 138.1818
1093.165, 121.9436
1093.647, 107.8253
1094.129, 99.49695
1094.611, 102.8213
1095.093, 114.9069
1095.575, 114.0304
1096.057, 99.53821
1096.539, 85.20386
1097.022, 76.39124
1097.504, 70.01660
1097.986, 64.51855
1098.468, 58.91394
1098.950, 51.67334
1099.432, 40.55652
1099.914, 32.92468
1100.396, 29.31274
1100.879, 27.70984
1101.361, 29.74609
1101.843, 31.48291
1102.325, 21.14661
1102.807, 2.869873
1103.289, 7.543091
1103.771, 1.681030
1104.253, 12.26953
1104.735, 20.82825
1105.218, 27.88000
1105.700, 35.59399
1106.182, 43.25598
1106.664, 46.84204
1107.146, 45.76794
1107.628, 39.58264
1108.110, 17.71802
1108.592, 1.324097
1109.074, 7.773315
1109.557, 29.23425
1110.039, 31.70068
1110.521, 14.82263
1111.003, 5.758179
1111.485, 15.19751
1111.967, 26.55786
1112.449, 22.88855
1112.931, 13.28442
1113.414, 8.216919
1113.896, 10.58691
1114.378, 7.787964
1114.860, 0.9942630
1115.342, 11.92810
1115.824, 25.47473
1116.306, 37.61316
1116.788, 41.75671
1117.271, 39.61658
1117.753, 35.04211
1118.235, 24.23010
1118.717, 19.01807
1119.199, 22.43042
1119.681, 27.04041
1120.163, 25.77319
1120.645, 19.75000
1121.127, 10.12744
1121.609, 2.204834
1122.092, 10.03296
1122.574, 6.960815
1123.056, 1.719482
1123.538, 4.535522
1124.020, 9.664185
1124.502, 7.342407
1124.984, 1.111572
1125.466, 3.627197
1125.949, 2.558228
1126.431, 9.470581
1126.913, 13.34888
1127.395, 14.25366
1127.877, 11.23547
1128.359, 5.041504
1128.841, 0.9082030
1129.323, 1.139648
1129.806, 4.555542
1130.288, 12.16418
1130.770, 17.65186
1131.252, 8.376831
1131.734, 3.792236
1132.216, 1.493408
1132.698, 25.08325
1133.180, 35.41174
1133.662, 26.38855
1134.145, 14.08569
1134.627, 6.915771
1135.109, 3.916504
1135.591, 6.898438
1136.073, 12.69836
1136.555, 13.27576
1137.037, 2.368774
1137.519, 9.461182
1138.001, 3.787964
1138.484, 4.864746
1138.966, 5.489746
1139.448, 1.425903
1139.930, 1.582275
1140.412, 5.810181
1140.894, 7.984863
1141.376, 4.497681
1141.858, 0.5236820
1142.341, 8.413208
1142.823, 14.64587
1143.305, 6.838257
1143.787, 10.74158
1144.269, 17.34473
1144.751, 8.596802
1145.233, 7.5562000E-02
1145.715, 0.2819820
1146.198, 2.270630
1146.680, 3.949341
1147.162, 5.578735
1147.644, 11.88782
1148.126, 22.51086
1148.608, 31.92737
1149.090, 39.38220
1149.572, 42.68823
1150.054, 35.70984
1150.536, 27.10083
1151.019, 26.22998
1151.501, 34.20032
1151.983, 34.53064
1152.465, 26.75256
1152.947, 22.56628
1153.429, 30.65588
1153.911, 42.39978
1154.393, 54.42554
1154.876, 62.92126
1155.358, 59.33411
1155.840, 37.15454
1156.322, 23.21289
1156.804, 18.53467
1157.286, 19.09399
1157.768, 23.15869
1158.250, 29.52917
1158.733, 38.66284
1159.215, 48.97217
1159.697, 55.14600
1160.179, 58.42346
1160.661, 51.62939
1161.143, 29.85791
1161.625, 9.226563
1162.107, 12.39258
1162.589, 26.82031
1163.072, 30.31763
1163.554, 21.96509
1164.036, 17.33191
1164.518, 19.13562
1165.000, 28.14514
1165.482, 49.07104
1165.964, 70.22656
1166.446, 66.62244
1166.928, 47.59424
1167.411, 33.29089
1167.893, 27.55432
1168.375, 25.48083
1168.857, 25.38684
1169.339, 29.46533
1169.821, 41.67090
1170.303, 56.44519
1170.785, 54.85291
1171.268, 41.72986
1171.750, 32.40259
1172.232, 30.69446
1172.714, 36.14307
1173.196, 57.02356
1173.678, 75.77380
1174.160, 81.62610
1174.642, 76.69629
1175.125, 68.07202
1175.607, 57.26880
1176.089, 52.64783
1176.571, 61.52930
1177.053, 71.35217
1177.535, 79.68774
1178.017, 84.81812
1178.499, 83.21436
1178.981, 74.15881
1179.464, 70.76111
1179.946, 72.37976
1180.428, 73.30066
1180.910, 70.01282
1181.392, 64.69189
1181.874, 54.41785
1182.356, 45.43066
1182.838, 50.05920
1183.320, 68.76294
1183.803, 70.38855
1184.285, 51.78601
1184.767, 34.08777
1185.249, 38.86450
1185.731, 44.90796
1186.213, 32.81604
1186.695, 11.03052
1187.177, 6.352173
1187.660, 20.39673
1188.142, 24.77197
1188.624, 13.50317
1189.106, 3.085571
1189.588, 9.275879
1190.070, 21.05359
1190.552, 31.07666
1191.034, 38.04980
1191.516, 39.25256
1191.999, 33.94116
1192.481, 29.58704
1192.963, 27.76550
1193.445, 28.77124
1193.927, 36.09045
1194.409, 43.48535
1194.891, 43.48254
1195.373, 35.69189
1195.855, 31.92273
1196.338, 32.43140
1196.820, 35.85901
1197.302, 43.35461
1197.784, 49.94824
1198.266, 49.83179
1198.748, 45.63855
1199.230, 38.52002
1199.712, 26.25598
1200.195, 31.87268
1200.677, 58.19275
1201.159, 73.77771
1201.641, 53.70227
1202.123, 24.40918
1202.605, 13.65942
1203.087, 15.78955
1203.569, 23.51111
1204.052, 41.97034
1204.534, 45.46704
1205.016, 31.50916
1205.498, 17.78149
1205.980, 15.71167
1206.462, 20.68152
1206.944, 32.88440
1207.426, 47.01819
1207.908, 49.59424
1208.391, 33.76746
1208.873, 24.44385
1209.355, 23.48547
1209.837, 24.60583
1210.319, 20.44836
1210.801, 16.95520
1211.283, 25.07910
1211.765, 40.12708
1212.247, 43.86621
1212.730, 30.03345
1213.212, 22.14526
1213.694, 23.47241
1214.176, 26.63708
1214.658, 24.53308
1215.140, 20.50549
1215.622, 17.36292
1216.104, 15.63574
1216.587, 17.05054
1217.069, 21.96545
1217.551, 29.39270
1218.033, 39.41345
1218.515, 48.33459
1218.997, 50.74268
1219.479, 49.76294
1219.961, 49.18884
1220.443, 49.68848
1220.926, 53.08325
1221.408, 61.83386
1221.890, 61.33813
1222.372, 45.66406
1222.854, 29.65344
1223.336, 35.34229
1223.818, 47.57886
1224.300, 45.54688
1224.782, 26.50183
1225.265, 28.24597
1225.747, 57.59558
1226.229, 74.43286
1226.711, 63.38098
1227.193, 43.56140
1227.675, 34.48450
1228.157, 31.97742
1228.639, 32.82227
1229.122, 37.14722
1229.604, 34.20947
1230.086, 22.29980
1230.568, 15.57483
1231.050, 22.11255
1231.532, 30.63525
1232.014, 26.93628
1232.496, 18.43506
1232.979, 14.94714
1233.461, 18.12231
1233.943, 17.26636
1234.425, 12.08911
1234.907, 5.249023
1235.389, 5.717041
1235.871, 11.75952
1236.353, 0.4309080
1236.835, 20.49585
1237.318, 35.27026
1237.800, 44.32922
1238.282, 47.46130
1238.764, 44.45337
1239.246, 39.24731
1239.728, 31.59363
1240.210, 25.77771
1240.692, 26.71643
1241.175, 31.20544
1241.657, 34.55615
1242.139, 36.07678
1242.621, 42.13379
1243.103, 52.93860
1243.585, 58.21082
1244.067, 44.39026
1244.549, 30.59741
1245.031, 32.89453
1245.514, 41.92456
1245.996, 43.15393
1246.478, 35.43726
1246.960, 33.34314
1247.442, 37.21106
1247.924, 39.90955
1248.406, 34.69421
1248.888, 28.92493
1249.370, 29.20483
1249.853, 29.62805
1250.335, 19.68787
1250.817, 0.4459230
1251.299, 4.060059
1251.781, 6.185181
1252.263, 16.20325
1252.745, 15.95166
1253.227, 14.58777
1253.710, 15.16272
1254.192, 17.52649
1254.674, 23.68140
1255.156, 32.24841
1255.638, 34.71204
1256.120, 31.04370
1256.602, 22.69641
1257.084, 0.4576420
1257.567, 13.57288
1258.049, 5.558350
1258.531, 10.81018
1259.013, 19.51794
1259.495, 21.70361
1259.977, 19.51013
1260.459, 13.80505
1260.941, 12.15649
1261.423, 23.40454
1261.906, 32.34558
1262.388, 36.32959
1262.870, 35.70703
1263.352, 26.98108
1263.834, 14.95532
1264.316, 12.58960
1264.798, 20.14905
1265.280, 25.18750
1265.762, 13.01074
1266.245, 19.78455
1266.727, 60.99243
1267.209, 102.4309
1267.691, 84.98853
1268.173, 41.47925
1268.655, 29.54529
1269.137, 51.93066
1269.619, 61.63452
1270.102, 45.80603
1270.584, 40.16589
1271.066, 56.03137
1271.548, 71.65747
1272.030, 49.18005
1272.512, 18.74915
1272.994, 15.41589
1273.476, 38.96069
1273.958, 39.57581
1274.441, 7.984863
1274.923, 4.590698
1275.405, 16.69861
1275.887, 43.36890
1276.369, 49.19373
1276.851, 43.41235
1277.333, 30.33728
1277.815, 12.70850
1278.297, 1.936157
1278.780, 1.927490
1279.262, 3.859375
1279.744, 21.23096
1280.226, 35.81396
1280.708, 29.41516
1281.190, 19.20667
1281.672, 17.22534
1282.154, 21.88110
1282.637, 28.72705
1283.119, 34.96008
1283.601, 41.25208
1284.083, 43.98560
1284.565, 44.62024
1285.047, 44.88330
1285.529, 42.60425
1286.011, 35.15173
1286.494, 25.92480
1286.976, 26.98572
1287.458, 34.71558
1287.940, 33.91187
1288.422, 19.25061
1288.904, 15.32031
1289.386, 42.25415
1289.868, 67.27234
1290.350, 80.76892
1290.833, 84.77734
1291.315, 79.37793
1291.797, 67.96106
1292.279, 60.63428
1292.761, 58.35742
1293.243, 54.80005
1293.725, 47.63574
1294.207, 44.70129
1294.689, 48.98193
1295.172, 53.78503
1295.654, 47.03198
1296.136, 36.19409
1296.618, 32.21765
1297.100, 37.44958
1297.582, 35.91541
1298.064, 26.21729
1298.546, 18.13428
1299.029, 14.12817
1299.511, 14.67493
1299.993, 25.36450
1300.475, 37.15344
1300.957, 40.46863
1301.439, 36.27197
1301.921, 30.41187
1302.403, 22.97729
1302.885, 17.70068
1303.368, 16.20703
1303.850, 14.32458
1304.332, 6.118164
1304.814, 0.2099610
1305.296, 0.7141110
1305.778, 4.682617
1306.260, 19.29578
1306.742, 26.00842
1307.224, 21.39160
1307.707, 0.0000000E+00
##END=



