##NAMES=Euclase
##RRUFFID=R050032
##IDEAL CHEMISTRY=BeAlSiO_4_(OH)
##LOCALITY=Minas Gerais, Brazil
##OWNER=RRUFF
##SOURCE=University of Arizona Mineral Museum
##DESCRIPTION=Colorless crystal fragments
##STATUS=The identification of this mineral has been confirmed by X-ray diffraction and chemical analysis
##URL=rruff.info/R050032
##MEASURED CHEMISTRY=Be_1.00_Al_1.00_Si_1.00_O_4_(OH)
104.516, 0.000
105.908, 367.790
107.300, 263.849
108.691, 16.094
110.082, 140.943
111.473, 17.448
112.864, 152.180
114.254, 649.635
115.644, 1247.742
117.034, 1901.707
118.424, 1823.917
119.813, 2140.910
121.203, 2028.326
122.592, 1041.868
123.981, 688.283
125.369, 414.359
126.758, 407.919
128.146, 545.800
129.534, 398.867
130.922, 594.005
132.309, 381.146
133.696, 444.233
135.083, 571.199
136.470, 829.989
137.857, 960.524
139.243, 1134.743
140.630, 1211.589
142.016, 1530.013
143.401, 1871.976
144.787, 1882.437
146.172, 1368.363
147.557, 896.714
148.942, 625.444
150.327, 570.525
151.711, 493.931
153.096, 590.638
154.480, 411.634
155.863, 402.897
157.247, 333.587
158.630, 402.627
160.013, 391.263
161.396, 455.215
162.779, 442.934
164.161, 398.780
165.544, 439.737
166.926, 398.842
168.308, 436.079
169.689, 565.447
171.070, 607.945
172.452, 962.574
173.833, 1464.331
175.213, 2219.215
176.594, 3453.224
177.974, 2908.934
179.354, 4122.604
180.734, 1997.971
182.114, 1173.452
183.493, 650.047
184.872, 630.751
186.251, 423.563
187.630, 476.438
189.008, 399.259
190.387, 381.040
191.765, 493.817
193.143, 613.607
194.520, 765.424
195.898, 807.277
197.275, 750.174
198.652, 680.122
200.029, 633.125
201.405, 644.188
202.782, 533.315
204.158, 414.509
205.534, 444.770
206.909, 580.100
208.285, 443.446
209.660, 402.863
211.035, 165.923
212.410, 156.014
213.784, 328.888
215.159, 285.730
216.533, 263.460
217.907, 210.220
219.281, 313.063
220.654, 212.048
222.027, 140.115
223.400, 284.929
224.773, 397.331
226.146, 481.323
227.518, 734.411
228.891, 1386.563
230.263, 2468.781
231.634, 4838.062
233.006, 4620.608
234.377, 4370.867
235.748, 4689.355
237.119, 2451.013
238.490, 1405.727
239.860, 1091.514
241.231, 955.399
242.601, 691.592
243.970, 947.340
245.340, 926.394
246.709, 1111.502
248.079, 1519.662
249.448, 2676.873
250.816, 4140.143
252.185, 7511.463
253.553, 13291.852
254.921, 22323.287
256.289, 27038.771
257.657, 20303.307
259.024, 11797.884
260.391, 6429.510
261.758, 4054.181
263.125, 2536.899
264.492, 1679.661
265.858, 1140.467
267.224, 741.314
268.590, 538.204
269.956, 491.539
271.321, 669.238
272.687, 595.157
274.052, 492.743
275.416, 416.388
276.781, 564.319
278.146, 699.504
279.510, 933.914
280.874, 1657.529
282.237, 2878.329
283.601, 4957.299
284.964, 6378.426
286.327, 5248.698
287.690, 3366.107
289.053, 1953.650
290.416, 1087.312
291.778, 715.086
293.140, 450.004
294.502, 299.022
295.863, 202.138
297.225, 161.345
298.586, 60.636
299.947, 139.010
301.308, 264.460
302.668, 217.989
304.029, 486.594
305.389, 596.268
306.749, 367.013
308.108, 151.820
309.468, 127.688
310.827, 133.385
312.186, 74.216
313.545, 22.235
314.903, 63.855
316.262, 13.739
317.620, 67.388
318.978, 4.317
320.336, 61.056
321.693, 163.763
323.051, 116.163
324.408, 77.480
325.765, 58.146
327.121, 219.327
328.478, 360.769
329.834, 316.244
331.190, 308.523
332.546, 219.064
333.902, 186.270
335.257, 55.073
336.612, 45.722
337.967, 103.385
339.322, 1.925
340.677, 199.205
342.031, 60.507
343.385, 180.754
344.739, 30.018
346.093, 213.740
347.446, 233.522
348.799, 543.331
350.153, 1018.163
351.505, 1387.020
352.858, 1066.913
354.210, 459.847
355.563, 405.806
356.915, 195.818
358.267, 170.855
359.618, 106.924
360.969, 1.047
362.321, 109.207
363.672, 90.418
365.022, 171.443
366.373, 192.945
367.723, 241.240
369.073, 302.559
370.423, 427.902
371.773, 738.242
373.122, 918.838
374.471, 1467.730
375.821, 2308.219
377.169, 3448.625
378.518, 4743.109
379.866, 4714.600
381.215, 3741.154
382.563, 2573.730
383.910, 1629.332
385.258, 1243.951
386.605, 1052.541
387.952, 1403.105
389.299, 1806.682
390.646, 3223.273
391.992, 5309.881
393.339, 7375.504
394.685, 6492.188
396.031, 4243.840
397.376, 2686.510
398.722, 1454.795
400.067, 987.520
401.412, 729.260
402.757, 427.072
404.101, 403.893
405.446, 337.746
406.790, 233.605
408.134, 158.479
409.478, 141.381
410.821, 185.303
412.165, 140.250
413.508, 186.107
414.851, 136.174
416.193, 261.148
417.536, 286.131
418.878, 340.121
420.220, 450.232
421.562, 465.033
422.904, 544.252
424.245, 522.328
425.586, 339.406
426.927, 299.494
428.268, 202.584
429.609, 125.682
430.949, 50.783
432.289, 179.910
433.629, 300.062
434.969, 341.236
436.309, 588.434
437.648, 1011.654
438.987, 2024.889
440.326, 1979.920
441.665, 3128.412
443.003, 2231.693
444.342, 1837.986
445.680, 1715.295
447.018, 1890.613
448.355, 2086.941
449.693, 2466.055
451.030, 2532.402
452.367, 2429.762
453.704, 2315.301
455.041, 2115.672
456.377, 1670.471
457.713, 1580.852
459.049, 1163.240
460.385, 919.668
461.721, 756.062
463.056, 557.326
464.391, 403.711
465.726, 260.223
467.061, 176.184
468.395, 108.740
469.730, 110.857
471.064, 187.268
472.398, 8.059
473.731, 237.336
475.065, 122.271
476.398, 128.643
477.731, 36.775
479.064, 94.348
480.397, 14.396
481.729, 55.518
483.062, 60.574
484.394, 18.217
485.725, 73.465
487.057, 28.332
488.389, 198.572
489.720, 98.807
491.051, 7.041
492.382, 206.258
493.712, 87.527
495.043, 140.631
496.373, 3.783
497.703, 123.920
499.032, 248.053
500.362, 232.121
501.691, 384.566
503.020, 450.682
504.349, 583.959
505.678, 946.352
507.007, 1075.453
508.335, 1187.549
509.663, 1149.637
510.991, 951.719
512.319, 642.906
513.646, 526.264
514.973, 314.650
516.300, 364.408
517.627, 288.449
518.954, 147.174
520.280, 162.451
521.607, 65.898
522.933, 63.777
524.259, 22.197
525.584, 114.236
526.910, 67.545
528.235, 115.850
529.560, 171.879
530.885, 80.129
532.209, 8.891
533.534, 13.227
534.858, 51.434
536.182, 99.820
537.506, 324.498
538.829, 346.225
540.152, 686.111
541.476, 667.008
542.799, 755.148
544.121, 412.570
545.444, 298.242
546.766, 387.898
548.088, 181.537
549.410, 109.158
550.732, 174.764
552.053, 285.564
553.375, 40.209
554.696, 128.750
556.017, 111.738
557.337, 27.242
558.658, 319.928
559.978, 191.379
561.298, 268.941
562.618, 412.355
563.938, 321.670
565.257, 424.047
566.576, 997.398
567.895, 962.486
569.214, 2078.109
570.533, 3117.816
571.851, 3740.086
573.170, 3598.443
574.488, 2685.672
575.805, 2118.873
577.123, 1661.057
578.440, 1680.273
579.758, 1787.514
581.075, 2449.936
582.391, 2341.027
583.708, 2261.094
585.024, 1669.135
586.341, 1076.154
587.657, 786.150
588.972, 768.121
590.288, 605.068
591.603, 627.992
592.918, 284.893
594.233, 437.766
595.548, 351.615
596.863, 625.439
598.177, 438.238
599.491, 328.902
600.805, 482.939
602.119, 573.012
603.432, 470.178
604.746, 488.852
606.059, 359.496
607.372, 67.115
608.685, 228.693
609.997, 330.246
611.309, 67.230
612.621, 235.189
613.933, 117.582
615.245, 163.945
616.557, 187.279
617.868, 142.645
619.179, 212.924
620.490, 100.176
621.801, 91.395
623.111, 255.576
624.421, 80.727
625.731, 364.842
627.041, 185.930
628.351, 152.988
629.660, 146.020
630.970, 180.404
632.279, 414.396
633.588, 151.527
634.896, 526.475
636.205, 95.346
637.513, 462.238
638.821, 462.100
640.129, 607.945
641.437, 793.500
642.744, 919.027
644.051, 743.832
645.358, 828.551
646.665, 706.311
647.972, 851.043
649.278, 525.979
650.584, 416.658
651.890, 250.477
653.196, 179.203
654.502, 143.389
655.807, 191.264
657.113, 169.811
658.418, 262.336
659.722, 352.865
661.027, 423.369
662.331, 465.287
663.636, 427.152
664.940, 475.953
666.244, 263.385
667.547, 149.793
668.851, 15.174
670.154, 11.500
671.457, 104.771
672.760, 43.986
674.062, 157.170
675.365, 47.301
676.667, 52.609
677.969, 6.346
679.271, 30.242
680.572, 39.080
681.874, 69.117
683.175, 65.934
684.476, 87.346
685.777, 54.406
687.077, 88.090
688.378, 5.746
689.678, 9.127
690.978, 58.650
692.278, 52.912
693.577, 249.055
694.877, 233.197
696.176, 110.574
697.475, 43.543
698.774, 34.625
700.072, 64.270
701.371, 143.283
702.669, 151.734
703.967, 201.529
705.265, 194.184
706.562, 145.105
707.860, 88.004
709.157, 118.107
710.454, 259.684
711.751, 66.510
713.047, 159.309
714.344, 69.516
715.640, 281.180
716.936, 181.148
718.232, 229.381
719.527, 20.113
720.823, 170.340
722.118, 132.771
723.413, 35.818
724.708, 21.527
726.002, 32.160
727.297, 228.094
728.591, 92.324
729.885, 212.537
731.179, 264.730
732.472, 184.904
733.766, 19.059
735.059, 160.818
736.352, 46.186
737.645, 311.162
738.937, 199.123
740.230, 282.066
741.522, 240.990
742.814, 244.898
744.106, 425.789
745.397, 581.660
746.689, 677.516
747.980, 519.354
749.271, 770.176
750.562, 968.980
751.853, 1271.770
753.143, 1415.543
754.433, 2180.301
755.723, 2312.041
757.013, 2344.768
758.303, 2253.477
759.592, 1630.174
760.881, 1095.854
762.170, 1020.520
763.459, 623.396
764.748, 533.033
766.036, 254.658
767.325, 314.094
768.613, 176.689
769.901, 341.852
771.188, 364.426
772.476, 41.984
773.763, 359.496
775.050, 105.027
776.337, 349.689
777.624, 215.105
778.910, 164.605
780.196, 351.684
781.482, 331.160
782.768, 534.631
784.054, 925.090
785.339, 596.516
786.625, 940.965
787.910, 970.402
789.195, 1422.865
790.479, 1287.320
791.764, 1275.963
793.048, 1148.400
794.332, 1012.207
795.616, 674.268
796.900, 660.705
798.183, 572.139
799.467, 307.564
800.750, 274.982
802.033, 435.395
803.316, 145.801
804.598, 323.371
805.880, 78.596
807.163, 242.012
808.445, 272.420
809.726, 178.824
811.008, 147.227
812.289, 196.623
813.570, 67.014
814.851, 68.400
816.132, 199.781
817.413, 42.844
818.693, 79.516
819.973, 160.869
821.253, 29.221
822.533, 38.566
823.813, 121.797
825.092, 110.840
826.371, 113.230
827.650, 123.475
828.929, 57.803
830.208, 17.439
831.486, 47.428
832.764, 62.643
834.042, 29.205
835.320, 52.076
836.598, 19.600
837.875, 136.855
839.152, 88.787
840.429, 19.000
841.706, 303.984
842.983, 222.250
844.259, 31.154
845.536, 309.439
846.812, 29.695
848.088, 111.873
849.363, 62.387
850.639, 18.736
851.914, 325.062
853.189, 175.863
854.464, 328.898
855.739, 359.400
857.013, 627.926
858.288, 198.455
859.562, 331.996
860.836, 186.555
862.110, 555.916
863.383, 506.422
864.656, 822.039
865.930, 786.201
867.203, 1103.842
868.475, 1078.293
869.748, 1529.963
871.020, 1756.520
872.292, 2286.217
873.564, 3012.004
874.836, 4384.730
876.108, 5889.480
877.379, 8725.488
878.650, 11512.953
879.922, 13789.324
881.192, 13738.172
882.463, 11339.926
883.733, 8472.812
885.004, 6048.740
886.274, 4242.680
887.544, 3395.578
888.813, 2962.447
890.083, 2086.125
891.352, 2256.133
892.621, 2135.160
893.890, 1806.207
895.159, 1954.271
896.427, 1778.352
897.695, 2243.457
898.964, 2672.584
900.232, 3002.730
901.499, 3690.898
902.767, 5128.090
904.034, 6651.301
905.301, 8331.525
906.568, 10322.771
907.835, 11320.039
909.102, 10932.324
910.368, 9589.629
911.634, 7630.949
912.900, 6238.285
914.166, 4803.645
915.432, 3975.021
916.697, 2966.428
917.962, 2373.852
919.227, 2249.299
920.492, 1793.801
921.757, 1710.326
923.021, 1326.867
924.285, 1302.428
925.550, 1320.951
926.813, 1008.547
928.077, 1030.168
929.341, 947.811
930.604, 756.480
931.867, 841.166
933.130, 718.881
934.393, 663.615
935.655, 668.365
936.918, 531.137
938.180, 635.928
939.442, 335.740
940.703, 361.568
941.965, 383.414
943.226, 407.275
944.488, 435.686
945.749, 430.441
947.009, 457.994
948.270, 411.936
949.530, 341.896
950.791, 315.873
952.051, 332.865
953.311, 200.877
954.570, 131.914
955.830, 386.967
957.089, 216.041
958.348, 285.139
959.607, 510.252
960.866, 383.395
962.124, 145.555
963.383, 361.752
964.641, 607.963
965.899, 641.193
967.156, 942.449
968.414, 957.723
969.671, 1224.885
970.928, 1765.195
972.185, 1635.521
973.442, 2052.867
974.699, 1719.240
975.955, 1667.643
977.211, 1536.109
978.468, 1354.594
979.723, 1186.133
980.979, 1082.689
982.234, 748.275
983.490, 913.951
984.745, 211.154
986.000, 452.959
987.254, 701.016
988.509, 330.512
989.763, 585.865
991.017, 401.529
992.271, 607.678
993.525, 400.814
994.779, 478.266
996.032, 582.002
997.285, 561.156
998.538, 751.914
999.791, 275.176
1001.044, 802.586
1002.296, 252.045
1003.548, 677.037
1004.800, 665.832
1006.052, 737.871
1007.304, 890.404
1008.555, 915.672
1009.807, 919.719
1011.058, 1153.688
1012.309, 1594.379
1013.559, 1702.145
1014.810, 1883.109
1016.060, 2341.316
1017.310, 3146.930
1018.560, 4141.156
1019.810, 5012.496
1021.060, 6421.293
1022.309, 7163.852
1023.558, 6640.344
1024.807, 6201.090
1026.056, 4990.859
1027.305, 3973.598
1028.553, 3365.402
1029.801, 3066.156
1031.049, 2759.664
1032.297, 2275.344
1033.545, 2108.918
1034.793, 2303.688
1036.040, 1819.625
1037.287, 2099.805
1038.534, 1815.477
1039.781, 1913.168
1041.027, 2263.211
1042.274, 1914.188
1043.520, 2180.410
1044.766, 2436.785
1046.012, 2867.121
1047.257, 2745.410
1048.503, 3112.547
1049.748, 3679.246
1050.993, 4113.949
1052.238, 5196.402
1053.483, 6122.152
1054.727, 7492.727
1055.971, 9335.852
1057.216, 11992.219
1058.459, 13408.371
1059.703, 14047.016
1060.947, 13255.109
1062.190, 11894.199
1063.433, 9696.922
1064.676, 7998.027
1065.919, 5973.949
1067.162, 4741.961
1068.404, 4132.074
1069.646, 3031.340
1070.888, 2770.156
1072.130, 2618.160
1073.372, 2035.742
1074.613, 1710.375
1075.855, 1545.344
1077.096, 1306.242
1078.337, 1069.621
1079.578, 1034.301
1080.818, 904.598
1082.059, 1010.641
1083.299, 867.953
1084.539, 933.000
1085.779, 776.754
1087.018, 765.746
1088.258, 787.625
1089.497, 693.906
1090.736, 575.273
1091.975, 741.023
1093.213, 527.504
1094.452, 433.293
1095.690, 717.027
1096.928, 496.312
1098.166, 419.688
1099.404, 539.531
1100.642, 504.316
1101.879, 591.352
1103.116, 571.586
1104.353, 562.457
1105.590, 514.863
1106.827, 477.590
1108.063, 441.047
1109.299, 299.285
1110.536, 471.629
1111.771, 544.238
1113.007, 203.766
1114.243, 541.852
1115.478, 494.578
1116.713, 579.484
1117.948, 594.750
1119.183, 655.762
1120.418, 510.895
1121.652, 836.891
1122.886, 980.902
1124.120, 859.758
1125.354, 728.762
1126.588, 476.523
1127.821, 499.891
1129.055, 196.273
1130.288, 373.160
1131.521, 328.352
1132.753, 350.719
1133.986, 33.629
1135.218, 84.566
1136.450, 362.852
1137.682, 57.891
1138.914, 63.910
1140.146, 23.172
1141.377, 109.457
1142.609, 160.906
1143.840, 70.129
1145.071, 67.191
1146.301, 14.453
1147.532, 13.449
1148.762, 128.609
1149.992, 133.441
1151.222, 14.051
1152.452, 175.887
1153.682, 32.145
1154.911, 59.551
1156.140, 260.176
1157.369, 51.418
1158.598, 44.277
1159.827, 9.512
1161.055, 163.105
1162.284, 72.414
1163.512, 70.734
1164.740, 19.566
1165.967, 116.152
1167.195, 130.223
1168.422, 269.602
1169.650, 116.668
1170.877, 136.691
1172.103, 87.566
1173.330, 3.410
1174.557, 103.168
1175.783, 376.773
1177.009, 123.730
1178.235, 135.199
1179.461, 167.582
1180.686, 13.859
1181.912, 72.309
1183.137, 474.496
1184.362, 336.828
1185.587, 233.266
1186.811, 247.652
1188.036, 171.125
1189.260, 192.949
1190.484, 145.887
1191.708, 351.074
1192.932, 369.195
1194.155, 26.055
1195.378, 187.562
1196.602, 84.926
1197.825, 88.184
1199.047, 120.680
1200.270, 290.477
1201.492, 335.801
1202.715, 636.105
1203.937, 36.953
1205.159, 440.730
1206.380, 325.652
1207.602, 575.652
1208.823, 548.609
1210.044, 107.594
1211.265, 457.074
1212.486, 263.609
1213.707, 241.938
1214.927, 218.191
1216.147, 421.344
1217.367, 288.430
1218.587, 601.434
1219.807, 344.414
1221.027, 331.273
1222.246, 490.047
1223.465, 99.703
1224.684, 390.266
1225.903, 474.750
1227.121, 250.828
1228.340, 228.148
1229.558, 401.383
1230.776, 464.207
1231.994, 294.273
1233.212, 234.461
1234.429, 500.086
1235.646, 400.848
1236.864, 378.469
1238.081, 615.691
1239.297, 155.387
1240.514, 508.609
1241.730, 520.738
1242.947, 383.621
1244.163, 359.418
1245.378, 481.918
1246.594, 492.316
1247.810, 426.586
1249.025, 84.891
1250.240, 530.848
1251.455, 263.621
1252.670, 121.152
1253.885, 538.516
1255.099, 87.074
1256.313, 315.105
1257.527, 20.000
1258.741, 496.957
1259.955, 355.582
1261.168, 112.324
1262.382, 385.719
1263.595, 291.961
1264.808, 348.887
1266.021, 311.883
1267.233, 335.754
1268.446, 92.145
1269.658, 353.758
1270.870, 20.598
1272.082, 357.738
1273.294, 122.934
1274.505, 219.992
1275.716, 156.738
1276.928, 456.492
1278.139, 116.246
1279.349, 568.707
1280.560, 218.473
1281.770, 390.332
1282.981, 387.379
1284.191, 223.953
1285.401, 242.855
1286.610, 238.355
1287.820, 242.980
1289.029, 193.832
1290.239, 25.770
1291.448, 93.582
1292.656, 271.332
1293.865, 131.902
1295.073, 204.203
1296.282, 219.383
1297.490, 15.109
1298.698, 103.879
1299.906, 353.109
1301.113, 71.879
1302.320, 166.641
1303.528, 152.473
1304.735, 37.730
1305.942, 20.777
1307.148, 118.992
1308.355, 253.059
1309.561, 251.836
1310.767, 350.754
1311.973, 159.375
1313.179, 50.320
1314.384, 4.766
1315.590, 208.281
1316.795, 116.199
1318.000, 372.734
1319.205, 40.379
1320.410, 230.918
1321.614, 4.496
1322.819, 48.277
1324.023, 344.281
1325.227, 229.484
1326.431, 310.914
1327.634, 61.352
1328.838, 69.883
1330.041, 8.188
1331.244, 59.727
1332.447, 62.535
1333.650, 124.996
1334.852, 16.629
1336.055, 193.793
1337.257, 34.902
1338.459, 222.691
1339.661, 149.926
1340.862, 513.617
1342.064, 230.645
1343.265, 171.672
1344.466, 369.254
1345.667, 147.086
1346.868, 461.363
1348.068, 643.824
1349.269, 705.289
1350.469, 275.887
1351.669, 478.289
1352.869, 428.160
1354.069, 503.223
1355.268, 608.387
1356.468, 291.508
1357.667, 601.543
1358.866, 581.172
1360.065, 604.824
1361.263, 755.633
1362.462, 725.309
1363.660, 548.320
1364.858, 814.309
1366.056, 685.297
1367.254, 791.363
1368.451, 703.477
1369.649, 628.691
1370.846, 385.570
1372.043, 560.816
1373.240, 632.969
1374.436, 386.203
1375.633, 939.973
1376.829, 484.684
1378.025, 356.516
1379.221, 600.797
1380.417, 615.754
1381.613, 363.637
1382.808, 466.672
1384.003, 588.023
1385.199, 811.902
1386.393, 529.066
1387.588, 406.027
1388.783, 774.551
1389.977, 451.340
1391.171, 618.586
1392.365, 345.410
1393.559, 497.703
1394.753, 700.555
1395.946, 412.504
1397.140, 386.633
1398.333, 247.672
1399.526, 529.914
1400.719, 562.566
1401.911, 264.527
1403.104, 426.051
1404.296, 241.906
1405.488, 91.043
1406.680, 406.602
1407.872, 23.387
1409.063, 368.570
1410.255, 585.301
1411.446, 116.598
1412.637, 512.188
1413.828, 220.297
1415.018, 337.113
1416.209, 301.176
1417.399, 287.680
1418.589, 59.219
1419.779, 394.984
1420.969, 177.645
1422.159, 201.277
1423.348, 314.379
1424.537, 200.285
1425.726, 349.305
1426.915, 110.730
1428.104, 254.316
1429.293, 111.109
1430.481, 50.824
1431.669, 131.305
1432.857, 232.473
1434.045, 191.234
1435.233, 273.051
1436.420, 271.445
1437.608, 387.199
1438.795, 293.652
1439.982, 426.406
1441.169, 463.797
1442.355, 352.449
1443.542, 48.223
1444.728, 439.906
1445.914, 87.688
1447.100, 307.000
1448.286, 413.422
1449.472, 445.570
1450.657, 19.840
1451.842, 652.426
1453.027, 443.426
1454.212, 193.516
1455.397, 711.887
1456.581, 28.867
1457.766, 171.977
1458.950, 399.664
1460.134, 0.000
##END=



