##NAMES=Euclase
##RRUFFID=R050623
##IDEAL CHEMISTRY=BeAlSiO_4_(OH)
##LOCALITY=Minas Gerais, Brazil
##OWNER=RRUFF
##SOURCE=Gemmological Center
##DESCRIPTION=Colorless flattened prismatic crystal
##STATUS=The identification of this mineral has been confirmed by X-ray diffraction and chemical analysis
##URL=rruff.info/R050623
##MEASURED CHEMISTRY=Be_1.00_Al_1.00_Si_1.00_O_4_(OH) ; Be not measured but estimated by stoichiometry
149.9335, 0.0000000E+00
150.4157, 0.2271730
150.8978, 1.522980
151.3799, 4.329422
151.8620, 6.497604
152.3441, 7.490570
152.8262, 7.949142
153.3084, 8.744141
153.7905, 10.89247
154.2726, 12.61417
154.7547, 13.33321
155.2368, 13.64879
155.7189, 12.26914
156.2011, 8.627930
156.6832, 3.872421
157.1653, 0.9492650
157.6474, 2.361404
158.1295, 4.325958
158.6116, 4.867065
159.0938, 2.328995
159.5759, 0.2082670
160.0580, 0.8250890
160.5401, 0.8117370
161.0222, 0.1163790
161.5044, 3.383392
161.9865, 6.693069
162.4686, 8.476227
162.9507, 7.376312
163.4328, 5.793808
163.9149, 4.464722
164.3971, 3.380203
164.8792, 2.629730
165.3613, 2.149216
165.8434, 2.035187
166.3255, 2.382950
166.8076, 3.589142
167.2898, 4.938431
167.7719, 6.062958
168.2540, 6.982651
168.7361, 7.845734
169.2182, 8.772141
169.7003, 9.685135
170.1825, 10.53874
170.6646, 11.42612
171.1467, 11.99150
171.6288, 12.19148
172.1109, 12.04549
172.5931, 12.10829
173.0752, 12.83020
173.5573, 14.01340
174.0394, 15.34628
174.5215, 16.52548
175.0036, 18.56392
175.4858, 20.25838
175.9679, 22.13687
176.4500, 25.01918
176.9321, 29.39204
177.4142, 35.80389
177.8963, 43.63683
178.3785, 54.32773
178.8606, 66.27676
179.3427, 77.21106
179.8248, 87.60294
180.3069, 91.89932
180.7890, 79.95087
181.2712, 55.92728
181.7533, 33.64761
182.2354, 19.75589
182.7175, 12.10164
183.1996, 6.945892
183.6818, 4.276154
184.1639, 3.137466
184.6460, 2.590317
185.1281, 2.616104
185.6102, 3.111710
186.0923, 4.685562
186.5745, 6.763474
187.0566, 7.190247
187.5387, 5.601501
188.0208, 3.412598
188.5029, 2.673706
188.9850, 3.264969
189.4672, 3.683151
189.9493, 2.761398
190.4314, 0.8794400
190.9135, 0.1154020
191.3956, 0.7792360
191.8777, 2.058533
192.3599, 2.780731
192.8420, 2.939941
193.3241, 2.909637
193.8062, 2.821396
194.2883, 2.682114
194.7704, 2.563797
195.2526, 2.432739
195.7347, 2.381485
196.2168, 2.691849
196.6989, 3.401184
197.1810, 3.968094
197.6632, 4.217941
198.1453, 4.150467
198.6274, 3.212036
199.1095, 0.9527740
199.5916, 1.610565
200.0737, 2.039169
200.5559, 1.7151000E-02
201.0380, 2.084030
201.5201, 2.916901
202.0022, 2.401764
202.4843, 1.965988
202.9664, 1.782394
203.4486, 1.635986
203.9307, 0.8192140
204.4128, 0.9141690
204.8949, 2.281219
205.3770, 2.320908
205.8591, 0.7600400
206.3413, 8.8715002E-02
206.8234, 0.1139220
207.3055, 0.9350740
207.7876, 1.251450
208.2697, 0.9820400
208.7519, 0.5262600
209.2340, 1.6983001E-02
209.7161, 0.6094210
210.1982, 0.9011380
210.6803, 0.6747440
211.1624, 0.1869200
211.6446, 0.2075200
212.1267, 0.9339750
212.6088, 1.689240
213.0909, 1.978180
213.5730, 1.492569
214.0551, 1.833862
214.5373, 3.402222
215.0194, 5.712799
215.5015, 7.206100
215.9836, 7.187454
216.4657, 7.797638
216.9478, 10.51456
217.4300, 16.42706
217.9121, 20.86151
218.3942, 23.25215
218.8763, 24.21471
219.3584, 25.33961
219.8405, 26.61728
220.3227, 28.04663
220.8048, 29.62660
221.2869, 31.38724
221.7690, 33.24512
222.2511, 35.23227
222.7333, 37.29837
223.2154, 39.20459
223.6975, 40.84570
224.1796, 42.54930
224.6617, 44.42847
225.1438, 46.34418
225.6260, 48.79399
226.1081, 51.77032
226.5902, 55.29851
227.0723, 59.32559
227.5544, 63.86218
228.0365, 68.96809
228.5187, 74.43333
229.0008, 79.29919
229.4829, 86.70380
229.9650, 96.22949
230.4471, 108.5033
230.9292, 125.1299
231.4114, 146.3138
231.8935, 171.9604
232.3756, 201.1719
232.8577, 232.3298
233.3398, 273.0695
233.8220, 330.0619
234.3041, 394.5842
234.7862, 447.5620
235.2683, 504.3622
235.7504, 525.9617
236.2325, 488.6390
236.7147, 360.5532
237.1968, 256.8694
237.6789, 180.2610
238.1610, 126.9035
238.6431, 89.68509
239.1252, 73.04645
239.6074, 65.12180
240.0895, 62.46495
240.5716, 67.45932
241.0537, 70.90555
241.5358, 72.36728
242.0179, 72.49396
242.5001, 72.32468
242.9822, 70.90918
243.4643, 70.73911
243.9464, 72.95757
244.4285, 78.50943
244.9106, 83.38783
245.3928, 87.23816
245.8749, 90.59854
246.3570, 94.31686
246.8391, 98.36852
247.3212, 102.7924
247.8034, 107.4420
248.2855, 112.0421
248.7676, 118.0023
249.2497, 125.2427
249.7318, 133.9978
250.2139, 144.4892
250.6961, 156.3333
251.1782, 170.6176
251.6603, 187.2172
252.1424, 205.6582
252.6245, 229.6534
253.1066, 259.1497
253.5888, 294.3846
254.0709, 335.9808
254.5530, 383.4386
255.0351, 438.7103
255.5172, 503.3355
255.9993, 578.6119
256.4815, 657.0346
256.9636, 755.7016
257.4457, 838.1153
257.9278, 862.1893
258.4099, 816.4993
258.8921, 736.6857
259.3742, 617.6064
259.8563, 459.2163
260.3384, 332.2274
260.8205, 242.2211
261.3026, 177.9609
261.7848, 129.5369
262.2669, 100.5053
262.7490, 78.53046
263.2311, 62.65326
263.7132, 52.71844
264.1953, 44.92462
264.6775, 39.57208
265.1596, 35.30803
265.6417, 30.78120
266.1238, 25.78607
266.6059, 22.13512
267.0880, 20.10014
267.5702, 19.50407
268.0523, 19.56583
268.5344, 20.51794
269.0165, 21.75262
269.4986, 22.94695
269.9807, 24.19963
270.4629, 25.09009
270.9450, 25.28430
271.4271, 25.16440
271.9092, 26.38351
272.3913, 29.36055
272.8734, 32.24551
273.3556, 33.41968
273.8377, 32.46756
274.3198, 32.82436
274.8019, 35.31888
275.2840, 38.95894
275.7661, 40.73122
276.2483, 40.13278
276.7304, 39.74353
277.2125, 41.17274
277.6946, 44.53839
278.1768, 48.05544
278.6589, 51.68092
279.1410, 55.32764
279.6231, 58.27631
280.1052, 60.21970
280.5873, 63.78256
281.0695, 70.16913
281.5516, 79.38458
282.0337, 90.88086
282.5158, 104.8189
282.9979, 120.6616
283.4800, 137.4276
283.9622, 155.0721
284.4443, 174.5829
284.9264, 199.0170
285.4085, 226.9500
285.8906, 249.5617
286.3727, 268.3319
286.8549, 276.4553
287.3370, 261.0849
287.8191, 223.1876
288.3012, 182.3360
288.7833, 142.9461
289.2654, 106.5857
289.7476, 79.00513
290.2297, 60.60553
290.7118, 47.82646
291.1939, 37.93121
291.6760, 30.82416
292.1581, 25.49551
292.6403, 22.22400
293.1224, 20.23734
293.6045, 17.52173
294.0866, 14.09276
294.5687, 10.96873
295.0508, 9.152298
295.5330, 8.391342
296.0151, 7.879654
296.4972, 7.514328
296.9793, 7.188309
297.4614, 6.786392
297.9435, 6.296494
298.4257, 5.621490
298.9078, 4.434052
299.3899, 3.027390
299.8720, 2.119293
300.3541, 1.961502
300.8362, 2.042206
301.3184, 1.485199
301.8005, 0.5174710
302.2826, 8.9722000E-02
302.7647, 1.543823
303.2469, 3.643723
303.7290, 4.475922
304.2111, 3.605225
304.6932, 2.240646
305.1753, 1.277267
305.6574, 0.7043610
306.1396, 0.5355990
306.6217, 1.184509
307.1038, 2.025497
307.5859, 2.302155
308.0680, 1.912491
308.5501, 1.558853
309.0323, 1.915253
309.5144, 2.637146
309.9965, 3.175095
310.4786, 3.337448
310.9607, 3.215347
311.4428, 2.738785
311.9250, 1.929749
312.4071, 1.241547
312.8892, 1.104996
313.3713, 1.181000
313.8534, 1.112350
314.3355, 0.5127560
314.8177, 1.4496000E-02
315.2998, 5.7769999E-02
315.7819, 0.2886510
316.2640, 0.5237880
316.7461, 0.4384310
317.2282, 0.1403350
317.7104, 0.3461300
318.1925, 1.491867
318.6746, 2.118820
319.1567, 1.088455
319.6388, 0.8544620
320.1209, 1.689850
320.6031, 1.009888
321.0852, 3.633972
321.5673, 4.018936
322.0494, 0.3638610
322.5315, 1.975800
323.0136, 0.6202550
323.4958, 2.515976
323.9779, 4.326111
324.4600, 3.105179
324.9421, 1.542984
325.4242, 0.5602570
325.9064, 0.3882140
326.3885, 7.4081004E-02
326.8706, 1.691666
327.3527, 3.325089
327.8348, 3.797897
328.3170, 1.446838
328.7991, 0.3277440
329.2812, 0.7794040
329.7633, 0.1278080
330.2454, 0.6670680
330.7275, 0.4609990
331.2097, 0.1750640
331.6918, 0.2779690
332.1739, 0.9705050
332.6560, 1.733627
333.1381, 2.603210
333.6202, 3.511688
334.1024, 4.076935
334.5845, 4.120377
335.0666, 4.071899
335.5487, 4.150330
336.0308, 4.388245
336.5129, 4.690765
336.9951, 5.184677
337.4772, 5.661728
337.9593, 5.577271
338.4414, 4.633652
338.9235, 4.024246
339.4056, 4.438156
339.8878, 5.998001
340.3699, 6.831772
340.8520, 6.790787
341.3341, 6.316223
341.8162, 5.878815
342.2983, 5.460846
342.7805, 5.263611
343.2626, 5.271164
343.7447, 5.540482
344.2268, 6.476532
344.7089, 8.156555
345.1910, 10.07466
345.6732, 11.60864
346.1553, 12.86557
346.6374, 14.62881
347.1195, 17.24924
347.6016, 20.26193
348.0837, 22.46031
348.5659, 23.94052
349.0480, 25.97383
349.5301, 29.91992
350.0122, 35.08554
350.4944, 39.61980
350.9765, 43.30424
351.4586, 46.28621
351.9407, 49.53342
352.4228, 52.39494
352.9049, 52.69231
353.3871, 47.72476
353.8692, 40.24173
354.3513, 33.55690
354.8334, 27.83963
355.3155, 22.92572
355.7976, 18.76750
356.2798, 15.16380
356.7619, 11.85345
357.2440, 8.089752
357.7261, 5.130066
358.2082, 4.276520
358.6903, 5.289444
359.1725, 6.526779
359.6546, 7.476776
360.1367, 8.030228
360.6188, 8.075058
361.1009, 7.155151
361.5830, 6.298584
362.0652, 5.861420
362.5473, 5.813477
363.0294, 6.079651
363.5115, 7.073120
363.9936, 8.033554
364.4757, 8.515900
364.9579, 8.269058
365.4400, 8.193878
365.9221, 8.363937
366.4042, 8.843018
366.8863, 9.711182
367.3684, 11.64754
367.8506, 13.30591
368.3327, 14.34627
368.8148, 14.71689
369.2969, 14.90309
369.7790, 14.03111
370.2611, 13.60027
370.7433, 14.74646
371.2254, 18.96179
371.7075, 22.32959
372.1896, 23.92796
372.6717, 24.37590
373.1538, 26.39120
373.6360, 30.74495
374.1181, 35.43555
374.6002, 39.31902
375.0823, 41.88998
375.5645, 45.43593
376.0466, 49.80545
376.5287, 55.20586
377.0108, 62.22888
377.4929, 70.96896
377.9750, 80.39311
378.4572, 90.48125
378.9393, 100.9690
379.4214, 110.2299
379.9035, 118.7975
380.3856, 124.6505
380.8677, 125.3424
381.3499, 120.9374
381.8320, 114.2026
382.3141, 105.0197
382.7962, 94.95544
383.2783, 86.64108
383.7604, 80.06836
384.2426, 75.24284
384.7247, 72.12411
385.2068, 70.70840
385.6889, 70.90710
386.1710, 72.74850
386.6531, 76.03833
387.1353, 80.55692
387.6174, 86.48207
388.0995, 94.03500
388.5816, 103.4091
389.0637, 114.5018
389.5458, 126.9545
390.0280, 140.9048
390.5101, 157.5329
390.9922, 177.0716
391.4743, 199.8513
391.9564, 226.7303
392.4385, 260.2501
392.9207, 294.9511
393.4028, 333.9550
393.8849, 372.7384
394.3670, 397.6344
394.8491, 407.5283
395.3312, 398.6766
395.8134, 365.0862
396.2955, 295.9367
396.7776, 230.5032
397.2597, 174.9191
397.7418, 129.0780
398.2239, 92.57693
398.7061, 69.43140
399.1882, 51.97754
399.6703, 39.73665
400.1524, 32.81400
400.6346, 26.89256
401.1167, 22.32382
401.5988, 18.51331
402.0809, 15.08524
402.5630, 11.95778
403.0451, 9.354523
403.5273, 7.296799
404.0094, 5.781204
404.4915, 4.915543
404.9736, 4.905502
405.4557, 5.036438
405.9378, 5.005280
406.4200, 4.794067
406.9021, 4.696671
407.3842, 4.842529
407.8663, 4.808334
408.3484, 3.793900
408.8305, 1.771698
409.3127, 0.2818910
409.7948, 9.8403998E-02
410.2769, 0.2614590
410.7590, 0.4823300
411.2411, 0.5690310
411.7232, 0.3753970
412.2054, 0.7160490
412.6875, 2.192535
413.1696, 2.410110
413.6517, 0.8636170
414.1338, 1.056702
414.6159, 1.714859
415.0981, 1.424377
415.5802, 1.027115
416.0623, 0.8123320
416.5444, 0.7702330
417.0265, 0.8517910
417.5086, 1.052383
417.9908, 1.530869
418.4729, 2.508789
418.9550, 3.763275
419.4371, 5.039490
419.9192, 6.211060
420.4013, 7.476395
420.8835, 9.308044
421.3656, 11.35878
421.8477, 12.61136
422.3298, 12.17181
422.8119, 11.33102
423.2940, 10.53442
423.7762, 9.608231
424.2583, 9.454605
424.7404, 10.34021
425.2225, 11.99158
425.7047, 14.08041
426.1868, 16.95683
426.6689, 19.85713
427.1510, 22.86475
427.6331, 25.92081
428.1152, 28.29678
428.5974, 29.55951
429.0795, 30.73541
429.5616, 32.38107
430.0437, 34.66779
430.5258, 37.20473
431.0079, 39.91977
431.4901, 42.92104
431.9722, 46.31342
432.4543, 50.04440
432.9364, 54.53787
433.4185, 60.01268
433.9006, 66.33617
434.3828, 72.47202
434.8649, 78.30566
435.3470, 85.34427
435.8291, 94.74109
436.3112, 106.4970
436.7933, 120.3729
437.2755, 136.4825
437.7576, 154.5092
438.2397, 172.4527
438.7218, 191.4366
439.2039, 215.2099
439.6860, 248.8548
440.1682, 286.9197
440.6503, 327.1750
441.1324, 370.3563
441.6145, 401.1111
442.0966, 413.6505
442.5787, 407.5344
443.0609, 382.0907
443.5430, 317.4472
444.0251, 254.3163
444.5072, 204.1440
444.9893, 166.4455
445.4714, 138.5203
445.9536, 123.7386
446.4357, 114.9325
446.9178, 109.6322
447.3999, 108.8800
447.8820, 108.3806
448.3641, 107.7996
448.8463, 107.5522
449.3284, 108.1675
449.8105, 110.3302
450.2926, 112.1759
450.7747, 113.7436
451.2569, 114.8124
451.7390, 113.8954
452.2211, 110.5924
452.7032, 106.2638
453.1853, 101.8257
453.6674, 97.29785
454.1496, 91.36472
454.6317, 83.73718
455.1138, 75.17615
455.5959, 66.28587
456.0780, 57.13823
456.5602, 49.46231
457.0423, 44.29030
457.5244, 40.70523
458.0065, 36.79109
458.4886, 32.64633
458.9707, 28.93288
459.4529, 26.52216
459.9350, 24.76782
460.4171, 22.73178
460.8992, 20.12889
461.3813, 17.61656
461.8634, 15.72218
462.3456, 14.24698
462.8277, 12.92194
463.3098, 11.78720
463.7919, 10.59373
464.2740, 9.080612
464.7561, 7.321030
465.2383, 5.966736
465.7204, 5.210938
466.2025, 4.970551
466.6846, 5.240799
467.1667, 6.524414
467.6488, 7.206406
468.1310, 7.020004
468.6131, 6.362457
469.0952, 5.784409
469.5773, 5.239578
470.0594, 4.478256
470.5415, 3.304153
471.0237, 1.795013
471.5058, 1.312439
471.9879, 2.193527
472.4700, 3.244537
472.9521, 3.450684
473.4342, 2.777695
473.9164, 2.675125
474.3985, 3.365585
474.8806, 4.197571
475.3627, 4.405350
475.8448, 4.036697
476.3270, 3.344559
476.8091, 2.007080
477.2912, 0.5964810
477.7733, 0.5203400
478.2554, 1.695648
478.7375, 2.869110
479.2197, 3.165848
479.7018, 2.854736
480.1839, 2.244553
480.6660, 1.303726
481.1481, 0.3505400
481.6302, 0.6391140
482.1124, 1.464966
482.5945, 1.787659
483.0766, 0.8287810
483.5587, 6.0821999E-02
484.0408, 0.2443850
484.5229, 0.2783510
485.0051, 0.8512880
485.4872, 1.954529
485.9693, 2.649582
486.4514, 2.298843
486.9335, 0.1930080
487.4156, 1.804062
487.8978, 2.136566
488.3799, 1.799149
488.8620, 1.802002
489.3441, 2.404419
489.8262, 2.675308
490.3083, 2.196640
490.7905, 1.137314
491.2726, 0.9314420
491.7547, 1.786835
492.2368, 2.558167
492.7189, 1.887115
493.2010, 8.8287003E-02
493.6832, 0.1888120
494.1653, 1.534546
494.6474, 3.821579
495.1295, 4.976074
495.6116, 5.210632
496.0938, 5.190659
496.5759, 4.792877
497.0580, 4.574249
497.5401, 5.241577
498.0222, 6.682877
498.5044, 8.296295
498.9865, 10.45267
499.4686, 12.21045
499.9507, 12.51048
500.4328, 10.65370
500.9149, 9.496857
501.3971, 10.45805
501.8792, 12.45491
502.3613, 14.22702
502.8434, 15.61935
503.3255, 16.73322
503.8076, 17.25984
504.2898, 17.43146
504.7719, 18.37392
505.2540, 20.47794
505.7361, 22.76956
506.2182, 24.96291
506.7003, 27.11217
507.1825, 28.63657
507.6646, 29.35129
508.1467, 29.83916
508.6288, 30.95300
509.1109, 32.69025
509.5930, 33.77774
510.0752, 34.12286
510.5573, 33.46025
511.0394, 30.67719
511.5215, 26.10577
512.0037, 21.83054
512.4858, 19.16449
512.9679, 17.42035
513.4500, 15.79268
513.9321, 14.24306
514.4142, 12.50998
514.8964, 10.04449
515.3785, 7.449753
515.8606, 5.395081
516.3427, 4.080582
516.8248, 3.206848
517.3069, 2.824036
517.7891, 2.780869
518.2712, 2.797562
518.7533, 3.339493
519.2354, 3.403137
519.7175, 2.306320
520.1996, 8.3511002E-02
520.6818, 1.075104
521.1639, 0.5900570
521.6460, 0.2461090
522.1281, 0.7531890
522.6102, 0.9529420
523.0923, 0.6399690
523.5745, 0.4680940
524.0566, 1.636124
524.5387, 1.545319
525.0208, 0.1977840
525.5029, 0.5885160
525.9850, 0.1137390
526.4672, 1.352936
526.9493, 0.7024840
527.4314, 1.616287
527.9135, 3.577881
528.3956, 3.663818
528.8777, 2.774643
529.3599, 2.130081
529.8420, 1.846100
530.3241, 1.496109
530.8062, 0.3277740
531.2883, 0.8817750
531.7704, 1.206650
532.2526, 0.4832310
532.7347, 1.914368
533.2168, 2.019791
533.6989, 1.376526
534.1810, 1.336868
534.6631, 3.201706
535.1453, 4.540817
535.6274, 4.352646
536.1095, 2.565369
536.5916, 2.037491
537.0737, 3.419205
537.5558, 5.047882
538.0380, 5.720245
538.5201, 5.259888
539.0022, 5.003723
539.4843, 4.912094
539.9664, 5.219620
540.4485, 6.652298
540.9307, 9.098541
541.4128, 11.20638
541.8949, 12.62772
542.3770, 13.26584
542.8591, 12.73317
543.3412, 11.14188
543.8234, 9.253036
544.3055, 7.081314
544.7876, 5.264648
545.2697, 4.405457
545.7518, 4.633636
546.2339, 4.907349
546.7161, 4.908234
547.1982, 4.627182
547.6803, 4.048965
548.1624, 2.863998
548.6445, 1.782562
549.1266, 0.7934880
549.6088, 4.9899998E-03
550.0909, 0.4197240
550.5730, 0.3919370
551.0551, 3.6240000E-02
551.5372, 0.7777100
552.0193, 1.988098
552.5015, 2.603912
552.9836, 2.497284
553.4657, 2.253510
553.9478, 2.053833
554.4299, 1.957382
554.9120, 2.762939
555.3942, 4.636200
555.8763, 6.742569
556.3584, 8.069748
556.8405, 8.860123
557.3226, 9.680847
557.8047, 10.58743
558.2869, 11.80318
558.7690, 13.93492
559.2511, 16.53358
559.7332, 18.49278
560.2154, 18.81255
560.6975, 18.82367
561.1796, 18.88423
561.6617, 19.04491
562.1439, 20.37611
562.6260, 24.13222
563.1081, 28.31578
563.5902, 31.73573
564.0723, 33.47081
564.5544, 36.54077
565.0366, 41.44731
565.5187, 47.12856
566.0008, 51.94557
566.4829, 55.67609
566.9650, 60.43147
567.4471, 66.64067
567.9293, 74.19501
568.4114, 82.81232
568.8935, 92.41791
569.3756, 102.5416
569.8577, 112.8003
570.3398, 123.5026
570.8220, 135.8900
571.3041, 149.9469
571.7862, 161.4536
572.2683, 168.4775
572.7504, 171.0717
573.2325, 169.0270
573.7147, 161.3349
574.1968, 151.6252
574.6789, 139.5753
575.1610, 126.8856
575.6431, 115.5952
576.1252, 105.9173
576.6074, 97.97589
577.0895, 91.58884
577.5716, 86.89243
578.0537, 84.39059
578.5358, 84.50412
579.0179, 85.80673
579.5001, 87.96996
579.9822, 90.91611
580.4643, 93.61754
580.9464, 96.06242
581.4285, 98.21347
581.9106, 100.8991
582.3928, 103.4439
582.8749, 103.4381
583.3570, 100.4332
583.8391, 95.20593
584.3212, 87.47061
584.8033, 78.30640
585.2855, 69.33086
585.7676, 60.49988
586.2497, 52.50342
586.7318, 45.40164
587.2139, 39.31628
587.6960, 34.59601
588.1782, 32.07893
588.6603, 30.19487
589.1424, 28.42462
589.6245, 26.78152
590.1066, 25.60805
590.5887, 25.00053
591.0709, 24.52118
591.5530, 23.75153
592.0351, 22.52757
592.5172, 22.37846
592.9993, 23.58990
593.4814, 25.17697
593.9636, 25.54002
594.4457, 25.03653
594.9278, 25.66537
595.4099, 28.23180
595.8920, 31.61723
596.3741, 34.42232
596.8563, 36.87958
597.3384, 39.57016
597.8205, 43.13358
598.3026, 46.71002
598.7847, 49.63940
599.2668, 51.98866
599.7490, 54.36909
600.2311, 57.36389
600.7132, 60.10602
601.1953, 62.40329
601.6774, 64.77304
602.1595, 64.81219
602.6417, 61.84734
603.1238, 57.32089
603.6059, 52.42188
604.0880, 47.04842
604.5701, 41.67560
605.0522, 36.32593
605.5344, 31.12378
606.0165, 26.42010
606.4986, 22.17525
606.9807, 18.39471
607.4628, 15.20270
607.9449, 12.37912
608.4271, 9.531296
608.9092, 6.812866
609.3913, 4.848022
609.8735, 4.447144
610.3556, 4.508438
610.8377, 4.403992
611.3198, 4.080399
611.8019, 3.477005
612.2841, 2.038010
612.7662, 0.6980590
613.2483, 0.1162720
613.7304, 0.8671570
614.2125, 1.109680
614.6946, 0.4292300
615.1768, 0.4814760
615.6589, 0.7754210
616.1410, 0.3993230
616.6231, 0.3364870
617.1052, 1.613678
617.5873, 2.845108
618.0695, 2.537155
618.5516, 0.9615780
619.0337, 0.3616640
619.5158, 0.5366820
619.9979, 0.2120970
620.4800, 8.1421003E-02
620.9622, 0.1285860
621.4443, 0.2781070
621.9264, 0.9782560
622.4085, 1.392120
622.8906, 0.6875920
623.3727, 1.474762
623.8549, 2.765457
624.3370, 2.018173
624.8191, 0.7723240
625.3012, 4.2679001E-02
625.7833, 0.6397710
626.2654, 0.1669460
626.7476, 1.978226
627.2297, 4.382355
627.7118, 4.903381
628.1939, 3.492035
628.6760, 2.125061
629.1581, 1.105087
629.6403, 0.5976100
630.1224, 1.208069
630.6045, 2.654755
631.0866, 3.867462
631.5687, 4.024750
632.0508, 3.936920
632.5330, 4.476883
633.0151, 5.496307
633.4972, 6.174423
633.9793, 5.343735
634.4614, 4.765930
634.9435, 5.603699
635.4257, 8.346283
635.9078, 10.32176
636.3899, 11.01135
636.8720, 11.38254
637.3541, 12.10880
637.8362, 13.33200
638.3184, 14.25229
638.8005, 14.52861
639.2826, 14.95099
639.7647, 17.04208
640.2468, 20.51215
640.7289, 22.95573
641.2111, 23.48024
641.6932, 23.33842
642.1753, 23.58435
642.6574, 24.30551
643.1395, 25.69908
643.6216, 28.94901
644.1038, 31.89688
644.5859, 33.54883
645.0680, 33.91580
645.5501, 33.17570
646.0322, 30.30551
646.5143, 27.34927
646.9965, 25.07516
647.4786, 23.50789
647.9607, 21.79028
648.4428, 19.61519
648.9249, 17.92458
649.4070, 17.58585
649.8892, 18.58876
650.3713, 18.31386
650.8534, 16.47134
651.3355, 14.46049
651.8176, 14.06371
652.2997, 14.58073
652.7819, 14.41791
653.2640, 13.01474
653.7461, 11.43611
654.2282, 10.49904
654.7103, 9.909637
655.1924, 9.233856
655.6746, 7.427887
656.1567, 6.529343
656.6388, 8.059479
657.1209, 10.90556
657.6030, 11.87974
658.0851, 9.863266
658.5673, 8.025665
659.0494, 7.430542
659.5316, 7.795059
660.0137, 7.210846
660.4958, 5.576324
660.9779, 4.170547
661.4600, 3.978287
661.9421, 4.566681
662.4243, 4.881149
662.9064, 4.893219
663.3885, 4.688736
663.8706, 4.153656
664.3527, 3.534180
664.8348, 3.091736
665.3170, 2.906387
665.7991, 2.726456
666.2812, 2.468613
666.7633, 2.176498
667.2454, 1.870407
667.7275, 1.236908
668.2097, 1.208038
668.6918, 2.221909
669.1739, 3.460373
669.6560, 3.530869
670.1381, 2.313049
670.6202, 1.071564
671.1024, 1.1276000E-02
671.5845, 0.6751710
672.0666, 0.1335300
672.5487, 1.298889
673.0308, 2.319244
673.5129, 1.967072
673.9951, 1.273300
674.4772, 0.9844210
674.9593, 1.062088
675.4414, 1.374680
675.9235, 2.275940
676.4056, 2.996063
676.8878, 3.074890
677.3699, 2.497650
677.8520, 2.023392
678.3341, 1.514694
678.8162, 1.278793
679.2983, 1.585007
679.7805, 2.445648
680.2626, 3.178436
680.7447, 3.892548
681.2268, 4.323212
681.7089, 3.816895
682.1910, 2.727905
682.6732, 2.065918
683.1553, 2.042114
683.6374, 2.089172
684.1195, 1.821243
684.6016, 1.453201
685.0837, 1.169586
685.5659, 0.6382140
686.0480, 0.7353970
686.5301, 2.501724
687.0122, 4.785919
687.4943, 5.636215
687.9764, 4.419022
688.4586, 3.050720
688.9407, 1.576538
689.4228, 0.3111720
689.9049, 0.4059750
690.3870, 1.894791
690.8691, 2.949127
691.3513, 2.565247
691.8334, 1.453079
692.3155, 0.6697240
692.7976, 0.2229920
693.2797, 0.1301730
693.7618, 1.009354
694.2440, 1.757782
694.7261, 1.359009
695.2082, 0.1712490
695.6903, 1.269012
696.1724, 1.205414
696.6545, 0.9428410
697.1367, 1.004013
697.6188, 1.526093
698.1009, 1.250107
698.5830, 0.2129520
699.0651, 1.588348
699.5472, 1.632874
700.0294, 0.5359500
700.5115, 8.0825999E-02
700.9936, 8.7279998E-02
701.4757, 0.2511600
701.9578, 0.7791600
702.4399, 1.434464
702.9221, 2.201782
703.4042, 3.242783
703.8863, 3.916565
704.3684, 3.836609
704.8505, 3.222946
705.3326, 2.332550
705.8148, 5.9509002E-02
706.2969, 0.8876340
706.7790, 0.3155210
707.2611, 2.512665
707.7432, 3.554779
708.2253, 3.262115
708.7075, 3.117111
709.1896, 3.611679
709.6718, 4.308426
710.1539, 4.328461
710.6360, 3.755829
711.1181, 2.919617
711.6002, 1.519028
712.0823, 0.2940220
712.5645, 3.7932999E-02
713.0466, 0.5236510
713.5287, 0.9089510
714.0108, 0.8094790
714.4929, 0.6343990
714.9750, 0.3955080
715.4572, 0.1298520
715.9393, 0.5148930
716.4214, 2.043137
716.9035, 3.172012
717.3856, 2.833679
717.8677, 1.230759
718.3499, 0.7928770
718.8320, 1.539612
719.3141, 2.532745
719.7962, 3.188950
720.2783, 3.577866
720.7604, 3.821823
721.2426, 3.931580
721.7247, 3.853012
722.2068, 3.484451
722.6889, 2.968262
723.1710, 2.355377
723.6531, 1.485275
724.1353, 1.013138
724.6174, 1.105408
725.0995, 1.453766
725.5816, 1.896606
726.0637, 2.505936
726.5458, 2.684235
727.0280, 2.341080
727.5101, 1.694077
727.9922, 0.6083370
728.4743, 0.5780640
728.9564, 0.7399900
729.4385, 0.7306060
729.9207, 2.340225
730.4028, 2.944077
730.8849, 2.828842
731.3670, 2.418152
731.8491, 1.365158
732.3312, 0.5931700
732.8134, 0.4305420
733.2955, 0.6082760
733.7776, 0.7052000
734.2597, 0.6669010
734.7418, 0.7016300
735.2239, 0.8107450
735.7061, 1.069748
736.1882, 1.857819
736.6703, 3.070343
737.1524, 3.875900
737.6345, 3.770370
738.1166, 3.276337
738.5988, 2.889099
739.0809, 2.584381
739.5630, 2.293015
740.0451, 1.682037
740.5272, 1.378815
741.0093, 1.859726
741.4915, 2.969284
741.9736, 3.690613
742.4557, 3.832230
742.9378, 3.947388
743.4199, 4.254990
743.9020, 4.701767
744.3842, 5.016815
744.8663, 5.202209
745.3484, 5.171158
745.8305, 4.319473
746.3126, 3.485718
746.7947, 4.250732
747.2769, 6.453827
747.7590, 8.490875
748.2411, 9.357178
748.7232, 9.913147
749.2053, 10.75598
749.6874, 12.00758
750.1696, 12.77927
750.6517, 12.56439
751.1338, 12.55531
751.6159, 13.59792
752.0980, 15.77138
752.5801, 17.05473
753.0623, 17.35695
753.5444, 17.40709
754.0265, 18.13483
754.5086, 19.09506
754.9907, 19.24023
755.4728, 18.42580
755.9550, 17.72137
756.4371, 18.03447
756.9192, 18.56508
757.4013, 18.80600
757.8835, 18.93553
758.3656, 17.97108
758.8477, 15.16309
759.3298, 12.13947
759.8120, 10.06108
760.2941, 8.994431
760.7762, 8.177185
761.2583, 7.633484
761.7404, 7.425079
762.2225, 7.904755
762.7047, 8.567764
763.1868, 8.193375
763.6689, 6.320267
764.1510, 4.518845
764.6331, 4.104706
765.1152, 4.339035
765.5974, 4.421585
766.0795, 4.193909
766.5616, 3.819733
767.0437, 3.162827
767.5258, 2.485123
768.0079, 2.074219
768.4901, 1.922775
768.9722, 2.057617
769.4543, 2.533875
769.9364, 3.113449
770.4185, 3.629471
770.9006, 4.028885
771.3828, 3.970078
771.8649, 3.031204
772.3470, 2.279556
772.8291, 2.640182
773.3112, 3.511826
773.7933, 4.062744
774.2755, 3.813370
774.7576, 3.651794
775.2397, 3.772232
775.7218, 3.944275
776.2039, 3.654160
776.6860, 2.790436
777.1682, 2.637070
777.6503, 3.752213
778.1324, 5.023605
778.6145, 3.984940
779.0966, 1.665314
779.5787, 0.9114230
780.0609, 3.901611
780.5430, 6.999908
781.0251, 7.754120
781.5072, 7.175156
781.9893, 7.098160
782.4714, 8.425369
782.9536, 9.553741
783.4357, 10.26723
783.9178, 10.70903
784.3999, 11.01921
784.8820, 11.15189
785.3641, 11.97334
785.8463, 13.97699
786.3284, 16.35440
786.8105, 17.67863
787.2926, 18.35959
787.7747, 19.26932
788.2568, 21.25777
788.7390, 23.06451
789.2211, 24.17993
789.7032, 24.64720
790.1853, 24.58020
790.6674, 23.93190
791.1495, 22.82466
791.6317, 21.07925
792.1138, 19.02205
792.5959, 17.67665
793.0780, 17.02916
793.5601, 15.84886
794.0422, 13.25647
794.5244, 10.55196
795.0065, 9.966660
795.4886, 10.68217
795.9707, 10.74657
796.4528, 8.511642
796.9349, 6.346298
797.4171, 5.243149
797.8992, 4.925919
798.3813, 4.628265
798.8634, 4.453217
799.3455, 3.984634
799.8276, 2.946655
800.3098, 1.731354
800.7919, 1.393250
801.2740, 1.848053
801.7561, 2.380325
802.2382, 2.892899
802.7203, 3.109344
803.2025, 2.363693
803.6846, 1.106827
804.1667, 0.3594510
804.6488, 0.6929780
805.1309, 1.365875
805.6130, 2.562576
806.0952, 3.873566
806.5773, 4.405716
807.0594, 3.985596
807.5416, 3.325439
808.0237, 2.517776
808.5058, 1.681183
808.9879, 1.066910
809.4700, 0.6481020
809.9521, 0.3213200
810.4343, 2.1591000E-02
810.9164, 0.1811520
811.3985, 0.1395260
811.8806, 2.8365999E-02
812.3627, 7.5759999E-02
812.8448, 0.5265660
813.3270, 0.6173860
813.8091, 0.3911130
814.2912, 1.796890
814.7733, 1.961990
815.2554, 0.7738650
815.7375, 0.5913540
816.2197, 2.065353
816.7018, 3.131088
817.1839, 2.317688
817.6660, 0.4324190
818.1481, 0.5833890
818.6302, 0.9466860
819.1124, 2.368515
819.5945, 2.276413
820.0766, 1.276169
820.5587, 0.5164950
821.0408, 3.1250000E-02
821.5229, 8.4289998E-02
822.0051, 0.4039150
822.4872, 1.001419
822.9693, 0.5750730
823.4514, 0.7420040
823.9335, 1.470322
824.4156, 1.049973
824.8978, 0.2909240
825.3799, 6.9701999E-02
825.8620, 0.1480100
826.3441, 0.1247710
826.8262, 0.2342220
827.3083, 0.3003080
827.7905, 0.6760710
828.2726, 1.720093
828.7547, 1.505600
829.2368, 0.3002470
829.7189, 2.042130
830.2010, 3.659348
830.6832, 4.725739
831.1653, 4.188828
831.6474, 2.631439
832.1295, 1.689209
832.6116, 1.968964
833.0938, 2.393417
833.5759, 2.081436
834.0580, 1.620453
834.5401, 1.678970
835.0222, 3.275162
835.5043, 3.943756
835.9865, 3.243332
836.4686, 2.176498
836.9507, 1.887573
837.4328, 2.342667
837.9149, 2.591705
838.3970, 2.478333
838.8792, 2.496674
839.3613, 3.525330
839.8434, 4.842499
840.3255, 5.356857
840.8076, 4.653412
841.2897, 4.041824
841.7719, 3.851807
842.2540, 3.993271
842.7361, 4.493362
843.2182, 5.617889
843.7003, 5.858368
844.1824, 4.958939
844.6646, 4.108810
845.1467, 4.621948
845.6288, 5.987885
846.1109, 6.907043
846.5930, 7.270218
847.0751, 7.398621
847.5573, 7.030350
848.0394, 6.861862
848.5215, 7.574722
849.0036, 9.459747
849.4857, 10.82396
849.9678, 11.59138
850.4500, 11.89142
850.9321, 11.53355
851.4142, 10.64206
851.8963, 10.77185
852.3784, 11.90135
852.8605, 13.18163
853.3427, 14.26039
853.8248, 15.00410
854.3069, 14.83142
854.7890, 13.92142
855.2711, 13.98306
855.7532, 16.86418
856.2354, 19.43304
856.7175, 20.38199
857.1996, 19.98109
857.6818, 20.18486
858.1639, 21.00467
858.6460, 22.36644
859.1281, 24.42302
859.6102, 26.87340
860.0923, 29.37447
860.5745, 31.83600
861.0566, 33.86826
861.5387, 34.11954
862.0208, 35.14806
862.5029, 38.61810
862.9850, 43.83727
863.4672, 48.22943
863.9493, 51.11772
864.4314, 55.03503
864.9135, 60.66333
865.3956, 67.57104
865.8777, 75.05148
866.3599, 83.14450
866.8420, 91.44244
867.3241, 99.63251
867.8062, 108.6168
868.2883, 119.0748
868.7704, 130.7926
869.2526, 143.3125
869.7347, 157.8783
870.2168, 171.2023
870.6989, 181.8415
871.1810, 192.2998
871.6631, 205.8491
872.1453, 222.3405
872.6274, 240.3014
873.1095, 259.2999
873.5916, 280.5210
874.0737, 304.5655
874.5558, 331.4965
875.0380, 361.8014
875.5201, 395.4768
876.0022, 432.5388
876.4843, 473.0695
876.9664, 516.6926
877.4485, 564.0290
877.9307, 616.0043
878.4128, 668.3702
878.8949, 722.2079
879.3770, 769.8715
879.8591, 810.8892
880.3412, 838.9566
880.8234, 843.6367
881.3055, 824.3461
881.7876, 787.4636
882.2697, 726.8477
882.7518, 657.3224
883.2339, 583.1461
883.7161, 505.1918
884.1982, 435.5522
884.6803, 374.3291
885.1624, 321.0625
885.6445, 275.8065
886.1266, 238.2436
886.6088, 207.6784
887.0909, 183.5110
887.5730, 163.5393
888.0551, 147.4857
888.5372, 134.1700
889.0193, 123.7940
889.5015, 115.8799
889.9836, 108.2388
890.4657, 100.1361
890.9478, 93.66161
891.4299, 89.24493
891.9120, 86.68002
892.3942, 85.87408
892.8763, 86.53244
893.3584, 87.49878
893.8405, 88.29121
894.3226, 89.76913
894.8047, 92.27527
895.2869, 95.85291
895.7690, 100.6340
896.2511, 107.0229
896.7332, 114.0972
897.2153, 121.8872
897.6974, 130.0173
898.1796, 137.9035
898.6617, 145.7031
899.1438, 153.7684
899.6259, 162.1234
900.1080, 171.6321
900.5901, 182.7249
901.0723, 195.4809
901.5544, 210.2088
902.0365, 226.9112
902.5186, 244.7116
903.0007, 263.7947
903.4828, 283.3133
903.9650, 303.0754
904.4471, 323.1093
904.9292, 344.1389
905.4113, 366.2812
905.8935, 386.3490
906.3756, 403.6767
906.8577, 417.1528
907.3398, 426.4008
907.8220, 430.7772
908.3041, 427.5624
908.7862, 413.2386
909.2683, 394.1180
909.7504, 370.4738
910.2325, 343.5636
910.7147, 315.8418
911.1968, 287.1322
911.6789, 259.9210
912.1610, 235.1202
912.6431, 212.2286
913.1252, 190.3928
913.6074, 170.3014
914.0895, 153.0915
914.5716, 140.4306
915.0537, 128.4917
915.5358, 116.1414
916.0179, 104.6192
916.5001, 94.94849
916.9822, 87.17728
917.4643, 80.53540
917.9464, 75.06137
918.4285, 69.92540
918.9106, 64.09070
919.3928, 58.37213
919.8749, 53.89816
920.3570, 50.82066
920.8391, 47.66537
921.3212, 43.73370
921.8033, 39.90761
922.2855, 36.42812
922.7676, 33.32614
923.2497, 31.32080
923.7318, 30.45590
924.2139, 29.26085
924.6960, 26.47133
925.1782, 23.32307
925.6603, 21.42311
926.1424, 20.49437
926.6245, 19.84036
927.1066, 19.46068
927.5887, 19.09099
928.0709, 18.75653
928.5530, 18.27864
929.0351, 17.22189
929.5172, 15.57216
929.9993, 14.46690
930.4814, 14.27583
930.9636, 14.07826
931.4457, 12.50826
931.9278, 10.41772
932.4099, 9.027069
932.8920, 8.863571
933.3741, 8.590210
933.8563, 7.870728
934.3384, 6.974503
934.8205, 6.250778
935.3026, 5.706238
935.7847, 5.124374
936.2668, 4.491592
936.7490, 4.017334
937.2311, 4.128525
937.7132, 4.296036
938.1953, 3.643890
938.6774, 2.346741
939.1595, 1.642975
939.6417, 2.660065
940.1238, 3.403839
940.6059, 3.237610
941.0880, 2.492966
941.5701, 2.182510
942.0522, 2.294724
942.5344, 2.273682
943.0165, 1.902740
943.4986, 1.425552
943.9807, 0.9219670
944.4628, 0.5507810
944.9449, 0.5838780
945.4271, 1.870667
945.9092, 2.186905
946.3913, 0.8942870
946.8734, 0.7664950
947.3555, 1.604279
947.8376, 1.670303
948.3198, 1.923157
948.8019, 2.427216
949.2840, 2.649979
949.7661, 1.659012
950.2482, 0.5413060
950.7303, 0.5096740
951.2125, 1.618790
951.6946, 2.057556
952.1767, 1.085403
952.6588, 0.3575130
953.1409, 0.5887600
953.6230, 1.392914
954.1052, 1.295593
954.5873, 0.4804230
955.0695, 0.1403810
955.5516, 1.357880
956.0337, 2.392334
956.5158, 1.353531
956.9979, 0.5797270
957.4800, 1.450165
957.9622, 0.2159420
958.4443, 0.5445710
958.9264, 0.7240300
959.4085, 0.3953860
959.8906, 0.6156160
960.3727, 2.083466
960.8549, 3.156540
961.3370, 3.755768
961.8191, 4.127106
962.3012, 4.908936
962.7833, 5.145370
963.2654, 3.492950
963.7476, 8.2122996E-02
964.2297, 1.116074
964.7118, 1.104355
965.1939, 3.512848
965.6760, 4.903641
966.1581, 5.529739
966.6403, 5.604279
967.1224, 5.384750
967.6045, 5.635864
968.0866, 7.245590
968.5687, 8.743057
969.0508, 9.377853
969.5330, 9.705185
970.0151, 10.53596
970.4972, 12.00208
970.9793, 13.32664
971.4614, 14.46706
971.9435, 15.28952
972.4257, 15.58322
972.9078, 15.49159
973.3899, 15.28952
973.8720, 15.01711
974.3541, 14.27435
974.8362, 12.28368
975.3184, 10.43195
975.8005, 9.356796
976.2826, 8.948730
976.7647, 8.758743
977.2468, 8.780624
977.7289, 8.180679
978.2111, 6.028244
978.6932, 3.754471
979.1753, 3.127197
979.6574, 3.483032
980.1395, 3.562866
980.6216, 2.642609
981.1038, 2.024017
981.5859, 1.916504
982.0680, 1.969360
982.5501, 1.843124
983.0322, 1.530060
983.5143, 0.8693700
983.9965, 0.1675870
984.4786, 1.060089
984.9607, 1.511307
985.4428, 1.591080
985.9249, 1.216858
986.4070, 0.3811650
986.8892, 0.1263580
987.3713, 7.0770003E-02
987.8534, 0.3154600
988.3355, 1.301941
988.8176, 2.673035
989.2997, 4.106613
989.7819, 5.265762
990.2640, 5.044983
990.7461, 1.282715
991.2282, 1.330826
991.7103, 0.1985170
992.1924, 3.303864
992.6746, 5.033401
993.1567, 5.216949
993.6388, 4.833832
994.1209, 3.820847
994.6030, 2.907440
995.0851, 3.057938
995.5673, 3.542435
996.0494, 3.173767
996.5315, 1.976700
997.0136, 1.303284
997.4957, 1.840393
997.9778, 2.723877
998.4600, 3.819412
998.9421, 4.992706
999.4242, 5.836288
999.9063, 6.352890
1000.388, 6.644547
1000.871, 6.730194
1001.353, 6.607452
1001.835, 5.975189
1002.317, 5.274338
1002.799, 5.014084
1003.281, 5.120514
1003.763, 6.295502
1004.245, 9.062469
1004.728, 11.55070
1005.210, 12.00298
1005.692, 11.21587
1006.174, 11.59557
1006.656, 13.01401
1007.138, 14.34026
1007.620, 14.61075
1008.102, 15.20926
1008.584, 16.84464
1009.067, 19.13861
1009.549, 21.54846
1010.031, 24.27341
1010.513, 26.41867
1010.995, 27.52853
1011.477, 28.67802
1011.959, 31.32162
1012.441, 34.90669
1012.924, 38.57668
1013.406, 42.01968
1013.888, 45.77032
1014.370, 50.16953
1014.852, 54.84503
1015.334, 59.48122
1015.816, 64.09735
1016.298, 69.04201
1016.780, 74.35898
1017.263, 80.45175
1017.745, 87.75150
1018.227, 95.67128
1018.709, 104.6277
1019.191, 113.6594
1019.673, 120.9017
1020.155, 125.9267
1020.637, 130.5863
1021.120, 135.3761
1021.602, 138.6968
1022.084, 138.7761
1022.566, 136.3425
1023.048, 132.0918
1023.530, 126.1104
1024.012, 119.1054
1024.494, 110.8231
1024.976, 102.1741
1025.458, 93.08028
1025.941, 83.99062
1026.423, 77.19977
1026.905, 72.57625
1027.387, 68.26987
1027.869, 63.67218
1028.351, 59.17944
1028.833, 54.83340
1029.316, 50.98390
1029.798, 48.12523
1030.280, 47.08655
1030.762, 45.01636
1031.244, 41.25175
1031.726, 38.15930
1032.208, 38.30359
1032.690, 40.29630
1033.172, 40.20346
1033.655, 38.31076
1034.137, 36.47626
1034.619, 34.68776
1035.101, 34.27408
1035.583, 36.82800
1036.065, 40.52753
1036.547, 41.86435
1037.029, 40.73685
1037.511, 40.06317
1037.994, 40.34621
1038.476, 41.02853
1038.958, 41.57085
1039.440, 42.20349
1039.922, 43.06499
1040.404, 44.15610
1040.886, 46.00912
1041.368, 49.08884
1041.851, 51.84598
1042.333, 53.16998
1042.815, 54.12762
1043.297, 57.71465
1043.779, 63.31226
1044.261, 68.85889
1044.743, 73.06029
1045.225, 77.74686
1045.708, 84.19637
1046.190, 91.03525
1046.672, 96.61942
1047.154, 100.6305
1047.636, 106.8346
1048.118, 115.4445
1048.600, 125.0951
1049.082, 134.8105
1049.564, 145.0997
1050.047, 156.2246
1050.529, 168.1596
1051.011, 180.0211
1051.493, 190.7302
1051.975, 203.2929
1052.457, 218.5715
1052.939, 235.4593
1053.421, 252.2767
1053.903, 269.2353
1054.386, 288.0200
1054.868, 309.1900
1055.350, 329.0330
1055.832, 345.3577
1056.314, 360.3997
1056.796, 376.4431
1057.278, 392.6976
1057.760, 402.5457
1058.243, 406.0998
1058.725, 403.9672
1059.207, 395.7515
1059.689, 382.8512
1060.171, 365.0718
1060.653, 343.8918
1061.135, 321.1748
1061.617, 296.7647
1062.099, 272.0917
1062.582, 246.6407
1063.064, 222.3716
1063.546, 200.4835
1064.028, 180.7529
1064.510, 162.7517
1064.992, 146.5259
1065.474, 132.0310
1065.956, 119.4500
1066.438, 108.3222
1066.921, 98.70264
1067.403, 90.15210
1067.885, 81.66913
1068.367, 73.28883
1068.849, 66.01840
1069.331, 59.92847
1069.813, 54.61507
1070.295, 49.76833
1070.778, 45.48318
1071.260, 41.98044
1071.742, 39.18625
1072.224, 36.83130
1072.706, 35.03107
1073.188, 32.91684
1073.670, 29.92372
1074.152, 26.89912
1074.635, 25.10492
1075.117, 24.00848
1075.599, 22.75989
1076.081, 20.93135
1076.563, 19.78539
1077.045, 19.60594
1077.527, 19.31818
1078.009, 18.18909
1078.491, 16.43910
1078.974, 14.69170
1079.456, 13.03920
1079.938, 11.94164
1080.420, 12.17310
1080.902, 12.33127
1081.384, 11.72388
1081.866, 10.81839
1082.348, 10.24982
1082.831, 10.05197
1083.313, 9.254150
1083.795, 7.754120
1084.277, 6.346771
1084.759, 5.657867
1085.241, 5.403229
1085.723, 5.651001
1086.205, 6.234344
1086.688, 5.920074
1087.170, 4.328705
1087.652, 3.010101
1088.134, 2.284088
1088.616, 2.098389
1089.098, 2.748871
1089.580, 3.747345
1090.062, 4.282806
1090.544, 4.151917
1091.026, 3.848053
1091.509, 3.544037
1091.991, 2.983490
1092.473, 1.761322
1092.955, 0.3015440
1093.437, 0.4639590
1093.919, 1.842377
1094.401, 2.717834
1094.883, 2.138550
1095.366, 1.391754
1095.848, 0.7595210
1096.330, 0.4592590
1096.812, 0.8025210
1097.294, 1.901428
1097.776, 2.394714
1098.258, 2.270996
1098.740, 2.172028
1099.223, 2.744904
1099.705, 3.381378
1100.187, 3.464355
1100.669, 3.197327
1101.151, 2.519684
1101.633, 1.224030
1102.115, 0.9682620
1102.597, 1.928772
1103.079, 3.057129
1103.562, 3.221069
1104.044, 2.692352
1104.526, 1.620209
1105.008, 9.3506001E-02
1105.490, 1.013641
1105.972, 1.238129
1106.454, 1.385468
1106.936, 1.642517
1107.418, 1.921570
1107.901, 2.352036
1108.383, 2.651184
1108.865, 1.779022
1109.347, 0.7207950
1109.829, 2.827759
1110.311, 3.634338
1110.793, 3.762909
1111.275, 3.349854
1111.758, 2.562195
1112.240, 2.580536
1112.722, 3.280853
1113.204, 3.475189
1113.686, 2.504303
1114.168, 1.316101
1114.650, 0.3751830
1115.132, 0.3021850
1115.615, 0.7867740
1116.097, 1.182587
1116.579, 0.4362180
1117.061, 1.580292
1117.543, 3.014709
1118.025, 1.981384
1118.507, 0.3155820
1118.989, 0.2323000
1119.471, 8.9690998E-02
1119.953, 0.8235470
1120.436, 2.452545
1120.918, 3.105103
1121.400, 2.515442
1121.882, 1.532532
1122.364, 0.6895750
1122.846, 0.1292110
1123.328, 0.1796260
1123.810, 0.7773440
1124.293, 1.457886
1124.775, 2.591919
1125.257, 3.007294
1125.739, 2.217316
1126.221, 1.084808
1126.703, 1.137299
1127.185, 1.916656
1127.667, 1.848816
1128.150, 0.7064510
1128.632, 4.3823000E-02
1129.114, 0.9753110
1129.596, 2.198151
1130.078, 3.507111
1130.560, 4.527008
1131.042, 3.596069
1131.524, 1.103455
1132.006, 0.2915950
1132.489, 0.3766480
1132.971, 1.003448
1133.453, 0.7474370
1133.935, 2.320862
1134.417, 1.330597
1134.899, 2.038483
1135.381, 3.224457
1135.863, 2.243256
1136.346, 1.660583
1136.828, 2.967804
1137.310, 4.353516
1137.792, 3.695496
1138.274, 2.368286
1138.756, 2.448792
1139.238, 4.733704
1139.720, 4.897095
1140.203, 2.582886
1140.685, 0.7026370
1141.167, 1.891663
1141.649, 3.886230
1142.131, 3.540405
1142.613, 1.886444
1143.095, 1.114441
1143.577, 2.126678
1144.059, 3.079498
1144.542, 3.842407
1145.024, 4.748016
1145.506, 6.876465
1145.988, 8.968018
1146.470, 8.476624
1146.952, 5.879181
1147.434, 3.490021
1147.916, 1.777710
1148.398, 0.6081240
1148.881, 4.4280998E-02
1149.363, 6.1066002E-02
1149.845, 0.2608950
1150.327, 0.8586120
1150.809, 1.422485
1151.291, 1.911957
1151.773, 2.198700
1152.255, 1.737640
1152.738, 1.717346
1153.220, 2.583801
1153.702, 3.963287
1154.184, 5.542236
1154.666, 7.044189
1155.148, 7.229523
1155.630, 5.826721
1156.112, 4.010010
1156.594, 1.260101
1157.077, 0.4410100
1157.559, 0.3569030
1158.041, 1.122650
1158.523, 2.200592
1159.005, 0.4654850
1159.487, 1.344147
1159.969, 1.187653
1160.451, 3.743317
1160.933, 3.956055
1161.416, 3.417847
1161.898, 3.395935
1162.380, 3.812653
1162.862, 3.146759
1163.344, 1.462494
1163.826, 0.7612920
1164.308, 2.335785
1164.790, 4.142303
1165.273, 4.830994
1165.755, 4.723602
1166.237, 4.079865
1166.719, 2.902466
1167.201, 2.148224
1167.683, 1.748138
1168.165, 1.676483
1168.647, 2.053467
1169.130, 2.573456
1169.612, 3.043304
1170.094, 3.429626
1170.576, 3.667053
1171.058, 3.741943
1171.540, 3.645294
1172.022, 3.369110
1172.504, 3.055145
1172.986, 2.885254
1173.469, 2.632874
1173.951, 1.663696
1174.433, 0.5378110
1174.915, 0.6010130
1175.397, 2.533600
1175.879, 3.930878
1176.361, 4.697968
1176.843, 4.845612
1177.326, 4.120026
1177.808, 3.010406
1178.290, 1.819580
1178.772, 0.7613530
1179.254, 0.6384890
1179.736, 2.111938
1180.218, 2.952240
1180.700, 2.850159
1181.182, 2.414673
1181.665, 2.042053
1182.147, 1.790710
1182.629, 1.959564
1183.111, 2.531189
1183.593, 3.318695
1184.075, 4.773254
1184.557, 5.341736
1185.039, 4.582153
1185.521, 3.349609
1186.004, 2.537689
1186.486, 2.164459
1186.968, 2.544769
1187.450, 3.633575
1187.932, 3.956360
1188.414, 2.641632
1188.896, 1.694702
1189.378, 1.681488
1189.861, 2.040253
1190.343, 1.835876
1190.825, 1.399750
1191.307, 1.405365
1191.789, 1.947235
1192.271, 2.415802
1192.753, 2.748932
1193.235, 2.763123
1193.718, 2.250061
1194.200, 1.667603
1194.682, 2.266541
1195.164, 3.331177
1195.646, 3.145142
1196.128, 1.021210
1196.610, 0.1823120
1197.092, 0.7794190
1197.574, 1.603149
1198.057, 1.232727
1198.539, 0.3373410
1199.021, 0.4090580
1199.503, 1.154175
1199.985, 1.976013
1200.467, 2.849091
1200.949, 3.336243
1201.431, 3.493103
1201.913, 3.054321
1202.396, 1.489899
1202.878, 0.4633180
1203.360, 0.7215880
1203.842, 0.1610110
1204.324, 0.6999210
1204.806, 0.1004030
1205.288, 0.1784670
1205.770, 1.659607
1206.253, 3.109375
1206.735, 3.651459
1207.217, 3.578796
1207.699, 3.738281
1208.181, 3.992188
1208.663, 3.983276
1209.145, 3.421783
1209.627, 2.917114
1210.109, 2.569244
1210.592, 2.354828
1211.074, 2.108032
1211.556, 1.884735
1212.038, 2.131256
1212.520, 2.660980
1213.002, 2.898041
1213.484, 2.252319
1213.966, 1.924042
1214.448, 2.084198
1214.931, 2.435944
1215.413, 3.310669
1215.895, 4.074646
1216.377, 2.992950
1216.859, 0.5716550
1217.341, 1.081085
1217.823, 0.6161800
1218.305, 0.3095090
1218.788, 1.972778
1219.270, 3.154175
1219.752, 2.310150
1220.234, 0.3807370
1220.716, 0.3533020
1221.198, 5.3344999E-02
1221.680, 0.5780940
1222.162, 1.705170
1222.645, 2.561981
1223.127, 3.115997
1223.609, 3.357758
1224.091, 3.174591
1224.573, 2.722473
1225.055, 2.293793
1225.537, 1.898499
1226.019, 1.525665
1226.501, 1.176575
1226.984, 0.8272400
1227.466, 0.4068300
1227.948, 0.1654050
1228.430, 0.5003360
1228.912, 1.113251
1229.394, 1.442108
1229.876, 1.533051
1230.358, 1.709137
1230.841, 2.252655
1231.323, 2.461548
1231.805, 2.195801
1232.287, 1.802948
1232.769, 1.594666
1233.251, 1.544861
1233.733, 1.769653
1234.215, 2.146729
1234.698, 2.062286
1235.180, 1.130768
1235.662, 0.4214780
1236.144, 2.2580000E-03
1236.626, 1.8036000E-02
1237.108, 1.331238
1237.590, 2.733002
1238.072, 2.145081
1238.554, 6.5246999E-02
1239.036, 0.3813480
1239.519, 1.716034
1240.001, 3.167358
1240.483, 3.574615
1240.965, 3.527344
1241.447, 3.665863
1241.929, 3.631958
1242.411, 2.818665
1242.893, 1.426483
1243.376, 0.5120240
1243.858, 8.9233004E-02
1244.340, 0.2856450
1244.822, 1.188324
1245.304, 2.207458
1245.786, 3.259491
1246.268, 3.830841
1246.750, 3.148132
1247.233, 1.574890
1247.715, 0.7544860
1248.197, 0.7309880
1248.679, 1.124481
1249.161, 1.936035
1249.643, 2.594604
1250.125, 2.114105
1250.607, 1.758606
1251.089, 2.813751
1251.572, 2.205292
1252.054, 4.521149
1252.536, 2.619019
1253.018, 1.994598
1253.500, 3.202393
1253.982, 4.259644
1254.464, 2.996796
1254.946, 1.609009
1255.428, 1.464203
1255.911, 2.027008
1256.393, 2.226959
1256.875, 2.098053
1257.357, 2.098022
1257.839, 2.305695
1258.321, 2.266693
1258.803, 1.098999
1259.285, 0.3859860
1259.768, 0.9488830
1260.250, 1.968109
1260.732, 2.378418
1261.214, 2.448883
1261.696, 2.830200
1262.178, 3.541748
1262.660, 3.934998
1263.142, 3.104004
1263.625, 2.335358
1264.107, 1.934509
1264.589, 1.854340
1265.071, 2.208618
1265.553, 2.740601
1266.035, 3.039551
1266.517, 3.030243
1266.999, 2.471954
1267.481, 0.4137570
1267.964, 0.7478940
1268.446, 0.4555360
1268.928, 0.7966610
1269.410, 3.088318
1269.892, 5.339386
1270.374, 5.759949
1270.856, 4.173676
1271.338, 2.913483
1271.820, 2.515167
1272.303, 2.227264
1272.785, 1.877014
1273.267, 1.761383
1273.749, 2.658325
1274.231, 3.883514
1274.713, 4.359253
1275.195, 4.082397
1275.677, 3.864746
1276.160, 3.801270
1276.642, 4.038544
1277.124, 4.635834
1277.606, 5.060822
1278.088, 4.379425
1278.570, 3.677673
1279.052, 4.080994
1279.534, 5.130127
1280.016, 5.292847
1280.499, 4.533264
1280.981, 3.828003
1281.463, 3.263031
1281.945, 3.021820
1282.427, 3.510376
1282.909, 3.782166
1283.391, 2.884064
1283.873, 1.657227
1284.356, 2.013428
1284.838, 3.588837
1285.320, 3.956726
1285.802, 2.593597
1286.284, 1.662628
1286.766, 1.650208
1287.248, 1.753448
1287.730, 1.726593
1288.213, 1.655365
1288.695, 1.779541
1289.177, 1.983734
1289.659, 1.950745
1290.141, 2.119965
1290.623, 2.312836
1291.105, 2.243713
1291.587, 2.311554
1292.069, 2.481506
1292.552, 2.223816
1293.034, 2.179352
1293.516, 2.084259
1293.998, 1.322327
1294.480, 1.323212
1294.962, 1.166809
1295.444, 0.6559750
1295.926, 0.9379270
1296.408, 0.2373660
1296.891, 0.3045650
1297.373, 0.4319760
1297.855, 1.740540
1298.337, 3.688690
1298.819, 5.512085
1299.301, 5.094666
1299.783, 2.048523
1300.265, 0.1591800
1300.748, 0.9342960
1301.230, 1.792572
1301.712, 1.827850
1302.194, 1.224182
1302.676, 0.0000000E+00
##END=



