##NAMES=Eudidymite
##RRUFFID=R060063
##IDEAL CHEMISTRY=Na_2_Be_2_Si_6_O_15_&#183;H_2_O
##LOCALITY=Langesundfjord, Norway
##OWNER=RRUFF
##SOURCE=University of Arizona Mineral Museum
##DESCRIPTION=Colorless crystal fragment
##STATUS=The identification of this mineral has been confirmed by X-ray diffraction and chemical analysis
##URL=rruff.info/R060063
##MEASURED CHEMISTRY=Na_1.00_Be_1.00_Si_3.00_O_7_(OH)
114.0754, 0.0000000E+00
114.5575, 0.1251450
115.0396, 5.3790002E-03
115.5217, 0.8962020
116.0038, 2.246918
116.4859, 3.940857
116.9681, 5.858330
117.4502, 7.838303
117.9323, 9.542938
118.4144, 11.34825
118.8965, 13.54134
119.3786, 16.48019
119.8608, 19.55679
120.3429, 22.30191
120.8250, 24.78111
121.3071, 27.59486
121.7892, 30.71248
122.2713, 34.45750
122.7535, 39.23400
123.2356, 45.95016
123.7177, 53.37308
124.1998, 60.13722
124.6819, 66.21703
125.1640, 72.75748
125.6462, 80.35349
126.1283, 89.15440
126.6104, 99.44692
127.0925, 112.3935
127.5746, 126.6609
128.0567, 140.7240
128.5389, 154.9108
129.0210, 167.1322
129.5031, 175.5567
129.9852, 180.1358
130.4673, 180.3597
130.9494, 175.1038
131.4316, 164.9102
131.9137, 151.4395
132.3958, 134.4921
132.8779, 117.9006
133.3600, 104.4236
133.8421, 93.56622
134.3243, 84.10266
134.8064, 75.53722
135.2885, 67.97208
135.7706, 62.41324
136.2527, 59.23001
136.7348, 57.59261
137.2169, 56.29807
137.6991, 55.01830
138.1812, 53.35350
138.6633, 51.23142
139.1454, 48.50869
139.6275, 45.80405
140.1096, 43.43084
140.5918, 41.19106
141.0739, 37.78505
141.5560, 32.82586
142.0381, 27.52068
142.5202, 22.79243
143.0023, 18.70374
143.4845, 15.07944
143.9666, 11.85146
144.4487, 8.980980
144.9308, 7.016815
145.4129, 6.436951
145.8951, 6.274117
146.3772, 5.408195
146.8593, 3.053886
147.3414, 1.285606
147.8235, 0.7541280
148.3056, 1.815506
148.7878, 2.284378
149.2699, 1.910591
149.7520, 1.058128
150.2341, 0.2095490
150.7162, 0.8642500
151.1983, 1.718620
151.6805, 2.258682
152.1626, 2.469872
152.6447, 2.408035
153.1268, 1.839783
153.6089, 1.037018
154.0910, 0.4487530
154.5732, 0.2275240
155.0553, 0.1081850
155.5374, 9.5440000E-03
156.0195, 0.2284770
156.5016, 0.2536540
156.9837, 0.1132050
157.4659, 0.6994630
157.9480, 1.143272
158.4301, 1.209084
158.9122, 1.229813
159.3943, 1.388283
159.8764, 1.933495
160.3586, 2.252159
160.8407, 2.056381
161.3228, 1.493622
161.8049, 0.9721150
162.2870, 0.7587970
162.7691, 0.5539400
163.2512, 0.1536030
163.7334, 0.6166000
164.2155, 1.414803
164.6976, 2.142433
165.1797, 2.791992
165.6618, 3.340324
166.1439, 3.596848
166.6261, 3.823288
167.1082, 4.246834
167.5903, 5.022461
168.0724, 5.916023
168.5545, 6.851761
169.0366, 7.815498
169.5188, 8.710686
170.0009, 9.275696
170.4830, 9.803322
170.9651, 10.65237
171.4472, 12.14111
171.9293, 13.85322
172.4115, 15.49479
172.8936, 17.06902
173.3757, 18.49710
173.8578, 19.79154
174.3399, 20.87847
174.8220, 21.65840
175.3042, 22.12984
175.7863, 22.25241
176.2684, 21.82903
176.7505, 20.86758
177.2326, 19.89542
177.7147, 19.41188
178.1969, 19.25512
178.6790, 19.08905
179.1611, 18.59646
179.6432, 18.07699
180.1253, 18.02494
180.6074, 18.45618
181.0896, 19.07719
181.5717, 19.64867
182.0538, 20.18005
182.5359, 20.72427
183.0180, 21.37108
183.5001, 22.02873
183.9823, 22.33972
184.4644, 22.22501
184.9465, 22.29816
185.4286, 23.46902
185.9107, 25.55822
186.3928, 27.57478
186.8750, 28.96899
187.3571, 29.93657
187.8392, 31.16650
188.3213, 32.71403
188.8034, 34.27466
189.2855, 35.48559
189.7677, 36.34847
190.2498, 36.91013
190.7319, 37.07352
191.2140, 36.90789
191.6961, 36.80763
192.1782, 36.81780
192.6603, 36.79223
193.1425, 36.62840
193.6246, 36.32832
194.1067, 35.59415
194.5888, 34.03694
195.0709, 31.76423
195.5530, 29.92524
196.0352, 28.61897
196.5173, 27.56686
196.9994, 26.31625
197.4815, 24.85720
197.9636, 23.32896
198.4457, 21.69114
198.9279, 19.94124
199.4100, 18.51206
199.8921, 17.46619
200.3742, 16.64009
200.8563, 15.61574
201.3384, 14.28119
201.8206, 13.36040
202.3027, 13.42410
202.7848, 14.58373
203.2669, 15.23045
203.7490, 15.16192
204.2311, 14.76218
204.7133, 14.83769
205.1954, 15.45554
205.6775, 16.18247
206.1596, 16.93662
206.6417, 17.75329
207.1238, 18.13844
207.6060, 17.91124
208.0881, 17.37252
208.5702, 17.30100
209.0523, 17.96255
209.5344, 18.34956
210.0165, 17.78952
210.4987, 15.96155
210.9808, 14.85530
211.4629, 14.69353
211.9450, 15.15454
212.4271, 15.45984
212.9092, 15.41692
213.3914, 15.67085
213.8735, 16.64882
214.3556, 18.57872
214.8377, 20.24191
215.3198, 21.53393
215.8019, 22.56672
216.2841, 23.60483
216.7662, 24.76655
217.2483, 25.70226
217.7304, 26.08650
218.2125, 25.54868
218.6946, 25.75719
219.1767, 27.01640
219.6589, 28.93922
220.1410, 30.66642
220.6231, 32.20460
221.1052, 33.55292
221.5873, 34.66180
222.0694, 35.28229
222.5516, 36.27889
223.0337, 37.72524
223.5158, 39.54458
223.9979, 41.62883
224.4800, 44.04638
224.9621, 46.49098
225.4443, 48.81036
225.9264, 50.92999
226.4085, 53.25481
226.8906, 55.62267
227.3727, 58.10439
227.8548, 61.29138
228.3370, 65.80709
228.8191, 70.13238
229.3012, 73.45533
229.7833, 74.86365
230.2654, 77.58030
230.7475, 82.21060
231.2297, 87.90707
231.7118, 92.81277
232.1939, 96.82655
232.6760, 100.2150
233.1581, 103.2983
233.6402, 106.7052
234.1224, 107.9995
234.6045, 106.9351
235.0866, 103.8397
235.5687, 99.37830
236.0508, 93.14712
236.5329, 86.17062
237.0151, 78.74106
237.4972, 70.54620
237.9793, 62.85173
238.4614, 55.64443
238.9435, 48.88373
239.4256, 42.31277
239.9078, 35.49745
240.3899, 29.69464
240.8720, 25.56046
241.3541, 23.71700
241.8362, 21.36150
242.3183, 18.05705
242.8005, 14.45779
243.2826, 11.68073
243.7647, 10.00793
244.2468, 8.741936
244.7289, 7.738464
245.2110, 7.091263
245.6931, 6.313347
246.1753, 5.326126
246.6574, 4.257690
247.1395, 3.293755
247.6216, 2.433060
248.1037, 1.689842
248.5858, 1.039780
249.0680, 0.4519120
249.5501, 0.1786190
250.0322, 0.4031300
250.5143, 0.7964480
250.9964, 0.8813630
251.4785, 0.4121250
251.9607, 8.6975001E-02
252.4428, 0.1365130
252.9249, 0.6199040
253.4070, 0.9416890
253.8891, 0.9640660
254.3712, 0.9545140
254.8534, 1.306572
255.3355, 2.373894
255.8176, 3.058907
256.2997, 2.970833
256.7818, 2.053596
257.2639, 1.551079
257.7461, 1.621178
258.2282, 1.929008
258.7103, 2.119637
259.1924, 2.127800
259.6745, 2.170380
260.1566, 2.275154
260.6388, 2.444099
261.1209, 2.718109
261.6030, 3.136765
262.0851, 3.609200
262.5672, 4.113586
263.0493, 4.821632
263.5315, 5.072578
264.0136, 4.527290
264.4957, 3.333252
264.9778, 2.894188
265.4599, 3.488914
265.9420, 4.364296
266.4242, 4.909309
266.9063, 5.022972
267.3884, 5.152786
267.8705, 5.334824
268.3526, 5.578651
268.8347, 5.952583
269.3169, 6.478180
269.7990, 7.077110
270.2811, 7.780273
270.7632, 8.688339
271.2453, 9.200287
271.7274, 9.116852
272.2096, 8.648621
272.6917, 8.607216
273.1738, 9.217415
273.6559, 9.597939
274.1380, 9.035271
274.6201, 7.292480
275.1023, 6.154465
275.5844, 5.980682
276.0665, 6.278076
276.5486, 5.796379
277.0307, 4.374084
277.5128, 2.848846
277.9950, 1.618515
278.4771, 0.6919860
278.9592, 2.2209000E-02
279.4413, 0.4768910
279.9234, 0.8062290
280.4055, 1.308693
280.8877, 2.028656
281.3698, 2.611450
281.8519, 2.780701
282.3340, 2.541016
282.8161, 2.706024
283.2982, 3.450989
283.7804, 4.202484
284.2625, 3.888512
284.7446, 2.466087
285.2267, 1.304062
285.7088, 1.114159
286.1909, 1.727692
286.6730, 1.946419
287.1552, 1.738075
287.6373, 1.267372
288.1194, 0.6784740
288.6015, 2.4986001E-02
289.0836, 0.7453770
289.5657, 1.474129
290.0479, 2.193398
290.5300, 2.888824
291.0121, 3.571404
291.4942, 4.080856
291.9763, 3.998550
292.4584, 3.478279
292.9406, 3.468315
293.4227, 4.350037
293.9048, 5.798256
294.3869, 7.098167
294.8690, 8.255188
295.3511, 9.496544
295.8333, 10.94479
296.3154, 12.61941
296.7975, 14.68376
297.2796, 17.25790
297.7617, 20.06867
298.2438, 22.71120
298.7260, 25.17672
299.2081, 27.57996
299.6902, 29.80869
300.1723, 32.02769
300.6544, 34.82022
301.1365, 38.43956
301.6187, 42.12341
302.1008, 44.75627
302.5829, 46.57516
303.0650, 48.57075
303.5471, 51.22399
304.0292, 54.41293
304.5114, 58.02837
304.9935, 62.14404
305.4756, 66.38969
305.9577, 70.63184
306.4398, 74.78558
306.9219, 78.68510
307.4041, 81.91946
307.8862, 85.05966
308.3683, 88.79746
308.8504, 93.14172
309.3325, 97.80958
309.8146, 102.7709
310.2968, 107.8247
310.7789, 112.7355
311.2610, 116.4293
311.7431, 120.6043
312.2252, 126.9253
312.7073, 135.2499
313.1895, 143.5437
313.6716, 150.4910
314.1537, 156.8864
314.6358, 163.4981
315.1179, 171.5737
315.6000, 178.8436
316.0822, 184.8584
316.5643, 189.3203
317.0464, 190.9892
317.5285, 189.1739
318.0106, 184.4558
318.4927, 177.0628
318.9749, 165.8720
319.4570, 153.9073
319.9391, 141.9643
320.4212, 130.0766
320.9033, 118.0404
321.3854, 104.4618
321.8676, 91.76934
322.3497, 81.11503
322.8318, 72.82454
323.3139, 66.01212
323.7960, 61.16272
324.2781, 57.54311
324.7603, 54.00867
325.2424, 50.03433
325.7245, 46.44145
326.2066, 43.47995
326.6887, 41.20219
327.1708, 39.31420
327.6530, 37.90346
328.1351, 36.82516
328.6172, 35.92619
329.0993, 34.87319
329.5814, 34.36852
330.0635, 34.70226
330.5457, 35.84303
331.0278, 36.78493
331.5099, 37.37737
331.9920, 37.89879
332.4741, 38.55051
332.9562, 39.77325
333.4384, 40.41879
333.9205, 40.54830
334.4026, 40.05319
334.8847, 38.41539
335.3668, 34.95584
335.8489, 31.32745
336.3311, 28.30302
336.8132, 26.01275
337.2953, 23.87158
337.7774, 21.95036
338.2595, 20.13078
338.7416, 18.18067
339.2238, 15.95812
339.7059, 14.02826
340.1880, 12.59085
340.6701, 11.62151
341.1522, 11.16986
341.6343, 11.33923
342.1164, 11.85792
342.5985, 12.44998
343.0807, 13.10213
343.5628, 13.69695
344.0449, 14.08212
344.5270, 14.39220
345.0091, 15.20139
345.4912, 16.56464
345.9734, 18.19894
346.4555, 19.76561
346.9376, 21.29219
347.4197, 23.39510
347.9018, 26.27804
348.3839, 29.62767
348.8661, 32.99521
349.3482, 36.37447
349.8303, 39.86813
350.3124, 43.78128
350.7945, 47.87454
351.2766, 51.48469
351.7588, 54.52505
352.2409, 57.39857
352.7230, 60.52517
353.2051, 63.85460
353.6872, 67.40195
354.1693, 71.43693
354.6515, 75.66434
355.1336, 79.55994
355.6157, 83.10171
356.0978, 86.58340
356.5799, 90.10346
357.0620, 93.85265
357.5442, 98.08739
358.0263, 103.0331
358.5084, 108.2574
358.9905, 113.5179
359.4726, 118.8974
359.9547, 124.6303
360.4369, 130.3396
360.9190, 136.5609
361.4011, 143.7462
361.8832, 152.0403
362.3653, 161.2341
362.8474, 171.1927
363.3296, 182.0292
363.8117, 193.9524
364.2938, 208.1542
364.7759, 222.3246
365.2580, 235.7348
365.7401, 248.6143
366.2223, 259.3295
366.7044, 268.6204
367.1865, 275.2178
367.6686, 277.7779
368.1507, 276.4421
368.6328, 270.5766
369.1150, 259.2991
369.5971, 242.5810
370.0792, 223.9058
370.5613, 201.6806
371.0434, 178.9930
371.5255, 157.6433
372.0077, 136.5277
372.4898, 118.4164
372.9719, 103.6031
373.4540, 91.66779
373.9361, 81.37991
374.4182, 73.27937
374.9004, 66.11039
375.3825, 59.34390
375.8646, 52.93564
376.3467, 47.33036
376.8288, 42.57823
377.3109, 38.49995
377.7931, 34.76843
378.2752, 31.35027
378.7573, 28.40556
379.2394, 26.09200
379.7215, 24.31938
380.2036, 22.16054
380.6858, 19.54561
381.1679, 17.05935
381.6500, 15.31206
382.1321, 14.24918
382.6142, 13.39720
383.0963, 12.69918
383.5785, 12.11216
384.0606, 11.57645
384.5427, 11.09378
385.0248, 10.55588
385.5069, 9.786499
385.9890, 8.926773
386.4712, 8.320038
386.9533, 8.000793
387.4354, 7.893547
387.9175, 8.148056
388.3996, 8.565117
388.8817, 8.693275
389.3639, 8.124237
389.8460, 7.300751
390.3281, 6.555183
390.8102, 5.906029
391.2923, 5.495163
391.7744, 5.593575
392.2566, 5.899765
392.7387, 6.081490
393.2208, 5.962868
393.7029, 5.841446
394.1850, 5.887840
394.6671, 6.050697
395.1493, 6.193237
395.6314, 6.321419
396.1135, 6.372124
396.5956, 6.282890
397.0777, 5.994659
397.5598, 5.772614
398.0419, 5.588409
398.5240, 5.532501
399.0062, 5.708969
399.4883, 6.211365
399.9704, 6.864616
400.4525, 7.759560
400.9346, 8.885109
401.4167, 9.680244
401.8989, 9.855492
402.3810, 9.958855
402.8631, 10.32623
403.3452, 11.15727
403.8273, 11.91229
404.3094, 12.83637
404.7916, 13.55155
405.2737, 13.00472
405.7558, 10.65692
406.2379, 8.382980
406.7200, 6.964149
407.2021, 6.447807
407.6843, 5.577072
408.1664, 4.269012
408.6485, 2.839249
409.1306, 1.559593
409.6127, 0.4219280
410.0948, 0.2457960
410.5770, 0.1697240
411.0591, 0.2742920
411.5412, 1.9249000E-02
412.0233, 1.039574
412.5054, 1.970146
412.9875, 2.104935
413.4697, 1.720032
413.9518, 1.562180
414.4339, 1.772057
414.9160, 1.997345
415.3981, 1.656448
415.8802, 1.006752
416.3624, 0.6832500
416.8445, 1.397812
417.3266, 2.318222
417.8087, 2.597404
418.2908, 2.249115
418.7729, 1.805489
419.2551, 1.442108
419.7372, 1.219978
420.2193, 1.238808
420.7014, 1.782318
421.1835, 2.172134
421.6656, 2.035828
422.1478, 1.524445
422.6299, 0.9950100
423.1120, 0.2959440
423.5941, 0.1808320
424.0762, 0.1374970
424.5583, 0.6308290
425.0405, 1.091667
425.5226, 0.9575500
426.0047, 0.5438000
426.4868, 0.1603780
426.9689, 2.0111000E-02
427.4510, 0.4054030
427.9332, 1.145264
428.4153, 2.152771
428.8974, 2.933678
429.3795, 3.357376
429.8616, 3.751312
430.3438, 4.302261
430.8259, 5.080521
431.3080, 5.726135
431.7901, 6.157547
432.2722, 6.568985
432.7543, 7.310043
433.2365, 8.409225
433.7186, 9.524345
434.2007, 10.53081
434.6828, 11.47129
435.1649, 12.50822
435.6470, 13.64338
436.1292, 14.83868
436.6113, 16.17412
437.0934, 17.55469
437.5755, 18.64628
438.0576, 19.32635
438.5397, 19.87974
439.0219, 20.58117
439.5040, 21.43403
439.9861, 22.43110
440.4682, 23.60417
440.9503, 24.90795
441.4324, 26.34532
441.9146, 27.91419
442.3967, 29.45939
442.8788, 30.72377
443.3609, 32.00266
443.8430, 33.56407
444.3251, 35.58170
444.8073, 37.78813
445.2894, 40.43050
445.7715, 43.21658
446.2536, 45.38830
446.7357, 46.07313
447.2178, 46.71450
447.7000, 47.95459
448.1821, 50.06033
448.6642, 51.87212
449.1463, 53.79462
449.6284, 55.13849
450.1105, 55.25729
450.5927, 53.69305
451.0747, 51.70166
451.5569, 49.35452
452.0390, 46.70464
452.5211, 43.81754
453.0032, 40.64108
453.4853, 37.44009
453.9674, 34.40658
454.4496, 31.54163
454.9317, 28.52095
455.4138, 25.24454
455.8959, 22.15350
456.3780, 19.87573
456.8601, 18.34058
457.3423, 17.01322
457.8244, 15.77605
458.3065, 14.62704
458.7886, 13.57807
459.2707, 12.62029
459.7528, 11.80067
460.2350, 11.06627
460.7171, 10.49892
461.1992, 10.19743
461.6813, 10.17602
462.1634, 10.42513
462.6455, 11.10979
463.1277, 12.02641
463.6098, 12.86776
464.0919, 13.39678
464.5740, 13.92958
465.0561, 14.63261
465.5382, 15.48462
466.0204, 16.35098
466.5025, 17.24057
466.9846, 18.10479
467.4667, 18.91714
467.9488, 19.74966
468.4309, 20.37535
468.9131, 20.69727
469.3952, 20.81876
469.8773, 20.84335
470.3594, 20.51733
470.8415, 20.58127
471.3236, 21.31525
471.8058, 22.61820
472.2879, 23.81867
472.7700, 24.96105
473.2521, 25.92374
473.7342, 26.45757
474.2163, 26.48708
474.6985, 26.94468
475.1806, 27.88910
475.6627, 29.26463
476.1448, 31.08582
476.6269, 33.32773
477.1090, 35.74498
477.5912, 38.42032
478.0733, 41.07420
478.5554, 43.35062
479.0375, 45.22888
479.5196, 46.37798
480.0017, 46.37409
480.4839, 45.61742
480.9660, 44.71711
481.4481, 43.88151
481.9302, 42.31362
482.4123, 38.99977
482.8944, 34.69652
483.3766, 30.53260
483.8587, 26.43533
484.3408, 22.97515
484.8229, 20.56408
485.3050, 19.09626
485.7871, 17.72937
486.2693, 16.14444
486.7514, 14.73502
487.2335, 13.68402
487.7156, 12.83896
488.1977, 12.56041
488.6798, 13.12148
489.1620, 14.12083
489.6441, 14.98940
490.1262, 15.61176
490.6083, 16.40162
491.0904, 17.40266
491.5725, 18.57959
492.0547, 19.95605
492.5368, 21.52468
493.0189, 23.42805
493.5010, 25.67236
493.9831, 28.27400
494.4652, 31.48186
494.9474, 35.27585
495.4295, 39.68011
495.9116, 44.94448
496.3937, 50.91531
496.8758, 56.94882
497.3579, 62.70927
497.8401, 68.65633
498.3222, 75.34048
498.8043, 82.69585
499.2864, 90.56820
499.7685, 99.31160
500.2506, 108.2446
500.7328, 116.8346
501.2149, 124.9941
501.6970, 132.7960
502.1791, 139.6216
502.6612, 146.3286
503.1433, 153.7280
503.6255, 162.1871
504.1076, 171.0276
504.5897, 179.9301
505.0718, 189.1837
505.5539, 199.7422
506.0360, 211.9142
506.5181, 225.1746
507.0002, 239.1458
507.4824, 253.7753
507.9645, 269.8495
508.4466, 287.1238
508.9287, 306.2326
509.4108, 328.1726
509.8929, 352.9244
510.3751, 378.1992
510.8572, 404.1703
511.3393, 430.1600
511.8214, 456.1787
512.3035, 481.9869
512.7856, 506.3379
513.2678, 530.7910
513.7499, 552.3846
514.2320, 568.4207
514.7141, 578.4695
515.1962, 579.6531
515.6783, 569.6487
516.1605, 550.0560
516.6426, 521.5989
517.1247, 482.4509
517.6068, 439.7425
518.0889, 392.7072
518.5710, 344.6345
519.0532, 300.8942
519.5353, 262.6190
520.0174, 228.2063
520.4995, 197.1634
520.9816, 169.7101
521.4637, 146.5701
521.9459, 128.7101
522.4280, 113.8304
522.9101, 101.2640
523.3922, 91.20688
523.8743, 82.01978
524.3564, 73.65093
524.8386, 66.12087
525.3207, 59.33751
525.8028, 53.35637
526.2849, 48.67080
526.7670, 45.78661
527.2491, 43.79008
527.7313, 40.92047
528.2134, 37.33866
528.6955, 34.03377
529.1776, 31.81871
529.6597, 30.12466
530.1418, 28.19751
530.6240, 26.04098
531.1061, 23.97135
531.5882, 22.19238
532.0703, 20.63395
532.5524, 19.26349
533.0345, 18.25904
533.5167, 17.12784
533.9988, 15.59404
534.4809, 13.85764
534.9630, 12.26642
535.4451, 10.71910
535.9272, 9.480835
536.4094, 8.739372
536.8915, 8.442848
537.3736, 7.846054
537.8557, 6.843628
538.3378, 5.705711
538.8199, 4.447479
539.3021, 2.968269
539.7842, 2.274193
540.2663, 2.594406
540.7484, 3.075592
541.2305, 2.435516
541.7126, 0.8444600
542.1948, 0.2320020
542.6769, 0.2385710
543.1590, 0.1831590
543.6411, 1.4008000E-02
544.1232, 0.5830150
544.6053, 0.9963070
545.0875, 0.5644070
545.5696, 9.3230000E-03
546.0517, 7.0595004E-02
546.5338, 0.7649380
547.0159, 1.484062
547.4980, 2.147949
547.9802, 2.601814
548.4623, 2.693008
548.9444, 2.088882
549.4265, 1.669365
549.9086, 1.700935
550.3907, 1.947342
550.8729, 2.082916
551.3550, 2.168907
551.8371, 2.033829
552.3192, 1.568741
552.8013, 0.8502270
553.2834, 0.2721630
553.7656, 0.1590420
554.2477, 0.4703900
554.7298, 0.5698850
555.2119, 0.5049130
555.6940, 0.7362520
556.1761, 1.269722
556.6583, 2.075363
557.1404, 3.315598
557.6225, 4.801743
558.1046, 6.038177
558.5867, 6.842834
559.0688, 7.564590
559.5510, 8.427887
560.0331, 9.443977
560.5152, 10.64999
560.9973, 12.11949
561.4794, 13.73553
561.9615, 15.53632
562.4437, 17.47592
562.9258, 19.23289
563.4079, 20.54362
563.8900, 21.82679
564.3721, 23.20103
564.8542, 24.52811
565.3364, 26.49556
565.8185, 29.39285
566.3006, 32.52308
566.7827, 35.07597
567.2648, 36.88058
567.7469, 39.04285
568.2291, 41.78504
568.7112, 44.89397
569.1933, 48.02514
569.6754, 51.17934
570.1575, 54.48067
570.6396, 57.97672
571.1218, 61.65392
571.6039, 65.42854
572.0860, 69.29515
572.5681, 73.47682
573.0502, 78.22868
573.5323, 83.22398
574.0145, 88.45577
574.4966, 94.03858
574.9787, 98.98040
575.4608, 102.9215
575.9429, 105.9819
576.4250, 108.2262
576.9072, 109.7819
577.3893, 110.3325
577.8714, 109.8638
578.3535, 108.3876
578.8356, 105.9099
579.3177, 102.3217
579.7999, 98.00230
580.2820, 92.87104
580.7641, 87.06335
581.2462, 81.24162
581.7283, 75.38356
582.2104, 69.75519
582.6926, 64.62666
583.1747, 59.87801
583.6568, 55.08691
584.1389, 50.14505
584.6210, 45.52167
585.1031, 41.56431
585.5853, 38.25310
586.0674, 35.69561
586.5495, 34.57892
587.0316, 33.25751
587.5137, 30.36881
587.9958, 26.62774
588.4779, 23.54096
588.9600, 22.01347
589.4421, 20.78642
589.9243, 19.50842
590.4064, 18.20763
590.8885, 17.16458
591.3706, 16.46192
591.8527, 15.87417
592.3348, 15.31432
592.8170, 14.78580
593.2991, 14.28342
593.7812, 13.82393
594.2633, 13.31190
594.7454, 12.55338
595.2275, 11.64242
595.7097, 11.02501
596.1918, 10.82121
596.6739, 10.71980
597.1560, 10.38873
597.6381, 9.915207
598.1202, 9.478355
598.6024, 9.086617
599.0845, 8.810020
599.5666, 8.813087
600.0487, 9.004929
600.5308, 9.044830
601.0129, 8.734009
601.4951, 8.242371
601.9772, 7.557571
602.4593, 6.648872
602.9414, 6.147049
603.4235, 6.200089
603.9056, 6.416977
604.3878, 6.586014
604.8699, 6.735718
605.3520, 6.496803
605.8341, 5.763763
606.3162, 4.961540
606.7983, 4.720444
607.2805, 4.914688
607.7626, 4.980019
608.2447, 4.682526
608.7268, 4.344200
609.2089, 4.424522
609.6910, 4.806610
610.1732, 5.149727
610.6553, 5.303711
611.1374, 5.305756
611.6195, 5.065704
612.1016, 4.638329
612.5837, 4.500565
613.0659, 5.310402
613.5480, 5.947853
614.0301, 5.686722
614.5122, 4.140587
614.9943, 3.445686
615.4764, 4.075409
615.9586, 4.958801
616.4407, 5.088699
616.9228, 4.344704
617.4049, 3.832832
617.8870, 3.691544
618.3691, 3.747169
618.8513, 3.777710
619.3334, 3.781776
619.8155, 3.752556
620.2976, 3.697472
620.7797, 3.598900
621.2618, 3.307396
621.7440, 2.938126
622.2261, 2.824745
622.7082, 3.355362
623.1903, 4.003983
623.6724, 4.562675
624.1545, 5.008263
624.6367, 5.170197
625.1188, 4.702797
625.6009, 4.211929
626.0830, 3.977913
626.5651, 4.036919
627.0472, 4.214386
627.5294, 4.516716
628.0115, 4.927979
628.4936, 5.561592
628.9757, 6.428665
629.4578, 6.744904
629.9399, 6.270004
630.4221, 5.589371
630.9042, 5.725754
631.3863, 6.381638
631.8684, 6.612839
632.3505, 5.706444
632.8326, 4.631523
633.3148, 4.277046
633.7969, 4.440437
634.2790, 4.529358
634.7611, 4.345665
635.2432, 4.004379
635.7253, 3.466187
636.2075, 2.731171
636.6896, 2.192627
637.1717, 1.876068
637.6538, 1.733208
638.1359, 1.822861
638.6180, 2.235260
639.1002, 2.214142
639.5823, 1.642418
640.0644, 0.9773030
640.5465, 0.6151050
641.0286, 0.5447620
641.5107, 0.8636860
641.9929, 1.734947
642.4750, 2.413750
642.9571, 1.784698
643.4392, 0.3961410
643.9213, 0.7735060
644.4034, 1.590813
644.8856, 1.820709
645.3677, 0.7983090
645.8498, 0.9136890
646.3319, 1.933960
646.8140, 1.348732
647.2961, 0.6918330
647.7783, 0.3341670
648.2604, 0.2515950
648.7425, 0.2702710
649.2246, 0.4530940
649.7067, 0.5893860
650.1888, 0.5500720
650.6710, 0.3513490
651.1531, 0.2151570
651.6352, 0.1492160
652.1173, 8.6204998E-02
652.5994, 0.1115950
653.0815, 0.3294910
653.5637, 0.3079910
654.0458, 1.8776000E-02
654.5279, 0.3774260
655.0100, 0.6309200
655.4921, 0.7794880
655.9742, 0.8248140
656.4564, 0.7954790
656.9385, 0.6217960
657.4206, 6.7267999E-02
657.9027, 0.5787200
658.3848, 0.8143460
658.8669, 0.3578800
659.3491, 5.0560001E-02
659.8312, 9.7404003E-02
660.3133, 0.3576200
660.7954, 0.4355930
661.2775, 0.3267820
661.7596, 8.9745000E-02
662.2418, 0.3994750
662.7239, 0.9335780
663.2060, 0.9105070
663.6881, 0.4161450
664.1702, 3.1288002E-02
664.6523, 0.3467790
665.1345, 0.7960280
665.6166, 0.8351440
666.0987, 0.3990480
666.5808, 2.1440000E-03
667.0629, 0.2466350
667.5450, 0.3403930
668.0272, 0.2286610
668.5093, 0.2673420
668.9914, 0.5071490
669.4735, 0.2705540
669.9556, 7.0650000E-03
670.4377, 0.3126300
670.9199, 1.273666
671.4020, 1.854774
671.8841, 1.854324
672.3662, 1.603386
672.8483, 1.532852
673.3304, 1.613297
673.8126, 1.761452
674.2947, 1.997841
674.7768, 2.225990
675.2589, 2.330940
675.7410, 2.367439
676.2231, 2.460808
676.7053, 2.799591
677.1874, 3.060280
677.6695, 3.054886
678.1516, 2.826614
678.6337, 2.824646
679.1158, 3.169083
679.5980, 3.645432
680.0801, 4.301949
680.5622, 5.085762
681.0443, 5.211212
681.5264, 4.625084
682.0085, 3.880646
682.4907, 3.226959
682.9728, 2.754013
683.4549, 2.745392
683.9370, 3.231995
684.4191, 3.791687
684.9012, 4.178345
685.3834, 4.469185
685.8655, 4.724426
686.3476, 5.056099
686.8297, 5.333054
687.3118, 5.443428
687.7939, 5.527397
688.2761, 5.725296
688.7582, 6.121918
689.2403, 6.442825
689.7224, 6.628754
690.2045, 6.772881
690.6866, 7.068970
691.1688, 7.511627
691.6509, 7.843231
692.1330, 7.927132
692.6151, 7.980103
693.0972, 8.486458
693.5793, 9.257675
694.0615, 9.734451
694.5436, 9.425804
695.0257, 8.968468
695.5078, 8.771179
695.9899, 8.762611
696.4720, 8.637726
696.9542, 8.059227
697.4363, 7.640533
697.9183, 7.701385
698.4005, 8.195305
698.8826, 8.229645
699.3647, 7.692444
699.8468, 7.016747
700.3289, 6.396141
700.8110, 5.836586
701.2932, 5.424782
701.7753, 5.105927
702.2574, 4.702637
702.7395, 3.996307
703.2216, 3.274269
703.7037, 2.810371
704.1859, 2.569977
704.6680, 2.488739
705.1501, 2.541138
705.6322, 2.728226
706.1143, 3.099640
706.5964, 4.075241
707.0786, 4.434677
707.5607, 3.798958
708.0428, 2.896049
708.5249, 2.535881
709.0070, 2.785820
709.4891, 3.174622
709.9713, 3.724487
710.4534, 4.172897
710.9355, 3.943672
711.4176, 3.280563
711.8997, 2.999504
712.3818, 3.552567
712.8640, 4.209801
713.3461, 4.343262
713.8282, 4.129852
714.3103, 3.892426
714.7924, 3.697441
715.2745, 3.518539
715.7567, 3.319191
716.2388, 3.136803
716.7209, 3.078934
717.2030, 3.243561
717.6851, 3.222786
718.1672, 2.777489
718.6494, 2.090889
719.1315, 1.903015
719.6136, 2.203819
720.0957, 2.484634
720.5778, 2.398033
721.0599, 2.103584
721.5421, 1.746017
722.0242, 1.344963
722.5063, 1.099762
722.9884, 1.270653
723.4705, 1.469200
723.9526, 1.461464
724.4348, 1.206207
724.9169, 0.8554840
725.3990, 0.3278960
725.8811, 0.1412890
726.3632, 0.4428860
726.8453, 0.6097410
727.3275, 0.3956380
727.8096, 0.2777710
728.2917, 0.9297100
728.7738, 0.9814000
729.2559, 0.6617510
729.7380, 0.6373750
730.2202, 1.021927
730.7023, 1.314606
731.1844, 1.024139
731.6665, 0.5129780
732.1486, 0.1489110
732.6307, 3.5957001E-02
733.1129, 1.0056000E-02
733.5950, 0.1931080
734.0771, 0.3559950
734.5592, 0.2169340
735.0413, 0.4623260
735.5234, 0.6093060
736.0056, 2.0096000E-02
736.4877, 0.9029690
736.9698, 1.312553
737.4519, 1.310875
737.9340, 1.199738
738.4161, 1.036911
738.8983, 0.8358990
739.3804, 0.4993130
739.8625, 0.1592710
740.3446, 3.2303002E-02
740.8267, 0.6399840
741.3088, 0.9664380
741.7910, 0.2615660
742.2731, 0.8632810
742.7552, 0.9591450
743.2373, 0.7296520
743.7194, 1.777161
744.2015, 1.475616
744.6837, 0.3821870
745.1658, 4.9706001E-02
745.6479, 0.1493610
746.1300, 0.4077760
746.6121, 0.5003130
747.0942, 0.5140690
747.5764, 0.5174710
748.0585, 0.5345990
748.5406, 0.6403200
749.0227, 0.9912800
749.5048, 1.322273
749.9869, 1.580238
750.4691, 1.732964
750.9512, 1.568634
751.4333, 0.8237380
751.9154, 0.1896130
752.3975, 0.1019670
752.8796, 8.6731002E-02
753.3618, 2.8702000E-02
753.8439, 0.2458340
754.3260, 0.4887540
754.8081, 0.7824020
755.2902, 1.039238
755.7723, 1.005493
756.2545, 0.7353970
756.7366, 0.6408000
757.2187, 1.234550
757.7008, 1.842995
758.1829, 1.969048
758.6650, 1.529182
759.1472, 1.362686
759.6293, 1.695183
760.1114, 2.057785
760.5935, 2.193924
761.0756, 2.099037
761.5577, 2.161949
762.0399, 2.393814
762.5220, 2.687904
763.0041, 3.091721
763.4862, 3.461792
763.9683, 3.379333
764.4504, 2.820107
764.9326, 2.518471
765.4147, 3.230843
765.8968, 4.176712
766.3789, 4.787163
766.8610, 4.917809
767.3431, 4.932213
767.8253, 4.716080
768.3074, 4.560989
768.7895, 4.647675
769.2716, 4.980827
769.7537, 5.629654
770.2358, 6.671921
770.7180, 7.603394
771.2001, 7.679832
771.6822, 7.337959
772.1643, 7.593040
772.6464, 8.671471
773.1285, 9.516556
773.6107, 8.904015
774.0928, 8.055710
774.5749, 8.162605
775.0570, 10.08326
775.5391, 11.39668
776.0212, 11.86223
776.5034, 11.85332
776.9855, 11.58161
777.4676, 11.00237
777.9497, 10.77063
778.4318, 10.99052
778.9139, 11.29736
779.3961, 11.30080
779.8782, 11.09686
780.3603, 10.86568
780.8424, 10.66164
781.3245, 10.42653
781.8066, 10.16055
782.2888, 9.823433
782.7709, 9.365662
783.2530, 8.597954
783.7351, 7.987854
784.2172, 7.579666
784.6993, 7.275017
785.1815, 7.038544
785.6636, 6.893410
786.1457, 6.556900
786.6278, 5.986229
787.1099, 5.239937
787.5920, 4.128159
788.0742, 2.949684
788.5563, 2.247841
789.0384, 2.248291
789.5205, 2.498695
790.0026, 3.113167
790.4847, 3.695457
790.9669, 3.776749
791.4490, 2.934059
791.9311, 2.264359
792.4132, 1.757103
792.8953, 1.443108
793.3774, 1.548576
793.8596, 2.084740
794.3417, 2.355553
794.8238, 2.213257
795.3059, 1.895187
795.7880, 1.511230
796.2701, 1.175743
796.7523, 1.110664
797.2344, 1.621460
797.7165, 1.901688
798.1986, 1.423737
798.6807, 0.6802600
799.1628, 0.2589570
799.6450, 0.2167590
800.1271, 0.3684460
800.6092, 0.8848950
801.0913, 1.471519
801.5734, 1.435127
802.0555, 0.9023510
802.5377, 0.6277540
803.0198, 0.8232730
803.5019, 1.048866
803.9840, 0.6947400
804.4661, 0.1588130
804.9482, 1.2283000E-02
805.4304, 0.7094570
805.9125, 1.267853
806.3946, 1.389816
806.8767, 1.318787
807.3588, 1.214935
807.8409, 0.9440610
808.3230, 1.295952
808.8051, 2.562469
809.2872, 3.876320
809.7693, 3.858124
810.2515, 2.961563
810.7336, 2.594337
811.2157, 3.199715
811.6978, 3.839600
812.1799, 3.687180
812.6620, 3.253395
813.1442, 3.111366
813.6263, 3.595184
814.1084, 4.032936
814.5905, 4.548119
815.0726, 4.852982
815.5547, 4.477600
816.0369, 3.353676
816.5190, 2.831627
817.0011, 3.157776
817.4832, 3.549431
817.9653, 2.974380
818.4474, 1.879776
818.9296, 1.022392
819.4117, 0.5237580
819.8938, 0.3755190
820.3759, 0.9698790
820.8580, 1.685036
821.3401, 1.894234
821.8223, 1.220985
822.3044, 0.9163210
822.7865, 1.138557
823.2686, 1.422020
823.7507, 1.213837
824.2328, 0.6080630
824.7150, 0.1577530
825.1971, 8.5014001E-02
825.6792, 9.5954999E-02
826.1613, 0.3496090
826.6434, 0.9328080
827.1255, 1.287766
827.6077, 1.290863
828.0898, 1.300529
828.5719, 1.511589
829.0540, 1.662987
829.5361, 1.549980
830.0182, 1.087509
830.5004, 0.8965610
830.9825, 1.005249
831.4646, 1.076591
831.9467, 0.7957990
832.4288, 0.3366780
832.9109, 6.4667001E-02
833.3931, 1.1108000E-02
833.8752, 5.4703001E-02
834.3573, 0.2634510
834.8394, 0.4376450
835.3215, 0.4149930
835.8036, 0.1331100
836.2858, 0.1332170
836.7679, 0.4952620
837.2500, 0.6473310
837.7321, 0.2564240
838.2142, 0.5923690
838.6964, 0.8893590
839.1785, 0.6338650
839.6606, 0.3436430
840.1427, 0.4728620
840.6248, 0.7052380
841.1069, 0.6579590
841.5891, 0.3332210
842.0712, 0.1243520
842.5533, 0.2787250
843.0354, 0.4545210
843.5175, 0.5215760
843.9996, 0.4832610
844.4818, 0.3606110
844.9639, 0.1207430
845.4460, 6.5000001E-03
845.9281, 0.1540070
846.4102, 0.4870530
846.8923, 0.7961960
847.3745, 1.066330
847.8566, 1.220169
848.3387, 1.003426
848.8208, 0.8667760
849.3029, 1.174286
849.7850, 1.815384
850.2672, 2.165657
850.7493, 2.140678
851.2314, 1.952232
851.7135, 1.562820
852.1956, 1.116386
852.6777, 1.101997
853.1599, 1.458282
853.6420, 1.775818
854.1241, 1.871239
854.6062, 1.861015
855.0883, 1.764290
855.5704, 1.650040
856.0526, 1.660599
856.5347, 1.982491
857.0168, 2.250450
857.4989, 2.427185
857.9810, 2.508682
858.4631, 2.440895
858.9453, 2.207771
859.4274, 2.101654
859.9095, 2.220139
860.3916, 2.393082
860.8737, 2.406204
861.3558, 2.306526
861.8380, 2.158325
862.3201, 1.847977
862.8022, 1.755173
863.2843, 2.184708
863.7664, 2.824890
864.2485, 3.325417
864.7307, 3.698494
865.2128, 3.888275
865.6949, 3.864136
866.1770, 3.736832
866.6591, 3.615845
867.1412, 3.493813
867.6234, 3.331375
868.1055, 3.116867
868.5876, 2.935905
869.0697, 2.902534
869.5518, 2.889229
870.0339, 2.750603
870.5161, 2.368019
870.9982, 2.306747
871.4803, 2.818108
871.9624, 3.216637
872.4445, 2.842552
872.9266, 1.825485
873.4088, 1.640709
873.8909, 2.269295
874.3730, 2.745697
874.8551, 1.972015
875.3372, 1.037064
875.8193, 1.139420
876.3015, 2.228859
876.7836, 2.783951
877.2657, 1.813194
877.7478, 0.9893720
878.2299, 0.8603520
878.7120, 1.315338
879.1942, 1.774750
879.6763, 2.237381
880.1584, 2.440163
880.6405, 2.029976
881.1226, 1.501038
881.6047, 1.615952
882.0869, 2.161682
882.5690, 2.564865
883.0511, 2.762535
883.5332, 2.590965
884.0153, 1.593155
884.4974, 0.3263780
884.9796, 2.1660000E-02
885.4617, 0.9070660
885.9438, 1.407593
886.4259, 1.154755
886.9080, 0.5283130
887.3901, 0.1361080
887.8723, 0.6811140
888.3544, 0.7800520
888.8365, 0.1440810
889.3186, 0.4932860
889.8007, 0.7929690
890.2828, 0.9900050
890.7650, 1.212341
891.2471, 1.560257
891.7292, 1.709587
892.2113, 1.612167
892.6934, 1.442459
893.1755, 1.402504
893.6577, 1.434036
894.1398, 1.367470
894.6219, 1.171074
895.1040, 0.9157180
895.5861, 0.4559630
896.0682, 0.1235500
896.5504, 0.1913990
897.0325, 0.7325590
897.5146, 1.135544
897.9967, 1.368011
898.4788, 1.593895
898.9609, 1.990425
899.4431, 2.453346
899.9252, 2.366760
900.4073, 1.814659
900.8894, 1.335411
901.3715, 1.409767
901.8536, 1.515076
902.3358, 1.189857
902.8179, 0.5683820
903.3000, 0.2180710
903.7821, 0.2830430
904.2642, 0.4745410
904.7463, 0.8449940
905.2285, 1.214996
905.7106, 1.058258
906.1927, 0.4976730
906.6748, 0.1567920
907.1569, 0.3522870
907.6390, 0.6342470
908.1212, 0.5119780
908.6033, 0.2669450
909.0854, 0.2748340
909.5675, 0.9179760
910.0496, 1.339653
910.5317, 1.470894
911.0139, 1.448433
911.4960, 1.361732
911.9781, 1.222351
912.4602, 1.187836
912.9423, 1.274582
913.4244, 1.366943
913.9066, 1.355186
914.3887, 1.309967
914.8708, 1.276001
915.3529, 1.257347
915.8350, 1.355461
916.3171, 1.644005
916.7993, 1.990700
917.2813, 2.426674
917.7634, 2.885460
918.2455, 2.798531
918.7277, 2.198456
919.2098, 1.699409
919.6919, 1.810097
920.1740, 2.049103
920.6561, 1.859375
921.1382, 1.415176
921.6204, 1.185547
922.1025, 1.590576
922.5846, 1.844360
923.0667, 1.740349
923.5488, 1.494469
924.0309, 1.641426
924.5131, 2.154671
924.9952, 2.174362
925.4773, 1.411530
925.9594, 0.5473480
926.4415, 0.2322920
926.9236, 0.2370680
927.4058, 0.2698590
927.8879, 0.2309340
928.3700, 0.3438870
928.8521, 0.7234190
929.3342, 1.140480
929.8163, 1.501984
930.2985, 1.802971
930.7806, 1.655266
931.2627, 1.050735
931.7448, 0.4024050
932.2269, 0.1359410
932.7090, 0.4651410
933.1912, 0.4220120
933.6733, 3.9673001E-02
934.1554, 0.3597260
934.6375, 0.9182510
935.1196, 1.190987
935.6017, 0.9393620
936.0839, 0.3825990
936.5660, 0.2028270
937.0481, 0.3845140
937.5302, 0.7152940
938.0123, 1.244179
938.4944, 1.671974
938.9766, 1.610062
939.4587, 1.292313
939.9408, 1.075287
940.4229, 1.161606
940.9050, 1.165131
941.3871, 0.9624330
941.8693, 0.8188780
942.3514, 1.191841
942.8335, 1.974884
943.3156, 2.101997
943.7977, 1.469414
944.2798, 0.6661830
944.7620, 0.1644820
945.2441, 0.7035290
945.7262, 0.4021380
946.2083, 0.8525390
946.6904, 1.242401
947.1725, 0.1084520
947.6547, 1.017128
948.1368, 0.3500290
948.6189, 1.313187
949.1010, 1.903313
949.5831, 1.550430
950.0652, 1.016861
950.5474, 0.5424190
951.0295, 0.1531220
951.5116, 0.2332690
951.9937, 0.5009380
952.4758, 0.3868100
952.9579, 0.4226230
953.4401, 1.000626
953.9222, 1.292862
954.4043, 1.300133
954.8864, 0.7132260
955.3685, 0.1758420
955.8506, 0.1146850
956.3328, 1.134048
956.8149, 2.137253
957.2970, 1.628944
957.7791, 0.7511520
958.2612, 0.3735120
958.7433, 0.5928880
959.2255, 0.6678920
959.7076, 0.5724950
960.1897, 0.4014050
960.6718, 0.1086730
961.1539, 0.1729280
961.6360, 2.7953999E-02
962.1182, 0.5497510
962.6003, 0.8196030
963.0824, 7.6637000E-02
963.5645, 0.4350590
964.0466, 5.2574001E-02
964.5287, 1.001541
965.0109, 1.540993
965.4930, 1.631798
965.9751, 1.398674
966.4572, 0.7508620
966.9393, 0.1847080
967.4214, 0.5019760
967.9036, 1.248909
968.3857, 1.671638
968.8678, 1.636322
969.3499, 1.473373
969.8320, 1.077560
970.3141, 0.8200450
970.7963, 0.9995880
971.2784, 1.564598
971.7605, 1.479698
972.2426, 0.7157360
972.7247, 0.2238620
973.2068, 0.7903370
973.6890, 1.672409
974.1711, 1.973419
974.6532, 1.866783
975.1353, 1.775764
975.6174, 2.028351
976.0995, 1.989990
976.5817, 1.390419
977.0638, 0.6759190
977.5459, 0.5769420
978.0280, 1.017517
978.5101, 1.148270
978.9922, 0.8306500
979.4744, 0.4258580
979.9565, 0.1080090
980.4386, 6.0134999E-02
980.9207, 1.6136000E-02
981.4028, 0.2612920
981.8849, 0.7267460
982.3671, 1.526436
982.8492, 2.169327
983.3313, 2.418068
983.8134, 2.349678
984.2955, 2.118011
984.7776, 1.766060
985.2598, 1.455498
985.7419, 1.093513
986.2240, 0.9816970
986.7061, 1.504868
987.1882, 2.284180
987.6703, 2.675270
988.1525, 2.533203
988.6346, 2.486115
989.1167, 2.573860
989.5988, 2.801643
990.0809, 3.358994
990.5630, 3.960785
991.0452, 4.083725
991.5273, 3.687256
992.0094, 3.296104
992.4915, 2.886551
992.9736, 2.772652
993.4557, 3.214317
993.9379, 4.059708
994.4200, 4.356934
994.9021, 4.120865
995.3842, 4.105545
995.8663, 4.760887
996.3484, 5.541382
996.8306, 5.697937
997.3127, 5.602997
997.7948, 5.857475
998.2769, 6.876640
998.7590, 7.905197
999.2411, 9.110924
999.7233, 10.02593
1000.205, 9.979660
1000.688, 9.188011
1001.170, 8.808823
1001.652, 8.882271
1002.134, 9.096695
1002.616, 9.307648
1003.098, 9.475014
1003.580, 9.715446
1004.062, 9.990097
1004.544, 9.835075
1005.027, 9.029419
1005.509, 8.532616
1005.991, 8.810295
1006.473, 9.411110
1006.955, 9.746803
1007.437, 9.826149
1007.919, 9.601578
1008.401, 8.823303
1008.883, 8.338814
1009.366, 8.757927
1009.848, 9.260689
1010.330, 9.291054
1010.812, 8.868790
1011.294, 8.677704
1011.776, 8.714684
1012.258, 8.843285
1012.740, 9.103439
1013.223, 9.314575
1013.705, 9.461205
1014.187, 9.498940
1014.669, 9.056755
1015.151, 7.531082
1015.633, 6.623009
1016.115, 6.795792
1016.597, 7.337425
1017.079, 7.195206
1017.562, 6.503044
1018.044, 5.592209
1018.526, 4.456749
1019.008, 3.694801
1019.490, 4.155128
1019.972, 4.740700
1020.454, 4.621262
1020.936, 3.826866
1021.419, 3.355377
1021.901, 3.307938
1022.383, 3.422485
1022.865, 3.754845
1023.347, 4.010818
1023.829, 3.629112
1024.311, 2.904221
1024.793, 2.393471
1025.275, 2.290100
1025.758, 2.462563
1026.240, 3.141785
1026.722, 3.744286
1027.204, 3.410767
1027.686, 2.378052
1028.168, 2.505577
1028.650, 3.830643
1029.132, 4.865883
1029.615, 4.166466
1030.097, 3.230118
1030.579, 3.109154
1031.061, 3.667397
1031.543, 3.936249
1032.025, 3.824944
1032.507, 3.791214
1032.989, 3.968552
1033.471, 4.213394
1033.953, 4.317123
1034.436, 4.342979
1034.918, 4.398209
1035.400, 4.504852
1035.882, 4.654137
1036.364, 4.892548
1036.846, 5.125252
1037.328, 5.315300
1037.810, 5.456818
1038.293, 5.514671
1038.775, 5.508949
1039.257, 5.493797
1039.739, 5.492966
1040.221, 5.476341
1040.703, 5.270760
1041.185, 5.081886
1041.667, 5.383942
1042.150, 6.580193
1042.632, 6.982277
1043.114, 6.331696
1043.596, 5.366051
1044.078, 4.517876
1044.560, 4.003441
1045.042, 4.349457
1045.524, 5.541245
1046.006, 6.673889
1046.489, 7.848282
1046.971, 8.346199
1047.453, 7.624733
1047.935, 6.299728
1048.417, 6.232140
1048.899, 7.253601
1049.381, 7.971840
1049.863, 8.008324
1050.345, 7.681686
1050.828, 6.897087
1051.310, 6.079803
1051.792, 5.712746
1052.274, 5.889343
1052.756, 6.019661
1053.238, 6.139778
1053.720, 6.044373
1054.202, 5.513557
1054.685, 4.758926
1055.167, 4.083313
1055.649, 3.481155
1056.131, 2.935669
1056.613, 2.402412
1057.095, 2.002686
1057.577, 1.800354
1058.059, 1.664009
1058.542, 1.409271
1059.024, 1.072365
1059.506, 0.8752980
1059.988, 0.8371050
1060.470, 0.9571300
1060.952, 1.501160
1061.434, 1.959335
1061.916, 1.967812
1062.398, 1.601357
1062.880, 1.139290
1063.363, 0.5550840
1063.845, 2.8015001E-02
1064.327, 0.4136890
1064.809, 0.7264480
1065.291, 0.8727870
1065.773, 0.8534090
1066.255, 0.6023480
1066.737, 3.5860001E-03
1067.220, 0.3026430
1067.702, 0.1439060
1068.184, 0.1502530
1068.666, 0.5221020
1069.148, 0.8556820
1069.630, 0.5652770
1070.112, 0.1431050
1070.594, 0.5091400
1071.077, 0.2221220
1071.559, 0.7881320
1072.041, 0.4063340
1072.523, 0.1864700
1073.005, 0.1794590
1073.487, 0.4999540
1073.969, 0.8629070
1074.451, 0.8731770
1074.933, 0.6694720
1075.416, 0.3098680
1075.898, 0.1783910
1076.380, 0.9598080
1076.862, 1.878906
1077.344, 2.259117
1077.826, 1.954491
1078.308, 1.370178
1078.790, 0.4286270
1079.272, 0.3525390
1079.755, 6.0646001E-02
1080.237, 0.8185960
1080.719, 1.452782
1081.201, 1.708855
1081.683, 1.878174
1082.165, 2.140495
1082.647, 2.196793
1083.129, 1.769539
1083.611, 1.149704
1084.094, 1.521332
1084.576, 2.664093
1085.058, 3.383141
1085.540, 3.166306
1086.022, 2.734535
1086.504, 2.187447
1086.986, 1.875175
1087.468, 2.115211
1087.951, 2.939606
1088.433, 4.097878
1088.915, 5.633575
1089.397, 6.872452
1089.879, 7.207756
1090.361, 7.180573
1090.843, 7.186012
1091.325, 7.283951
1091.807, 7.635674
1092.290, 8.657936
1092.772, 9.030373
1093.254, 8.404152
1093.736, 7.877579
1094.218, 8.807213
1094.700, 10.53470
1095.182, 11.73422
1095.664, 12.37893
1096.146, 12.93465
1096.629, 13.52879
1097.111, 14.11256
1097.593, 14.52599
1098.075, 15.05755
1098.557, 16.45986
1099.039, 18.54001
1099.521, 20.20750
1100.003, 21.22594
1100.486, 22.11160
1100.968, 23.08042
1101.450, 24.12988
1101.932, 25.27478
1102.414, 26.49505
1102.896, 27.61941
1103.378, 28.62912
1103.860, 29.85509
1104.343, 31.64388
1104.825, 33.14022
1105.307, 33.06831
1105.789, 32.40386
1106.271, 32.36583
1106.753, 33.31724
1107.235, 34.26181
1107.717, 35.23241
1108.199, 36.11449
1108.682, 36.79811
1109.164, 37.38175
1109.646, 37.84849
1110.128, 38.37560
1110.610, 39.40797
1111.092, 41.57018
1111.574, 43.53284
1112.056, 44.97745
1112.538, 46.44999
1113.021, 48.56749
1113.503, 51.13693
1113.985, 53.49311
1114.467, 55.63622
1114.949, 57.84543
1115.431, 59.96639
1115.913, 62.56839
1116.395, 66.18413
1116.878, 70.15160
1117.360, 73.32694
1117.842, 75.76814
1118.324, 78.79705
1118.806, 82.59924
1119.288, 86.56948
1119.770, 90.25388
1120.252, 93.92802
1120.734, 97.66119
1121.217, 101.5507
1121.699, 106.1580
1122.181, 111.5867
1122.663, 116.3723
1123.145, 119.9956
1123.627, 123.1044
1124.109, 126.5136
1124.591, 129.7507
1125.073, 132.2495
1125.556, 133.8614
1126.038, 134.9864
1126.520, 135.7848
1127.002, 135.5704
1127.484, 134.0267
1127.966, 131.4633
1128.448, 128.3293
1128.930, 124.5259
1129.413, 119.7486
1129.895, 113.3935
1130.377, 107.6463
1130.859, 102.9244
1131.341, 98.28483
1131.823, 93.17098
1132.305, 87.68229
1132.787, 81.88288
1133.270, 75.93892
1133.752, 70.35368
1134.234, 65.07027
1134.716, 60.46594
1135.198, 56.99905
1135.680, 53.87274
1136.162, 50.19809
1136.644, 46.14619
1137.126, 42.85867
1137.609, 40.39670
1138.091, 38.46455
1138.573, 37.27826
1139.055, 36.12575
1139.537, 34.68446
1140.019, 33.04729
1140.501, 31.24379
1140.983, 29.26825
1141.465, 27.73093
1141.948, 26.69567
1142.430, 26.06424
1142.912, 26.27174
1143.394, 26.40910
1143.876, 25.63749
1144.358, 24.17251
1144.840, 23.08475
1145.322, 22.45285
1145.805, 21.63816
1146.287, 20.46661
1146.769, 19.36388
1147.251, 19.10619
1147.733, 18.94922
1148.215, 17.90639
1148.697, 15.88197
1149.179, 14.75278
1149.661, 14.79221
1150.144, 14.85115
1150.626, 14.64802
1151.108, 14.12281
1151.590, 12.92941
1152.072, 11.47832
1152.554, 10.35337
1153.036, 9.703011
1153.518, 9.139473
1154.000, 8.624939
1154.483, 8.209717
1154.965, 7.981613
1155.447, 7.791107
1155.929, 7.295914
1156.411, 6.616516
1156.893, 5.993019
1157.375, 5.441940
1157.857, 5.143974
1158.340, 5.191544
1158.822, 5.242973
1159.304, 4.984978
1159.786, 4.618584
1160.268, 5.005699
1160.750, 5.814522
1161.232, 6.024788
1161.714, 4.609161
1162.197, 3.402260
1162.679, 2.730042
1163.161, 2.431763
1163.643, 2.526512
1164.125, 2.912338
1164.607, 3.004532
1165.089, 2.826256
1165.571, 2.631638
1166.053, 2.310478
1166.536, 2.124062
1167.018, 2.330025
1167.500, 2.685410
1167.982, 2.926376
1168.464, 3.010986
1168.946, 2.784813
1169.428, 2.272491
1169.910, 1.942894
1170.392, 2.475281
1170.875, 2.843147
1171.357, 2.217598
1171.839, 1.269943
1172.321, 1.176392
1172.803, 1.846237
1173.285, 2.397507
1173.767, 2.733727
1174.249, 2.684723
1174.732, 1.631844
1175.214, 0.6308820
1175.696, 0.5312500
1176.178, 0.9794010
1176.660, 1.089348
1177.142, 0.8599400
1177.624, 0.5064090
1178.106, 3.2120001E-02
1178.589, 0.3197630
1179.071, 0.2985150
1179.553, 0.1116030
1180.035, 0.1058730
1180.517, 0.3503720
1180.999, 0.7166210
1181.481, 1.227425
1181.963, 1.514038
1182.445, 1.456207
1182.927, 1.263962
1183.410, 0.9123690
1183.892, 0.6930010
1184.374, 1.077431
1184.856, 2.014435
1185.338, 2.302605
1185.820, 1.896599
1186.302, 1.230095
1186.784, 0.2817230
1187.267, 0.4394760
1187.749, 0.2243880
1188.231, 0.3923650
1188.713, 0.8280940
1189.195, 1.026581
1189.677, 1.145485
1190.159, 1.189522
1190.641, 1.085976
1191.124, 0.6952130
1191.606, 0.3503570
1192.088, 0.6588750
1192.570, 1.136162
1193.052, 1.042854
1193.534, 8.2984999E-02
1194.016, 0.1210480
1194.498, 0.5663450
1194.980, 1.190918
1195.463, 1.232964
1195.945, 1.014244
1196.427, 0.8174290
1196.909, 0.6704940
1197.391, 0.6289140
1197.873, 0.7502750
1198.355, 0.7681270
1198.837, 0.6484830
1199.319, 0.6232990
1199.802, 1.025436
1200.284, 1.403008
1200.766, 0.9523700
1201.248, 0.1534270
1201.730, 7.9475001E-02
1202.212, 0.7985310
1202.694, 1.104012
1203.176, 0.7400440
1203.658, 0.2977450
1204.141, 0.1919710
1204.623, 0.2463300
1205.105, 0.2677540
1205.587, 0.2795330
1206.069, 0.3331450
1206.551, 0.4257130
1207.033, 0.6046980
1207.515, 0.8955150
1207.998, 1.156578
1208.480, 1.331619
1208.962, 1.368896
1209.444, 1.086632
1209.926, 0.6211400
1210.408, 0.3540570
1210.890, 0.3902440
1211.372, 0.3888240
1211.854, 0.3019180
1212.337, 0.3259120
1212.819, 0.8908620
1213.301, 1.459579
1213.783, 1.323792
1214.265, 0.6541140
1214.747, 5.7213001E-02
1215.229, 0.4868010
1215.711, 0.7132490
1216.193, 0.5636140
1216.676, 0.3038250
1217.158, 0.2226030
1217.640, 0.1358030
1218.122, 0.3056110
1218.604, 0.9376220
1219.086, 1.082283
1219.568, 0.5026700
1220.050, 0.2454450
1220.533, 0.4535900
1221.015, 0.8104480
1221.497, 1.331779
1221.979, 1.587883
1222.461, 0.7751010
1222.943, 0.7416760
1223.425, 1.279526
1223.907, 0.4929730
1224.390, 4.0375002E-02
1224.872, 0.2000730
1225.354, 0.2751850
1225.836, 0.8078540
1226.318, 1.956589
1226.800, 1.934784
1227.282, 0.9803540
1227.764, 0.6911620
1228.246, 1.258179
1228.729, 1.277786
1229.211, 0.4441150
1229.693, 0.2106090
1230.175, 0.6814650
1230.657, 1.836510
1231.139, 2.039955
1231.621, 1.428673
1232.103, 0.9307630
1232.585, 0.5403750
1233.068, 0.4187470
1233.550, 0.6281590
1234.032, 0.7841420
1234.514, 0.3757170
1234.996, 7.2982997E-02
1235.478, 0.2779310
1235.960, 0.2292860
1236.442, 0.1582870
1236.925, 0.9020310
1237.407, 1.411713
1237.889, 1.580925
1238.371, 1.512596
1238.853, 0.9545670
1239.335, 0.4769590
1239.817, 0.6372070
1240.299, 1.172012
1240.781, 1.339111
1241.264, 1.161758
1241.746, 1.098099
1242.228, 1.267487
1242.710, 1.366791
1243.192, 0.9041290
1243.674, 0.6239700
1244.156, 1.127861
1244.638, 2.037178
1245.120, 2.299866
1245.603, 2.000504
1246.085, 1.706223
1246.567, 1.517670
1247.049, 1.419182
1247.531, 1.480011
1248.013, 1.527977
1248.495, 1.332375
1248.977, 1.114845
1249.460, 0.9711070
1249.942, 0.9248280
1250.424, 0.9208760
1250.906, 0.9524990
1251.388, 1.143295
1251.870, 1.868134
1252.352, 2.047913
1252.834, 1.816757
1253.317, 1.268730
1253.799, 0.9659040
1254.281, 0.8430940
1254.763, 1.154770
1255.245, 1.978180
1255.727, 2.322899
1256.209, 1.610939
1256.691, 1.071693
1257.173, 1.105751
1257.656, 1.418892
1258.138, 1.358101
1258.620, 1.049400
1259.102, 1.117058
1259.584, 1.512390
1260.066, 1.784706
1260.548, 1.928818
1261.030, 1.746376
1261.512, 0.9996870
1261.995, 0.2710420
1262.477, 0.5865860
1262.959, 1.363045
1263.441, 1.726334
1263.923, 1.563110
1264.405, 1.414139
1264.887, 1.330658
1265.369, 1.141525
1265.852, 0.6884230
1266.334, 0.4814000
1266.816, 1.518356
1267.298, 2.853104
1267.780, 3.502823
1268.262, 3.376366
1268.744, 2.850006
1269.226, 1.853958
1269.708, 1.101883
1270.191, 0.7776340
1270.673, 0.6821210
1271.155, 0.7353820
1271.637, 0.8526690
1272.119, 1.089981
1272.601, 1.336311
1273.083, 1.045052
1273.565, 0.2524260
1274.047, 8.3168000E-02
1274.530, 0.2715840
1275.012, 0.7685320
1275.494, 1.159538
1275.976, 1.429405
1276.458, 1.582016
1276.940, 1.626961
1277.422, 1.569916
1277.904, 1.382568
1278.387, 1.166328
1278.869, 0.8911820
1279.351, 0.6108470
1279.833, 0.1027300
1280.315, 4.7070002E-03
1280.797, 0.0000000E+00
##END=



