##NAMES=Euxenite-(Y)
##RRUFFID=R080101
##IDEAL CHEMISTRY=(Y,Ca,Ce,U,Th)(Nb,Ta,Ti)_2_O_6_
##LOCALITY=Betafo, Madagascar
##OWNER=RRUFF
##SOURCE=Michael Scott
##DESCRIPTION=Khaki colored fragment from metamict sample R060856, after heating at T = 1000 C for 24 hours
##STATUS=The identification of this mineral has been confirmed by X-ray diffraction.
##URL=rruff.info/R080101
135.3625, 0.0000000E+00
135.8447, 1.598633
136.3268, 17.85156
136.8089, 34.75098
137.2910, 48.68945
137.7731, 62.61230
138.2552, 76.83789
138.7374, 91.16797
139.2195, 103.7158
139.7016, 113.2080
140.1837, 119.9658
140.6658, 125.9570
141.1479, 130.4951
141.6301, 135.3809
142.1122, 140.3428
142.5943, 144.0078
143.0764, 147.2705
143.5585, 148.5518
144.0406, 148.9951
144.5228, 150.8447
145.0049, 154.4316
145.4870, 159.7236
145.9691, 167.8955
146.4512, 181.5596
146.9333, 198.0449
147.4155, 216.7402
147.8976, 235.2949
148.3797, 251.4004
148.8618, 261.4062
149.3439, 269.0439
149.8260, 276.6514
150.3082, 288.7939
150.7903, 296.1855
151.2724, 295.7568
151.7545, 287.9453
152.2366, 281.9053
152.7188, 279.8262
153.2009, 279.0762
153.6830, 278.7510
154.1651, 281.3965
154.6472, 282.7021
155.1293, 282.1992
155.6115, 279.4238
156.0936, 277.1250
156.5757, 282.5186
157.0578, 297.9512
157.5399, 312.9307
158.0220, 319.5898
158.5042, 332.7578
158.9863, 355.6914
159.4684, 385.8564
159.9505, 415.0840
160.4326, 441.7988
160.9147, 465.0850
161.3969, 485.3193
161.8790, 504.0996
162.3611, 520.1895
162.8432, 532.2725
163.3253, 546.3291
163.8074, 553.6699
164.2896, 549.9658
164.7717, 539.5127
165.2538, 530.4727
165.7359, 529.1484
166.2180, 529.3848
166.7001, 526.7031
167.1823, 521.2627
167.6644, 513.0820
168.1465, 500.7637
168.6286, 484.8018
169.1107, 466.7188
169.5928, 446.8311
170.0750, 425.5146
170.5571, 402.8594
171.0392, 379.3975
171.5213, 354.4385
172.0034, 326.9307
172.4855, 297.2031
172.9677, 267.3301
173.4498, 237.5840
173.9319, 208.5332
174.4140, 180.9385
174.8961, 154.7236
175.3782, 130.3174
175.8604, 108.7129
176.3425, 89.33984
176.8246, 68.67578
177.3067, 40.39453
177.7888, 8.700195
178.2709, 17.11182
178.7531, 32.40771
179.2352, 42.34570
179.7173, 54.57471
180.1994, 69.05127
180.6815, 83.20605
181.1636, 95.72070
181.6458, 106.2402
182.1279, 113.1392
182.6100, 114.8657
183.0921, 113.1802
183.5742, 111.6426
184.0563, 110.3281
184.5385, 108.4600
185.0206, 104.9800
185.5027, 100.2139
185.9848, 95.64502
186.4669, 91.06445
186.9490, 87.23584
187.4312, 87.95850
187.9133, 94.17969
188.3954, 98.98975
188.8775, 92.98486
189.3596, 77.18359
189.8417, 60.66455
190.3239, 48.24170
190.8060, 38.29443
191.2881, 22.82227
191.7702, 1.289063
192.2523, 23.37402
192.7344, 48.15527
193.2166, 86.10645
193.6987, 124.3843
194.1808, 163.7520
194.6629, 203.9463
195.1450, 242.0405
195.6271, 276.7227
196.1093, 312.6138
196.5914, 356.1138
197.0735, 407.3252
197.5556, 464.1025
198.0377, 527.4746
198.5198, 597.9180
199.0020, 664.3701
199.4841, 726.0215
199.9662, 785.0435
200.4483, 845.7803
200.9304, 908.3467
201.4125, 971.5474
201.8947, 1036.429
202.3768, 1103.630
202.8589, 1163.996
203.3410, 1216.391
203.8231, 1263.664
204.3052, 1310.817
204.7874, 1358.939
205.2695, 1403.582
205.7516, 1444.152
206.2337, 1481.656
206.7158, 1507.543
207.1979, 1518.669
207.6801, 1521.249
208.1622, 1528.921
208.6443, 1544.344
209.1264, 1556.789
209.6085, 1560.567
210.0906, 1553.770
210.5728, 1546.895
211.0549, 1539.651
211.5370, 1532.840
212.0191, 1528.554
212.5012, 1527.013
212.9833, 1527.450
213.4655, 1530.294
213.9476, 1536.990
214.4297, 1540.470
214.9118, 1538.330
215.3939, 1534.051
215.8760, 1536.952
216.3581, 1550.026
216.8403, 1564.019
217.3224, 1573.938
217.8045, 1577.667
218.2866, 1584.080
218.7687, 1594.368
219.2508, 1606.847
219.7330, 1616.876
220.2151, 1624.028
220.6972, 1629.104
221.1793, 1632.128
221.6614, 1632.407
222.1435, 1632.135
222.6257, 1631.669
223.1078, 1630.489
223.5899, 1627.219
224.0720, 1621.647
224.5541, 1614.500
225.0362, 1605.809
225.5184, 1594.801
226.0005, 1584.823
226.4826, 1576.711
226.9647, 1569.710
227.4468, 1561.613
227.9289, 1553.819
228.4111, 1543.298
228.8932, 1528.159
229.3753, 1505.693
229.8574, 1485.764
230.3395, 1471.888
230.8216, 1460.093
231.3038, 1437.818
231.7859, 1397.491
232.2680, 1357.862
232.7501, 1327.840
233.2322, 1312.611
233.7143, 1295.119
234.1965, 1273.989
234.6786, 1250.548
235.1607, 1228.255
235.6428, 1207.094
236.1249, 1184.845
236.6070, 1160.796
237.0892, 1132.922
237.5713, 1108.340
238.0534, 1087.463
238.5355, 1069.493
239.0176, 1052.552
239.4997, 1036.500
239.9819, 1022.043
240.4640, 1010.140
240.9461, 1002.828
241.4282, 994.0908
241.9103, 984.2915
242.3924, 973.0615
242.8746, 958.8735
243.3567, 938.4531
243.8388, 920.4136
244.3209, 908.0122
244.8030, 901.5562
245.2851, 900.0229
245.7673, 903.9600
246.2494, 912.3306
246.7315, 923.5854
247.2136, 939.2490
247.6957, 957.0840
248.1778, 975.6260
248.6600, 993.1875
249.1421, 1015.979
249.6242, 1046.965
250.1063, 1081.306
250.5884, 1108.633
251.0705, 1120.699
251.5527, 1139.660
252.0348, 1175.143
252.5169, 1233.372
252.9990, 1285.557
253.4811, 1329.561
253.9632, 1369.325
254.4454, 1410.893
254.9275, 1454.302
255.4096, 1499.911
255.8917, 1548.501
256.3738, 1600.616
256.8560, 1651.414
257.3381, 1700.262
257.8202, 1748.702
258.3023, 1799.922
258.7844, 1853.402
259.2665, 1909.820
259.7487, 1970.259
260.2308, 2035.159
260.7129, 2099.039
261.1950, 2160.930
261.6771, 2222.541
262.1592, 2285.685
262.6414, 2348.959
263.1235, 2416.046
263.6056, 2488.396
264.0877, 2567.160
264.5698, 2642.777
265.0519, 2713.918
265.5341, 2783.453
266.0162, 2856.265
266.4983, 2933.609
266.9804, 3008.710
267.4625, 3079.816
267.9446, 3146.449
268.4268, 3216.619
268.9089, 3291.475
269.3910, 3365.426
269.8731, 3431.847
270.3552, 3487.634
270.8373, 3546.968
271.3195, 3615.781
271.8016, 3692.171
272.2837, 3758.451
272.7658, 3812.289
273.2479, 3862.918
273.7300, 3922.089
274.2122, 3992.431
274.6943, 4053.487
275.1764, 4098.478
275.6585, 4130.772
276.1406, 4168.884
276.6227, 4214.970
277.1049, 4260.124
277.5870, 4297.319
278.0691, 4326.480
278.5512, 4351.758
279.0333, 4374.278
279.5154, 4393.151
279.9976, 4404.625
280.4797, 4408.056
280.9618, 4408.115
281.4439, 4410.190
281.9260, 4414.415
282.4081, 4407.477
282.8903, 4385.734
283.3724, 4354.033
283.8545, 4323.606
284.3366, 4294.804
284.8187, 4264.630
285.3008, 4231.187
285.7830, 4194.368
286.2651, 4157.093
286.7472, 4118.978
287.2293, 4080.993
287.7114, 4045.123
288.1935, 4011.510
288.6757, 3978.628
289.1578, 3944.245
289.6399, 3909.041
290.1220, 3881.088
290.6041, 3861.766
291.0862, 3844.775
291.5684, 3818.718
292.0505, 3784.756
292.5326, 3755.104
293.0147, 3738.275
293.4968, 3729.901
293.9789, 3715.385
294.4611, 3694.155
294.9432, 3670.693
295.4253, 3648.894
295.9074, 3628.803
296.3895, 3611.713
296.8716, 3599.547
297.3538, 3589.794
297.8359, 3576.596
298.3180, 3559.540
298.8001, 3542.935
299.2822, 3531.662
299.7643, 3523.391
300.2465, 3512.564
300.7286, 3495.006
301.2107, 3474.732
301.6928, 3456.843
302.1749, 3441.513
302.6570, 3425.957
303.1392, 3409.740
303.6213, 3391.906
304.1034, 3371.561
304.5855, 3346.747
305.0676, 3319.922
305.5497, 3292.464
306.0319, 3264.332
306.5140, 3234.049
306.9961, 3198.616
307.4782, 3162.230
307.9603, 3130.412
308.4424, 3107.798
308.9246, 3083.571
309.4067, 3049.168
309.8888, 3007.455
310.3709, 2966.000
310.8530, 2928.693
311.3351, 2893.843
311.8173, 2860.970
312.2994, 2831.021
312.7815, 2798.727
313.2636, 2758.207
313.7457, 2713.741
314.2278, 2672.686
314.7100, 2642.470
315.1921, 2614.127
315.6742, 2580.904
316.1563, 2540.922
316.6384, 2504.909
317.1205, 2486.821
317.6027, 2473.357
318.0848, 2447.667
318.5669, 2393.899
319.0490, 2336.329
319.5311, 2283.759
320.0132, 2236.747
320.4954, 2191.411
320.9775, 2147.621
321.4596, 2104.733
321.9417, 2062.765
322.4238, 2021.596
322.9059, 1981.349
323.3881, 1943.998
323.8702, 1909.147
324.3523, 1869.058
324.8344, 1821.064
325.3165, 1768.722
325.7986, 1713.827
326.2808, 1650.272
326.7629, 1591.714
327.2450, 1541.063
327.7271, 1496.676
328.2092, 1451.844
328.6913, 1407.712
329.1735, 1362.155
329.6556, 1313.401
330.1377, 1257.908
330.6198, 1205.949
331.1019, 1160.364
331.5840, 1117.426
332.0662, 1068.883
332.5483, 1008.952
333.0304, 951.1597
333.5125, 901.5557
333.9946, 861.9092
334.4767, 818.0093
334.9589, 767.5518
335.4410, 715.4404
335.9231, 668.5752
336.4052, 629.9590
336.8873, 589.4106
337.3694, 543.4917
337.8515, 492.9478
338.3336, 447.6084
338.8158, 408.4116
339.2979, 372.6455
339.7800, 338.1909
340.2621, 305.6548
340.7442, 271.9434
341.2263, 236.2065
341.7085, 199.5093
342.1906, 166.2051
342.6727, 136.1733
343.1548, 109.2539
343.6369, 86.36963
344.1190, 67.22852
344.6012, 46.52930
345.0833, 23.48096
345.5654, 1.105957
346.0475, 27.33447
346.5296, 54.95654
347.0117, 79.43750
347.4939, 94.83936
347.9760, 104.9321
348.4581, 123.3843
348.9402, 152.2153
349.4223, 181.6572
349.9044, 200.6138
350.3866, 211.0049
350.8687, 219.5195
351.3508, 227.5029
351.8329, 235.7236
352.3150, 246.3433
352.7971, 259.1958
353.2793, 270.5332
353.7614, 277.1982
354.2435, 280.2529
354.7256, 280.9927
355.2077, 277.4834
355.6898, 274.8291
356.1720, 279.5674
356.6541, 289.7031
357.1362, 296.8418
357.6183, 296.5547
358.1004, 290.7676
358.5826, 280.3359
359.0647, 263.5547
359.5468, 246.9951
360.0289, 234.0820
360.5110, 223.8799
360.9931, 214.4727
361.4753, 209.9541
361.9574, 202.6074
362.4395, 187.8975
362.9216, 164.5527
363.4037, 139.3330
363.8858, 112.6680
364.3680, 85.62891
364.8501, 59.11523
365.3322, 37.95508
365.8143, 13.06836
366.2964, 18.08789
366.7785, 55.84473
367.2607, 96.45410
367.7428, 139.3984
368.2249, 185.8750
368.7070, 237.0195
369.1891, 295.9434
369.6712, 354.3389
370.1534, 409.7852
370.6355, 464.7227
371.1176, 526.8516
371.5997, 597.7217
372.0818, 673.5254
372.5639, 753.8574
373.0461, 840.4678
373.5282, 926.9414
374.0103, 1012.999
374.4924, 1101.091
374.9745, 1193.631
375.4566, 1292.158
375.9388, 1392.536
376.4209, 1490.745
376.9030, 1589.219
377.3851, 1697.377
377.8672, 1817.541
378.3493, 1946.096
378.8315, 2078.140
379.3136, 2215.227
379.7957, 2357.036
380.2778, 2505.860
380.7599, 2659.253
381.2420, 2815.144
381.7242, 2970.476
382.2063, 3135.139
382.6884, 3313.776
383.1705, 3505.819
383.6526, 3703.520
384.1347, 3905.538
384.6169, 4112.658
385.0990, 4315.892
385.5811, 4520.209
386.0632, 4731.913
386.5453, 4955.392
387.0274, 5188.122
387.5096, 5421.973
387.9917, 5655.827
388.4738, 5898.927
388.9559, 6156.273
389.4380, 6421.326
389.9201, 6687.971
390.4023, 6951.657
390.8844, 7216.168
391.3665, 7482.510
391.8486, 7753.104
392.3307, 8026.146
392.8128, 8304.300
393.2950, 8582.086
393.7771, 8857.176
394.2592, 9123.137
394.7413, 9399.226
395.2234, 9699.612
395.7055, 10009.61
396.1877, 10306.76
396.6698, 10578.33
397.1519, 10843.24
397.6340, 11110.39
398.1161, 11381.19
398.5982, 11643.77
399.0804, 11899.47
399.5625, 12145.55
400.0446, 12379.83
400.5267, 12599.97
401.0088, 12814.00
401.4909, 13019.88
401.9731, 13219.82
402.4552, 13418.02
402.9373, 13618.93
403.4194, 13810.58
403.9015, 13986.41
404.3836, 14143.52
404.8658, 14296.93
405.3479, 14447.18
405.8300, 14591.38
406.3121, 14724.33
406.7942, 14843.59
407.2763, 14961.30
407.7585, 15085.30
408.2406, 15212.71
408.7227, 15317.59
409.2048, 15396.87
409.6869, 15471.61
410.1690, 15561.13
410.6512, 15661.31
411.1333, 15759.79
411.6154, 15855.46
412.0975, 15947.75
412.5796, 16036.37
413.0617, 16122.38
413.5439, 16211.24
414.0260, 16312.25
414.5081, 16416.80
414.9902, 16509.81
415.4723, 16590.78
415.9544, 16671.22
416.4366, 16762.17
416.9187, 16857.98
417.4008, 16948.91
417.8829, 17036.44
418.3650, 17114.27
418.8471, 17177.34
419.3293, 17226.27
419.8114, 17273.13
420.2935, 17326.53
420.7756, 17378.06
421.2577, 17420.51
421.7398, 17456.83
422.2220, 17479.23
422.7041, 17488.88
423.1862, 17483.18
423.6683, 17458.46
424.1504, 17407.18
424.6325, 17342.37
425.1147, 17268.67
425.5968, 17186.05
426.0789, 17089.30
426.5610, 16968.90
427.0431, 16843.00
427.5252, 16728.19
428.0074, 16631.89
428.4895, 16528.42
428.9716, 16412.90
429.4537, 16289.86
429.9358, 16175.05
430.4179, 16069.52
430.9001, 15968.58
431.3822, 15870.79
431.8643, 15776.14
432.3464, 15681.99
432.8285, 15585.02
433.3106, 15499.52
433.7928, 15449.28
434.2749, 15430.69
434.7570, 15413.64
435.2391, 15390.67
435.7212, 15362.33
436.2033, 15334.28
436.6855, 15305.29
437.1676, 15260.54
437.6497, 15194.53
438.1318, 15104.86
438.6139, 14988.78
439.0960, 14847.07
439.5782, 14674.85
440.0603, 14470.99
440.5424, 14232.53
441.0245, 13957.54
441.5066, 13635.22
441.9887, 13281.79
442.4709, 12914.79
442.9530, 12532.95
443.4351, 12097.56
443.9172, 11572.23
444.3993, 11002.61
444.8814, 10428.75
445.3636, 9855.970
445.8457, 9274.811
446.3278, 8672.924
446.8099, 8064.441
447.2920, 7468.311
447.7741, 6879.966
448.2563, 6305.776
448.7384, 5757.239
449.2205, 5229.392
449.7026, 4723.551
450.1847, 4241.840
450.6668, 3786.889
451.1490, 3362.051
451.6311, 2964.699
452.1132, 2604.107
452.5953, 2278.217
453.0774, 1989.849
453.5595, 1729.641
454.0417, 1496.242
454.5238, 1295.449
455.0059, 1128.666
455.4880, 996.1592
455.9701, 893.5020
456.4522, 821.7734
456.9344, 775.5781
457.4165, 751.6885
457.8986, 748.7324
458.3807, 763.1982
458.8628, 792.8428
459.3449, 840.6914
459.8271, 914.8672
460.3092, 1012.291
460.7913, 1120.816
461.2734, 1236.263
461.7555, 1360.183
462.2376, 1493.509
462.7198, 1633.609
463.2019, 1789.675
463.6840, 1971.159
464.1661, 2167.725
464.6482, 2366.870
465.1303, 2569.754
465.6125, 2768.893
466.0946, 2958.124
466.5767, 3139.664
467.0588, 3324.821
467.5409, 3522.004
468.0230, 3716.287
468.5052, 3899.897
468.9873, 4065.419
469.4694, 4238.103
469.9515, 4423.891
470.4336, 4611.771
470.9157, 4787.964
471.3979, 4950.154
471.8800, 5110.719
472.3621, 5274.165
472.8442, 5437.808
473.3263, 5595.059
473.8084, 5745.578
474.2906, 5892.131
474.7727, 6037.084
475.2548, 6179.696
475.7369, 6316.689
476.2190, 6447.827
476.7011, 6573.555
477.1833, 6697.796
477.6654, 6818.724
478.1475, 6931.479
478.6296, 7032.438
479.1117, 7125.404
479.5938, 7214.594
480.0760, 7299.889
480.5581, 7377.801
481.0402, 7447.479
481.5223, 7509.205
482.0044, 7564.098
482.4865, 7613.844
482.9687, 7651.816
483.4508, 7678.076
483.9329, 7690.630
484.4150, 7686.564
484.8971, 7653.848
485.3792, 7616.527
485.8614, 7583.519
486.3435, 7553.537
486.8256, 7505.096
487.3077, 7436.865
487.7898, 7352.798
488.2719, 7251.893
488.7541, 7130.611
489.2362, 7011.604
489.7183, 6895.786
490.2004, 6780.959
490.6825, 6661.604
491.1646, 6536.847
491.6468, 6410.082
492.1289, 6279.014
492.6110, 6147.533
493.0931, 6014.847
493.5752, 5880.520
494.0573, 5757.573
494.5395, 5655.410
495.0216, 5570.230
495.5037, 5491.713
495.9858, 5420.896
496.4679, 5354.525
496.9500, 5288.832
497.4322, 5226.867
497.9143, 5175.194
498.3964, 5141.768
498.8785, 5114.553
499.3606, 5090.666
499.8427, 5068.457
500.3249, 5043.412
500.8070, 5013.242
501.2891, 4979.954
501.7712, 4945.943
502.2533, 4914.472
502.7354, 4874.057
503.2176, 4827.348
503.6997, 4769.586
504.1818, 4695.269
504.6639, 4600.013
505.1460, 4495.611
505.6281, 4383.819
506.1103, 4263.290
506.5924, 4134.063
507.0745, 3995.676
507.5566, 3849.860
508.0387, 3699.687
508.5208, 3544.516
509.0030, 3369.467
509.4851, 3172.582
509.9672, 2968.116
510.4493, 2771.510
510.9314, 2580.100
511.4135, 2383.132
511.8957, 2178.447
512.3778, 1971.646
512.8599, 1768.487
513.3420, 1569.305
513.8242, 1375.774
514.3063, 1181.683
514.7884, 995.6494
515.2705, 826.6133
515.7526, 675.9033
516.2347, 531.7842
516.7169, 385.6592
517.1990, 245.4678
517.6811, 117.6221
518.1632, 4.748047
518.6453, 96.50781
519.1274, 187.3438
519.6096, 267.8662
520.0917, 335.5605
520.5738, 387.5615
521.0559, 431.8145
521.5380, 470.5801
522.0201, 503.2031
522.5023, 523.7451
522.9844, 532.9395
523.4665, 530.6074
523.9486, 514.6016
524.4307, 485.1426
524.9128, 450.7656
525.3950, 412.7568
525.8771, 367.6973
526.3592, 309.0195
526.8413, 239.4248
527.3234, 167.4092
527.8055, 98.34277
528.2877, 26.68848
528.7698, 55.38770
529.2519, 146.0430
529.7340, 239.2061
530.2161, 328.5303
530.6982, 421.1650
531.1804, 524.2363
531.6625, 638.6172
532.1446, 758.5693
532.6267, 886.2051
533.1088, 1015.263
533.5909, 1138.915
534.0731, 1248.604
534.5552, 1363.946
535.0373, 1489.905
535.5194, 1621.384
536.0015, 1751.063
536.4836, 1879.981
536.9658, 2003.969
537.4479, 2120.396
537.9300, 2229.098
538.4121, 2336.600
538.8942, 2442.836
539.3763, 2544.286
539.8585, 2639.180
540.3406, 2727.144
540.8227, 2805.755
541.3048, 2874.366
541.7869, 2935.573
542.2690, 2995.461
542.7512, 3050.694
543.2333, 3092.959
543.7154, 3111.964
544.1975, 3122.522
544.6796, 3138.795
545.1617, 3157.869
545.6439, 3167.555
546.1260, 3164.458
546.6081, 3148.699
547.0902, 3118.436
547.5723, 3071.284
548.0544, 3021.696
548.5366, 2974.356
549.0187, 2923.032
549.5008, 2862.091
549.9829, 2787.012
550.4650, 2710.814
550.9471, 2635.642
551.4293, 2559.589
551.9114, 2474.430
552.3935, 2378.072
552.8756, 2283.274
553.3577, 2196.060
553.8398, 2114.652
554.3220, 2030.875
554.8041, 1944.273
555.2862, 1856.587
555.7683, 1766.433
556.2504, 1675.897
556.7325, 1585.859
557.2147, 1495.708
557.6968, 1410.341
558.1789, 1334.975
558.6610, 1266.328
559.1431, 1200.471
559.6252, 1140.062
560.1074, 1078.078
560.5895, 1008.655
561.0716, 934.5781
561.5537, 867.0781
562.0358, 808.9258
562.5179, 756.1572
563.0001, 708.8975
563.4822, 668.0469
563.9643, 625.6191
564.4464, 579.6377
564.9285, 534.8711
565.4106, 494.2520
565.8928, 457.8896
566.3749, 423.9600
566.8570, 391.7490
567.3391, 362.0879
567.8212, 336.1357
568.3033, 313.4531
568.7855, 293.7285
569.2676, 277.2529
569.7497, 262.7285
570.2318, 247.8682
570.7139, 233.0947
571.1960, 217.9014
571.6782, 200.7334
572.1603, 184.1650
572.6424, 169.3213
573.1245, 155.7129
573.6066, 149.0986
574.0887, 160.3574
574.5709, 174.0693
575.0530, 178.0264
575.5351, 160.6045
576.0172, 147.6523
576.4993, 139.3701
576.9814, 133.5420
577.4636, 128.7148
577.9457, 127.6523
578.4278, 120.5215
578.9099, 102.6152
579.3920, 78.04004
579.8741, 63.49121
580.3563, 60.08301
580.8384, 56.80957
581.3205, 46.76270
581.8026, 32.51855
582.2847, 19.72070
582.7668, 8.596680
583.2490, 1.101563
583.7311, 0.3867190
584.2131, 4.424805
584.6953, 10.30664
585.1774, 16.76270
585.6595, 25.58105
586.1416, 39.21094
586.6237, 54.43164
587.1058, 67.19727
587.5880, 79.12695
588.0701, 85.92773
588.5522, 81.45215
589.0343, 69.60449
589.5164, 69.16992
589.9985, 85.72266
590.4807, 104.2090
590.9628, 117.6670
591.4449, 125.8340
591.9270, 141.4678
592.4091, 165.9717
592.8912, 191.5693
593.3734, 212.7109
593.8555, 229.2900
594.3376, 238.3438
594.8197, 237.2549
595.3018, 237.6270
595.7839, 255.4697
596.2661, 283.6943
596.7482, 308.6562
597.2303, 323.2402
597.7124, 335.3965
598.1945, 347.2148
598.6766, 360.2500
599.1588, 378.7344
599.6409, 409.7568
600.1230, 440.7686
600.6051, 465.9795
601.0872, 484.4834
601.5693, 507.0371
602.0515, 533.9775
602.5336, 563.8535
603.0157, 596.9541
603.4978, 634.3555
603.9799, 667.8076
604.4620, 695.8740
604.9442, 724.0068
605.4263, 759.0391
605.9084, 800.6094
606.3905, 841.8193
606.8726, 881.0479
607.3547, 921.3232
607.8369, 968.7510
608.3190, 1020.796
608.8011, 1072.885
609.2832, 1119.761
609.7653, 1167.751
610.2474, 1221.599
610.7296, 1281.064
611.2117, 1338.867
611.6938, 1389.616
612.1759, 1441.854
612.6580, 1499.462
613.1401, 1563.278
613.6223, 1632.024
614.1044, 1706.972
614.5865, 1783.846
615.0686, 1857.340
615.5507, 1926.885
616.0328, 2003.771
616.5150, 2089.609
616.9971, 2182.006
617.4792, 2276.353
617.9613, 2374.983
618.4434, 2483.330
618.9255, 2602.652
619.4077, 2729.896
619.8898, 2866.428
620.3719, 3010.873
620.8540, 3159.452
621.3361, 3304.432
621.8182, 3455.143
622.3004, 3617.953
622.7825, 3791.299
623.2646, 3963.477
623.7467, 4128.688
624.2288, 4293.267
624.7109, 4458.403
625.1931, 4620.911
625.6752, 4795.910
626.1573, 4990.312
626.6394, 5185.880
627.1215, 5361.245
627.6036, 5515.202
628.0858, 5671.428
628.5679, 5834.359
629.0500, 5998.510
629.5321, 6154.478
630.0142, 6303.884
630.4963, 6445.450
630.9785, 6583.041
631.4606, 6712.535
631.9427, 6828.811
632.4248, 6936.628
632.9069, 7049.563
633.3890, 7180.416
633.8712, 7307.869
634.3533, 7423.254
634.8354, 7525.598
635.3175, 7625.714
635.7996, 7726.922
636.2817, 7822.801
636.7639, 7911.070
637.2460, 7989.893
637.7281, 8063.597
638.2102, 8133.303
638.6923, 8198.141
639.1744, 8258.649
639.6566, 8312.716
640.1387, 8356.588
640.6208, 8386.896
641.1029, 8408.471
641.5850, 8426.609
642.0671, 8439.664
642.5493, 8445.787
643.0314, 8440.139
643.5135, 8430.624
643.9956, 8426.300
644.4777, 8422.395
644.9598, 8404.170
645.4420, 8360.760
645.9241, 8310.533
646.4062, 8259.405
646.8883, 8206.828
647.3704, 8145.631
647.8525, 8075.922
648.3347, 7999.959
648.8168, 7918.669
649.2989, 7831.603
649.7810, 7740.148
650.2631, 7644.871
650.7452, 7543.301
651.2274, 7429.464
651.7095, 7308.074
652.1916, 7188.484
652.6737, 7073.838
653.1558, 6957.021
653.6379, 6835.505
654.1201, 6708.253
654.6022, 6573.086
655.0843, 6427.341
655.5664, 6275.282
656.0485, 6118.776
656.5306, 5957.069
657.0128, 5786.279
657.4949, 5600.586
657.9770, 5418.175
658.4591, 5244.835
658.9412, 5078.479
659.4233, 4911.881
659.9055, 4744.986
660.3876, 4575.162
660.8697, 4398.092
661.3518, 4216.934
661.8339, 4039.617
662.3160, 3865.767
662.7982, 3690.980
663.2803, 3510.850
663.7624, 3328.912
664.2445, 3149.158
664.7266, 2970.972
665.2087, 2797.111
665.6909, 2628.144
666.1730, 2464.307
666.6551, 2306.083
667.1372, 2155.508
667.6193, 2004.771
668.1014, 1851.799
668.5836, 1701.636
669.0657, 1563.255
669.5478, 1438.130
670.0299, 1312.372
670.5120, 1183.385
670.9941, 1052.220
671.4763, 916.6729
671.9584, 779.6719
672.4405, 651.2773
672.9226, 537.3555
673.4047, 432.1807
673.8868, 333.0137
674.3690, 239.0752
674.8511, 146.1504
675.3332, 43.72168
675.8153, 49.70508
676.2974, 124.1084
676.7795, 178.5684
677.2617, 234.6816
677.7438, 296.3799
678.2259, 354.0645
678.7080, 404.0879
679.1901, 446.5186
679.6722, 476.1338
680.1544, 491.7129
680.6365, 499.6436
681.1186, 504.7217
681.6007, 506.5684
682.0828, 502.8447
682.5649, 493.9893
683.0471, 478.3359
683.5292, 457.3584
684.0113, 429.2275
684.4934, 393.4717
684.9755, 346.4131
685.4576, 295.8125
685.9398, 244.4697
686.4219, 189.1289
686.9040, 124.8496
687.3861, 53.94727
687.8682, 31.06250
688.3503, 133.9043
688.8325, 250.0645
689.3146, 362.5762
689.7967, 470.6680
690.2788, 586.0820
690.7609, 713.3281
691.2430, 849.2812
691.7252, 991.0898
692.2073, 1140.457
692.6894, 1296.555
693.1715, 1464.613
693.6536, 1635.002
694.1357, 1798.205
694.6179, 1954.287
695.1000, 2118.365
695.5821, 2295.949
696.0642, 2480.482
696.5463, 2668.627
697.0284, 2860.234
697.5106, 3056.094
697.9927, 3256.775
698.4748, 3461.797
698.9569, 3670.600
699.4390, 3883.242
699.9211, 4086.789
700.4033, 4279.434
700.8854, 4473.359
701.3675, 4685.666
701.8496, 4906.338
702.3317, 5118.834
702.8138, 5311.650
703.2960, 5509.057
703.7781, 5727.027
704.2602, 5954.361
704.7423, 6177.322
705.2244, 6394.619
705.7065, 6604.887
706.1887, 6809.604
706.6708, 7004.258
707.1529, 7191.219
707.6350, 7370.551
708.1171, 7538.504
708.5992, 7692.156
709.0814, 7835.941
709.5635, 7985.324
710.0456, 8138.963
710.5277, 8285.797
711.0098, 8425.447
711.4919, 8552.197
711.9741, 8657.791
712.4562, 8744.180
712.9383, 8824.994
713.4204, 8916.016
713.9025, 8992.818
714.3846, 9041.682
714.8668, 9065.158
715.3489, 9082.432
715.8310, 9093.047
716.3131, 9099.855
716.7952, 9110.611
717.2773, 9122.551
717.7595, 9100.363
718.2416, 9042.463
718.7237, 8973.154
719.2058, 8917.438
719.6879, 8860.975
720.1700, 8779.824
720.6522, 8670.770
721.1343, 8549.479
721.6164, 8419.965
722.0985, 8284.951
722.5806, 8144.848
723.0627, 8000.799
723.5449, 7850.879
724.0270, 7697.344
724.5091, 7535.154
724.9912, 7358.816
725.4733, 7165.014
725.9554, 6967.504
726.4376, 6767.791
726.9197, 6562.289
727.4018, 6345.480
727.8839, 6120.596
728.3660, 5898.852
728.8481, 5682.830
729.3303, 5466.320
729.8124, 5246.135
730.2945, 5021.018
730.7766, 4791.570
731.2587, 4548.648
731.7408, 4308.820
732.2230, 4076.270
732.7051, 3848.057
733.1872, 3619.588
733.6693, 3393.695
734.1514, 3163.363
734.6335, 2924.988
735.1157, 2685.066
735.5978, 2462.697
736.0799, 2256.393
736.5620, 2050.836
737.0441, 1832.545
737.5262, 1618.158
738.0084, 1426.570
738.4905, 1254.555
738.9726, 1089.547
739.4547, 919.6699
739.9368, 762.1055
740.4189, 630.4492
740.9011, 523.1328
741.3832, 405.3066
741.8653, 260.6582
742.3474, 135.4453
742.8295, 52.64648
743.3116, 7.677734
743.7938, 37.17188
744.2759, 82.30078
744.7580, 112.0684
745.2401, 108.0938
745.7222, 85.23438
746.2043, 69.31836
746.6865, 61.32617
747.1686, 44.64062
747.6507, 8.062500
748.1328, 41.33398
748.6149, 99.79102
749.0970, 165.3125
749.5792, 243.0723
750.0613, 336.8223
750.5434, 438.3242
751.0255, 541.8008
751.5076, 644.5762
751.9897, 771.1172
752.4719, 926.2852
752.9540, 1084.426
753.4361, 1222.350
753.9182, 1348.836
754.4003, 1484.238
754.8824, 1629.094
755.3646, 1786.785
755.8467, 1965.324
756.3288, 2153.500
756.8109, 2334.904
757.2930, 2504.686
757.7751, 2679.627
758.2573, 2865.666
758.7394, 3054.949
759.2215, 3238.494
759.7036, 3416.098
760.1857, 3606.146
760.6678, 3810.859
761.1500, 4017.328
761.6321, 4198.693
762.1142, 4364.811
762.5963, 4544.795
763.0784, 4747.984
763.5605, 4955.037
764.0427, 5158.744
764.5248, 5355.637
765.0069, 5541.449
765.4890, 5702.971
765.9711, 5868.842
766.4532, 6047.203
766.9354, 6228.730
767.4175, 6402.172
767.8996, 6568.699
768.3817, 6724.545
768.8638, 6868.297
769.3459, 7005.996
769.8281, 7144.199
770.3102, 7282.020
770.7923, 7416.822
771.2744, 7550.145
771.7565, 7676.695
772.2386, 7793.525
772.7208, 7902.275
773.2029, 8005.789
773.6850, 8109.820
774.1671, 8201.242
774.6492, 8279.281
775.1313, 8343.043
775.6135, 8390.004
776.0956, 8418.621
776.5777, 8436.467
777.0598, 8445.244
777.5419, 8444.320
778.0240, 8432.771
778.5062, 8410.832
778.9883, 8379.258
779.4704, 8349.133
779.9525, 8299.182
780.4346, 8205.723
780.9167, 8083.062
781.3989, 7964.541
781.8810, 7875.012
782.3631, 7767.068
782.8452, 7631.764
783.3273, 7474.359
783.8094, 7306.688
784.2916, 7128.129
784.7737, 6940.332
785.2558, 6741.551
785.7379, 6533.498
786.2200, 6325.914
786.7021, 6112.881
787.1843, 5886.857
787.6664, 5624.031
788.1485, 5360.281
788.6306, 5119.949
789.1127, 4896.102
789.5948, 4671.299
790.0770, 4437.984
790.5591, 4207.047
791.0412, 3980.947
791.5233, 3759.389
792.0054, 3535.387
792.4875, 3310.502
792.9697, 3088.678
793.4518, 2874.354
793.9339, 2664.262
794.4160, 2457.463
794.8981, 2253.998
795.3802, 2054.273
795.8624, 1851.334
796.3445, 1659.283
796.8266, 1487.520
797.3087, 1335.871
797.7908, 1193.373
798.2729, 1059.383
798.7551, 938.2207
799.2372, 828.3242
799.7193, 731.3066
800.2014, 649.5469
800.6835, 583.6465
801.1656, 533.4668
801.6478, 501.2246
802.1299, 484.0957
802.6120, 476.2637
803.0941, 479.9082
803.5762, 500.9199
804.0583, 543.7969
804.5405, 601.9043
805.0226, 671.7266
805.5047, 754.2559
805.9868, 859.3574
806.4689, 992.6406
806.9510, 1126.238
807.4332, 1244.070
807.9153, 1360.141
808.3974, 1515.775
808.8795, 1706.451
809.3616, 1906.674
809.8438, 2104.779
810.3259, 2303.963
810.8080, 2497.992
811.2901, 2693.324
811.7722, 2914.654
812.2543, 3187.160
812.7365, 3465.426
813.2186, 3735.178
813.7007, 4003.225
814.1828, 4291.943
814.6649, 4604.992
815.1470, 4917.285
815.6292, 5215.123
816.1113, 5506.900
816.5934, 5806.117
817.0755, 6112.002
817.5576, 6418.443
818.0397, 6718.824
818.5219, 7021.971
819.0040, 7334.605
819.4861, 7654.504
819.9682, 7969.004
820.4503, 8272.166
820.9324, 8586.088
821.4146, 8917.795
821.8967, 9256.271
822.3788, 9562.900
822.8609, 9838.148
823.3430, 10118.89
823.8251, 10424.62
824.3073, 10734.03
824.7894, 11028.87
825.2715, 11308.39
825.7536, 11581.77
826.2357, 11839.23
826.7178, 12102.49
827.2000, 12384.43
827.6821, 12673.51
828.1642, 12941.07
828.6463, 13182.18
829.1284, 13427.95
829.6105, 13690.25
830.0927, 13957.01
830.5748, 14211.11
831.0569, 14454.13
831.5390, 14694.46
832.0211, 14944.32
832.5032, 15180.86
832.9854, 15378.08
833.4675, 15553.79
833.9496, 15732.01
834.4317, 15917.74
834.9138, 16107.07
835.3959, 16307.88
835.8781, 16502.84
836.3602, 16660.55
836.8423, 16779.93
837.3244, 16913.10
837.8065, 17075.15
838.2886, 17234.63
838.7708, 17350.51
839.2529, 17441.71
839.7350, 17540.17
840.2171, 17664.59
840.6992, 17774.86
841.1813, 17854.37
841.6635, 17915.04
842.1456, 17970.48
842.6277, 18023.88
843.1098, 18061.63
843.5919, 18082.33
844.0740, 18089.53
844.5562, 18085.48
845.0383, 18072.59
845.5204, 18060.27
846.0025, 18051.47
846.4846, 18033.12
846.9667, 18001.71
847.4489, 17952.15
847.9310, 17879.56
848.4131, 17772.76
848.8952, 17665.53
849.3773, 17560.58
849.8594, 17451.66
850.3416, 17334.11
850.8237, 17208.42
851.3058, 17078.36
851.7879, 16941.39
852.2700, 16795.32
852.7521, 16635.24
853.2343, 16462.22
853.7164, 16275.56
854.1985, 16077.12
854.6806, 15864.80
855.1627, 15628.62
855.6448, 15386.42
856.1270, 15149.10
856.6091, 14914.57
857.0912, 14665.25
857.5733, 14402.71
858.0554, 14133.61
858.5375, 13863.63
859.0197, 13590.05
859.5018, 13297.67
859.9839, 12991.55
860.4660, 12692.27
860.9481, 12423.30
861.4302, 12154.03
861.9124, 11859.86
862.3945, 11546.33
862.8766, 11238.87
863.3587, 10947.95
863.8408, 10655.33
864.3229, 10360.15
864.8051, 10060.82
865.2872, 9762.076
865.7693, 9461.489
866.2514, 9163.873
866.7335, 8881.469
867.2156, 8597.770
867.6978, 8298.312
868.1799, 7994.047
868.6620, 7703.354
869.1441, 7438.427
869.6262, 7184.161
870.1083, 6938.177
870.5905, 6697.366
871.0726, 6458.931
871.5547, 6218.974
872.0368, 5984.404
872.5189, 5756.276
873.0010, 5536.279
873.4832, 5325.488
873.9653, 5120.044
874.4474, 4915.746
874.9295, 4707.371
875.4116, 4502.273
875.8937, 4298.996
876.3759, 4100.922
876.8580, 3916.102
877.3401, 3746.795
877.8222, 3576.647
878.3043, 3402.312
878.7864, 3233.150
879.2686, 3077.014
879.7507, 2930.286
880.2328, 2786.977
880.7149, 2646.383
881.1970, 2507.797
881.6791, 2369.104
882.1613, 2234.558
882.6434, 2104.521
883.1255, 1978.926
883.6076, 1859.022
884.0897, 1745.350
884.5718, 1636.063
885.0540, 1530.016
885.5361, 1425.981
886.0182, 1327.928
886.5003, 1234.062
886.9824, 1142.988
887.4645, 1052.114
887.9467, 965.2197
888.4288, 884.2695
888.9109, 810.4707
889.3930, 738.4912
889.8751, 669.2852
890.3572, 602.2539
890.8394, 539.5771
891.3215, 479.2266
891.8036, 414.4990
892.2857, 348.2793
892.7678, 288.5635
893.2499, 243.8154
893.7321, 203.6357
894.2142, 158.5713
894.6963, 111.5059
895.1784, 70.05078
895.6605, 40.13672
896.1426, 7.004883
896.6248, 34.46973
897.1069, 76.72070
897.5890, 107.9912
898.0711, 130.1025
898.5532, 150.7627
899.0353, 172.6055
899.5175, 192.2227
899.9996, 207.4170
900.4817, 220.1465
900.9638, 231.5728
901.4459, 243.5034
901.9280, 253.9683
902.4102, 264.4438
902.8923, 273.2822
903.3744, 279.3433
903.8565, 283.3369
904.3386, 285.6411
904.8207, 285.3223
905.3029, 283.1792
905.7850, 276.9351
906.2671, 269.3862
906.7492, 264.2095
907.2313, 261.2715
907.7134, 259.7275
908.1956, 265.5234
908.6777, 265.1426
909.1598, 251.1475
909.6419, 227.4321
910.1240, 214.8755
910.6061, 213.4165
911.0883, 210.2612
911.5704, 198.5386
912.0525, 182.9863
912.5346, 172.1460
913.0167, 162.8003
913.4988, 147.9604
913.9810, 120.2949
914.4631, 92.89014
914.9452, 67.92578
915.4273, 44.96045
915.9094, 24.24268
916.3915, 5.685059
916.8737, 14.29150
917.3558, 36.20215
917.8379, 59.62646
918.3200, 85.85596
918.8021, 112.5605
919.2842, 134.9502
919.7664, 150.6230
920.2485, 170.8955
920.7306, 204.2959
921.2127, 238.9673
921.6948, 267.8467
922.1769, 290.2842
922.6591, 314.8203
923.1412, 341.4717
923.6233, 368.4092
924.1054, 393.7544
924.5875, 418.6177
925.0696, 444.0889
925.5518, 470.1147
926.0339, 495.9956
926.5160, 521.4521
926.9981, 547.1567
927.4802, 573.3560
927.9623, 600.2451
928.4445, 628.0298
928.9266, 656.6729
929.4087, 685.9780
929.8908, 716.4067
930.3729, 745.8179
930.8550, 769.4780
931.3372, 790.2275
931.8193, 813.8457
932.3014, 843.1021
932.7835, 873.2231
933.2656, 904.2615
933.7477, 934.7263
934.2299, 962.7112
934.7120, 988.0640
935.1941, 1013.475
935.6762, 1039.227
936.1583, 1064.711
936.6404, 1088.087
937.1226, 1111.793
937.6047, 1140.958
938.0868, 1175.961
938.5689, 1207.504
939.0510, 1229.450
939.5331, 1250.416
940.0153, 1273.131
940.4974, 1297.530
940.9795, 1323.513
941.4616, 1350.946
941.9437, 1376.454
942.4258, 1397.227
942.9080, 1416.963
943.3901, 1442.916
943.8722, 1471.369
944.3543, 1494.294
944.8364, 1501.245
945.3185, 1513.406
945.8007, 1536.117
946.2828, 1563.372
946.7649, 1586.691
947.2470, 1606.209
947.7291, 1627.484
948.2112, 1651.652
948.6934, 1674.786
949.1755, 1691.737
949.6576, 1706.204
950.1397, 1721.705
950.6218, 1738.769
951.1039, 1756.592
951.5861, 1775.585
952.0682, 1794.496
952.5503, 1813.240
953.0324, 1831.447
953.5145, 1845.448
953.9966, 1855.022
954.4788, 1864.313
954.9609, 1877.463
955.4430, 1889.742
955.9251, 1897.215
956.4072, 1900.946
956.8893, 1903.782
957.3715, 1908.214
957.8536, 1908.373
958.3357, 1902.725
958.8178, 1894.411
959.2999, 1888.440
959.7820, 1884.018
960.2642, 1878.384
960.7463, 1871.068
961.2284, 1861.920
961.7105, 1851.103
962.1926, 1838.227
962.6747, 1822.270
963.1569, 1802.257
963.6390, 1784.529
964.1211, 1769.705
964.6032, 1755.242
965.0853, 1741.011
965.5674, 1725.726
966.0496, 1705.165
966.5317, 1680.421
967.0138, 1654.758
967.4959, 1627.822
967.9780, 1602.859
968.4601, 1584.198
968.9423, 1568.042
969.4244, 1546.246
969.9065, 1517.271
970.3886, 1489.735
970.8707, 1465.073
971.3528, 1442.040
971.8350, 1419.575
972.3171, 1397.624
972.7992, 1375.177
973.2813, 1351.199
973.7634, 1329.299
974.2455, 1312.113
974.7277, 1296.147
975.2098, 1279.359
975.6919, 1261.755
976.1740, 1245.479
976.6561, 1230.509
977.1382, 1216.060
977.6204, 1200.825
978.1025, 1185.922
978.5846, 1173.837
979.0667, 1163.607
979.5488, 1151.879
980.0309, 1133.899
980.5131, 1119.410
980.9952, 1111.502
981.4773, 1106.145
981.9594, 1096.589
982.4415, 1083.338
982.9236, 1069.966
983.4058, 1057.259
983.8879, 1044.981
984.3700, 1033.009
984.8521, 1021.360
985.3342, 1009.995
985.8163, 998.9215
986.2985, 988.8193
986.7806, 980.7618
987.2627, 971.1318
987.7448, 956.6897
988.2269, 939.7456
988.7090, 927.1548
989.1912, 918.2815
989.6733, 910.7638
990.1554, 906.4158
990.6375, 900.0137
991.1196, 887.1169
991.6017, 871.4955
992.0839, 860.0114
992.5660, 853.6528
993.0481, 846.7793
993.5302, 838.5857
994.0123, 830.2692
994.4944, 824.0537
994.9766, 817.9863
995.4587, 807.8798
995.9408, 792.9462
996.4229, 781.8062
996.9050, 781.7186
997.3871, 781.0840
997.8693, 775.0168
998.3514, 764.2881
998.8335, 753.2329
999.3156, 742.0507
999.7977, 732.6279
1000.280, 727.1350
1000.762, 722.1394
1001.244, 713.7957
1001.726, 704.1595
1002.208, 696.6158
1002.690, 695.0970
1003.173, 689.3770
1003.655, 677.6816
1004.137, 665.2969
1004.619, 658.1113
1005.101, 654.6710
1005.583, 650.8137
1006.065, 646.1837
1006.547, 641.2766
1007.029, 636.2731
1007.512, 630.8521
1007.994, 625.4662
1008.476, 619.5398
1008.958, 610.0924
1009.440, 596.3191
1009.922, 583.9260
1010.404, 574.7429
1010.886, 567.5127
1011.369, 561.2534
1011.851, 555.3402
1012.333, 548.7896
1012.815, 541.5271
1013.297, 533.2458
1013.779, 522.7424
1014.261, 512.5994
1014.743, 505.1821
1015.225, 500.2466
1015.708, 493.3304
1016.190, 484.5242
1016.672, 475.3148
1017.154, 465.6100
1017.636, 457.0275
1018.118, 451.4857
1018.600, 448.0825
1019.082, 443.6664
1019.565, 437.7646
1020.047, 431.5187
1020.529, 424.7905
1021.011, 418.3324
1021.493, 413.7733
1021.975, 410.0504
1022.457, 404.7068
1022.939, 397.1322
1023.421, 389.7104
1023.904, 383.9817
1024.386, 378.1234
1024.868, 370.9447
1025.350, 362.6411
1025.832, 354.7876
1026.314, 347.4512
1026.796, 341.6155
1027.278, 338.6279
1027.760, 336.0808
1028.243, 331.4983
1028.725, 325.7976
1029.207, 320.5103
1029.689, 316.6423
1030.171, 311.8174
1030.653, 305.5665
1031.135, 299.0831
1031.617, 293.0914
1032.100, 287.9834
1032.582, 285.3475
1033.064, 284.9043
1033.546, 282.9625
1034.028, 275.0885
1034.510, 267.7343
1034.992, 264.5618
1035.474, 264.0637
1035.957, 262.4558
1036.439, 259.6841
1036.921, 256.3008
1037.403, 252.1627
1037.885, 248.2571
1038.367, 246.1104
1038.849, 244.7695
1039.331, 243.2330
1039.813, 241.2769
1040.296, 238.6794
1040.778, 235.0830
1041.260, 231.5662
1041.742, 228.8146
1042.224, 226.5847
1042.706, 223.7074
1043.188, 220.6584
1043.670, 219.1084
1044.152, 223.4633
1044.635, 225.3784
1045.117, 218.4512
1045.599, 208.6832
1046.081, 204.2942
1046.563, 206.2616
1047.045, 205.0444
1047.527, 199.7814
1048.009, 194.6099
1048.492, 194.0040
1048.974, 194.6414
1049.456, 193.6057
1049.938, 190.8427
1050.420, 186.3359
1050.902, 177.8030
1051.384, 172.1979
1051.866, 172.0497
1052.349, 174.4651
1052.831, 174.4979
1053.313, 172.3534
1053.795, 168.1542
1054.277, 161.1527
1054.759, 155.9163
1055.241, 155.6849
1055.723, 156.9117
1056.205, 157.6838
1056.688, 157.9796
1057.170, 155.8340
1057.652, 151.2565
1058.134, 147.2823
1058.616, 146.0393
1059.098, 145.2462
1059.580, 143.2715
1060.062, 140.3075
1060.544, 136.3766
1061.027, 129.6670
1061.509, 125.4611
1061.991, 124.6772
1062.473, 124.5497
1062.955, 122.0164
1063.437, 118.4980
1063.919, 117.4209
1064.401, 118.4818
1064.884, 118.2644
1065.366, 113.7499
1065.848, 109.6587
1066.330, 107.7229
1066.812, 106.9698
1067.294, 105.6053
1067.776, 103.6561
1068.258, 100.5291
1068.740, 95.84717
1069.223, 91.76843
1069.705, 91.61084
1070.187, 91.52893
1070.669, 87.23779
1071.151, 78.25500
1071.633, 72.88818
1072.115, 71.57129
1072.597, 71.79358
1073.079, 73.18347
1073.562, 74.34387
1074.044, 72.92676
1074.526, 69.83362
1075.008, 66.67798
1075.490, 64.43384
1075.972, 61.23547
1076.454, 56.29578
1076.936, 51.60815
1077.419, 48.58167
1077.901, 47.00854
1078.383, 46.78467
1078.865, 47.55615
1079.347, 46.97180
1079.829, 42.20129
1080.311, 37.44995
1080.793, 34.73401
1081.275, 33.11047
1081.758, 31.21814
1082.240, 28.99841
1082.722, 27.41895
1083.204, 26.67517
1083.686, 25.39929
1084.168, 20.76660
1084.650, 16.15967
1085.132, 16.08484
1085.615, 20.42139
1086.097, 19.45093
1086.579, 10.69995
1087.061, 3.452271
1087.543, 0.5074460
1088.025, 0.5316160
1088.507, 3.140625
1088.989, 6.605347
1089.471, 7.858032
1089.953, 5.992065
1090.436, 3.173462
1090.918, 1.198608
1091.400, 5.239502
1091.882, 8.224487
1092.364, 9.975830
1092.846, 9.183960
1093.328, 6.456665
1093.810, 4.520630
1094.293, 4.930054
1094.775, 5.957153
1095.257, 7.122925
1095.739, 8.440552
1096.221, 10.04407
1096.703, 12.08142
1097.185, 12.79553
1097.667, 12.11230
1098.150, 11.10339
1098.632, 10.43384
1099.114, 10.00488
1099.596, 9.794067
1100.078, 9.708862
1100.560, 9.505127
1101.042, 8.881104
1101.524, 8.970581
1102.006, 10.25769
1102.489, 11.73584
1102.971, 12.15649
1103.453, 12.16956
1103.935, 12.66956
1104.417, 13.54395
1104.899, 14.72266
1105.381, 18.27356
1105.863, 19.13757
1106.345, 14.43164
1106.828, 7.919800
1107.310, 8.581909
1107.792, 14.28943
1108.274, 18.51562
1108.756, 19.64001
1109.238, 20.01562
1109.720, 21.06299
1110.202, 21.27417
1110.685, 19.44641
1111.167, 16.00452
1111.649, 14.27771
1112.131, 14.07556
1112.613, 13.75916
1113.095, 12.26831
1113.577, 10.98145
1114.059, 10.76453
1114.542, 11.44287
1115.024, 12.97302
1115.506, 15.86511
1115.988, 16.58875
1116.470, 14.90161
1116.952, 13.59143
1117.434, 16.00012
1117.916, 18.57874
1118.398, 16.86304
1118.880, 12.28430
1119.363, 8.441895
1119.845, 4.835815
1120.327, 4.504395
1120.809, 8.515259
1121.291, 12.76978
1121.773, 12.90393
1122.255, 10.64185
1122.737, 8.793823
1123.220, 7.476563
1123.702, 6.205688
1124.184, 4.548828
1124.666, 3.311523
1125.148, 2.744629
1125.630, 2.670166
1126.112, 3.078613
1126.594, 3.717163
1127.077, 3.644409
1127.559, 2.689331
1128.041, 1.804688
1128.523, 1.309570
1129.005, 1.281006
1129.487, 2.114258
1129.969, 3.242188
1130.451, 2.764282
1130.933, 0.8558350
1131.416, 1.076050
1131.898, 2.786987
1132.380, 3.889160
1132.862, 3.895630
1133.344, 3.305664
1133.826, 2.106079
1134.308, 0.4055180
1134.790, 0.6502690
1135.272, 2.895386
1135.755, 4.969482
1136.237, 5.964355
1136.719, 6.437012
1137.201, 6.458252
1137.683, 6.453247
1138.165, 7.231689
1138.647, 9.381958
1139.129, 9.848511
1139.612, 8.482300
1140.094, 6.854980
1140.576, 5.888672
1141.058, 5.371338
1141.540, 5.168701
1142.022, 5.116577
1142.504, 4.880981
1142.986, 3.639893
1143.469, 4.503540
1143.951, 8.234985
1144.433, 11.44214
1144.915, 10.38293
1145.397, 7.448364
1145.879, 7.267090
1146.361, 9.195068
1146.843, 10.00305
1147.325, 6.335205
1147.807, 5.017700
1148.290, 7.818604
1148.772, 11.34778
1149.254, 10.93311
1149.736, 8.190063
1150.218, 7.197510
1150.700, 8.081787
1151.182, 8.885742
1151.664, 7.951416
1152.147, 8.012817
1152.629, 10.20300
1153.111, 13.28442
1153.593, 15.36304
1154.075, 16.42896
1154.557, 15.87158
1155.039, 13.47510
1155.521, 11.69592
1156.004, 13.05212
1156.486, 14.22290
1156.968, 13.72876
1157.450, 11.92957
1157.932, 8.874756
1158.414, 4.970825
1158.896, 3.776001
1159.378, 6.516968
1159.860, 10.41931
1160.343, 16.76892
1160.825, 20.64685
1161.307, 17.09302
1161.789, 7.720825
1162.271, 5.443115
1162.753, 9.898682
1163.235, 13.90015
1163.717, 15.02393
1164.199, 15.12671
1164.682, 15.11633
1165.164, 14.77942
1165.646, 13.89673
1166.128, 12.46277
1166.610, 11.63586
1167.092, 11.43616
1167.574, 12.27576
1168.056, 15.54541
1168.539, 18.45288
1169.021, 17.95129
1169.503, 15.46411
1169.985, 12.76831
1170.467, 9.477905
1170.949, 9.458130
1171.431, 13.16565
1171.913, 16.54639
1172.396, 16.48181
1172.878, 15.16968
1173.360, 14.37878
1173.842, 14.11401
1174.324, 14.52551
1174.806, 16.67511
1175.288, 15.90015
1175.770, 11.41840
1176.252, 7.728760
1176.734, 9.956299
1177.217, 13.81256
1177.699, 13.19342
1178.181, 9.674255
1178.663, 8.683350
1179.145, 12.48926
1179.627, 15.43823
1180.109, 17.35846
1180.591, 17.53882
1181.074, 13.52716
1181.556, 8.635864
1182.038, 8.078857
1182.520, 10.97467
1183.002, 12.20587
1183.484, 9.711853
1183.966, 8.403687
1184.448, 9.080383
1184.931, 10.18860
1185.413, 9.880066
1185.895, 8.942200
1186.377, 8.251892
1186.859, 7.959839
1187.341, 9.018982
1187.823, 12.55023
1188.305, 15.53253
1188.787, 17.55481
1189.270, 18.56647
1189.752, 17.97534
1190.234, 16.49805
1190.716, 15.08740
1191.198, 13.87061
1191.680, 13.58118
1192.162, 15.20929
1192.644, 16.19128
1193.126, 15.81293
1193.609, 14.82312
1194.091, 13.98364
1194.573, 13.56665
1195.055, 14.25787
1195.537, 16.20880
1196.019, 18.26904
1196.501, 20.79047
1196.983, 22.25775
1197.466, 21.92896
1197.948, 20.67029
1198.430, 19.46173
1198.912, 18.71857
1199.394, 19.93109
1199.876, 23.95160
1200.358, 24.83289
1200.840, 18.27374
1201.323, 14.25238
1201.805, 17.50482
1202.287, 23.93036
1202.769, 25.26990
1203.251, 23.15588
1203.733, 21.08942
1204.215, 19.80438
1204.697, 18.85297
1205.179, 17.78363
1205.661, 17.44702
1206.144, 18.82312
1206.626, 20.74274
1207.108, 19.75793
1207.590, 17.22552
1208.072, 16.42303
1208.554, 19.02686
1209.036, 20.90228
1209.518, 21.05255
1210.001, 21.07037
1210.483, 21.98840
1210.965, 23.19000
1211.447, 22.65881
1211.929, 21.30402
1212.411, 21.24634
1212.893, 24.02844
1213.375, 25.49481
1213.858, 25.08356
1214.340, 23.81744
1214.822, 21.53491
1215.304, 19.24060
1215.786, 19.85608
1216.268, 22.28986
1216.750, 24.32855
1217.232, 25.46509
1217.714, 26.28241
1218.197, 27.00671
1218.679, 27.08514
1219.161, 25.48969
1219.643, 23.19922
1220.125, 23.53577
1220.607, 25.42517
1221.089, 25.71307
1221.571, 21.07318
1222.053, 19.31812
1222.536, 21.65753
1223.018, 24.60120
1223.500, 25.91229
1223.982, 26.14581
1224.464, 26.65741
1224.946, 27.00000
1225.428, 26.11304
1225.910, 21.20819
1226.393, 19.80933
1226.875, 22.98779
1227.357, 26.42737
1227.839, 27.19794
1228.321, 26.03668
1228.803, 23.39813
1229.285, 20.17072
1229.767, 18.11115
1230.250, 17.19025
1230.732, 18.08466
1231.214, 20.76941
1231.696, 25.48260
1232.178, 36.54407
1232.660, 46.72821
1233.142, 43.29651
1233.624, 31.27362
1234.106, 22.70874
1234.589, 20.14178
1235.071, 20.10767
1235.553, 22.90240
1236.035, 25.31476
1236.517, 24.15820
1236.999, 22.27698
1237.481, 23.33899
1237.963, 25.94348
1238.445, 26.45697
1238.928, 23.23267
1239.410, 22.95923
1239.892, 26.41260
1240.374, 29.16937
1240.856, 25.95020
1241.338, 21.91119
1241.820, 22.54901
1242.302, 25.83069
1242.785, 27.09033
1243.267, 25.56604
1243.749, 25.08411
1244.231, 25.84369
1244.713, 26.76251
1245.195, 27.66315
1245.677, 28.01337
1246.159, 26.70831
1246.641, 24.96283
1247.124, 24.24054
1247.606, 24.51819
1248.088, 25.09119
1248.570, 26.01770
1249.052, 26.35150
1249.534, 24.26178
1250.016, 23.22180
1250.498, 26.66486
1250.980, 31.24988
1251.463, 32.39276
1251.945, 30.41553
1252.427, 30.57703
1252.909, 32.54083
1253.391, 33.77570
1253.873, 30.15735
1254.355, 26.62921
1254.837, 25.95209
1255.320, 26.26611
1255.802, 24.63336
1256.284, 21.64618
1256.766, 21.49261
1257.248, 23.82849
1257.730, 26.11877
1258.212, 27.06061
1258.694, 27.56781
1259.177, 27.36890
1259.659, 26.86151
1260.141, 27.09705
1260.623, 27.97815
1261.105, 28.58594
1261.587, 28.75055
1262.069, 28.25934
1262.551, 26.75439
1263.033, 25.19800
1263.516, 24.16382
1263.998, 23.65955
1264.480, 23.67474
1264.962, 23.90405
1265.444, 24.45538
1265.926, 25.47211
1266.408, 25.64368
1266.890, 23.53638
1267.372, 22.39160
1267.855, 23.19012
1268.337, 24.32941
1268.819, 23.85492
1269.301, 22.09979
1269.783, 20.20392
1270.265, 18.55927
1270.747, 17.23932
1271.229, 16.33594
1271.712, 16.66644
1272.194, 18.91840
1272.676, 20.20380
1273.158, 17.04681
1273.640, 13.78143
1274.122, 15.05359
1274.604, 18.78265
1275.086, 20.71826
1275.568, 20.52643
1276.051, 19.34033
1276.533, 17.18280
1277.015, 15.58148
1277.497, 15.91486
1277.979, 16.85114
1278.461, 18.46991
1278.943, 19.62366
1279.425, 18.61450
1279.907, 15.49231
1280.390, 13.75024
1280.872, 13.40918
1281.354, 13.25647
1281.836, 12.51904
1282.318, 12.07751
1282.800, 12.62726
1283.282, 13.16486
1283.764, 12.79907
1284.247, 11.65143
1284.729, 10.08130
1285.211, 8.355896
1285.693, 7.539246
1286.175, 8.687622
1286.657, 9.896606
1287.139, 11.39044
1287.621, 11.98444
1288.104, 10.08112
1288.586, 7.036011
1289.068, 5.433228
1289.550, 4.982178
1290.032, 5.011292
1290.514, 5.754211
1290.996, 6.216980
1291.478, 6.384766
1291.960, 6.363953
1292.443, 6.537231
1292.925, 6.227661
1293.407, 3.267700
1293.889, 0.2169190
1294.371, 0.1437990
1294.853, 4.552734
1295.335, 7.021118
1295.817, 7.240845
1296.299, 6.231873
1296.782, 3.661316
1297.264, 1.400085
1297.746, 0.7882690
1298.228, 1.278992
1298.710, 2.389221
1299.192, 2.767029
1299.674, 4.237915
1300.156, 5.458801
1300.639, 5.254150
1301.121, 2.112793
1301.603, 0.1352540
1302.085, 0.2086790
1302.567, 1.046143
1303.049, 0.6863400
1303.531, 0.0000000E+00
##END=



