##NAMES=Faheyite
##RRUFFID=R100084
##IDEAL CHEMISTRY=Be_2_Mn^2+^Fe^3+^_2_(PO_4_)_4_&#183;6H_2_O
##LOCALITY=Sapucaia mine, Galil√©ia, Minas Gerais, Brazil
##OWNER=RRUFF
##SOURCE=Royal Ontaario Museum
##DESCRIPTION=Parallel aggregates of white fibrous acicular crystals associated with muscovite
##STATUS=The identification of this mineral is not yet confirmed.
##URL=rruff.info/R100084
146.9766, 0.0000000E+00
147.4587, 0.7466890
147.9409, 1.137894
148.4230, 1.141632
148.9051, 1.162704
149.3872, 0.9507600
149.8693, 0.5199740
150.3514, 0.1793210
150.8336, 1.6495001E-02
151.3157, 4.1260000E-02
151.7978, 6.9900997E-02
152.2799, 6.9366001E-02
152.7620, 5.5069000E-02
153.2441, 5.9021000E-02
153.7263, 5.7541002E-02
154.2084, 1.1440000E-03
154.6905, 7.4202999E-02
155.1726, 0.2199100
155.6547, 0.6371000
156.1368, 1.602783
156.6190, 2.308105
157.1011, 2.195709
157.5832, 1.551147
158.0653, 0.9156650
158.5474, 0.5963290
159.0295, 0.5820620
159.5117, 0.7338710
159.9938, 1.138855
160.4759, 1.649551
160.9580, 2.315735
161.4401, 3.058243
161.9222, 3.709229
162.4044, 4.135300
162.8865, 4.342743
163.3686, 4.266129
163.8507, 3.540344
164.3328, 2.862427
164.8149, 2.430023
165.2971, 2.313110
165.7792, 2.594833
166.2613, 3.463440
166.7434, 5.395935
167.2255, 6.443878
167.7076, 6.091034
168.1898, 5.353333
168.6719, 4.886261
169.1540, 4.836060
169.6361, 5.010941
170.1182, 5.183640
170.6003, 5.470688
171.0825, 5.397110
171.5646, 4.481049
172.0467, 3.374283
172.5288, 2.898819
173.0109, 3.293686
173.4930, 4.071014
173.9752, 4.445480
174.4573, 4.376694
174.9394, 4.361282
175.4215, 4.447128
175.9036, 4.690231
176.3857, 5.354614
176.8679, 6.844147
177.3500, 8.251846
177.8321, 8.269653
178.3142, 6.803650
178.7963, 5.290085
179.2784, 4.683594
179.7606, 4.862244
180.2427, 4.871262
180.7248, 4.335632
181.2069, 3.638260
181.6890, 3.084076
182.1711, 2.692383
182.6533, 2.454330
183.1354, 2.451904
183.6175, 2.738510
184.0996, 2.837860
184.5817, 2.468262
185.0638, 1.975235
185.5460, 1.494247
186.0281, 1.062500
186.5102, 0.7447970
186.9923, 0.6631470
187.4744, 0.9195100
187.9565, 1.145416
188.4387, 1.322449
188.9208, 1.440475
189.4029, 1.450012
189.8850, 1.345123
190.3671, 1.219147
190.8492, 1.271851
191.3314, 1.749390
191.8135, 1.993317
192.2956, 1.864441
192.7777, 1.566132
193.2598, 1.245148
193.7419, 0.9640810
194.2241, 0.7339020
194.7062, 0.5822600
195.1883, 0.6761780
195.6704, 0.6520840
196.1525, 0.4120790
196.6346, 7.9696998E-02
197.1168, 0.2372130
197.5989, 0.4976810
198.0810, 0.6589200
198.5631, 0.5767360
199.0452, 3.7276998E-02
199.5273, 0.4444120
200.0095, 0.6750340
200.4916, 0.8106990
200.9737, 1.117737
201.4558, 1.731552
201.9379, 2.560577
202.4200, 3.370483
202.9022, 4.223434
203.3843, 4.963211
203.8664, 5.464355
204.3485, 5.801422
204.8306, 6.138992
205.3127, 6.633224
205.7949, 7.196655
206.2770, 7.613708
206.7591, 7.789444
207.2412, 8.033722
207.7233, 8.525879
208.2054, 9.243317
208.6876, 10.10913
209.1697, 11.33388
209.6518, 12.49098
210.1339, 12.98441
210.6160, 12.66154
211.0981, 12.03893
211.5803, 11.39334
212.0624, 10.72498
212.5445, 10.32274
213.0266, 10.51482
213.5087, 10.89987
213.9908, 11.16217
214.4730, 11.27621
214.9551, 11.15892
215.4372, 10.52277
215.9193, 9.206116
216.4014, 8.366470
216.8836, 8.797073
217.3657, 9.581329
217.8478, 10.09599
218.3299, 10.18475
218.8120, 10.22075
219.2941, 10.76363
219.7763, 11.99506
220.2584, 13.13400
220.7405, 13.97455
221.2226, 14.72397
221.7047, 15.52951
222.1868, 16.42873
222.6690, 17.34178
223.1511, 18.09837
223.6332, 18.51419
224.1153, 19.22005
224.5974, 20.16298
225.0795, 21.42381
225.5617, 23.20093
226.0438, 25.50722
226.5259, 28.00883
227.0080, 30.11212
227.4901, 31.52253
227.9722, 33.03928
228.4544, 34.57874
228.9365, 36.27990
229.4186, 38.18367
229.9007, 40.31650
230.3828, 42.76387
230.8649, 45.67397
231.3471, 49.43652
231.8292, 53.09781
232.3113, 56.65747
232.7934, 60.11834
233.2755, 63.44334
233.7576, 66.62286
234.2398, 69.80598
234.7219, 73.19221
235.2040, 76.91028
235.6861, 80.64595
236.1682, 84.36021
236.6503, 88.11169
237.1325, 91.96895
237.6146, 95.92958
238.0967, 99.92072
238.5788, 103.8630
239.0609, 107.8919
239.5430, 111.4289
240.0252, 114.3780
240.5073, 116.8438
240.9894, 118.7995
241.4715, 120.2514
241.9536, 121.4790
242.4357, 122.9012
242.9179, 124.6326
243.4000, 125.9997
243.8821, 126.9557
244.3642, 127.5049
244.8463, 127.7189
245.3284, 127.6241
245.8106, 126.9858
246.2927, 125.3271
246.7748, 122.6120
247.2569, 119.9617
247.7390, 117.7681
248.2211, 115.6140
248.7033, 112.9571
249.1854, 109.6818
249.6675, 106.1347
250.1496, 102.5290
250.6317, 98.86385
251.1138, 95.37822
251.5960, 92.34152
252.0781, 89.40862
252.5602, 86.01258
253.0423, 82.07058
253.5244, 78.10920
254.0065, 74.59111
254.4887, 71.42560
254.9708, 68.46435
255.4529, 65.52109
255.9350, 62.83168
256.4171, 60.81746
256.8992, 59.56403
257.3813, 58.64864
257.8635, 57.88904
258.3456, 57.23759
258.8277, 56.64044
259.3098, 56.00967
259.7919, 55.48413
260.2740, 55.29315
260.7562, 55.51255
261.2383, 55.84227
261.7204, 56.30799
262.2025, 56.69198
262.6846, 56.67021
263.1667, 55.94551
263.6489, 55.07903
264.1310, 54.91888
264.6131, 55.58931
265.0952, 56.35368
265.5773, 56.95375
266.0594, 57.43272
266.5416, 57.78926
267.0237, 57.97292
267.5058, 58.21523
267.9879, 58.87132
268.4700, 60.00027
268.9521, 61.19974
269.4343, 62.75225
269.9164, 64.10371
270.3985, 64.61636
270.8806, 64.07279
271.3627, 63.33845
271.8448, 63.66008
272.3270, 65.33510
272.8091, 66.53250
273.2912, 66.64350
273.7733, 66.22686
274.2554, 65.48795
274.7375, 64.49355
275.2197, 63.31316
275.7018, 62.02905
276.1839, 60.68221
276.6660, 59.03171
277.1481, 56.88184
277.6302, 54.52536
278.1124, 52.06400
278.5945, 49.52556
279.0766, 46.96062
279.5587, 44.42366
280.0408, 41.92528
280.5229, 39.38901
281.0051, 36.43756
281.4872, 33.80067
281.9693, 31.94841
282.4514, 30.74815
282.9335, 29.67193
283.4156, 28.22791
283.8978, 26.40133
284.3799, 24.92255
284.8620, 24.28349
285.3441, 23.50749
285.8262, 22.24300
286.3083, 20.57930
286.7905, 18.70446
287.2726, 16.63292
287.7547, 14.44605
288.2368, 13.02134
288.7189, 13.10191
289.2010, 13.10614
289.6832, 12.50582
290.1653, 11.57555
290.6474, 10.75354
291.1295, 10.30678
291.6116, 10.13847
292.0938, 9.869583
292.5759, 9.528435
293.0580, 9.025116
293.5401, 8.148232
294.0222, 7.190475
294.5043, 6.495033
294.9865, 6.218109
295.4686, 6.224304
295.9507, 6.175591
296.4328, 5.940002
296.9149, 5.901314
297.3970, 6.435715
297.8792, 6.975716
298.3613, 6.923813
298.8434, 6.128792
299.3255, 5.060852
299.8076, 4.539200
300.2897, 4.907417
300.7719, 5.050125
301.2540, 4.810394
301.7361, 4.441833
302.2182, 4.053734
302.7003, 3.688889
303.1824, 3.377617
303.6646, 3.177597
304.1467, 3.150421
304.6288, 3.011292
305.1109, 2.580811
305.5930, 2.198776
306.0751, 2.074081
306.5573, 2.165207
307.0394, 2.279083
307.5215, 2.254677
308.0036, 2.089203
308.4857, 1.801056
308.9678, 1.226624
309.4500, 0.6841130
309.9321, 0.1748280
310.4142, 0.2318730
310.8963, 0.3940050
311.3784, 0.1776500
311.8605, 0.3453980
312.3427, 0.6070400
312.8248, 0.4043960
313.3069, 0.1522600
313.7890, 0.1732180
314.2711, 0.4734420
314.7532, 0.6256940
315.2354, 0.5647660
315.7175, 0.3457340
316.1996, 9.9091001E-02
316.6817, 0.3813860
317.1638, 0.5342030
317.6459, 1.3680000E-02
318.1281, 0.6675720
318.6102, 1.002426
319.0923, 0.8454670
319.5744, 0.4974140
320.0565, 0.4724040
320.5386, 0.9518510
321.0208, 1.341980
321.5029, 1.722092
321.9850, 1.947853
322.4671, 1.851730
322.9492, 1.460571
323.4313, 1.006012
323.9135, 0.7395400
324.3956, 0.6959690
324.8777, 0.6711500
325.3598, 0.8352360
325.8419, 0.8616030
326.3240, 0.4969330
326.8062, 0.1348500
327.2883, 0.6933440
327.7704, 0.9033130
328.2525, 0.7851030
328.7346, 0.7114940
329.2167, 0.8137890
329.6989, 0.8059230
330.1810, 0.3958660
330.6631, 0.1177900
331.1452, 0.2246860
331.6273, 0.4005580
332.1094, 1.437401
332.5916, 1.834763
333.0737, 1.052002
333.5558, 0.5463710
334.0379, 0.8034210
334.5200, 1.287407
335.0021, 1.439041
335.4843, 1.086708
335.9664, 0.5951840
336.4485, 0.6187740
336.9306, 1.426300
337.4127, 1.941574
337.8948, 1.601875
338.3770, 1.301361
338.8591, 1.746437
339.3412, 2.895050
339.8233, 4.011627
340.3055, 4.236145
340.7876, 3.444542
341.2697, 3.014626
341.7518, 3.209702
342.2339, 3.530426
342.7160, 3.832520
343.1982, 4.106598
343.6803, 4.374283
344.1624, 4.664055
344.6445, 4.957375
345.1266, 5.124420
345.6087, 4.947685
346.0909, 5.018059
346.5730, 5.733261
347.0551, 6.696671
347.5372, 7.386208
348.0193, 7.565765
348.5014, 7.483643
348.9836, 7.551132
349.4657, 7.746841
349.9478, 8.169266
350.4299, 9.076202
350.9120, 10.07986
351.3941, 10.92232
351.8763, 11.55191
352.3584, 12.03452
352.8405, 12.26123
353.3226, 12.21136
353.8047, 12.73000
354.2868, 14.45596
354.7690, 16.24363
355.2511, 17.25971
355.7332, 17.65752
356.2153, 18.14833
356.6974, 19.43307
357.1795, 21.22221
357.6617, 22.22377
358.1438, 21.87875
358.6259, 21.88563
359.1080, 23.62883
359.5901, 26.25065
360.0722, 28.37218
360.5544, 29.27354
361.0365, 29.72590
361.5186, 30.84139
362.0007, 32.68399
362.4828, 34.67582
362.9649, 36.83057
363.4471, 38.87184
363.9292, 40.41905
364.4113, 41.33069
364.8934, 42.22195
365.3755, 43.71486
365.8576, 45.66345
366.3398, 47.22879
366.8219, 48.09924
367.3040, 48.70923
367.7861, 49.55804
368.2682, 50.59435
368.7503, 51.48988
369.2325, 52.22377
369.7146, 52.74038
370.1967, 52.95265
370.6788, 52.87776
371.1609, 52.34468
371.6430, 50.99007
372.1252, 49.02411
372.6073, 47.19490
373.0894, 45.85000
373.5715, 44.50984
374.0536, 42.69917
374.5357, 40.51855
375.0179, 38.46727
375.5000, 36.86338
375.9821, 35.45003
376.4642, 33.64540
376.9463, 31.29561
377.4284, 29.09192
377.9106, 27.50869
378.3927, 26.13787
378.8748, 24.17898
379.3569, 21.34977
379.8390, 18.46112
380.3211, 16.58994
380.8033, 15.93401
381.2854, 15.38942
381.7675, 15.13153
382.2496, 14.75057
382.7317, 13.81535
383.2138, 12.35704
383.6960, 10.86274
384.1781, 9.693710
384.6602, 8.856781
385.1423, 8.103668
385.6244, 7.221611
386.1065, 6.598099
386.5887, 6.679398
387.0708, 7.055031
387.5529, 6.930656
388.0350, 5.924515
388.5171, 4.490700
388.9992, 3.685654
389.4814, 4.076256
389.9635, 4.362808
390.4456, 4.593903
390.9277, 4.666420
391.4098, 4.424744
391.8919, 3.904808
392.3741, 3.313408
392.8562, 2.868065
393.3383, 2.590363
393.8204, 2.253426
394.3025, 1.507080
394.7846, 1.092148
395.2668, 1.589516
395.7489, 2.556046
396.2310, 3.167885
396.7131, 2.933029
397.1952, 2.062889
397.6773, 1.259659
398.1595, 0.3116300
398.6416, 0.1826250
399.1237, 1.0450000E-03
399.6058, 0.5139310
400.0879, 1.171562
400.5700, 1.888626
401.0522, 2.487068
401.5343, 2.682304
402.0164, 2.377197
402.4985, 2.246262
402.9806, 2.553825
403.4627, 2.811295
403.9449, 2.767319
404.4270, 2.497948
404.9091, 2.223587
405.3912, 2.076797
405.8733, 2.024788
406.3554, 1.963577
406.8376, 1.872650
407.3197, 1.821686
407.8018, 1.890686
408.2839, 1.989037
408.7660, 2.051147
409.2481, 2.077499
409.7303, 1.980545
410.2124, 1.509758
410.6945, 0.7123720
411.1766, 0.3626560
411.6587, 0.9286650
412.1408, 1.598518
412.6230, 1.514145
413.1051, 0.7828980
413.5872, 0.1902080
414.0693, 0.1170040
414.5514, 0.3654170
415.0335, 0.6442030
415.5157, 0.9367900
415.9978, 1.281395
416.4799, 1.822136
416.9620, 2.405411
417.4441, 2.581017
417.9262, 1.999809
418.4084, 1.450134
418.8905, 1.444778
419.3726, 1.820564
419.8547, 2.163048
420.3368, 2.330597
420.8189, 2.412865
421.3011, 2.551987
421.7832, 2.765610
422.2653, 2.953445
422.7474, 2.982925
423.2295, 3.065819
423.7116, 3.398026
424.1938, 3.984100
424.6759, 4.721054
425.1580, 5.575760
425.6401, 6.528885
426.1222, 7.195053
426.6043, 7.280708
427.0865, 7.480888
427.5686, 8.040985
428.0507, 8.797180
428.5328, 9.521736
429.0149, 10.13121
429.4970, 10.67965
429.9792, 11.27341
430.4613, 11.98640
430.9434, 12.58994
431.4255, 12.69941
431.9076, 13.01617
432.3897, 14.17356
432.8719, 15.97514
433.3540, 17.65212
433.8361, 18.50414
434.3182, 18.73270
434.8003, 19.88679
435.2824, 22.88578
435.7646, 25.36010
436.2467, 26.33287
436.7288, 26.71332
437.2109, 27.41225
437.6930, 28.74214
438.1751, 30.54838
438.6573, 32.85587
439.1394, 35.69262
439.6215, 37.56372
440.1036, 37.62660
440.5857, 37.47694
441.0678, 38.09796
441.5500, 39.37175
442.0321, 40.83560
442.5142, 42.47224
442.9963, 44.10740
443.4784, 45.34354
443.9605, 46.13674
444.4427, 46.91048
444.9248, 47.92438
445.4069, 48.97910
445.8890, 49.82279
446.3711, 50.58592
446.8532, 50.82976
447.3354, 50.05809
447.8175, 48.66891
448.2996, 47.43138
448.7817, 46.45576
449.2638, 45.43007
449.7459, 44.04185
450.2281, 42.26545
450.7102, 40.34431
451.1923, 38.20881
451.6744, 35.99110
452.1565, 33.60870
452.6386, 31.19755
453.1208, 29.22644
453.6029, 27.99024
454.0850, 27.15031
454.5671, 25.75762
455.0492, 22.94923
455.5313, 20.76029
456.0135, 19.58043
456.4956, 18.77548
456.9777, 17.86450
457.4598, 16.77477
457.9419, 15.67628
458.4240, 14.73322
458.9062, 13.95078
459.3883, 13.11755
459.8704, 12.16254
460.3525, 11.22996
460.8346, 10.29375
461.3167, 9.418694
461.7989, 8.707207
462.2810, 8.196892
462.7631, 7.776672
463.2452, 7.271927
463.7273, 6.665672
464.2094, 6.070206
464.6916, 5.444572
465.1737, 4.889709
465.6558, 4.512428
466.1379, 4.266922
466.6200, 3.978325
467.1021, 3.491226
467.5843, 2.925621
468.0664, 2.543320
468.5485, 2.365517
469.0306, 2.200996
469.5127, 1.923737
469.9948, 1.638199
470.4770, 1.510391
470.9591, 1.573570
471.4412, 1.692070
471.9233, 1.893829
472.4054, 2.082962
472.8875, 2.033928
473.3697, 1.694496
473.8518, 1.316536
474.3339, 1.117653
474.8160, 1.105026
475.2981, 1.126740
475.7802, 1.277824
476.2624, 1.362823
476.7445, 1.258308
477.2266, 1.030106
477.7087, 0.7754590
478.1908, 0.5280760
478.6729, 0.3502120
479.1551, 0.3658910
479.6372, 0.6923600
480.1193, 0.9411700
480.6014, 1.224022
481.0835, 1.342651
481.5656, 1.052399
482.0478, 0.4924320
482.5299, 3.0425999E-02
483.0120, 8.3632998E-02
483.4941, 6.7184001E-02
483.9762, 0.1886980
484.4583, 0.3010860
484.9405, 0.3399430
485.4226, 0.2463230
485.9047, 0.1132130
486.3868, 7.6979999E-03
486.8689, 6.0210999E-02
487.3510, 0.1126710
487.8332, 0.2001880
488.3153, 0.2962340
488.7974, 0.2378310
489.2795, 6.8145998E-02
489.7616, 0.3128510
490.2437, 0.2635270
490.7259, 3.9246000E-02
491.2080, 0.2102130
491.6901, 0.4998550
492.1722, 0.7264330
492.6543, 0.8094100
493.1364, 0.7687840
493.6186, 0.6074370
494.1007, 0.2806400
494.5828, 4.0199000E-02
495.0649, 0.2843170
495.5470, 1.086693
496.0291, 1.400208
496.5113, 0.6948090
496.9934, 4.4806998E-02
497.4755, 0.1823040
497.9576, 0.1085510
498.4397, 0.3349150
498.9218, 0.2554470
499.4040, 1.7998001E-02
499.8861, 4.5967001E-02
500.3682, 0.1777730
500.8503, 0.3723450
501.3324, 0.6352840
501.8145, 0.7925800
502.2967, 0.6828770
502.7788, 0.3629610
503.2609, 2.7770000E-03
503.7430, 0.3212200
504.2251, 0.5473020
504.7072, 0.3314510
505.1894, 0.7358020
505.6715, 1.299507
506.1536, 0.4511340
506.6357, 0.6534730
507.1178, 0.9818570
507.5999, 0.4489820
508.0821, 2.0714000E-02
508.5642, 0.6998290
509.0463, 2.027069
509.5284, 2.576164
510.0105, 2.137756
510.4926, 1.470100
510.9748, 0.8025590
511.4569, 0.3079380
511.9390, 0.3957670
512.4211, 1.444145
512.9032, 2.423386
513.3853, 2.723289
513.8674, 2.644691
514.3495, 2.706398
514.8317, 3.024635
515.3138, 3.401947
515.7959, 3.656395
516.2780, 3.787094
516.7601, 3.769379
517.2422, 3.453407
517.7244, 3.181267
518.2065, 3.140450
518.6886, 3.191254
519.1707, 3.084412
519.6528, 2.743042
520.1349, 2.373642
520.6171, 2.295120
521.0992, 2.557968
521.5813, 2.908142
522.0634, 3.423637
522.5455, 3.954796
523.0276, 4.577774
523.5098, 5.158249
523.9919, 5.391792
524.4740, 5.040543
524.9561, 4.589165
525.4382, 4.877190
525.9203, 5.921280
526.4025, 6.649284
526.8846, 6.705109
527.3667, 6.503365
527.8488, 6.340309
528.3309, 6.236473
528.8130, 6.372406
529.2952, 7.000359
529.7773, 7.736832
530.2594, 8.228767
530.7415, 8.510147
531.2236, 8.769379
531.7057, 9.082031
532.1879, 9.437561
532.6700, 9.815903
533.1521, 10.20730
533.6342, 10.65856
534.1163, 11.33609
534.5984, 11.92996
535.0806, 12.08414
535.5627, 11.96351
536.0448, 12.09956
536.5269, 12.85340
537.0090, 13.94764
537.4911, 14.47700
537.9733, 14.05171
538.4554, 13.92902
538.9375, 14.44693
539.4196, 15.13412
539.9017, 15.73869
540.3839, 16.24658
540.8660, 16.74075
541.3481, 17.24345
541.8302, 17.80611
542.3123, 18.59899
542.7944, 19.64895
543.2766, 20.67561
543.7587, 21.53223
544.2408, 22.33366
544.7229, 23.26453
545.2050, 24.34516
545.6871, 25.37920
546.1693, 26.16496
546.6514, 26.95938
547.1335, 28.12041
547.6156, 29.59754
548.0977, 31.03026
548.5798, 32.16336
549.0620, 33.13279
549.5441, 34.42350
550.0262, 36.48518
550.5083, 38.29016
550.9904, 39.80586
551.4725, 41.10661
551.9547, 42.11678
552.4368, 42.93679
552.9189, 43.87968
553.4010, 45.21139
553.8831, 46.79864
554.3652, 47.97820
554.8474, 48.52592
555.3295, 49.18430
555.8116, 50.57908
556.2937, 51.83113
556.7758, 52.25197
557.2579, 51.84045
557.7401, 51.17435
558.2222, 50.57797
558.7043, 49.93410
559.1864, 48.99879
559.6685, 47.77661
560.1506, 46.47682
560.6328, 45.29952
561.1149, 44.04056
561.5970, 42.10976
562.0791, 39.32938
562.5612, 36.62268
563.0433, 34.05122
563.5255, 31.63700
564.0076, 29.41919
564.4897, 27.40955
564.9718, 25.71230
565.4539, 24.44511
565.9360, 23.43192
566.4182, 22.06091
566.9003, 19.90042
567.3824, 18.18288
567.8645, 17.19405
568.3466, 16.44296
568.8287, 15.68131
569.3109, 14.87892
569.7930, 14.10648
570.2751, 13.43845
570.7572, 12.78634
571.2393, 11.87170
571.7214, 10.64888
572.2036, 9.770226
572.6857, 9.617096
573.1678, 9.720917
573.6499, 9.541992
574.1320, 9.090744
574.6141, 8.569221
575.0963, 7.887863
575.5784, 7.274567
576.0605, 7.073410
576.5426, 7.135071
577.0247, 6.879013
577.5068, 6.006813
577.9890, 4.915657
578.4711, 4.343796
578.9532, 4.415398
579.4353, 4.730042
579.9174, 5.660141
580.3995, 6.433067
580.8817, 6.690376
581.3638, 6.510460
581.8459, 6.007210
582.3280, 5.196083
582.8101, 4.391434
583.2922, 4.195869
583.7744, 4.665817
584.2565, 4.925911
584.7386, 4.828987
585.2207, 4.544571
585.7029, 3.995499
586.1850, 3.357628
586.6671, 3.124702
587.1492, 3.689949
587.6313, 4.319054
588.1135, 4.470863
588.5956, 4.281036
589.0777, 3.984528
589.5598, 3.632233
590.0419, 3.471176
590.5240, 3.860077
591.0062, 4.847687
591.4883, 5.212654
591.9704, 4.351929
592.4525, 3.678513
592.9346, 3.779274
593.4167, 4.129776
593.8989, 4.056152
594.3810, 3.445343
594.8631, 2.785492
595.3452, 2.631508
595.8273, 2.933632
596.3094, 2.978951
596.7916, 2.629776
597.2737, 2.363327
597.7558, 2.582153
598.2379, 2.888252
598.7200, 2.730751
599.2021, 1.971886
599.6843, 1.533295
600.1664, 2.273216
600.6485, 3.459763
601.1306, 3.849037
601.6127, 3.480949
602.0948, 3.210918
602.5770, 3.566071
603.0591, 4.350826
603.5412, 4.959381
604.0233, 5.232067
604.5054, 5.550426
604.9875, 6.052483
605.4697, 6.474731
605.9518, 6.568157
606.4339, 6.440151
606.9160, 6.352627
607.3981, 6.430050
607.8802, 6.708389
608.3624, 7.393253
608.8445, 8.583511
609.3266, 9.319885
609.8087, 9.100594
610.2908, 8.851566
610.7729, 9.349400
611.2551, 10.37410
611.7372, 11.27501
612.2193, 11.89020
612.7014, 12.31389
613.1835, 12.50284
613.6656, 12.58074
614.1478, 12.82543
614.6299, 13.31225
615.1120, 13.91560
615.5941, 14.54684
616.0762, 15.21438
616.5583, 15.77218
617.0405, 16.35844
617.5226, 16.65408
618.0047, 16.31015
618.4868, 15.80818
618.9689, 15.72379
619.4510, 16.08535
619.9332, 16.39462
620.4153, 16.16685
620.8974, 15.56603
621.3795, 15.24689
621.8616, 15.31124
622.3438, 15.10172
622.8259, 14.18721
623.3080, 13.04308
623.7901, 12.35019
624.2722, 12.13504
624.7543, 11.82846
625.2365, 11.16079
625.7186, 10.43558
626.2007, 9.932747
626.6828, 9.585552
627.1649, 9.190170
627.6470, 8.658012
628.1292, 8.043613
628.6113, 7.372334
629.0934, 6.496292
629.5755, 6.180706
630.0576, 7.334579
630.5397, 8.080727
631.0219, 7.589294
631.5040, 6.465248
631.9861, 5.459587
632.4682, 4.778831
632.9503, 4.497375
633.4324, 4.972069
633.9146, 5.900829
634.3967, 6.247143
634.8788, 5.877613
635.3609, 5.422482
635.8430, 5.242176
636.3251, 5.237999
636.8073, 5.118134
637.2894, 4.787888
637.7715, 4.582092
638.2536, 4.689800
638.7357, 4.825554
639.2178, 4.732498
639.7000, 4.469330
640.1821, 4.271938
640.6642, 4.273785
641.1463, 4.355930
641.6284, 4.270817
642.1105, 3.991150
642.5927, 3.688545
643.0748, 3.358818
643.5569, 3.032860
644.0390, 2.653374
644.5211, 2.299095
645.0032, 2.157635
645.4854, 2.364143
645.9675, 2.565559
646.4496, 2.531082
646.9317, 2.327381
647.4138, 2.024120
647.8959, 1.646473
648.3781, 1.358761
648.8602, 1.304157
649.3423, 1.421516
649.8244, 1.424561
650.3065, 1.185932
650.7886, 1.022362
651.2708, 1.091873
651.7529, 1.109486
652.2350, 0.7176130
652.7171, 0.1025810
653.1992, 0.1734540
653.6813, 0.2466580
654.1635, 0.9916340
654.6456, 1.579967
655.1277, 2.005798
655.6098, 2.203651
656.0919, 2.168854
656.5740, 1.860851
657.0562, 1.013264
657.5383, 0.2094080
658.0204, 0.7054820
658.5025, 0.3868870
658.9846, 1.130814
659.4667, 0.6581610
659.9489, 0.2485810
660.4310, 0.8192790
660.9131, 0.9528660
661.3952, 0.9054370
661.8773, 0.8530500
662.3594, 0.7889630
662.8416, 0.6764680
663.3237, 0.4829100
663.8058, 0.3616450
664.2879, 0.3863110
664.7700, 0.4440350
665.2521, 0.4692880
665.7343, 0.4610600
666.2164, 0.4176710
666.6985, 0.3183630
667.1806, 0.2104190
667.6627, 0.1135250
668.1448, 3.4926999E-02
668.6270, 1.2009000E-02
669.1091, 4.4640001E-02
669.5912, 2.9625000E-02
670.0733, 0.1498600
670.5554, 0.4458010
671.0375, 0.4984360
671.5197, 6.6132002E-02
672.0018, 0.2134130
672.4839, 0.1664540
672.9660, 5.0457001E-02
673.4481, 4.9591001E-02
673.9302, 0.1399990
674.4124, 0.2003210
674.8945, 0.2134780
675.3766, 9.5863000E-02
675.8587, 0.4478650
676.3408, 1.262909
676.8229, 1.551991
677.3051, 1.081741
677.7872, 0.4679370
678.2693, 0.2359050
678.7514, 0.3579140
679.2335, 0.5208090
679.7156, 0.7602650
680.1978, 0.9899980
680.6799, 1.317730
681.1620, 1.542984
681.6441, 1.381817
682.1262, 0.9355240
682.6083, 0.6007880
683.0905, 0.6153760
683.5726, 0.9006960
684.0547, 1.439754
684.5368, 2.229572
685.0189, 2.623711
685.5010, 2.367908
685.9832, 1.989857
686.4653, 1.937580
686.9474, 2.144821
687.4295, 2.250916
687.9116, 2.113262
688.3937, 2.057720
688.8759, 2.170864
689.3580, 2.415962
689.8401, 2.859921
690.3222, 3.422756
690.8043, 3.810406
691.2864, 3.806992
691.7686, 3.604176
692.2507, 3.723328
692.7328, 4.256657
693.2149, 4.505241
693.6970, 4.210880
694.1791, 3.853268
694.6613, 3.714031
695.1434, 3.761253
695.6255, 3.960278
696.1076, 4.416023
696.5897, 4.797237
697.0718, 4.842064
697.5540, 4.795635
698.0361, 4.931721
698.5182, 5.274662
699.0003, 5.786350
699.4824, 6.465893
699.9645, 7.169823
700.4467, 7.502865
700.9288, 7.332226
701.4109, 7.278664
701.8930, 7.386391
702.3751, 7.610222
702.8572, 8.099846
703.3394, 8.630478
703.8215, 8.763683
704.3036, 8.304764
704.7857, 7.884216
705.2678, 7.829414
705.7499, 8.050396
706.2321, 8.622704
706.7142, 9.416950
707.1963, 9.784348
707.6784, 9.342728
708.1605, 8.583313
708.6426, 8.525913
709.1248, 9.443115
709.6069, 10.07971
710.0890, 10.16121
710.5711, 10.27875
711.0532, 10.68270
711.5353, 11.22510
712.0175, 11.72562
712.4996, 12.15590
712.9817, 12.38280
713.4638, 12.12492
713.9459, 11.73288
714.4280, 11.84250
714.9102, 12.33193
715.3923, 12.41849
715.8744, 11.73566
716.3565, 10.84734
716.8386, 10.41998
717.3207, 10.48262
717.8029, 10.61651
718.2850, 11.10823
718.7671, 11.31895
719.2492, 11.04727
719.7313, 10.48737
720.2134, 9.727962
720.6956, 8.842854
721.1777, 8.123367
721.6598, 7.785370
722.1419, 7.594917
722.6240, 7.294682
723.1061, 6.945972
723.5883, 6.843872
724.0704, 7.092667
724.5525, 7.290619
725.0346, 7.037678
725.5167, 6.364902
725.9988, 6.019680
726.4810, 6.393257
726.9631, 6.516991
727.4452, 6.097996
727.9273, 5.557617
728.4094, 5.123684
728.8915, 4.826881
729.3737, 4.743729
729.8558, 5.023556
730.3379, 5.331097
730.8200, 5.240757
731.3021, 4.877861
731.7842, 4.595562
732.2664, 4.448673
732.7485, 4.397144
733.2306, 4.508228
733.7127, 4.680958
734.1948, 4.413540
734.6769, 3.183407
735.1591, 2.480301
735.6412, 2.669495
736.1233, 2.989170
736.6054, 3.073845
737.0875, 3.018147
737.5696, 3.074974
738.0518, 3.354393
738.5339, 3.565815
739.0160, 3.369289
739.4981, 2.986774
739.9802, 2.876209
740.4623, 3.031261
740.9445, 3.086514
741.4266, 2.843517
741.9087, 2.478397
742.3908, 2.289276
742.8729, 2.267277
743.3550, 2.457264
743.8372, 3.173119
744.3193, 3.721161
744.8014, 3.904079
745.2835, 3.833874
745.7656, 3.535152
746.2477, 3.043026
746.7299, 2.707821
747.2120, 2.875904
747.6941, 3.183594
748.1762, 3.165916
748.6583, 2.929985
749.1404, 2.846619
749.6226, 3.019600
750.1047, 3.246716
750.5868, 3.336990
751.0689, 3.289829
751.5510, 3.079308
752.0331, 2.562592
752.5153, 2.159672
752.9974, 1.927402
753.4795, 1.836807
753.9616, 1.885242
754.4437, 2.063286
754.9258, 2.390556
755.4080, 3.099133
755.8901, 3.517773
756.3722, 2.899982
756.8543, 1.843052
757.3364, 1.136089
757.8185, 0.9005550
758.3007, 1.180275
758.7828, 2.068462
759.2649, 3.090076
759.7470, 3.089176
760.2291, 1.733959
760.7112, 0.9844820
761.1934, 1.219753
761.6755, 1.539097
762.1576, 1.498344
762.6397, 1.312046
763.1218, 1.291424
763.6039, 1.499432
764.0861, 1.516697
764.5682, 0.9703410
765.0503, 0.3901410
765.5324, 9.7686999E-02
766.0145, 0.1102870
766.4966, 0.5567550
766.9788, 1.407078
767.4609, 2.141548
767.9430, 2.159462
768.4251, 1.640732
768.9072, 1.582577
769.3893, 2.137142
769.8715, 2.317329
770.3536, 1.620621
770.8357, 0.8510590
771.3178, 0.9276120
771.7999, 1.637733
772.2820, 1.870159
772.7642, 1.192230
773.2463, 0.5302010
773.7284, 3.1113001E-02
774.2105, 0.2698440
774.6926, 0.2097630
775.1747, 7.9163000E-02
775.6569, 0.2259980
776.1390, 3.4118999E-02
776.6211, 0.2532010
777.1032, 0.2551420
777.5853, 4.0173002E-02
778.0674, 6.7226000E-02
778.5496, 0.4136700
779.0317, 0.5584530
779.5138, 0.1332860
779.9959, 0.4629820
780.4780, 0.4689750
780.9601, 0.3734090
781.4423, 0.7508810
781.9244, 0.2855450
782.4065, 0.1628880
782.8886, 0.3145790
783.3707, 0.3150710
783.8528, 0.3433570
784.3350, 0.4122280
784.8171, 0.3915790
785.2992, 7.7414997E-02
785.7813, 0.2273640
786.2634, 2.7799999E-04
786.7455, 0.5718000
787.2277, 0.8759270
787.7098, 0.7898640
788.1919, 0.4968950
788.6740, 9.2945002E-02
789.1561, 0.3322600
789.6382, 0.4109500
790.1204, 8.8767998E-02
790.6025, 0.3736380
791.0846, 0.2647210
791.5667, 8.4934004E-02
792.0488, 0.1642760
792.5309, 0.3407520
793.0131, 0.1456600
793.4952, 0.5430070
793.9773, 1.048653
794.4594, 0.8109320
794.9415, 0.4569280
795.4236, 0.7142560
795.9058, 1.311943
796.3879, 1.493931
796.8700, 1.059811
797.3521, 0.5450550
797.8342, 0.5160940
798.3163, 0.8785440
798.7985, 1.189072
799.2806, 1.486279
799.7627, 1.461464
800.2448, 0.8095890
800.7269, 0.2082100
801.2090, 0.3417660
801.6912, 1.059811
802.1733, 1.494865
802.6554, 1.490089
803.1375, 1.447674
803.6196, 1.293297
804.1017, 1.258007
804.5839, 1.790897
805.0660, 2.517303
805.5481, 2.525982
806.0302, 1.474899
806.5123, 0.3949970
806.9944, 0.4071770
807.4766, 1.136761
807.9587, 1.793461
808.4408, 2.333851
808.9229, 2.582603
809.4050, 2.447678
809.8871, 2.167423
810.3693, 2.008698
810.8514, 1.971828
811.3335, 2.030853
811.8156, 2.313889
812.2977, 2.478157
812.7798, 2.360214
813.2620, 2.215145
813.7441, 2.258228
814.2262, 2.410702
814.7083, 2.405132
815.1904, 2.069229
815.6725, 1.832249
816.1547, 1.998852
816.6368, 2.344799
817.1189, 2.658646
817.6010, 2.912941
818.0831, 3.105068
818.5652, 3.234871
819.0474, 3.324581
819.5295, 3.386684
820.0116, 3.429043
820.4937, 3.569710
820.9758, 3.855835
821.4579, 3.934673
821.9401, 3.611130
822.4222, 3.187374
822.9043, 3.009476
823.3864, 3.059669
823.8685, 2.933968
824.3506, 2.053802
824.8328, 1.819405
825.3149, 3.196915
825.7970, 4.621365
826.2791, 4.910023
826.7612, 4.328957
827.2433, 3.642181
827.7255, 3.075272
828.2076, 2.789520
828.6897, 3.167843
829.1718, 3.795612
829.6539, 3.904221
830.1360, 3.589844
830.6182, 3.440479
831.1003, 3.657104
831.5824, 4.001404
832.0645, 4.242672
832.5466, 4.388474
833.0287, 4.239326
833.5109, 3.588741
833.9930, 3.285667
834.4751, 3.766251
834.9572, 4.274483
835.4393, 4.052280
835.9214, 3.375092
836.4036, 3.060978
836.8857, 3.415775
837.3678, 3.699543
837.8499, 3.773289
838.3320, 3.625294
838.8141, 2.978348
839.2963, 2.162247
839.7784, 1.831814
840.2605, 2.144272
840.7426, 2.698006
841.2247, 3.352810
841.7068, 3.923584
842.1890, 3.912128
842.6711, 3.424389
843.1532, 3.070107
843.6353, 2.997627
844.1174, 3.159050
844.5995, 3.546139
845.0817, 4.056133
845.5638, 4.172501
846.0459, 3.655510
846.5280, 3.430843
847.0101, 3.830757
847.4922, 4.161678
847.9744, 3.902737
848.4565, 3.447926
848.9386, 3.447079
849.4207, 3.995029
849.9028, 4.451603
850.3849, 4.789040
850.8671, 4.853416
851.3492, 4.212063
851.8313, 3.387482
852.3134, 3.222851
852.7955, 3.725742
853.2776, 4.065502
853.7598, 3.599091
854.2419, 2.868572
854.7240, 2.774590
855.2061, 3.139374
855.6882, 3.196251
856.1703, 2.857193
856.6525, 2.626484
857.1346, 2.806309
857.6167, 3.186256
858.0988, 3.383198
858.5809, 3.392185
859.0630, 3.227623
859.5452, 2.723766
860.0273, 2.336056
860.5094, 2.262249
860.9915, 2.320263
861.4736, 2.325722
861.9557, 2.306488
862.4379, 2.453114
862.9200, 3.164738
863.4021, 3.531315
863.8842, 2.956177
864.3663, 2.139404
864.8484, 1.608711
865.3306, 1.371681
865.8127, 1.284382
866.2948, 1.292286
866.7769, 1.370327
867.2590, 1.530571
867.7411, 1.728382
868.2233, 1.925945
868.7054, 2.088703
869.1875, 2.015198
869.6696, 1.645676
870.1517, 1.139137
870.6339, 0.6009030
871.1160, 0.1045910
871.5981, 7.0079998E-03
872.0802, 0.3992500
872.5623, 0.8944590
873.0444, 1.653152
873.5266, 2.179329
874.0087, 2.075905
874.4908, 1.610394
874.9729, 1.259098
875.4550, 1.042343
875.9371, 0.9413870
876.4193, 0.9787180
876.9014, 1.057339
877.3835, 1.106094
877.8656, 1.201900
878.3477, 1.560505
878.8298, 2.079567
879.3120, 2.177132
879.7941, 1.353645
880.2762, 0.5125960
880.7583, 0.7627750
881.2404, 1.489582
881.7225, 1.549004
882.2047, 0.9879000
882.6868, 0.4920200
883.1689, 0.3574750
883.6510, 0.3933260
884.1331, 0.3473240
884.6152, 0.2492870
885.0974, 0.4037360
885.5795, 0.9143410
886.0616, 1.136147
886.5437, 0.8046610
887.0258, 0.3314860
887.5079, 4.1115001E-02
887.9901, 0.2243690
888.4722, 1.0281000E-02
888.9543, 1.102066
889.4364, 1.661758
889.9185, 1.259304
890.4006, 0.7598880
890.8828, 0.3315390
891.3649, 9.1647997E-02
891.8470, 0.1418380
892.3291, 0.4904170
892.8112, 1.107632
893.2933, 2.413631
893.7755, 3.585243
894.2576, 4.209152
894.7397, 4.361721
895.2218, 3.909832
895.7039, 3.020199
896.1860, 2.171539
896.6682, 1.599968
897.1503, 1.313343
897.6324, 1.468712
898.1145, 1.847473
898.5966, 1.694118
899.0787, 1.057793
899.5609, 0.5952950
900.0430, 0.5229260
900.5251, 0.6812440
901.0072, 0.9571080
901.4893, 1.326694
901.9714, 1.598289
902.4536, 1.784393
902.9357, 1.812843
903.4178, 1.594723
903.8999, 1.368183
904.3820, 1.296169
904.8641, 1.272064
905.3463, 1.034950
905.8284, 0.5125660
906.3105, 0.3759690
906.7926, 1.166355
907.2747, 1.716579
907.7568, 1.455750
908.2390, 0.9836460
908.7211, 0.7743870
909.2032, 0.8361550
909.6853, 1.030945
910.1674, 1.355083
910.6495, 1.620327
911.1317, 1.631153
911.6138, 1.573162
912.0959, 1.705353
912.5780, 1.934196
913.0601, 1.926620
913.5422, 1.643917
914.0244, 1.574913
914.5065, 2.294819
914.9886, 3.238224
915.4707, 3.013763
915.9528, 1.843155
916.4349, 1.128189
916.9171, 1.061596
917.3992, 1.314587
917.8813, 1.771244
918.3634, 2.208065
918.8455, 2.211178
919.3276, 1.743484
919.8098, 1.509224
920.2919, 1.588524
920.7740, 1.702282
921.2561, 1.837177
921.7382, 1.919872
922.2203, 1.820347
922.7025, 1.616974
923.1846, 1.637177
923.6667, 2.134090
924.1488, 2.302097
924.6309, 1.740574
925.1130, 1.207584
925.5952, 1.092960
926.0773, 1.172260
926.5594, 1.120148
927.0415, 0.9349630
927.5236, 0.9340670
928.0057, 1.411247
928.4879, 1.870487
928.9700, 1.988815
929.4521, 1.909969
929.9342, 1.764805
930.4163, 1.584141
930.8984, 1.403610
931.3806, 1.233734
931.8627, 1.006466
932.3448, 0.5861930
932.8269, 9.9403001E-02
933.3090, 0.2460250
933.7911, 0.4304890
934.2733, 0.2474020
934.7554, 0.3109820
935.2375, 0.6744190
935.7196, 0.4342350
936.2017, 0.1165280
936.6838, 0.3671610
937.1660, 0.3054430
937.6481, 0.1993790
938.1302, 4.3331001E-02
938.6123, 0.1203190
939.0944, 0.2834780
939.5765, 0.4374730
940.0587, 0.5849000
940.5408, 0.7164380
941.0229, 0.7746890
941.5050, 0.8355560
941.9871, 0.6881030
942.4692, 0.1438830
942.9514, 0.4019470
943.4335, 0.9911770
943.9156, 1.385197
944.3977, 1.077263
944.8798, 7.2811000E-02
945.3619, 0.3827020
945.8441, 0.4507480
946.3262, 1.214710
946.8083, 1.412212
947.2904, 1.373363
947.7725, 1.327019
948.2546, 1.282166
948.7368, 1.211514
949.2189, 1.106743
949.7010, 0.8710590
950.1831, 0.1793940
950.6652, 0.4526670
951.1473, 0.4234620
951.6295, 2.4212001E-02
952.1116, 0.5863720
952.5937, 1.108547
953.0758, 1.238586
953.5579, 0.7376140
954.0400, 9.8915003E-02
954.5222, 9.5271997E-02
955.0043, 0.2015800
955.4864, 0.3258900
955.9685, 0.1134720
956.4506, 0.2188680
956.9327, 0.3064000
957.4149, 0.8204230
957.8970, 0.7337190
958.3791, 0.2004090
958.8612, 0.3678740
959.3433, 0.9928280
959.8254, 1.200138
960.3076, 0.8216170
960.7897, 0.6542240
961.2718, 1.109104
961.7539, 1.779568
962.2360, 2.162022
962.7181, 2.268814
963.2003, 2.342251
963.6824, 2.396324
964.1645, 2.354717
964.6466, 1.998695
965.1287, 1.850254
965.6108, 2.398148
966.0930, 3.229012
966.5751, 3.739296
967.0572, 3.898354
967.5393, 4.011742
968.0214, 3.885799
968.5035, 4.013718
968.9857, 4.827881
969.4678, 5.671902
969.9499, 5.968464
970.4320, 5.917286
970.9141, 6.022411
971.3962, 6.399376
971.8784, 6.931168
972.3605, 7.803432
972.8426, 8.550579
973.3247, 8.763653
973.8068, 8.714966
974.2889, 8.719383
974.7711, 8.822124
975.2532, 8.955837
975.7353, 9.087612
976.2174, 9.241119
976.6995, 9.463364
977.1816, 9.702972
977.6638, 9.932625
978.1459, 10.11041
978.6280, 10.07248
979.1101, 9.833771
979.5922, 9.734974
980.0743, 10.06078
980.5565, 10.44272
981.0386, 10.12719
981.5207, 9.369949
982.0028, 9.093582
982.4849, 9.318604
982.9670, 9.768925
983.4492, 10.35307
983.9313, 10.88567
984.4134, 11.19475
984.8955, 11.31258
985.3776, 11.30476
985.8597, 11.16405
986.3419, 11.11159
986.8240, 11.15358
987.3061, 11.35314
987.7882, 11.73825
988.2703, 12.31197
988.7524, 13.15623
989.2346, 14.20824
989.7167, 14.72493
990.1988, 14.50236
990.6809, 14.34510
991.1630, 14.32310
991.6451, 14.39492
992.1273, 14.65953
992.6094, 14.95510
993.0915, 14.91788
993.5736, 14.50758
994.0557, 14.38266
994.5378, 14.74014
995.0200, 15.14314
995.5021, 15.64731
995.9842, 16.09029
996.4663, 16.38659
996.9484, 16.56082
997.4305, 16.59811
997.9127, 16.47176
998.3948, 16.55244
998.8769, 17.00603
999.3590, 17.53448
999.8411, 18.24366
1000.323, 18.81221
1000.805, 18.77580
1001.287, 18.43108
1001.770, 18.46420
1002.252, 19.08821
1002.734, 19.69281
1003.216, 19.88678
1003.698, 19.96423
1004.180, 19.98166
1004.662, 20.09702
1005.144, 20.52950
1005.627, 21.17983
1006.109, 21.74569
1006.591, 22.12046
1007.073, 22.49689
1007.555, 23.00526
1008.037, 23.61510
1008.519, 24.31260
1009.001, 24.99461
1009.483, 25.43288
1009.966, 25.67045
1010.448, 26.06504
1010.930, 26.81699
1011.412, 27.58665
1011.894, 27.89175
1012.376, 28.00597
1012.858, 28.37758
1013.340, 28.96148
1013.823, 29.83427
1014.305, 30.84894
1014.787, 31.16290
1015.269, 30.23623
1015.751, 29.10421
1016.233, 29.25764
1016.715, 30.25460
1017.197, 30.90361
1017.679, 31.26897
1018.162, 31.81168
1018.644, 32.61180
1019.126, 33.33599
1019.608, 33.75151
1020.090, 34.03091
1020.572, 34.51308
1021.054, 35.14425
1021.536, 35.42416
1022.018, 35.37759
1022.501, 35.89347
1022.983, 37.21775
1023.465, 38.66311
1023.947, 39.73269
1024.429, 40.58940
1024.911, 41.58186
1025.393, 42.71481
1025.875, 43.85395
1026.358, 45.01619
1026.840, 46.04473
1027.322, 46.89825
1027.804, 47.58856
1028.286, 48.07068
1028.768, 48.49349
1029.250, 49.26709
1029.732, 50.45377
1030.214, 51.52216
1030.697, 52.55984
1031.179, 53.08593
1031.661, 52.69791
1032.143, 52.45630
1032.625, 53.41109
1033.107, 54.95229
1033.589, 55.26198
1034.071, 53.94768
1034.553, 53.14338
1035.036, 52.80757
1035.518, 53.09777
1036.000, 54.36357
1036.482, 55.81787
1036.964, 56.87228
1037.446, 57.63209
1037.928, 58.36309
1038.410, 59.00069
1038.893, 59.84791
1039.375, 61.02784
1039.857, 62.22414
1040.339, 63.37236
1040.821, 64.50657
1041.303, 65.64651
1041.785, 66.79313
1042.267, 67.93684
1042.750, 69.11847
1043.232, 70.15730
1043.714, 70.76572
1044.196, 71.61224
1044.678, 73.10897
1045.160, 74.64529
1045.642, 75.88481
1046.124, 76.79115
1046.606, 77.38757
1047.089, 77.80988
1047.571, 77.31438
1048.053, 75.15090
1048.535, 72.97202
1049.017, 71.42918
1049.499, 69.84341
1049.981, 67.63608
1050.463, 64.98025
1050.945, 62.34879
1051.428, 59.86780
1051.910, 56.93333
1052.392, 52.74093
1052.874, 49.02182
1053.356, 46.68690
1053.838, 44.66207
1054.320, 42.21828
1054.802, 39.43509
1055.285, 36.42694
1055.767, 33.17068
1056.249, 30.68266
1056.731, 29.88725
1057.213, 28.94984
1057.695, 26.95496
1058.177, 24.83045
1058.659, 23.16070
1059.141, 21.89772
1059.624, 20.92263
1060.106, 20.22795
1060.588, 19.56733
1061.070, 19.00308
1061.552, 18.25879
1062.034, 16.98443
1062.516, 15.73310
1062.998, 15.03484
1063.480, 14.61533
1063.963, 13.90490
1064.445, 12.84195
1064.927, 12.01578
1065.409, 11.77143
1065.891, 11.58298
1066.373, 11.40862
1066.855, 11.05989
1067.337, 10.20879
1067.820, 9.157379
1068.302, 8.327339
1068.784, 7.774334
1069.266, 7.278252
1069.748, 6.702518
1070.230, 6.290535
1070.712, 6.384754
1071.194, 6.386482
1071.677, 5.743332
1072.159, 4.827328
1072.641, 4.030006
1073.123, 3.437149
1073.605, 3.131260
1074.087, 3.272900
1074.569, 3.387550
1075.051, 3.175270
1075.533, 2.941597
1076.016, 2.984577
1076.498, 3.088337
1076.980, 2.836800
1077.462, 2.337669
1077.944, 2.229530
1078.426, 2.875256
1078.908, 3.440529
1079.390, 3.409016
1079.873, 3.243725
1080.355, 3.324963
1080.837, 3.448055
1081.319, 3.293697
1081.801, 2.976017
1082.283, 2.873493
1082.765, 3.083073
1083.247, 3.598801
1083.729, 4.836372
1084.212, 5.878128
1084.694, 6.052021
1085.176, 5.873497
1085.658, 5.795265
1086.140, 5.847210
1086.622, 5.899162
1087.104, 5.909554
1087.586, 6.201591
1088.068, 7.127911
1088.551, 8.091835
1089.033, 8.938927
1089.515, 9.566971
1089.997, 9.698235
1090.479, 9.623878
1090.961, 9.903316
1091.443, 10.62138
1091.925, 11.32617
1092.408, 11.97643
1092.890, 12.40816
1093.372, 12.58355
1093.854, 12.49091
1094.336, 11.89761
1094.818, 11.15335
1095.300, 10.80702
1095.782, 10.86436
1096.265, 10.81548
1096.747, 10.51433
1097.229, 10.08393
1097.711, 9.684212
1098.193, 9.032169
1098.675, 7.636791
1099.157, 6.126663
1099.639, 5.317455
1100.121, 5.093807
1100.604, 4.657093
1101.086, 3.680309
1101.568, 2.977371
1102.050, 2.986248
1102.532, 3.028313
1103.014, 2.875549
1103.496, 2.565468
1103.978, 2.037159
1104.460, 1.407730
1104.943, 0.9771270
1105.425, 0.8377760
1105.907, 0.6020580
1106.389, 7.5870998E-02
1106.871, 0.4817240
1107.353, 0.1374660
1107.835, 0.2726170
1108.317, 0.2588920
1108.800, 3.1430000E-03
1109.282, 0.2204250
1109.764, 0.3750040
1110.246, 0.4008260
1110.728, 0.1565630
1111.210, 1.1345000E-02
1111.692, 0.2099490
1112.174, 0.1461220
1112.656, 0.6500850
1113.139, 1.569530
1113.621, 1.905273
1114.103, 1.670467
1114.585, 1.110359
1115.067, 0.3263930
1115.549, 1.085739
1116.031, 0.8942790
1116.513, 0.3930590
1116.995, 0.6494030
1117.478, 1.462952
1117.960, 1.164497
1118.442, 0.1511880
1118.924, 0.2911870
1119.406, 4.6009999E-03
1119.888, 0.2131420
1120.370, 0.3109890
1120.852, 0.3641050
1121.335, 0.3389130
1121.817, 0.3700560
1122.299, 0.6537700
1122.781, 0.9207650
1123.263, 0.5949630
1123.745, 0.3461380
1124.227, 0.6768040
1124.709, 0.1875530
1125.192, 0.1605450
1125.674, 0.2081150
1126.156, 0.2256930
1126.638, 0.3286170
1127.120, 0.5108830
1127.602, 0.8375930
1128.084, 1.168396
1128.566, 0.6869700
1129.048, 0.7437780
1129.531, 1.527214
1130.013, 1.524158
1130.495, 1.516037
1130.977, 1.769943
1131.459, 1.937954
1131.941, 1.710388
1132.423, 1.281967
1132.905, 1.046204
1133.387, 1.004032
1133.870, 1.221954
1134.352, 1.675407
1134.834, 1.665123
1135.316, 1.064346
1135.798, 0.4175300
1136.280, 7.4080001E-03
1136.762, 8.6048000E-02
1137.244, 0.3670580
1137.727, 0.2589910
1138.209, 0.5116310
1138.691, 0.8033600
1139.173, 0.9199750
1139.655, 1.507629
1140.137, 1.734882
1140.619, 1.355984
1141.101, 1.115398
1141.583, 1.671673
1142.066, 2.517948
1142.548, 3.007610
1143.030, 3.148876
1143.512, 2.706470
1143.994, 1.979767
1144.476, 1.832535
1144.958, 2.313774
1145.440, 2.762962
1145.922, 2.862286
1146.405, 2.756985
1146.887, 2.420292
1147.369, 2.139309
1147.851, 2.375168
1148.333, 2.798740
1148.815, 2.919285
1149.297, 2.778667
1149.779, 2.565140
1150.262, 2.364429
1150.744, 2.310097
1151.226, 2.548580
1151.708, 2.840046
1152.190, 3.101482
1152.672, 3.279556
1153.154, 3.113491
1153.636, 2.968399
1154.119, 3.607838
1154.601, 4.818478
1155.083, 5.320839
1155.565, 4.556362
1156.047, 3.823231
1156.529, 3.657200
1157.011, 3.467739
1157.493, 2.792797
1157.975, 2.176952
1158.458, 2.192783
1158.940, 2.578819
1159.422, 2.755123
1159.904, 2.661922
1160.386, 2.547798
1160.868, 2.433704
1161.350, 2.297592
1161.832, 2.075794
1162.314, 1.908062
1162.797, 1.767391
1163.279, 1.800186
1163.761, 2.291378
1164.243, 3.079979
1164.725, 3.358192
1165.207, 2.912827
1165.689, 2.832512
1166.171, 3.292320
1166.654, 3.576023
1167.136, 3.474388
1167.618, 3.258141
1168.100, 3.094666
1168.582, 2.969482
1169.064, 2.818424
1169.546, 2.658581
1170.028, 2.743542
1170.510, 3.056591
1170.993, 2.983128
1171.475, 2.483330
1171.957, 2.360439
1172.439, 2.941158
1172.921, 3.377842
1173.403, 2.742630
1173.885, 3.013981
1174.367, 2.806984
1174.849, 2.444790
1175.332, 2.397217
1175.814, 1.852818
1176.296, 1.796715
1176.778, 2.253147
1177.260, 2.497410
1177.742, 2.181416
1178.224, 1.765263
1178.706, 1.696129
1179.189, 1.514359
1179.671, 1.659779
1180.153, 1.520226
1180.635, 1.645039
1181.117, 1.947300
1181.599, 2.196072
1182.081, 2.264034
1182.563, 2.057777
1183.046, 1.427830
1183.528, 0.8146930
1184.010, 0.4924580
1184.492, 0.2495540
1184.974, 0.1435620
1185.456, 0.4771080
1185.938, 0.4637910
1186.420, 0.1621130
1186.902, 0.1993830
1187.385, 0.5227510
1187.867, 0.7137600
1188.349, 0.6109580
1188.831, 0.6271440
1189.313, 0.9596560
1189.795, 1.178288
1190.277, 0.9456860
1190.759, 0.6450770
1191.241, 0.6868480
1191.724, 0.9806400
1192.206, 1.173347
1192.688, 1.245743
1193.170, 1.268528
1193.652, 1.164745
1194.134, 1.255474
1194.616, 1.753002
1195.098, 2.037182
1195.581, 1.657852
1196.063, 1.010918
1196.545, 0.5632930
1197.027, 0.3310360
1197.509, 0.5299680
1197.991, 1.104820
1198.473, 1.467175
1198.955, 1.592560
1199.438, 1.595970
1199.920, 1.518238
1200.402, 1.472153
1200.884, 1.543713
1201.366, 1.573204
1201.848, 1.193130
1202.330, 0.7071610
1202.812, 0.8488540
1203.294, 0.5447620
1203.776, 1.149738
1204.259, 0.6514020
1204.741, 0.6464500
1205.223, 1.285427
1205.705, 1.649075
1206.187, 1.007652
1206.669, 0.5006830
1207.151, 1.240116
1207.633, 2.073059
1208.116, 2.029369
1208.598, 1.615448
1209.080, 1.450195
1209.562, 1.473289
1210.044, 1.302513
1210.526, 0.8428610
1211.008, 0.6011920
1211.490, 0.6909900
1211.973, 0.9833980
1212.455, 1.830391
1212.937, 2.383625
1213.419, 2.024975
1213.901, 1.481159
1214.383, 1.539757
1214.865, 1.246662
1215.347, 1.131577
1215.829, 1.292149
1216.312, 1.186256
1216.794, 1.741741
1217.276, 2.224808
1217.758, 2.524750
1218.240, 2.637264
1218.722, 2.546616
1219.204, 2.435596
1219.686, 2.506149
1220.168, 2.713638
1220.651, 2.965664
1221.133, 3.248665
1221.615, 3.536049
1222.097, 3.790123
1222.579, 3.856232
1223.061, 3.728603
1223.543, 3.548916
1224.025, 3.384609
1224.508, 3.178085
1224.990, 2.700726
1225.472, 2.377842
1225.954, 2.857174
1226.436, 3.538029
1226.918, 3.772766
1227.400, 3.681229
1227.882, 3.465939
1228.365, 3.210739
1228.847, 3.110092
1229.329, 3.280262
1229.811, 3.251530
1230.293, 2.603931
1230.775, 2.140907
1231.257, 2.263229
1231.739, 2.500099
1232.221, 2.699024
1232.703, 2.723431
1233.186, 2.246403
1233.668, 2.353962
1234.150, 2.347931
1234.632, 2.088764
1235.114, 2.465801
1235.596, 2.276310
1236.078, 2.064281
1236.560, 2.111263
1237.043, 2.162376
1237.525, 2.039768
1238.007, 1.769402
1238.489, 1.298161
1238.971, 0.7573550
1239.453, 0.4749640
1239.935, 0.4097210
1240.417, 0.5495340
1240.900, 0.8050580
1241.382, 0.8537520
1241.864, 0.6726040
1242.346, 0.5497060
1242.828, 0.5765500
1243.310, 0.7563860
1243.792, 1.376987
1244.274, 1.805103
1244.756, 1.397709
1245.239, 0.7144510
1245.721, 1.6972000E-02
1246.203, 0.4337160
1246.685, 0.1892780
1247.167, 0.6460000
1247.649, 1.253155
1248.131, 1.511387
1248.613, 1.475254
1249.095, 0.8339270
1249.578, 0.4389040
1250.060, 0.5508230
1250.542, 0.7253720
1251.024, 0.7750320
1251.506, 0.7154960
1251.988, 0.5160030
1252.470, 0.2590830
1252.952, 0.3547130
1253.435, 0.1843990
1253.917, 9.2580002E-03
1254.399, 0.1605800
1254.881, 0.1481780
1255.363, 2.7786000E-02
1255.845, 0.3974760
1256.327, 1.057465
1256.809, 1.579929
1257.292, 1.610073
1257.774, 1.315460
1258.256, 0.6631510
1258.738, 4.0256999E-02
1259.220, 2.4403000E-02
1259.702, 0.4282910
1260.184, 1.033470
1260.666, 1.680378
1261.148, 2.097660
1261.630, 2.210083
1262.113, 2.189594
1262.595, 2.003216
1263.077, 1.823090
1263.559, 1.764839
1264.041, 1.682236
1264.523, 1.410240
1265.005, 1.174240
1265.487, 1.169090
1265.970, 1.298363
1266.452, 1.314030
1266.934, 1.518250
1267.416, 1.616249
1267.898, 1.618874
1268.380, 1.237122
1268.862, 0.4061850
1269.344, 2.5162000E-02
1269.827, 0.2315860
1270.309, 0.5858760
1270.791, 0.5886040
1271.273, 0.5139430
1271.755, 0.3314900
1272.237, 0.2309650
1272.719, 0.8123170
1273.201, 1.624744
1273.683, 1.565990
1274.166, 0.8970030
1274.648, 0.2709620
1275.130, 7.6237001E-02
1275.612, 0.2158130
1276.094, 1.565754
1276.576, 2.309402
1277.058, 1.045219
1277.540, 4.5547001E-02
1278.022, 0.4294360
1278.505, 1.112122
1278.987, 1.401077
1279.469, 1.410629
1279.951, 1.202297
1280.433, 0.8606530
1280.915, 0.7873150
1281.397, 1.171196
1281.879, 1.304428
1282.362, 1.204414
1282.844, 1.142483
1283.326, 1.166088
1283.808, 0.9697490
1284.290, 0.4177780
1284.772, 4.8940000E-03
1285.254, 6.6246003E-02
1285.736, 0.0000000E+00
##END=



