##NAMES=Faheyite
##RRUFFID=R100084
##IDEAL CHEMISTRY=Be_2_Mn^2+^Fe^3+^_2_(PO_4_)_4_&#183;6H_2_O
##LOCALITY=Sapucaia mine, Galil√©ia, Minas Gerais, Brazil
##OWNER=RRUFF
##SOURCE=Royal Ontaario Museum
##DESCRIPTION=Parallel aggregates of white fibrous acicular crystals associated with muscovite
##STATUS=The identification of this mineral is not yet confirmed.
##URL=rruff.info/R100084
157.9885, 0.0000000E+00
158.4706, 2.208191
158.9528, 2.109924
159.4349, 0.1998900
159.9170, 1.165161
160.3991, 1.115662
160.8812, 0.7749630
161.3633, 4.803833
161.8455, 10.20496
162.3276, 16.59393
162.8097, 23.61255
163.2918, 31.94763
163.7739, 42.01117
164.2560, 52.56128
164.7382, 58.21997
165.2203, 62.56659
165.7024, 67.40613
166.1845, 72.87695
166.6666, 79.12549
167.1487, 85.61438
167.6309, 92.29510
168.1130, 99.11786
168.5951, 105.8022
169.0772, 113.0577
169.5593, 119.7906
170.0414, 124.8121
170.5236, 127.2904
171.0057, 129.5892
171.4878, 133.7437
171.9699, 139.2599
172.4520, 144.5060
172.9341, 148.8055
173.4163, 152.3124
173.8984, 155.0637
174.3805, 156.6599
174.8626, 158.1871
175.3447, 161.6343
175.8268, 166.4061
176.3090, 169.7406
176.7911, 168.9908
177.2732, 165.6898
177.7553, 162.2998
178.2374, 159.6395
178.7195, 156.9124
179.2017, 153.1986
179.6838, 148.5039
180.1659, 143.0399
180.6480, 136.1689
181.1301, 128.6227
181.6122, 122.0508
182.0944, 117.3523
182.5765, 113.5665
183.0586, 108.9556
183.5407, 103.5843
184.0228, 98.05096
184.5049, 92.37646
184.9871, 86.85468
185.4692, 82.75446
185.9513, 80.65179
186.4334, 80.10962
186.9155, 80.50043
187.3976, 81.88770
187.8798, 83.12006
188.3619, 82.52728
188.8440, 80.46405
189.3261, 79.21124
189.8082, 80.27338
190.2903, 82.72809
190.7725, 83.14191
191.2546, 81.34772
191.7367, 78.51044
192.2188, 75.67651
192.7009, 72.84406
193.1830, 70.36035
193.6652, 68.89282
194.1473, 68.06519
194.6294, 65.09711
195.1115, 59.49481
195.5936, 53.39838
196.0757, 49.73206
196.5579, 48.55634
197.0400, 47.87091
197.5221, 46.95801
198.0042, 45.84363
198.4863, 44.82880
198.9684, 43.83142
199.4506, 43.14093
199.9327, 43.11511
200.4148, 43.74353
200.8969, 45.07690
201.3790, 47.42200
201.8611, 50.80884
202.3433, 53.46808
202.8254, 54.86627
203.3075, 56.39587
203.7896, 60.88855
204.2717, 69.00726
204.7538, 76.72693
205.2360, 81.94843
205.7181, 84.27161
206.2002, 87.82739
206.6823, 92.97864
207.1644, 98.90784
207.6465, 104.2661
208.1287, 109.0587
208.6108, 113.0911
209.0929, 116.1788
209.5750, 118.2159
210.0571, 120.0189
210.5392, 121.6985
211.0214, 123.1180
211.5035, 124.1041
211.9856, 124.8636
212.4677, 124.6659
212.9498, 122.8574
213.4319, 118.8826
213.9140, 115.7618
214.3962, 113.7047
214.8783, 112.3795
215.3604, 111.0880
215.8425, 108.9761
216.3246, 106.8715
216.8067, 104.5276
217.2889, 101.5149
217.7710, 99.81488
218.2531, 99.82117
218.7352, 100.9575
219.2173, 101.9683
219.6994, 102.9732
220.1816, 103.5942
220.6637, 103.5105
221.1458, 102.1743
221.6279, 101.7861
222.1100, 102.7710
222.5921, 104.5812
223.0743, 105.7213
223.5564, 105.6275
224.0385, 105.8852
224.5206, 107.2310
225.0027, 109.9803
225.4848, 113.1541
225.9670, 117.1016
226.4491, 121.3278
226.9312, 124.4545
227.4133, 125.6730
227.8954, 127.0627
228.3775, 129.5078
228.8597, 133.2637
229.3418, 137.4316
229.8239, 141.5634
230.3060, 146.1836
230.7881, 152.7771
231.2702, 162.3782
231.7524, 172.4711
232.2345, 181.8644
232.7166, 190.6826
233.1987, 198.6958
233.6808, 205.1125
234.1629, 210.8868
234.6451, 218.8491
235.1272, 229.9438
235.6093, 241.7751
236.0914, 253.4362
236.5735, 265.2126
237.0556, 276.1616
237.5378, 285.6487
238.0199, 294.5427
238.5020, 305.3147
238.9841, 320.3352
239.4662, 334.0427
239.9483, 343.9393
240.4305, 348.4303
240.9126, 352.3578
241.3947, 355.3222
241.8768, 357.8055
242.3589, 361.2449
242.8410, 366.9053
243.3232, 371.7245
243.8053, 374.1017
244.2874, 372.8422
244.7695, 371.8298
245.2516, 371.6714
245.7337, 371.5438
246.2159, 369.7024
246.6980, 366.3105
247.1801, 361.2814
247.6622, 353.9021
248.1443, 342.5309
248.6264, 332.9543
249.1086, 326.0594
249.5907, 320.3428
250.0728, 312.7386
250.5549, 302.5964
251.0370, 291.8096
251.5191, 280.9214
252.0013, 269.8719
252.4834, 259.1345
252.9655, 248.1656
253.4476, 237.7570
253.9297, 229.5998
254.4118, 224.3569
254.8940, 220.3019
255.3761, 217.0158
255.8582, 214.6560
256.3403, 212.3129
256.8224, 209.6633
257.3046, 206.9780
257.7867, 204.8257
258.2688, 203.2363
258.7509, 202.6819
259.2330, 203.5467
259.7151, 206.1400
260.1973, 208.0217
260.6794, 209.0580
261.1615, 209.3665
261.6436, 208.7501
262.1257, 206.4901
262.6078, 205.0900
263.0900, 205.2747
263.5721, 207.0931
264.0542, 210.3034
264.5363, 216.0292
265.0184, 221.8053
265.5005, 224.2640
265.9827, 222.1758
266.4648, 220.2188
266.9469, 219.6981
267.4290, 220.6285
267.9111, 221.6318
268.3932, 222.6613
268.8754, 223.8076
269.3575, 225.2590
269.8396, 227.1833
270.3217, 228.8525
270.8038, 230.0276
271.2859, 230.7546
271.7681, 231.9283
272.2502, 234.2278
272.7323, 235.5970
273.2144, 233.5118
273.6965, 227.3684
274.1786, 221.1806
274.6608, 216.0540
275.1429, 211.6637
275.6250, 205.3472
276.1071, 196.8424
276.5892, 187.2093
277.0714, 177.4344
277.5535, 167.4467
278.0356, 157.5969
278.5177, 147.9670
278.9998, 138.5269
279.4819, 129.1151
279.9641, 119.5840
280.4462, 110.3569
280.9283, 101.6411
281.4104, 93.51093
281.8925, 86.06659
282.3746, 79.47058
282.8568, 73.46527
283.3389, 67.15875
283.8210, 60.43939
284.3031, 54.22223
284.7852, 49.03082
285.2673, 44.89362
285.7495, 41.88226
286.2316, 40.33209
286.7137, 39.40778
287.1958, 37.46448
287.6779, 34.47803
288.1600, 30.85345
288.6422, 26.34772
289.1243, 21.14624
289.6064, 16.94244
290.0885, 13.86102
290.5706, 11.68591
291.0527, 9.450439
291.5349, 7.312378
292.0170, 7.511475
292.4991, 14.48688
292.9812, 25.33453
293.4633, 28.28204
293.9454, 21.70905
294.4276, 11.72015
294.9097, 5.869141
295.3918, 3.603271
295.8739, 2.184143
296.3560, 0.2453000
296.8381, 1.786926
297.3203, 2.765808
297.8024, 2.618530
298.2845, 1.959045
298.7666, 1.053711
299.2487, 9.7228996E-02
299.7308, 0.3358150
300.2130, 0.8403320
300.6951, 2.368225
301.1772, 1.906677
301.6593, 0.5381470
302.1414, 3.308899
302.6235, 6.094177
303.1057, 8.113464
303.5878, 7.595154
304.0699, 2.106079
304.5520, 4.717468
305.0341, 8.903442
305.5162, 10.58453
305.9984, 10.97351
306.4805, 10.06403
306.9626, 8.613281
307.4447, 7.691711
307.9268, 7.683655
308.4089, 8.180542
308.8911, 9.205139
309.3732, 10.57257
309.8553, 11.49396
310.3374, 11.22430
310.8195, 10.42108
311.3016, 9.713379
311.7838, 9.227966
312.2659, 8.863403
312.7480, 9.051697
313.2301, 9.350891
313.7122, 8.687561
314.1943, 4.912476
314.6765, 1.022522
315.1586, 0.5942990
315.6407, 1.023010
316.1228, 2.677307
316.6049, 3.377869
317.0870, 3.044739
317.5692, 1.550842
318.0513, 2.689453
318.5334, 6.834717
319.0155, 9.318787
319.4976, 9.807129
319.9797, 10.21521
320.4619, 11.04559
320.9440, 12.15100
321.4261, 13.35638
321.9082, 15.19928
322.3903, 16.57281
322.8724, 16.85065
323.3546, 15.99976
323.8367, 15.57178
324.3188, 15.75909
324.8009, 16.55579
325.2830, 17.95422
325.7651, 21.55078
326.2473, 24.02533
326.7294, 24.07739
327.2115, 22.14349
327.6936, 21.60730
328.1757, 23.82324
328.6578, 26.65308
329.1400, 29.06769
329.6221, 31.36218
330.1042, 32.78564
330.5863, 32.81964
331.0684, 31.95050
331.5505, 31.60687
332.0327, 31.86975
332.5148, 32.52405
332.9969, 33.49524
333.4790, 34.75195
333.9611, 36.34845
334.4432, 38.51691
334.9254, 40.88666
335.4075, 42.73419
335.8896, 43.70605
336.3717, 44.92450
336.8538, 46.91364
337.3359, 49.84503
337.8180, 51.78290
338.3001, 52.22156
338.7823, 52.45721
339.2644, 54.03448
339.7465, 57.23749
340.2286, 60.64362
340.7107, 64.12830
341.1928, 67.58997
341.6750, 69.73383
342.1571, 70.23914
342.6392, 70.70862
343.1213, 72.75537
343.6034, 76.36688
344.0855, 79.32623
344.5677, 80.99945
345.0498, 82.04987
345.5319, 84.13306
346.0140, 87.27789
346.4961, 90.62262
346.9782, 93.76904
347.4604, 96.71252
347.9425, 98.94855
348.4246, 100.1216
348.9067, 101.6362
349.3888, 105.9357
349.8709, 112.6219
350.3531, 119.4382
350.8352, 125.3919
351.3173, 130.6638
351.7994, 135.4039
352.2815, 139.5266
352.7636, 143.9951
353.2458, 149.8378
353.7279, 156.7156
354.2100, 163.8951
354.6921, 171.0820
355.1742, 178.3119
355.6563, 185.7234
356.1385, 193.3101
356.6206, 201.1494
357.1027, 208.8656
357.5848, 216.9628
358.0669, 226.1410
358.5490, 236.8859
359.0312, 248.2949
359.5133, 260.2135
359.9954, 272.3935
360.4775, 284.5243
360.9596, 296.5841
361.4417, 308.4357
361.9239, 319.8557
362.4060, 329.9722
362.8881, 340.9072
363.3702, 354.6534
363.8523, 369.6896
364.3344, 383.6523
364.8166, 395.6833
365.2987, 406.8101
365.7808, 417.2981
366.2629, 427.3741
366.7450, 435.8658
367.2271, 442.6026
367.7093, 447.6953
368.1914, 451.3004
368.6735, 455.6205
369.1556, 456.0869
369.6377, 451.1476
370.1198, 441.2921
370.6020, 430.5665
371.0841, 419.1152
371.5662, 406.6594
372.0483, 393.3646
372.5304, 379.4624
373.0125, 363.8143
373.4947, 345.3102
373.9768, 325.3474
374.4589, 307.1600
374.9410, 291.6362
375.4231, 276.2047
375.9052, 259.5972
376.3874, 241.2908
376.8695, 224.6102
377.3516, 209.7275
377.8337, 195.8655
378.3158, 181.3573
378.7979, 165.9040
379.2801, 151.7275
379.7622, 139.4000
380.2443, 128.7750
380.7264, 118.7181
381.2085, 109.2776
381.6906, 100.3909
382.1728, 91.89526
382.6549, 83.79785
383.1370, 76.77460
383.6191, 71.04083
384.1012, 66.10071
384.5833, 61.00598
385.0655, 55.81116
385.5476, 50.97455
386.0297, 46.72076
386.5118, 42.94464
386.9939, 39.32947
387.4760, 35.85376
387.9582, 32.69965
388.4403, 30.00439
388.9224, 27.72748
389.4045, 25.79456
389.8866, 24.82178
390.3687, 23.70483
390.8509, 21.05865
391.3330, 17.06470
391.8151, 13.65607
392.2972, 12.47791
392.7793, 12.23816
393.2614, 11.67334
393.7436, 10.09894
394.2257, 8.673889
394.7078, 7.831055
395.1899, 7.516724
395.6720, 7.585571
396.1541, 9.313354
396.6363, 10.37646
397.1184, 9.316101
397.6005, 5.006958
398.0826, 1.693542
398.5647, 0.5812990
399.0468, 0.6118770
399.5290, 0.5031130
400.0111, 0.5075680
400.4932, 0.9183960
400.9753, 0.2349240
401.4574, 1.540222
401.9395, 2.901611
402.4217, 3.524414
402.9038, 4.072632
403.3859, 4.931213
403.8680, 5.976074
404.3501, 7.745667
404.8322, 10.84338
405.3144, 14.40362
405.7965, 15.86108
406.2786, 14.69733
406.7607, 13.17737
407.2428, 12.10889
407.7249, 11.48114
408.2071, 11.80139
408.6892, 13.29266
409.1713, 15.06604
409.6534, 16.11560
410.1355, 16.44720
410.6176, 16.19250
411.0998, 14.88196
411.5819, 13.33911
412.0640, 13.97479
412.5461, 16.70227
413.0282, 19.41602
413.5103, 20.09918
413.9925, 19.63196
414.4746, 19.93420
414.9567, 21.51288
415.4388, 23.35767
415.9209, 24.18872
416.4030, 24.43439
416.8852, 25.19165
417.3673, 25.86920
417.8494, 28.02338
418.3315, 34.86493
418.8136, 46.60510
419.2957, 55.05328
419.7779, 52.15759
420.2600, 45.09442
420.7421, 41.10089
421.2242, 44.54565
421.7063, 48.94183
422.1884, 52.32526
422.6706, 54.99243
423.1527, 58.18323
423.6348, 61.93213
424.1169, 66.42609
424.5990, 71.95233
425.0811, 79.36163
425.5633, 85.99457
426.0454, 91.17328
426.5275, 95.79846
427.0096, 101.0217
427.4917, 107.5388
427.9738, 113.6590
428.4560, 118.9988
428.9381, 123.5918
429.4202, 128.5422
429.9023, 133.8784
430.3844, 139.2980
430.8665, 144.6417
431.3487, 149.8973
431.8308, 154.5943
432.3129, 158.5405
432.7950, 162.0392
433.2771, 165.2874
433.7592, 168.2147
434.2414, 171.9355
434.7235, 177.5051
435.2056, 184.3824
435.6877, 190.1852
436.1698, 194.8124
436.6519, 199.4287
437.1341, 205.2084
437.6162, 211.8317
438.0983, 218.7283
438.5804, 225.9045
439.0625, 233.0536
439.5446, 239.7659
440.0268, 246.0859
440.5089, 252.2086
440.9910, 258.6468
441.4731, 264.9624
441.9552, 270.7728
442.4373, 275.8972
442.9195, 281.0043
443.4016, 287.0540
443.8837, 293.0822
444.3658, 297.9209
444.8479, 302.0983
445.3300, 304.1602
445.8122, 303.0135
446.2943, 298.9696
446.7764, 294.7369
447.2585, 291.0400
447.7406, 286.9875
448.2227, 282.1965
448.7049, 277.3391
449.1870, 270.5300
449.6691, 261.3726
450.1512, 250.4826
450.6333, 238.9330
451.1154, 226.4081
451.5976, 213.6545
452.0797, 200.7204
452.5618, 187.6379
453.0439, 175.7687
453.5260, 165.4850
454.0081, 155.9501
454.4903, 146.7435
454.9724, 137.9352
455.4545, 128.7305
455.9366, 118.8423
456.4187, 109.1113
456.9008, 101.2798
457.3830, 95.11469
457.8651, 89.64954
458.3472, 84.75031
458.8293, 80.06146
459.3114, 74.54138
459.7935, 68.24249
460.2757, 62.18250
460.7578, 57.14990
461.2399, 52.94305
461.7220, 49.39551
462.2041, 46.86346
462.6862, 44.20398
463.1684, 39.71466
463.6505, 34.46851
464.1326, 31.06860
464.6147, 33.36371
465.0968, 35.43445
465.5789, 33.67706
466.0611, 27.23096
466.5432, 21.79657
467.0253, 18.69324
467.5074, 16.99402
467.9895, 15.95184
468.4716, 16.99548
468.9538, 16.70868
469.4359, 13.81696
469.9180, 9.485657
470.4001, 7.717651
470.8822, 10.29785
471.3643, 12.30756
471.8465, 11.41107
472.3286, 7.221802
472.8107, 4.314819
473.2928, 2.869324
473.7749, 2.374451
474.2570, 2.702209
474.7392, 3.847717
475.2213, 4.238708
475.7034, 3.337341
476.1855, 1.730652
476.6676, 0.5073240
477.1497, 0.3519290
477.6319, 0.9473880
478.1140, 1.264282
478.5961, 1.405029
479.0782, 1.537354
479.5603, 1.682495
480.0424, 1.785522
480.5246, 1.829285
481.0067, 1.801819
481.4888, 1.665466
481.9709, 1.012512
482.4530, 0.7103270
482.9352, 1.695984
483.4173, 3.485962
483.8994, 4.547485
484.3815, 3.202942
484.8636, 1.966125
485.3457, 2.298706
485.8279, 4.951172
486.3100, 6.705383
486.7921, 6.670166
487.2742, 5.956116
487.7563, 5.567505
488.2384, 6.150208
488.7206, 5.867737
489.2027, 4.065979
489.6848, 1.318542
490.1669, 0.1890260
490.6490, 7.8674003E-02
491.1311, 0.1333620
491.6133, 0.4364010
492.0954, 1.773376
492.5775, 2.446228
493.0596, 2.453247
493.5417, 1.798401
494.0238, 0.1452030
494.5060, 2.954285
494.9881, 4.514099
495.4702, 3.918457
495.9523, 2.416931
496.4344, 1.965393
496.9165, 2.210327
497.3987, 1.823853
497.8808, 0.9116210
498.3629, 4.047241
498.8450, 5.429260
499.3271, 4.825623
499.8092, 4.413635
500.2914, 5.548523
500.7735, 7.324219
501.2556, 8.906799
501.7377, 9.708008
502.2198, 10.71948
502.7019, 12.33228
503.1841, 14.32104
503.6662, 16.08734
504.1483, 17.88806
504.6304, 19.14789
505.1125, 19.33484
505.5946, 18.25470
506.0768, 18.76624
506.5589, 21.63641
507.0410, 24.97955
507.5231, 27.25391
508.0052, 28.31494
508.4873, 29.19098
508.9695, 29.78931
509.4516, 30.55396
509.9337, 32.80292
510.4158, 36.41742
510.8979, 39.13342
511.3800, 39.25818
511.8622, 38.03497
512.3443, 38.16992
512.8264, 39.62738
513.3085, 41.86658
513.7906, 45.26990
514.2728, 48.90747
514.7549, 51.52075
515.2370, 52.71466
515.7191, 53.35010
516.2012, 53.64545
516.6833, 53.80347
517.1655, 54.13855
517.6476, 54.54718
518.1297, 55.36548
518.6118, 57.07843
519.0939, 59.55841
519.5760, 61.35175
520.0582, 61.84106
520.5403, 61.97363
521.0224, 62.10809
521.5045, 62.23590
521.9866, 62.36139
522.4688, 62.40833
522.9509, 62.52356
523.4330, 62.96759
523.9151, 63.83655
524.3972, 64.46454
524.8793, 64.64246
525.3615, 64.53503
525.8436, 64.53107
526.3257, 64.63104
526.8078, 64.86182
527.2899, 65.62793
527.7720, 66.47906
528.2542, 66.08270
528.7363, 64.34747
529.2184, 62.76459
529.7005, 62.58325
530.1826, 63.34723
530.6647, 64.49585
531.1469, 66.13190
531.6290, 67.68536
532.1111, 68.69647
532.5932, 69.40222
533.0753, 70.26379
533.5574, 72.01788
534.0396, 73.34113
534.5217, 73.57379
535.0038, 72.59027
535.4859, 71.84991
535.9680, 71.05023
536.4501, 70.86041
536.9323, 71.86731
537.4144, 74.97314
537.8965, 76.60352
538.3786, 76.09302
538.8607, 74.92798
539.3428, 75.50635
539.8250, 78.01178
540.3071, 80.30725
540.7892, 81.34167
541.2713, 81.93225
541.7534, 84.62659
542.2355, 89.37341
542.7177, 93.95422
543.1998, 96.37061
543.6819, 97.72461
544.1640, 99.90350
544.6461, 103.1647
545.1282, 107.1536
545.6104, 112.0976
546.0925, 117.2729
546.5746, 121.9598
547.0567, 125.4980
547.5388, 129.4165
548.0209, 134.3001
548.5031, 139.6723
548.9852, 144.8118
549.4673, 148.2467
549.9494, 153.0038
550.4315, 160.5368
550.9136, 170.8181
551.3958, 178.8522
551.8779, 183.5777
552.3600, 187.6347
552.8421, 193.2866
553.3242, 201.0430
553.8063, 206.8056
554.2885, 209.9545
554.7706, 212.0490
555.2527, 215.4391
555.7348, 219.9543
556.2169, 223.8494
556.6990, 226.8431
557.1812, 228.5837
557.6633, 228.4979
558.1454, 226.6987
558.6275, 223.5590
559.1096, 219.0028
559.5917, 213.4193
560.0739, 207.0564
560.5560, 199.9049
561.0381, 192.3691
561.5202, 184.3079
562.0023, 176.1931
562.4844, 168.4659
562.9666, 162.4794
563.4487, 154.7855
563.9308, 143.7343
564.4129, 131.5384
564.8950, 121.6872
565.3771, 115.2309
565.8593, 108.9146
566.3414, 101.8020
566.8235, 94.32227
567.3056, 88.27161
567.7877, 83.81628
568.2698, 79.79022
568.7520, 75.12848
569.2341, 70.27478
569.7162, 67.24823
570.1983, 66.26837
570.6804, 65.02289
571.1625, 60.65112
571.6447, 54.78564
572.1268, 50.07599
572.6089, 47.30817
573.0910, 45.41504
573.5731, 44.13544
574.0552, 43.17889
574.5374, 42.00482
575.0195, 40.09753
575.5016, 38.32214
575.9837, 37.04926
576.4658, 36.25275
576.9479, 35.36115
577.4301, 34.42133
577.9122, 33.33423
578.3943, 31.87964
578.8764, 29.82770
579.3585, 28.87756
579.8406, 29.32056
580.3228, 30.20923
580.8049, 30.34570
581.2870, 29.80634
581.7691, 30.35474
582.2512, 32.71863
582.7333, 35.23041
583.2155, 34.97144
583.6975, 32.68420
584.1796, 30.70490
584.6617, 29.94666
585.1439, 30.09326
585.6260, 31.27386
586.1081, 33.26282
586.5902, 34.95831
587.0723, 36.29767
587.5544, 36.83942
588.0366, 36.06403
588.5187, 33.52094
589.0008, 31.69171
589.4829, 31.51709
589.9650, 31.66833
590.4471, 31.22473
590.9293, 30.00494
591.4114, 28.70514
591.8935, 27.11688
592.3756, 25.57465
592.8577, 25.18054
593.3398, 26.04913
593.8220, 26.44806
594.3041, 25.65485
594.7862, 24.15436
595.2683, 23.02637
595.7504, 22.27454
596.2325, 21.60785
596.7147, 19.88916
597.1968, 18.47803
597.6789, 19.88342
598.1610, 24.34302
598.6431, 27.97479
599.1252, 28.05878
599.6074, 26.74152
600.0895, 25.72388
600.5716, 25.47211
601.0537, 25.13324
601.5358, 24.14691
602.0179, 23.29584
602.5001, 23.67480
602.9822, 25.93414
603.4643, 27.90344
603.9464, 29.15302
604.4285, 30.07977
604.9106, 31.64203
605.3928, 33.70947
605.8749, 36.18170
606.3570, 39.36224
606.8391, 42.93604
607.3212, 45.66321
607.8033, 47.58020
608.2855, 49.67432
608.7676, 53.07538
609.2497, 56.96368
609.7318, 60.14893
610.2139, 62.35541
610.6960, 64.29779
611.1782, 65.92261
611.6603, 67.67651
612.1424, 70.03522
612.6245, 74.06512
613.1066, 77.38300
613.5887, 79.22150
614.0709, 80.44043
614.5530, 82.97906
615.0351, 88.10077
615.5172, 91.37402
615.9993, 90.93390
616.4814, 87.74768
616.9636, 87.36774
617.4457, 90.06226
617.9278, 92.57153
618.4099, 92.46350
618.8920, 90.62482
619.3741, 89.65863
619.8563, 89.66174
620.3384, 89.21777
620.8205, 86.73450
621.3026, 83.31842
621.7847, 80.44983
622.2668, 78.82849
622.7490, 76.57013
623.2311, 72.08447
623.7132, 66.72083
624.1953, 62.20636
624.6774, 59.16711
625.1595, 56.64722
625.6417, 55.18134
626.1238, 54.04010
626.6059, 50.86011
627.0880, 44.61243
627.5701, 39.44049
628.0522, 37.20538
628.5344, 37.24200
629.0165, 36.20935
629.4986, 34.09088
629.9807, 31.70380
630.4628, 29.17035
630.9449, 26.89948
631.4271, 25.79340
631.9092, 25.94775
632.3913, 26.31213
632.8734, 26.31061
633.3555, 26.02612
633.8376, 25.49878
634.3198, 24.52936
634.8019, 23.72797
635.2840, 23.56824
635.7661, 23.54834
636.2482, 22.95447
636.7303, 21.47089
637.2125, 19.92798
637.6946, 18.50427
638.1767, 17.06488
638.6588, 15.00067
639.1409, 12.12091
639.6230, 9.917297
640.1052, 9.329407
640.5873, 9.726318
641.0694, 9.173706
641.5515, 7.745667
642.0336, 6.212097
642.5157, 4.815063
642.9979, 3.766785
643.4800, 3.692200
643.9621, 4.709534
644.4442, 5.024292
644.9263, 2.890503
645.4084, 0.1962890
645.8906, 1.540833
646.3727, 1.773926
646.8548, 1.608276
647.3369, 0.7421260
647.8190, 0.1868290
648.3011, 0.2377320
648.7833, 1.142517
649.2654, 1.508057
649.7475, 0.1224980
650.2296, 1.985962
650.7117, 2.634155
651.1938, 1.924133
651.6760, 1.065186
652.1581, 0.5312500
652.6402, 0.1539310
653.1223, 0.5595700
653.6044, 1.411560
654.0865, 1.626526
654.5687, 0.2416990
655.0508, 2.118042
655.5329, 2.474792
656.0150, 1.156494
656.4971, 2.4963001E-02
656.9792, 0.6469120
657.4614, 0.8911740
657.9435, 0.6312870
658.4256, 0.4351200
658.9077, 0.8591310
659.3898, 0.3734740
659.8719, 0.3019410
660.3541, 0.1669310
660.8362, 0.7258910
661.3183, 0.4760130
661.8004, 1.489319
662.2825, 3.706177
662.7646, 4.116333
663.2468, 3.258789
663.7289, 2.437256
664.2110, 2.045044
664.6931, 1.923096
665.1752, 1.982605
665.6573, 2.215332
666.1395, 2.613647
666.6216, 3.521667
667.1037, 4.225342
667.5858, 4.469238
668.0679, 4.293274
668.5500, 3.950867
669.0322, 3.533020
669.5143, 2.746887
669.9964, 1.149353
670.4785, 1.137024
670.9606, 1.893250
671.4427, 0.9641720
671.9249, 2.6123000E-02
672.4070, 0.3659670
672.8891, 1.614258
673.3712, 2.600342
673.8533, 3.197205
674.3354, 3.729187
674.8176, 4.595947
675.2997, 5.455566
675.7818, 5.870972
676.2639, 5.228943
676.7460, 5.143372
677.2281, 6.715393
677.7103, 8.725525
678.1924, 9.652893
678.6745, 8.980286
679.1566, 8.326782
679.6387, 7.818054
680.1208, 7.515320
680.6030, 7.393677
681.0851, 7.452820
681.5672, 8.378479
682.0493, 10.81696
682.5314, 13.86487
683.0135, 16.23492
683.4957, 17.89301
683.9778, 18.63062
684.4599, 17.29169
684.9420, 15.85242
685.4241, 15.84552
685.9063, 17.21222
686.3884, 18.36469
686.8705, 18.31976
687.3526, 18.51172
687.8347, 19.67725
688.3168, 22.00635
688.7990, 24.10968
689.2811, 26.08051
689.7632, 27.73315
690.2453, 28.73651
690.7274, 29.17603
691.2095, 30.07166
691.6917, 31.52515
692.1738, 33.12994
692.6559, 34.77130
693.1380, 36.14911
693.6201, 36.55219
694.1022, 35.34680
694.5844, 34.44098
695.0665, 35.18854
695.5486, 36.77448
696.0307, 38.16296
696.5128, 38.52759
696.9949, 39.48492
697.4771, 41.83246
697.9592, 44.57892
698.4413, 45.48712
698.9234, 43.99200
699.4055, 42.99384
699.8876, 43.48315
700.3698, 44.74951
700.8519, 44.70612
701.3340, 43.60278
701.8161, 43.07343
702.2982, 44.58954
702.7803, 46.71405
703.2625, 48.01843
703.7446, 48.51257
704.2267, 48.57446
704.7088, 47.99329
705.1909, 47.43842
705.6730, 47.12292
706.1552, 47.03412
706.6373, 47.35626
707.1194, 48.23816
707.6015, 49.48792
708.0836, 51.00598
708.5657, 52.79785
709.0479, 54.09326
709.5300, 54.92761
710.0121, 55.30688
710.4942, 54.82507
710.9763, 53.99780
711.4584, 54.25983
711.9406, 55.97778
712.4227, 57.71405
712.9048, 58.28400
713.3869, 58.19208
713.8690, 57.95355
714.3511, 57.68915
714.8333, 57.21399
715.3154, 57.03967
715.7975, 56.47632
716.2796, 54.44800
716.7617, 49.79614
717.2438, 47.19421
717.7260, 47.65576
718.2081, 49.66101
718.6902, 50.83459
719.1723, 51.16602
719.6544, 50.75793
720.1365, 49.68433
720.6187, 48.06708
721.1008, 45.58905
721.5829, 42.53906
722.0650, 39.74329
722.5471, 37.22833
723.0292, 35.35938
723.5114, 34.97290
723.9935, 35.52600
724.4756, 34.58801
724.9577, 30.62366
725.4398, 27.52191
725.9219, 26.87445
726.4041, 28.10632
726.8862, 27.66052
727.3683, 25.42639
727.8504, 23.16180
728.3325, 21.50610
728.8146, 20.51770
729.2968, 20.97821
729.7789, 22.68262
730.2610, 23.99677
730.7431, 23.96033
731.2252, 23.04840
731.7073, 21.30920
732.1895, 18.65802
732.6716, 16.50507
733.1537, 15.17114
733.6358, 14.32458
734.1179, 13.77466
734.6000, 13.46411
735.0822, 13.93414
735.5643, 15.41425
736.0464, 16.85529
736.5285, 17.37946
737.0106, 17.08228
737.4927, 16.05206
737.9749, 14.19318
738.4570, 12.72388
738.9391, 13.23657
739.4212, 14.51880
739.9033, 15.23273
740.3854, 15.10358
740.8676, 14.42786
741.3497, 12.58783
741.8318, 10.65222
742.3139, 9.753479
742.7960, 10.50281
743.2781, 10.68066
743.7603, 9.873718
744.2424, 8.881653
744.7245, 9.162170
745.2066, 10.48383
745.6887, 10.90100
746.1708, 9.620911
746.6530, 8.101624
747.1351, 8.012268
747.6172, 8.861023
748.0993, 9.810425
748.5814, 11.39594
749.0635, 12.04871
749.5457, 10.24823
750.0278, 7.302856
750.5099, 6.122131
750.9920, 8.104004
751.4741, 9.229187
751.9562, 8.462097
752.4384, 6.663818
752.9205, 6.227234
753.4026, 7.108215
753.8847, 7.500122
754.3668, 6.481750
754.8489, 4.856445
755.3311, 3.460693
755.8132, 2.387573
756.2953, 1.945679
756.7774, 2.885742
757.2595, 3.882080
757.7416, 4.443176
758.2238, 4.532532
758.7059, 4.110657
759.1880, 2.559387
759.6701, 1.538086
760.1522, 1.785522
760.6343, 2.955139
761.1165, 3.017273
761.5986, 1.905945
762.0807, 1.020020
762.5628, 1.290588
763.0449, 2.207275
763.5270, 3.006287
764.0092, 3.675171
764.4913, 4.196777
764.9734, 5.214050
765.4555, 5.510986
765.9376, 3.691345
766.4197, 0.2844240
766.9019, 2.438965
767.3840, 1.743591
767.8661, 0.3944700
768.3482, 0.9797360
768.8303, 2.345459
769.3124, 2.180969
769.7946, 0.3645020
770.2767, 1.449646
770.7588, 2.091919
771.2409, 1.943115
771.7230, 1.543091
772.2051, 0.9390260
772.6873, 0.4059450
773.1694, 2.1240000E-02
773.6515, 0.1585690
774.1336, 0.1021120
774.6157, 1.024536
775.0978, 0.9741820
775.5800, 1.058655
776.0621, 2.741638
776.5442, 2.443481
777.0263, 3.2653999E-02
777.5084, 1.685364
777.9905, 2.745300
778.4727, 2.907654
778.9548, 1.065002
779.4369, 1.514099
779.9190, 2.449707
780.4011, 1.440063
780.8832, 0.2302250
781.3654, 0.5957640
781.8475, 0.9289550
782.3296, 0.5355220
782.8117, 1.044861
783.2938, 1.954590
783.7759, 1.874939
784.2581, 1.592468
784.7402, 1.837463
785.2223, 2.615356
785.7044, 2.606262
786.1865, 1.683044
786.6686, 0.6450810
787.1508, 0.2343750
787.6329, 0.5662230
788.1150, 0.6397710
788.5971, 3.857422
789.0792, 6.336426
789.5613, 6.266846
790.0435, 5.243591
790.5256, 4.537231
791.0077, 4.404602
791.4898, 4.038879
791.9719, 3.152771
792.4540, 2.507324
792.9362, 2.986511
793.4183, 4.490112
793.9004, 5.741028
794.3825, 6.644348
794.8646, 7.422363
795.3467, 8.444397
795.8289, 9.441162
796.3110, 10.06122
796.7931, 10.27167
797.2752, 10.09082
797.7573, 9.231628
798.2394, 8.188477
798.7216, 7.302612
799.2037, 6.288940
799.6858, 6.322327
800.1679, 7.742493
800.6500, 9.431091
801.1321, 10.00818
801.6143, 9.809631
802.0964, 10.92041
802.5785, 13.75452
803.0606, 16.00983
803.5427, 14.99951
804.0248, 12.60376
804.5070, 10.68274
804.9891, 9.273621
805.4712, 9.305115
805.9533, 12.49530
806.4354, 16.09222
806.9175, 18.16138
807.3997, 18.47632
807.8818, 18.04535
808.3639, 16.63782
808.8460, 15.49078
809.3281, 16.32056
809.8102, 18.37939
810.2924, 19.63019
810.7745, 19.71381
811.2566, 19.85413
811.7387, 20.93781
812.2208, 22.44806
812.7029, 24.05310
813.1851, 26.10315
813.6672, 26.99133
814.1493, 25.88678
814.6314, 24.53564
815.1135, 24.43390
815.5956, 25.64349
816.0778, 26.45374
816.5599, 26.76984
817.0420, 26.90009
817.5241, 26.98523
818.0062, 27.13831
818.4883, 27.66211
818.9705, 28.67236
819.4526, 29.37244
819.9347, 28.68146
820.4168, 28.04736
820.8989, 28.74121
821.3810, 31.28693
821.8632, 32.99829
822.3453, 33.79297
822.8274, 33.93787
823.3095, 33.41724
823.7916, 32.36847
824.2737, 31.48651
824.7559, 30.72760
825.2380, 30.35712
825.7201, 31.01715
826.2022, 31.80219
826.6843, 31.65649
827.1664, 30.31995
827.6486, 29.44513
828.1307, 30.12646
828.6128, 30.62079
829.0949, 29.84235
829.5770, 27.63391
830.0591, 27.07922
830.5413, 28.43231
831.0234, 29.86603
831.5055, 29.88776
831.9876, 29.05469
832.4697, 28.47308
832.9518, 28.19513
833.4340, 27.83832
833.9161, 27.17072
834.3982, 26.27521
834.8803, 25.00916
835.3624, 23.29486
835.8445, 22.36407
836.3267, 22.60229
836.8088, 22.91296
837.2909, 22.81348
837.7730, 22.31940
838.2551, 21.22516
838.7372, 19.60980
839.2194, 18.56891
839.7015, 20.05774
840.1836, 21.61395
840.6657, 20.03265
841.1478, 15.88495
841.6299, 13.10596
842.1121, 13.99744
842.5942, 15.36652
843.0763, 16.36835
843.5584, 16.95728
844.0405, 16.72717
844.5226, 15.51984
845.0048, 14.52423
845.4869, 14.32275
845.9690, 14.57501
846.4511, 14.83636
846.9332, 15.00781
847.4153, 14.77075
847.8975, 12.75769
848.3796, 11.50983
848.8617, 13.20630
849.3438, 16.73743
849.8259, 18.20673
850.3080, 16.37836
850.7902, 15.30463
851.2723, 16.04987
851.7544, 17.60815
852.2365, 18.50635
852.7186, 18.72833
853.2007, 17.68585
853.6829, 14.07251
854.1650, 10.89093
854.6471, 11.68262
855.1292, 14.51556
855.6113, 16.13428
856.0934, 14.22357
856.5756, 12.93768
857.0577, 13.20618
857.5398, 14.03241
858.0219, 13.77264
858.5040, 12.17670
858.9861, 10.37335
859.4683, 8.347595
859.9504, 7.005737
860.4325, 8.218506
860.9146, 10.67999
861.3967, 12.04834
861.8788, 11.22778
862.3610, 10.60510
862.8431, 11.71014
863.3252, 13.02496
863.8073, 13.03607
864.2894, 11.04840
864.7715, 9.917664
865.2537, 9.824036
865.7358, 10.26355
866.2179, 10.94373
866.7000, 11.64551
867.1821, 11.91455
867.6642, 11.72693
868.1464, 11.23608
868.6285, 9.948792
869.1106, 8.832275
869.5927, 8.711975
870.0748, 9.908752
870.5569, 10.97974
871.0391, 12.13519
871.5212, 12.72791
872.0033, 11.97028
872.4854, 10.17511
872.9675, 9.987244
873.4496, 11.29669
873.9318, 12.29645
874.4139, 10.84595
874.8960, 9.088684
875.3781, 9.456421
875.8602, 11.65472
876.3423, 12.68457
876.8245, 10.36682
877.3066, 8.452820
877.7887, 8.211853
878.2708, 9.252686
878.7529, 9.503601
879.2350, 8.945740
879.7172, 8.959534
880.1993, 10.61249
880.6814, 12.38745
881.1635, 12.26184
881.6456, 10.88007
882.1277, 9.596924
882.6099, 8.629211
883.0920, 8.085999
883.5741, 8.053284
884.0562, 8.560486
884.5383, 9.812561
885.0204, 11.98999
885.5026, 13.41779
885.9847, 13.68530
886.4668, 13.51318
886.9489, 14.02643
887.4310, 14.66071
887.9131, 14.21069
888.3953, 11.86139
888.8774, 10.27460
889.3595, 11.33002
889.8416, 13.17395
890.3237, 14.00189
890.8058, 13.18524
891.2880, 13.24219
891.7701, 14.53119
892.2522, 15.25366
892.7343, 12.69922
893.2164, 8.577820
893.6985, 7.735962
894.1807, 10.48474
894.6628, 13.63251
895.1449, 15.90021
895.6270, 17.20020
896.1091, 17.30920
896.5912, 16.14374
897.0734, 14.80261
897.5555, 13.04749
898.0376, 11.70538
898.5197, 11.18646
899.0018, 11.38605
899.4839, 12.12067
899.9661, 13.31464
900.4482, 14.51648
900.9303, 16.10986
901.4124, 17.05719
901.8945, 16.13031
902.3766, 13.97089
902.8588, 12.72620
903.3409, 13.20709
903.8230, 13.48907
904.3051, 13.13751
904.7872, 12.53558
905.2693, 12.64594
905.7515, 13.28388
906.2336, 13.35229
906.7157, 12.54358
907.1978, 11.07935
907.6799, 7.901550
908.1620, 4.729980
908.6442, 3.740479
909.1263, 7.506042
909.6084, 9.659729
910.0905, 9.307739
910.5726, 8.324219
911.0547, 8.482422
911.5369, 9.673096
912.0190, 10.57239
912.5011, 11.11060
912.9832, 11.35278
913.4653, 11.77020
913.9474, 11.64087
914.4296, 9.496887
914.9117, 5.072815
915.3938, 3.226990
915.8759, 6.641235
916.3580, 9.926758
916.8401, 10.89111
917.3223, 9.902893
917.8044, 8.831970
918.2865, 7.716614
918.7686, 7.225891
919.2507, 8.336426
919.7328, 9.701599
920.2150, 9.878784
920.6971, 9.274353
921.1792, 8.910828
921.6613, 10.04877
922.1434, 10.04016
922.6255, 7.896301
923.1077, 5.030457
923.5898, 4.060364
924.0719, 4.879761
924.5540, 5.455811
925.0361, 5.355042
925.5182, 5.037537
926.0004, 4.851501
926.4825, 4.761108
926.9646, 4.741028
927.4467, 4.824463
927.9288, 4.835205
928.4109, 4.887512
928.8931, 4.694641
929.3752, 3.993225
929.8573, 2.796570
930.3394, 1.516174
930.8215, 0.1641850
931.3036, 0.8142700
931.7858, 0.7583620
932.2679, 0.3867800
932.7500, 0.4111330
933.2321, 0.7957760
933.7142, 1.036743
934.1964, 0.3743900
934.6785, 0.4462890
935.1606, 1.917603
935.6427, 4.263794
936.1248, 6.199829
936.6069, 7.689270
937.0891, 7.920410
937.5712, 6.073853
938.0533, 3.961487
938.5354, 3.439209
939.0175, 3.764832
939.4996, 3.866638
939.9818, 2.852661
940.4639, 2.638916
940.9460, 3.670715
941.4281, 4.997192
941.9102, 5.592896
942.3923, 5.546021
942.8745, 5.913757
943.3566, 6.802734
943.8387, 7.135925
944.3208, 5.066833
944.8029, 2.774719
945.2850, 2.348572
945.7672, 4.039673
946.2493, 5.190125
946.7314, 5.300842
947.2135, 5.433289
947.6956, 6.249329
948.1777, 7.289917
948.6599, 6.357544
949.1420, 3.872681
949.6241, 2.302429
950.1062, 3.559570
950.5883, 5.236023
951.0704, 6.001221
951.5526, 5.955872
952.0347, 5.205322
952.5168, 3.336304
952.9989, 1.815613
953.4810, 0.8737180
953.9631, 8.3313003E-02
954.4453, 1.170776
954.9274, 2.723328
955.4095, 4.101929
955.8916, 5.245789
956.3737, 5.885071
956.8558, 4.547363
957.3380, 3.637268
957.8201, 5.463135
958.3022, 10.32520
958.7843, 13.53766
959.2664, 14.45660
959.7485, 15.80542
960.2307, 19.57526
960.7128, 24.24817
961.1949, 25.70367
961.6770, 24.79968
962.1591, 24.52295
962.6412, 26.67700
963.1234, 29.31097
963.6055, 31.11597
964.0876, 33.16498
964.5697, 37.69928
965.0518, 45.61572
965.5339, 51.42139
966.0161, 54.13525
966.4982, 55.75751
966.9803, 58.30219
967.4624, 61.62836
967.9445, 65.57294
968.4266, 70.17255
968.9088, 75.10144
969.3909, 80.91919
969.8730, 86.42438
970.3551, 91.20538
970.8372, 95.15192
971.3193, 97.83807
971.8015, 99.18774
972.2836, 100.2388
972.7657, 100.7617
973.2478, 101.8322
973.7299, 105.8964
974.2120, 111.5979
974.6942, 115.7298
975.1763, 115.6350
975.6584, 116.1948
976.1405, 118.5410
976.6226, 121.3082
977.1047, 122.4062
977.5869, 122.0059
978.0690, 121.7742
978.5511, 121.9360
979.0332, 122.2709
979.5153, 122.1125
979.9974, 122.3916
980.4796, 123.9968
980.9617, 127.1238
981.4438, 131.0380
981.9259, 136.7357
982.4080, 141.2173
982.8901, 142.5038
983.3723, 141.9079
983.8544, 143.3102
984.3365, 146.5149
984.8186, 150.7160
985.3007, 156.7563
985.7828, 162.3167
986.2650, 165.4437
986.7471, 167.7224
987.2292, 171.8622
987.7113, 178.3823
988.1934, 184.8846
988.6755, 191.2736
989.1577, 197.0933
989.6398, 201.6784
990.1219, 205.4263
990.6040, 208.8085
991.0861, 211.8587
991.5682, 214.8671
992.0504, 218.0889
992.5325, 221.2452
993.0146, 224.2548
993.4967, 226.9739
993.9788, 229.1116
994.4609, 230.7159
994.9431, 232.4729
995.4252, 234.8417
995.9073, 237.5428
996.3894, 240.2848
996.8715, 242.9872
997.3536, 245.6791
997.8358, 249.0267
998.3179, 251.1836
998.8000, 250.8998
999.2821, 251.0908
999.7642, 255.4237
1000.246, 263.0745
1000.728, 268.7104
1001.211, 272.1805
1001.693, 276.0270
1002.175, 282.9832
1002.657, 290.2753
1003.139, 295.3685
1003.621, 298.6146
1004.103, 303.5956
1004.585, 310.6935
1005.068, 318.4056
1005.550, 326.4764
1006.032, 334.6621
1006.514, 342.9645
1006.996, 351.4021
1007.478, 359.9904
1007.960, 368.6243
1008.442, 377.0220
1008.924, 386.0773
1009.407, 394.3210
1009.889, 400.8774
1010.371, 405.7402
1010.853, 409.4030
1011.335, 411.8637
1011.817, 413.7177
1012.299, 415.8269
1012.781, 417.1702
1013.263, 416.8008
1013.746, 414.8718
1014.228, 411.9559
1014.710, 408.1566
1015.192, 403.4086
1015.674, 397.5479
1016.156, 391.0165
1016.638, 384.3306
1017.120, 377.4610
1017.603, 369.8706
1018.085, 361.1249
1018.567, 354.1246
1019.049, 351.4131
1019.531, 350.3502
1020.013, 349.2232
1020.495, 347.9832
1020.977, 347.0117
1021.459, 346.3440
1021.942, 345.5247
1022.424, 343.6582
1022.906, 342.3362
1023.388, 344.4702
1023.870, 348.6598
1024.352, 352.1575
1024.834, 352.9273
1025.316, 354.7050
1025.799, 357.7625
1026.281, 361.9510
1026.763, 367.5503
1027.245, 374.2336
1027.727, 380.4806
1028.209, 386.2104
1028.691, 391.6631
1029.173, 397.2185
1029.656, 402.3629
1030.138, 406.8412
1030.620, 410.5205
1031.102, 412.9019
1031.584, 413.4831
1032.066, 414.9413
1032.548, 418.4244
1033.030, 421.8643
1033.512, 421.8992
1033.995, 419.8002
1034.477, 417.7134
1034.959, 416.1864
1035.441, 414.3784
1035.923, 411.9333
1036.405, 409.3282
1036.887, 406.8313
1037.369, 404.4181
1037.851, 401.5269
1038.334, 398.2607
1038.816, 395.0598
1039.298, 390.6910
1039.780, 388.0178
1040.262, 390.0785
1040.744, 394.9364
1041.226, 398.5466
1041.708, 399.8979
1042.191, 402.7715
1042.673, 407.7823
1043.155, 413.1943
1043.637, 416.8694
1044.119, 419.9154
1044.601, 424.5359
1045.083, 430.8495
1045.565, 436.6204
1046.047, 442.0853
1046.530, 445.6261
1047.012, 446.5835
1047.494, 445.3928
1047.976, 443.5071
1048.458, 440.7025
1048.940, 435.4417
1049.422, 426.9235
1049.904, 417.0951
1050.386, 407.2799
1050.869, 396.8486
1051.351, 384.8289
1051.833, 370.7759
1052.315, 357.2112
1052.797, 344.2294
1053.279, 331.8724
1053.761, 319.4265
1054.243, 307.0315
1054.726, 294.9488
1055.208, 283.5802
1055.690, 273.6408
1056.172, 265.2484
1056.654, 258.2031
1057.136, 253.0608
1057.618, 248.4175
1058.100, 242.0286
1058.583, 234.3769
1059.065, 228.9141
1059.547, 225.8755
1060.029, 223.5222
1060.511, 222.0588
1060.993, 219.7043
1061.475, 214.4890
1061.957, 207.3260
1062.439, 201.9315
1062.922, 198.3555
1063.404, 196.5720
1063.886, 197.1614
1064.368, 197.8032
1064.850, 195.3687
1065.332, 191.3008
1065.814, 187.7515
1066.296, 185.6741
1066.778, 181.6210
1067.261, 175.0840
1067.743, 167.0149
1068.225, 157.3783
1068.707, 146.7830
1069.189, 137.7537
1069.671, 129.8503
1070.153, 121.5605
1070.635, 111.1926
1071.118, 101.7923
1071.600, 95.75684
1072.082, 90.75433
1072.564, 84.39661
1073.046, 76.56421
1073.528, 69.35590
1074.010, 62.88574
1074.492, 57.40375
1074.974, 53.30707
1075.457, 50.22473
1075.939, 48.51575
1076.421, 47.66016
1076.903, 45.49475
1077.385, 41.55396
1077.867, 37.03851
1078.349, 31.75128
1078.831, 27.04895
1079.313, 25.14246
1079.796, 24.90845
1080.278, 24.48169
1080.760, 23.59143
1081.242, 22.43561
1081.724, 20.26605
1082.206, 18.87097
1082.688, 19.34521
1083.170, 20.82568
1083.652, 20.06726
1084.135, 17.62274
1084.617, 16.48804
1085.099, 18.16467
1085.581, 19.99640
1086.063, 20.56305
1086.545, 20.37671
1087.027, 19.61377
1087.509, 18.05042
1087.992, 18.95074
1088.474, 22.47668
1088.956, 26.14929
1089.438, 28.56091
1089.920, 30.27039
1090.402, 31.16663
1090.884, 31.93353
1091.366, 34.16003
1091.849, 39.67505
1092.331, 43.21265
1092.813, 44.02087
1093.295, 44.07336
1093.777, 45.14722
1094.259, 46.94342
1094.741, 49.73297
1095.223, 53.07703
1095.705, 54.07220
1096.188, 50.08374
1096.670, 45.25446
1097.152, 40.08051
1097.634, 35.32458
1098.116, 32.95673
1098.598, 32.37378
1099.080, 30.04688
1099.562, 25.27686
1100.044, 20.23053
1100.527, 16.09705
1101.009, 12.38202
1101.491, 8.580994
1101.973, 4.806763
1102.455, 2.315918
1102.937, 1.130005
1103.419, 0.1345210
1103.901, 2.011597
1104.384, 3.959778
1104.866, 5.515259
1105.348, 6.741089
1105.830, 7.680481
1106.312, 8.252258
1106.794, 8.942139
1107.276, 9.823608
1107.758, 10.62219
1108.240, 11.39990
1108.723, 11.83130
1109.205, 10.58435
1109.687, 8.644592
1110.169, 8.268311
1110.651, 13.02209
1111.133, 14.91034
1111.615, 12.09772
1112.097, 8.488464
1112.579, 8.171753
1113.062, 9.997009
1113.544, 9.451172
1114.026, 6.757935
1114.508, 4.285095
1114.990, 3.509094
1115.472, 2.860168
1115.954, 1.836975
1116.436, 0.5831910
1116.919, 0.7967530
1117.401, 2.275635
1117.883, 3.203552
1118.365, 3.477051
1118.847, 3.948242
1119.329, 5.044556
1119.811, 6.740967
1120.293, 9.828125
1120.776, 13.55194
1121.258, 14.58832
1121.740, 12.55640
1122.222, 11.45715
1122.704, 12.39862
1123.186, 13.80640
1123.668, 14.52020
1124.150, 14.46405
1124.632, 13.19965
1125.115, 10.47168
1125.597, 9.155396
1126.079, 9.591064
1126.561, 10.46777
1127.043, 11.63361
1127.525, 12.44550
1128.007, 11.24286
1128.489, 9.101501
1128.971, 7.986511
1129.454, 9.120361
1129.936, 9.068054
1130.418, 6.842468
1130.900, 4.753906
1131.382, 4.213318
1131.864, 4.765015
1132.346, 5.330200
1132.828, 5.777466
1133.311, 5.698425
1133.793, 4.119568
1134.275, 3.061646
1134.757, 2.875427
1135.239, 3.493652
1135.721, 5.425964
1136.203, 8.311401
1136.685, 9.029175
1137.167, 7.794739
1137.650, 7.316711
1138.132, 10.08496
1138.614, 13.08093
1139.096, 15.16034
1139.578, 16.53149
1140.060, 17.27185
1140.542, 17.32257
1141.024, 17.65265
1141.506, 18.39081
1141.989, 19.17395
1142.471, 19.69275
1142.953, 20.19617
1143.435, 20.50171
1143.917, 20.99792
1144.399, 23.27490
1144.881, 27.76178
1145.363, 29.75879
1145.846, 28.13727
1146.328, 26.28015
1146.810, 27.65643
1147.292, 30.35968
1147.774, 32.84058
1148.256, 34.92389
1148.738, 36.34344
1149.220, 36.70752
1149.703, 38.24677
1150.185, 42.11493
1150.667, 45.79120
1151.149, 44.83484
1151.631, 42.22449
1152.113, 42.56024
1152.595, 47.22131
1153.077, 49.22473
1153.559, 47.20410
1154.042, 45.11829
1154.524, 44.52826
1155.006, 44.73279
1155.488, 44.65747
1155.970, 44.44159
1156.452, 44.43396
1156.934, 45.01471
1157.416, 44.80792
1157.898, 43.39532
1158.381, 41.77124
1158.863, 40.51062
1159.345, 39.42896
1159.827, 37.67639
1160.309, 35.66693
1160.791, 34.72827
1161.273, 36.35510
1161.755, 37.17163
1162.238, 36.11316
1162.720, 34.64960
1163.202, 33.90320
1163.684, 33.72858
1164.166, 33.00171
1164.648, 31.93732
1165.130, 31.51654
1165.612, 32.94501
1166.094, 34.16455
1166.577, 34.56134
1167.059, 34.52893
1167.541, 34.07788
1168.023, 33.24774
1168.505, 33.55682
1168.987, 34.92767
1169.469, 35.38928
1169.951, 32.61517
1170.433, 29.67358
1170.916, 27.86621
1171.398, 26.74805
1171.880, 25.81873
1172.362, 25.06378
1172.844, 24.18799
1173.326, 23.19403
1173.808, 22.27808
1174.290, 21.82562
1174.773, 21.28412
1175.255, 20.20508
1175.737, 18.80060
1176.219, 17.41852
1176.701, 16.04596
1177.183, 15.25427
1177.665, 15.15790
1178.147, 14.75360
1178.630, 13.17511
1179.112, 11.07556
1179.594, 8.292236
1180.076, 5.399536
1180.558, 4.412903
1181.040, 5.443420
1181.522, 5.963074
1182.004, 5.442200
1182.486, 4.568542
1182.969, 3.178101
1183.451, 2.319031
1183.933, 3.508667
1184.415, 6.245667
1184.897, 6.937683
1185.379, 5.390259
1185.861, 4.042664
1186.343, 3.606689
1186.825, 3.288879
1187.308, 2.052612
1187.790, 0.6922000
1188.272, 0.1840820
1188.754, 0.5557860
1189.236, 0.4196170
1189.718, 0.2843020
1190.200, 0.8016360
1190.682, 0.8560180
1191.165, 0.6417240
1191.647, 1.2878000E-02
1192.129, 0.4990840
1192.611, 4.0587999E-02
1193.093, 1.734985
1193.575, 2.717102
1194.057, 3.033997
1194.539, 2.499756
1195.021, 0.7299190
1195.504, 1.271057
1195.986, 2.549316
1196.468, 3.217346
1196.950, 3.105835
1197.432, 1.859009
1197.914, 2.822510
1198.396, 6.519226
1198.878, 8.752441
1199.360, 6.661316
1199.843, 3.452209
1200.325, 3.045593
1200.807, 3.881958
1201.289, 3.525269
1201.771, 1.032593
1202.253, 1.060181
1202.735, 4.142700
1203.217, 6.351685
1203.700, 4.573303
1204.182, 1.931763
1204.664, 2.065796
1205.146, 3.732300
1205.628, 4.974487
1206.110, 5.538574
1206.592, 5.642029
1207.074, 5.134705
1207.557, 5.022217
1208.039, 6.669739
1208.521, 8.353760
1209.003, 7.511536
1209.485, 5.442627
1209.967, 4.622803
1210.449, 5.949463
1210.931, 6.191406
1211.413, 5.068298
1211.896, 4.641968
1212.378, 7.411316
1212.860, 10.68768
1213.342, 11.53442
1213.824, 10.74884
1214.306, 9.860535
1214.788, 8.866028
1215.270, 8.472168
1215.752, 8.806519
1216.235, 8.938110
1216.717, 8.522156
1217.199, 5.864014
1217.681, 7.800171
1218.163, 6.696167
1218.645, 6.246765
1219.127, 7.556641
1219.609, 5.785400
1220.092, 6.746216
1220.574, 8.893555
1221.056, 11.95880
1221.538, 14.79010
1222.020, 16.69135
1222.502, 17.37585
1222.984, 16.18372
1223.466, 12.44067
1223.948, 10.31757
1224.431, 10.13196
1224.913, 10.59845
1225.395, 11.13934
1225.877, 11.60889
1226.359, 11.47858
1226.841, 11.26044
1227.323, 11.95325
1227.805, 13.89954
1228.287, 14.13367
1228.770, 12.39178
1229.252, 10.63782
1229.734, 10.04456
1230.216, 10.40845
1230.698, 12.61682
1231.180, 15.36597
1231.662, 15.61597
1232.144, 13.14948
1232.627, 11.15686
1233.109, 9.886963
1233.591, 9.501099
1234.073, 11.16986
1234.555, 12.70837
1235.037, 12.12622
1235.519, 10.64856
1236.001, 10.82837
1236.484, 12.67914
1236.966, 13.37244
1237.448, 12.66003
1237.930, 11.38239
1238.412, 9.372925
1238.894, 7.764221
1239.376, 7.431763
1239.858, 7.766357
1240.340, 7.785950
1240.823, 7.537415
1241.305, 8.129578
1241.787, 9.650146
1242.269, 10.43896
1242.751, 8.925720
1243.233, 6.896790
1243.715, 4.497070
1244.197, 2.641235
1244.679, 3.399414
1245.162, 6.090698
1245.644, 6.855957
1246.126, 5.505127
1246.608, 4.344666
1247.090, 5.307922
1247.572, 5.674744
1248.054, 4.225769
1248.536, 1.830322
1249.019, 0.3740840
1249.501, 0.2900390
1249.983, 1.866516
1250.465, 4.715698
1250.947, 6.778137
1251.429, 6.914917
1251.911, 5.956299
1252.393, 3.554932
1252.875, 1.429443
1253.358, 3.406372
1253.840, 7.339233
1254.322, 9.044373
1254.804, 8.464844
1255.286, 7.414917
1255.768, 6.054626
1256.250, 4.995117
1256.732, 4.239502
1257.214, 3.790344
1257.697, 3.456787
1258.179, 3.420715
1258.661, 4.004639
1259.143, 5.035767
1259.625, 5.317444
1260.107, 4.579224
1260.589, 3.337708
1261.071, 1.448364
1261.554, 0.1540530
1262.036, 1.596680
1262.518, 3.799805
1263.000, 4.041504
1263.482, 2.809753
1263.964, 3.403564
1264.446, 6.898560
1264.928, 7.353638
1265.411, 3.577148
1265.893, 0.2977910
1266.375, 3.218689
1266.857, 7.166199
1267.339, 7.524475
1267.821, 5.180603
1268.303, 3.421814
1268.785, 2.204468
1269.267, 2.156921
1269.750, 3.369690
1270.232, 4.878296
1270.714, 6.677063
1271.196, 7.798401
1271.678, 7.439575
1272.160, 6.103821
1272.642, 3.908203
1273.124, 1.052307
1273.606, 0.7425540
1274.089, 3.063782
1274.571, 5.419495
1275.053, 6.437744
1275.535, 6.334900
1276.017, 3.901917
1276.499, 1.636658
1276.981, 4.502991
1277.463, 10.54858
1277.946, 11.75659
1278.428, 8.271606
1278.910, 5.353760
1279.392, 5.783813
1279.874, 6.003052
1280.356, 5.356445
1280.838, 4.294434
1281.320, 3.321472
1281.802, 2.281860
1282.285, 0.2075200
1282.767, 2.442627
1283.249, 3.180725
1283.731, 5.2002002E-02
1284.213, 1.689758
1284.695, 0.6018680
1285.177, 0.2066650
1285.659, 2.756958
1286.141, 6.497681
1286.624, 7.292114
1287.106, 5.935486
1287.588, 4.623413
1288.070, 3.578308
1288.552, 2.198364
1289.034, 0.7114260
1289.516, 0.1865840
1289.998, 2.0264000E-02
1290.481, 1.109436
1290.963, 3.749023
1291.445, 6.492859
1291.927, 6.671875
1292.409, 3.992065
1292.891, 3.954163
1293.373, 4.566589
1293.855, 6.276306
1294.338, 3.744629
1294.820, 1.616638
1295.302, 1.960571
1295.784, 3.129333
1296.266, 3.807251
1296.748, 3.741333
1297.230, 3.310730
1297.712, 2.487366
1298.194, 2.231201
1298.677, 3.747864
1299.159, 4.679321
1299.641, 4.306946
1300.123, 3.954590
1300.605, 5.033936
1301.087, 6.576782
1301.569, 5.825195
1302.051, 3.595703
1302.533, 1.746704
1303.016, 0.0000000E+00
##END=



