##NAMES=Fayalite
##RRUFFID=R070293
##IDEAL CHEMISTRY=Fe^2+^_2_SiO_4_
##LOCALITY=Pike's Peak, Teller County, Colorado, USA
##OWNER=RRUFF
##SOURCE=Michael Scott
##DESCRIPTION=Black single crystal fragment with internal hints of red and green
##STATUS=The identification of this mineral has been confirmed by X-ray diffraction and chemical analysis
##URL=rruff.info/R070293
##MEASURED CHEMISTRY=(Fe^2+^_1.87_Mn^2+^_0.13_)_Î£=2_Si_1.00_O_4_ ; trace amounts of Mg
143.1968, 0.0000000E+00
143.6789, 3.992371
144.1610, 2.098328
144.6431, 3.043823
145.1252, 19.92139
145.6074, 50.12646
146.0895, 92.40283
146.5716, 142.0632
147.0537, 195.1804
147.5358, 252.3116
148.0179, 318.1062
148.5001, 391.3464
148.9822, 473.4510
149.4643, 565.7631
149.9464, 668.7760
150.4285, 781.6773
150.9106, 911.6638
151.3928, 1054.789
151.8749, 1177.266
152.3570, 1271.641
152.8391, 1347.870
153.3212, 1423.160
153.8033, 1499.353
154.2855, 1545.653
154.7676, 1535.399
155.2497, 1471.946
155.7318, 1371.027
156.2139, 1209.647
156.6960, 1024.006
157.1782, 850.8203
157.6603, 691.5196
158.1424, 547.6462
158.6245, 418.7841
159.1066, 307.1090
159.5887, 224.2005
160.0709, 186.3818
160.5530, 175.0743
161.0351, 165.5670
161.5172, 156.0213
161.9993, 148.0529
162.4814, 147.5475
162.9636, 150.2459
163.4457, 146.9490
163.9278, 131.4597
164.4099, 108.1785
164.8920, 84.17639
165.3741, 57.79852
165.8563, 36.90894
166.3384, 28.12683
166.8205, 27.62476
167.3026, 29.79901
167.7847, 31.84277
168.2668, 35.30591
168.7490, 44.65894
169.2311, 63.00720
169.7132, 80.28668
170.1953, 91.87335
170.6774, 98.99841
171.1595, 103.0818
171.6417, 104.3575
172.1238, 103.1898
172.6059, 101.8251
173.0880, 102.5551
173.5701, 96.88110
174.0522, 78.18634
174.5344, 54.61786
175.0165, 35.30371
175.4986, 21.59814
175.9807, 12.63800
176.4628, 8.161987
176.9449, 5.811584
177.4271, 4.828552
177.9092, 4.941833
178.3913, 5.662048
178.8734, 9.237610
179.3555, 16.46463
179.8376, 24.61038
180.3197, 30.29123
180.8019, 38.42545
181.2840, 44.33356
181.7661, 47.75610
182.2482, 50.37906
182.7303, 49.98239
183.2124, 46.96844
183.6946, 43.40103
184.1767, 44.53876
184.6588, 52.94281
185.1409, 62.10126
185.6230, 70.28091
186.1051, 77.95496
186.5873, 85.88184
187.0694, 94.48416
187.5515, 103.1754
188.0336, 110.0591
188.5157, 110.9424
188.9978, 118.1179
189.4800, 137.9062
189.9621, 162.7389
190.4442, 184.8611
190.9263, 200.5771
191.4084, 212.6193
191.8905, 227.4922
192.3727, 246.2602
192.8548, 266.3695
193.3369, 288.6415
193.8190, 311.2667
194.3011, 335.0047
194.7832, 360.3440
195.2654, 381.3532
195.7475, 383.9933
196.2296, 358.0518
196.7117, 331.5389
197.1938, 310.3605
197.6759, 289.4539
198.1581, 263.5861
198.6402, 231.0503
199.1223, 195.6109
199.6044, 164.5899
200.0865, 140.9504
200.5686, 116.1108
201.0508, 84.52530
201.5329, 54.88928
202.0150, 36.39651
202.4971, 31.10614
202.9792, 32.83545
203.4613, 32.21725
203.9435, 29.05154
204.4256, 23.64749
204.9077, 13.96478
205.3898, 3.813110
205.8719, 4.692871
206.3540, 10.95624
206.8362, 15.15765
207.3183, 17.03299
207.8004, 14.76608
208.2825, 14.84329
208.7646, 20.33374
209.2467, 25.55197
209.7289, 26.56378
210.2110, 23.29272
210.6931, 18.93774
211.1752, 17.42880
211.6573, 19.95065
212.1395, 20.94424
212.6216, 18.36835
213.1037, 16.09479
213.5858, 16.28149
214.0679, 18.73755
214.5500, 21.91888
215.0322, 24.92200
215.5143, 28.39618
215.9964, 27.04568
216.4785, 14.76807
216.9606, 3.384857
217.4427, 1.749390
217.9249, 1.865692
218.4070, 1.829742
218.8891, 6.256927
219.3712, 15.40253
219.8533, 19.69528
220.3354, 10.93777
220.8176, 5.157074
221.2997, 9.077484
221.7818, 19.35904
222.2639, 28.82663
222.7460, 32.26144
223.2281, 30.32672
223.7103, 29.98495
224.1924, 32.87607
224.6745, 35.69958
225.1566, 37.98886
225.6387, 39.74158
226.1208, 40.86069
226.6030, 41.16879
227.0851, 41.07767
227.5672, 42.39371
228.0493, 46.63095
228.5314, 50.29654
229.0135, 52.47433
229.4957, 53.91455
229.9778, 55.12399
230.4599, 56.26938
230.9420, 58.05878
231.4241, 62.80133
231.9062, 74.53320
232.3884, 82.00638
232.8705, 79.76840
233.3526, 75.46524
233.8347, 76.34503
234.3168, 84.66528
234.7989, 96.19415
235.2811, 103.3399
235.7632, 103.6164
236.2453, 105.3751
236.7274, 111.3063
237.2095, 117.5201
237.6916, 121.3508
238.1738, 122.3478
238.6559, 122.0540
239.1380, 122.5008
239.6201, 124.2477
240.1022, 124.5010
240.5843, 120.2995
241.0665, 116.9160
241.5486, 119.0175
242.0307, 125.4578
242.5128, 129.8401
242.9949, 124.4041
243.4770, 107.9120
243.9592, 96.37192
244.4413, 94.06244
244.9234, 92.91391
245.4055, 90.77002
245.8876, 87.40250
246.3697, 82.91833
246.8519, 77.02191
247.3340, 69.91757
247.8161, 63.61169
248.2982, 56.87570
248.7803, 52.86859
249.2624, 55.36096
249.7446, 60.56650
250.2267, 62.03143
250.7088, 55.28497
251.1909, 43.67764
251.6730, 36.91367
252.1551, 36.52805
252.6373, 38.08994
253.1194, 40.84805
253.6015, 44.26633
254.0836, 48.15079
254.5657, 52.71164
255.0478, 56.63403
255.5300, 57.68051
256.0121, 55.36304
256.4942, 51.97046
256.9763, 45.66989
257.4584, 39.97501
257.9406, 38.46848
258.4227, 42.05502
258.9048, 45.90167
259.3869, 44.05432
259.8690, 36.21173
260.3511, 29.95047
260.8333, 26.75977
261.3154, 25.75977
261.7975, 26.49548
262.2796, 28.83875
262.7617, 31.86758
263.2438, 35.82288
263.7260, 40.01279
264.2081, 40.94705
264.6902, 36.15930
265.1723, 31.82764
265.6544, 33.92975
266.1365, 40.46179
266.6187, 44.84149
267.1008, 42.49707
267.5829, 36.59305
268.0650, 33.83853
268.5471, 35.27127
269.0292, 37.05740
269.5114, 35.80496
269.9935, 33.06396
270.4756, 31.53680
270.9577, 31.74057
271.4398, 33.32706
271.9219, 36.84778
272.4041, 42.36917
272.8862, 46.06601
273.3683, 44.26318
273.8504, 40.54819
274.3325, 42.24200
274.8146, 52.52423
275.2968, 62.75476
275.7789, 65.67850
276.2610, 62.81317
276.7431, 61.81027
277.2252, 66.36221
277.7073, 72.91040
278.1895, 74.24655
278.6716, 68.59616
279.1537, 66.81516
279.6358, 75.82501
280.1179, 90.27075
280.6000, 101.2457
281.0822, 106.6049
281.5643, 109.3786
282.0464, 112.5420
282.5285, 115.9807
283.0106, 120.9756
283.4927, 128.1094
283.9749, 136.5761
284.4570, 146.2958
284.9391, 157.0620
285.4212, 167.2577
285.9033, 175.0098
286.3854, 180.4557
286.8676, 189.2586
287.3497, 207.7000
287.8318, 223.1400
288.3139, 226.9484
288.7960, 222.5446
289.2781, 219.1300
289.7603, 221.7394
290.2424, 229.3268
290.7245, 237.6398
291.2066, 251.8008
291.6887, 260.4118
292.1708, 258.6541
292.6530, 251.5192
293.1351, 244.1978
293.6172, 238.6174
294.0993, 235.5369
294.5814, 236.8071
295.0635, 248.2410
295.5457, 252.6994
296.0278, 243.4169
296.5099, 232.5546
296.9920, 228.8785
297.4741, 233.1177
297.9562, 240.5142
298.4384, 246.4164
298.9205, 250.7141
299.4026, 254.2818
299.8847, 253.7357
300.3668, 255.8323
300.8489, 264.7971
301.3311, 278.2798
301.8131, 290.8730
302.2953, 298.6715
302.7774, 303.1100
303.2595, 311.6926
303.7416, 327.2244
304.2237, 343.0259
304.7058, 358.1184
305.1880, 372.5482
305.6701, 386.6031
306.1522, 400.4265
306.6343, 413.2887
307.1164, 423.1699
307.5985, 428.4600
308.0807, 436.6805
308.5628, 451.8564
309.0449, 468.4623
309.5270, 484.7186
310.0091, 499.9828
310.4912, 511.5698
310.9734, 517.2247
311.4555, 517.1191
311.9376, 511.9560
312.4197, 497.4263
312.9018, 484.1590
313.3839, 484.0536
313.8661, 490.7658
314.3482, 487.2838
314.8303, 458.7892
315.3124, 418.5480
315.7945, 390.8875
316.2766, 377.9091
316.7588, 365.5526
317.2409, 346.5350
317.7230, 323.3197
318.2051, 299.6472
318.6872, 274.5703
319.1693, 251.7910
319.6515, 236.3541
320.1336, 226.4826
320.6157, 213.3906
321.0978, 193.0998
321.5799, 170.0954
322.0620, 150.9992
322.5442, 135.8166
323.0263, 122.8221
323.5084, 112.3163
323.9905, 103.3696
324.4726, 95.31107
324.9547, 87.98032
325.4369, 79.96460
325.9190, 69.52197
326.4011, 56.33124
326.8832, 45.04767
327.3653, 36.37277
327.8474, 28.81873
328.3296, 20.88281
328.8117, 13.24646
329.2938, 8.411133
329.7759, 8.172974
330.2580, 11.22818
330.7401, 11.66751
331.2223, 8.564178
331.7044, 3.955353
332.1865, 5.298553
332.6686, 14.45999
333.1507, 17.19254
333.6328, 11.97470
334.1150, 4.257965
334.5971, 2.500122
335.0792, 9.896851
335.5613, 14.66116
336.0434, 17.85785
336.5255, 17.87579
337.0077, 11.78674
337.4898, 1.330231
337.9719, 8.578247
338.4540, 14.15790
338.9361, 15.68997
339.4182, 15.38693
339.9004, 10.83841
340.3825, 8.098907
340.8646, 9.706635
341.3467, 13.62274
341.8288, 17.31976
342.3109, 19.84982
342.7931, 21.89865
343.2752, 24.15677
343.7573, 26.46698
344.2394, 30.30731
344.7215, 38.64099
345.2036, 46.49374
345.6858, 48.67957
346.1679, 45.18457
346.6500, 43.10373
347.1321, 48.32501
347.6142, 58.34561
348.0963, 65.76172
348.5785, 68.86331
349.0606, 72.49817
349.5427, 81.02692
350.0248, 93.23944
350.5069, 105.8081
350.9890, 120.2209
351.4712, 133.2049
351.9533, 140.4802
352.4354, 143.2950
352.9175, 148.3174
353.3996, 159.0276
353.8817, 173.4791
354.3639, 186.8260
354.8460, 199.0121
355.3281, 210.4622
355.8102, 221.5417
356.2923, 231.7895
356.7744, 239.7041
357.2566, 245.2243
357.7387, 250.8934
358.2208, 259.3091
358.7029, 270.4185
359.1850, 285.3493
359.6671, 307.1490
360.1493, 329.0750
360.6314, 349.4922
361.1135, 367.6147
361.5956, 381.6210
362.0777, 389.9976
362.5598, 395.2442
363.0420, 406.9035
363.5241, 430.3877
364.0062, 451.7668
364.4883, 464.8890
364.9704, 478.2004
365.4525, 501.9640
365.9347, 536.9584
366.4168, 570.8164
366.8989, 586.4346
367.3810, 582.3597
367.8631, 586.8459
368.3452, 608.7464
368.8274, 630.1574
369.3095, 639.6805
369.7916, 641.7652
370.2737, 647.5425
370.7558, 664.9181
371.2379, 686.7532
371.7201, 699.7036
372.2022, 702.5531
372.6843, 707.2725
373.1664, 720.7106
373.6485, 737.9221
374.1306, 751.6818
374.6128, 761.7800
375.0949, 768.4036
375.5770, 768.8504
376.0591, 766.3572
376.5412, 767.8276
377.0233, 775.2150
377.5055, 784.2763
377.9876, 789.9182
378.4697, 790.8124
378.9518, 792.5364
379.4339, 796.7659
379.9160, 801.0771
380.3982, 804.3116
380.8803, 806.3665
381.3624, 807.8566
381.8445, 809.2592
382.3266, 809.7500
382.8087, 807.2818
383.2909, 797.4653
383.7730, 790.4415
384.2551, 791.2974
384.7372, 791.8524
385.2193, 784.1755
385.7014, 767.9896
386.1836, 749.9236
386.6657, 737.4348
387.1478, 730.9345
387.6299, 717.8710
388.1120, 693.3506
388.5941, 667.6038
389.0763, 641.7453
389.5584, 617.1748
390.0405, 597.2302
390.5226, 584.2339
391.0047, 572.9261
391.4868, 553.9370
391.9690, 526.5530
392.4511, 500.0320
392.9332, 475.3726
393.4153, 452.9128
393.8974, 434.5263
394.3795, 420.1440
394.8617, 405.3981
395.3438, 386.6903
395.8259, 366.0077
396.3080, 347.2898
396.7901, 331.0573
397.2722, 315.2760
397.7544, 298.4105
398.2365, 281.0602
398.7186, 265.1573
399.2007, 248.9025
399.6828, 235.7806
400.1649, 230.2133
400.6471, 228.4501
401.1292, 223.3625
401.6113, 211.9999
402.0934, 197.6131
402.5755, 184.8774
403.0576, 173.7053
403.5398, 165.2042
404.0219, 162.2958
404.5040, 158.6263
404.9861, 150.9618
405.4682, 140.0149
405.9503, 127.0068
406.4325, 111.3378
406.9146, 95.17471
407.3967, 87.51538
407.8788, 94.09097
408.3609, 97.71036
408.8430, 93.51797
409.3252, 86.32193
409.8073, 78.77655
410.2894, 71.51816
410.7715, 65.89114
411.2536, 64.91315
411.7357, 67.23889
412.2179, 64.41965
412.7000, 53.47873
413.1821, 42.72226
413.6642, 38.69022
414.1463, 38.93448
414.6284, 38.89325
415.1106, 36.76422
415.5927, 35.27737
416.0748, 38.53958
416.5569, 44.40256
417.0390, 45.07727
417.5211, 36.97989
418.0033, 25.85284
418.4854, 20.58679
418.9675, 23.72629
419.4496, 24.27118
419.9317, 19.65073
420.4138, 14.13803
420.8960, 10.31879
421.3781, 8.175323
421.8602, 6.709351
422.3423, 5.256317
422.8244, 3.958984
423.3065, 3.334076
423.7887, 2.600616
424.2708, 3.946259
424.7529, 10.90018
425.2350, 17.63174
425.7171, 18.43021
426.1992, 13.02835
426.6814, 6.637604
427.1635, 4.669556
427.6456, 6.618652
428.1277, 6.349030
428.6098, 2.305908
429.0919, 0.9536740
429.5741, 1.310425
430.0562, 0.6168210
430.5383, 4.806030
431.0204, 13.18668
431.5025, 19.63489
431.9846, 17.25171
432.4668, 8.407043
432.9489, 1.826782
433.4310, 0.1265560
433.9131, 0.1730350
434.3952, 4.158051
434.8773, 12.59299
435.3595, 15.12216
435.8416, 3.987488
436.3237, 6.739746
436.8058, 6.956329
437.2879, 0.3833310
437.7701, 7.115204
438.2522, 9.173859
438.7343, 7.344635
439.2164, 3.372681
439.6985, 4.736816
440.1806, 11.43851
440.6628, 18.67953
441.1449, 23.07138
441.6270, 21.00674
442.1091, 13.66821
442.5912, 5.702271
443.0733, 0.1048280
443.5555, 3.513245
444.0376, 2.501465
444.5197, 5.485260
445.0018, 10.71664
445.4839, 6.514343
445.9660, 0.7998660
446.4482, 5.177673
446.9303, 5.628510
447.4124, 5.052917
447.8945, 4.676575
448.3766, 4.631012
448.8587, 6.089600
449.3409, 9.474426
449.8230, 10.43652
450.3051, 3.962402
450.7872, 8.635559
451.2693, 14.27560
451.7514, 6.864502
452.2336, 0.1595760
452.7157, 0.7590330
453.1978, 1.524261
453.6799, 3.862305
454.1620, 5.191101
454.6441, 5.290314
455.1263, 3.585815
455.6084, 0.4768070
456.0905, 3.186798
456.5726, 2.269318
457.0547, 2.288544
457.5368, 7.589905
458.0190, 14.03056
458.5011, 13.92767
458.9832, 3.038422
459.4653, 10.62198
459.9474, 14.54346
460.4295, 8.537354
460.9117, 5.233948
461.3938, 9.209015
461.8759, 13.53296
462.3580, 10.20718
462.8401, 1.026031
463.3222, 4.304901
463.8044, 0.2936710
464.2865, 7.108704
464.7686, 9.372467
465.2507, 7.829773
465.7328, 5.612183
466.2149, 3.799377
466.6971, 3.045593
467.1792, 4.972900
467.6613, 13.01218
468.1434, 16.24222
468.6255, 10.82535
469.1076, 4.034698
469.5898, 1.109863
470.0719, 3.696747
470.5540, 2.362366
471.0361, 4.317566
471.5182, 13.95181
472.0003, 19.74097
472.4825, 21.06018
472.9646, 20.11258
473.4467, 14.25302
473.9288, 8.469360
474.4109, 6.394653
474.8930, 7.935211
475.3752, 9.900970
475.8573, 10.47424
476.3394, 10.30850
476.8215, 10.22331
477.3036, 10.23630
477.7857, 11.37440
478.2679, 14.76737
478.7500, 19.10339
479.2321, 20.90868
479.7142, 18.78444
480.1963, 17.99576
480.6784, 21.63382
481.1606, 25.62959
481.6427, 24.62976
482.1248, 19.54326
482.6069, 17.15994
483.0890, 23.14378
483.5711, 35.42606
484.0533, 42.31067
484.5354, 39.00314
485.0175, 38.13419
485.4996, 42.94777
485.9817, 49.57578
486.4638, 55.80449
486.9460, 60.89838
487.4281, 63.94284
487.9102, 62.33560
488.3923, 58.22757
488.8744, 58.95534
489.3565, 65.42671
489.8387, 71.63272
490.3208, 73.43939
490.8029, 73.69753
491.2850, 78.79599
491.7671, 91.39227
492.2492, 101.1043
492.7314, 101.1120
493.2135, 98.12479
493.6956, 99.40218
494.1777, 105.5013
494.6598, 115.6954
495.1419, 130.4022
495.6241, 147.9448
496.1062, 159.4726
496.5883, 156.9437
497.0704, 160.3804
497.5525, 175.0964
498.0346, 193.7898
498.5168, 210.7858
498.9989, 225.4393
499.4810, 240.5709
499.9631, 260.0727
500.4452, 281.8878
500.9273, 296.0306
501.4095, 299.8382
501.8916, 307.7174
502.3737, 329.9230
502.8558, 357.5720
503.3379, 377.0220
503.8200, 386.3934
504.3022, 392.8576
504.7843, 400.2812
505.2664, 405.9424
505.7485, 405.0212
506.2306, 398.0930
506.7127, 391.5006
507.1949, 389.8398
507.6770, 391.3510
508.1591, 388.2801
508.6412, 380.6486
509.1233, 367.5044
509.6054, 344.6232
510.0876, 319.5114
510.5697, 297.3834
511.0518, 278.9821
511.5339, 262.9398
512.0161, 249.1613
512.4982, 236.4012
512.9803, 220.0547
513.4624, 198.9384
513.9445, 181.1851
514.4266, 171.2170
514.9088, 165.1142
515.3909, 157.4442
515.8730, 148.0241
516.3551, 138.7860
516.8372, 131.1184
517.3193, 124.1448
517.8015, 116.6116
518.2836, 108.5569
518.7657, 100.0638
519.2478, 91.29938
519.7299, 82.77628
520.2120, 75.74088
520.6942, 69.19098
521.1763, 65.37247
521.6584, 68.31512
522.1405, 71.02603
522.6226, 67.45764
523.1047, 60.26382
523.5869, 57.51047
524.0690, 65.19443
524.5511, 75.51892
525.0332, 74.13333
525.5153, 61.20319
525.9974, 51.60043
526.4796, 49.79315
526.9617, 50.62433
527.4438, 48.55606
527.9259, 44.09372
528.4080, 41.42233
528.8901, 42.05902
529.3723, 44.01730
529.8544, 47.33249
530.3365, 50.78275
530.8186, 51.50931
531.3007, 48.61972
531.7828, 45.02081
532.2650, 44.98447
532.7471, 49.30951
533.2292, 52.87024
533.7113, 55.40656
534.1934, 57.35538
534.6755, 57.79721
535.1577, 58.14972
535.6398, 61.04471
536.1219, 67.60406
536.6040, 73.26816
537.0861, 72.21289
537.5682, 66.77304
538.0504, 65.00699
538.5325, 68.28244
539.0146, 72.01260
539.4967, 73.04150
539.9788, 71.83636
540.4609, 70.77588
540.9431, 68.50943
541.4252, 68.21353
541.9073, 73.25635
542.3894, 78.79626
542.8715, 79.02481
543.3536, 74.34125
543.8358, 70.37448
544.3179, 71.65759
544.8000, 77.22177
545.2821, 83.58813
545.7642, 92.58408
546.2463, 97.26505
546.7285, 89.66730
547.2106, 81.72345
547.6927, 84.17285
548.1748, 96.41071
548.6569, 107.1630
549.1390, 109.9388
549.6211, 109.8551
550.1032, 112.1112
550.5853, 116.4496
551.0674, 121.1936
551.5496, 125.7592
552.0317, 130.2462
552.5138, 135.0472
552.9959, 141.0599
553.4780, 144.2826
553.9601, 141.9949
554.4423, 140.2700
554.9244, 141.2394
555.4065, 144.5371
555.8886, 149.7678
556.3707, 156.5674
556.8528, 163.4712
557.3350, 170.7560
557.8171, 178.0082
558.2992, 180.3319
558.7813, 175.5258
559.2634, 171.8324
559.7455, 176.9689
560.2277, 187.7770
560.7098, 193.4150
561.1919, 189.2121
561.6740, 187.9155
562.1561, 198.9662
562.6382, 211.5833
563.1204, 212.0253
563.6025, 201.0171
564.0846, 191.1817
564.5667, 192.1741
565.0488, 200.8124
565.5309, 204.1549
566.0131, 199.6426
566.4952, 194.8029
566.9773, 191.1436
567.4594, 188.0070
567.9415, 185.8921
568.4236, 184.1760
568.9058, 180.3133
569.3879, 169.8972
569.8700, 159.8871
570.3521, 160.4604
570.8342, 167.7788
571.3163, 168.0407
571.7985, 156.0427
572.2806, 140.1110
572.7627, 131.1885
573.2448, 130.5979
573.7269, 127.6623
574.2090, 118.7155
574.6912, 111.5040
575.1733, 107.6717
575.6554, 106.8366
576.1375, 109.6009
576.6196, 115.6063
577.1017, 120.8026
577.5839, 121.2148
578.0660, 117.9192
578.5481, 114.2137
579.0302, 109.8981
579.5123, 105.8607
579.9944, 102.7094
580.4766, 100.4428
580.9587, 98.63519
581.4408, 96.96890
581.9229, 94.07420
582.4050, 89.42139
582.8871, 84.80670
583.3693, 81.97171
583.8514, 79.99527
584.3335, 76.19257
584.8156, 69.34940
585.2977, 62.45610
585.7798, 60.91570
586.2620, 65.31873
586.7441, 68.46747
587.2262, 71.02068
587.7083, 70.74387
588.1904, 63.97186
588.6725, 53.97809
589.1547, 46.40005
589.6368, 41.92795
590.1189, 40.08618
590.6010, 42.89481
591.0831, 46.97079
591.5652, 48.25726
592.0474, 46.43344
592.5295, 42.37813
593.0116, 36.25089
593.4937, 29.29865
593.9758, 25.63605
594.4579, 26.95103
594.9401, 27.75328
595.4222, 27.75702
595.9043, 26.79726
596.3864, 24.02234
596.8685, 20.27399
597.3506, 17.72604
597.8328, 18.00372
598.3149, 18.12744
598.7970, 13.41551
599.2791, 6.607162
599.7612, 5.701935
600.2433, 12.24252
600.7255, 20.24561
601.2076, 25.22209
601.6897, 27.10513
602.1718, 25.27153
602.6539, 14.07924
603.1360, 6.906464
603.6182, 8.277084
604.1003, 11.17473
604.5824, 9.728745
605.0645, 4.606247
605.5466, 0.8137050
606.0287, 1.689026
606.5109, 4.788422
606.9930, 6.604904
607.4751, 7.282257
607.9572, 8.043045
608.4393, 9.311188
608.9214, 10.22652
609.4036, 9.676163
609.8857, 7.653519
610.3678, 6.862228
610.8499, 9.514130
611.3320, 10.49002
611.8141, 7.619049
612.2963, 3.122025
612.7784, 2.266190
613.2605, 7.441055
613.7426, 8.740250
614.2247, 0.9997250
614.7068, 10.59572
615.1890, 11.02550
615.6711, 0.4282680
616.1532, 6.136261
616.6353, 1.218750
617.1174, 12.10948
617.5995, 15.43044
618.0817, 10.96268
618.5638, 8.755630
619.0459, 12.35419
619.5280, 14.60550
620.0101, 11.83069
620.4922, 6.614487
620.9744, 1.857819
621.4565, 1.671234
621.9386, 4.429565
622.4207, 7.477890
622.9028, 9.814072
623.3849, 5.990753
623.8671, 5.682236
624.3492, 13.40096
624.8313, 11.53729
625.3134, 6.585022
625.7955, 6.903381
626.2776, 12.12720
626.7598, 14.96585
627.2419, 14.42567
627.7240, 11.24463
628.2061, 2.199066
628.6882, 7.814957
629.1703, 10.44449
629.6525, 4.557541
630.1346, 2.372818
630.6167, 2.635864
631.0988, 2.287262
631.5809, 4.053024
632.0630, 2.152496
632.5452, 1.055496
633.0273, 6.106857
633.5094, 10.97748
633.9915, 13.86972
634.4736, 14.83707
634.9557, 13.34154
635.4379, 5.905945
635.9200, 0.4673310
636.4021, 1.9530000E-03
636.8842, 3.408066
637.3663, 2.446243
637.8484, 4.008347
638.3306, 9.409760
638.8127, 6.360275
639.2948, 3.272781
639.7769, 7.408401
640.2590, 4.220871
640.7411, 2.070465
641.2233, 3.725327
641.7054, 7.026703
642.1875, 10.14745
642.6696, 13.04976
643.1517, 15.03001
643.6339, 17.05168
644.1160, 16.93176
644.5981, 10.73782
645.0802, 2.719650
645.5623, 0.1223140
646.0444, 3.347336
646.5266, 8.441605
647.0087, 11.07742
647.4908, 11.79611
647.9729, 13.03378
648.4550, 15.37741
648.9371, 15.56395
649.4193, 10.67062
649.9014, 5.629486
650.3835, 6.504410
650.8656, 12.19821
651.3477, 14.65176
651.8298, 8.378555
652.3120, 3.317184
652.7941, 4.234955
653.2762, 9.040359
653.7583, 16.77142
654.2404, 26.19284
654.7225, 32.96117
655.2047, 33.30789
655.6868, 28.85327
656.1689, 24.61691
656.6510, 20.43579
657.1331, 18.68506
657.6152, 21.02158
658.0974, 24.18022
658.5795, 25.07542
659.0616, 24.27611
659.5437, 24.09367
660.0258, 24.90094
660.5079, 25.59067
660.9901, 26.46144
661.4722, 27.18767
661.9543, 27.33734
662.4364, 26.93753
662.9185, 26.22438
663.4006, 25.20695
663.8828, 24.40707
664.3649, 24.23923
664.8470, 24.61000
665.3291, 30.51399
665.8112, 46.61087
666.2933, 58.38159
666.7755, 52.40154
667.2576, 33.33066
667.7397, 21.46112
668.2218, 18.60553
668.7039, 19.70815
669.1860, 28.51825
669.6682, 36.93610
670.1503, 37.38333
670.6324, 31.67279
671.1145, 26.14847
671.5966, 24.18681
672.0787, 25.09288
672.5609, 28.34375
673.0430, 33.04688
673.5251, 32.42136
674.0072, 24.42175
674.4893, 17.10783
674.9714, 14.38737
675.4536, 15.08003
675.9357, 16.78046
676.4178, 20.67018
676.8999, 23.41177
677.3820, 24.24277
677.8641, 24.41080
678.3463, 24.48160
678.8284, 24.52731
679.3105, 24.20139
679.7926, 23.54391
680.2747, 24.04980
680.7568, 28.25922
681.2390, 33.55194
681.7211, 34.27441
682.2032, 30.19788
682.6853, 25.54630
683.1674, 21.90076
683.6495, 19.28534
684.1317, 17.65004
684.6138, 16.87007
685.0959, 17.65964
685.5780, 22.89943
686.0601, 26.20338
686.5422, 23.66838
687.0244, 19.49229
687.5065, 18.58829
687.9886, 21.23451
688.4707, 23.89943
688.9528, 24.28641
689.4349, 22.80038
689.9171, 19.95679
690.3992, 16.96091
690.8813, 17.62363
691.3634, 22.74902
691.8455, 27.48148
692.3276, 26.47711
692.8098, 20.67661
693.2919, 18.74799
693.7740, 22.79688
694.2561, 25.87531
694.7382, 25.07025
695.2203, 24.39124
695.7025, 28.11896
696.1846, 34.31622
696.6667, 35.99020
697.1488, 28.06323
697.6309, 20.39212
698.1130, 19.24533
698.5952, 20.92752
699.0773, 21.13162
699.5594, 19.47220
700.0415, 17.38956
700.5236, 15.73846
701.0057, 14.36819
701.4879, 13.13657
701.9700, 12.07172
702.4521, 9.953827
702.9342, 5.665863
703.4163, 2.772369
703.8984, 4.476532
704.3806, 8.930115
704.8627, 11.62763
705.3448, 11.51450
705.8269, 12.79761
706.3090, 19.29565
706.7911, 24.12048
707.2733, 21.55942
707.7554, 14.97318
708.2375, 10.35464
708.7196, 9.497803
709.2017, 9.566040
709.6838, 7.151001
710.1660, 3.727234
710.6481, 4.302002
711.1302, 8.614807
711.6123, 10.07025
712.0944, 5.762665
712.5765, 6.3079998E-02
713.0587, 1.401520
713.5408, 1.642212
714.0229, 3.067871
714.5050, 1.512268
714.9871, 0.1519470
715.4692, 0.4316100
715.9514, 0.6897280
716.4335, 1.628723
716.9156, 2.745422
717.3977, 1.627136
717.8798, 4.707062
718.3619, 10.70737
718.8441, 11.24127
719.3262, 8.722595
719.8083, 7.074799
720.2904, 6.835144
720.7725, 6.996368
721.2546, 6.991150
721.7368, 6.489166
722.2189, 4.186523
722.7010, 0.4884340
723.1831, 2.742004
723.6652, 0.8731690
724.1473, 0.7812190
724.6295, 0.5655820
725.1116, 3.622192
725.5937, 5.795502
726.0758, 7.027954
726.5579, 7.526520
727.0400, 7.301300
727.5222, 6.372589
728.0043, 4.292603
728.4864, 1.667816
728.9685, 1.108246
729.4506, 3.701813
729.9327, 4.539948
730.4149, 0.9476010
730.8970, 4.931183
731.3791, 8.510406
731.8612, 9.865417
732.3433, 9.331757
732.8254, 6.737671
733.3076, 3.858276
733.7897, 2.616058
734.2718, 2.837921
734.7539, 2.265228
735.2360, 0.2093200
735.7181, 1.601837
736.2003, 2.012115
736.6824, 0.9073490
737.1645, 4.685638
737.6466, 11.95773
738.1287, 13.01694
738.6108, 3.289337
739.0930, 6.864716
739.5751, 12.88342
740.0572, 15.39270
740.5393, 13.21887
741.0214, 8.058228
741.5035, 4.731812
741.9857, 5.515472
742.4678, 8.498901
742.9499, 11.43777
743.4320, 14.30096
743.9141, 17.26794
744.3962, 21.21048
744.8784, 19.52719
745.3605, 6.553101
745.8426, 8.535004
746.3247, 12.46982
746.8068, 3.623962
747.2889, 1.123413
747.7711, 2.001831
748.2532, 4.058746
748.7353, 1.869324
749.2174, 1.523682
749.6995, 2.763977
750.1816, 2.362396
750.6638, 3.886932
751.1459, 10.43146
751.6280, 16.80096
752.1101, 17.00375
752.5922, 14.01056
753.0743, 14.00320
753.5565, 17.13666
754.0386, 18.76489
754.5207, 16.02927
755.0028, 11.19177
755.4849, 8.277710
755.9670, 7.255249
756.4492, 9.259064
756.9313, 16.47217
757.4134, 21.14307
757.8955, 18.57983
758.3776, 12.64923
758.8597, 8.976440
759.3419, 7.623199
759.8240, 7.234222
760.3061, 9.867584
760.7882, 10.76123
761.2703, 5.052155
761.7524, 1.095856
762.2346, 0.2571110
762.7167, 8.248474
763.1988, 14.04224
763.6809, 10.87134
764.1630, 6.547974
764.6451, 11.70715
765.1273, 22.46289
765.6094, 29.92929
766.0915, 32.66370
766.5736, 30.79498
767.0557, 23.86029
767.5378, 14.80841
768.0200, 9.409180
768.5021, 7.447083
768.9842, 12.50049
769.4663, 29.26706
769.9484, 42.78815
770.4305, 46.09982
770.9127, 42.77423
771.3948, 35.80820
771.8769, 24.17691
772.3590, 20.34015
772.8411, 32.39102
773.3232, 44.57825
773.8054, 52.45102
774.2875, 56.32040
774.7696, 54.87024
775.2517, 49.77542
775.7338, 47.02258
776.2159, 50.16626
776.6981, 55.13794
777.1802, 56.72501
777.6623, 56.85950
778.1444, 60.64944
778.6265, 68.20474
779.1086, 75.66040
779.5908, 80.94696
780.0729, 83.96790
780.5550, 83.04593
781.0371, 77.25568
781.5192, 78.61765
782.0013, 90.14697
782.4835, 100.4228
782.9656, 103.2497
783.4477, 104.4304
783.9298, 111.7431
784.4119, 125.3363
784.8940, 138.7780
785.3762, 154.5062
785.8583, 166.6670
786.3404, 171.0789
786.8225, 173.3611
787.3046, 175.9968
787.7867, 180.8314
788.2689, 191.9158
788.7510, 212.2291
789.2331, 233.7845
789.7152, 251.3358
790.1973, 265.3818
790.6794, 274.4327
791.1616, 280.4547
791.6437, 290.5590
792.1258, 307.8851
792.6079, 330.5890
793.0900, 358.0390
793.5721, 389.1361
794.0543, 411.4110
794.5364, 422.0406
795.0185, 442.8133
795.5006, 482.5270
795.9827, 528.8289
796.4648, 570.0088
796.9470, 606.5504
797.4291, 646.8825
797.9112, 690.2846
798.3933, 738.4752
798.8754, 787.9858
799.3575, 845.8199
799.8397, 918.3226
800.3218, 1001.297
800.8039, 1088.194
801.2860, 1177.616
801.7681, 1267.633
802.2502, 1352.516
802.7324, 1441.838
803.2145, 1543.670
803.6966, 1656.312
804.1787, 1775.669
804.6608, 1901.949
805.1429, 2042.028
805.6251, 2205.314
806.1072, 2381.604
806.5893, 2547.331
807.0714, 2705.196
807.5535, 2869.803
808.0356, 3043.729
808.5178, 3230.698
808.9999, 3436.904
809.4820, 3652.219
809.9641, 3847.700
810.4462, 4021.863
810.9283, 4184.361
811.4105, 4338.589
811.8926, 4476.833
812.3747, 4604.055
812.8568, 4707.523
813.3389, 4768.965
813.8210, 4788.342
814.3032, 4792.104
814.7853, 4789.798
815.2674, 4764.915
815.7495, 4706.339
816.2316, 4627.153
816.7137, 4531.664
817.1959, 4426.503
817.6780, 4326.580
818.1601, 4240.884
818.6422, 4147.955
819.1243, 4020.163
819.6064, 3877.318
820.0886, 3748.364
820.5707, 3632.928
821.0528, 3523.168
821.5349, 3415.957
822.0170, 3316.567
822.4991, 3231.021
822.9813, 3156.598
823.4634, 3076.805
823.9455, 2990.460
824.4276, 2921.717
824.9097, 2878.684
825.3918, 2839.798
825.8740, 2788.094
826.3561, 2729.201
826.8382, 2683.044
827.3203, 2657.132
827.8024, 2626.956
828.2845, 2588.390
828.7667, 2549.669
829.2488, 2511.153
829.7309, 2475.832
830.2130, 2449.499
830.6951, 2432.267
831.1772, 2411.458
831.6594, 2379.713
832.1415, 2349.588
832.6236, 2327.371
833.1057, 2308.376
833.5878, 2287.248
834.0699, 2264.574
834.5521, 2243.197
835.0342, 2224.591
835.5163, 2206.692
835.9984, 2191.489
836.4805, 2173.482
836.9626, 2140.759
837.4448, 2096.385
837.9269, 2052.200
838.4090, 2012.790
838.8911, 1978.604
839.3732, 1951.957
839.8553, 1928.511
840.3375, 1892.820
840.8196, 1844.676
841.3017, 1796.788
841.7838, 1751.617
842.2659, 1705.348
842.7480, 1654.234
843.2302, 1600.955
843.7123, 1552.564
844.1944, 1513.994
844.6765, 1462.995
845.1586, 1390.638
845.6407, 1319.271
846.1229, 1255.578
846.6050, 1196.558
847.0871, 1138.789
847.5692, 1082.553
848.0513, 1031.991
848.5334, 994.1396
849.0156, 952.9081
849.4977, 897.1060
849.9798, 842.3788
850.4619, 803.7744
850.9440, 774.9114
851.4261, 739.8160
851.9083, 692.8211
852.3904, 648.8881
852.8725, 622.2453
853.3546, 599.3805
853.8367, 560.4797
854.3188, 515.5922
854.8010, 488.7767
855.2831, 482.2155
855.7652, 475.8524
856.2473, 455.1107
856.7294, 426.1369
857.2115, 398.3029
857.6937, 371.6587
858.1758, 346.3800
858.6579, 322.4468
859.1400, 298.0009
859.6221, 271.6235
860.1042, 247.8037
860.5864, 234.0211
861.0685, 229.7964
861.5506, 218.9443
862.0327, 199.2357
862.5148, 181.4005
862.9969, 167.1891
863.4791, 156.3856
863.9612, 150.3363
864.4433, 147.1256
864.9254, 139.8573
865.4075, 126.4374
865.8896, 113.2477
866.3718, 99.00739
866.8539, 86.41992
867.3360, 75.07214
867.8181, 66.69980
868.3002, 65.71307
868.7823, 71.36850
869.2645, 71.77621
869.7466, 57.37564
870.2287, 45.70245
870.7108, 46.02661
871.1929, 49.81326
871.6750, 50.59793
872.1572, 48.22018
872.6393, 43.46948
873.1214, 36.43481
873.6035, 31.15509
874.0856, 33.19247
874.5677, 36.28989
875.0499, 32.41272
875.5320, 24.38574
876.0141, 17.91873
876.4962, 14.31015
876.9783, 13.30420
877.4604, 15.57745
877.9426, 16.88263
878.4247, 6.563293
878.9068, 10.55176
879.3889, 13.77829
879.8710, 3.091858
880.3531, 3.852325
880.8353, 0.2559200
881.3174, 7.881378
881.7995, 10.47824
882.2816, 8.507660
882.7637, 3.177185
883.2458, 7.010254
883.7280, 7.679565
884.2101, 6.955048
884.6922, 19.85519
885.1743, 19.41919
885.6564, 10.70172
886.1385, 4.393127
886.6207, 0.6555790
887.1028, 1.263672
887.5849, 0.4769590
888.0670, 0.6864930
888.5491, 0.5591430
889.0313, 1.521820
889.5134, 8.415527
889.9955, 18.72626
890.4776, 20.56100
890.9597, 5.011078
891.4418, 4.312531
891.9240, 0.1665040
892.4061, 6.823639
892.8882, 10.59222
893.3703, 12.22226
893.8524, 13.56836
894.3345, 14.71683
894.8167, 13.33502
895.2988, 4.992615
895.7809, 1.856384
896.2630, 0.5858460
896.7451, 4.251495
897.2272, 2.066376
897.7094, 14.20218
898.1915, 18.86569
898.6736, 11.25580
899.1557, 2.494232
899.6378, 0.4442440
900.1199, 2.972015
900.6021, 11.06415
901.0842, 20.58313
901.5663, 21.23346
902.0484, 12.98325
902.5305, 6.167175
903.0126, 7.326996
903.4948, 12.43890
903.9769, 17.53210
904.4590, 21.50647
904.9411, 19.34106
905.4232, 11.84039
905.9053, 5.902740
906.3875, 3.795227
906.8696, 4.910034
907.3517, 9.303284
907.8338, 15.41531
908.3159, 18.29904
908.7980, 17.94498
909.2802, 15.08386
909.7623, 9.158386
910.2444, 5.535309
910.7265, 6.946014
911.2086, 11.60300
911.6907, 17.20514
912.1729, 23.74112
912.6550, 30.77029
913.1371, 39.94058
913.6192, 43.68817
914.1013, 36.61636
914.5834, 31.90189
915.0656, 40.68994
915.5477, 56.23337
916.0298, 62.35233
916.5119, 55.03961
916.9940, 53.46436
917.4761, 64.09921
917.9583, 71.29950
918.4404, 66.31479
918.9225, 61.00793
919.4046, 65.88171
919.8867, 78.38281
920.3688, 88.53064
920.8510, 93.98706
921.3331, 100.7091
921.8152, 111.7823
922.2973, 121.7156
922.7794, 128.9461
923.2615, 133.0952
923.7437, 131.9030
924.2258, 126.5096
924.7079, 124.5822
925.1900, 130.6208
925.6721, 136.8329
926.1542, 139.5923
926.6364, 141.7079
927.1185, 144.7441
927.6006, 149.0077
928.0827, 155.7972
928.5648, 164.8934
929.0469, 171.2980
929.5291, 170.3127
930.0112, 167.8376
930.4933, 167.3936
930.9754, 168.6057
931.4575, 171.5990
931.9396, 175.7527
932.4218, 180.3081
932.9039, 184.9420
933.3860, 187.0404
933.8681, 182.6245
934.3502, 175.8031
934.8323, 171.1442
935.3145, 168.4172
935.7966, 167.3386
936.2787, 167.7099
936.7608, 168.8270
937.2429, 171.0582
937.7250, 173.7173
938.2072, 173.9584
938.6893, 172.9424
939.1714, 175.2026
939.6535, 179.0927
940.1356, 175.6339
940.6177, 163.7907
941.0999, 153.3286
941.5820, 151.1531
942.0641, 152.8522
942.5462, 151.7228
943.0283, 148.5813
943.5104, 143.3457
943.9926, 136.1339
944.4747, 130.1615
944.9568, 126.3404
945.4389, 124.7302
945.9210, 125.9975
946.4031, 128.4353
946.8853, 125.7053
947.3674, 117.5278
947.8495, 115.3203
948.3316, 121.0104
948.8137, 125.5816
949.2958, 124.0893
949.7780, 122.1347
950.2601, 127.3654
950.7422, 137.1094
951.2243, 134.8840
951.7064, 118.0987
952.1885, 106.6233
952.6707, 103.4974
953.1528, 102.8036
953.6349, 102.2001
954.1170, 100.2845
954.5991, 94.61984
955.0812, 86.24921
955.5634, 86.88443
956.0455, 101.8383
956.5276, 108.7385
957.0097, 101.2619
957.4918, 92.90738
957.9739, 91.19824
958.4561, 92.94556
958.9382, 93.04367
959.4203, 91.27637
959.9024, 91.11981
960.3845, 94.36292
960.8666, 95.55359
961.3488, 92.61798
961.8309, 89.20221
962.3130, 87.35657
962.7951, 86.62967
963.2772, 86.69284
963.7593, 88.47095
964.2415, 86.36765
964.7236, 73.88303
965.2057, 65.86981
965.6878, 68.94354
966.1699, 73.39230
966.6520, 72.90927
967.1342, 69.26428
967.6163, 66.05234
968.0984, 63.01004
968.5805, 63.69949
969.0626, 70.98883
969.5447, 76.78357
970.0269, 79.66229
970.5090, 80.51477
970.9911, 79.50500
971.4732, 77.10870
971.9553, 74.25522
972.4374, 70.54800
972.9196, 68.11374
973.4017, 69.36819
973.8838, 69.19507
974.3659, 63.09164
974.8480, 57.27258
975.3301, 59.24014
975.8123, 65.77533
976.2944, 64.48819
976.7765, 48.99158
977.2586, 41.47882
977.7407, 53.09613
978.2228, 63.64606
978.7050, 63.41782
979.1871, 59.30124
979.6692, 58.11880
980.1513, 59.44705
980.6334, 59.45236
981.1155, 56.70197
981.5977, 54.74698
982.0798, 53.93866
982.5619, 54.25708
983.0440, 57.65564
983.5261, 60.93411
984.0082, 59.34567
984.4904, 53.37109
984.9725, 47.89032
985.4546, 44.26538
985.9367, 40.67239
986.4188, 35.75690
986.9009, 31.44345
987.3831, 29.02100
987.8652, 27.78143
988.3473, 25.46356
988.8294, 23.03967
989.3115, 26.71378
989.7936, 42.13342
990.2758, 52.61948
990.7579, 47.56494
991.2400, 39.44968
991.7221, 33.12781
992.2042, 30.48468
992.6863, 36.26428
993.1685, 47.77829
993.6506, 53.10626
994.1327, 46.82593
994.6148, 38.33585
995.0969, 28.74307
995.5790, 21.63156
996.0612, 19.47623
996.5433, 21.25433
997.0254, 27.78360
997.5075, 37.15543
997.9896, 42.40298
998.4717, 40.34625
998.9539, 36.37918
999.4360, 28.28113
999.9181, 24.15933
1000.400, 36.50952
1000.882, 51.84323
1001.364, 50.63144
1001.847, 34.84195
1002.329, 22.43964
1002.811, 19.84579
1003.293, 20.44327
1003.775, 24.29544
1004.257, 26.82349
1004.739, 21.20407
1005.221, 14.78326
1005.703, 20.24384
1006.186, 34.41888
1006.668, 39.70932
1007.150, 27.24652
1007.632, 15.56183
1008.114, 11.88177
1008.596, 13.10837
1009.078, 22.15408
1009.560, 31.62753
1010.043, 32.06448
1010.525, 24.55304
1011.007, 16.36411
1011.489, 8.145172
1011.971, 5.186279
1012.453, 15.44846
1012.935, 25.12646
1013.417, 24.24066
1013.899, 19.32770
1014.382, 18.63440
1014.864, 21.08627
1015.346, 19.62323
1015.828, 11.05261
1016.310, 4.271454
1016.792, 1.500549
1017.274, 2.562714
1017.756, 12.19742
1018.239, 22.35803
1018.721, 23.77487
1019.203, 18.22141
1019.685, 13.37411
1020.167, 11.35242
1020.649, 8.259888
1021.131, 0.5249630
1021.613, 6.200531
1022.095, 2.730743
1022.578, 3.224854
1023.060, 6.746033
1023.542, 7.790131
1024.024, 7.478638
1024.506, 6.080780
1024.988, 2.882751
1025.470, 7.003876
1025.952, 12.54816
1026.435, 6.938751
1026.917, 2.187164
1027.399, 11.23572
1027.881, 18.21017
1028.363, 19.28687
1028.845, 13.13815
1029.327, 8.358002
1029.809, 7.570831
1030.292, 6.852966
1030.774, 5.209503
1031.256, 3.233856
1031.738, 0.5122680
1032.220, 3.543121
1032.702, 0.7052920
1033.184, 13.80960
1033.666, 17.56555
1034.148, 0.8467410
1034.630, 12.62936
1035.113, 8.613708
1035.595, 1.768799
1036.077, 8.9905001E-02
1036.559, 0.4481510
1037.041, 8.626251
1037.523, 25.08231
1038.005, 29.48572
1038.487, 8.698822
1038.970, 3.048981
1039.452, 3.956879
1039.934, 10.07977
1040.416, 4.022339
1040.898, 4.936035
1041.380, 5.248718
1041.862, 2.256744
1042.344, 8.575684
1042.826, 14.57343
1043.309, 17.33234
1043.791, 16.09073
1044.273, 12.60440
1044.755, 5.691223
1045.237, 0.6820680
1045.719, 2.351288
1046.201, 0.1198120
1046.683, 2.527649
1047.166, 6.445282
1047.648, 7.929871
1048.130, 4.596588
1048.612, 3.335114
1049.094, 6.707123
1049.576, 11.34164
1050.058, 14.77762
1050.540, 16.86597
1051.022, 17.16855
1051.505, 15.63971
1051.987, 12.28909
1052.469, 6.515961
1052.951, 2.912079
1053.433, 3.065674
1053.915, 5.722046
1054.397, 9.892761
1054.879, 13.73404
1055.361, 14.55081
1055.844, 12.68015
1056.326, 12.53690
1056.808, 14.08313
1057.290, 12.34811
1057.772, 6.412720
1058.254, 4.300049
1058.736, 10.54840
1059.218, 18.62463
1059.701, 19.53360
1060.183, 15.62277
1060.665, 14.98358
1061.147, 16.89917
1061.629, 17.56784
1062.111, 16.60327
1062.593, 14.40802
1063.075, 11.24902
1063.557, 9.475037
1064.040, 12.09714
1064.522, 16.01471
1065.004, 13.60422
1065.486, 8.710632
1065.968, 13.45453
1066.450, 24.66458
1066.932, 26.65671
1067.414, 17.00745
1067.896, 11.74881
1068.379, 23.76025
1068.861, 37.15585
1069.343, 30.53885
1069.825, 16.81223
1070.307, 14.21518
1070.789, 18.58780
1071.271, 20.57556
1071.753, 18.70190
1072.236, 15.70621
1072.718, 12.80444
1073.200, 8.935303
1073.682, 0.1087650
1074.164, 6.795074
1074.646, 3.141754
1075.128, 5.284943
1075.610, 12.91129
1076.093, 18.79489
1076.575, 23.85553
1077.057, 28.48233
1077.539, 27.89514
1078.021, 14.62115
1078.503, 2.809296
1078.985, 1.724274
1079.467, 2.069916
1079.949, 1.682983
1080.432, 7.657166
1080.914, 13.53918
1081.396, 19.00717
1081.878, 23.83374
1082.360, 31.10565
1082.842, 32.95837
1083.324, 23.06754
1083.806, 12.87445
1084.288, 6.117096
1084.771, 3.915588
1085.253, 9.501801
1085.735, 20.63251
1086.217, 26.15152
1086.699, 22.32346
1087.181, 23.20120
1087.663, 33.58344
1088.145, 38.61682
1088.628, 32.21698
1089.110, 23.58969
1089.592, 18.97067
1090.074, 17.04227
1090.556, 15.72736
1091.038, 14.81409
1091.520, 14.66931
1092.002, 15.38037
1092.484, 15.54712
1092.967, 16.29041
1093.449, 15.47153
1093.931, 11.27759
1094.413, 6.240967
1094.895, 3.342438
1095.377, 2.690582
1095.859, 5.844360
1096.341, 12.06149
1096.823, 15.30228
1097.306, 15.62103
1097.788, 13.94662
1098.270, 10.90997
1098.752, 9.861176
1099.234, 14.56851
1099.716, 21.21866
1100.198, 23.60223
1100.680, 22.41855
1101.163, 17.31961
1101.645, 10.42191
1102.127, 6.608612
1102.609, 6.488617
1103.091, 8.872284
1103.573, 13.50702
1104.055, 15.41074
1104.537, 4.472687
1105.020, 5.165863
1105.502, 4.171112
1105.984, 18.89658
1106.466, 21.25540
1106.948, 15.27216
1107.430, 14.01639
1107.912, 19.97702
1108.394, 23.59027
1108.876, 20.33551
1109.359, 14.99014
1109.841, 7.820190
1110.323, 0.8074040
1110.805, 7.734894
1111.287, 13.38602
1111.769, 7.940369
1112.251, 5.922760
1112.733, 12.87088
1113.215, 7.328430
1113.698, 5.410309
1114.180, 11.01208
1114.662, 14.71487
1115.144, 12.49130
1115.626, 10.64261
1116.108, 13.91495
1116.590, 19.86951
1117.072, 24.54443
1117.555, 27.94067
1118.037, 25.07159
1118.519, 13.85586
1119.001, 8.543671
1119.483, 11.35968
1119.965, 16.90503
1120.447, 23.36752
1120.929, 28.64450
1121.411, 30.44098
1121.894, 29.75510
1122.376, 28.70340
1122.858, 27.38699
1123.340, 25.96902
1123.822, 24.89075
1124.304, 27.56274
1124.786, 33.84937
1125.268, 36.20593
1125.750, 30.02179
1126.233, 23.80325
1126.715, 30.25034
1127.197, 39.69156
1127.679, 36.75867
1128.161, 28.72681
1128.643, 28.14636
1129.125, 33.02060
1129.607, 33.66660
1130.090, 28.16443
1130.572, 25.24863
1131.054, 31.39920
1131.536, 37.24524
1132.018, 37.03268
1132.500, 36.09506
1132.982, 38.31012
1133.464, 41.10971
1133.947, 42.35165
1134.429, 41.53619
1134.911, 37.17517
1135.393, 26.26801
1135.875, 21.55032
1136.357, 29.97992
1136.839, 35.53214
1137.321, 34.67874
1137.803, 32.51651
1138.286, 32.35370
1138.768, 31.13840
1139.250, 22.79044
1139.732, 9.107483
1140.214, 8.535492
1140.696, 23.57492
1141.178, 32.28104
1141.660, 32.94391
1142.142, 30.29648
1142.625, 25.54837
1143.107, 21.31036
1143.589, 19.54614
1144.071, 19.26828
1144.553, 18.93243
1145.035, 18.65396
1145.517, 18.76630
1145.999, 19.04663
1146.482, 19.07800
1146.964, 18.66464
1147.446, 16.70694
1147.928, 13.06226
1148.410, 11.62387
1148.892, 16.76758
1149.374, 22.79279
1149.856, 25.45975
1150.339, 25.42996
1150.821, 22.30688
1151.303, 17.70801
1151.785, 12.33633
1152.267, 7.551941
1152.749, 7.601044
1153.231, 14.63226
1153.713, 22.16336
1154.195, 31.23441
1154.677, 37.10413
1155.160, 39.85330
1155.642, 37.10825
1156.124, 23.28287
1156.606, 7.011719
1157.088, 0.3642880
1157.570, 0.9739690
1158.052, 5.851257
1158.534, 15.60480
1159.017, 22.75687
1159.499, 27.00330
1159.981, 29.58847
1160.463, 29.85123
1160.945, 30.01093
1161.427, 31.57974
1161.909, 32.24518
1162.391, 26.14102
1162.874, 16.28693
1163.356, 16.42087
1163.838, 22.78607
1164.320, 23.94995
1164.802, 20.13260
1165.284, 18.13617
1165.766, 20.07660
1166.248, 23.45212
1166.730, 27.75604
1167.213, 29.94394
1167.695, 24.37125
1168.177, 18.76599
1168.659, 22.41800
1169.141, 27.87961
1169.623, 23.29694
1170.105, 13.16013
1170.587, 12.89432
1171.069, 27.40277
1171.552, 34.89197
1172.034, 25.23303
1172.516, 18.39056
1172.998, 20.92548
1173.480, 21.50146
1173.962, 13.06128
1174.444, 3.768860
1174.926, 2.443909
1175.409, 6.900055
1175.891, 9.829498
1176.373, 11.15503
1176.855, 12.26147
1177.337, 13.18726
1177.819, 11.79276
1178.301, 7.816864
1178.783, 3.681885
1179.266, 0.6147460
1179.748, 0.3215640
1180.230, 2.359619
1180.712, 7.622772
1181.194, 16.82721
1181.676, 25.77435
1182.158, 25.28809
1182.640, 19.37613
1183.122, 17.25140
1183.604, 19.49048
1184.087, 20.74796
1184.569, 18.85492
1185.051, 17.67178
1185.533, 19.61627
1186.015, 21.72528
1186.497, 23.48999
1186.979, 24.20566
1187.461, 23.89331
1187.944, 21.87933
1188.426, 15.12347
1188.908, 5.435303
1189.390, 4.958405
1189.872, 18.98575
1190.354, 22.10175
1190.836, 10.53006
1191.318, 5.667572
1191.801, 13.23203
1192.283, 20.58469
1192.765, 20.47125
1193.247, 17.29852
1193.729, 16.05466
1194.211, 16.65298
1194.693, 20.90042
1195.175, 26.06543
1195.657, 23.56653
1196.140, 15.67618
1196.622, 9.174225
1197.104, 5.948334
1197.586, 7.197723
1198.068, 14.50925
1198.550, 19.00812
1199.032, 10.11740
1199.514, 3.415527
1199.996, 11.69144
1200.479, 21.61127
1200.961, 23.16104
1201.443, 19.22330
1201.925, 12.02606
1202.407, 3.412140
1202.889, 4.622620
1203.371, 21.28894
1203.853, 29.41339
1204.336, 26.17676
1204.818, 23.94205
1205.300, 26.12744
1205.782, 24.08145
1206.264, 12.11398
1206.746, 0.2991030
1207.228, 0.9427190
1207.710, 9.141785
1208.193, 13.16312
1208.675, 14.28760
1209.157, 16.90521
1209.639, 20.40582
1210.121, 22.67834
1210.603, 23.28290
1211.085, 22.23511
1211.567, 19.51947
1212.049, 16.14587
1212.531, 12.84985
1213.014, 8.878815
1213.496, 0.2680360
1213.978, 5.710480
1214.460, 1.727325
1214.942, 13.96136
1215.424, 23.60132
1215.906, 28.67267
1216.388, 21.87506
1216.871, 1.444336
1217.353, 6.100311
1217.835, 13.81387
1218.317, 27.54330
1218.799, 29.99756
1219.281, 31.78128
1219.763, 37.27362
1220.245, 40.50354
1220.728, 36.19290
1221.210, 28.81427
1221.692, 26.08914
1222.174, 26.39716
1222.656, 28.83694
1223.138, 32.01764
1223.620, 31.98346
1224.102, 29.23047
1224.584, 25.58591
1225.067, 21.91693
1225.549, 21.02560
1226.031, 27.83337
1226.513, 31.65329
1226.995, 15.77420
1227.477, 7.3729999E-02
1227.959, 8.320984
1228.441, 20.23987
1228.923, 23.42676
1229.406, 21.94937
1229.888, 22.57468
1230.370, 25.17529
1230.852, 28.83865
1231.334, 33.75128
1231.816, 33.70523
1232.298, 28.51617
1232.780, 21.75192
1233.263, 17.79736
1233.745, 18.74863
1234.227, 26.98929
1234.709, 31.93896
1235.191, 16.84933
1235.673, 0.2048340
1236.155, 2.531982
1236.637, 6.792542
1237.120, 0.0000000E+00
##END=



