##NAMES=Felsobanyaite
##RRUFFID=R060239
##IDEAL CHEMISTRY=Al_4_(SO_4_)(OH)_10_&#183;4H_2_O
##LOCALITY=El Dragon mine, Potosi, Bolivia
##OWNER=RRUFF
##SOURCE=Michael Scott
##DESCRIPTION=White, massive powder associated with light blue chalcomenite.
##STATUS=The identification of this mineral has been confirmed by X-ray diffraction.
##URL=rruff.info/R060239
154.6472, 0.0000000E+00
155.1293, 19.90039
155.6115, 31.25781
156.0936, 37.68555
156.5757, 33.82617
157.0578, 25.37695
157.5399, 16.29688
158.0220, 6.171875
158.5042, 0.8125000
158.9863, 3.365234
159.4684, 1.201172
159.9505, 6.121094
160.4326, 25.16602
160.9147, 48.65430
161.3969, 65.58789
161.8790, 72.71289
162.3611, 72.23438
162.8432, 62.59180
163.3253, 38.87891
163.8074, 19.89062
164.2896, 11.22266
164.7717, 12.72266
165.2538, 24.45312
165.7359, 60.55469
166.2180, 98.01172
166.7001, 116.1797
167.1823, 100.5117
167.6644, 87.68555
168.1465, 107.9863
168.6286, 150.7090
169.1107, 186.0840
169.5928, 192.9961
170.0750, 186.1875
170.5571, 180.5996
171.0392, 177.9238
171.5213, 179.9922
172.0034, 193.2402
172.4855, 215.0098
172.9677, 231.8496
173.4498, 225.1602
173.9319, 211.2188
174.4140, 214.5488
174.8961, 250.9688
175.3782, 296.4512
175.8604, 327.4297
176.3425, 344.9629
176.8246, 355.8398
177.3067, 356.7676
177.7888, 355.5410
178.2709, 369.6328
178.7531, 420.7969
179.2352, 477.4355
179.7173, 483.9121
180.1994, 442.2734
180.6815, 398.5430
181.1636, 397.7891
181.6458, 428.5820
182.1279, 456.5840
182.6100, 472.5352
183.0921, 478.1934
183.5742, 472.0996
184.0563, 453.1055
184.5385, 439.6230
185.0206, 457.8086
185.5027, 500.7695
185.9848, 533.6543
186.4669, 539.0801
186.9490, 525.9551
187.4312, 521.9492
187.9133, 527.3242
188.3954, 537.2617
188.8775, 546.3594
189.3596, 554.6641
189.8417, 564.1543
190.3239, 576.1211
190.8060, 590.1895
191.2881, 602.5273
191.7702, 612.6621
192.2523, 622.5840
192.7344, 638.2227
193.2166, 659.6426
193.6987, 673.6113
194.1808, 675.8594
194.6629, 666.5566
195.1450, 644.1250
195.6271, 603.9590
196.1093, 562.4316
196.5914, 546.4434
197.0735, 557.8105
197.5556, 570.5449
198.0377, 577.9883
198.5198, 580.3340
199.0020, 559.3086
199.4841, 506.8281
199.9662, 447.7812
200.4483, 420.8145
200.9304, 428.9395
201.4125, 439.0977
201.8947, 443.1523
202.3768, 440.7246
202.8589, 428.1797
203.3410, 401.2656
203.8231, 367.6191
204.3052, 327.3125
204.7874, 277.2676
205.2695, 233.6641
205.7516, 206.4102
206.2337, 198.7051
206.7158, 184.6348
207.1979, 159.3438
207.6801, 132.2500
208.1622, 128.8027
208.6443, 160.8027
209.1264, 180.5879
209.6085, 156.8438
210.0906, 72.28125
210.5728, 26.41016
211.0549, 33.20117
211.5370, 70.56250
212.0191, 86.35938
212.5012, 71.06445
212.9833, 55.90430
213.4655, 56.40039
213.9476, 78.66406
214.4297, 93.95508
214.9118, 97.73633
215.3939, 96.47656
215.8760, 107.0391
216.3581, 131.2188
216.8403, 162.7461
217.3224, 201.0918
217.8045, 253.5820
218.2866, 289.6523
218.7687, 303.0234
219.2508, 300.8398
219.7330, 301.1797
220.2151, 303.5605
220.6972, 307.7266
221.1793, 311.9688
221.6614, 312.6504
222.1435, 323.8691
222.6257, 354.7344
223.1078, 393.4023
223.5899, 407.5195
224.0720, 389.1953
224.5541, 359.3867
225.0362, 325.6289
225.5184, 282.4395
226.0005, 251.4102
226.4826, 239.6816
226.9647, 239.2480
227.4468, 225.8066
227.9289, 189.6133
228.4111, 156.5664
228.8932, 140.6562
229.3753, 153.7324
229.8574, 156.1836
230.3395, 142.0371
230.8216, 118.2539
231.3038, 104.3438
231.7859, 104.4238
232.2680, 107.8945
232.7501, 109.7617
233.2322, 107.5156
233.7143, 108.5273
234.1965, 113.0137
234.6786, 120.5137
235.1607, 131.2500
235.6428, 150.0781
236.1249, 164.2090
236.6070, 167.0098
237.0892, 152.0469
237.5713, 138.4727
238.0534, 124.0273
238.5355, 111.2344
239.0176, 108.1895
239.4997, 124.9043
239.9819, 137.1582
240.4640, 132.5020
240.9461, 98.86719
241.4282, 78.33008
241.9103, 79.56250
242.3924, 91.34570
242.8746, 85.36914
243.3567, 50.50977
243.8388, 15.32812
244.3209, 8.865234
244.8030, 19.20898
245.2851, 24.79688
245.7673, 23.97461
246.2494, 18.62500
246.7315, 11.89258
247.2136, 1.568359
247.6957, 8.267578
248.1778, 1.214844
248.6600, 26.43750
249.1421, 47.97656
249.6242, 66.48047
250.1063, 77.44531
250.5884, 70.09180
251.0705, 34.00391
251.5527, 2.554688
252.0348, 29.83203
252.5169, 48.16797
252.9990, 55.00195
253.4811, 41.50195
253.9632, 22.19336
254.4454, 25.29492
254.9275, 65.56250
255.4096, 99.83008
255.8917, 111.0527
256.3738, 91.89453
256.8560, 82.99414
257.3381, 87.83203
257.8202, 100.1211
258.3023, 112.3887
258.7844, 127.9180
259.2665, 135.6172
259.7487, 128.1094
260.2308, 100.9453
260.7129, 91.79102
261.1950, 109.7598
261.6771, 135.7012
262.1592, 140.0586
262.6414, 109.6465
263.1235, 91.03320
263.6056, 101.8770
264.0877, 145.3008
264.5698, 172.6016
265.0519, 175.7988
265.5341, 173.6250
266.0162, 191.5586
266.4983, 238.7109
266.9804, 276.7520
267.4625, 292.6191
267.9446, 286.5742
268.4268, 298.6367
268.9089, 340.5156
269.3910, 378.8457
269.8731, 371.1016
270.3552, 301.0703
270.8373, 250.7090
271.3195, 243.5820
271.8016, 274.6172
272.2837, 290.7930
272.7658, 288.2988
273.2479, 280.0762
273.7300, 275.5645
274.2122, 273.4121
274.6943, 285.0703
275.1764, 319.5391
275.6585, 369.7656
276.1406, 394.7246
276.6227, 388.6504
277.1049, 377.1367
277.5870, 382.5625
278.0691, 406.9180
278.5512, 427.2695
279.0333, 440.0859
279.5154, 446.4766
279.9976, 447.1660
280.4797, 440.2598
280.9618, 437.5469
281.4439, 456.0117
281.9260, 495.6602
282.4081, 506.1074
282.8903, 469.4922
283.3724, 412.3047
283.8545, 402.8340
284.3366, 444.7832
284.8187, 494.7793
285.3008, 526.8438
285.7830, 542.7461
286.2651, 550.2383
286.7472, 546.5586
287.2293, 540.7383
287.7114, 551.7168
288.1935, 579.2637
288.6757, 605.9160
289.1578, 622.6504
289.6399, 630.0547
290.1220, 628.3027
290.6041, 616.8789
291.0862, 601.4512
291.5684, 588.6250
292.0505, 578.0410
292.5326, 568.7461
293.0147, 562.7266
293.4968, 557.8184
293.9789, 547.5781
294.4611, 532.1836
294.9432, 511.9453
295.4253, 485.4824
295.9074, 455.0430
296.3895, 429.2188
296.8716, 411.1699
297.3538, 400.4336
297.8359, 399.9844
298.3180, 410.6582
298.8001, 417.6348
299.2822, 403.7637
299.7643, 375.1465
300.2465, 347.1172
300.7286, 320.9023
301.2107, 302.2949
301.6928, 304.0391
302.1749, 326.3145
302.6570, 352.5449
303.1392, 377.5547
303.6213, 396.7754
304.1034, 398.8652
304.5855, 366.9824
305.0676, 333.6602
305.5497, 335.5723
306.0319, 366.9355
306.5140, 398.9160
306.9961, 415.7422
307.4782, 421.5566
307.9603, 420.2949
308.4424, 408.6992
308.9246, 401.0449
309.4067, 411.9863
309.8888, 435.3711
310.3709, 450.4844
310.8530, 440.1934
311.3351, 424.1035
311.8173, 422.0488
312.2994, 444.1094
312.7815, 459.2129
313.2636, 442.9707
313.7457, 407.5430
314.2278, 374.6289
314.7100, 358.1699
315.1921, 344.2344
315.6742, 322.8145
316.1563, 291.2090
316.6384, 264.7070
317.1205, 250.0391
317.6027, 244.5664
318.0848, 244.9883
318.5669, 268.8770
319.0490, 281.6973
319.5311, 263.5527
320.0132, 212.2617
320.4954, 164.8848
320.9775, 127.6543
321.4596, 100.5781
321.9417, 84.14648
322.4238, 82.53906
322.9059, 87.00391
323.3881, 99.82617
323.8702, 119.5840
324.3523, 133.0742
324.8344, 136.3008
325.3165, 134.4023
325.7986, 130.6777
326.2808, 117.2754
326.7629, 112.1699
327.2450, 125.3594
327.7271, 150.2109
328.2092, 160.2891
328.6913, 132.1934
329.1735, 109.7598
329.6556, 111.5605
330.1377, 155.3477
330.6198, 189.6055
331.1019, 216.7773
331.5840, 233.0742
332.0662, 230.1641
332.5483, 190.2500
333.0304, 155.8496
333.5125, 142.0938
333.9946, 153.5527
334.4767, 159.8262
334.9589, 158.4922
335.4410, 153.8242
335.9231, 153.8906
336.4052, 166.6016
336.8873, 161.8945
337.3694, 124.4121
337.8515, 57.58398
338.3336, 19.23047
338.8158, 16.37305
339.2979, 28.35547
339.7800, 39.78320
340.2621, 51.53516
340.7442, 58.47266
341.2263, 59.78320
341.7085, 55.77539
342.1906, 43.88477
342.6727, 22.80469
343.1548, 2.689453
343.6369, 8.046875
344.1190, 10.32617
344.6012, 17.46484
345.0833, 34.17188
345.5654, 50.86328
346.0475, 44.56641
346.5296, 18.99219
347.0117, 1.359375
347.4939, 2.550781
347.9760, 10.89062
348.4581, 27.39844
348.9402, 48.33203
349.4223, 62.45117
349.9044, 49.41406
350.3866, 16.97070
350.8687, 8.408203
351.3508, 7.292969
351.8329, 3.033203
352.3150, 10.36133
352.7971, 46.72656
353.2793, 76.30664
353.7614, 63.83398
354.2435, 32.11328
354.7256, 19.78125
355.2077, 51.78125
355.6898, 89.48828
356.1720, 101.7109
356.6541, 91.08594
357.1362, 69.73047
357.6183, 18.85742
358.1004, 26.00977
358.5826, 26.42969
359.0647, 42.94922
359.5468, 110.0820
360.0289, 138.4863
360.5110, 137.2500
360.9931, 123.7656
361.4753, 82.67188
361.9574, 48.62891
362.4395, 43.74219
362.9216, 74.88477
363.4037, 103.3262
363.8858, 120.8809
364.3680, 128.9707
364.8501, 129.1934
365.3322, 125.9883
365.8143, 111.2832
366.2964, 70.15234
366.7785, 4.238281
367.2607, 29.32031
367.7428, 5.269531
368.2249, 53.90625
368.7070, 84.20898
369.1891, 88.46875
369.6712, 83.28320
370.1534, 58.58398
370.6355, 24.06055
371.1176, 10.94336
371.5997, 28.94336
372.0818, 54.57031
372.5639, 79.71289
373.0461, 105.6113
373.5282, 125.2578
374.0103, 138.8809
374.4924, 145.7305
374.9745, 142.3848
375.4566, 124.2949
375.9388, 110.6230
376.4209, 107.4668
376.9030, 114.8672
377.3851, 126.7734
377.8672, 146.5098
378.3493, 164.1387
378.8315, 169.5254
379.3136, 163.2422
379.7957, 152.6094
380.2778, 135.9746
380.7599, 119.8066
381.2420, 124.9863
381.7242, 151.1426
382.2063, 173.0156
382.6884, 161.6562
383.1705, 130.0332
383.6526, 127.1445
384.1347, 161.0332
384.6169, 206.6367
385.0990, 235.7305
385.5811, 250.0801
386.0632, 254.2773
386.5453, 243.6699
387.0274, 227.1406
387.5096, 215.0352
387.9917, 207.6387
388.4738, 205.9160
388.9559, 218.5820
389.4380, 235.3281
389.9201, 242.4160
390.4023, 231.6738
390.8844, 215.0156
391.3665, 198.1367
391.8486, 181.6016
392.3307, 167.0371
392.8128, 151.6758
393.2950, 140.4961
393.7771, 138.8086
394.2592, 152.8496
394.7413, 160.1387
395.2234, 146.2500
395.7055, 121.7539
396.1877, 103.2539
396.6698, 93.50391
397.1519, 90.97656
397.6340, 102.5430
398.1161, 132.4004
398.5982, 139.3340
399.0804, 99.33789
399.5625, 49.18750
400.0446, 15.29102
400.5267, 4.470703
401.0088, 2.058594
401.4909, 15.35938
401.9731, 38.06055
402.4552, 37.18359
402.9373, 7.521484
403.4194, 43.67383
403.9015, 39.57031
404.3836, 21.47461
404.8658, 59.77734
405.3479, 67.16797
405.8300, 57.83203
406.3121, 51.13281
406.7942, 45.72852
407.2763, 47.34961
407.7585, 60.60156
408.2406, 84.67969
408.7227, 111.2148
409.2048, 139.0957
409.6869, 161.0234
410.1690, 164.5332
410.6512, 154.5957
411.1333, 162.4492
411.6154, 202.7812
412.0975, 247.5488
412.5796, 244.9141
413.0617, 204.6973
413.5439, 175.5078
414.0260, 202.8262
414.5081, 251.6016
414.9902, 266.9512
415.4723, 242.4180
415.9544, 214.5410
416.4366, 219.5332
416.9187, 244.5469
417.4008, 265.3105
417.8829, 272.7168
418.3650, 274.2715
418.8471, 269.9102
419.3293, 261.4512
419.8114, 260.5430
420.2935, 274.5605
420.7756, 296.2148
421.2577, 320.6914
421.7398, 351.0039
422.2220, 378.1855
422.7041, 396.0898
423.1862, 412.4316
423.6683, 435.0020
424.1504, 482.9473
424.6325, 522.0781
425.1147, 539.1035
425.5968, 535.7031
426.0789, 532.7090
426.5610, 522.0645
427.0431, 518.9883
427.5252, 537.9805
428.0074, 591.4375
428.4895, 637.3555
428.9716, 668.5117
429.4537, 688.7930
429.9358, 710.5645
430.4179, 734.6211
430.9001, 755.9277
431.3822, 772.6309
431.8643, 784.7930
432.3464, 786.1602
432.8285, 773.8496
433.3106, 760.3145
433.7928, 764.5430
434.2749, 784.1152
434.7570, 797.9473
435.2391, 795.3926
435.7212, 786.5957
436.2033, 798.7656
436.6855, 828.8281
437.1676, 846.6211
437.6497, 813.7617
438.1318, 760.0000
438.6139, 732.7148
439.0960, 743.7930
439.5782, 766.0078
440.0603, 770.2109
440.5424, 770.1953
441.0245, 791.2051
441.5066, 878.3516
441.9887, 961.5625
442.4709, 996.5645
442.9530, 983.1914
443.4351, 959.9746
443.9172, 927.6680
444.3993, 898.6367
444.8814, 882.0078
445.3636, 882.6582
445.8457, 890.4004
446.3278, 907.1113
446.8099, 929.7617
447.2920, 951.8477
447.7741, 969.5527
448.2563, 991.9160
448.7384, 1027.412
449.2205, 1082.643
449.7026, 1102.262
450.1847, 1066.105
450.6668, 1020.086
451.1490, 1009.863
451.6311, 1047.246
452.1132, 1078.215
452.5953, 1100.941
453.0774, 1108.664
453.5595, 1074.648
454.0417, 993.6406
454.5238, 917.7656
455.0059, 875.5703
455.4880, 862.5938
455.9701, 859.6484
456.4522, 867.7617
456.9344, 874.2305
457.4165, 864.8828
457.8986, 840.3906
458.3807, 807.7773
458.8628, 763.3984
459.3449, 718.5352
459.8271, 688.8477
460.3092, 671.0234
460.7913, 650.5469
461.2734, 619.2188
461.7555, 580.5977
462.2376, 533.5898
462.7198, 472.5352
463.2019, 429.0586
463.6840, 442.1328
464.1661, 474.5938
464.6482, 480.9727
465.1303, 409.5625
465.6125, 349.3320
466.0946, 334.2383
466.5767, 358.2539
467.0588, 362.1680
467.5409, 322.2422
468.0230, 280.1250
468.5052, 254.3477
468.9873, 252.1641
469.4694, 249.4297
469.9515, 247.9922
470.4336, 241.1719
470.9157, 221.8125
471.3979, 187.8633
471.8800, 157.8320
472.3621, 135.8438
472.8442, 120.5586
473.3263, 114.4766
473.8084, 118.5977
474.2906, 120.3320
474.7727, 105.3672
475.2548, 79.36328
475.7369, 70.75781
476.2190, 85.83594
476.7011, 105.8047
477.1833, 99.23828
477.6654, 73.73438
478.1475, 58.03906
478.6296, 84.95312
479.1117, 54.82957
479.5938, 92.26172
480.0760, 27.64844
480.5581, 18.87500
481.0402, 2.730469
481.5223, 47.50391
482.0044, 80.71875
482.4865, 95.23438
482.9687, 99.90625
483.4508, 89.61719
483.9329, 73.50391
484.4150, 64.50000
484.8971, 69.38281
485.3792, 76.72266
485.8614, 86.85547
486.3435, 99.10938
486.8256, 102.9414
487.3077, 90.87109
487.7898, 78.86328
488.2719, 74.01562
488.7541, 73.77734
489.2362, 91.28125
489.7183, 135.9883
490.2004, 185.9609
490.6825, 207.3320
491.1646, 197.7500
491.6468, 182.8164
492.1289, 168.6836
492.6110, 155.1953
493.0931, 136.1211
493.5752, 111.7539
494.0573, 103.1094
494.5395, 142.5781
495.0216, 205.6133
495.5037, 238.4297
495.9858, 229.6094
496.4679, 214.8984
496.9500, 226.3438
497.4322, 253.9062
497.9143, 280.4727
498.3964, 307.9609
498.8785, 325.2734
499.3606, 315.8945
499.8427, 287.2188
500.3249, 272.7344
500.8070, 307.9883
501.2891, 341.9805
501.7712, 342.5195
502.2533, 286.0664
502.7354, 254.5586
503.2176, 269.2422
503.6997, 303.8047
504.1818, 332.3398
504.6639, 351.3984
505.1460, 370.5625
505.6281, 395.2148
506.1103, 419.8633
506.5924, 418.2344
507.0745, 381.8594
507.5566, 347.4336
508.0387, 340.1875
508.5208, 357.6992
509.0030, 348.4648
509.4851, 308.7734
509.9672, 263.4258
510.4493, 240.9648
510.9314, 235.5781
511.4135, 228.3711
511.8957, 218.8086
512.3778, 199.7539
512.8599, 153.1953
513.3420, 89.20312
513.8242, 36.37109
514.3063, 2.957031
514.7884, 8.652344
515.2705, 15.36328
515.7526, 75.92578
516.2347, 119.7695
516.7169, 119.5625
517.1990, 97.26172
517.6811, 68.47656
518.1632, 13.06250
518.6453, 18.92578
519.1274, 2.882813
519.6096, 35.48047
520.0917, 48.50781
520.5738, 21.47266
521.0559, 7.542969
521.5380, 31.50391
522.0201, 50.09375
522.5023, 56.61719
522.9844, 47.77344
523.4665, 35.26562
523.9486, 25.33203
524.4307, 17.85156
524.9128, 18.28125
525.3950, 28.55859
525.8771, 41.71094
526.3592, 54.27344
526.8413, 63.46094
527.3234, 56.88672
527.8055, 13.67188
528.2877, 30.89844
528.7698, 28.37109
529.2519, 11.59375
529.7340, 46.60547
530.2161, 52.17188
530.6982, 44.00781
531.1804, 30.26953
531.6625, 10.29297
532.1446, 3.460938
532.6267, 5.617188
533.1088, 0.7617190
533.5909, 7.171875
534.0731, 37.29297
534.5552, 44.35156
535.0373, 60.90916
535.5194, 46.26562
536.0015, 84.17969
536.4836, 100.4062
536.9658, 101.1836
537.4479, 81.33203
537.9300, 42.29297
538.4121, 22.33594
538.8942, 25.44922
539.3763, 44.01562
539.8585, 80.21094
540.3406, 129.0508
540.8227, 161.7656
541.3048, 172.8477
541.7869, 174.6133
542.2690, 181.6758
542.7512, 191.5859
543.2333, 198.3164
543.7154, 199.5000
544.1975, 196.4922
544.6796, 189.7812
545.1617, 179.7812
545.6439, 167.6875
546.1260, 144.2773
546.6081, 126.6562
547.0902, 129.7344
547.5723, 163.4453
548.0544, 182.1289
548.5366, 160.8203
549.0187, 132.8281
549.5008, 128.3555
549.9829, 165.4648
550.4650, 194.3281
550.9471, 213.4453
551.4293, 220.8516
551.9114, 207.7227
552.3935, 168.7812
552.8756, 136.0000
553.3577, 124.7891
553.8398, 129.7227
554.3220, 123.8789
554.8041, 106.9062
555.2862, 90.96484
555.7683, 86.26172
556.2504, 89.18750
556.7325, 90.78906
557.2147, 88.15234
557.6968, 93.58984
558.1789, 125.6211
558.6610, 170.4062
559.1431, 207.0352
559.6252, 229.6836
560.1074, 240.6328
560.5895, 229.6797
561.0716, 205.4609
561.5537, 196.8047
562.0358, 232.9297
562.5179, 262.5898
563.0001, 261.6562
563.4822, 225.1328
563.9643, 212.9805
564.4464, 236.8477
564.9285, 269.1055
565.4106, 292.3633
565.8928, 307.7070
566.3749, 305.0664
566.8570, 277.5625
567.3391, 245.9727
567.8212, 239.5781
568.3033, 257.3242
568.7855, 293.0586
569.2676, 361.6055
569.7497, 430.0938
570.2318, 439.7773
570.7139, 402.2734
571.1960, 370.6836
571.6782, 383.6562
572.1603, 409.4180
572.6424, 420.5664
573.1245, 415.5703
573.6066, 417.8555
574.0887, 448.0547
574.5709, 482.4727
575.0530, 502.7148
575.5351, 491.0117
576.0172, 487.8359
576.4993, 492.0938
576.9814, 507.2969
577.4636, 537.9336
577.9457, 593.4297
578.4278, 634.2461
578.9099, 643.0781
579.3920, 630.2344
579.8741, 639.0000
580.3563, 671.5938
580.8384, 704.2617
581.3205, 718.1562
581.8026, 721.1328
582.2847, 737.5586
582.7668, 767.9766
583.2490, 794.8555
583.7311, 797.6602
584.2131, 790.3789
584.6953, 792.6797
585.1774, 814.5195
585.6595, 838.3242
586.1416, 847.9102
586.6237, 851.7383
587.1058, 863.9062
587.5880, 907.2344
588.0701, 938.7734
588.5522, 938.9805
589.0343, 917.4844
589.5164, 918.1562
589.9985, 950.3828
590.4807, 987.4414
590.9628, 1022.160
591.4449, 1054.477
591.9270, 1062.211
592.4091, 1040.734
592.8912, 1022.492
593.3734, 1037.891
593.8555, 1079.184
594.3376, 1117.605
594.8197, 1150.988
595.3018, 1172.570
595.7839, 1166.758
596.2661, 1144.824
596.7482, 1128.398
597.2303, 1134.641
597.7124, 1140.953
598.1945, 1132.293
598.6766, 1113.715
599.1588, 1098.918
599.6409, 1089.824
600.1230, 1087.840
600.6051, 1097.891
601.0872, 1120.957
601.5693, 1131.582
602.0515, 1116.941
602.5336, 1106.211
603.0157, 1121.746
603.4978, 1170.535
603.9799, 1198.582
604.4620, 1201.246
604.9442, 1191.461
605.4263, 1185.195
605.9084, 1180.965
606.3905, 1168.109
606.8726, 1137.469
607.3547, 1110.512
607.8369, 1124.418
608.3190, 1163.859
608.8011, 1190.473
609.2832, 1169.312
609.7653, 1143.004
610.2474, 1145.688
610.7296, 1172.113
611.2117, 1176.773
611.6938, 1117.609
612.1759, 1058.254
612.6580, 1031.602
613.1401, 1045.363
613.6223, 1060.250
614.1044, 1090.293
614.5865, 1102.383
615.0686, 1057.797
615.5507, 948.2656
616.0328, 859.9609
616.5150, 803.7656
616.9971, 767.0078
617.4792, 736.0273
617.9613, 709.5156
618.4434, 678.7070
618.9255, 637.4062
619.4077, 595.6523
619.8898, 565.9297
620.3719, 545.6875
620.8540, 526.0195
621.3361, 508.8906
621.8182, 486.3086
622.3004, 443.9961
622.7825, 380.8633
623.2646, 342.9531
623.7467, 364.8047
624.2288, 392.3984
624.7109, 396.3086
625.1931, 363.4727
625.6752, 352.0625
626.1573, 370.9648
626.6394, 395.0156
627.1215, 394.6992
627.6036, 369.2305
628.0858, 351.7773
628.5679, 348.0547
629.0500, 351.6953
629.5321, 359.3516
630.0142, 367.4336
630.4963, 363.4727
630.9785, 332.7773
631.4606, 298.5078
631.9427, 278.4414
632.4248, 271.5469
632.9069, 273.7773
633.3890, 299.4805
633.8712, 319.8906
634.3533, 316.2305
634.8354, 285.1953
635.3175, 272.3945
635.7996, 286.5352
636.2817, 310.0547
636.7639, 339.4062
637.2460, 381.5508
637.7281, 386.1289
638.2102, 339.4766
638.6923, 280.9492
639.1744, 248.0938
639.6566, 239.2656
640.1387, 250.3711
640.6208, 286.1914
641.1029, 319.1172
641.5850, 312.2578
642.0671, 278.7539
642.5493, 244.8516
643.0314, 218.1641
643.5135, 199.8516
643.9956, 197.4883
644.4777, 204.1562
644.9598, 199.3008
645.4420, 162.5391
645.9241, 132.1289
646.4062, 124.2695
646.8883, 137.7109
647.3704, 136.4648
647.8525, 115.0156
648.3347, 91.16406
648.8168, 74.59375
649.2989, 64.96875
649.7810, 56.32812
650.2631, 47.59766
650.7452, 46.19141
651.2274, 64.54688
651.7095, 94.01172
652.1916, 117.4102
652.6737, 129.8320
653.1558, 138.6484
653.6379, 145.4336
654.1201, 152.9023
654.6022, 164.8438
655.0843, 199.4023
655.5664, 218.4453
656.0485, 201.9492
656.5306, 164.6953
657.0128, 141.3398
657.4949, 141.5977
657.9770, 137.0781
658.4591, 118.6641
658.9412, 90.48047
659.4233, 68.25781
659.9055, 51.64453
660.3876, 46.45703
660.8697, 68.60156
661.3518, 102.4844
661.8339, 103.6641
662.3160, 74.16406
662.7982, 45.95703
663.2803, 46.03906
663.7624, 56.19922
664.2445, 58.21094
664.7266, 48.28516
665.2087, 40.28906
665.6909, 47.00391
666.1730, 55.09766
666.6551, 51.31250
667.1372, 20.87891
667.6193, 1.953125
668.1014, 4.003906
668.5836, 1.058594
669.0657, 20.74609
669.5478, 58.24219
670.0299, 77.00000
670.5120, 66.23438
670.9941, 39.87891
671.4763, 16.92188
671.9584, 1.945313
672.4405, 14.76562
672.9226, 24.80859
673.4047, 24.83594
673.8868, 47.51943
674.3690, 45.40625
674.8511, 76.27344
675.3332, 73.29688
675.8153, 63.17578
676.2974, 55.84375
676.7795, 51.78906
677.2617, 51.67188
677.7438, 64.41016
678.2259, 66.91406
678.7080, 37.55469
679.1901, 28.12500
679.6722, 44.41797
680.1544, 4.542969
680.6365, 43.94922
681.1186, 51.03125
681.6007, 33.10938
682.0828, 36.25781
682.5649, 70.27344
683.0471, 104.3203
683.5292, 111.2227
684.0113, 103.1680
684.4934, 94.21094
684.9755, 91.23047
685.4576, 82.75391
685.9398, 54.17188
686.4219, 22.04688
686.9040, 14.64062
687.3861, 53.04297
687.8682, 72.94141
688.3503, 56.40625
688.8325, 21.76172
689.3146, 18.80078
689.7967, 48.42578
690.2788, 79.56250
690.7609, 103.4844
691.2430, 116.5664
691.7252, 105.5977
692.2073, 77.15625
692.6894, 56.37891
693.1715, 74.48438
693.6536, 91.28516
694.1357, 64.15625
694.6179, 7.351563
695.1000, 49.00000
695.5821, 4.320313
696.0642, 42.56641
696.5463, 47.49219
697.0284, 1.914063
697.5106, 17.27344
697.9927, 15.00000
698.4748, 51.72656
698.9569, 55.00000
699.4390, 28.87109
699.9211, 1.738281
700.4033, 24.41797
700.8854, 41.14062
701.3675, 31.49219
701.8496, 8.378906
702.3317, 6.195313
702.8138, 5.328125
703.2960, 2.472656
703.7781, 2.300781
704.2602, 4.214844
704.7423, 7.410156
705.2244, 4.808594
705.7065, 11.54688
706.1887, 32.50000
706.6708, 59.64453
707.1529, 78.03906
707.6350, 84.44922
708.1171, 99.38672
708.5992, 133.7109
709.0814, 172.2227
709.5635, 178.7305
710.0456, 159.6094
710.5277, 144.9102
711.0098, 163.9023
711.4919, 183.0078
711.9741, 163.9805
712.4562, 117.6445
712.9383, 86.76172
713.4204, 107.0703
713.9025, 127.4844
714.3846, 120.3516
714.8668, 87.88672
715.3489, 78.05859
715.8310, 103.5938
716.3131, 126.4531
716.7952, 124.3047
717.2773, 99.32031
717.7595, 83.91797
718.2416, 78.33203
718.7237, 78.04297
719.2058, 86.68359
719.6879, 95.41406
720.1700, 86.05078
720.6522, 55.70312
721.1343, 28.55078
721.6164, 25.29688
722.0985, 26.89062
722.5806, 15.52344
723.0627, 26.29297
723.5449, 45.41406
724.0270, 30.19922
724.5091, 0.7890630
724.9912, 28.85156
725.4733, 63.07812
725.9554, 69.10938
726.4376, 36.78125
726.9197, 1.382813
727.4018, 5.292969
727.8839, 43.47656
728.3660, 71.03906
728.8481, 75.89062
729.3303, 70.92578
729.8124, 60.97656
730.2945, 49.80078
730.7766, 43.32422
731.2587, 41.11719
731.7408, 47.01562
732.2230, 68.99219
732.7051, 97.20312
733.1872, 113.5000
733.6693, 115.0195
734.1514, 111.7617
734.6335, 105.5391
735.1157, 96.60156
735.5978, 84.51953
736.0799, 69.83984
736.5620, 55.44531
737.0441, 38.20703
737.5262, 25.10938
738.0084, 26.39062
738.4905, 39.36719
738.9726, 57.71484
739.4547, 87.94922
739.9368, 113.8633
740.4189, 131.1641
740.9011, 138.3281
741.3832, 124.6914
741.8653, 69.90625
742.3474, 30.55078
742.8295, 37.58203
743.3116, 82.55859
743.7938, 97.94922
744.2759, 82.83984
744.7580, 59.42188
745.2401, 38.16016
745.7222, 20.85156
746.2043, 14.48438
746.6865, 18.75391
747.1686, 17.12891
747.6507, 11.42969
748.1328, 11.61558
748.6149, 6.852092
749.0970, 5.390625
749.5792, 9.609375
750.0613, 6.875000
750.5434, 30.63281
751.0255, 50.57422
751.5076, 68.10547
751.9897, 59.66797
752.4719, 20.30078
752.9540, 15.05469
753.4361, 9.289063
753.9182, 19.34375
754.4003, 28.12891
754.8824, 9.734375
755.3646, 10.23047
755.8467, 12.44531
756.3288, 10.62500
756.8109, 19.63281
757.2930, 58.05859
757.7751, 72.98047
758.2573, 43.69922
758.7394, 6.304688
759.2215, 4.023438
759.7036, 15.81250
760.1857, 51.41406
760.6678, 107.4453
761.1500, 154.8633
761.6321, 136.8867
762.1142, 81.30859
762.5963, 59.89844
763.0784, 99.71875
763.5605, 148.4922
764.0427, 178.3867
764.5248, 191.7773
765.0069, 191.7578
765.4890, 161.1953
765.9711, 141.1719
766.4532, 141.0820
766.9354, 148.6758
767.4175, 144.4727
767.8996, 125.6445
768.3817, 115.8398
768.8638, 120.0273
769.3459, 133.8906
769.8281, 158.9062
770.3102, 188.3359
770.7923, 200.3555
771.2744, 176.1250
771.7565, 150.3672
772.2386, 146.5547
772.7208, 157.5078
773.2029, 170.7461
773.6850, 188.2305
774.1671, 200.3906
774.6492, 199.8906
775.1313, 195.5078
775.6135, 210.4688
776.0956, 248.5703
776.5777, 274.1328
777.0598, 275.5234
777.5419, 262.2109
778.0240, 246.6953
778.5062, 230.6602
778.9883, 219.3984
779.4704, 213.9609
779.9525, 215.4688
780.4346, 229.1523
780.9167, 248.2031
781.3989, 262.3711
781.8810, 265.7305
782.3631, 274.8984
782.8452, 296.8164
783.3273, 323.0625
783.8094, 328.0273
784.2916, 309.7461
784.7737, 292.0938
785.2558, 285.5938
785.7379, 285.9727
786.2200, 295.8789
786.7021, 307.3008
787.1843, 292.1367
787.6664, 197.4414
788.1485, 111.1289
788.6306, 88.25781
789.1127, 115.6133
789.5948, 142.6016
790.0770, 171.8477
790.5591, 187.0430
791.0412, 176.3125
791.5233, 150.6758
792.0054, 153.5000
792.4875, 184.8125
792.9697, 219.1406
793.4518, 245.4531
793.9339, 266.9648
794.4160, 294.0273
794.8981, 321.0312
795.3802, 330.0508
795.8624, 292.3984
796.3445, 255.0625
796.8266, 240.9258
797.3087, 247.1094
797.7908, 255.7266
798.2729, 277.9258
798.7551, 280.3047
799.2372, 245.4023
799.7193, 187.9727
800.2014, 157.7852
800.6835, 154.7031
801.1656, 170.0938
801.6478, 217.8281
802.1299, 267.4414
802.6120, 277.2500
803.0941, 257.8008
803.5762, 243.6055
804.0583, 253.8164
804.5405, 266.1133
805.0226, 265.3945
805.5047, 256.4727
805.9868, 271.3555
806.4689, 326.7422
806.9510, 358.0039
807.4332, 328.7422
807.9153, 264.8984
808.3974, 250.7148
808.8795, 277.8203
809.3616, 296.7773
809.8438, 281.0977
810.3259, 252.4961
810.8080, 211.6758
811.2901, 167.1094
811.7722, 149.6445
812.2543, 200.0039
812.7365, 246.1484
813.2186, 266.5430
813.7007, 268.6484
814.1828, 286.7734
814.6649, 325.3164
815.1470, 344.6484
815.6292, 317.0039
816.1113, 272.7578
816.5934, 274.7031
817.0755, 309.9922
817.5576, 337.0430
818.0397, 324.8164
818.5219, 307.9102
819.0040, 309.5742
819.4861, 321.4570
819.9682, 313.8984
820.4503, 267.8359
820.9324, 235.0234
821.4146, 229.4375
821.8967, 242.4336
822.3788, 255.2969
822.8609, 267.5898
823.3430, 272.7031
823.8251, 265.9648
824.3073, 253.8828
824.7894, 236.7734
825.2715, 220.8672
825.7536, 219.6562
826.2357, 259.4648
826.7178, 289.5508
827.2000, 290.9766
827.6821, 274.9688
828.1642, 258.1641
828.6463, 235.8828
829.1284, 233.0352
829.6105, 263.4531
830.0927, 303.2969
830.5748, 301.4805
831.0569, 270.7148
831.5390, 256.2930
832.0211, 279.4375
832.5032, 313.1289
832.9854, 351.9531
833.4675, 384.5156
833.9496, 392.2188
834.4317, 327.0547
834.9138, 299.5977
835.3959, 333.3711
835.8781, 392.8789
836.3602, 427.3438
836.8423, 435.8438
837.3244, 425.6680
837.8065, 390.8750
838.2886, 351.1016
838.7708, 337.5312
839.2529, 343.3594
839.7350, 363.3750
840.2171, 396.7227
840.6992, 422.5742
841.1813, 432.2344
841.6635, 434.9375
842.1456, 441.6602
842.6277, 457.6211
843.1098, 460.4844
843.5919, 447.6523
844.0740, 426.2148
844.5562, 402.0508
845.0383, 376.8906
845.5204, 355.1953
846.0025, 338.1680
846.4846, 324.1523
846.9667, 321.8086
847.4489, 316.3320
847.9310, 289.8945
848.4131, 222.1641
848.8952, 184.3320
849.3773, 189.3516
849.8594, 207.8203
850.3416, 218.8047
850.8237, 222.3789
851.3058, 225.4922
851.7879, 228.1484
852.2700, 233.6836
852.7521, 247.8125
853.2343, 265.1094
853.7164, 279.1016
854.1985, 288.9180
854.6806, 298.8984
855.1627, 323.7461
855.6448, 336.3125
856.1270, 317.2109
856.6091, 265.0312
857.0912, 238.8984
857.5733, 240.2344
858.0554, 252.3164
858.5375, 273.8594
859.0197, 295.1367
859.5018, 286.4336
859.9839, 253.4453
860.4660, 232.8008
860.9481, 267.0742
861.4302, 298.3164
861.9124, 292.0547
862.3945, 249.8242
862.8766, 209.8281
863.3587, 164.0859
863.8408, 143.9531
864.3229, 172.4609
864.8051, 226.9805
865.2872, 230.2773
865.7693, 191.6250
866.2514, 164.0078
866.7335, 194.5039
867.2156, 225.3906
867.6978, 197.6250
868.1799, 136.9727
868.6620, 102.3398
869.1441, 136.0742
869.6262, 159.3086
870.1083, 160.1523
870.5905, 146.3438
871.0726, 131.6484
871.5547, 116.1641
872.0368, 99.60938
872.5189, 78.49219
873.0010, 66.10156
873.4832, 92.52344
873.9653, 134.3047
874.4474, 152.0039
874.9295, 120.2305
875.4116, 88.75391
875.8937, 61.12109
876.3759, 43.68359
876.8580, 47.06250
877.3401, 77.23438
877.8222, 90.33594
878.3043, 80.80078
878.7864, 64.49609
879.2686, 55.54297
879.7507, 51.22656
880.2328, 46.88672
880.7149, 41.46875
881.1970, 41.71875
881.6791, 68.23828
882.1613, 88.89844
882.6434, 72.90625
883.1255, 10.54688
883.6076, 2.285156
884.0897, 50.81641
884.5718, 102.3633
885.0540, 102.2812
885.5361, 65.34375
886.0182, 33.75000
886.5003, 7.855469
886.9824, 11.43750
887.4645, 25.51172
887.9467, 32.04688
888.4288, 31.40234
888.9109, 23.14062
889.3930, 1.078125
889.8751, 58.10156
890.3572, 91.03516
890.8394, 73.14062
891.3215, 25.12500
891.8036, 8.500000
892.2857, 17.30859
892.7678, 18.41406
893.2499, 9.527344
893.7321, 41.54297
894.2142, 69.86719
894.6963, 86.50781
895.1784, 75.72656
895.6605, 21.54297
896.1426, 60.01953
896.6248, 0.7421880
897.1069, 90.03906
897.5890, 108.3594
898.0711, 61.38672
898.5532, 16.35938
899.0353, 16.10547
899.5175, 37.90625
899.9996, 41.57031
900.4817, 40.45703
900.9638, 53.75391
901.4459, 98.66016
901.9280, 115.3672
902.4102, 77.16797
902.8923, 34.16406
903.3744, 22.89844
903.8565, 43.89062
904.3386, 56.01562
904.8207, 58.36328
905.3029, 63.82031
905.7850, 92.28125
906.2671, 122.6016
906.7492, 129.0430
907.2313, 111.8867
907.7134, 95.78906
908.1956, 87.01562
908.6777, 82.44531
909.1598, 85.78906
909.6419, 92.62109
910.1240, 74.83984
910.6061, 32.14453
911.0883, 0.3593750
911.5704, 4.039063
912.0525, 6.527344
912.5346, 19.80469
913.0167, 31.95703
913.4988, 34.69922
913.9810, 2.343750
914.4631, 10.28906
914.9452, 16.73828
915.4273, 62.77344
915.9094, 105.8320
916.3915, 147.6836
916.8737, 148.9961
917.3558, 95.38672
917.8379, 40.27734
918.3200, 52.58203
918.8021, 99.01953
919.2842, 133.0234
919.7664, 144.9648
920.2485, 145.2734
920.7306, 122.7109
921.2127, 101.3711
921.6948, 96.07422
922.1769, 107.6250
922.6591, 118.9062
923.1412, 129.7461
923.6233, 140.2188
924.1054, 154.0117
924.5875, 165.6953
925.0696, 168.8086
925.5518, 163.4297
926.0339, 150.5781
926.5160, 124.5664
926.9981, 97.81250
927.4802, 69.74609
927.9623, 45.34375
928.4445, 43.43750
928.9266, 66.29297
929.4087, 86.50391
929.8908, 96.91797
930.3729, 99.73828
930.8550, 95.80469
931.3372, 87.08984
931.8193, 77.17188
932.3014, 69.62500
932.7835, 57.02344
933.2656, 27.19141
933.7477, 0.2382810
934.2299, 1.9531000E-02
934.7120, 31.76172
935.1941, 36.98828
935.6762, 10.00391
936.1583, 17.29297
936.6404, 16.31641
937.1226, 2.804688
937.6047, 31.70312
938.0868, 69.06250
938.5689, 97.01172
939.0510, 101.6289
939.5331, 102.3164
940.0153, 104.6328
940.4974, 108.2930
940.9795, 115.1680
941.4616, 124.5586
941.9437, 138.0156
942.4258, 154.3789
942.9080, 174.7500
943.3901, 211.3281
943.8722, 251.7305
944.3543, 269.0547
944.8364, 211.0234
945.3185, 189.8516
945.8007, 243.2070
946.2828, 320.7344
946.7649, 354.9727
947.2470, 348.1680
947.7291, 334.6016
948.2112, 316.5508
948.6934, 306.0781
949.1755, 306.2344
949.6576, 324.4375
950.1397, 374.8633
950.6218, 465.2852
951.1039, 544.9805
951.5861, 605.1719
952.0682, 654.8438
952.5503, 697.4375
953.0324, 735.3750
953.5145, 781.2695
953.9966, 829.1133
954.4788, 865.7383
954.9609, 866.9141
955.4430, 864.7500
955.9251, 887.6719
956.4072, 928.7031
956.8893, 966.8359
957.3715, 980.2773
957.8536, 1022.426
958.3357, 1109.926
958.8178, 1212.828
959.2999, 1274.895
959.7820, 1308.020
960.2642, 1372.152
960.7463, 1486.090
961.2284, 1588.992
961.7105, 1617.391
962.1926, 1628.602
962.6747, 1674.727
963.1569, 1767.191
963.6390, 1862.172
964.1211, 1960.309
964.6032, 2061.574
965.0853, 2166.758
965.5674, 2273.480
966.0496, 2371.320
966.5317, 2461.199
967.0138, 2550.684
967.4959, 2607.391
967.9780, 2703.301
968.4601, 2904.426
968.9423, 3164.070
969.4244, 3365.855
969.9065, 3496.465
970.3886, 3634.035
970.8707, 3791.461
971.3528, 3965.859
971.8350, 4164.254
972.3171, 4375.363
972.7992, 4581.742
973.2813, 4776.398
973.7634, 4988.227
974.2455, 5248.668
974.7277, 5510.953
975.2098, 5740.797
975.6919, 5937.414
976.1740, 6156.152
976.6561, 6399.480
977.1382, 6636.293
977.6204, 6853.109
978.1025, 7049.969
978.5846, 7230.980
979.0667, 7390.555
979.5488, 7515.984
980.0309, 7629.875
980.5131, 7667.113
980.9952, 7633.504
981.4773, 7504.137
981.9594, 7209.898
982.4415, 6768.879
982.9236, 6315.566
983.4058, 5879.613
983.8879, 5434.270
984.3700, 4934.043
984.8521, 4430.809
985.3342, 3966.695
985.8163, 3546.820
986.2985, 3192.312
986.7806, 2921.836
987.2627, 2673.449
987.7448, 2408.793
988.2269, 2142.383
988.7090, 1920.801
989.1912, 1738.617
989.6733, 1570.914
990.1554, 1393.289
990.6375, 1240.699
991.1196, 1148.180
991.6017, 1088.824
992.0839, 1014.941
992.5660, 919.2891
993.0481, 840.9922
993.5302, 784.2695
994.0123, 742.7812
994.4944, 725.1016
994.9766, 714.4727
995.4587, 670.8945
995.9408, 584.2148
996.4229, 522.5195
996.9050, 536.2969
997.3871, 550.6250
997.8693, 529.5430
998.3514, 480.0703
998.8335, 439.9805
999.3156, 412.3477
999.7977, 391.1953
1000.280, 383.4453
1000.762, 376.3164
1001.244, 359.3906
1001.726, 334.5859
1002.208, 304.4062
1002.690, 262.8711
1003.173, 229.2344
1003.655, 200.8008
1004.137, 187.1289
1004.619, 214.6641
1005.101, 265.5039
1005.583, 263.3984
1006.065, 206.4531
1006.547, 166.5273
1007.029, 204.0312
1007.512, 252.3047
1007.994, 271.0117
1008.476, 265.4766
1008.958, 262.8203
1009.440, 263.2500
1009.922, 259.7344
1010.404, 246.7188
1010.886, 236.2383
1011.369, 260.7891
1011.851, 295.7109
1012.333, 295.7031
1012.815, 228.4336
1013.297, 180.6680
1013.779, 179.9922
1014.261, 190.2773
1014.743, 190.7109
1015.225, 181.8320
1015.708, 157.2070
1016.190, 118.3125
1016.672, 84.72266
1017.154, 60.38672
1017.636, 54.15234
1018.118, 81.74609
1018.600, 132.4375
1019.082, 173.5234
1019.565, 203.3945
1020.047, 216.5547
1020.529, 204.3047
1021.011, 191.3242
1021.493, 222.7578
1021.975, 276.0000
1022.457, 301.5547
1022.939, 288.1875
1023.421, 272.2500
1023.904, 273.2109
1024.386, 271.8984
1024.868, 259.6602
1025.350, 237.0117
1025.832, 199.2812
1026.314, 147.2969
1026.796, 118.5312
1027.278, 145.8906
1027.760, 185.3008
1028.243, 191.7812
1028.725, 180.8242
1029.207, 178.2148
1029.689, 215.9102
1030.171, 211.7461
1030.653, 149.1094
1031.135, 78.81250
1031.617, 60.33594
1032.100, 74.85938
1032.582, 62.72656
1033.064, 23.62891
1033.546, 8.578125
1034.028, 39.21094
1034.510, 46.57031
1034.992, 4.527344
1035.474, 88.51562
1035.957, 118.9375
1036.439, 92.95312
1036.921, 74.37891
1037.403, 81.51562
1037.885, 90.10938
1038.367, 67.91406
1038.849, 33.40625
1039.331, 9.339844
1039.813, 0.8046880
1040.296, 4.085938
1040.778, 9.886719
1041.260, 6.105469
1041.742, 17.72656
1042.224, 29.83776
1042.706, 39.70128
1043.188, 68.36719
1043.670, 74.84766
1044.152, 104.5469
1044.635, 134.5703
1045.117, 160.6953
1045.599, 177.8828
1046.081, 180.0508
1046.563, 166.8398
1047.045, 136.9883
1047.527, 88.67188
1048.009, 49.68359
1048.492, 61.10938
1048.974, 84.85156
1049.456, 77.60547
1049.938, 40.56250
1050.420, 14.71484
1050.902, 15.39453
1051.384, 4.621094
1051.866, 35.34766
1052.349, 19.72477
1052.831, 62.30469
1053.313, 9.250000
1053.795, 16.39453
1054.277, 9.843750
1054.759, 30.58203
1055.241, 5.078125
1055.723, 19.96094
1056.205, 2.222656
1056.688, 55.93750
1057.170, 22.71875
1057.652, 102.1133
1058.134, 187.4883
1058.616, 136.2773
1059.098, 47.69141
1059.580, 2.078125
1060.062, 11.55078
1060.544, 12.99219
1061.027, 5.050781
1061.509, 15.54297
1061.991, 50.72656
1062.473, 93.16797
1062.955, 145.2891
1063.437, 195.9297
1063.919, 220.3398
1064.401, 217.9805
1064.884, 201.4102
1065.366, 162.5938
1065.848, 125.1133
1066.330, 90.12500
1066.812, 65.30469
1067.294, 78.17188
1067.776, 123.6523
1068.258, 144.0039
1068.740, 122.4336
1069.223, 102.7656
1069.705, 129.4102
1070.187, 166.3828
1070.669, 179.3672
1071.151, 165.1641
1071.633, 169.2188
1072.115, 197.7266
1072.597, 212.9023
1073.079, 189.9961
1073.562, 155.0586
1074.044, 143.3008
1074.526, 149.6953
1075.008, 166.0234
1075.490, 206.1836
1075.972, 224.8477
1076.454, 207.9570
1076.936, 187.8984
1077.419, 197.8711
1077.901, 227.4023
1078.383, 218.0078
1078.865, 176.0195
1079.347, 149.9023
1079.829, 184.1016
1080.311, 219.9414
1080.793, 235.5742
1081.275, 233.0234
1081.758, 207.7734
1082.240, 157.1016
1082.722, 123.4766
1083.204, 111.4375
1083.686, 119.0859
1084.168, 168.0586
1084.650, 218.8320
1085.132, 232.9805
1085.615, 208.9141
1086.097, 187.1602
1086.579, 177.0352
1087.061, 144.3125
1087.543, 68.41406
1088.025, 7.972656
1088.507, 2.917969
1088.989, 58.29688
1089.471, 79.53125
1089.953, 41.75000
1090.436, 3.578125
1090.918, 78.78516
1091.400, 112.4102
1091.882, 46.26953
1092.364, 87.07422
1092.846, 125.8750
1093.328, 86.68750
1093.810, 63.28906
1094.293, 118.5664
1094.775, 170.5859
1095.257, 175.3594
1095.739, 160.5078
1096.221, 154.2656
1096.703, 156.7227
1097.185, 166.3242
1097.667, 182.9844
1098.150, 205.8008
1098.632, 235.7070
1099.114, 269.8711
1099.596, 311.5469
1100.078, 354.7227
1100.560, 382.1914
1101.042, 389.1641
1101.524, 392.1406
1102.006, 392.1758
1102.489, 386.5430
1102.971, 372.4219
1103.453, 350.0742
1103.935, 313.7070
1104.417, 264.1328
1104.899, 233.6211
1105.381, 239.6211
1105.863, 255.3203
1106.345, 283.8594
1106.828, 307.0859
1107.310, 270.0000
1107.792, 194.4688
1108.274, 150.7969
1108.756, 162.1953
1109.238, 172.4844
1109.720, 138.4023
1110.202, 107.7969
1110.685, 113.5781
1111.167, 152.2188
1111.649, 187.9883
1112.131, 217.7461
1112.613, 222.3906
1113.095, 175.4375
1113.577, 137.7188
1114.059, 166.9297
1114.542, 218.1992
1115.024, 247.4727
1115.506, 250.8984
1115.988, 235.8906
1116.470, 199.4102
1116.952, 173.9609
1117.434, 192.7188
1117.916, 224.1523
1118.398, 237.3359
1118.880, 237.4102
1119.363, 235.0430
1119.845, 217.9766
1120.327, 232.5938
1120.809, 292.6016
1121.291, 350.1719
1121.773, 352.0469
1122.255, 321.1289
1122.737, 293.7578
1123.220, 271.7852
1123.702, 250.5391
1124.184, 220.8789
1124.666, 204.7500
1125.148, 212.7266
1125.630, 226.2383
1126.112, 201.3867
1126.594, 158.5469
1127.077, 172.0938
1127.559, 256.3672
1128.041, 322.6797
1128.523, 320.2852
1129.005, 302.4688
1129.487, 284.4570
1129.969, 273.2930
1130.451, 301.3516
1130.933, 361.4648
1131.416, 394.4727
1131.898, 376.3555
1132.380, 362.7930
1132.862, 409.4609
1133.344, 459.6523
1133.826, 459.6406
1134.308, 412.7422
1134.790, 410.3555
1135.272, 453.5625
1135.755, 482.1172
1136.237, 468.0352
1136.719, 436.6484
1137.201, 395.7148
1137.683, 360.2891
1138.165, 356.5273
1138.647, 400.0195
1139.129, 410.2305
1139.612, 384.8945
1140.094, 345.1992
1140.576, 295.6719
1141.058, 247.4336
1141.540, 214.3516
1142.022, 193.6914
1142.504, 179.8203
1142.986, 180.2461
1143.469, 168.0742
1143.951, 137.5430
1144.433, 109.7539
1144.915, 108.8047
1145.397, 120.0508
1145.879, 115.0898
1146.361, 98.16797
1146.843, 83.94922
1147.325, 81.76172
1147.807, 73.98047
1148.290, 52.86328
1148.772, 30.37891
1149.254, 34.37891
1149.736, 57.91797
1150.218, 67.24219
1150.700, 57.83984
1151.182, 44.57812
1151.664, 10.69141
1152.147, 0.1640630
1152.629, 33.35547
1153.111, 86.98438
1153.593, 119.7656
1154.075, 132.9062
1154.557, 129.5898
1155.039, 109.2891
1155.521, 90.26953
1156.004, 84.70703
1156.486, 81.21094
1156.968, 77.80078
1157.450, 71.26562
1157.932, 42.30469
1158.414, 3.218750
1158.896, 21.03906
1159.378, 5.277344
1159.860, 34.35156
1160.343, 42.87500
1160.825, 40.39453
1161.307, 30.54688
1161.789, 15.90625
1162.271, 16.72656
1162.753, 32.17578
1163.235, 44.51172
1163.717, 45.77344
1164.199, 44.94922
1164.682, 44.94922
1165.164, 48.44141
1165.646, 59.64844
1166.128, 78.60156
1166.610, 87.33984
1167.092, 84.78906
1167.574, 89.87500
1168.056, 123.6445
1168.539, 151.2305
1169.021, 137.9219
1169.503, 100.9844
1169.985, 59.67578
1170.467, 8.074219
1170.949, 0.5156250
1171.431, 40.18750
1171.913, 75.01953
1172.396, 59.80078
1172.878, 29.69141
1173.360, 5.281250
1173.842, 2.671875
1174.324, 33.91406
1174.806, 152.8750
1175.288, 201.0977
1175.770, 161.9883
1176.252, 117.2227
1176.734, 144.0234
1177.217, 190.6719
1177.699, 188.2539
1178.181, 152.1133
1178.663, 133.5430
1179.145, 150.4688
1179.627, 149.9766
1180.109, 117.5273
1180.591, 89.31641
1181.074, 112.4531
1181.556, 151.0664
1182.038, 157.7617
1182.520, 133.5273
1183.002, 102.6836
1183.484, 69.41016
1183.966, 33.28516
1184.448, 10.66406
1184.931, 39.36328
1185.413, 11.12109
1185.895, 41.98438
1186.377, 68.83594
1186.859, 68.00391
1187.341, 59.86719
1187.823, 38.72266
1188.305, 33.37891
1188.787, 49.79688
1189.270, 68.98047
1189.752, 56.82031
1190.234, 31.28906
1190.716, 23.13281
1191.198, 35.31641
1191.680, 55.80469
1192.162, 89.19922
1192.644, 120.2617
1193.126, 151.3906
1193.609, 168.3711
1194.091, 129.3359
1194.573, 66.80078
1195.055, 43.87109
1195.537, 72.05469
1196.019, 99.46484
1196.501, 115.1484
1196.983, 127.6719
1197.466, 137.9883
1197.948, 147.9766
1198.430, 167.2969
1198.912, 187.6641
1199.394, 186.7930
1199.876, 151.8359
1200.358, 136.7930
1200.840, 170.6797
1201.323, 193.4414
1201.805, 177.9727
1202.287, 145.6680
1202.769, 150.4688
1203.251, 170.6797
1203.733, 151.9648
1204.215, 66.40625
1204.697, 24.29297
1205.179, 71.21094
1205.661, 112.7656
1206.144, 105.8750
1206.626, 70.70312
1207.108, 46.33984
1207.590, 29.92969
1208.072, 12.15234
1208.554, 18.50391
1209.036, 16.66016
1209.518, 39.21875
1210.001, 92.77734
1210.483, 114.0469
1210.965, 113.8008
1211.447, 108.8594
1211.929, 103.3477
1212.411, 106.7695
1212.893, 121.9219
1213.375, 146.7578
1213.858, 190.8398
1214.340, 222.7852
1214.822, 223.7305
1215.304, 202.3789
1215.786, 169.3672
1216.268, 132.6836
1216.750, 111.3281
1217.232, 126.0703
1217.714, 124.2422
1218.197, 88.30859
1218.679, 66.53906
1219.161, 104.4219
1219.643, 166.7188
1220.125, 172.4727
1220.607, 143.0352
1221.089, 129.3281
1221.571, 173.3906
1222.053, 177.3672
1222.536, 122.7773
1223.018, 64.47266
1223.500, 33.87109
1223.982, 28.03906
1224.464, 61.05078
1224.946, 112.0977
1225.428, 133.1797
1225.910, 71.03516
1226.393, 48.00000
1226.875, 75.30078
1227.357, 112.3164
1227.839, 138.0391
1228.321, 148.7383
1228.803, 129.5977
1229.285, 92.03125
1229.767, 61.98047
1230.250, 45.14453
1230.732, 35.38281
1231.214, 30.79297
1231.696, 40.03125
1232.178, 94.34766
1232.660, 148.8633
1233.142, 125.1680
1233.624, 55.51172
1234.106, 18.01562
1234.589, 46.89453
1235.071, 45.60938
1235.553, 7.078125
1236.035, 34.07422
1236.517, 68.03906
1236.999, 76.33984
1237.481, 1.476563
1237.963, 108.0234
1238.445, 134.1562
1238.928, 32.62500
1239.410, 17.43750
1239.892, 7.324219
1240.374, 21.21875
1240.856, 48.46484
1241.338, 68.01953
1241.820, 71.67969
1242.302, 64.00391
1242.785, 54.74609
1243.267, 48.70312
1243.749, 39.85938
1244.231, 28.28906
1244.713, 13.18359
1245.195, 20.87500
1245.677, 40.37891
1246.159, 3.765625
1246.641, 60.60547
1247.124, 92.54688
1247.606, 87.25000
1248.088, 108.7383
1248.570, 158.4609
1249.052, 195.3398
1249.534, 179.2305
1250.016, 155.2578
1250.498, 147.4609
1250.980, 149.5352
1251.463, 157.2305
1251.945, 170.0156
1252.427, 159.5078
1252.909, 126.8594
1253.391, 95.83984
1253.873, 77.49609
1254.355, 69.62891
1254.837, 87.05859
1255.320, 101.4727
1255.802, 69.87891
1256.284, 1.992188
1256.766, 29.08203
1257.248, 21.35547
1257.730, 3.902344
1258.212, 56.25000
1258.694, 97.76562
1259.177, 113.0312
1259.659, 122.1680
1260.141, 153.0859
1260.623, 193.8867
1261.105, 200.1758
1261.587, 176.7070
1262.069, 153.5000
1262.551, 141.8984
1263.033, 132.5820
1263.516, 122.5312
1263.998, 117.1992
1264.480, 115.4766
1264.962, 154.7734
1265.444, 117.3633
1265.926, 127.8359
1266.408, 129.9258
1266.890, 93.39062
1267.372, 125.2227
1267.855, 85.49219
1268.337, 44.99609
1268.819, 75.47656
1269.301, 135.5352
1269.783, 177.7617
1270.265, 188.8203
1270.747, 178.7891
1271.229, 142.8203
1271.712, 127.6992
1272.194, 141.6016
1272.676, 166.0430
1273.158, 191.5391
1273.640, 210.3164
1274.122, 204.3945
1274.604, 185.3086
1275.086, 186.0273
1275.568, 224.7578
1276.051, 244.8359
1276.533, 244.8828
1277.015, 229.3633
1277.497, 179.0117
1277.979, 139.4492
1278.461, 153.8203
1278.943, 186.0312
1279.425, 189.9062
1279.907, 166.5898
1280.390, 147.3828
1280.872, 141.6016
1281.354, 143.0859
1281.836, 138.6797
1282.318, 131.9102
1282.800, 118.4102
1283.282, 109.4062
1283.764, 116.1797
1284.247, 135.8477
1284.729, 163.0898
1285.211, 190.8789
1285.693, 193.7070
1286.175, 117.6445
1286.657, 83.81641
1287.139, 118.4844
1287.621, 164.4922
1288.104, 179.7188
1288.586, 173.2969
1289.068, 156.9961
1289.550, 137.1016
1290.032, 127.6719
1290.514, 145.9180
1290.996, 147.1602
1291.478, 127.7500
1291.960, 108.7773
1292.443, 105.4297
1292.925, 109.3789
1293.407, 110.1133
1293.889, 110.8438
1294.371, 120.8750
1294.853, 147.0078
1295.335, 138.5156
1295.817, 93.89844
1296.299, 60.33594
1296.782, 71.59375
1297.264, 85.62891
1297.746, 59.45312
1298.228, 29.46875
1298.710, 40.26172
1299.192, 90.14062
1299.674, 106.3398
1300.156, 92.75781
1300.639, 67.03906
1301.121, 18.56250
1301.603, 2.929688
1302.085, 67.34375
1302.567, 126.7305
1303.049, 80.15625
1303.531, 0.0000000E+00
##END=



