##NAMES=Fergusonite-(Y)-beta
##RRUFFID=R080103
##IDEAL CHEMISTRY=YNbO_4_
##LOCALITY=Arendal, Aust-Agder, Norway
##OWNER=RRUFF
##SOURCE=James Shigley
##DESCRIPTION=Olive green fragment from metamict sample R070600, after heating at T = 1000 C for 20 hours
##STATUS=The identification of this mineral has been confirmed by X-ray diffraction.
##URL=rruff.info/R080103
150.6730, 0.0000000E+00
151.1551, 18.69336
151.6372, 76.88086
152.1194, 150.3340
152.6015, 237.0820
153.0836, 333.8008
153.5657, 426.5547
154.0478, 515.6133
154.5299, 599.1152
155.0121, 670.8535
155.4942, 728.3242
155.9763, 777.1738
156.4584, 827.0078
156.9405, 881.4062
157.4226, 932.2207
157.9048, 969.2891
158.3869, 992.8945
158.8690, 1010.393
159.3511, 1026.967
159.8332, 1042.348
160.3153, 1051.451
160.7975, 1053.951
161.2796, 1053.475
161.7617, 1048.369
162.2438, 1039.383
162.7259, 1033.061
163.2081, 1040.727
163.6902, 1057.623
164.1723, 1075.119
164.6544, 1086.314
165.1365, 1084.676
165.6186, 1060.166
166.1008, 1013.387
166.5829, 957.2441
167.0650, 898.1738
167.5471, 834.6777
168.0292, 764.8760
168.5113, 690.4395
168.9935, 615.1553
169.4756, 544.7578
169.9577, 487.1934
170.4398, 429.5938
170.9219, 367.5039
171.4040, 306.7559
171.8862, 252.2998
172.3683, 205.8633
172.8504, 165.6367
173.3325, 126.8027
173.8146, 90.20410
174.2967, 54.87695
174.7789, 17.24414
175.2610, 17.93262
175.7431, 44.39844
176.2252, 59.42773
176.7073, 64.46582
177.1894, 64.46973
177.6716, 58.37207
178.1537, 49.73730
178.6358, 40.03223
179.1179, 28.72559
179.6000, 14.88379
180.0821, 1.713867
180.5643, 22.23633
181.0464, 49.77148
181.5285, 84.41113
182.0106, 124.1113
182.4927, 168.6191
182.9748, 217.5469
183.4570, 269.1064
183.9391, 320.8369
184.4212, 376.5400
184.9033, 441.6582
185.3854, 519.5576
185.8675, 601.3945
186.3497, 679.1602
186.8318, 752.6289
187.3139, 829.4941
187.7960, 913.3477
188.2781, 1003.008
188.7602, 1097.949
189.2424, 1199.829
189.7245, 1303.575
190.2066, 1401.567
190.6887, 1491.709
191.1708, 1584.275
191.6530, 1682.094
192.1351, 1784.073
192.6172, 1890.898
193.0993, 2003.084
193.5814, 2117.588
194.0635, 2226.213
194.5457, 2322.719
195.0278, 2426.197
195.5099, 2547.392
195.9920, 2673.135
196.4741, 2789.566
196.9562, 2890.149
197.4384, 2981.378
197.9205, 3082.475
198.4026, 3200.953
198.8847, 3318.330
199.3668, 3433.572
199.8489, 3548.197
200.3311, 3663.075
200.8132, 3778.806
201.2953, 3898.764
201.7774, 4023.048
202.2595, 4152.902
202.7416, 4279.278
203.2238, 4400.283
203.7059, 4517.131
204.1880, 4631.219
204.6701, 4742.520
205.1522, 4849.859
205.6343, 4949.250
206.1165, 5048.279
206.5986, 5131.705
207.0807, 5189.764
207.5628, 5230.219
208.0449, 5268.073
208.5270, 5319.963
209.0092, 5372.306
209.4913, 5409.393
209.9734, 5427.024
210.4555, 5439.531
210.9376, 5453.228
211.4197, 5465.814
211.9019, 5471.079
212.3840, 5466.665
212.8661, 5451.531
213.3482, 5424.869
213.8303, 5382.306
214.3124, 5335.930
214.7946, 5293.548
215.2767, 5254.516
215.7588, 5215.549
216.2409, 5176.988
216.7230, 5135.436
217.2052, 5085.696
217.6873, 5027.162
218.1694, 4962.521
218.6515, 4890.266
219.1336, 4810.525
219.6157, 4736.392
220.0979, 4677.299
220.5800, 4623.273
221.0621, 4562.373
221.5442, 4492.040
222.0263, 4420.115
222.5084, 4355.156
222.9906, 4297.637
223.4727, 4238.794
223.9548, 4174.641
224.4369, 4109.307
224.9190, 4045.411
225.4011, 3982.789
225.8833, 3922.746
226.3654, 3867.134
226.8475, 3817.303
227.3296, 3766.582
227.8117, 3714.288
228.2938, 3660.301
228.7760, 3604.623
229.2581, 3546.812
229.7402, 3488.046
230.2223, 3429.307
230.7044, 3369.495
231.1865, 3312.509
231.6687, 3264.416
232.1508, 3215.107
232.6329, 3159.449
233.1150, 3094.829
233.5971, 3021.854
234.0792, 2940.725
234.5614, 2849.350
235.0435, 2757.289
235.5256, 2667.404
236.0077, 2575.865
236.4898, 2481.191
236.9719, 2383.188
237.4541, 2281.196
237.9362, 2173.893
238.4183, 2059.735
238.9004, 1944.749
239.3825, 1827.905
239.8646, 1711.755
240.3468, 1597.769
240.8289, 1485.967
241.3110, 1377.766
241.7931, 1272.989
242.2752, 1171.902
242.7573, 1076.406
243.2395, 988.0537
243.7216, 903.0176
244.2037, 817.4043
244.6858, 731.6768
245.1679, 650.5186
245.6501, 579.5244
246.1322, 521.3506
246.6143, 464.2881
247.0964, 407.2705
247.5785, 351.7959
248.0606, 296.9873
248.5428, 243.8027
249.0249, 196.3203
249.5070, 159.7891
249.9891, 136.3389
250.4712, 108.6973
250.9533, 72.01172
251.4355, 35.21289
251.9176, 3.375000
252.3997, 23.01855
252.8818, 45.02148
253.3639, 62.64746
253.8460, 75.65723
254.3282, 89.29492
254.8103, 104.9688
255.2924, 120.1328
255.7745, 134.1680
256.2566, 146.6602
256.7387, 154.9648
257.2209, 156.6074
257.7030, 151.8125
258.1851, 146.2520
258.6672, 138.2354
259.1493, 130.9629
259.6314, 127.2109
260.1136, 126.7207
260.5957, 126.9316
261.0778, 127.7100
261.5599, 127.4326
262.0420, 122.3301
262.5241, 108.9160
263.0063, 94.76758
263.4884, 83.89453
263.9705, 76.35938
264.4526, 73.49902
264.9347, 79.54785
265.4168, 88.23828
265.8990, 87.58105
266.3811, 73.34863
266.8632, 58.45117
267.3453, 52.50879
267.8274, 54.51465
268.3095, 57.01367
268.7917, 58.40332
269.2738, 57.87305
269.7559, 55.45410
270.2380, 51.33984
270.7201, 43.86523
271.2022, 27.85156
271.6844, 5.334961
272.1665, 8.903320
272.6486, 6.804688
273.1307, 0.5517580
273.6128, 2.080078
274.0949, 2.298828
274.5771, 8.391602
275.0592, 13.83887
275.5413, 18.82910
276.0234, 24.06250
276.5055, 29.01367
276.9876, 35.25586
277.4698, 45.14160
277.9519, 57.67480
278.4340, 68.21777
278.9161, 72.42578
279.3982, 71.87012
279.8803, 73.94434
280.3625, 79.20312
280.8446, 87.02539
281.3267, 98.94824
281.8088, 112.8018
282.2909, 123.4463
282.7730, 124.7559
283.2552, 120.7607
283.7373, 126.4541
284.2194, 148.8086
284.7015, 167.5469
285.1836, 170.4922
285.6658, 164.8467
286.1479, 161.4512
286.6300, 166.0596
287.1121, 174.9551
287.5942, 179.4893
288.0764, 178.0859
288.5585, 175.9785
289.0406, 175.1016
289.5227, 174.6465
290.0048, 174.0488
290.4869, 173.5137
290.9691, 171.9414
291.4512, 165.7393
291.9333, 151.4121
292.4154, 144.1748
292.8975, 155.1475
293.3796, 170.5908
293.8618, 179.5547
294.3439, 179.2891
294.8260, 176.4619
295.3081, 179.7012
295.7902, 190.0361
296.2723, 201.3926
296.7545, 213.5986
297.2366, 225.9121
297.7187, 236.7822
298.2008, 246.4658
298.6829, 257.8232
299.1650, 273.1934
299.6472, 292.5742
300.1293, 315.6367
300.6114, 345.0811
301.0935, 375.7139
301.5756, 404.3916
302.0577, 431.5059
302.5399, 460.3682
303.0220, 493.7695
303.5041, 531.4883
303.9862, 569.7441
304.4683, 608.0312
304.9504, 647.9092
305.4326, 686.9561
305.9147, 728.1201
306.3968, 777.1357
306.8789, 839.1377
307.3610, 910.7520
307.8431, 975.2197
308.3253, 1025.205
308.8074, 1078.843
309.2895, 1137.987
309.7716, 1203.829
310.2537, 1277.907
310.7358, 1362.060
311.2180, 1452.926
311.7001, 1541.720
312.1822, 1627.858
312.6643, 1714.959
313.1464, 1803.400
313.6285, 1893.374
314.1107, 1985.445
314.5928, 2079.953
315.0749, 2178.140
315.5570, 2280.636
316.0391, 2386.895
316.5212, 2499.466
317.0034, 2620.352
317.4855, 2746.848
317.9676, 2879.538
318.4497, 3017.266
318.9318, 3155.295
319.4139, 3286.641
319.8961, 3409.634
320.3782, 3544.328
320.8603, 3703.633
321.3424, 3862.492
321.8245, 4011.896
322.3066, 4152.764
322.7888, 4291.265
323.2709, 4431.896
323.7530, 4574.141
324.2351, 4705.609
324.7172, 4826.088
325.1993, 4934.265
325.6815, 5029.841
326.1636, 5114.700
326.6457, 5193.701
327.1278, 5269.724
327.6099, 5338.773
328.0920, 5390.447
328.5742, 5419.444
329.0563, 5442.023
329.5384, 5466.111
330.0205, 5483.871
330.5026, 5487.246
330.9847, 5474.031
331.4669, 5450.657
331.9490, 5425.020
332.4311, 5396.861
332.9132, 5367.699
333.3953, 5334.496
333.8774, 5302.852
334.3596, 5277.066
334.8417, 5256.889
335.3238, 5238.082
335.8059, 5218.039
336.2880, 5196.838
336.7701, 5171.414
337.2523, 5144.125
337.7344, 5108.945
338.2165, 5062.281
338.6986, 5006.160
339.1807, 4944.957
339.6628, 4881.402
340.1450, 4814.742
340.6271, 4741.531
341.1092, 4659.707
341.5913, 4575.105
342.0735, 4487.719
342.5556, 4399.904
343.0377, 4313.369
343.5198, 4227.830
344.0019, 4146.498
344.4840, 4075.765
344.9662, 4016.512
345.4483, 3961.929
345.9304, 3908.594
346.4125, 3860.330
346.8946, 3820.426
347.3767, 3789.146
347.8589, 3765.738
348.3410, 3749.244
348.8231, 3739.665
349.3052, 3738.947
349.7873, 3750.585
350.2694, 3768.307
350.7516, 3790.334
351.2337, 3815.026
351.7158, 3835.835
352.1979, 3844.900
352.6800, 3846.841
353.1621, 3858.070
353.6443, 3883.066
354.1264, 3907.612
354.6085, 3920.272
355.0906, 3927.673
355.5727, 3940.263
356.0548, 3963.071
356.5370, 3990.793
357.0191, 4017.009
357.5012, 4041.597
357.9833, 4065.438
358.4654, 4090.068
358.9475, 4113.295
359.4297, 4131.644
359.9118, 4143.937
360.3939, 4156.039
360.8760, 4172.937
361.3581, 4193.592
361.8402, 4213.037
362.3224, 4229.816
362.8045, 4245.222
363.2866, 4260.578
363.7687, 4275.776
364.2508, 4290.393
364.7329, 4305.672
365.2151, 4319.794
365.6972, 4328.006
366.1793, 4328.611
366.6614, 4331.347
367.1435, 4346.772
367.6256, 4370.391
368.1078, 4388.038
368.5899, 4396.729
369.0720, 4400.005
369.5541, 4396.849
370.0362, 4388.936
370.5183, 4389.160
371.0005, 4409.331
371.4826, 4435.946
371.9647, 4437.098
372.4468, 4402.888
372.9289, 4371.810
373.4110, 4365.002
373.8932, 4370.206
374.3753, 4364.751
374.8574, 4342.111
375.3395, 4311.732
375.8216, 4285.615
376.3037, 4264.539
376.7859, 4239.535
377.2680, 4207.020
377.7501, 4171.905
378.2322, 4140.172
378.7143, 4111.147
379.1964, 4077.106
379.6786, 4031.464
380.1607, 3975.009
380.6428, 3917.628
381.1249, 3858.383
381.6070, 3800.038
382.0891, 3745.101
382.5713, 3691.289
383.0534, 3634.230
383.5355, 3571.529
384.0176, 3505.859
384.4997, 3442.318
384.9818, 3385.445
385.4640, 3322.856
385.9461, 3250.184
386.4282, 3174.501
386.9103, 3103.514
387.3924, 3037.970
387.8745, 2970.889
388.3567, 2895.127
388.8388, 2808.757
389.3209, 2728.023
389.8030, 2656.439
390.2851, 2585.307
390.7672, 2509.965
391.2494, 2432.552
391.7315, 2357.936
392.2136, 2289.271
392.6957, 2224.705
393.1778, 2158.480
393.6599, 2088.680
394.1421, 2019.709
394.6242, 1948.580
395.1063, 1879.789
395.5884, 1820.668
396.0706, 1771.585
396.5527, 1724.387
397.0348, 1666.236
397.5169, 1593.111
397.9990, 1526.522
398.4811, 1472.754
398.9633, 1420.619
399.4454, 1364.006
399.9275, 1305.185
400.4096, 1249.793
400.8917, 1202.689
401.3738, 1162.034
401.8560, 1120.084
402.3381, 1077.352
402.8202, 1032.513
403.3023, 981.0195
403.7844, 929.3076
404.2665, 884.6387
404.7487, 849.4805
405.2308, 818.0615
405.7129, 784.0430
406.1950, 747.0312
406.6771, 709.9678
407.1592, 671.1582
407.6414, 635.3828
408.1235, 606.8320
408.6056, 584.6055
409.0877, 563.5195
409.5698, 539.1553
410.0519, 514.1699
410.5341, 495.7324
411.0162, 485.8428
411.4983, 475.5996
411.9804, 459.3906
412.4625, 439.2256
412.9446, 418.4746
413.4268, 397.0547
413.9089, 376.1455
414.3910, 357.0205
414.8731, 340.1357
415.3552, 325.8027
415.8373, 314.3223
416.3195, 305.7354
416.8016, 301.5186
417.2837, 302.3477
417.7658, 298.6426
418.2479, 284.8496
418.7300, 267.7900
419.2122, 253.4766
419.6943, 241.9287
420.1764, 231.4102
420.6585, 220.1611
421.1406, 208.8867
421.6227, 204.8691
422.1049, 213.2578
422.5870, 221.8125
423.0691, 225.6270
423.5512, 226.5391
424.0333, 227.3779
424.5154, 229.2236
424.9976, 231.0469
425.4797, 231.4990
425.9618, 228.5635
426.4439, 229.2676
426.9260, 234.3926
427.4081, 242.1387
427.8903, 250.1426
428.3724, 259.3779
428.8545, 273.8125
429.3366, 296.6602
429.8187, 327.5361
430.3008, 360.9189
430.7830, 395.9980
431.2651, 434.7529
431.7472, 479.8037
432.2293, 529.0020
432.7114, 579.5615
433.1935, 629.8350
433.6757, 678.9141
434.1578, 724.6260
434.6399, 764.2324
435.1220, 811.0078
435.6041, 871.1924
436.0862, 934.3076
436.5684, 997.1514
437.0505, 1058.664
437.5326, 1117.697
438.0147, 1173.040
438.4968, 1224.648
438.9789, 1273.271
439.4611, 1318.712
439.9432, 1361.432
440.4253, 1398.379
440.9074, 1433.803
441.3895, 1473.096
441.8716, 1518.359
442.3538, 1564.359
442.8359, 1605.984
443.3180, 1643.860
443.8001, 1682.339
444.2822, 1724.799
444.7643, 1764.636
445.2465, 1793.237
445.7286, 1813.177
446.2107, 1834.593
446.6928, 1861.395
447.1749, 1890.159
447.6570, 1919.456
448.1392, 1948.557
448.6213, 1972.607
449.1034, 1989.297
449.5855, 1998.815
450.0677, 2000.813
450.5498, 1992.477
451.0319, 1984.186
451.5140, 1983.479
451.9961, 1981.947
452.4782, 1967.857
452.9604, 1939.469
453.4425, 1906.343
453.9246, 1879.226
454.4067, 1859.897
454.8888, 1826.797
455.3709, 1773.314
455.8531, 1716.388
456.3352, 1659.416
456.8173, 1603.898
457.2994, 1551.734
457.7815, 1504.134
458.2636, 1457.684
458.7458, 1404.035
459.2279, 1336.977
459.7100, 1275.586
460.1921, 1223.805
460.6742, 1174.121
461.1563, 1122.873
461.6385, 1069.521
462.1206, 1015.245
462.6027, 960.2822
463.0848, 905.1025
463.5669, 852.5059
464.0490, 803.9385
464.5312, 755.6152
465.0133, 706.2412
465.4954, 656.6055
465.9775, 607.3398
466.4596, 558.1914
466.9417, 508.8906
467.4239, 457.0459
467.9060, 403.6973
468.3881, 355.5146
468.8702, 314.7168
469.3523, 276.4619
469.8344, 236.5996
470.3166, 196.0225
470.7987, 158.2139
471.2808, 125.0889
471.7629, 94.41895
472.2450, 64.66016
472.7271, 35.96094
473.2093, 8.858398
473.6914, 16.41309
474.1735, 39.86426
474.6556, 61.13184
475.1377, 79.06445
475.6198, 99.03516
476.1020, 127.9268
476.5841, 155.2139
477.0662, 170.8760
477.5483, 174.9277
478.0304, 174.7051
478.5125, 175.3213
478.9947, 176.7559
479.4768, 177.7002
479.9589, 177.3857
480.4410, 177.9053
480.9231, 181.5381
481.4052, 185.1875
481.8874, 185.1650
482.3695, 180.8633
482.8516, 174.9590
483.3337, 170.7295
483.8158, 168.4736
484.2979, 165.3223
484.7801, 159.9404
485.2622, 155.1084
485.7443, 152.7324
486.2264, 151.2715
486.7085, 148.2637
487.1906, 142.6084
487.6728, 135.1826
488.1549, 125.8408
488.6370, 114.1992
489.1191, 107.4902
489.6012, 111.0000
490.0833, 115.8291
490.5655, 113.1621
491.0476, 104.1338
491.5297, 96.47949
492.0118, 93.43457
492.4939, 93.30566
492.9760, 94.57227
493.4582, 97.10449
493.9403, 99.64062
494.4224, 102.2227
494.9045, 103.7803
495.3866, 101.3525
495.8687, 94.37695
496.3509, 85.95703
496.8330, 77.69922
497.3151, 67.91406
497.7972, 53.87012
498.2793, 35.84766
498.7614, 17.82422
499.2436, 3.610352
499.7257, 7.112305
500.2078, 21.45215
500.6899, 41.76562
501.1720, 62.82520
501.6541, 84.87891
502.1363, 106.7656
502.6184, 126.3994
503.1005, 143.7021
503.5826, 162.2773
504.0647, 187.9834
504.5468, 222.1113
505.0290, 250.5527
505.5111, 269.9375
505.9932, 287.8457
506.4753, 307.4297
506.9575, 327.5801
507.4396, 346.2158
507.9217, 362.2676
508.4038, 377.5781
508.8859, 394.8369
509.3680, 413.8545
509.8502, 430.5410
510.3323, 442.7295
510.8144, 454.4189
511.2965, 469.2207
511.7786, 486.7656
512.2607, 506.5850
512.7429, 531.8174
513.2250, 556.6152
513.7071, 575.6797
514.1892, 589.8408
514.6713, 602.6406
515.1534, 615.0771
515.6356, 629.0645
516.1177, 648.7725
516.5998, 678.4512
517.0819, 705.1123
517.5640, 727.1953
518.0461, 747.2822
518.5283, 766.5254
519.0104, 785.3936
519.4925, 803.6592
519.9746, 820.8027
520.4567, 838.3438
520.9388, 862.9141
521.4210, 901.6670
521.9031, 933.7393
522.3852, 950.8350
522.8673, 965.6426
523.3494, 987.0869
523.8315, 1015.306
524.3137, 1044.931
524.7958, 1072.134
525.2779, 1097.205
525.7600, 1119.866
526.2421, 1138.768
526.7242, 1160.141
527.2064, 1189.617
527.6885, 1221.526
528.1706, 1248.981
528.6527, 1271.062
529.1348, 1290.871
529.6169, 1307.882
530.0991, 1323.622
530.5812, 1342.049
531.0633, 1363.358
531.5454, 1382.494
532.0275, 1395.826
532.5096, 1404.131
532.9918, 1411.419
533.4739, 1419.383
533.9560, 1423.099
534.4381, 1419.350
534.9202, 1413.051
535.4023, 1410.393
535.8845, 1412.061
536.3666, 1413.531
536.8487, 1409.775
537.3308, 1400.862
537.8129, 1394.269
538.2950, 1393.402
538.7772, 1390.049
539.2593, 1381.226
539.7414, 1369.943
540.2235, 1359.021
540.7056, 1349.268
541.1877, 1340.897
541.6699, 1333.997
542.1520, 1328.632
542.6341, 1325.923
543.1162, 1327.303
543.5983, 1327.678
544.0804, 1322.110
544.5626, 1313.636
545.0447, 1307.809
545.5268, 1305.711
546.0089, 1306.071
546.4910, 1309.663
546.9731, 1314.775
547.4553, 1316.954
547.9374, 1315.466
548.4195, 1315.199
548.9016, 1320.952
549.3837, 1332.827
549.8658, 1345.952
550.3480, 1359.644
550.8301, 1374.910
551.3122, 1391.633
551.7943, 1410.117
552.2764, 1431.769
552.7585, 1456.485
553.2407, 1481.256
553.7228, 1501.987
554.2049, 1518.498
554.6870, 1535.776
555.1691, 1554.839
555.6512, 1573.520
556.1334, 1588.629
556.6155, 1604.124
557.0976, 1625.175
557.5797, 1653.164
558.0618, 1685.193
558.5439, 1721.216
559.0261, 1759.203
559.5082, 1792.543
559.9903, 1819.775
560.4724, 1842.447
560.9545, 1858.877
561.4366, 1871.430
561.9188, 1891.863
562.4009, 1927.331
562.8830, 1961.712
563.3651, 1988.489
563.8472, 2011.005
564.3293, 2033.985
564.8115, 2058.409
565.2936, 2082.183
565.7757, 2102.817
566.2578, 2120.417
566.7399, 2140.570
567.2220, 2167.150
567.7042, 2191.747
568.1863, 2211.773
568.6684, 2229.697
569.1505, 2248.064
569.6326, 2267.252
570.1147, 2285.692
570.5969, 2303.579
571.0790, 2319.910
571.5611, 2326.329
572.0432, 2318.536
572.5253, 2312.922
573.0074, 2322.059
573.4896, 2336.526
573.9717, 2342.176
574.4538, 2336.350
574.9359, 2327.369
575.4180, 2317.163
575.9001, 2307.094
576.3823, 2300.955
576.8644, 2298.394
577.3465, 2292.133
577.8286, 2276.575
578.3107, 2253.449
578.7928, 2231.226
579.2750, 2211.758
579.7571, 2190.644
580.2392, 2167.938
580.7213, 2143.409
581.2034, 2116.718
581.6855, 2087.967
582.1677, 2057.047
582.6498, 2023.868
583.1319, 1988.662
583.6140, 1952.719
584.0961, 1915.471
584.5782, 1878.697
585.0604, 1840.109
585.5425, 1804.359
586.0246, 1777.427
586.5067, 1758.493
586.9889, 1737.551
587.4710, 1709.123
587.9531, 1677.309
588.4352, 1646.031
588.9174, 1615.641
589.3995, 1586.646
589.8816, 1559.562
590.3637, 1533.567
590.8458, 1506.707
591.3279, 1477.791
591.8101, 1451.587
592.2922, 1428.226
592.7743, 1407.182
593.2564, 1389.119
593.7385, 1372.980
594.2206, 1357.417
594.7028, 1341.950
595.1849, 1325.483
595.6670, 1304.616
596.1491, 1277.636
596.6312, 1259.448
597.1133, 1257.259
597.5955, 1255.716
598.0776, 1242.184
598.5597, 1224.241
599.0418, 1217.919
599.5239, 1232.850
600.0060, 1247.811
600.4882, 1243.094
600.9703, 1225.898
601.4524, 1213.336
601.9345, 1208.735
602.4166, 1208.268
602.8987, 1209.791
603.3809, 1212.876
603.8630, 1212.180
604.3451, 1201.657
604.8272, 1195.431
605.3093, 1197.745
605.7914, 1204.447
606.2736, 1213.588
606.7557, 1223.406
607.2378, 1229.608
607.7199, 1227.965
608.2020, 1219.808
608.6841, 1211.575
609.1663, 1202.908
609.6484, 1195.347
610.1305, 1189.531
610.6126, 1184.964
611.0947, 1181.601
611.5768, 1179.362
612.0590, 1177.123
612.5411, 1175.662
613.0232, 1173.005
613.5053, 1165.556
613.9874, 1154.504
614.4695, 1145.398
614.9517, 1140.802
615.4338, 1137.486
615.9159, 1129.569
616.3980, 1114.896
616.8801, 1103.208
617.3622, 1099.147
617.8444, 1092.367
618.3265, 1075.154
618.8086, 1053.161
619.2907, 1036.193
619.7728, 1027.543
620.2549, 1021.537
620.7371, 1010.159
621.2192, 993.6865
621.7013, 981.2295
622.1834, 976.1025
622.6655, 968.3936
623.1476, 950.2754
623.6298, 926.5000
624.1119, 904.6357
624.5940, 885.0938
625.0761, 868.0000
625.5582, 855.8877
626.0403, 845.3115
626.5225, 832.4238
627.0046, 816.8135
627.4867, 799.8604
627.9688, 781.7207
628.4509, 763.5566
628.9330, 748.4248
629.4152, 739.6836
629.8973, 728.3027
630.3794, 710.9414
630.8615, 694.0176
631.3436, 681.1631
631.8257, 671.6328
632.3079, 662.8184
632.7900, 653.4473
633.2721, 643.8105
633.7542, 633.7471
634.2363, 623.4648
634.7184, 615.9824
635.2006, 612.6895
635.6827, 609.7930
636.1648, 604.2344
636.6469, 596.1885
637.1290, 588.4980
637.6111, 578.8389
638.0933, 572.4814
638.5754, 574.0850
639.0575, 578.5166
639.5396, 579.9678
640.0217, 577.6152
640.5038, 573.6377
640.9860, 569.2344
641.4681, 564.7539
641.9502, 561.7461
642.4323, 560.9482
642.9144, 559.7119
643.3965, 558.6914
643.8787, 555.7588
644.3608, 547.6729
644.8429, 535.7217
645.3250, 526.3623
645.8071, 522.3848
646.2892, 521.8857
646.7714, 524.7842
647.2535, 529.7168
647.7356, 532.6484
648.2177, 532.7256
648.6998, 530.1201
649.1819, 524.7373
649.6641, 516.1768
650.1462, 510.7637
650.6283, 511.5801
651.1104, 511.5879
651.5925, 508.0742
652.0746, 504.0049
652.5568, 502.0830
653.0389, 502.7617
653.5210, 506.1309
654.0031, 513.9736
654.4852, 523.5879
654.9673, 526.7314
655.4495, 522.9844
655.9316, 519.7275
656.4137, 519.8604
656.8958, 520.7529
657.3779, 518.8262
657.8600, 514.4668
658.3422, 510.4160
658.8243, 507.5938
659.3064, 504.3066
659.7885, 498.7412
660.2706, 492.7168
660.7527, 488.8184
661.2349, 488.1133
661.7170, 487.8975
662.1991, 485.1758
662.6812, 479.7939
663.1633, 473.2266
663.6454, 465.5312
664.1276, 455.8877
664.6097, 438.9990
665.0918, 423.5332
665.5739, 418.8379
666.0560, 424.6519
666.5381, 429.2397
667.0203, 425.1475
667.5024, 418.9111
667.9845, 417.6274
668.4666, 420.4233
668.9487, 422.9624
669.4308, 423.7993
669.9130, 423.2612
670.3951, 421.6387
670.8772, 419.2134
671.3593, 413.9956
671.8414, 400.9292
672.3235, 391.3481
672.8057, 388.0210
673.2878, 388.8340
673.7699, 393.9600
674.2520, 402.6714
674.7341, 408.2104
675.2162, 403.5698
675.6984, 392.9419
676.1805, 384.7974
676.6626, 378.9224
677.1447, 373.8711
677.6268, 369.9146
678.1089, 365.2305
678.5911, 356.3916
679.0732, 341.5981
679.5553, 331.9673
680.0374, 331.5723
680.5195, 331.5625
681.0016, 329.0596
681.4838, 324.5654
681.9659, 318.8599
682.4480, 312.5200
682.9301, 306.8232
683.4122, 303.3608
683.8943, 301.3804
684.3765, 296.1748
684.8586, 287.2788
685.3407, 278.8413
685.8228, 272.2720
686.3049, 266.7129
686.7870, 261.7012
687.2692, 257.3613
687.7513, 251.0459
688.2334, 239.3428
688.7155, 228.7563
689.1976, 224.8394
689.6797, 223.7319
690.1619, 219.0728
690.6440, 209.4971
691.1261, 197.9312
691.6082, 186.9185
692.0903, 176.6064
692.5724, 168.0552
693.0546, 162.5859
693.5367, 155.6235
694.0188, 143.6196
694.5009, 131.5835
694.9830, 125.1812
695.4651, 123.7393
695.9473, 120.7051
696.4294, 113.6187
696.9116, 104.8296
697.3937, 95.03271
697.8758, 84.89453
698.3579, 75.51904
698.8400, 67.25293
699.3221, 59.63428
699.8043, 52.44287
700.2864, 45.61621
700.7685, 39.20947
701.2506, 33.31494
701.7327, 27.49951
702.2148, 23.41309
702.6970, 18.18750
703.1791, 8.424316
703.6612, 4.267090
704.1433, 14.62842
704.6254, 18.77588
705.1075, 22.04248
705.5897, 29.15527
706.0718, 38.35693
706.5539, 45.33789
707.0360, 49.52588
707.5181, 53.01660
708.0002, 57.75391
708.4824, 63.36475
708.9645, 68.38135
709.4466, 73.22412
709.9287, 76.88818
710.4108, 79.11572
710.8929, 80.37305
711.3751, 79.72363
711.8572, 78.47607
712.3393, 79.38623
712.8214, 84.41797
713.3035, 89.75244
713.7856, 91.81152
714.2678, 91.71240
714.7499, 92.87793
715.2320, 95.43457
715.7141, 96.65186
716.1962, 94.24268
716.6783, 89.64795
717.1605, 87.04785
717.6426, 86.92822
718.1247, 87.69531
718.6068, 91.98193
719.0889, 94.28418
719.5710, 91.15869
720.0532, 84.68311
720.5353, 78.29688
721.0174, 72.87256
721.4995, 68.97314
721.9816, 68.48584
722.4637, 69.46875
722.9459, 67.93726
723.4280, 63.84814
723.9101, 59.50586
724.3922, 56.22827
724.8743, 53.57642
725.3564, 50.68970
725.8386, 47.74097
726.3207, 44.23633
726.8028, 40.27100
727.2849, 35.92896
727.7670, 30.45850
728.2491, 25.14868
728.7313, 22.02539
729.2134, 21.47437
729.6955, 20.41602
730.1776, 15.97559
730.6597, 10.15576
731.1418, 6.539307
731.6240, 4.623047
732.1061, 1.450684
732.5882, 4.139648
733.0703, 10.93408
733.5524, 17.78320
734.0345, 24.79468
734.5167, 29.51562
734.9988, 28.38306
735.4809, 29.62915
735.9630, 37.29272
736.4451, 45.82202
736.9272, 49.72705
737.4094, 49.72754
737.8915, 51.10327
738.3736, 57.42651
738.8557, 65.37769
739.3378, 71.22070
739.8199, 75.53271
740.3021, 79.79565
740.7842, 84.30811
741.2663, 88.96411
741.7484, 93.49927
742.2305, 98.13208
742.7126, 104.1863
743.1948, 112.4736
743.6769, 120.6863
744.1590, 129.6509
744.6411, 137.6045
745.1232, 142.4358
745.6053, 145.8235
746.0875, 151.6931
746.5696, 162.1543
747.0517, 171.6628
747.5338, 173.8657
748.0159, 173.3271
748.4980, 178.7061
748.9802, 189.8198
749.4623, 200.4353
749.9444, 207.1584
750.4265, 212.4668
750.9086, 221.2751
751.3907, 235.0435
751.8729, 245.3945
752.3550, 249.4121
752.8371, 253.7412
753.3192, 260.4722
753.8013, 268.5454
754.2834, 276.8386
754.7656, 285.1697
755.2477, 294.0459
755.7298, 305.0215
756.2119, 315.4719
756.6940, 321.5752
757.1761, 325.3181
757.6583, 331.8228
758.1404, 342.3782
758.6225, 354.1292
759.1046, 364.2520
759.5867, 373.0469
760.0688, 382.4810
760.5510, 393.2366
761.0331, 402.8862
761.5152, 409.6023
761.9973, 416.3333
762.4794, 425.4536
762.9615, 436.4053
763.4437, 447.3247
763.9258, 458.0415
764.4079, 468.1372
764.8900, 477.2798
765.3721, 485.8560
765.8542, 493.5344
766.3364, 500.8713
766.8185, 509.8306
767.3006, 521.5613
767.7827, 534.4990
768.2648, 546.1475
768.7469, 556.5125
769.2291, 565.4246
769.7112, 571.7712
770.1933, 579.5410
770.6754, 591.7180
771.1575, 605.4873
771.6396, 615.7837
772.1218, 622.0430
772.6039, 630.0344
773.0860, 642.5161
773.5681, 654.8392
774.0502, 664.7651
774.5323, 673.2910
775.0145, 681.1619
775.4966, 688.7180
775.9787, 697.0212
776.4608, 707.1864
776.9429, 718.2660
777.4250, 728.0851
777.9072, 736.9150
778.3893, 746.0333
778.8714, 755.4214
779.3535, 766.1514
779.8356, 779.5483
780.3177, 794.9612
780.7999, 808.5032
781.2820, 818.4752
781.7641, 829.5383
782.2462, 842.2930
782.7283, 855.7047
783.2104, 868.0737
783.6926, 880.8069
784.1747, 897.3015
784.6568, 919.2384
785.1389, 941.8650
785.6210, 960.5948
786.1031, 977.3057
786.5853, 995.0139
787.0674, 1013.828
787.5495, 1034.475
788.0316, 1057.387
788.5137, 1081.902
788.9958, 1106.703
789.4780, 1131.597
789.9601, 1158.173
790.4422, 1187.258
790.9243, 1217.245
791.4064, 1247.701
791.8885, 1279.015
792.3707, 1311.737
792.8528, 1345.453
793.3349, 1380.059
793.8170, 1415.946
794.2991, 1453.136
794.7813, 1490.312
795.2634, 1529.175
795.7455, 1573.474
796.2276, 1622.966
796.7097, 1673.662
797.1918, 1723.328
797.6740, 1772.108
798.1561, 1820.381
798.6382, 1868.108
799.1203, 1915.912
799.6024, 1963.253
800.0845, 2013.186
800.5667, 2068.679
801.0488, 2127.113
801.5309, 2182.644
802.0130, 2234.712
802.4951, 2290.081
802.9772, 2354.093
803.4594, 2415.934
803.9415, 2469.510
804.4236, 2519.669
804.9057, 2571.602
805.3878, 2625.666
805.8699, 2678.547
806.3521, 2727.557
806.8342, 2775.351
807.3163, 2828.273
807.7985, 2883.548
808.2806, 2929.485
808.7627, 2964.092
809.2448, 2990.838
809.7269, 3011.998
810.2090, 3027.223
810.6912, 3035.804
811.1733, 3037.999
811.6554, 3033.267
812.1375, 3018.967
812.6196, 3000.470
813.1017, 2982.697
813.5839, 2960.639
814.0660, 2926.753
814.5481, 2879.666
815.0302, 2828.338
815.5123, 2776.356
815.9944, 2722.062
816.4766, 2663.490
816.9587, 2601.675
817.4408, 2539.654
817.9229, 2477.926
818.4050, 2414.843
818.8871, 2348.900
819.3693, 2280.735
819.8514, 2210.055
820.3335, 2136.833
820.8156, 2065.389
821.2977, 1996.161
821.7798, 1929.272
822.2620, 1863.901
822.7441, 1800.525
823.2262, 1740.811
823.7083, 1684.794
824.1904, 1631.720
824.6725, 1583.435
825.1547, 1535.735
825.6368, 1485.840
826.1189, 1436.096
826.6010, 1389.603
827.0831, 1346.787
827.5652, 1305.582
828.0474, 1264.214
828.5295, 1224.082
829.0116, 1187.130
829.4937, 1152.789
829.9758, 1119.182
830.4579, 1086.021
830.9401, 1054.588
831.4222, 1025.767
831.9043, 999.1412
832.3864, 973.4672
832.8685, 949.2675
833.3506, 924.0747
833.8328, 897.3159
834.3149, 870.5184
834.7970, 844.5249
835.2791, 819.1860
835.7612, 794.4858
836.2433, 770.4573
836.7255, 747.2561
837.2076, 726.1514
837.6897, 704.6990
838.1718, 681.4829
838.6539, 657.4305
839.1360, 633.5208
839.6182, 609.9673
840.1003, 586.3611
840.5824, 562.4089
841.0645, 538.3564
841.5466, 514.3362
842.0287, 490.4211
842.5109, 467.6008
842.9930, 445.8977
843.4751, 424.2188
843.9572, 402.1040
844.4393, 379.3906
844.9214, 356.1360
845.4036, 332.0525
845.8857, 308.2838
846.3678, 283.9236
846.8499, 261.3049
847.3320, 241.7660
847.8141, 224.1925
848.2963, 207.8558
848.7784, 192.6941
849.2605, 176.7710
849.7426, 158.8854
850.2247, 141.3108
850.7068, 124.0013
851.1890, 108.1229
851.6711, 95.40393
852.1532, 85.22986
852.6353, 75.50500
853.1174, 65.25623
853.5995, 54.75427
854.0817, 43.29626
854.5638, 31.92432
855.0459, 24.35608
855.5280, 20.35010
856.0101, 15.74731
856.4922, 8.773682
856.9744, 1.217041
857.4565, 4.708618
857.9386, 9.046753
858.4207, 11.97058
858.9028, 12.77808
859.3849, 13.98450
859.8671, 17.80786
860.3492, 20.23279
860.8313, 16.47729
861.3134, 9.162231
861.7955, 5.627930
862.2776, 8.177856
862.7598, 10.71643
863.2419, 13.80713
863.7240, 14.25806
864.2061, 7.675293
864.6882, 2.246460
865.1703, 9.056030
865.6525, 11.31458
866.1346, 13.17847
866.6167, 18.02881
867.0988, 24.35706
867.5809, 29.95862
868.0630, 34.99548
868.5452, 39.89404
869.0273, 44.76770
869.5094, 49.73816
869.9915, 54.83618
870.4736, 60.27722
870.9557, 66.92053
871.4379, 75.24939
871.9200, 81.79395
872.4021, 85.26953
872.8842, 89.61682
873.3663, 97.68738
873.8484, 106.6940
874.3306, 112.2233
874.8127, 114.2003
875.2948, 116.5258
875.7769, 119.1515
876.2590, 122.5361
876.7411, 127.5164
877.2233, 132.7544
877.7054, 137.3152
878.1875, 141.0784
878.6696, 143.9900
879.1517, 145.8217
879.6339, 147.7471
880.1160, 151.6165
880.5981, 155.5863
881.0802, 156.7516
881.5623, 155.6119
882.0444, 154.1073
882.5266, 152.9865
883.0087, 152.5441
883.4908, 153.4323
883.9729, 154.9805
884.4550, 154.1993
884.9371, 150.9231
885.4193, 148.5830
885.9014, 148.1007
886.3835, 147.5770
886.8656, 145.8030
887.3477, 142.9431
887.8298, 139.3247
888.3120, 134.6392
888.7941, 130.0952
889.2762, 125.7009
889.7583, 121.4177
890.2404, 116.4785
890.7225, 112.1749
891.2047, 110.6483
891.6868, 111.4926
892.1689, 110.5599
892.6510, 105.1010
893.1331, 99.49866
893.6152, 95.82874
894.0974, 93.20715
894.5795, 90.89136
895.0616, 88.74097
895.5437, 86.80872
896.0258, 85.07495
896.5079, 83.45203
896.9901, 82.12317
897.4722, 80.73218
897.9543, 77.99390
898.4364, 74.31970
898.9185, 72.37598
899.4006, 72.94446
899.8828, 73.26099
900.3649, 70.68872
900.8470, 66.26465
901.3291, 63.66357
901.8112, 63.24255
902.2933, 63.55945
902.7755, 65.01282
903.2576, 66.16614
903.7397, 66.30017
904.2218, 65.70190
904.7039, 64.61230
905.1860, 62.90588
905.6682, 62.17554
906.1503, 62.49524
906.6324, 63.50928
907.1145, 65.83423
907.5966, 67.94324
908.0787, 68.47839
908.5609, 68.11646
909.0430, 68.57837
909.5251, 70.18152
910.0072, 72.50818
910.4893, 75.51172
910.9714, 78.76758
911.4536, 82.12585
911.9357, 85.31384
912.4178, 87.55420
912.8999, 88.85889
913.3820, 90.72839
913.8641, 94.53723
914.3463, 99.39343
914.8284, 103.9789
915.3105, 108.2228
915.7926, 111.3634
916.2748, 113.2626
916.7569, 114.9592
917.2390, 116.9446
917.7211, 119.7252
918.2032, 124.2605
918.6854, 130.6660
919.1675, 136.6503
919.6496, 142.0339
920.1317, 147.9304
920.6138, 155.2335
921.0959, 161.9823
921.5781, 165.8783
922.0602, 167.8344
922.5423, 172.1356
923.0244, 181.0002
923.5065, 188.0350
923.9886, 191.8395
924.4708, 194.9567
924.9529, 198.2852
925.4350, 201.7522
925.9171, 204.6976
926.3992, 207.2415
926.8813, 211.5148
927.3635, 220.8588
927.8456, 229.2184
928.3277, 232.1107
928.8098, 232.9355
929.2919, 235.0427
929.7740, 238.6173
930.2562, 243.0144
930.7383, 247.9836
931.2204, 252.5265
931.7025, 255.9899
932.1846, 258.1764
932.6667, 257.9197
933.1489, 256.0009
933.6310, 255.8171
934.1131, 257.9349
934.5952, 259.1337
935.0773, 256.8129
935.5594, 252.8639
936.0416, 252.7263
936.5237, 256.4580
937.0058, 254.7858
937.4879, 246.1914
937.9700, 238.8262
938.4521, 236.2754
938.9343, 235.3923
939.4164, 232.6691
939.8985, 228.1671
940.3806, 222.3855
940.8627, 213.7318
941.3448, 207.0690
941.8270, 204.5781
942.3091, 202.1547
942.7912, 197.8448
943.2733, 192.2234
943.7554, 186.1272
944.2375, 179.6112
944.7197, 172.6803
945.2018, 165.4441
945.6839, 157.6798
946.1660, 148.8351
946.6481, 139.8729
947.1302, 131.1682
947.6124, 123.1039
948.0945, 116.7225
948.5766, 112.7095
949.0587, 108.4032
949.5408, 101.7460
950.0229, 94.24023
950.5051, 86.89819
950.9872, 79.93787
951.4693, 73.76477
951.9514, 68.24609
952.4335, 62.67627
952.9156, 56.50525
953.3978, 50.16565
953.8799, 43.99097
954.3620, 38.22485
954.8441, 33.87842
955.3262, 30.74048
955.8083, 26.58960
956.2905, 20.54419
956.7726, 14.63220
957.2547, 11.25183
957.7368, 9.796082
958.2189, 7.335815
958.7010, 3.795654
959.1832, 0.5563350
959.6653, 2.209412
960.1474, 4.857544
960.6295, 7.732056
961.1116, 10.45679
961.5938, 12.29333
962.0759, 13.15729
962.5580, 14.21149
963.0401, 16.10590
963.5222, 16.81152
964.0043, 15.83533
964.4865, 13.59161
964.9686, 8.629395
965.4507, 2.786499
965.9328, 2.075134
966.4149, 8.919556
966.8970, 14.30402
967.3792, 17.49280
967.8613, 19.29852
968.3434, 19.49475
968.8255, 18.86761
969.3076, 17.99207
969.7897, 16.98785
970.2719, 15.98743
970.7540, 14.94452
971.2361, 14.10529
971.7182, 13.51996
972.2003, 13.23737
972.6824, 13.89771
973.1646, 14.59692
973.6467, 13.69513
974.1288, 11.07684
974.6109, 8.512390
975.0930, 7.215637
975.5751, 6.075500
976.0573, 3.499512
976.5394, 0.7509770
977.0215, 0.1784670
977.5036, 1.214050
977.9857, 1.613525
978.4678, 0.5571290
978.9500, 1.482910
979.4321, 4.522705
979.9142, 7.772583
980.3963, 9.299744
980.8784, 9.655457
981.3605, 11.02087
981.8427, 13.59515
982.3248, 15.76227
982.8069, 16.61169
983.2890, 17.34436
983.7711, 19.92725
984.2532, 24.02130
984.7354, 27.14581
985.2175, 29.28674
985.6996, 30.74799
986.1817, 31.39215
986.6638, 32.80914
987.1459, 36.32343
987.6281, 40.89575
988.1102, 44.13800
988.5923, 45.86328
989.0744, 47.66547
989.5565, 49.58362
990.0386, 51.33630
990.5208, 52.25720
991.0029, 54.07654
991.4850, 58.85870
991.9671, 65.62939
992.4492, 70.60944
992.9313, 73.01398
993.4135, 75.48077
993.8956, 78.25421
994.3777, 80.75574
994.8598, 81.58264
995.3419, 82.99835
995.8240, 87.93219
996.3062, 95.62744
996.7883, 101.5780
997.2704, 103.7820
997.7525, 107.1746
998.2346, 113.0845
998.7167, 119.5920
999.1989, 126.3232
999.6810, 132.7761
1000.163, 138.4355
1000.645, 143.2781
1001.127, 147.3302
1001.609, 149.1355
1002.092, 152.5557
1002.574, 160.3701
1003.056, 169.2063
1003.538, 176.4592
1004.020, 182.7838
1004.502, 189.9368
1004.984, 198.0422
1005.466, 204.9737
1005.948, 208.4302
1006.431, 211.9835
1006.913, 218.3248
1007.395, 226.1564
1007.877, 234.4795
1008.359, 242.8389
1008.841, 250.4500
1009.323, 257.1558
1009.805, 263.9170
1010.288, 271.7886
1010.770, 279.6571
1011.252, 285.5527
1011.734, 290.7078
1012.216, 297.5554
1012.698, 305.9330
1013.180, 314.3267
1013.662, 322.0671
1014.144, 329.2328
1014.627, 335.5555
1015.109, 341.6943
1015.591, 349.3408
1016.073, 357.8484
1016.555, 364.8562
1017.037, 370.1830
1017.519, 375.4994
1018.001, 381.6208
1018.484, 388.5353
1018.966, 396.9358
1019.448, 405.8312
1019.930, 410.8726
1020.412, 412.5129
1020.894, 415.3548
1021.376, 420.2446
1021.858, 425.8031
1022.340, 431.3616
1022.823, 436.7036
1023.305, 441.2402
1023.787, 444.7598
1024.269, 447.8709
1024.751, 450.7205
1025.233, 451.7274
1025.715, 450.4246
1026.197, 449.0683
1026.680, 449.0720
1027.162, 449.9559
1027.644, 450.8870
1028.126, 451.8804
1028.608, 452.3154
1029.090, 451.9600
1029.572, 452.1730
1030.054, 453.5344
1030.536, 454.6213
1031.019, 454.8043
1031.501, 453.7367
1031.983, 450.1069
1032.465, 443.2019
1032.947, 439.5558
1033.429, 440.7659
1033.911, 441.0941
1034.393, 439.2834
1034.875, 436.1448
1035.358, 431.9247
1035.840, 426.9952
1036.322, 422.0647
1036.804, 416.7343
1037.286, 413.7211
1037.768, 414.3005
1038.250, 414.8699
1038.732, 415.9248
1039.215, 415.1155
1039.697, 409.5376
1040.179, 401.2012
1040.661, 395.2897
1041.143, 392.4514
1041.625, 389.5999
1042.107, 385.8202
1042.589, 383.2335
1043.072, 383.3904
1043.554, 383.7999
1044.036, 382.5425
1044.518, 380.2817
1045.000, 378.8431
1045.482, 378.8483
1045.964, 377.4604
1046.446, 373.0611
1046.928, 369.1608
1047.411, 366.6714
1047.893, 364.9783
1048.375, 363.9546
1048.857, 363.2842
1049.339, 362.1661
1049.821, 360.2910
1050.303, 359.1565
1050.785, 359.2189
1051.267, 359.7267
1051.750, 361.2199
1052.232, 362.3522
1052.714, 361.8351
1053.196, 360.1823
1053.678, 358.5362
1054.160, 357.0056
1054.642, 356.0034
1055.124, 355.4089
1055.607, 355.5994
1056.089, 358.3625
1056.571, 360.4736
1057.053, 357.8955
1057.535, 353.0632
1058.017, 351.8325
1058.499, 355.6637
1058.981, 358.1585
1059.464, 356.6878
1059.946, 354.4916
1060.428, 352.9023
1060.910, 351.0406
1061.392, 347.4921
1061.874, 343.3665
1062.356, 341.1505
1062.838, 341.3837
1063.320, 340.5094
1063.802, 335.9790
1064.285, 331.8344
1064.767, 330.9879
1065.249, 330.3071
1065.731, 326.7133
1066.213, 321.3325
1066.695, 316.6069
1067.177, 313.0397
1067.659, 309.9941
1068.142, 308.3300
1068.624, 305.7005
1069.106, 300.5480
1069.588, 294.4344
1070.070, 287.9641
1070.552, 281.8290
1071.034, 277.4503
1071.516, 274.8866
1071.999, 270.7516
1072.481, 262.0466
1072.963, 253.3477
1073.445, 247.0270
1073.927, 241.4279
1074.409, 235.1412
1074.891, 228.6367
1075.373, 222.6547
1075.855, 217.2867
1076.338, 212.0245
1076.820, 207.3712
1077.302, 201.5985
1077.784, 193.1063
1078.266, 183.9377
1078.748, 175.1208
1079.230, 167.0924
1079.712, 160.7662
1080.194, 155.9318
1080.677, 150.8425
1081.159, 144.8824
1081.641, 138.4913
1082.123, 131.3948
1082.605, 124.5363
1083.087, 118.4728
1083.569, 113.1776
1084.052, 109.1562
1084.534, 105.8975
1085.016, 101.0324
1085.498, 92.88824
1085.980, 85.64581
1086.462, 81.91766
1086.944, 78.78192
1087.426, 74.28680
1087.908, 69.32922
1088.391, 64.97888
1088.873, 61.29974
1089.355, 58.19031
1089.837, 55.87097
1090.319, 52.98639
1090.801, 48.45807
1091.283, 43.86145
1091.765, 39.54480
1092.247, 36.01178
1092.730, 34.12183
1093.212, 33.34210
1093.694, 32.21930
1094.176, 30.40503
1094.658, 28.38031
1095.140, 25.53729
1095.622, 23.53406
1096.104, 24.05542
1096.587, 24.85767
1097.069, 23.92828
1097.551, 21.78009
1098.033, 19.58313
1098.515, 17.52051
1098.997, 16.10089
1099.479, 16.12500
1099.961, 15.88110
1100.443, 14.32532
1100.926, 12.80603
1101.408, 12.76947
1101.890, 13.16516
1102.372, 11.94025
1102.854, 9.013123
1103.336, 7.129211
1103.818, 7.678345
1104.300, 8.189514
1104.782, 8.570801
1105.265, 8.289978
1105.747, 6.208801
1106.229, 3.857788
1106.711, 3.279785
1107.193, 4.335266
1107.675, 5.137512
1108.157, 5.244568
1108.639, 5.472778
1109.122, 5.805542
1109.604, 6.430847
1110.086, 8.378052
1110.568, 9.864441
1111.050, 8.753357
1111.532, 5.704895
1112.014, 3.339355
1112.496, 1.928467
1112.979, 0.7772220
1113.461, 3.9551001E-02
1113.943, 0.6637570
1114.425, 1.738037
1114.907, 2.478943
1115.389, 2.052673
1115.871, 1.054321
1116.353, 0.9253540
1116.835, 1.935425
1117.318, 2.120056
1117.800, 0.3063350
1118.282, 0.1057130
1118.764, 2.662964
1119.246, 4.989624
1119.728, 4.496765
1120.210, 2.725037
1120.692, 1.971191
1121.174, 2.222717
1121.657, 2.731812
1122.139, 3.805786
1122.621, 4.252380
1123.103, 3.690979
1123.585, 3.169189
1124.067, 3.202637
1124.549, 3.346802
1125.031, 3.090393
1125.514, 2.522400
1125.996, 2.105957
1126.478, 1.944824
1126.960, 1.296021
1127.442, 8.0383003E-02
1127.924, 0.8470460
1128.406, 0.5542600
1128.888, 0.4302370
1129.370, 2.121399
1129.853, 3.592773
1130.335, 2.056458
1130.817, 2.476318
1131.299, 3.075256
1131.781, 0.5007320
1132.263, 2.582886
1132.745, 1.969482
1133.227, 0.7831420
1133.709, 0.1976930
1134.192, 7.2021000E-02
1134.674, 0.3786010
1135.156, 0.8565060
1135.638, 0.1388550
1136.120, 1.519592
1136.602, 2.091064
1137.084, 1.437012
1137.566, 0.4731450
1138.049, 0.4389040
1138.531, 0.9477540
1139.013, 0.6488650
1139.495, 0.1207890
1139.977, 0.6643070
1140.459, 1.134583
1140.941, 2.302307
1141.423, 3.850647
1141.906, 4.229065
1142.388, 3.226257
1142.870, 2.302795
1143.352, 2.357727
1143.834, 2.985779
1144.316, 4.077393
1144.798, 5.150696
1145.280, 5.371094
1145.762, 5.057861
1146.245, 4.706116
1146.727, 4.508545
1147.209, 4.913147
1147.691, 6.084656
1148.173, 6.749695
1148.655, 5.205200
1149.137, 3.589905
1149.619, 4.041199
1150.101, 5.248535
1150.584, 5.522705
1151.066, 5.379883
1151.548, 6.408325
1152.030, 8.699402
1152.512, 10.25293
1152.994, 9.623047
1153.476, 9.237976
1153.958, 10.74847
1154.441, 12.38568
1154.923, 13.19452
1155.405, 13.26398
1155.887, 12.14215
1156.369, 10.46277
1156.851, 10.60419
1157.333, 13.86548
1157.815, 15.62256
1158.297, 13.26276
1158.780, 11.45056
1159.262, 11.88531
1159.744, 13.17627
1160.226, 14.62018
1160.708, 16.06488
1161.190, 17.41168
1161.672, 18.68665
1162.154, 19.46637
1162.636, 19.75989
1163.119, 19.49878
1163.601, 17.98901
1164.083, 17.09058
1164.565, 17.68915
1165.047, 19.09845
1165.529, 20.83606
1166.011, 22.65338
1166.493, 23.43921
1166.976, 22.89972
1167.458, 22.87274
1167.940, 23.52289
1168.422, 23.89435
1168.904, 23.70862
1169.386, 23.40540
1169.868, 23.30469
1170.350, 23.20001
1170.833, 22.71118
1171.315, 21.90118
1171.797, 20.91016
1172.279, 19.80249
1172.761, 19.88672
1173.243, 21.26660
1173.725, 22.46613
1174.207, 22.83508
1174.689, 22.28387
1175.172, 20.58795
1175.654, 18.97760
1176.136, 20.07538
1176.618, 22.24585
1177.100, 21.52258
1177.582, 18.97064
1178.064, 17.61774
1178.546, 17.95007
1179.028, 19.19421
1179.511, 21.09778
1179.993, 22.33582
1180.475, 20.98877
1180.957, 19.17273
1181.439, 19.44470
1181.921, 20.33215
1182.403, 20.05164
1182.885, 18.78918
1183.368, 17.10828
1183.850, 15.22247
1184.332, 13.89569
1184.814, 13.72882
1185.296, 13.94611
1185.778, 14.31097
1186.260, 14.54071
1186.742, 14.11798
1187.224, 13.53278
1187.707, 13.56854
1188.189, 14.39319
1188.671, 15.86633
1189.153, 18.29205
1189.635, 19.56018
1190.117, 18.45142
1190.599, 17.81482
1191.081, 18.74109
1191.564, 19.25189
1192.046, 17.84631
1192.528, 16.07220
1193.010, 16.32239
1193.492, 18.12732
1193.974, 17.25140
1194.456, 12.47412
1194.938, 12.10883
1195.421, 17.55902
1195.903, 21.88654
1196.385, 22.65424
1196.867, 22.40228
1197.349, 23.31372
1197.831, 24.32574
1198.313, 22.75507
1198.795, 19.49707
1199.277, 20.07233
1199.760, 23.64990
1200.242, 25.67151
1200.724, 25.81372
1201.206, 25.95825
1201.688, 26.72156
1202.170, 27.72186
1202.652, 28.65607
1203.134, 29.76215
1203.616, 31.61005
1204.099, 33.58746
1204.581, 34.95770
1205.063, 35.71600
1205.545, 35.90454
1206.027, 35.59015
1206.509, 34.74426
1206.991, 33.26233
1207.473, 32.27148
1207.956, 32.94580
1208.438, 33.45917
1208.920, 32.80762
1209.402, 31.70929
1209.884, 30.24725
1210.366, 28.99127
1210.848, 28.87836
1211.330, 29.84802
1211.813, 30.62579
1212.295, 31.00555
1212.777, 31.31519
1213.259, 31.43378
1213.741, 31.71979
1214.223, 32.56329
1214.705, 33.09912
1215.187, 32.76855
1215.669, 31.75598
1216.151, 30.31750
1216.634, 28.46381
1217.116, 26.01483
1217.598, 22.77594
1218.080, 22.00781
1218.562, 24.17896
1219.044, 25.61688
1219.526, 25.05768
1220.008, 23.03271
1220.491, 19.71600
1220.973, 16.60284
1221.455, 16.89722
1221.937, 19.11383
1222.419, 19.63660
1222.901, 18.81482
1223.383, 17.29089
1223.865, 15.49438
1224.348, 14.49359
1224.830, 14.56573
1225.312, 14.28015
1225.794, 12.20654
1226.276, 10.32422
1226.758, 10.87842
1227.240, 11.53595
1227.722, 10.00525
1228.204, 7.391113
1228.687, 4.990356
1229.169, 2.990356
1229.651, 1.426636
1230.133, 2.164612
1230.615, 2.428223
1231.097, 1.115967
1231.579, 0.5925900
1232.061, 2.196533
1232.543, 3.672913
1233.026, 4.096863
1233.508, 3.801880
1233.990, 2.877136
1234.472, 1.575745
1234.954, 1.212524
1235.436, 2.014893
1235.918, 1.863892
1236.400, 0.6769410
1236.883, 0.5012210
1237.365, 1.522766
1237.847, 1.230835
1238.329, 1.066650
1238.811, 3.419922
1239.293, 3.459778
1239.775, 2.204346
1240.257, 1.517090
1240.740, 1.322266
1241.222, 1.808044
1241.704, 2.496826
1242.186, 1.362732
1242.668, 1.394653
1243.150, 3.316772
1243.632, 3.270142
1244.114, 2.173950
1244.596, 0.4427490
1245.078, 2.448364
1245.561, 1.976196
1246.043, 0.8421630
1246.525, 0.2950440
1247.007, 0.2233890
1247.489, 0.3737790
1247.971, 0.7338870
1248.453, 1.243530
1248.935, 2.266968
1249.418, 2.362427
1249.900, 0.6716310
1250.382, 0.1689450
1250.864, 0.7908940
1251.346, 1.817139
1251.828, 2.022095
1252.310, 1.361084
1252.792, 0.5664060
1253.275, 2.874512
1253.757, 1.544312
1254.239, 2.861938
1254.721, 3.590454
1255.203, 0.9281010
1255.685, 0.1824950
1256.167, 1.217773
1256.649, 2.750000
1257.131, 3.189087
1257.614, 2.985352
1258.096, 1.371704
1258.578, 0.4996340
1259.060, 4.208862
1259.542, 9.203125
1260.024, 11.79932
1260.506, 12.84546
1260.988, 14.37244
1261.470, 16.45642
1261.953, 17.77612
1262.435, 17.55615
1262.917, 16.63220
1263.399, 13.95166
1263.881, 12.25928
1264.363, 12.32092
1264.845, 14.10767
1265.327, 17.60559
1265.810, 21.29810
1266.292, 23.81396
1266.774, 24.42114
1267.256, 24.48486
1267.738, 24.23462
1268.220, 23.51208
1268.702, 22.04468
1269.184, 20.25769
1269.667, 18.82751
1270.149, 17.31396
1270.631, 15.19446
1271.113, 15.78162
1271.595, 18.19141
1272.077, 21.24426
1272.559, 20.90027
1273.041, 18.86182
1273.523, 20.95410
1274.005, 24.35193
1274.488, 23.86499
1274.970, 19.98291
1275.452, 15.80640
1275.934, 12.11707
1276.416, 9.469604
1276.898, 8.228394
1277.380, 7.547363
1277.862, 6.428101
1278.345, 6.574829
1278.827, 10.78308
1279.309, 14.83118
1279.791, 15.44421
1280.273, 13.49866
1280.755, 11.10742
1281.237, 7.970459
1281.719, 5.656616
1282.202, 4.295044
1282.684, 4.668091
1283.166, 7.270996
1283.648, 8.452515
1284.130, 5.798584
1284.612, 2.673584
1285.094, 2.562500
1285.576, 4.057495
1286.058, 2.419556
1286.541, 6.3231997E-02
1287.023, 0.0000000E+00
##END=



