##NAMES=Ferrowodginite
##RRUFFID=R120166
##IDEAL CHEMISTRY=Fe^2+^(Sn^4+^,Ti,Ta,Fe^3+^)(Ta,Nb)_2_O_8_
##LOCALITY=Nyanga #2 pegmatite, Ankloe, Uganda
##OWNER=RRUFF
##SOURCE=Rock Currier
##DESCRIPTION=
##STATUS=The identification of this mineral has been confirmed only by single crystal X-ray diffraction.
##URL=rruff.info/R120166
186.6586, 0.0000000E+00
187.1407, 0.6981200
187.6228, 1.467957
188.1050, 1.913605
188.5871, 2.915710
189.0692, 2.633667
189.5513, 1.753448
190.0334, 0.4501950
190.5155, 0.1245730
190.9977, 0.3620610
191.4798, 1.174011
191.9619, 1.802948
192.4440, 2.361786
192.9261, 2.447418
193.4082, 1.743256
193.8904, 0.5387270
194.3725, 0.2940060
194.8546, 0.3124690
195.3367, 0.1875000
195.8188, 0.7051700
196.3009, 1.331055
196.7831, 1.666992
197.2652, 1.088593
197.7473, 4.1533999E-02
198.2294, 0.7529910
198.7115, 0.2178960
199.1936, 1.228699
199.6758, 2.084198
200.1579, 1.860016
200.6400, 1.664795
201.1221, 2.271881
201.6042, 3.395294
202.0863, 4.305206
202.5685, 4.290070
203.0506, 3.433228
203.5327, 3.218872
204.0148, 4.240265
204.4969, 5.340668
204.9790, 6.087677
205.4612, 6.548401
205.9433, 6.969666
206.4254, 7.590790
206.9075, 8.435608
207.3896, 8.986786
207.8717, 8.675415
208.3539, 8.577423
208.8360, 9.130219
209.3181, 10.21860
209.8002, 11.46814
210.2823, 12.56787
210.7644, 13.50735
211.2466, 14.35049
211.7287, 15.05576
212.2108, 15.71756
212.6929, 16.38367
213.1750, 17.04456
213.6571, 17.63113
214.1393, 18.02930
214.6214, 18.13443
215.1035, 18.87228
215.5856, 21.05966
216.0677, 23.01981
216.5498, 23.52576
217.0320, 22.83847
217.5141, 22.39716
217.9962, 23.62085
218.4783, 26.79254
218.9604, 29.11029
219.4425, 30.40823
219.9247, 31.11823
220.4068, 31.13489
220.8889, 30.61597
221.3710, 30.38400
221.8531, 31.26526
222.3352, 33.34616
222.8174, 34.85175
223.2995, 35.68021
223.7816, 36.02451
224.2637, 35.90656
224.7458, 35.35342
225.2279, 34.64081
225.7100, 33.95294
226.1922, 33.29016
226.6743, 32.61865
227.1564, 31.73642
227.6385, 30.97235
228.1206, 30.61859
228.6027, 30.69067
229.0849, 31.13550
229.5670, 32.20703
230.0491, 33.63583
230.5312, 34.66385
231.0133, 34.89948
231.4954, 34.82483
231.9776, 34.99878
232.4597, 35.46014
232.9418, 35.87790
233.4239, 36.12885
233.9060, 36.17896
234.3881, 35.90240
234.8703, 35.03058
235.3524, 34.01648
235.8345, 33.42902
236.3166, 33.27896
236.7987, 33.49390
237.2808, 34.71594
237.7630, 36.07266
238.2451, 36.47662
238.7272, 35.34488
239.2093, 33.47977
239.6914, 32.13541
240.1735, 31.42065
240.6557, 30.86441
241.1378, 30.37479
241.6199, 29.90948
242.1020, 29.36343
242.5841, 28.64175
243.0662, 28.02567
243.5484, 28.25583
244.0305, 30.00162
244.5126, 30.68835
244.9947, 28.62253
245.4768, 25.85123
245.9589, 24.19043
246.4410, 24.28271
246.9232, 25.23221
247.4053, 25.51859
247.8874, 24.95743
248.3695, 24.08405
248.8516, 22.81848
249.3337, 21.48969
249.8159, 20.36908
250.2980, 19.53574
250.7801, 18.86737
251.2622, 18.15558
251.7443, 17.38800
252.2264, 16.59958
252.7086, 15.60410
253.1907, 14.73505
253.6728, 14.26935
254.1549, 14.25830
254.6370, 14.45731
255.1191, 14.53229
255.6013, 14.57895
256.0834, 14.24203
256.5655, 13.28577
257.0476, 12.22882
257.5297, 11.25900
258.0118, 10.48767
258.4940, 10.09555
258.9761, 10.42313
259.4582, 12.00107
259.9403, 12.94189
260.4224, 13.04315
260.9045, 12.81805
261.3867, 12.49750
261.8688, 12.15009
262.3509, 11.79959
262.8330, 11.47095
263.3151, 11.17355
263.7972, 10.86304
264.2794, 10.14828
264.7615, 9.744995
265.2436, 10.22714
265.7257, 11.48907
266.2078, 12.90381
266.6899, 13.83743
267.1721, 14.16724
267.6542, 14.81491
268.1363, 15.90109
268.6184, 17.13531
269.1005, 18.47290
269.5826, 19.85437
270.0648, 21.14145
270.5469, 22.18320
271.0290, 22.97693
271.5111, 24.03845
271.9932, 25.49570
272.4753, 27.09680
272.9575, 28.84412
273.4396, 30.66330
273.9217, 32.32529
274.4038, 33.60733
274.8859, 34.58951
275.3680, 35.97531
275.8501, 38.01151
276.3322, 40.06015
276.8144, 41.71375
277.2965, 43.16391
277.7786, 44.92599
278.2607, 47.35068
278.7428, 50.28983
279.2249, 52.78271
279.7071, 54.50043
280.1892, 56.27856
280.6713, 58.51773
281.1534, 60.98419
281.6355, 63.26114
282.1176, 65.17523
282.5998, 66.77118
283.0819, 68.04547
283.5640, 68.83105
284.0461, 69.61798
284.5282, 70.59390
285.0103, 71.58527
285.4925, 72.39349
285.9746, 72.98459
286.4567, 73.30847
286.9388, 73.11087
287.4209, 71.97974
287.9030, 71.48651
288.3852, 72.32513
288.8673, 73.71451
289.3494, 74.86987
289.8315, 75.67206
290.3136, 76.06488
290.7957, 75.97537
291.2779, 75.28540
291.7600, 74.41241
292.2421, 73.31604
292.7242, 72.18549
293.2063, 71.15759
293.6884, 70.24164
294.1706, 69.33005
294.6527, 68.19257
295.1348, 66.86557
295.6169, 66.24335
296.0990, 67.06000
296.5811, 68.07773
297.0633, 68.36813
297.5454, 67.91986
298.0275, 67.09238
298.5096, 65.86868
298.9917, 64.48529
299.4738, 64.09769
299.9560, 65.78323
300.4381, 67.46753
300.9202, 67.94122
301.4023, 67.35330
301.8844, 66.38217
302.3665, 65.19864
302.8487, 64.00140
303.3308, 63.35184
303.8129, 63.48489
304.2950, 63.70502
304.7771, 63.87070
305.2592, 63.89896
305.7414, 63.56760
306.2235, 62.78113
306.7056, 61.61475
307.1877, 60.14453
307.6698, 58.29929
308.1519, 56.51382
308.6341, 54.96716
309.1162, 53.56714
309.5983, 52.26761
310.0804, 51.12634
310.5625, 49.80704
311.0446, 47.66318
311.5268, 44.64661
312.0089, 42.05002
312.4910, 40.43005
312.9731, 39.22244
313.4552, 37.78302
313.9373, 36.02399
314.4195, 34.07834
314.9016, 32.02481
315.3837, 29.85605
315.8658, 27.63882
316.3479, 25.23703
316.8300, 22.88678
317.3121, 20.75415
317.7943, 18.84021
318.2764, 17.16910
318.7585, 15.82617
319.2406, 14.74878
319.7227, 13.54553
320.2048, 12.13632
320.6870, 10.68204
321.1691, 9.186066
321.6512, 7.701324
322.1333, 6.349030
322.6154, 5.136078
323.0975, 4.175934
323.5797, 3.871033
324.0618, 4.665070
324.5439, 5.053131
325.0260, 4.177643
325.5081, 2.581177
325.9902, 1.224243
326.4724, 0.3797610
326.9545, 4.4495001E-02
327.4366, 4.9072001E-02
327.9187, 0.4689940
328.4008, 0.7354430
328.8829, 0.6038210
329.3651, 0.1464540
329.8472, 0.7539670
330.3293, 2.119873
330.8114, 3.294312
331.2935, 3.495911
331.7756, 2.629730
332.2578, 2.221313
332.7399, 2.863770
333.2220, 3.567291
333.7041, 3.646545
334.1862, 3.091064
334.6683, 2.138824
335.1505, 0.8054500
335.6326, 0.7816770
336.1147, 1.730713
336.5968, 1.961304
337.0789, 1.744537
337.5610, 0.8229980
338.0432, 0.4712520
338.5253, 1.283936
339.0074, 1.146240
339.4895, 0.4602660
339.9716, 0.3403630
340.4537, 1.166321
340.9359, 1.774170
341.4180, 1.840179
341.9001, 1.605835
342.3822, 1.271973
342.8643, 0.8954470
343.3464, 0.7117920
343.8286, 1.140778
344.3107, 2.629272
344.7928, 3.354218
345.2749, 2.862671
345.7570, 1.906342
346.2391, 0.7474980
346.7213, 0.4376220
347.2034, 1.066833
347.6855, 0.4427490
348.1676, 1.538361
348.6497, 2.348083
349.1318, 1.150085
349.6140, 0.1644900
350.0961, 0.7696530
350.5782, 0.8524170
351.0603, 0.9805600
351.5424, 1.499298
352.0245, 2.279541
352.5067, 2.762756
352.9888, 2.291351
353.4709, 2.335693
353.9530, 3.381775
354.4351, 4.912018
354.9172, 6.404968
355.3994, 7.664948
355.8815, 8.688995
356.3636, 9.484222
356.8457, 10.05060
357.3278, 10.32675
357.8099, 9.802032
358.2920, 9.388947
358.7741, 9.890625
359.2563, 11.25027
359.7384, 12.70328
360.2205, 13.49628
360.7026, 13.55298
361.1847, 13.67569
361.6668, 13.99707
362.1490, 14.24390
362.6311, 14.10861
363.1132, 13.84854
363.5953, 13.98636
364.0774, 14.86990
364.5595, 16.29865
365.0417, 17.40897
365.5238, 17.82779
366.0059, 18.43173
366.4880, 19.34033
366.9701, 20.45782
367.4522, 21.84314
367.9344, 23.46637
368.4165, 24.95511
368.8986, 25.55624
369.3807, 24.61411
369.8628, 24.60110
370.3449, 26.46765
370.8271, 28.49362
371.3092, 29.82010
371.7913, 30.43149
372.2734, 30.79303
372.7555, 31.22171
373.2376, 31.72430
373.7198, 32.54837
374.2019, 33.90179
374.6840, 35.35535
375.1661, 36.83261
375.6482, 38.29831
376.1303, 39.71082
376.6125, 41.07397
377.0946, 42.33658
377.5767, 43.35104
378.0588, 44.01062
378.5409, 44.71912
379.0230, 45.37415
379.5052, 46.24478
379.9873, 47.79736
380.4694, 50.10565
380.9515, 52.21085
381.4336, 52.83414
381.9157, 52.02084
382.3979, 51.88770
382.8800, 53.02405
383.3621, 54.53967
383.8442, 55.92471
384.3263, 57.13855
384.8084, 58.17603
385.2906, 58.94919
385.7727, 59.60086
386.2548, 60.47192
386.7369, 61.68381
387.2190, 62.56134
387.7011, 62.17871
388.1833, 61.30551
388.6654, 61.11472
389.1475, 62.02322
389.6296, 63.53531
390.1117, 65.52841
390.5938, 67.80646
391.0760, 69.16806
391.5581, 68.90430
392.0402, 68.07028
392.5223, 68.17606
393.0044, 69.30734
393.4865, 70.41269
393.9687, 70.96591
394.4508, 71.16211
394.9329, 71.20651
395.4150, 71.09238
395.8971, 71.10196
396.3792, 71.69153
396.8614, 72.84143
397.3435, 73.62753
397.8256, 73.76517
398.3077, 73.61819
398.7898, 73.42715
399.2719, 73.22412
399.7540, 72.95786
400.2361, 72.55527
400.7183, 72.14337
401.2004, 72.13113
401.6825, 72.89514
402.1646, 73.16736
402.6467, 72.44238
403.1288, 71.40070
403.6110, 70.77795
404.0931, 70.74448
404.5752, 70.98526
405.0573, 71.17023
405.5394, 71.38736
406.0215, 70.85599
406.5037, 68.96548
406.9858, 67.22250
407.4679, 66.37952
407.9500, 66.17886
408.4321, 66.01819
408.9142, 65.52560
409.3964, 64.76300
409.8785, 64.00446
410.3606, 63.28659
410.8427, 62.51254
411.3248, 61.57199
411.8069, 60.63226
412.2891, 59.87302
412.7712, 59.32251
413.2533, 58.84708
413.7354, 58.33102
414.2175, 57.86487
414.6996, 56.97195
415.1818, 55.05432
415.6639, 53.26489
416.1460, 52.16605
416.6281, 51.56467
417.1102, 50.94366
417.5923, 49.93750
418.0745, 48.69443
418.5566, 47.74374
419.0387, 47.28223
419.5208, 46.68848
420.0029, 45.91159
420.4850, 44.86078
420.9672, 43.26990
421.4493, 41.05579
421.9314, 38.92807
422.4135, 37.72397
422.8956, 37.39911
423.3777, 36.96927
423.8599, 36.25772
424.3420, 35.45676
424.8241, 34.87595
425.3062, 34.38220
425.7883, 33.46060
426.2704, 31.37564
426.7526, 28.97333
427.2347, 27.70148
427.7168, 27.62961
428.1989, 27.42969
428.6810, 26.24954
429.1631, 24.57022
429.6453, 23.48831
430.1274, 23.19202
430.6095, 23.06912
431.0916, 23.03799
431.5737, 22.93466
432.0558, 22.34589
432.5380, 21.12915
433.0201, 19.70764
433.5022, 18.51584
433.9843, 17.56909
434.4664, 16.88330
434.9485, 16.49744
435.4307, 16.33600
435.9128, 16.57028
436.3949, 17.02853
436.8770, 17.19250
437.3591, 16.74933
437.8412, 15.81198
438.3234, 14.81506
438.8055, 13.45355
439.2876, 12.43063
439.7697, 11.88327
440.2518, 11.65121
440.7339, 11.67300
441.2160, 11.89581
441.6982, 12.17596
442.1803, 12.36276
442.6624, 12.46286
443.1445, 12.43338
443.6266, 12.42160
444.1087, 12.12363
444.5909, 11.06555
445.0730, 9.732513
445.5551, 8.949646
446.0372, 9.192780
446.5193, 9.983215
447.0014, 10.24429
447.4836, 9.795013
447.9657, 9.351654
448.4478, 9.038391
448.9299, 8.774139
449.4120, 8.476166
449.8941, 8.156311
450.3763, 7.939240
450.8584, 7.994476
451.3405, 8.244720
451.8226, 8.396729
452.3047, 8.490723
452.7868, 8.366913
453.2690, 7.460388
453.7511, 6.386353
454.2332, 6.159576
454.7153, 7.373138
455.1974, 8.730408
455.6795, 9.107300
456.1617, 8.691498
456.6438, 8.282440
457.1259, 8.075989
457.6080, 8.021698
458.0901, 8.126434
458.5722, 8.394226
459.0544, 8.518829
459.5365, 8.166290
460.0186, 7.835938
460.5007, 8.200775
460.9828, 9.124176
461.4649, 9.669891
461.9471, 9.169708
462.4292, 7.936707
462.9113, 7.272766
463.3934, 7.576721
463.8755, 7.877563
464.3576, 8.299347
464.8398, 8.622803
465.3219, 8.262543
465.8040, 7.175201
466.2861, 6.335571
466.7682, 6.989410
467.2503, 9.409546
467.7325, 10.84058
468.2146, 10.27658
468.6967, 9.787567
469.1788, 9.819305
469.6609, 10.34454
470.1430, 11.34134
470.6252, 12.80981
471.1073, 14.25589
471.5894, 14.81638
472.0715, 14.40741
472.5536, 13.65219
473.0357, 12.13519
473.5179, 10.76660
474.0000, 10.08188
474.4821, 9.985413
474.9642, 10.00778
475.4463, 9.878662
475.9284, 9.673096
476.4106, 9.507507
476.8927, 9.362793
477.3748, 9.474945
477.8569, 10.10107
478.3390, 10.98654
478.8211, 11.63736
479.3033, 11.87952
479.7854, 12.34561
480.2675, 13.80777
480.7496, 15.64136
481.2317, 16.51956
481.7138, 16.16522
482.1959, 15.74255
482.6780, 16.47687
483.1602, 18.30435
483.6423, 18.90659
484.1244, 17.54858
484.6065, 15.82425
485.0886, 13.92810
485.5707, 12.21597
486.0529, 11.34009
486.5350, 11.53958
487.0171, 12.36493
487.4992, 13.12759
487.9813, 13.98676
488.4634, 14.18872
488.9456, 13.19226
489.4277, 12.14752
489.9098, 11.54025
490.3919, 11.34552
490.8740, 11.44119
491.3561, 11.81570
491.8383, 12.25742
492.3204, 12.10806
492.8025, 11.09204
493.2846, 10.25897
493.7667, 10.10437
494.2488, 10.01169
494.7310, 9.473267
495.2131, 8.515656
495.6952, 7.678406
496.1773, 7.360016
496.6594, 7.448029
497.1415, 7.760376
497.6237, 8.400787
498.1058, 8.736359
498.5879, 8.228943
499.0700, 7.249481
499.5521, 6.459259
500.0342, 5.745789
500.5164, 5.570465
500.9985, 6.766541
501.4806, 8.493866
501.9627, 9.156097
502.4448, 8.417938
502.9269, 7.236420
503.4091, 6.486969
503.8912, 6.183441
504.3733, 5.809967
504.8554, 5.095337
505.3375, 4.619995
505.8196, 4.779572
506.3018, 5.254181
506.7839, 5.530731
507.2660, 5.431549
507.7481, 5.216431
508.2302, 5.322906
508.7123, 5.921326
509.1945, 6.222046
509.6766, 5.927032
510.1587, 5.629822
510.6408, 5.594360
511.1229, 5.715698
511.6050, 5.767212
512.0872, 5.631287
512.5693, 5.386536
513.0514, 5.225708
513.5335, 5.192474
514.0156, 4.880432
514.4977, 3.988007
514.9799, 2.993591
515.4620, 2.118805
515.9441, 1.425049
516.4262, 1.270813
516.9083, 2.411957
517.3904, 3.825073
517.8726, 4.046783
518.3547, 3.142944
518.8368, 2.254028
519.3189, 1.867126
519.8010, 1.873901
520.2831, 2.206299
520.7653, 3.282471
521.2474, 3.447632
521.7295, 1.449951
522.2116, 0.8912660
522.6937, 1.971802
523.1758, 1.762177
523.6580, 1.058838
524.1401, 0.3782960
524.6222, 0.2482300
525.1043, 0.6692200
525.5864, 0.9120790
526.0685, 0.8753050
526.5507, 0.2083440
527.0328, 0.4880680
527.5149, 0.6133120
527.9970, 0.1781010
528.4791, 0.2521060
528.9612, 0.2174990
529.4434, 0.2456360
529.9255, 1.008484
530.4076, 2.292053
530.8897, 3.352448
531.3718, 3.830780
531.8539, 3.933655
532.3361, 3.784760
532.8182, 3.364532
533.3003, 2.944275
533.7824, 2.662415
534.2645, 2.511597
534.7466, 2.566040
535.2288, 2.862183
535.7109, 2.974945
536.1930, 2.469330
536.6751, 1.492493
537.1572, 0.9803770
537.6393, 1.316772
538.1215, 1.602844
538.6036, 1.535156
539.0857, 1.301727
539.5678, 1.177185
540.0499, 1.199341
540.5320, 1.132813
541.0142, 0.6882930
541.4963, 0.1532290
541.9784, 0.6919250
542.4604, 0.7907710
542.9426, 0.7181090
543.4247, 0.4223630
543.9068, 3.1799000E-02
544.3889, 0.4368900
544.8710, 0.9519040
545.3531, 1.158173
545.8353, 0.5042420
546.3174, 0.9292600
546.7995, 2.172638
547.2816, 3.192474
547.7637, 3.981110
548.2458, 4.366058
548.7280, 4.548187
549.2101, 4.874390
549.6922, 5.516663
550.1743, 6.060822
550.6564, 6.114014
551.1385, 5.908478
551.6207, 5.948395
552.1028, 6.343201
552.5849, 6.847382
553.0670, 7.233429
553.5491, 7.503387
554.0313, 7.846680
554.5134, 8.206390
554.9955, 8.697540
555.4776, 9.601532
555.9597, 10.54694
556.4418, 10.91269
556.9240, 10.61865
557.4061, 10.35437
557.8882, 11.03128
558.3703, 12.69659
558.8524, 13.83728
559.3345, 14.48016
559.8167, 14.47797
560.2988, 13.13654
560.7809, 11.49136
561.2630, 10.82895
561.7451, 11.51266
562.2272, 12.75360
562.7094, 14.24557
563.1915, 15.76340
563.6736, 16.37738
564.1557, 15.80920
564.6378, 15.24680
565.1199, 15.68066
565.6021, 16.82343
566.0842, 17.34277
566.5663, 16.69528
567.0484, 16.20990
567.5305, 16.50589
568.0126, 17.13812
568.4948, 17.52124
568.9769, 17.57202
569.4590, 17.64462
569.9411, 18.10315
570.4232, 18.91360
570.9053, 19.35583
571.3875, 19.02191
571.8696, 18.86594
572.3517, 19.22873
572.8338, 19.69958
573.3159, 19.84512
573.7980, 19.62982
574.2802, 19.41815
574.7623, 19.56018
575.2444, 19.98145
575.7265, 20.38181
576.2086, 20.76907
576.6907, 21.07062
577.1729, 21.34763
577.6550, 21.45432
578.1371, 21.04105
578.6192, 19.88556
579.1013, 19.21890
579.5834, 19.80759
580.0656, 20.86548
580.5477, 21.77026
581.0298, 22.45944
581.5119, 22.61169
581.9940, 21.87292
582.4761, 20.66489
582.9583, 20.45825
583.4404, 22.06927
583.9225, 23.46942
584.4046, 24.81073
584.8867, 25.74072
585.3688, 25.97607
585.8510, 25.66238
586.3331, 25.13992
586.8152, 24.53561
587.2973, 23.91779
587.7794, 23.51791
588.2615, 23.33661
588.7437, 23.14047
589.2258, 23.05634
589.7079, 22.82700
590.1900, 21.99396
590.6721, 20.72131
591.1542, 19.99118
591.6364, 20.70557
592.1185, 21.54922
592.6006, 21.35117
593.0827, 20.32965
593.5648, 19.13470
594.0469, 18.01138
594.5291, 17.14462
595.0112, 16.74133
595.4933, 16.84314
595.9754, 16.95779
596.4575, 17.26105
596.9396, 17.44208
597.4218, 17.33261
597.9039, 17.03558
598.3860, 16.61914
598.8681, 16.14664
599.3502, 15.94040
599.8323, 16.50208
600.3145, 17.77155
600.7966, 18.66183
601.2787, 19.11441
601.7608, 19.15622
602.2429, 18.31265
602.7250, 17.19977
603.2072, 16.85162
603.6893, 17.62500
604.1714, 18.69238
604.6535, 19.86853
605.1356, 20.88138
605.6177, 21.19995
606.0999, 20.82706
606.5820, 20.40128
607.0641, 20.39133
607.5462, 20.68961
608.0283, 20.80743
608.5104, 20.72687
608.9926, 20.47424
609.4747, 19.81473
609.9568, 19.18539
610.4389, 18.78662
610.9210, 18.69385
611.4031, 19.04596
611.8853, 20.06839
612.3674, 21.36218
612.8495, 21.99622
613.3316, 21.89963
613.8137, 22.06339
614.2958, 22.89587
614.7780, 23.84848
615.2601, 24.33862
615.7422, 24.44370
616.2243, 24.59607
616.7064, 25.09195
617.1885, 25.45319
617.6707, 25.09213
618.1528, 24.42331
618.6349, 24.42050
619.1170, 25.34729
619.5991, 26.41455
620.0812, 26.67349
620.5634, 26.06680
621.0455, 25.51654
621.5276, 24.66245
622.0097, 24.33817
622.4918, 25.04553
622.9739, 26.17032
623.4561, 27.16251
623.9382, 27.88733
624.4203, 28.38501
624.9023, 28.61536
625.3845, 28.65057
625.8666, 28.66205
626.3487, 28.65079
626.8308, 28.65167
627.3129, 28.66785
627.7950, 28.71802
628.2772, 28.89026
628.7593, 29.26111
629.2414, 29.38986
629.7235, 28.79459
630.2056, 28.30835
630.6877, 28.69870
631.1699, 29.65610
631.6520, 30.38013
632.1341, 30.50058
632.6162, 30.30167
633.0983, 30.26111
633.5804, 30.42758
634.0626, 30.49503
634.5447, 30.18274
635.0268, 30.13470
635.5089, 30.80667
635.9910, 31.84247
636.4731, 32.78107
636.9553, 33.58234
637.4374, 33.94891
637.9195, 33.19415
638.4016, 32.01141
638.8837, 31.93802
639.3658, 33.03333
639.8480, 33.93469
640.3301, 33.77234
640.8122, 32.98245
641.2943, 32.78928
641.7764, 33.81210
642.2585, 34.36871
642.7407, 33.97366
643.2228, 33.50891
643.7049, 33.57144
644.1870, 34.07999
644.6691, 34.74020
645.1512, 35.46024
645.6334, 35.86111
646.1155, 35.03619
646.5976, 33.00815
647.0797, 31.77463
647.5618, 31.91888
648.0439, 32.37900
648.5261, 32.35864
649.0082, 31.97076
649.4903, 31.61212
649.9724, 31.15698
650.4545, 31.02350
650.9366, 31.79208
651.4188, 32.74194
651.9009, 32.81110
652.3830, 31.97055
652.8651, 31.12625
653.3472, 30.97684
653.8293, 31.35449
654.3115, 31.63614
654.7936, 31.95773
655.2757, 31.87985
655.7578, 30.92194
656.2399, 29.96811
656.7220, 29.36349
657.2042, 29.05475
657.6863, 28.97729
658.1684, 29.28314
658.6505, 29.55597
659.1326, 29.47928
659.6147, 29.07736
660.0969, 28.24158
660.5790, 26.93350
661.0611, 25.68481
661.5432, 24.94360
662.0253, 24.68430
662.5074, 24.63083
662.9896, 25.19876
663.4717, 25.42291
663.9538, 24.98264
664.4359, 24.35486
664.9180, 23.88577
665.4001, 23.59280
665.8823, 23.32925
666.3644, 22.98502
666.8465, 22.64975
667.3286, 22.61240
667.8107, 22.85336
668.2928, 22.55014
668.7750, 21.23871
669.2571, 20.03513
669.7392, 20.27206
670.2213, 21.73828
670.7034, 22.23862
671.1855, 20.85101
671.6677, 19.58307
672.1498, 19.23788
672.6319, 19.23257
673.1140, 18.93329
673.5961, 18.27274
674.0782, 17.54724
674.5604, 16.97882
675.0425, 16.51138
675.5246, 15.95230
676.0067, 15.27872
676.4888, 14.60406
676.9709, 13.76935
677.4531, 13.15460
677.9352, 13.26688
678.4173, 13.86862
678.8994, 14.09732
679.3815, 13.65329
679.8636, 12.92917
680.3458, 11.85092
680.8279, 10.76038
681.3100, 10.31122
681.7921, 10.54782
682.2742, 10.85931
682.7563, 10.76859
683.2385, 10.30893
683.7206, 9.627930
684.2027, 8.634552
684.6848, 7.615814
685.1669, 6.118073
685.6490, 5.046570
686.1312, 5.332520
686.6133, 6.509888
687.0954, 7.163757
687.5775, 6.610565
688.0596, 5.641144
688.5417, 4.837616
689.0239, 4.174683
689.5060, 3.608826
689.9881, 3.128326
690.4702, 2.692596
690.9523, 2.228790
691.4344, 1.809540
691.9166, 1.813171
692.3987, 2.813080
692.8808, 3.315033
693.3629, 2.811737
693.8450, 2.223267
694.3271, 2.320251
694.8093, 2.782593
695.2914, 2.619537
695.7735, 1.182526
696.2556, 0.3565060
696.7377, 0.3294370
697.2198, 0.7093810
697.7020, 0.6086730
698.1841, 1.025269
698.6662, 2.725616
699.1483, 3.507965
699.6304, 3.537659
700.1125, 3.421417
700.5947, 2.942291
701.0768, 2.646088
701.5589, 2.751678
702.0410, 2.838928
702.5231, 2.597382
703.0052, 2.138916
703.4874, 1.702026
703.9695, 1.373993
704.4516, 1.230499
704.9337, 1.491089
705.4158, 2.047791
705.8979, 2.331604
706.3801, 2.246490
706.8622, 2.200256
707.3442, 2.451874
707.8264, 2.891876
708.3085, 3.280640
708.7906, 3.784058
709.2727, 3.832520
709.7548, 2.987671
710.2369, 2.073486
710.7191, 1.478149
711.2012, 1.192688
711.6833, 1.118256
712.1654, 1.220459
712.6475, 1.556305
713.1296, 2.466492
713.6118, 3.738525
714.0939, 4.122498
714.5760, 3.471985
715.0581, 2.601837
715.5402, 1.812683
716.0223, 1.073608
716.5045, 0.3114010
716.9866, 0.5041200
717.4687, 1.171906
717.9508, 1.779846
718.4329, 2.122070
718.9150, 1.883270
719.3972, 1.401184
719.8793, 1.098053
720.3614, 1.106140
720.8435, 1.396759
721.3256, 2.041016
721.8077, 2.923065
722.2899, 3.615570
722.7720, 4.126160
723.2541, 4.353668
723.7362, 4.082245
724.2183, 3.788910
724.7004, 4.134674
725.1826, 5.105286
725.6647, 5.784821
726.1468, 6.040375
726.6289, 6.107361
727.1110, 6.001373
727.5931, 5.796173
728.0753, 5.374908
728.5574, 4.874084
729.0395, 4.896057
729.5216, 6.027588
730.0037, 7.700684
730.4858, 8.545380
730.9680, 8.527344
731.4501, 8.627045
731.9322, 9.074615
732.4143, 9.582642
732.8964, 10.04791
733.3785, 10.38019
733.8607, 10.17682
734.3428, 8.635437
734.8249, 7.800446
735.3070, 8.495758
735.7891, 9.720947
736.2712, 10.84021
736.7534, 11.74319
737.2355, 12.44257
737.7176, 12.94540
738.1997, 13.28308
738.6818, 13.50558
739.1639, 13.60995
739.6461, 13.52258
740.1282, 13.18744
740.6103, 12.89734
741.0924, 12.82489
741.5745, 12.89664
742.0566, 12.87207
742.5388, 12.51126
743.0209, 12.86591
743.5030, 15.11215
743.9851, 16.96127
744.4672, 16.94202
744.9493, 15.83066
745.4315, 14.75549
745.9136, 14.09155
746.3957, 13.80209
746.8778, 14.03186
747.3599, 14.58231
747.8420, 14.69818
748.3242, 14.35763
748.8063, 14.58298
749.2884, 15.88641
749.7705, 17.45853
750.2526, 18.40176
750.7347, 18.67999
751.2169, 18.69434
751.6990, 18.11774
752.1811, 17.72458
752.6632, 17.73456
753.1453, 17.96155
753.6274, 18.33133
754.1096, 18.70248
754.5917, 18.91431
755.0738, 18.83008
755.5559, 18.64075
756.0380, 18.62552
756.5201, 18.72412
757.0023, 18.73679
757.4844, 18.66190
757.9665, 18.61148
758.4486, 18.68469
758.9307, 18.84067
759.4128, 18.96481
759.8950, 19.11240
760.3771, 19.13754
760.8592, 18.79239
761.3413, 18.61307
761.8234, 18.97540
762.3055, 19.60989
762.7877, 20.03915
763.2698, 20.11304
763.7519, 20.21970
764.2340, 20.87308
764.7161, 21.63757
765.1982, 21.77133
765.6804, 21.31567
766.1625, 20.64566
766.6446, 19.87506
767.1267, 19.24762
767.6088, 19.15305
768.0909, 19.62326
768.5731, 19.78476
769.0552, 18.98938
769.5373, 18.90161
770.0194, 20.79019
770.5015, 22.75113
770.9836, 22.95901
771.4658, 21.70593
771.9479, 21.03958
772.4300, 22.38745
772.9121, 23.67398
773.3942, 23.31360
773.8763, 21.99924
774.3585, 20.46191
774.8406, 18.99033
775.3227, 18.32864
775.8048, 19.05264
776.2869, 20.50177
776.7690, 21.05692
777.2512, 20.56158
777.7333, 20.25424
778.2154, 20.33047
778.6975, 20.37976
779.1796, 20.02222
779.6617, 19.56934
780.1439, 19.63177
780.6260, 20.38397
781.1081, 20.83694
781.5902, 20.34543
782.0723, 19.88214
782.5544, 20.37762
783.0366, 21.21872
783.5187, 21.21545
784.0008, 20.14569
784.4829, 18.98166
784.9650, 18.63074
785.4471, 18.85938
785.9293, 18.92746
786.4114, 18.82861
786.8935, 19.14188
787.3756, 20.11136
787.8577, 21.24893
788.3398, 22.21793
788.8220, 22.98303
789.3040, 23.21399
789.7861, 22.14053
790.2682, 21.67029
790.7504, 22.64386
791.2325, 23.61682
791.7146, 23.61560
792.1967, 22.88663
792.6788, 22.00189
793.1609, 21.12234
793.6431, 20.53290
794.1252, 20.61148
794.6073, 21.09518
795.0894, 21.64899
795.5715, 22.18460
796.0536, 22.26578
796.5358, 21.67667
797.0179, 20.91476
797.5000, 20.68445
797.9821, 21.00720
798.4642, 21.22482
798.9464, 21.36554
799.4285, 21.34622
799.9106, 20.82437
800.3927, 20.39255
800.8748, 20.60776
801.3569, 21.35205
801.8391, 22.00659
802.3212, 22.46347
802.8033, 22.72650
803.2854, 22.61472
803.7675, 22.42972
804.2496, 22.53159
804.7318, 22.91742
805.2139, 23.40710
805.6960, 23.90997
806.1781, 24.42297
806.6602, 25.00687
807.1423, 25.63876
807.6245, 25.92429
808.1066, 25.76648
808.5887, 25.64401
809.0708, 25.67142
809.5529, 25.98077
810.0350, 26.88574
810.5172, 28.54599
810.9993, 29.72998
811.4814, 30.42191
811.9635, 30.66861
812.4456, 29.88739
812.9277, 29.09274
813.4099, 29.43500
813.8920, 30.75153
814.3741, 31.87732
814.8562, 32.13309
815.3383, 32.18994
815.8204, 32.98602
816.3026, 34.05020
816.7847, 34.03033
817.2668, 32.94650
817.7489, 32.40012
818.2310, 33.33896
818.7131, 35.13260
819.1953, 36.59503
819.6774, 37.67609
820.1595, 38.74850
820.6416, 39.93848
821.1237, 40.88086
821.6058, 41.39716
822.0880, 41.61752
822.5701, 41.48441
823.0522, 41.03210
823.5343, 41.17538
824.0164, 42.62000
824.4985, 44.06876
824.9807, 45.00772
825.4628, 45.62442
825.9449, 45.94214
826.4270, 46.13559
826.9091, 46.71271
827.3912, 48.02551
827.8734, 49.52026
828.3555, 50.36353
828.8376, 50.70621
829.3197, 51.14633
829.8018, 51.73712
830.2839, 52.50983
830.7661, 53.55664
831.2482, 54.55896
831.7303, 54.92694
832.2124, 54.51611
832.6945, 54.52945
833.1766, 55.09344
833.6588, 55.91934
834.1409, 57.30798
834.6230, 58.62503
835.1051, 59.14359
835.5872, 59.05392
836.0693, 59.41708
836.5515, 60.94366
837.0336, 62.36063
837.5157, 62.86093
837.9978, 62.96649
838.4799, 63.14172
838.9620, 63.48535
839.4442, 64.09967
839.9263, 65.06076
840.4084, 66.32059
840.8905, 67.99829
841.3726, 69.95001
841.8547, 71.17828
842.3369, 71.58362
842.8190, 72.02191
843.3011, 72.87335
843.7832, 73.91901
844.2653, 74.79248
844.7474, 75.46609
845.2296, 76.35342
845.7117, 77.66119
846.1938, 78.84180
846.6759, 79.64938
847.1580, 80.49319
847.6401, 81.70319
848.1223, 83.15494
848.6044, 84.51938
849.0865, 85.70618
849.5686, 86.96671
850.0507, 88.52121
850.5328, 90.06540
851.0150, 91.34259
851.4971, 92.39441
851.9792, 93.34573
852.4613, 94.22269
852.9434, 94.88745
853.4255, 95.07928
853.9077, 95.06445
854.3898, 95.83084
854.8719, 97.38663
855.3540, 98.70129
855.8361, 99.54764
856.3182, 100.0702
856.8004, 100.3003
857.2825, 100.4229
857.7646, 100.9818
858.2467, 102.5485
858.7288, 103.2076
859.2109, 102.1240
859.6931, 101.1721
860.1752, 100.9475
860.6573, 101.2411
861.1394, 102.0674
861.6215, 103.3791
862.1036, 104.0555
862.5858, 103.2033
863.0679, 101.9409
863.5500, 100.8824
864.0321, 100.0082
864.5142, 99.36728
864.9963, 98.87814
865.4785, 98.36990
865.9606, 97.77200
866.4427, 96.85208
866.9248, 94.99216
867.4069, 92.45016
867.8890, 90.71892
868.3712, 89.91544
868.8533, 88.88394
869.3354, 87.12518
869.8175, 84.94354
870.2996, 82.74570
870.7817, 80.52837
871.2639, 78.29855
871.7459, 75.97223
872.2280, 73.78149
872.7101, 71.94269
873.1923, 70.11285
873.6744, 68.11588
874.1565, 65.97583
874.6386, 63.70435
875.1207, 61.30847
875.6028, 58.83446
876.0850, 56.19258
876.5671, 53.60054
877.0492, 51.30588
877.5313, 49.14366
878.0134, 46.74013
878.4955, 44.06635
878.9777, 41.55728
879.4598, 39.64893
879.9419, 37.98897
880.4240, 35.89191
880.9061, 33.52242
881.3882, 31.54933
881.8704, 30.06589
882.3525, 28.71751
882.8346, 27.28909
883.3167, 25.86249
883.7988, 24.66173
884.2809, 23.74290
884.7631, 22.58464
885.2452, 21.15167
885.7273, 19.53932
886.2094, 17.69855
886.6915, 15.76947
887.1736, 13.74094
887.6558, 11.65775
888.1379, 10.08525
888.6200, 9.370743
889.1021, 8.702255
889.5842, 8.069824
890.0663, 7.307312
890.5485, 6.067886
891.0306, 4.681137
891.5127, 3.876923
891.9948, 3.868607
892.4769, 3.849411
892.9590, 3.237350
893.4412, 2.411224
893.9233, 1.780563
894.4054, 1.254822
894.8875, 0.5369420
895.3696, 0.3634190
895.8517, 0.9948430
896.3339, 0.9696660
896.8160, 0.6231230
897.2981, 0.6241610
897.7802, 0.9385380
898.2623, 1.309921
898.7444, 1.736618
899.2266, 1.861664
899.7087, 1.404694
900.1908, 0.9072270
900.6729, 1.244385
901.1550, 2.471664
901.6371, 3.261307
902.1193, 3.478470
902.6014, 3.514664
903.0835, 3.360413
903.5656, 3.128036
904.0477, 2.814804
904.5298, 2.487457
905.0120, 2.307922
905.4941, 2.289612
905.9762, 2.434814
906.4583, 3.026566
906.9404, 3.474838
907.4225, 3.283005
907.9047, 2.791779
908.3868, 2.477203
908.8689, 2.407913
909.3510, 2.369507
909.8331, 2.251953
910.3152, 2.076614
910.7974, 1.812317
911.2795, 1.539688
911.7616, 1.475739
912.2437, 1.567535
912.7258, 1.456940
913.2079, 0.9741970
913.6901, 0.4467010
914.1722, 0.4081730
914.6543, 0.7225950
915.1364, 0.5483550
915.6185, 0.1313780
916.1006, 0.7312470
916.5828, 1.101334
917.0649, 1.397919
917.5470, 1.796890
918.0291, 2.177261
918.5112, 2.037338
918.9933, 0.8988800
919.4755, 0.4829100
919.9576, 1.346970
920.4397, 2.139481
920.9218, 2.260956
921.4039, 2.095886
921.8860, 2.009445
922.3682, 2.008530
922.8503, 2.078506
923.3324, 2.312393
923.8145, 2.490463
924.2966, 2.516693
924.7787, 2.500656
925.2609, 2.374878
925.7430, 2.313568
926.2251, 2.736359
926.7072, 3.782715
927.1893, 4.754959
927.6714, 5.139038
928.1536, 5.268860
928.6357, 5.447266
929.1178, 5.640076
929.5999, 5.729675
930.0820, 5.719284
930.5641, 5.754822
931.0463, 5.938263
931.5284, 6.187378
932.0105, 6.371384
932.4926, 6.501511
932.9747, 6.601486
933.4568, 6.686508
933.9390, 6.943878
934.4211, 7.458359
934.9032, 8.024811
935.3853, 8.462631
935.8674, 8.734833
936.3495, 8.487869
936.8317, 7.450745
937.3138, 7.142853
937.7959, 8.049286
938.2780, 8.997192
938.7601, 9.296936
939.2422, 9.283966
939.7244, 9.624039
940.2065, 10.46793
940.6886, 10.77625
941.1707, 9.998871
941.6528, 9.456879
942.1349, 9.420547
942.6171, 9.672546
943.0992, 10.23021
943.5813, 10.92773
944.0634, 11.36311
944.5455, 11.40297
945.0276, 11.39641
945.5098, 11.45494
945.9919, 11.51675
946.4740, 11.44107
946.9561, 11.40639
947.4382, 11.74739
947.9203, 12.41577
948.4025, 12.96114
948.8846, 13.13367
949.3667, 13.12636
949.8488, 13.05975
950.3309, 12.96848
950.8130, 12.88573
951.2952, 12.82770
951.7773, 12.80731
952.2594, 12.83278
952.7415, 12.94702
953.2236, 13.20174
953.7057, 13.51352
954.1878, 13.77182
954.6699, 14.00061
955.1520, 14.22943
955.6342, 14.44661
956.1163, 14.52742
956.5984, 14.37021
957.0805, 14.22803
957.5626, 14.57613
958.0447, 15.40680
958.5269, 15.84659
959.0090, 15.80750
959.4911, 15.44788
959.9732, 14.68149
960.4553, 14.00587
960.9374, 13.90904
961.4196, 14.12825
961.9017, 13.86678
962.3838, 12.79372
962.8659, 12.26311
963.3480, 12.67616
963.8301, 13.04813
964.3123, 13.04948
964.7944, 12.91988
965.2765, 12.93242
965.7586, 13.05464
966.2407, 13.03181
966.7228, 12.86824
967.2050, 12.44235
967.6871, 11.30911
968.1692, 10.37570
968.6513, 10.36171
969.1334, 10.75845
969.6155, 10.90453
970.0977, 10.70248
970.5798, 10.36086
971.0619, 9.927856
971.5440, 9.512268
972.0261, 9.067413
972.5082, 8.686646
972.9904, 8.641556
973.4725, 8.802017
973.9546, 8.718048
974.4367, 8.279694
974.9188, 7.957489
975.4009, 8.235794
975.8831, 8.712830
976.3652, 8.845917
976.8473, 8.713867
977.3294, 8.619339
977.8115, 8.618851
978.2936, 8.415756
978.7758, 7.851425
979.2579, 7.323669
979.7400, 7.389572
980.2221, 7.889069
980.7042, 8.361633
981.1863, 8.783493
981.6685, 8.836395
982.1506, 8.455704
982.6327, 8.085495
983.1148, 8.031158
983.5969, 8.072067
984.0790, 7.745865
984.5612, 7.060471
985.0433, 6.683075
985.5254, 6.657410
986.0075, 6.605911
986.4896, 6.384262
986.9717, 6.281357
987.4539, 6.624405
987.9360, 7.179886
988.4181, 7.157547
988.9002, 6.266693
989.3823, 5.871811
989.8644, 6.320786
990.3466, 6.580841
990.8287, 6.159332
991.3108, 5.611389
991.7929, 5.491333
992.2750, 5.724716
992.7571, 5.868858
993.2393, 5.829056
993.7214, 5.873802
994.2035, 6.115494
994.6856, 6.291679
995.1677, 6.250229
995.6498, 6.161667
996.1320, 6.248283
996.6141, 6.471954
997.0962, 6.529076
997.5783, 6.308960
998.0604, 6.019775
998.5425, 5.440872
999.0247, 5.073502
999.5068, 5.529991
999.9889, 6.254105
1000.471, 6.407921
1000.953, 5.924606
1001.435, 5.403152
1001.917, 4.954666
1002.399, 4.722336
1002.882, 4.959290
1003.364, 5.296707
1003.846, 5.396133
1004.328, 5.322433
1004.810, 5.252396
1005.292, 5.236694
1005.774, 5.245796
1006.256, 5.268661
1006.739, 5.294830
1007.221, 5.444122
1007.703, 5.512215
1008.185, 5.103302
1008.667, 4.353470
1009.149, 3.647476
1009.631, 3.145683
1010.113, 2.975113
1010.595, 3.408653
1011.078, 4.067024
1011.560, 4.541779
1012.042, 4.742783
1012.524, 4.184303
1013.006, 3.066887
1013.488, 2.563210
1013.970, 3.158249
1014.452, 4.005951
1014.935, 4.228554
1015.417, 4.013634
1015.899, 3.705734
1016.381, 3.366882
1016.863, 3.305710
1017.345, 3.559944
1017.827, 4.123108
1018.309, 5.024277
1018.791, 5.668243
1019.274, 5.045807
1019.756, 3.507187
1020.238, 2.803558
1020.720, 2.914421
1021.202, 3.213371
1021.684, 3.609848
1022.166, 3.868210
1022.648, 3.834923
1023.130, 3.650246
1023.613, 3.534042
1024.095, 3.475883
1024.577, 3.284180
1025.059, 2.919044
1025.541, 2.781685
1026.023, 3.008713
1026.505, 3.154205
1026.987, 2.855118
1027.469, 2.499252
1027.952, 2.903450
1028.434, 4.128143
1028.916, 4.565735
1029.398, 3.962875
1029.880, 3.484200
1030.362, 3.432533
1030.844, 3.334305
1031.326, 2.830482
1031.809, 2.135376
1032.291, 1.638573
1032.773, 1.311844
1033.255, 1.352501
1033.737, 2.069695
1034.219, 2.480385
1034.701, 2.335655
1035.183, 1.923561
1035.666, 1.171669
1036.148, 0.4414440
1036.630, 0.6395030
1037.112, 2.085922
1037.594, 2.644272
1038.076, 1.529228
1038.558, 0.7766490
1039.040, 0.9397430
1039.522, 1.336349
1040.005, 1.560829
1040.487, 1.700165
1040.969, 2.016251
1041.451, 2.645432
1041.933, 2.740059
1042.415, 1.726456
1042.897, 0.9592130
1043.379, 0.6919940
1043.861, 0.7431640
1044.344, 1.258118
1044.826, 1.925850
1045.308, 2.072136
1045.790, 1.543709
1046.272, 1.289520
1046.754, 1.721123
1047.236, 2.012390
1047.718, 1.953712
1048.201, 1.688606
1048.683, 1.138031
1049.165, 0.5387880
1049.647, 0.3060230
1050.129, 0.5273440
1050.611, 0.5754930
1051.093, 3.2120001E-02
1051.575, 0.3311540
1052.057, 0.1016690
1052.540, 0.7864380
1053.022, 1.611305
1053.504, 2.338173
1053.986, 2.483299
1054.468, 1.959473
1054.950, 1.635056
1055.432, 2.025261
1055.914, 2.259102
1056.396, 1.827866
1056.879, 1.336868
1057.361, 1.226875
1057.843, 1.414352
1058.325, 1.731003
1058.807, 2.130539
1059.289, 2.328117
1059.771, 2.074326
1060.253, 1.819527
1060.736, 1.840324
1061.218, 1.830696
1061.700, 1.452415
1062.182, 0.9223630
1062.664, 0.6012570
1063.146, 0.5467680
1063.628, 0.6307680
1064.110, 1.049629
1064.593, 1.252800
1065.075, 0.8043590
1065.557, 0.2800060
1066.039, 2.6250000E-03
1066.521, 3.8010001E-02
1067.003, 0.2658390
1067.485, 0.8492280
1067.967, 1.207703
1068.449, 0.9197240
1068.932, 0.7913890
1069.414, 1.727631
1069.896, 2.402603
1070.378, 1.204712
1070.860, 0.5519710
1071.342, 0.7308120
1071.824, 0.6722110
1072.306, 1.690071
1072.788, 1.481880
1073.271, 1.056267
1073.753, 0.6225970
1074.235, 0.4136580
1074.717, 0.9317550
1075.199, 1.612267
1075.681, 1.502792
1076.163, 0.6837310
1076.645, 0.1749110
1077.127, 0.4692230
1077.610, 0.7600170
1078.092, 0.6244740
1078.574, 0.4017560
1079.056, 1.0490000E-02
1079.538, 0.1281430
1080.020, 1.073357
1080.502, 3.086670
1080.984, 3.996429
1081.467, 3.003960
1081.949, 1.939537
1082.431, 1.638191
1082.913, 1.526787
1083.395, 1.234375
1083.877, 0.9578700
1084.359, 1.024727
1084.841, 1.298332
1085.323, 1.317047
1085.806, 0.9222560
1086.288, 0.7077100
1086.770, 1.133904
1087.252, 1.548347
1087.734, 1.738472
1088.216, 1.631752
1088.698, 0.8271100
1089.180, 0.1997530
1089.662, 0.3576050
1090.145, 0.5787280
1090.627, 1.287491
1091.109, 0.9744570
1091.591, 0.7425690
1092.073, 1.228462
1092.555, 1.809532
1093.037, 2.124443
1093.519, 2.120300
1094.002, 1.631905
1094.484, 0.7052460
1094.966, 8.2367003E-02
1095.448, 0.1887360
1095.930, 0.3397600
1096.412, 0.2984240
1096.894, 0.2294240
1097.376, 0.1969450
1097.859, 0.2624590
1098.341, 0.5861130
1098.823, 1.109291
1099.305, 1.410492
1099.787, 1.277908
1100.269, 1.160294
1100.751, 1.337753
1101.233, 1.355247
1101.715, 0.7231140
1102.198, 2.3727000E-02
1102.680, 1.3702000E-02
1103.162, 0.4400710
1103.644, 0.5744630
1104.126, 0.1116640
1104.608, 0.1555250
1105.090, 0.2045670
1105.572, 0.4049530
1106.054, 0.1191250
1106.537, 0.6636510
1107.019, 0.4580460
1107.501, 0.1795960
1107.983, 0.3785780
1108.465, 4.3320000E-02
1108.947, 0.2217710
1109.429, 0.2225110
1109.911, 0.4880830
1110.394, 0.2215270
1110.876, 7.2265998E-02
1111.358, 8.4197998E-02
1111.840, 6.6192999E-02
1112.322, 0.1969600
1112.804, 0.3060150
1113.286, 0.3792340
1113.768, 0.5093690
1114.250, 0.4436800
1114.733, 6.0608000E-02
1115.215, 0.4530490
1115.697, 0.4553910
1116.179, 0.2720950
1116.661, 0.1423110
1117.143, 4.2938001E-02
1117.625, 0.2084120
1118.107, 0.7440800
1118.589, 1.127785
1119.072, 1.378548
1119.554, 1.398781
1120.036, 1.028297
1120.518, 0.6320270
1121.000, 0.5652540
1121.482, 0.6796720
1121.964, 0.5036620
1122.446, 6.0470998E-02
1122.929, 0.3068080
1123.411, 0.1722490
1123.893, 6.1539002E-02
1124.375, 0.3787840
1124.857, 0.6602940
1125.339, 0.8257980
1125.821, 0.9106060
1126.303, 0.9625930
1126.786, 0.9878540
1127.268, 1.133270
1127.750, 1.425362
1128.232, 1.606941
1128.714, 1.639824
1129.196, 1.445198
1129.678, 0.9547420
1130.160, 0.5591430
1130.642, 0.8085100
1131.125, 1.401077
1131.607, 1.157036
1132.089, 0.1403960
1132.571, 0.6299510
1133.053, 1.091133
1133.535, 0.9919660
1134.017, 0.2579120
1134.499, 0.4870610
1134.981, 0.7795180
1135.464, 0.7133940
1135.946, 0.2856370
1136.428, 0.3357700
1136.910, 0.4684750
1137.392, 0.1768720
1137.874, 0.3293840
1138.356, 0.9201350
1138.838, 1.024719
1139.321, 0.3476640
1139.803, 0.4127200
1140.285, 0.4683530
1140.767, 9.9303998E-02
1141.249, 0.3045960
1141.731, 0.6797870
1142.213, 0.8932720
1142.695, 0.9389800
1143.177, 0.8092960
1143.660, 0.5306090
1144.142, 0.2841260
1144.624, 0.1324010
1145.106, 0.2240980
1145.588, 1.054443
1146.070, 1.943481
1146.552, 1.883331
1147.034, 1.284904
1147.516, 1.000137
1147.999, 1.111053
1148.481, 1.117958
1148.963, 0.7778780
1149.445, 0.5404970
1149.927, 0.7110820
1150.409, 1.061287
1150.891, 1.683067
1151.373, 2.187660
1151.856, 2.082024
1152.338, 1.541443
1152.820, 0.9140780
1153.302, 0.2839580
1153.784, 5.9990000E-02
1154.266, 0.7271040
1154.748, 1.321198
1155.230, 1.540558
1155.713, 1.574974
1156.195, 1.429527
1156.677, 1.245537
1157.159, 1.131432
1157.641, 1.124802
1158.123, 1.411766
1158.605, 2.299110
1159.087, 2.863121
1159.569, 2.962440
1160.052, 2.847969
1160.534, 2.376801
1161.016, 1.957642
1161.498, 2.056496
1161.980, 2.312691
1162.462, 1.812050
1162.944, 0.4055100
1163.426, 2.4452001E-02
1163.908, 1.081116
1164.391, 1.940308
1164.873, 2.456398
1165.355, 2.670769
1165.837, 2.512039
1166.319, 2.204979
1166.801, 1.972099
1167.283, 1.874931
1167.765, 2.223930
1168.247, 3.049942
1168.730, 3.159134
1169.212, 2.478226
1169.694, 2.152077
1170.176, 2.499016
1170.658, 2.837723
1171.140, 2.684753
1171.622, 2.369392
1172.104, 2.527939
1172.587, 2.914719
1173.069, 2.581360
1173.551, 1.772606
1174.033, 1.338356
1174.515, 1.292099
1174.997, 1.098373
1175.479, 0.6165770
1175.961, 0.4903640
1176.443, 1.424492
1176.926, 2.570137
1177.408, 2.923035
1177.890, 2.769188
1178.372, 2.381866
1178.854, 1.885818
1179.336, 1.373360
1179.818, 0.9213710
1180.300, 0.7473680
1180.782, 0.9710920
1181.265, 1.235527
1181.747, 1.272911
1182.229, 1.327034
1182.711, 1.677773
1183.193, 2.016960
1183.675, 2.016998
1184.157, 1.797714
1184.639, 1.562744
1185.122, 1.320854
1185.604, 1.303192
1186.086, 1.857994
1186.568, 2.161369
1187.050, 1.955215
1187.532, 1.623085
1188.014, 0.9885790
1188.496, 0.6067120
1188.979, 1.213211
1189.461, 2.381691
1189.943, 2.899529
1190.425, 2.623230
1190.907, 2.307098
1191.389, 1.902985
1191.871, 1.793327
1192.353, 2.147209
1192.835, 2.358498
1193.318, 2.055916
1193.800, 1.647743
1194.282, 1.640839
1194.764, 1.905136
1195.246, 1.816528
1195.728, 1.401909
1196.210, 1.284737
1196.692, 1.489143
1197.174, 1.839508
1197.657, 2.165199
1198.139, 2.210136
1198.621, 1.778015
1199.103, 1.354904
1199.585, 1.776657
1200.067, 2.492172
1200.549, 2.220383
1201.031, 1.454903
1201.514, 1.339142
1201.996, 1.764038
1202.478, 2.052216
1202.960, 2.018311
1203.442, 1.819649
1203.924, 1.475296
1204.406, 1.176224
1204.888, 1.013535
1205.370, 1.015434
1205.853, 1.448036
1206.335, 1.880386
1206.817, 1.582619
1207.299, 0.8856120
1207.781, 0.9066770
1208.263, 1.936501
1208.745, 2.373016
1209.227, 1.119705
1209.709, 0.3069920
1210.192, 0.7512360
1210.674, 1.288635
1211.156, 1.304169
1211.638, 1.147217
1212.120, 1.208557
1212.602, 1.400551
1213.084, 1.399132
1213.566, 1.085144
1214.049, 1.252991
1214.531, 2.123077
1215.013, 2.583542
1215.495, 2.400200
1215.977, 1.855385
1216.459, 1.022079
1216.941, 0.3069230
1217.423, 0.2337270
1217.906, 0.6356740
1218.388, 1.132179
1218.870, 1.641083
1219.352, 1.676849
1219.834, 1.298050
1220.316, 0.8544540
1220.798, 0.4615400
1221.280, 0.3072360
1221.762, 0.5359420
1222.245, 0.9326860
1222.727, 1.410713
1223.209, 1.843071
1223.691, 2.065704
1224.173, 2.168533
1224.655, 2.280434
1225.137, 2.354691
1225.619, 2.305313
1226.101, 2.110931
1226.584, 1.737930
1227.066, 1.087692
1227.548, 0.6004940
1228.030, 0.4754030
1228.512, 0.4957730
1228.994, 0.7671890
1229.476, 0.9580460
1229.958, 0.7206040
1230.441, 0.2688520
1230.923, 6.6680998E-02
1231.405, 0.2854000
1231.887, 0.1306920
1232.369, 0.5968020
1232.851, 1.080460
1233.333, 1.273407
1233.815, 1.195747
1234.297, 0.7544780
1234.780, 0.5268860
1235.262, 0.9896240
1235.744, 1.660446
1236.226, 1.645355
1236.708, 1.159004
1237.190, 1.222633
1237.672, 1.652931
1238.154, 1.563217
1238.636, 0.9965060
1239.119, 0.6236720
1239.601, 0.6272740
1240.083, 0.7380910
1240.565, 0.8179240
1241.047, 0.7776790
1241.529, 0.2782290
1242.011, 0.1144790
1242.493, 0.3591230
1242.975, 1.107140
1243.458, 1.458405
1243.940, 1.450844
1244.422, 1.298393
1244.904, 1.049240
1245.386, 0.7717130
1245.868, 0.2352520
1246.350, 0.1240310
1246.832, 1.054367
1247.315, 1.736465
1247.797, 1.660248
1248.279, 1.321457
1248.761, 0.9987640
1249.243, 0.7040020
1249.725, 0.4104920
1250.207, 0.1438060
1250.689, 0.4747160
1251.172, 1.509315
1251.654, 1.978920
1252.136, 1.754486
1252.618, 1.451622
1253.100, 1.260750
1253.582, 0.9077910
1254.064, 0.1432800
1254.546, 0.4255750
1255.028, 0.4114150
1255.510, 1.760246
1255.993, 1.752388
1256.475, 1.094948
1256.957, 1.141243
1257.439, 1.705345
1257.921, 1.940910
1258.403, 1.874550
1258.885, 1.890915
1259.367, 2.148972
1259.850, 2.226036
1260.332, 1.390366
1260.814, 1.055107
1261.296, 2.726036
1261.778, 4.300507
1262.260, 3.717529
1262.742, 2.255524
1263.224, 2.063736
1263.707, 3.082466
1264.189, 3.550850
1264.671, 3.365944
1265.153, 2.822433
1265.635, 1.788696
1266.117, 1.180748
1266.599, 1.208618
1267.081, 1.221153
1267.563, 0.8382870
1268.046, 0.4757840
1268.528, 0.5021360
1269.010, 0.7657700
1269.492, 0.8223340
1269.974, 1.003548
1270.456, 0.8404690
1270.938, 0.4846040
1271.420, 0.4510420
1271.902, 0.7251740
1272.385, 0.8936230
1272.867, 0.7937160
1273.349, 0.7142180
1273.831, 0.8117370
1274.313, 0.9805150
1274.795, 1.365562
1275.277, 1.578125
1275.759, 1.209564
1276.242, 0.6136400
1276.724, 0.1996540
1277.206, 1.9958001E-02
1277.688, 3.6995001E-02
1278.170, 4.5653999E-02
1278.652, 0.1846920
1279.134, 0.3192520
1279.616, 0.7026900
1280.099, 1.458481
1280.581, 1.706795
1281.063, 0.9503630
1281.545, 0.1835780
1282.027, 2.5249999E-03
1282.509, 0.1455230
1282.991, 0.5811770
1283.473, 0.6784210
1283.955, 0.0000000E+00
##END=



