##NAMES=Ferroericssonite
##RRUFFID=R070406
##IDEAL CHEMISTRY=BaFe^2+^_2_Fe^3+^(Si_2_O_7_)O(OH)
##LOCALITY=Big Creek, Fresno County, California, USA
##OWNER=RRUFF
##SOURCE=Michael Scott
##DESCRIPTION=Dark reddish brown platy crystals, associated with dark brown titantaramellite, prismatic pale-green ferro-actinolite, quartz, and devitoite, R120091.
##STATUS=The identification of this mineral has been confirmed by single-crystal X-ray diffraction.
##URL=rruff.info/R070406
157.6603, 0.0000000E+00
158.1424, 4.173584
158.6245, 1.299683
159.1066, 3.966553
159.5887, 10.40417
160.0709, 11.59534
160.5530, 13.12476
161.0351, 25.17249
161.5172, 50.41174
161.9993, 75.58997
162.4814, 95.13403
162.9636, 107.8320
163.4457, 109.0103
163.9278, 88.15735
164.4099, 56.99390
164.8920, 37.58765
165.3741, 33.11890
165.8563, 31.54688
166.3384, 24.03381
166.8205, 14.20496
167.3026, 8.329590
167.7847, 8.016113
168.2668, 13.51965
168.7490, 28.30823
169.2311, 59.48669
169.7132, 83.51990
170.1953, 84.74695
170.6774, 71.94238
171.1595, 57.28845
171.6417, 42.30554
172.1238, 30.69153
172.6059, 34.13708
173.0880, 61.27698
173.5701, 86.30103
174.0522, 96.64417
174.5344, 98.21570
175.0165, 98.71680
175.4986, 101.1174
175.9807, 105.3561
176.4628, 111.9163
176.9449, 123.1307
177.4271, 132.2266
177.9092, 132.8615
178.3913, 130.9677
178.8734, 135.2461
179.3555, 151.6886
179.8376, 175.5095
180.3197, 192.2346
180.8019, 197.3914
181.2840, 203.1035
181.7661, 211.1019
182.2482, 222.3647
182.7303, 238.9746
183.2124, 263.1030
183.6946, 291.3600
184.1767, 313.4491
184.6588, 324.2656
185.1409, 337.5381
185.6230, 356.7665
186.1051, 379.9668
186.5873, 406.2986
187.0694, 436.3113
187.5515, 466.3864
188.0336, 485.9178
188.5157, 485.1024
188.9978, 490.5112
189.4800, 514.0709
189.9621, 543.0757
190.4442, 564.4854
190.9263, 572.1924
191.4084, 570.4915
191.8905, 569.6793
192.3727, 571.4043
192.8548, 570.8889
193.3369, 562.5037
193.8190, 554.0649
194.3011, 555.2708
194.7832, 570.1610
195.2654, 590.3052
195.7475, 596.2994
196.2296, 577.4282
196.7117, 564.2942
197.1938, 562.3137
197.6759, 565.8910
198.1581, 571.1809
198.6402, 576.7505
199.1223, 581.8923
199.6044, 585.5704
200.0865, 588.8267
200.5686, 588.0667
201.0508, 578.4277
201.5329, 568.2001
202.0150, 565.1791
202.4971, 571.0635
202.9792, 579.8016
203.4613, 580.8135
203.9435, 568.1780
204.4256, 561.2361
204.9077, 567.6844
205.3898, 574.5447
205.8719, 574.1975
206.3540, 564.6544
206.8362, 547.4287
207.3183, 522.2144
207.8004, 482.1648
208.2825, 452.5195
208.7646, 438.3135
209.2467, 429.2439
209.7289, 421.4630
210.2110, 413.5375
210.6931, 404.1676
211.1752, 390.8348
211.6573, 370.9604
212.1395, 357.0977
212.6216, 356.0411
213.1037, 354.9366
213.5858, 345.6554
214.0679, 328.9928
214.5500, 315.4364
215.0322, 313.1614
215.5143, 323.7020
215.9964, 321.6616
216.4785, 290.9609
216.9606, 264.3262
217.4427, 254.2552
217.9249, 258.2169
218.4070, 266.7069
218.8891, 272.2817
219.3712, 274.3073
219.8533, 273.6531
220.3354, 267.6028
220.8176, 262.0327
221.2997, 259.4756
221.7818, 258.5647
222.2639, 255.1659
222.7460, 246.1085
223.2281, 232.4227
223.7103, 226.0009
224.1924, 232.6482
224.6745, 240.9301
225.1566, 252.7858
225.6387, 264.1498
226.1208, 267.9604
226.6030, 259.8761
227.0851, 243.5612
227.5672, 234.5739
228.0493, 238.4166
228.5314, 242.7356
229.0135, 243.5865
229.4957, 244.3756
229.9778, 249.9607
230.4599, 262.7012
230.9420, 279.0305
231.4241, 289.9413
231.9062, 291.4114
232.3884, 294.0809
232.8705, 299.5090
233.3526, 306.4102
233.8347, 315.2668
234.3168, 325.9381
234.7989, 334.7467
235.2811, 333.8929
235.7632, 316.6371
236.2453, 305.7954
236.7274, 306.1179
237.2095, 310.5396
237.6916, 316.1978
238.1738, 321.7955
238.6559, 325.1166
239.1380, 323.1298
239.6201, 314.8180
240.1022, 304.7540
240.5843, 289.3777
241.0665, 275.3256
241.5486, 267.5887
242.0307, 265.1661
242.5128, 262.0465
242.9949, 251.3848
243.4770, 232.2246
243.9592, 216.7958
244.4413, 208.4532
244.9234, 200.7969
245.4055, 190.4790
245.8876, 178.7440
246.3697, 169.3512
246.8519, 166.0553
247.3340, 167.8279
247.8161, 165.6693
248.2982, 158.2606
248.7803, 148.1881
249.2624, 132.3134
249.7446, 115.2593
250.2267, 105.1492
250.7088, 108.0465
251.1909, 118.7196
251.6730, 121.8761
252.1551, 114.7393
252.6373, 105.3828
253.1194, 91.18359
253.6015, 78.44775
254.0836, 76.23792
254.5657, 89.72449
255.0478, 107.5450
255.5300, 110.0165
256.0121, 92.58618
256.4942, 77.03149
256.9763, 69.88159
257.4584, 66.85437
257.9406, 66.30505
258.4227, 68.05017
258.9048, 68.88892
259.3869, 62.39612
259.8690, 47.86096
260.3511, 43.15393
260.8333, 59.79236
261.3154, 80.47681
261.7975, 94.56970
262.2796, 101.3746
262.7617, 102.0646
263.2438, 94.54663
263.7260, 80.45081
264.2081, 69.44275
264.6902, 63.11487
265.1723, 59.24841
265.6544, 58.58594
266.1365, 59.43933
266.6187, 55.84204
267.1008, 40.97070
267.5829, 20.46692
268.0650, 6.188721
268.5471, 0.8870850
269.0292, 3.998047
269.5114, 0.6669920
269.9935, 4.958252
270.4756, 5.152100
270.9577, 7.846069
271.4398, 22.23743
271.9219, 20.91870
272.4041, 3.108765
272.8862, 8.282349
273.3683, 4.324097
273.8504, 28.58984
274.3325, 38.76245
274.8146, 26.53003
275.2968, 12.96423
275.7789, 15.93420
276.2610, 30.56018
276.7431, 35.46545
277.2252, 19.24487
277.7073, 5.756470
278.1895, 16.16675
278.6716, 7.555786
279.1537, 2.256836
279.6358, 13.77942
280.1179, 33.69751
280.6000, 45.93811
281.0822, 45.63416
281.5643, 37.90430
282.0464, 26.34180
282.5285, 10.32971
283.0106, 7.354614
283.4927, 32.36011
283.9749, 62.16504
284.4570, 74.25598
284.9391, 67.92993
285.4212, 59.44031
285.9033, 62.07654
286.3854, 75.69080
286.8676, 84.51367
287.3497, 83.71033
287.8318, 83.27173
288.3139, 90.08081
288.7960, 101.4155
289.2781, 109.0466
289.7603, 107.8145
290.2424, 100.4547
290.7245, 98.56824
291.2066, 108.8152
291.6887, 115.9254
292.1708, 114.0239
292.6530, 109.0238
293.1351, 109.3799
293.6172, 117.9382
294.0993, 129.3075
294.5814, 133.6862
295.0635, 125.4507
295.5457, 120.6124
296.0278, 117.5511
296.5099, 118.7379
296.9920, 128.9387
297.4741, 146.8604
297.9562, 164.2211
298.4384, 171.9167
298.9205, 168.0662
299.4026, 167.6497
299.8847, 176.4520
300.3668, 182.8210
300.8489, 177.7842
301.3311, 167.2030
301.8131, 164.5718
302.2953, 180.3123
302.7774, 209.4805
303.2595, 226.6486
303.7416, 226.2333
304.2237, 220.8999
304.7058, 212.2683
305.1880, 201.1594
305.6701, 186.0254
306.1522, 165.9578
306.6343, 148.3462
307.1164, 148.1373
307.5985, 171.6432
308.0807, 189.0037
308.5628, 195.2250
309.0449, 193.1919
309.5270, 179.1187
310.0091, 154.4982
310.4912, 132.9973
310.9734, 130.7233
311.4555, 145.2510
311.9376, 148.7632
312.4197, 132.3093
312.9018, 114.6783
313.3839, 109.0660
313.8661, 111.6412
314.3482, 112.5094
314.8303, 105.3622
315.3124, 94.59485
315.7945, 88.54126
316.2766, 88.09058
316.7588, 87.06958
317.2409, 80.28540
317.7230, 71.53894
318.2051, 67.76953
318.6872, 73.11780
319.1693, 77.71509
319.6515, 72.86218
320.1336, 60.50305
320.6157, 48.61780
321.0978, 38.70752
321.5799, 32.43115
322.0620, 34.62854
322.5442, 47.15295
323.0263, 55.07812
323.5084, 48.50647
323.9905, 37.41870
324.4726, 37.70605
324.9547, 51.94226
325.4369, 64.34558
325.9190, 58.05603
326.4011, 30.58472
326.8832, 12.51343
327.3653, 9.567627
327.8474, 10.72241
328.3296, 11.51416
328.8117, 10.87122
329.2938, 7.642578
329.7759, 1.875732
330.2580, 4.389771
330.7401, 6.604492
331.2223, 2.080811
331.7044, 0.7260740
332.1865, 2.311279
332.6686, 3.778320
333.1507, 5.072754
333.6328, 5.133911
334.1150, 2.765503
334.5971, 3.134888
335.0792, 15.28552
335.5613, 17.99634
336.0434, 1.010498
336.5255, 12.93701
337.0077, 8.076050
337.4898, 11.07703
337.9719, 28.75476
338.4540, 31.54321
338.9361, 21.37415
339.4182, 15.93469
339.9004, 19.93518
340.3825, 21.89868
340.8646, 17.04199
341.3467, 8.515747
341.8288, 1.131836
342.3109, 3.402588
342.7931, 6.456421
343.2752, 9.961304
343.7573, 13.99414
344.2394, 17.96313
344.7215, 21.78528
345.2036, 25.45044
345.6858, 27.43079
346.1679, 27.91052
346.6500, 32.49951
347.1321, 48.07092
347.6142, 70.38745
348.0963, 87.65271
348.5785, 98.01721
349.0606, 105.5253
349.5427, 111.4042
350.0248, 116.7247
350.5069, 124.9679
350.9890, 139.4438
351.4712, 154.9758
351.9533, 167.3816
352.4354, 177.1024
352.9175, 187.0101
353.3996, 199.3240
353.8817, 211.6562
354.3639, 216.7086
354.8460, 210.6302
355.3281, 207.0242
355.8102, 212.3995
356.2923, 220.2494
356.7744, 223.1617
357.2566, 219.5167
357.7387, 211.0154
358.2208, 198.1707
358.7029, 178.2424
359.1850, 170.2642
359.6671, 186.5646
360.1493, 200.7668
360.6314, 195.3679
361.1135, 178.7930
361.5956, 171.9132
362.0777, 188.1123
362.5598, 219.2784
363.0420, 235.2539
363.5241, 224.1993
364.0062, 216.3982
364.4883, 216.0732
364.9704, 219.6866
365.4525, 224.1245
365.9347, 228.7728
366.4168, 235.4307
366.8989, 249.0551
367.3810, 270.8013
367.8631, 280.8241
368.3452, 267.3215
368.8274, 255.0919
369.3095, 258.1730
369.7916, 272.1050
370.2737, 285.6698
370.7558, 292.2816
371.2379, 296.6346
371.7201, 307.8347
372.2022, 326.7839
372.6843, 343.7206
373.1664, 354.1649
373.6485, 360.2040
374.1306, 364.8258
374.6128, 367.2380
375.0949, 371.3920
375.5770, 379.2446
376.0591, 390.2688
376.5412, 402.7810
377.0233, 416.1329
377.5055, 433.6417
377.9876, 461.4252
378.4697, 500.9070
378.9518, 528.8335
379.4339, 534.7402
379.9160, 538.0969
380.3982, 549.7228
380.8803, 568.3260
381.3624, 589.3193
381.8445, 610.7878
382.3266, 630.9158
382.8087, 644.3348
383.2909, 642.3501
383.7730, 644.7111
384.2551, 650.9641
384.7372, 661.8840
385.2193, 680.2100
385.7014, 705.5059
386.1836, 733.2092
386.6657, 759.1111
387.1478, 783.0692
387.6299, 804.1685
388.1120, 821.3574
388.5941, 836.7783
389.0763, 852.3254
389.5584, 866.7603
390.0405, 877.8254
390.5226, 884.3782
391.0047, 887.9316
391.4868, 892.0176
391.9690, 897.2190
392.4511, 896.1414
392.9332, 885.5889
393.4153, 868.3441
393.8974, 848.3879
394.3795, 825.0024
394.8617, 797.6290
395.3438, 765.1699
395.8259, 727.6401
396.3080, 684.6016
396.7901, 636.5137
397.2722, 588.7686
397.7544, 542.7207
398.2365, 500.2703
398.7186, 467.3551
399.2007, 454.1926
399.6828, 439.5874
400.1649, 411.1395
400.6471, 376.4222
401.1292, 349.0791
401.6113, 333.4901
402.0934, 322.9404
402.5755, 307.4375
403.0576, 285.5488
403.5398, 262.8649
404.0219, 237.1805
404.5040, 212.6218
404.9861, 189.7170
405.4682, 169.6086
405.9503, 155.5657
406.4325, 150.6552
406.9146, 151.0065
407.3967, 142.3226
407.8788, 119.3623
408.3609, 98.04492
408.8430, 76.06128
409.3252, 60.12329
409.8073, 59.13257
410.2894, 73.32581
410.7715, 88.37952
411.2536, 91.94849
411.7357, 85.75305
412.2179, 77.26953
412.7000, 64.79126
413.1821, 55.37000
413.6642, 58.42639
414.1463, 67.76514
414.6284, 70.68848
415.1106, 60.20825
415.5927, 48.38171
416.0748, 43.79773
416.5569, 45.02710
417.0390, 48.39685
417.5211, 53.20801
418.0033, 57.61768
418.4854, 58.22925
418.9675, 52.73779
419.4496, 51.60718
419.9317, 62.65857
420.4138, 72.03870
420.8960, 67.92358
421.3781, 53.30164
421.8602, 39.56665
422.3423, 34.02856
422.8244, 35.06799
423.3065, 35.51331
423.7887, 32.52148
424.2708, 33.62573
424.7529, 44.32690
425.2350, 55.87903
425.7171, 61.54797
426.1992, 60.24768
426.6814, 54.65588
427.1635, 45.78772
427.6456, 34.00598
428.1277, 24.69946
428.6098, 18.70532
429.0919, 13.64624
429.5741, 7.181274
430.0562, 1.063965
430.5383, 1.732178
431.0204, 0.1269530
431.5025, 4.069946
431.9846, 10.13025
432.4668, 16.87012
432.9489, 17.56531
433.4310, 8.713867
433.9131, 0.4412840
434.3952, 1.998779
434.8773, 17.43225
435.3595, 30.39001
435.8416, 44.28198
436.3237, 51.65027
436.8058, 43.41968
437.2879, 24.84937
437.7701, 8.395142
438.2522, 0.2612300
438.7343, 0.6547850
439.2164, 3.231079
439.6985, 14.88525
440.1806, 26.23413
440.6628, 37.29736
441.1449, 47.95947
441.6270, 58.37158
442.1091, 68.36938
442.5912, 77.34082
443.0733, 83.98083
443.5555, 89.51343
444.0376, 99.06433
444.5197, 113.9116
445.0018, 129.1976
445.4839, 141.3844
445.9660, 154.1785
446.4482, 171.3943
446.9303, 193.6129
447.4124, 218.8107
447.8945, 244.5623
448.3766, 272.6958
448.8587, 309.7697
449.3409, 357.6940
449.8230, 401.4736
450.3051, 426.7258
450.7872, 436.3987
451.2693, 460.1183
451.7514, 509.0693
452.2336, 559.0892
452.7157, 598.4579
453.1978, 635.4424
453.6799, 682.6589
454.1620, 743.3538
454.6441, 809.0492
455.1263, 867.4622
455.6084, 914.7855
456.0905, 975.9861
456.5726, 1059.386
457.0547, 1148.439
457.5368, 1240.859
458.0190, 1335.115
458.5011, 1428.940
458.9832, 1521.120
459.4653, 1614.506
459.9474, 1716.075
460.4295, 1825.682
460.9117, 1933.309
461.3938, 2045.021
461.8759, 2142.300
462.3580, 2208.789
462.8401, 2247.964
463.3222, 2274.196
463.8044, 2298.506
464.2865, 2305.106
464.7686, 2277.564
465.2507, 2219.156
465.7328, 2142.570
466.2149, 2052.284
466.6971, 1951.483
467.1792, 1847.500
467.6613, 1740.681
468.1434, 1628.677
468.6255, 1496.848
469.1076, 1371.988
469.5898, 1274.698
470.0719, 1200.303
470.5540, 1131.980
471.0361, 1057.576
471.5182, 982.6924
472.0003, 926.2317
472.4825, 895.5743
472.9646, 864.8164
473.4467, 829.4180
473.9288, 791.6952
474.4109, 752.4282
474.8930, 711.9883
475.3752, 671.3425
475.8573, 626.8091
476.3394, 584.3722
476.8215, 557.1033
477.3036, 545.4457
477.7857, 531.9725
478.2679, 507.2209
478.7500, 476.3328
479.2321, 451.0421
479.7142, 433.2382
480.1963, 413.4087
480.6784, 387.5336
481.1606, 360.5850
481.6427, 336.5369
482.1248, 315.9629
482.6069, 298.2301
483.0890, 282.7319
483.5711, 269.5299
484.0533, 259.1737
484.5354, 256.3640
485.0175, 248.5715
485.4996, 228.8738
485.9817, 208.7031
486.4638, 197.8416
486.9460, 195.7451
487.4281, 193.2860
487.9102, 182.6571
488.3923, 168.6328
488.8744, 162.8158
489.3565, 165.3335
489.8387, 165.0088
490.3208, 156.8392
490.8029, 143.8153
491.2850, 130.7815
491.7671, 115.2688
492.2492, 104.5094
492.7314, 105.0830
493.2135, 109.6866
493.6956, 109.4851
494.1777, 104.0962
494.6598, 99.64893
495.1419, 101.5664
495.6241, 107.9233
496.1062, 105.9075
496.5883, 85.64148
497.0704, 70.80493
497.5525, 65.17468
498.0346, 64.52869
498.5168, 67.70605
498.9989, 73.19458
499.4810, 76.12024
499.9631, 70.85010
500.4452, 59.85583
500.9273, 52.57568
501.4095, 49.48755
501.8916, 48.21436
502.3737, 49.11292
502.8558, 50.41516
503.3379, 48.80310
503.8200, 43.03784
504.3022, 39.42932
504.7843, 43.48096
505.2664, 49.14233
505.7485, 50.06702
506.2306, 45.60986
506.7127, 35.50110
507.1949, 17.66760
507.6770, 3.398804
508.1591, 7.380371
508.6412, 27.53516
509.1233, 47.60474
509.6054, 37.63440
510.0876, 22.06897
510.5697, 19.61829
511.0518, 29.84241
511.5339, 39.95630
512.0161, 40.66699
512.4982, 34.75818
512.9803, 29.04077
513.4624, 23.26709
513.9445, 19.58057
514.4266, 19.69556
514.9088, 21.50574
515.3909, 23.08228
515.8730, 24.71179
516.3551, 22.82568
516.8372, 12.30481
517.3193, 0.7835690
517.8015, 4.794556
518.2836, 4.809082
518.7657, 2.095947
519.2478, 2.319092
519.7299, 6.429321
520.2120, 5.005005
520.6942, 7.286255
521.1763, 14.92456
521.6584, 16.82336
522.1405, 15.70837
522.6226, 11.06140
523.1047, 4.626953
523.5869, 0.1015630
524.0690, 0.4007570
524.5511, 1.514648
525.0332, 3.945923
525.5153, 6.881226
525.9974, 8.093384
526.4796, 6.351196
526.9617, 3.883301
527.4438, 4.569946
527.9259, 7.724243
528.4080, 5.575195
528.8901, 8.832520
529.3723, 23.05615
529.8544, 30.95740
530.3365, 33.15002
530.8186, 29.70337
531.3007, 20.85730
531.7828, 11.22363
532.2650, 7.463501
532.7471, 10.66614
533.2292, 12.81824
533.7113, 13.36511
534.1934, 13.61584
534.6755, 15.69922
535.1577, 17.06873
535.6398, 12.95911
536.1219, 1.425903
536.6040, 9.162231
537.0861, 10.22449
537.5682, 4.109375
538.0504, 2.038452
538.5325, 7.564209
539.0146, 11.96362
539.4967, 14.55603
539.9788, 15.67700
540.4609, 17.31543
540.9431, 22.18384
541.4252, 23.84875
541.9073, 20.29761
542.3894, 13.55481
542.8715, 2.668091
543.3536, 10.49292
543.8358, 18.35010
544.3179, 13.12000
544.8000, 0.8128660
545.2821, 2.069946
545.7642, 17.00305
546.2463, 27.66992
546.7285, 13.54260
547.2106, 4.996582
547.6927, 10.94507
548.1748, 4.863403
548.6569, 1.290161
549.1390, 10.08765
549.6211, 22.03784
550.1032, 26.77258
550.5853, 25.46521
551.0674, 23.62939
551.5496, 23.24341
552.0317, 24.52295
552.5138, 28.24548
552.9959, 36.31897
553.4780, 40.29211
553.9601, 36.97351
554.4423, 33.60559
554.9244, 30.70178
555.4065, 30.40479
555.8886, 36.63904
556.3707, 51.02734
556.8528, 67.65186
557.3350, 79.99426
557.8171, 88.30994
558.2992, 93.26697
558.7813, 92.56116
559.2634, 96.28955
559.7455, 115.0712
560.2277, 142.9904
560.7098, 160.4749
561.1919, 161.0958
561.6740, 162.3973
562.1561, 171.2072
562.6382, 182.5696
563.1204, 190.0718
563.6025, 194.1146
564.0846, 200.2500
564.5667, 212.2422
565.0488, 230.2430
565.5309, 257.2411
566.0131, 303.1815
566.4952, 334.0880
566.9773, 328.8816
567.4594, 317.6133
567.9415, 318.4491
568.4236, 330.1570
568.9058, 342.4060
569.3879, 350.6803
569.8700, 357.8179
570.3521, 371.0558
570.8342, 386.1853
571.3163, 386.6703
571.7985, 366.5299
572.2806, 339.8669
572.7627, 324.4949
573.2448, 322.5533
573.7269, 310.9806
574.2090, 279.5519
574.6912, 251.0139
575.1733, 231.0022
575.6554, 216.3696
576.1375, 205.7209
576.6196, 198.0281
577.1017, 188.0839
577.5839, 167.7144
578.0660, 140.9598
578.5481, 121.2657
579.0302, 109.3470
579.5123, 103.5026
579.9944, 106.7816
580.4766, 112.7518
580.9587, 107.2748
581.4408, 87.42505
581.9229, 70.15930
582.4050, 57.63342
582.8871, 48.34399
583.3693, 42.03296
583.8514, 38.20496
584.3335, 37.00391
584.8156, 38.52356
585.2977, 39.10547
585.7798, 30.67322
586.2620, 12.05310
586.7441, 4.418457
587.2262, 14.70300
587.7083, 24.43433
588.1904, 21.25757
588.6725, 11.18359
589.1547, 3.422974
589.6368, 1.166260
590.1189, 2.825562
590.6010, 1.047974
591.0831, 6.576538
591.5652, 8.978760
592.0474, 7.930054
592.5295, 4.853882
593.0116, 0.2923580
593.4937, 4.645386
593.9758, 6.481689
594.4579, 3.500122
594.9401, 1.687378
595.4222, 9.2407003E-02
595.9043, 0.1650390
596.3864, 6.372437
596.8685, 15.65076
597.3506, 20.37463
597.8328, 16.06873
598.3149, 9.604004
598.7970, 7.031860
599.2791, 7.158325
599.7612, 7.459595
600.2433, 7.537476
600.7255, 6.046875
601.2076, 1.277710
601.6897, 6.272949
602.1718, 10.63416
602.6539, 8.566895
603.1360, 8.146729
603.6182, 11.13318
604.1003, 13.37354
604.5824, 11.77307
605.0645, 7.609131
605.5466, 5.151245
606.0287, 6.307251
606.5109, 11.04004
606.9930, 22.48486
607.4751, 39.12854
607.9572, 49.59058
608.4393, 50.10559
608.9214, 47.84253
609.4036, 50.01843
609.8857, 56.66333
610.3678, 61.39648
610.8499, 64.87195
611.3320, 65.81482
611.8141, 58.17102
612.2963, 51.46033
612.7784, 56.50818
613.2605, 73.38538
613.7426, 93.11133
614.2247, 109.1025
614.7068, 122.9794
615.1890, 141.2029
615.6711, 164.3921
616.1532, 176.2789
616.6353, 167.3757
617.1174, 154.0133
617.5995, 154.6007
618.0817, 169.5011
618.5638, 184.8947
619.0459, 200.3961
619.5280, 216.1237
620.0101, 238.5422
620.4922, 258.0111
620.9744, 256.6332
621.4565, 234.8726
621.9386, 217.6981
622.4207, 229.7722
622.9028, 263.4459
623.3849, 288.0885
623.8671, 301.8229
624.3492, 318.2375
624.8313, 345.7688
625.3134, 372.7620
625.7955, 380.2935
626.2776, 369.7268
626.7598, 370.8193
627.2419, 396.9808
627.7240, 425.5935
628.2061, 448.0846
628.6882, 464.5681
629.1703, 473.8888
629.6525, 476.7772
630.1346, 478.9175
630.6167, 486.4911
631.0988, 497.9879
631.5809, 504.2505
632.0630, 503.5454
632.5452, 504.4222
633.0273, 509.3463
633.5094, 517.1177
633.9915, 527.8536
634.4736, 541.2614
634.9557, 551.0377
635.4379, 552.7903
635.9200, 553.8098
636.4021, 558.5227
636.8842, 565.0610
637.3663, 568.3146
637.8484, 568.1119
638.3306, 572.5592
638.8127, 590.7584
639.2948, 620.4500
639.7769, 646.1646
640.2590, 664.8131
640.7411, 691.6481
641.2233, 741.0242
641.7054, 790.4475
642.1875, 812.4967
642.6696, 809.8805
643.1517, 816.0328
643.6339, 843.4065
644.1160, 875.2837
644.5981, 900.7245
645.0802, 925.4579
645.5623, 960.2007
646.0444, 1006.072
646.5266, 1052.398
647.0087, 1087.523
647.4908, 1115.479
647.9729, 1156.270
648.4550, 1211.857
648.9371, 1272.179
649.4193, 1336.381
649.9014, 1402.586
650.3835, 1469.857
650.8656, 1537.987
651.3477, 1607.447
651.8298, 1673.564
652.3120, 1747.018
652.7941, 1836.950
653.2762, 1935.486
653.7583, 2034.891
654.2404, 2131.910
654.7225, 2221.049
655.2047, 2296.134
655.6868, 2363.266
656.1689, 2442.489
656.6510, 2537.295
657.1331, 2624.068
657.6152, 2695.695
658.0974, 2761.296
658.5795, 2827.683
659.0616, 2894.537
659.5437, 2958.833
660.0258, 3032.000
660.5079, 3088.310
660.9901, 3119.559
661.4722, 3129.276
661.9543, 3115.617
662.4364, 3083.129
662.9185, 3046.986
663.4006, 3018.757
663.8828, 2988.480
664.3649, 2931.561
664.8470, 2847.164
665.3291, 2763.998
665.8112, 2687.849
666.2933, 2609.132
666.7755, 2518.822
667.2576, 2420.016
667.7397, 2325.479
668.2218, 2236.325
668.7039, 2150.073
669.1860, 2070.999
669.6682, 1991.059
670.1503, 1900.398
670.6324, 1802.512
671.1145, 1707.673
671.5966, 1620.125
672.0787, 1540.120
672.5609, 1470.407
673.0430, 1409.104
673.5251, 1342.332
674.0072, 1266.944
674.4893, 1195.167
674.9714, 1134.212
675.4536, 1081.781
675.9357, 1033.842
676.4178, 994.2035
676.8999, 950.4995
677.3820, 900.3274
677.8641, 848.0657
678.3463, 793.3610
678.8284, 739.4293
679.3105, 690.9104
679.7926, 649.3688
680.2747, 613.1370
680.7568, 585.6677
681.2390, 561.3542
681.7211, 522.7048
682.2032, 470.5908
682.6853, 431.7068
683.1674, 419.5808
683.6495, 419.5729
684.1317, 408.8241
684.6138, 385.3774
685.0959, 365.1555
685.5780, 352.9808
686.0601, 336.4318
686.5422, 305.3726
687.0244, 273.0245
687.5065, 255.9070
687.9886, 254.6527
688.4707, 251.8457
688.9528, 232.6381
689.4349, 210.8137
689.9171, 202.5155
690.3992, 203.3394
690.8813, 208.9467
691.3634, 217.6228
691.8455, 220.2819
692.3276, 205.6184
692.8098, 176.9176
693.2919, 165.4716
693.7740, 183.6932
694.2561, 192.2119
694.7382, 176.5850
695.2203, 154.4745
695.7025, 134.4092
696.1846, 117.7539
696.6667, 108.7275
697.1488, 112.3890
697.6309, 117.1256
698.1130, 119.4200
698.5952, 116.9132
699.0773, 102.9364
699.5594, 81.47510
700.0415, 67.95898
700.5236, 71.71350
701.0057, 85.23560
701.4879, 93.52612
701.9700, 97.26587
702.4521, 94.55786
702.9342, 81.43872
703.4163, 65.25708
703.8984, 45.99011
704.3806, 28.39771
704.8627, 23.51843
705.3448, 34.42822
705.8269, 45.89771
706.3090, 56.97241
706.7911, 66.02588
707.2733, 74.91675
707.7554, 81.00366
708.2375, 78.75781
708.7196, 67.00659
709.2017, 52.77490
709.6838, 40.58203
710.1660, 31.02063
710.6481, 26.44336
711.1302, 26.82141
711.6123, 31.09692
712.0944, 40.61951
712.5765, 45.88745
713.0587, 32.76379
713.5408, 0.2375490
714.0229, 17.21899
714.5050, 8.988525
714.9871, 2.385376
715.4692, 17.81531
715.9514, 31.44617
716.4335, 38.81384
716.9156, 40.56140
717.3977, 39.08313
717.8798, 34.61682
718.3619, 28.56140
718.8441, 18.46790
719.3262, 8.159180
719.8083, 5.237671
720.2904, 10.13489
720.7725, 16.41125
721.2546, 20.09045
721.7368, 21.76697
722.2189, 21.75293
722.7010, 19.59033
723.1831, 19.48022
723.6652, 24.37537
724.1473, 25.91980
724.6295, 15.13550
725.1116, 0.4534910
725.5937, 1.859314
726.0758, 14.23633
726.5579, 23.63837
727.0400, 12.59021
727.5222, 2.918884
728.0043, 12.96521
728.4864, 31.22925
728.9685, 36.20294
729.4506, 23.24524
729.9327, 9.940979
730.4149, 16.66321
730.8970, 32.53296
731.3791, 29.55396
731.8612, 10.13226
732.3433, 2.620178
732.8254, 1.739441
733.3076, 6.074646
733.7897, 15.33582
734.2718, 25.49188
734.7539, 29.26599
735.2360, 20.81970
735.7181, 15.76886
736.2003, 20.86688
736.6824, 25.11169
737.1645, 18.23126
737.6466, 5.116699
738.1287, 7.2021000E-02
738.6108, 9.734741
739.0930, 20.95453
739.5751, 29.59296
740.0572, 33.68079
740.5393, 28.85718
741.0214, 17.16589
741.5035, 4.261230
741.9857, 7.153015
742.4678, 15.00500
742.9499, 15.34833
743.4320, 8.668823
743.9141, 2.010681
744.3962, 4.309998
744.8784, 13.07983
745.3605, 29.21680
745.8426, 42.40735
746.3247, 34.98505
746.8068, 2.832825
747.2889, 10.55823
747.7711, 9.093384
748.2532, 27.71527
748.7353, 41.53961
749.2174, 47.87793
749.6995, 40.95392
750.1816, 23.89362
750.6638, 8.697083
751.1459, 4.9743999E-02
751.6280, 2.844360
752.1101, 5.087219
752.5922, 16.80762
753.0743, 17.74908
753.5565, 7.568909
754.0386, 4.020447
754.5207, 11.63086
755.0028, 15.09167
755.4849, 12.49115
755.9670, 2.655151
756.4492, 1.037476
756.9313, 5.734070
757.4134, 7.749756
757.8955, 7.724548
758.3776, 27.02283
758.8597, 25.13342
759.3419, 1.037964
759.8240, 12.81470
760.3061, 9.817505
760.7882, 27.06219
761.2703, 18.95990
761.7524, 1.264954
762.2346, 11.29999
762.7167, 16.03687
763.1988, 14.44623
763.6809, 4.558960
764.1630, 6.240601
764.6451, 9.400208
765.1273, 6.843384
765.6094, 1.310181
766.0915, 5.945679
766.5736, 7.984619
767.0557, 0.1804810
767.5378, 12.95526
768.0200, 17.77148
768.5021, 13.14471
768.9842, 9.604858
769.4663, 8.477539
769.9484, 5.793640
770.4305, 2.357117
770.9127, 11.51501
771.3948, 15.26361
771.8769, 13.90271
772.3590, 10.43243
772.8411, 7.403748
773.3232, 0.2203370
773.8054, 22.17438
774.2875, 43.57806
774.7696, 42.01245
775.2517, 20.67035
775.7338, 4.893127
776.2159, 11.35583
776.6981, 23.11902
777.1802, 17.01904
777.6623, 2.698181
778.1444, 5.150513
778.6265, 25.16638
779.1086, 44.03021
779.5908, 51.39728
780.0729, 50.36371
780.5550, 46.20837
781.0371, 38.94153
781.5192, 26.61005
782.0013, 3.321167
782.4835, 9.034729
782.9656, 2.406982
783.4477, 24.51331
783.9298, 43.34277
784.4119, 59.03485
784.8940, 65.69739
785.3762, 54.55475
785.8583, 45.32654
786.3404, 44.88806
786.8225, 47.26923
787.3046, 46.99615
787.7867, 44.64685
788.2689, 43.79138
788.7510, 45.61578
789.2331, 50.32697
789.7152, 59.58521
790.1973, 70.93341
790.6794, 81.64606
791.1616, 91.37482
791.6437, 100.0782
792.1258, 107.8517
792.6079, 113.8234
793.0900, 116.8602
793.5721, 116.7675
794.0543, 112.0280
794.5364, 101.5750
795.0185, 92.56354
795.5006, 85.57898
795.9827, 83.97266
796.4648, 94.55847
796.9470, 115.1780
797.4291, 123.5202
797.9112, 105.8890
798.3933, 95.51062
798.8754, 101.5099
799.3575, 107.4259
799.8397, 98.78656
800.3218, 84.14026
800.8039, 82.37567
801.2860, 100.3380
801.7681, 115.6865
802.2502, 115.9044
802.7324, 109.3526
803.2145, 100.9752
803.6966, 92.53241
804.1787, 86.53802
804.6608, 83.27405
805.1429, 80.23761
805.6251, 77.15790
806.1072, 74.84143
806.5893, 78.29913
807.0714, 86.41327
807.5535, 89.84027
808.0356, 86.69910
808.5178, 84.06128
808.9999, 86.98706
809.4820, 92.42126
809.9641, 92.97363
810.4462, 87.96442
810.9283, 78.61005
811.4105, 59.08838
811.8926, 43.93298
812.3747, 44.19501
812.8568, 48.73944
813.3389, 42.66522
813.8210, 26.42395
814.3032, 18.87079
814.7853, 26.45618
815.2674, 37.33472
815.7495, 53.10968
816.2316, 66.97028
816.7137, 72.81970
817.1959, 70.96606
817.6780, 65.09119
818.1601, 57.89978
818.6422, 51.97260
819.1243, 50.34613
819.6064, 51.25110
820.0886, 53.11395
820.5707, 55.75696
821.0528, 58.06891
821.5349, 60.02490
822.0170, 61.51379
822.4991, 62.45941
822.9813, 61.94806
823.4634, 55.26758
823.9455, 41.72339
824.4276, 31.23523
824.9097, 26.17316
825.3918, 26.06628
825.8740, 30.51007
826.3561, 38.92462
826.8382, 50.75854
827.3203, 75.08240
827.8024, 81.63940
828.2845, 51.07227
828.7667, 25.54358
829.2488, 26.52075
829.7309, 37.72742
830.2130, 38.29431
830.6951, 27.01172
831.1772, 21.57874
831.6594, 35.96338
832.1415, 44.70190
832.6236, 30.57886
833.1057, 10.20972
833.5878, 1.278564
834.0699, 2.727417
834.5521, 1.329224
835.0342, 9.635376
835.5163, 17.55334
835.9984, 22.66675
836.4805, 24.81152
836.9626, 20.03467
837.4448, 11.27942
837.9269, 11.11047
838.4090, 23.13647
838.8911, 34.18445
839.3732, 29.19958
839.8553, 12.77002
840.3375, 1.708984
840.8196, 2.501953
841.3017, 0.2995610
841.7838, 9.250854
842.2659, 18.52661
842.7480, 22.56104
843.2302, 22.57422
843.7123, 21.51636
844.1944, 18.97595
844.6765, 16.60461
845.1586, 12.52576
845.6407, 11.41418
846.1229, 18.08057
846.6050, 26.20300
847.0871, 29.09448
847.5692, 27.13013
848.0513, 26.29065
848.5334, 33.47583
849.0156, 33.63086
849.4977, 12.46448
849.9798, 8.121826
850.4619, 8.760620
850.9440, 4.152222
851.4261, 14.84875
851.9083, 18.58032
852.3904, 19.39062
852.8725, 19.79163
853.3546, 18.77734
853.8367, 12.78662
854.3188, 5.316284
854.8010, 4.891235
855.2831, 11.98132
855.7652, 17.78723
856.2473, 15.44019
856.7294, 9.390015
857.2115, 6.643921
857.6937, 7.008911
858.1758, 11.20203
858.6579, 18.98157
859.1400, 22.73596
859.6221, 18.59985
860.1042, 11.16663
860.5864, 6.476074
861.0685, 4.563843
861.5506, 6.877075
862.0327, 16.02246
862.5148, 18.22534
862.9969, 6.154297
863.4791, 5.149902
863.9612, 3.430054
864.4433, 8.302002
864.9254, 19.59070
865.4075, 34.88000
865.8896, 40.38171
866.3718, 24.34082
866.8539, 12.99060
867.3360, 19.99207
867.8181, 33.53625
868.3002, 40.01843
868.7823, 38.98669
869.2645, 39.16736
869.7466, 46.96155
870.2287, 50.91602
870.7108, 39.05066
871.1929, 27.80115
871.6750, 35.19177
872.1572, 54.79358
872.6393, 68.52454
873.1214, 70.12402
873.6035, 72.30469
874.0856, 87.56653
874.5677, 105.5118
875.0499, 115.5271
875.5320, 118.8575
876.0141, 115.1750
876.4962, 106.9910
876.9783, 106.3315
877.4604, 122.3997
877.9426, 145.7438
878.4247, 162.1774
878.9068, 172.7886
879.3889, 180.4524
879.8710, 185.7709
880.3531, 191.8256
880.8353, 199.5913
881.3174, 211.5718
881.7995, 230.2070
882.2816, 255.8959
882.7637, 294.7087
883.2458, 349.8839
883.7280, 390.3560
884.2101, 405.0040
884.6922, 424.3619
885.1743, 470.1044
885.6564, 530.5640
886.1385, 580.8483
886.6207, 619.1122
887.1028, 654.2089
887.5849, 678.7214
888.0670, 711.8870
888.5491, 758.5768
889.0313, 816.0698
889.5134, 885.1738
889.9955, 963.5255
890.4776, 1041.493
890.9597, 1126.278
891.4418, 1195.702
891.9240, 1237.091
892.4061, 1273.331
892.8882, 1319.453
893.3703, 1366.534
893.8524, 1404.009
894.3345, 1429.801
894.8167, 1440.419
895.2988, 1435.770
895.7809, 1413.906
896.2630, 1361.634
896.7451, 1300.762
897.2272, 1258.908
897.7094, 1228.131
898.1915, 1180.357
898.6736, 1105.480
899.1557, 1026.697
899.6378, 965.0283
900.1199, 907.9324
900.6021, 835.9974
901.0842, 757.7744
901.5663, 692.5880
902.0484, 642.9150
902.5305, 598.4083
903.0126, 552.6960
903.4948, 506.6782
903.9769, 459.7520
904.4590, 414.4263
904.9411, 382.8300
905.4232, 364.0214
905.9053, 339.1821
906.3875, 301.6307
906.8696, 269.6958
907.3517, 262.7317
907.8338, 272.3090
908.3159, 271.6187
908.7980, 260.6128
909.2802, 248.9047
909.7623, 237.6204
910.2444, 222.4507
910.7265, 198.5259
911.2086, 177.9742
911.6907, 181.4509
912.1729, 208.4489
912.6550, 218.2606
913.1371, 203.1055
913.6192, 197.0197
914.1013, 211.8112
914.5834, 225.1038
915.0656, 220.6257
915.5477, 205.2566
916.0298, 194.3511
916.5119, 187.2683
916.9940, 187.8931
917.4761, 206.0741
917.9583, 218.1604
918.4404, 211.8431
918.9225, 203.8076
919.4046, 208.4127
919.8867, 222.4064
920.3688, 233.6035
920.8510, 243.4849
921.3331, 245.5209
921.8152, 229.7012
922.2973, 217.1044
922.7794, 215.1770
923.2615, 223.1182
923.7437, 244.2566
924.2258, 275.7126
924.7079, 299.3750
925.1900, 303.2126
925.6721, 309.5009
926.1542, 334.2169
926.6364, 358.3815
927.1185, 363.4482
927.6006, 358.2423
928.0827, 358.2057
928.5648, 367.0392
929.0469, 381.9137
929.5291, 409.4944
930.0112, 432.9760
930.4933, 437.9717
930.9754, 432.9434
931.4575, 428.9750
931.9396, 424.7296
932.4218, 411.2341
932.9039, 385.3715
933.3860, 359.5027
933.8681, 344.3206
934.3502, 335.1094
934.8323, 326.3069
935.3145, 318.7192
935.7966, 318.5963
936.2787, 322.9198
936.7608, 313.8180
937.2429, 281.0867
937.7250, 243.9750
938.2072, 226.8787
938.6893, 222.3788
939.1714, 214.3804
939.6535, 203.2815
940.1356, 193.1508
940.6177, 184.4034
941.0999, 171.1355
941.5820, 148.2637
942.0641, 123.3571
942.5462, 111.7448
943.0283, 110.5537
943.5104, 102.9175
943.9926, 89.15259
944.4747, 84.15564
944.9568, 92.74890
945.4389, 101.5099
945.9210, 97.46796
946.4031, 86.79883
946.8853, 88.90564
947.3674, 103.6862
947.8495, 110.9714
948.3316, 109.7106
948.8137, 95.25037
949.2958, 62.76001
949.7780, 32.17340
950.2601, 27.70856
950.7422, 43.31293
951.2243, 45.23077
951.7064, 30.22803
952.1885, 23.77014
952.6707, 31.20026
953.1528, 35.93414
953.6349, 29.58453
954.1170, 17.93652
954.5991, 7.457947
955.0812, 1.493286
955.5634, 1.041565
956.0455, 14.21936
956.5276, 21.83154
957.0097, 16.37714
957.4918, 8.646851
957.9739, 4.272766
958.4561, 1.114929
958.9382, 5.290283
959.4203, 15.74438
959.9024, 17.96735
960.3845, 7.248047
960.8666, 2.589111
961.3488, 13.13214
961.8309, 17.21216
962.3130, 5.227234
962.7951, 13.53809
963.2772, 20.14056
963.7593, 11.72882
964.2415, 6.411255
964.7236, 5.209839
965.2057, 5.613464
965.6878, 11.07159
966.1699, 14.24756
966.6520, 7.717041
967.1342, 3.928589
967.6163, 10.48840
968.0984, 11.46582
968.5805, 8.387085
969.0626, 6.607605
969.5447, 15.03339
970.0269, 6.134583
970.5090, 5.421387
970.9911, 8.299988
971.4732, 4.950317
971.9553, 2.302246
972.4374, 0.2492070
972.9196, 1.569336
973.4017, 12.90973
973.8838, 19.68854
974.3659, 10.00488
974.8480, 0.7368160
975.3301, 3.667542
975.8123, 18.53906
976.2944, 27.51617
976.7765, 27.45367
977.2586, 23.37555
977.7407, 9.170227
978.2228, 4.1809000E-02
978.7050, 7.293030
979.1871, 18.99475
979.6692, 23.08661
980.1513, 20.50684
980.6334, 17.90234
981.1155, 15.87714
981.5977, 16.46405
982.0798, 21.09656
982.5619, 27.51221
983.0440, 38.01349
983.5261, 47.53577
984.0082, 48.05261
984.4904, 42.71814
984.9725, 44.36157
985.4546, 58.95599
985.9367, 71.50537
986.4188, 75.29163
986.9009, 76.58606
987.3831, 79.48608
987.8652, 81.66034
988.3473, 78.91333
988.8294, 72.40216
989.3115, 68.37189
989.7936, 69.88947
990.2758, 70.48608
990.7579, 65.39124
991.2400, 60.84930
991.7221, 61.06842
992.2042, 64.03510
992.6863, 68.40167
993.1685, 73.00500
993.6506, 74.97711
994.1327, 73.52795
994.6148, 68.88147
995.0969, 55.33179
995.5790, 44.84088
996.0612, 46.57861
996.5433, 55.57410
997.0254, 66.48529
997.5075, 78.08020
997.9896, 90.61285
998.4717, 107.2671
998.9539, 115.4391
999.4360, 101.7229
999.9181, 85.64136
1000.400, 76.86542
1000.882, 76.44916
1001.364, 89.93152
1001.847, 112.7616
1002.329, 126.1502
1002.811, 120.2595
1003.293, 115.0106
1003.775, 127.1503
1004.257, 135.1537
1004.739, 117.6606
1005.221, 91.52045
1005.703, 78.72479
1006.186, 79.00378
1006.668, 79.14142
1007.150, 75.22369
1007.632, 69.29956
1008.114, 54.91290
1008.596, 47.61456
1009.078, 65.94373
1009.560, 90.37256
1010.043, 95.89050
1010.525, 84.49500
1011.007, 74.85107
1011.489, 72.76703
1011.971, 72.39435
1012.453, 72.51813
1012.935, 71.94586
1013.417, 68.73462
1013.899, 65.76367
1014.382, 66.39307
1014.864, 70.07593
1015.346, 73.30322
1015.828, 74.01489
1016.310, 78.98254
1016.792, 94.94287
1017.274, 110.0920
1017.756, 124.4872
1018.239, 131.5261
1018.721, 118.0647
1019.203, 90.77393
1019.685, 70.35870
1020.167, 60.92511
1020.649, 61.02234
1021.131, 83.87512
1021.613, 101.5192
1022.095, 94.56982
1022.578, 81.00305
1023.060, 78.01068
1023.542, 82.22406
1024.024, 81.16119
1024.506, 71.21381
1024.988, 69.27911
1025.470, 91.37244
1025.952, 105.5927
1026.435, 92.19275
1026.917, 72.94354
1027.399, 65.21924
1027.881, 66.89899
1028.363, 70.59668
1028.845, 75.92194
1029.327, 73.16583
1029.809, 53.69141
1030.292, 35.30603
1030.774, 18.83655
1031.256, 9.235901
1031.738, 13.44928
1032.220, 25.04633
1032.702, 33.39404
1033.184, 38.28973
1033.666, 38.70325
1034.148, 30.48004
1034.630, 23.57324
1035.113, 18.22516
1035.595, 16.05817
1036.077, 20.51556
1036.559, 27.49347
1037.041, 28.46631
1037.523, 23.00104
1038.005, 24.57257
1038.487, 47.28204
1038.970, 54.19629
1039.452, 30.54156
1039.934, 7.197266
1040.416, 1.979004
1040.898, 4.316223
1041.380, 9.745789
1041.862, 17.19495
1042.344, 13.78845
1042.826, 10.36011
1043.309, 23.09180
1043.791, 17.29834
1044.273, 11.14984
1044.755, 10.34595
1045.237, 13.44519
1045.719, 20.81738
1046.201, 30.39392
1046.683, 31.93512
1047.166, 21.75159
1047.648, 16.01642
1048.130, 15.18134
1048.612, 18.12189
1049.094, 25.48468
1049.576, 34.50079
1050.058, 44.27112
1050.540, 51.99524
1051.022, 48.30060
1051.505, 31.15588
1051.987, 23.72430
1052.469, 27.64954
1052.951, 30.97498
1053.433, 30.45721
1053.915, 32.24500
1054.397, 41.65125
1054.879, 52.05927
1055.361, 50.72437
1055.844, 38.62103
1056.326, 24.20905
1056.808, 7.470764
1057.290, 9.697876
1057.772, 34.78076
1058.254, 54.03809
1058.736, 52.25836
1059.218, 39.49774
1059.701, 26.95111
1060.183, 15.79620
1060.665, 10.55383
1061.147, 10.47150
1061.629, 11.04095
1062.111, 12.17560
1062.593, 19.69568
1063.075, 35.38062
1063.557, 47.17828
1064.040, 42.74353
1064.522, 28.54144
1065.004, 12.75989
1065.486, 2.165039
1065.968, 9.716431
1066.450, 10.64160
1066.932, 8.524292
1067.414, 4.776367
1067.896, 1.025757
1068.379, 1.250305
1068.861, 4.458130
1069.343, 14.09399
1069.825, 24.23322
1070.307, 25.62231
1070.789, 21.42719
1071.271, 18.45532
1071.753, 17.49542
1072.236, 14.33960
1072.718, 5.952820
1073.200, 3.423828
1073.682, 23.77869
1074.164, 43.69324
1074.646, 39.42017
1075.128, 26.44196
1075.610, 24.32080
1076.093, 30.97321
1076.575, 34.72546
1077.057, 32.43805
1077.539, 29.39905
1078.021, 25.15326
1078.503, 24.29736
1078.985, 29.27734
1079.467, 38.07233
1079.949, 55.35773
1080.432, 72.33844
1080.914, 73.23889
1081.396, 57.18091
1081.878, 43.17651
1082.360, 34.62360
1082.842, 28.24011
1083.324, 24.14612
1083.806, 21.43341
1084.288, 19.55933
1084.771, 19.00159
1085.253, 21.01215
1085.735, 24.93317
1086.217, 27.74786
1086.699, 30.15930
1087.181, 29.18231
1087.663, 21.01727
1088.145, 17.72687
1088.628, 25.97205
1089.110, 32.91498
1089.592, 27.24518
1090.074, 16.37238
1090.556, 17.44116
1091.038, 31.14380
1091.520, 33.03040
1092.002, 20.15588
1092.484, 15.42383
1092.967, 23.74365
1093.449, 32.11310
1093.931, 33.96552
1094.413, 32.89380
1094.895, 33.93738
1095.377, 35.29156
1095.859, 25.97272
1096.341, 9.176636
1096.823, 14.18805
1097.306, 40.49603
1097.788, 60.73059
1098.270, 65.63153
1098.752, 60.88879
1099.234, 48.96411
1099.716, 37.86816
1100.198, 47.10327
1100.680, 64.25867
1101.163, 57.76941
1101.645, 36.23297
1102.127, 21.97540
1102.609, 19.15887
1103.091, 25.03925
1103.573, 38.98218
1104.055, 50.30231
1104.537, 46.62915
1105.020, 39.95624
1105.502, 44.64520
1105.984, 50.30139
1106.466, 39.69055
1106.948, 20.63159
1107.430, 13.77747
1107.912, 22.88165
1108.394, 30.99561
1108.876, 31.73224
1109.359, 29.47791
1109.841, 20.92078
1110.323, 15.40814
1110.805, 22.14874
1111.287, 33.41888
1111.769, 42.28302
1112.251, 46.67206
1112.733, 45.27454
1113.215, 34.74384
1113.698, 29.90350
1114.180, 33.49475
1114.662, 39.18311
1115.144, 46.58124
1115.626, 54.58191
1116.108, 64.48041
1116.590, 72.49597
1117.072, 71.45435
1117.555, 60.50806
1118.037, 52.88129
1118.519, 49.48615
1119.001, 46.85345
1119.483, 44.03625
1119.965, 44.06366
1120.447, 48.12634
1120.929, 57.48901
1121.411, 75.11456
1121.894, 94.83258
1122.376, 99.50824
1122.858, 91.42249
1123.340, 79.43469
1123.822, 65.54437
1124.304, 61.41370
1124.786, 68.06061
1125.268, 69.59186
1125.750, 56.27771
1126.233, 45.03967
1126.715, 61.86554
1127.197, 86.33942
1127.679, 90.61774
1128.161, 82.64630
1128.643, 69.47040
1129.125, 57.29736
1129.607, 59.33142
1130.090, 77.42657
1130.572, 93.74878
1131.054, 101.5624
1131.536, 102.0504
1132.018, 85.50537
1132.500, 71.87524
1132.982, 83.51379
1133.464, 100.7077
1133.947, 96.32709
1134.429, 75.00067
1134.911, 63.32806
1135.393, 68.35303
1135.875, 69.66394
1136.357, 63.72205
1136.839, 56.70148
1137.321, 46.93719
1137.803, 40.39069
1138.286, 41.66296
1138.768, 46.61633
1139.250, 49.12427
1139.732, 49.57672
1140.214, 51.93250
1140.696, 56.57172
1141.178, 60.69769
1141.660, 64.35510
1142.142, 65.31000
1142.625, 62.86102
1143.107, 55.45166
1143.589, 40.94006
1144.071, 26.04346
1144.553, 22.96191
1145.035, 28.74615
1145.517, 39.54144
1145.999, 50.54248
1146.482, 42.84711
1146.964, 19.76727
1147.446, 3.820984
1147.928, 3.539856
1148.410, 11.93085
1148.892, 30.52026
1149.374, 44.21466
1149.856, 33.05139
1150.339, 16.54907
1150.821, 13.05157
1151.303, 18.19037
1151.785, 27.15564
1152.267, 36.45227
1152.749, 36.76746
1153.231, 23.01837
1153.713, 11.61298
1154.195, 6.588440
1154.677, 3.879089
1155.160, 2.6366999E-02
1155.642, 0.9818730
1156.124, 12.55206
1156.606, 28.78088
1157.088, 41.48981
1157.570, 50.65741
1158.052, 56.30725
1158.534, 59.14111
1159.017, 54.22644
1159.499, 39.92456
1159.981, 25.66919
1160.463, 13.84595
1160.945, 6.047180
1161.427, 3.402649
1161.909, 5.162476
1162.391, 10.81360
1162.874, 19.50336
1163.356, 31.77454
1163.838, 44.12000
1164.320, 40.13666
1164.802, 23.73206
1165.284, 18.70697
1165.766, 30.85828
1166.248, 37.24017
1166.730, 17.55487
1167.213, 2.5696000E-02
1167.695, 19.25726
1168.177, 39.24908
1168.659, 17.19934
1169.141, 15.34082
1169.623, 11.85406
1170.105, 17.45978
1170.587, 30.03680
1171.069, 15.92627
1171.552, 6.311462
1172.034, 7.594666
1172.516, 12.09619
1172.998, 27.21661
1173.480, 32.41595
1173.962, 11.60730
1174.444, 12.65515
1174.926, 16.09741
1175.409, 4.562927
1175.891, 1.366760
1176.373, 0.8917240
1176.855, 7.288269
1177.337, 20.79834
1177.819, 32.01257
1178.301, 39.06415
1178.783, 38.08081
1179.266, 27.14764
1179.748, 16.91107
1180.230, 18.68628
1180.712, 27.90875
1181.194, 41.46185
1181.676, 54.50513
1182.158, 58.23669
1182.640, 54.70294
1183.122, 46.88440
1183.604, 37.37415
1184.087, 31.77820
1184.569, 32.11621
1185.051, 36.80426
1185.533, 52.97888
1186.015, 62.61035
1186.497, 54.14496
1186.979, 40.52295
1187.461, 29.69385
1187.944, 20.60693
1188.426, 9.499634
1188.908, 2.018127
1189.390, 3.317627
1189.872, 8.584045
1190.354, 20.96606
1190.836, 35.84052
1191.318, 40.95563
1191.801, 31.09369
1192.283, 25.05023
1192.765, 34.09070
1193.247, 47.32196
1193.729, 50.76599
1194.211, 48.69037
1194.693, 50.31653
1195.175, 54.20917
1195.657, 58.53571
1196.140, 61.83533
1196.622, 57.92212
1197.104, 49.09918
1197.586, 46.33813
1198.068, 60.03479
1198.550, 67.73022
1199.032, 41.19543
1199.514, 16.90918
1199.996, 16.84503
1200.479, 19.78595
1200.961, 25.28607
1201.443, 29.17334
1201.925, 28.37634
1202.407, 23.34027
1202.889, 23.26526
1203.371, 31.72375
1203.853, 33.29901
1204.336, 24.17151
1204.818, 21.11011
1205.300, 28.99030
1205.782, 36.13806
1206.264, 36.22052
1206.746, 33.24298
1207.228, 31.07812
1207.710, 27.12524
1208.193, 27.79193
1208.675, 30.42303
1209.157, 35.68311
1209.639, 41.37598
1210.121, 39.55664
1210.603, 31.04944
1211.085, 25.98761
1211.567, 28.51514
1212.049, 28.11475
1212.531, 10.57397
1213.014, 1.801025
1213.496, 11.23438
1213.978, 26.08105
1214.460, 24.48621
1214.942, 16.77094
1215.424, 16.80975
1215.906, 22.57941
1216.388, 24.36932
1216.871, 21.09576
1217.353, 22.19495
1217.835, 29.97046
1218.317, 30.91113
1218.799, 22.04968
1219.281, 14.11768
1219.763, 9.432129
1220.245, 8.208679
1220.728, 3.460144
1221.210, 0.8652340
1221.692, 4.857605
1222.174, 14.36328
1222.656, 13.39484
1223.138, 6.999023
1223.620, 0.3901980
1224.102, 0.6880490
1224.584, 3.521301
1225.067, 5.132568
1225.549, 0.0000000E+00
##END=



