##NAMES=Ferro-holmquistite
##RRUFFID=R070005
##IDEAL CHEMISTRY=[box]Li_2_(Fe^2+^_3_Al_2_)Si_8_O_22_(OH)_2_
##LOCALITY=Mount Marrion, South Australia, Australia
##OWNER=RRUFF
##SOURCE=Michael Scott
##DESCRIPTION=Dark blue fractured prismatic crystals
##STATUS=The identification of this mineral is confirmed by single-crystal X-ray diffraction and chemical analysis.
##URL=rruff.info/R070005
##MEASURED CHEMISTRY=(Li_1.93_Na_0.03_Mn_0.02_[box]_0.02_)_Σ=2_((Fe^2+^_1.52_Mg_1.48_)_Σ=3_(Al_1.91_Fe^3+^_0.09_)_Σ=2_)_Σ=5_Si_8.00_O_22_(OH)_2_; Li estimated by difference Li=2-(Na+K+Ca+Mn) and charge balance; OH by charge balance
154.0939, 0.0000000E+00
154.5760, 47.34473
155.0581, 76.01562
155.5403, 55.40430
156.0224, 100.7432
156.5045, 117.4551
156.9866, 71.80078
157.4687, 19.11035
157.9508, 28.98145
158.4330, 47.80664
158.9151, 11.65723
159.3972, 22.24219
159.8793, 37.69531
160.3614, 57.52832
160.8435, 107.9336
161.3257, 198.4629
161.8078, 311.7383
162.2899, 413.2197
162.7720, 481.6816
163.2541, 564.7295
163.7362, 668.1094
164.2184, 784.4785
164.7005, 908.2002
165.1826, 1038.147
165.6647, 1169.584
166.1468, 1294.229
166.6289, 1409.136
167.1111, 1522.491
167.5932, 1631.372
168.0753, 1740.200
168.5574, 1855.163
169.0395, 1980.241
169.5216, 2109.210
170.0038, 2231.140
170.4859, 2347.541
170.9680, 2454.892
171.4501, 2535.965
171.9322, 2613.239
172.4143, 2726.203
172.8965, 2892.322
173.3786, 3075.056
173.8607, 3202.302
174.3428, 3251.642
174.8249, 3320.162
175.3070, 3437.299
175.7892, 3583.479
176.2713, 3730.829
176.7534, 3871.379
177.2355, 4007.562
177.7176, 4136.036
178.1997, 4252.395
178.6819, 4383.197
179.1640, 4531.041
179.6461, 4698.123
180.1282, 4891.415
180.6103, 5115.275
181.0924, 5355.401
181.5745, 5593.117
182.0567, 5828.422
182.5388, 6062.539
183.0209, 6293.476
183.5030, 6522.695
183.9851, 6750.056
184.4672, 6971.109
184.9494, 7199.652
185.4315, 7465.033
185.9136, 7765.859
186.3957, 8057.852
186.8778, 8334.008
187.3599, 8592.114
187.8421, 8832.188
188.3242, 9055.296
188.8063, 9256.806
189.2884, 9439.853
189.7705, 9607.433
190.2526, 9712.645
190.7348, 9749.853
191.2169, 9714.134
191.6990, 9589.019
192.1811, 9363.033
192.6632, 9076.422
193.1453, 8753.757
193.6275, 8400.161
194.1096, 8028.213
194.5917, 7627.613
195.0738, 7214.802
195.5559, 6813.694
196.0380, 6422.498
196.5202, 6051.566
197.0023, 5710.211
197.4844, 5394.289
197.9665, 5106.652
198.4486, 4852.848
198.9307, 4623.877
199.4129, 4404.986
199.8950, 4192.596
200.3771, 3998.214
200.8592, 3838.382
201.3413, 3702.995
201.8234, 3575.275
202.3056, 3453.683
202.7877, 3336.312
203.2698, 3219.036
203.7519, 3101.294
204.2340, 2987.848
204.7161, 2875.592
205.1983, 2771.061
205.6804, 2689.866
206.1625, 2649.228
206.6446, 2624.884
207.1267, 2592.116
207.6088, 2552.329
208.0910, 2493.039
208.5731, 2386.239
209.0552, 2260.200
209.5373, 2157.537
210.0194, 2091.587
210.5015, 2047.504
210.9837, 2016.148
211.4658, 1998.992
211.9479, 1965.898
212.4300, 1907.361
212.9121, 1838.220
213.3942, 1780.732
213.8764, 1744.355
214.3585, 1708.697
214.8406, 1647.022
215.3227, 1558.333
215.8048, 1483.504
216.2869, 1441.056
216.7691, 1425.274
217.2512, 1426.912
217.7333, 1451.013
218.2154, 1473.273
218.6975, 1472.615
219.1796, 1450.496
219.6618, 1424.585
220.1439, 1395.246
220.6260, 1369.016
221.1081, 1353.841
221.5902, 1351.189
222.0723, 1350.048
222.5545, 1345.197
223.0366, 1336.231
223.5187, 1320.179
224.0008, 1293.604
224.4829, 1262.591
224.9650, 1232.377
225.4472, 1202.896
225.9293, 1177.128
226.4114, 1157.085
226.8935, 1142.095
227.3756, 1132.880
227.8577, 1136.779
228.3399, 1132.653
228.8220, 1089.564
229.3041, 1016.225
229.7862, 962.0264
230.2683, 959.7920
230.7504, 989.6387
231.2325, 1010.962
231.7147, 1020.001
232.1968, 1021.413
232.6789, 1014.387
233.1610, 1002.129
233.6431, 993.5186
234.1252, 990.7764
234.6074, 993.5449
235.0895, 1003.608
235.5716, 1022.809
236.0537, 1039.769
236.5358, 1045.956
237.0179, 1044.430
237.5001, 1040.865
237.9822, 1033.304
238.4643, 1026.463
238.9464, 1028.629
239.4285, 1040.193
239.9106, 1044.432
240.3928, 1025.795
240.8749, 995.8105
241.3570, 977.8809
241.8391, 974.3301
242.3212, 982.1230
242.8033, 1012.291
243.2855, 1059.250
243.7676, 1078.109
244.2497, 1036.791
244.7318, 967.5371
245.2139, 932.9531
245.6960, 944.8496
246.1782, 958.0723
246.6603, 944.7676
247.1424, 913.2617
247.6245, 891.2422
248.1066, 892.0410
248.5887, 896.9355
249.0709, 872.3965
249.5530, 813.9004
250.0351, 768.1055
250.5172, 759.4805
250.9993, 772.7012
251.4814, 784.4961
251.9636, 791.9316
252.4457, 788.9180
252.9278, 761.7910
253.4099, 710.8887
253.8920, 668.1855
254.3741, 639.7949
254.8563, 624.0762
255.3384, 624.3711
255.8205, 639.6445
256.3026, 650.8906
256.7847, 644.2246
257.2668, 621.6152
257.7490, 603.8203
258.2311, 592.8340
258.7132, 583.9199
259.1953, 570.3555
259.6774, 551.9141
260.1595, 537.7461
260.6417, 542.4688
261.1238, 562.0918
261.6059, 554.8184
262.0880, 488.3691
262.5701, 429.2539
263.0522, 413.3809
263.5344, 426.3906
264.0165, 433.3223
264.4986, 416.2676
264.9807, 384.5918
265.4628, 364.5234
265.9449, 363.2363
266.4271, 357.0879
266.9092, 334.9004
267.3913, 309.7207
267.8734, 301.7090
268.3555, 317.3184
268.8376, 340.7871
269.3198, 346.2012
269.8019, 327.2578
270.2840, 293.8340
270.7661, 227.5293
271.2482, 160.3125
271.7303, 122.5254
272.2125, 116.6758
272.6946, 119.1836
273.1767, 103.4766
273.6588, 63.25000
274.1409, 37.05664
274.6230, 27.72266
275.1052, 27.51562
275.5873, 38.36719
276.0694, 55.92969
276.5515, 70.43945
277.0336, 74.94922
277.5157, 69.54297
277.9979, 56.50391
278.4800, 19.40625
278.9621, 6.982422
279.4442, 11.87500
279.9263, 1.732422
280.4084, 15.30664
280.8906, 35.59766
281.3727, 55.74414
281.8548, 65.00195
282.3369, 55.73438
282.8190, 45.77539
283.3011, 22.55859
283.7833, 6.933594
284.2654, 29.78516
284.7475, 95.81641
285.2296, 165.7461
285.7117, 169.3301
286.1938, 65.88477
286.6760, 9.373047
287.1581, 38.18750
287.6402, 84.54492
288.1223, 119.6074
288.6044, 138.3633
289.0865, 145.1191
289.5687, 139.8105
290.0508, 121.8828
290.5329, 114.1660
291.0150, 124.5078
291.4971, 137.1895
291.9792, 143.8809
292.4614, 148.5137
292.9435, 160.4297
293.4256, 189.1250
293.9077, 225.9570
294.3898, 243.3691
294.8719, 235.3125
295.3541, 220.9238
295.8362, 207.8477
296.3183, 192.3770
296.8004, 166.9414
297.2825, 125.6094
297.7646, 87.09961
298.2468, 80.87109
298.7289, 110.4355
299.2110, 128.7793
299.6931, 112.2969
300.1752, 87.98438
300.6573, 80.64258
301.1395, 92.08789
301.6216, 106.9531
302.1037, 112.1855
302.5858, 111.8301
303.0679, 124.4590
303.5500, 160.6562
304.0321, 194.0996
304.5143, 194.8496
304.9964, 170.5469
305.4785, 151.3965
305.9606, 153.9238
306.4427, 163.5234
306.9248, 160.6367
307.4070, 144.4395
307.8891, 126.8711
308.3712, 117.5137
308.8533, 111.5488
309.3354, 92.68750
309.8175, 42.17773
310.2997, 1.941406
310.7818, 9.287109
311.2639, 9.000000
311.7460, 15.07812
312.2281, 10.80859
312.7102, 50.46680
313.1924, 57.00195
313.6745, 7.345703
314.1566, 16.13867
314.6387, 23.55273
315.1208, 89.13086
315.6029, 142.8379
316.0851, 175.2617
316.5672, 183.1133
317.0493, 156.9023
317.5314, 80.75781
318.0135, 42.25391
318.4956, 69.36523
318.9778, 106.2754
319.4599, 124.3066
319.9420, 124.1016
320.4241, 118.7422
320.9062, 117.2422
321.3883, 119.1133
321.8705, 119.5430
322.3526, 127.2324
322.8347, 123.1484
323.3168, 92.03320
323.7989, 51.74219
324.2810, 24.58594
324.7632, 19.64258
325.2453, 27.66406
325.7274, 32.69336
326.2095, 40.46094
326.6916, 31.43945
327.1737, 12.31445
327.6559, 58.20508
328.1380, 83.23047
328.6201, 87.16602
329.1022, 87.96289
329.5843, 104.2715
330.0664, 136.2832
330.5486, 158.6465
331.0307, 156.1680
331.5128, 163.4668
331.9949, 207.3223
332.4770, 268.8457
332.9591, 312.4727
333.4413, 317.3730
333.9234, 298.8711
334.4055, 281.1523
334.8876, 259.7637
335.3697, 259.1230
335.8518, 308.4121
336.3340, 373.5215
336.8161, 422.5625
337.2982, 451.4297
337.7803, 464.1914
338.2624, 449.3008
338.7445, 416.6992
339.2267, 415.3301
339.7088, 467.3691
340.1909, 530.0762
340.6730, 552.8555
341.1551, 541.0410
341.6372, 532.7969
342.1194, 543.1797
342.6015, 559.4375
343.0836, 569.5996
343.5657, 572.6660
344.0478, 566.7754
344.5299, 547.2051
345.0121, 517.5176
345.4942, 499.1016
345.9763, 493.1172
346.4584, 495.8945
346.9405, 513.1504
347.4226, 537.1973
347.9048, 555.3125
348.3869, 562.7988
348.8690, 560.5723
349.3511, 549.0664
349.8332, 514.5488
350.3153, 497.7871
350.7975, 520.0254
351.2796, 543.4922
351.7617, 538.5762
352.2438, 505.8145
352.7259, 465.1719
353.2080, 432.2441
353.6902, 407.1309
354.1723, 399.5039
354.6544, 438.3418
355.1365, 464.6562
355.6186, 460.0137
356.1007, 437.2461
356.5829, 414.9434
357.0650, 401.8750
357.5471, 391.3945
358.0292, 366.7734
358.5113, 318.4883
358.9934, 286.8555
359.4756, 301.0879
359.9577, 317.9160
360.4398, 306.3867
360.9219, 266.5664
361.4040, 227.1875
361.8861, 213.3535
362.3683, 219.7754
362.8504, 221.6387
363.3325, 219.2402
363.8146, 209.1113
364.2967, 176.4043
364.7788, 135.6055
365.2610, 115.9785
365.7431, 134.5938
366.2252, 166.9434
366.7073, 187.8828
367.1894, 199.7344
367.6715, 223.7949
368.1537, 275.2129
368.6358, 333.9980
369.1179, 360.3926
369.6000, 346.6484
370.0821, 336.1348
370.5642, 333.6895
371.0464, 344.2949
371.5285, 381.8496
372.0106, 444.7773
372.4927, 506.9922
372.9748, 545.2305
373.4569, 558.9102
373.9391, 570.6660
374.4212, 583.7949
374.9033, 593.2090
375.3854, 589.6504
375.8675, 583.7988
376.3496, 593.6973
376.8318, 629.3848
377.3139, 686.3711
377.7960, 758.3184
378.2781, 871.8281
378.7602, 949.5117
379.2423, 954.7852
379.7245, 952.3652
380.2066, 992.2930
380.6887, 1073.951
381.1708, 1158.092
381.6529, 1205.164
382.1350, 1220.523
382.6172, 1264.812
383.0993, 1358.256
383.5814, 1434.359
384.0635, 1460.688
384.5456, 1460.174
385.0277, 1464.982
385.5099, 1486.971
385.9920, 1508.727
386.4741, 1514.555
386.9562, 1504.443
387.4383, 1471.645
387.9204, 1398.748
388.4026, 1318.158
388.8847, 1274.771
389.3668, 1267.209
389.8489, 1253.537
390.3310, 1229.088
390.8131, 1186.125
391.2953, 1100.053
391.7774, 972.6562
392.2595, 863.2988
392.7416, 815.8730
393.2237, 819.5879
393.7058, 808.3438
394.1880, 767.2324
394.6701, 731.5801
395.1522, 718.5586
395.6343, 713.4180
396.1164, 693.9785
396.5985, 654.1270
397.0807, 607.3945
397.5628, 571.5215
398.0449, 545.8359
398.5270, 534.4336
399.0091, 556.9180
399.4912, 572.6504
399.9734, 559.4531
400.4555, 525.7969
400.9376, 491.7129
401.4197, 468.5723
401.9018, 453.4863
402.3839, 434.6270
402.8660, 401.8242
403.3481, 392.4277
403.8303, 448.5957
404.3124, 510.0098
404.7945, 526.5684
405.2766, 493.0703
405.7587, 451.7070
406.2408, 434.4980
406.7230, 434.9238
407.2051, 427.3535
407.6872, 405.1133
408.1693, 390.1973
408.6514, 405.7480
409.1335, 440.4980
409.6157, 463.8164
410.0978, 464.8008
410.5799, 461.4961
411.0620, 459.3906
411.5441, 461.7500
412.0262, 483.0254
412.5084, 531.7578
412.9905, 582.6191
413.4726, 592.9277
413.9547, 535.7305
414.4368, 512.2188
414.9189, 552.5996
415.4011, 600.8633
415.8832, 616.8066
416.3653, 607.7168
416.8474, 606.9336
417.3295, 637.6621
417.8116, 691.8965
418.2938, 733.6074
418.7759, 756.3340
419.2580, 775.9863
419.7401, 798.7129
420.2222, 817.2441
420.7043, 827.9883
421.1865, 829.0391
421.6686, 816.0156
422.1507, 783.1270
422.6328, 732.2539
423.1149, 670.3203
423.5970, 583.3125
424.0792, 511.3477
424.5613, 499.1035
425.0434, 513.1328
425.5255, 494.2090
426.0076, 413.1074
426.4897, 321.8848
426.9719, 263.4492
427.4540, 231.0508
427.9361, 197.3301
428.4182, 152.6348
428.9003, 109.8555
429.3824, 88.78320
429.8646, 94.17969
430.3467, 89.55859
430.8288, 51.43164
431.3109, 20.83984
431.7930, 39.91797
432.2751, 91.28125
432.7573, 120.4199
433.2394, 95.35156
433.7215, 33.99805
434.2036, 9.208984
434.6857, 27.12305
435.1678, 36.95703
435.6500, 44.40820
436.1321, 41.67773
436.6142, 15.28906
437.0963, 30.06055
437.5784, 70.63672
438.0605, 88.54688
438.5427, 85.19922
439.0248, 62.34961
439.5069, 1.396484
439.9890, 36.40234
440.4711, 1.767578
440.9532, 65.76172
441.4354, 101.6016
441.9175, 97.68945
442.3996, 77.45312
442.8817, 50.04102
443.3638, 19.38672
443.8459, 7.119141
444.3281, 29.18555
444.8102, 37.87598
445.2923, 22.62695
445.7744, 17.02734
446.2565, 56.09375
446.7386, 108.1211
447.2208, 145.3027
447.7029, 138.4570
448.1850, 111.9590
448.6671, 111.5938
449.1492, 154.1914
449.6313, 213.6562
450.1135, 248.4043
450.5956, 252.1650
451.0777, 251.9951
451.5598, 246.5918
452.0419, 241.4482
452.5240, 240.1582
453.0062, 240.7549
453.4883, 239.9102
453.9704, 236.9062
454.4525, 228.4707
454.9346, 203.5664
455.4167, 158.3057
455.8989, 127.0615
456.3810, 126.2646
456.8631, 135.1035
457.3452, 130.4258
457.8273, 113.5039
458.3094, 106.0215
458.7916, 128.2070
459.2737, 157.6475
459.7558, 163.9844
460.2379, 148.7402
460.7200, 138.1094
461.2021, 147.9473
461.6843, 169.4941
462.1664, 177.3770
462.6485, 160.0557
463.1306, 149.4639
463.6127, 157.2363
464.0948, 166.2070
464.5770, 158.7002
465.0591, 136.7012
465.5412, 116.7480
466.0233, 111.0381
466.5054, 119.4844
466.9875, 145.7148
467.4697, 217.7822
467.9518, 257.2051
468.4339, 224.3750
468.9160, 168.4697
469.3981, 131.4326
469.8802, 120.5791
470.3624, 117.7100
470.8445, 108.6768
471.3266, 96.21777
471.8087, 90.09473
472.2908, 92.06152
472.7729, 94.49219
473.2551, 94.39648
473.7372, 90.50195
474.2193, 80.11035
474.7014, 56.16895
475.1835, 36.75684
475.6656, 32.01172
476.1478, 34.40332
476.6299, 32.57910
477.1120, 24.72266
477.5941, 18.87012
478.0762, 25.43262
478.5583, 45.24023
479.0405, 45.02539
479.5226, 2.741211
480.0047, 39.33008
480.4868, 54.83301
480.9689, 52.68652
481.4510, 31.72363
481.9332, 7.107422
482.4153, 45.58984
482.8974, 58.53125
483.3795, 48.30078
483.8616, 55.28711
484.3438, 90.83301
484.8259, 125.5391
485.3080, 142.8398
485.7901, 145.8730
486.2722, 136.9600
486.7543, 108.1875
487.2365, 81.24316
487.7186, 70.92578
488.2007, 72.00195
488.6828, 68.83789
489.1649, 57.35059
489.6470, 61.19043
490.1292, 110.8408
490.6113, 213.0889
491.0934, 267.4004
491.5755, 246.2832
492.0576, 214.0234
492.5397, 173.8838
493.0219, 141.2080
493.5040, 139.4355
493.9861, 174.7529
494.4682, 221.1162
494.9503, 240.1035
495.4324, 228.5908
495.9146, 236.6973
496.3967, 287.6807
496.8788, 322.4648
497.3609, 295.6436
497.8430, 234.0049
498.3251, 185.7881
498.8073, 161.4219
499.2894, 149.0439
499.7715, 150.1260
500.2536, 156.1836
500.7357, 141.6172
501.2178, 99.34668
501.6999, 55.94238
502.1820, 38.13965
502.6642, 47.49414
503.1463, 57.26855
503.6284, 80.13965
504.1105, 89.96289
504.5926, 59.86914
505.0747, 20.69727
505.5569, 20.74512
506.0390, 68.93164
506.5211, 116.5889
507.0032, 93.95508
507.4853, 1.192383
507.9674, 46.23145
508.4496, 11.84863
508.9317, 25.00977
509.4138, 28.01172
509.8959, 13.72754
510.3780, 2.633789
510.8601, 1.934570
511.3423, 0.3476560
511.8244, 14.95215
512.3065, 34.69824
512.7886, 34.53125
513.2708, 10.45801
513.7529, 12.08203
514.2350, 12.94531
514.7171, 6.370117
515.1992, 30.02246
515.6813, 79.13086
516.1635, 105.2266
516.6456, 80.49316
517.1277, 39.84863
517.6098, 16.54980
518.0919, 16.49219
518.5740, 27.77930
519.0562, 42.66309
519.5383, 59.60645
520.0204, 62.38574
520.5025, 37.52051
520.9846, 28.66309
521.4667, 73.01855
521.9489, 130.3672
522.4310, 158.4395
522.9131, 150.6406
523.3952, 143.6895
523.8773, 156.8174
524.3594, 181.7197
524.8416, 213.3662
525.3237, 248.7871
525.8058, 268.3828
526.2879, 258.7559
526.7700, 228.2012
527.2521, 202.2920
527.7343, 152.7861
528.2164, 151.3604
528.6985, 254.4395
529.1806, 358.8604
529.6627, 389.5918
530.1448, 354.4121
530.6270, 304.7041
531.1091, 268.3877
531.5912, 246.9824
532.0733, 249.3047
532.5554, 279.8711
533.0375, 298.6045
533.5197, 283.6865
534.0018, 267.8906
534.4839, 291.1074
534.9660, 347.5273
535.4481, 385.1123
535.9302, 382.3174
536.4124, 363.2490
536.8945, 336.0830
537.3766, 306.4600
537.8587, 290.0000
538.3408, 294.6025
538.8229, 309.2383
539.3051, 317.7529
539.7872, 319.7607
540.2693, 319.6035
540.7514, 317.9082
541.2335, 312.1064
541.7156, 290.8545
542.1978, 269.0889
542.6799, 269.8516
543.1620, 301.6416
543.6441, 343.5605
544.1262, 378.1826
544.6083, 404.9326
545.0905, 421.2275
545.5726, 426.9189
546.0547, 420.8125
546.5368, 390.2773
547.0189, 348.0420
547.5010, 346.9102
547.9832, 427.5723
548.4653, 487.9648
548.9474, 479.5166
549.4295, 449.9316
549.9116, 454.0781
550.3937, 493.1514
550.8758, 527.5566
551.3579, 523.8789
551.8400, 491.9004
552.3221, 476.6055
552.8043, 485.8535
553.2864, 493.4736
553.7685, 503.2344
554.2506, 501.9844
554.7327, 468.4473
555.2148, 408.2686
555.6970, 366.6289
556.1791, 376.2080
556.6612, 406.5195
557.1433, 431.4609
557.6254, 448.4824
558.1075, 446.3750
558.5897, 419.6416
559.0718, 377.8018
559.5539, 332.0908
560.0360, 276.6055
560.5181, 241.9912
561.0002, 237.4170
561.4824, 240.3311
561.9645, 250.3320
562.4466, 259.4707
562.9287, 257.4512
563.4108, 241.2168
563.8929, 216.5654
564.3751, 184.8008
564.8572, 148.1895
565.3393, 122.1641
565.8214, 107.8652
566.3035, 102.1768
566.7856, 101.0127
567.2678, 106.5293
567.7499, 120.5312
568.2320, 151.9590
568.7141, 163.5029
569.1962, 138.1934
569.6783, 99.81348
570.1605, 59.06836
570.6426, 22.03125
571.1247, 4.251953
571.6068, 17.92676
572.0889, 55.06641
572.5710, 94.46680
573.0532, 144.4375
573.5353, 159.7461
574.0174, 93.17969
574.4995, 33.93652
574.9816, 55.54395
575.4637, 130.2686
575.9459, 164.9434
576.4280, 100.4170
576.9101, 19.32910
577.3922, 7.097656
577.8743, 7.051758
578.3564, 26.61719
578.8386, 41.10352
579.3207, 56.20117
579.8028, 82.47949
580.2849, 119.9805
580.7670, 137.8018
581.2491, 104.4707
581.7313, 82.74805
582.2134, 98.70605
582.6955, 119.3730
583.1776, 108.3701
583.6597, 66.00781
584.1418, 29.38281
584.6240, 34.89746
585.1061, 60.45117
585.5882, 54.13574
586.0703, 16.39160
586.5524, 12.31445
587.0345, 20.48633
587.5167, 6.419922
587.9988, 42.06152
588.4809, 139.4648
588.9630, 191.7998
589.4451, 169.7568
589.9272, 131.0254
590.4094, 90.39648
590.8915, 54.67383
591.3736, 32.45410
591.8557, 25.86035
592.3378, 27.03027
592.8199, 25.75586
593.3021, 22.83594
593.7842, 30.10059
594.2663, 49.44043
594.7484, 74.36426
595.2305, 112.4961
595.7126, 148.3467
596.1948, 153.1084
596.6769, 116.9023
597.1590, 92.71094
597.6411, 97.34766
598.1232, 118.6094
598.6053, 157.6641
599.0875, 204.3740
599.5696, 231.3193
600.0517, 224.7568
600.5338, 205.8467
601.0159, 214.8379
601.4980, 258.5312
601.9802, 295.3164
602.4623, 330.7148
602.9444, 349.5264
603.4265, 329.9326
603.9086, 294.8525
604.3907, 283.0049
604.8729, 307.0430
605.3550, 334.3760
605.8371, 344.0820
606.3192, 347.4980
606.8013, 366.0254
607.2834, 397.4375
607.7656, 412.9492
608.2477, 391.6943
608.7298, 353.6299
609.2119, 357.2461
609.6940, 433.7080
610.1761, 479.8682
610.6583, 467.6211
611.1404, 447.6758
611.6225, 448.5615
612.1046, 457.4590
612.5867, 443.3096
613.0688, 388.5703
613.5510, 330.0322
614.0331, 301.7773
614.5152, 292.4229
614.9973, 278.2607
615.4794, 255.7812
615.9615, 225.3232
616.4437, 184.4951
616.9258, 139.0117
617.4079, 113.3691
617.8900, 119.9424
618.3721, 126.8779
618.8542, 142.2354
619.3364, 149.3760
619.8185, 130.6777
620.3006, 95.91211
620.7827, 69.18945
621.2648, 62.03125
621.7469, 65.79590
622.2291, 80.39062
622.7112, 98.57910
623.1933, 90.52246
623.6754, 49.53809
624.1575, 0.3105470
624.6396, 42.95801
625.1218, 77.32617
625.6039, 85.56055
626.0860, 29.90918
626.5681, 0.4414060
627.0502, 19.48828
627.5323, 48.33594
628.0145, 57.20508
628.4966, 49.24219
628.9787, 43.75391
629.4608, 54.40527
629.9429, 61.98730
630.4250, 29.86816
630.9072, 31.92676
631.3893, 67.00391
631.8714, 63.27344
632.3535, 43.19043
632.8356, 19.92773
633.3177, 4.402344
633.7999, 15.13965
634.2820, 6.065430
634.7641, 14.65918
635.2462, 10.42480
635.7283, 35.10254
636.2104, 27.21973
636.6926, 3.879883
637.1747, 19.41406
637.6568, 8.468750
638.1389, 41.78223
638.6210, 12.92578
639.1031, 66.80762
639.5853, 115.9834
640.0674, 117.8145
640.5495, 103.6182
641.0316, 94.50488
641.5137, 89.96582
641.9958, 87.12109
642.4780, 80.83398
642.9601, 83.55762
643.4422, 105.0732
643.9243, 128.5059
644.4064, 140.2314
644.8885, 142.4717
645.3707, 145.0801
645.8528, 151.5342
646.3349, 161.8857
646.8170, 179.2969
647.2991, 202.1553
647.7813, 220.4590
648.2634, 232.2402
648.7455, 241.9434
649.2276, 251.6914
649.7097, 262.2002
650.1918, 276.7432
650.6740, 307.6572
651.1561, 323.9727
651.6382, 299.9609
652.1203, 282.2705
652.6024, 307.0957
653.0845, 363.4170
653.5667, 419.9131
654.0488, 461.8135
654.5309, 500.6787
655.0130, 552.5771
655.4951, 613.6895
655.9772, 667.2275
656.4594, 710.9111
656.9415, 752.6846
657.4236, 796.5664
657.9057, 842.9033
658.3878, 892.4170
658.8699, 943.2676
659.3521, 1001.493
659.8342, 1056.541
660.3163, 1129.415
660.7984, 1235.614
661.2805, 1366.918
661.7626, 1507.489
662.2448, 1652.023
662.7269, 1799.164
663.2090, 1952.011
663.6911, 2104.463
664.1732, 2232.508
664.6553, 2335.062
665.1375, 2465.979
665.6196, 2657.043
666.1017, 2885.284
666.5838, 3103.938
667.0659, 3300.938
667.5480, 3520.695
668.0302, 3771.365
668.5123, 4033.824
668.9944, 4304.566
669.4765, 4582.257
669.9586, 4874.071
670.4407, 5182.230
670.9229, 5476.549
671.4050, 5733.562
671.8871, 5967.129
672.3692, 6201.345
672.8513, 6435.274
673.3334, 6670.279
673.8156, 6909.172
674.2977, 7122.248
674.7798, 7267.733
675.2619, 7344.223
675.7440, 7361.609
676.2261, 7338.152
676.7083, 7225.551
677.1904, 6974.836
677.6725, 6659.865
678.1546, 6348.561
678.6367, 6048.404
679.1188, 5734.053
679.6010, 5388.789
680.0831, 5029.268
680.5652, 4648.716
681.0473, 4270.673
681.5294, 3964.062
682.0115, 3743.404
682.4937, 3534.360
682.9758, 3258.234
683.4579, 2930.950
683.9400, 2684.478
684.4221, 2540.954
684.9042, 2413.294
685.3864, 2299.945
685.8685, 2181.220
686.3506, 2029.294
686.8327, 1854.676
687.3148, 1706.317
687.7969, 1601.823
688.2791, 1520.877
688.7612, 1465.937
689.2433, 1418.636
689.7254, 1353.994
690.2075, 1273.180
690.6896, 1198.905
691.1718, 1145.740
691.6539, 1107.674
692.1360, 1074.017
692.6181, 1043.453
693.1002, 1021.054
693.5823, 1009.004
694.0645, 1001.445
694.5466, 994.2217
695.0287, 987.3115
695.5108, 985.4492
695.9929, 993.0371
696.4750, 995.8613
696.9572, 988.5615
697.4393, 975.5127
697.9214, 957.6611
698.4035, 937.3887
698.8856, 917.8887
699.3677, 900.4648
699.8499, 885.2314
700.3320, 873.6973
700.8141, 864.3535
701.2962, 851.9492
701.7783, 836.1064
702.2604, 820.4756
702.7426, 806.7910
703.2247, 793.8799
703.7068, 780.9961
704.1889, 770.4443
704.6710, 748.6416
705.1531, 692.6445
705.6353, 652.7236
706.1174, 655.3574
706.5995, 672.2822
707.0816, 677.5840
707.5637, 666.8545
708.0458, 643.6943
708.5280, 606.1699
709.0101, 560.9561
709.4922, 493.9688
709.9743, 425.7051
710.4564, 429.9561
710.9385, 517.6338
711.4207, 590.5908
711.9028, 555.6914
712.3849, 437.2646
712.8670, 356.6475
713.3491, 319.7744
713.8312, 300.0586
714.3134, 305.5508
714.7955, 313.7402
715.2776, 304.9600
715.7597, 285.0635
716.2418, 273.6211
716.7239, 282.4463
717.2061, 283.3008
717.6882, 252.6396
718.1703, 219.9639
718.6524, 215.2275
719.1345, 233.0117
719.6166, 255.2725
720.0988, 274.1729
720.5809, 280.2109
721.0630, 248.2090
721.5451, 187.7842
722.0272, 167.8457
722.5093, 197.5029
722.9915, 211.0859
723.4736, 171.3438
723.9557, 111.6777
724.4378, 88.31738
724.9199, 109.9629
725.4020, 129.4043
725.8842, 156.8516
726.3663, 169.8350
726.8484, 148.6943
727.3305, 118.2695
727.8126, 103.9502
728.2947, 108.1270
728.7769, 117.8086
729.2590, 132.0957
729.7411, 142.6270
730.2232, 136.3643
730.7053, 120.2461
731.1874, 111.5752
731.6696, 113.1221
732.1517, 113.3740
732.6338, 101.4307
733.1159, 84.42188
733.5980, 88.54980
734.0801, 118.5625
734.5623, 151.4004
735.0444, 198.0850
735.5265, 226.3828
736.0086, 197.3262
736.4907, 139.0518
736.9728, 113.4834
737.4550, 134.1289
737.9371, 158.9199
738.4192, 182.0547
738.9013, 202.5527
739.3834, 223.7559
739.8655, 240.6152
740.3477, 238.7500
740.8298, 215.3486
741.3119, 197.3047
741.7940, 219.7031
742.2761, 264.2773
742.7582, 283.7891
743.2404, 280.3730
743.7225, 281.2627
744.2046, 296.3584
744.6867, 311.6885
745.1688, 310.5977
745.6509, 294.1963
746.1331, 288.2256
746.6152, 302.2803
747.0973, 309.8037
747.5793, 293.9805
748.0615, 282.1709
748.5436, 300.3828
749.0257, 337.1895
749.5078, 356.8213
749.9899, 344.5605
750.4720, 325.8936
750.9542, 325.8770
751.4363, 318.4531
751.9184, 255.7178
752.4005, 159.9404
752.8826, 107.1621
753.3647, 132.1768
753.8469, 180.4014
754.3290, 176.3389
754.8111, 130.1367
755.2932, 104.6631
755.7753, 102.7607
756.2574, 102.3164
756.7396, 92.54980
757.2217, 86.34766
757.7038, 106.3545
758.1859, 157.1396
758.6680, 171.6396
759.1501, 117.4287
759.6323, 68.06738
760.1144, 32.10742
760.5965, 6.522461
761.0786, 10.04004
761.5607, 18.38672
762.0428, 19.76172
762.5250, 10.40137
763.0071, 1.467773
763.4892, 0.6582030
763.9713, 4.151367
764.4534, 6.408203
764.9355, 7.274414
765.4177, 11.51367
765.8998, 21.95312
766.3819, 30.73438
766.8640, 22.12305
767.3461, 1.734375
767.8282, 15.05176
768.3104, 16.67871
768.7925, 9.678711
769.2746, 7.631836
769.7567, 27.47461
770.2388, 38.63086
770.7209, 40.44824
771.2031, 42.84082
771.6852, 53.68848
772.1673, 54.32422
772.6494, 36.44629
773.1315, 10.51172
773.6136, 24.26953
774.0958, 57.25977
774.5779, 68.08203
775.0600, 37.41602
775.5421, 8.926758
776.0242, 15.22656
776.5063, 37.60840
776.9885, 56.15332
777.4706, 68.93164
777.9527, 78.98047
778.4348, 87.25488
778.9169, 93.59082
779.3990, 92.23633
779.8812, 86.02051
780.3633, 102.6084
780.8454, 145.5215
781.3275, 179.4180
781.8096, 189.6982
782.2917, 189.8555
782.7739, 197.1572
783.2560, 211.8682
783.7381, 213.4463
784.2202, 184.0488
784.7023, 166.8359
785.1844, 164.4434
785.6666, 177.6055
786.1487, 220.7021
786.6308, 279.1562
787.1129, 312.8838
787.5950, 303.4053
788.0771, 288.9805
788.5593, 284.5820
789.0414, 288.9395
789.5235, 308.2207
790.0056, 331.3125
790.4877, 338.7988
790.9698, 323.8770
791.4520, 299.8086
791.9341, 273.4395
792.4162, 247.6660
792.8983, 230.6064
793.3804, 222.4971
793.8625, 230.6240
794.3447, 260.3955
794.8268, 285.0000
795.3089, 278.8164
795.7910, 245.1260
796.2731, 202.7637
796.7552, 132.3027
797.2374, 97.41992
797.7195, 132.1230
798.2016, 170.8311
798.6837, 182.6797
799.1658, 172.8467
799.6479, 144.2676
800.1301, 86.35254
800.6122, 57.38477
801.0943, 104.9648
801.5764, 153.2334
802.0585, 146.9219
802.5406, 115.2812
803.0228, 104.8936
803.5049, 123.0029
803.9870, 140.3145
804.4691, 136.1191
804.9512, 120.3428
805.4333, 105.9365
805.9155, 91.17773
806.3976, 65.00879
806.8797, 28.26758
807.3618, 9.512695
807.8439, 29.74023
808.3260, 67.84961
808.8082, 75.30078
809.2903, 47.99121
809.7724, 30.93555
810.2545, 24.65430
810.7366, 31.52734
811.2188, 59.76465
811.7009, 93.87793
812.1830, 114.0703
812.6651, 119.8281
813.1472, 114.5254
813.6293, 80.72168
814.1115, 59.59375
814.5936, 72.50195
815.0757, 90.00879
815.5578, 86.09082
816.0399, 66.46875
816.5220, 53.08301
817.0042, 51.31250
817.4863, 61.14551
817.9684, 98.43457
818.4505, 135.2207
818.9326, 142.0254
819.4147, 122.4941
819.8969, 84.45703
820.3790, 33.48047
820.8611, 7.007813
821.3432, 11.94727
821.8253, 10.34668
822.3074, 50.40527
822.7896, 102.9717
823.2717, 122.4160
823.7538, 96.12793
824.2359, 62.58594
824.7180, 51.50098
825.2001, 60.97754
825.6823, 88.36230
826.1644, 148.9434
826.6465, 166.1348
827.1286, 109.8555
827.6107, 57.07910
828.0928, 48.97949
828.5750, 64.50781
829.0571, 74.01367
829.5392, 78.17480
830.0213, 67.01562
830.5034, 11.72656
830.9855, 20.19629
831.4677, 21.13184
831.9498, 69.70312
832.4319, 57.20703
832.9140, 3.905273
833.3961, 50.17969
833.8782, 56.29980
834.3604, 46.75781
834.8425, 35.82520
835.3246, 19.78613
835.8067, 8.506836
836.2888, 45.51953
836.7709, 84.45703
837.2531, 122.0908
837.7352, 150.3027
838.2173, 160.9814
838.6994, 155.9873
839.1815, 133.8809
839.6636, 98.05078
840.1458, 74.01953
840.6279, 67.61816
841.1100, 67.38770
841.5921, 64.71191
842.0742, 61.83301
842.5563, 65.49902
843.0385, 77.38086
843.5206, 89.00781
844.0027, 104.0654
844.4848, 109.8799
844.9669, 99.41016
845.4490, 78.19824
845.9312, 48.00781
846.4133, 6.222656
846.8954, 8.148438
847.3775, 39.67188
847.8596, 67.12988
848.3417, 30.92578
848.8239, 6.495117
849.3060, 9.864258
849.7881, 62.00391
850.2702, 97.33887
850.7523, 100.1309
851.2344, 94.21973
851.7166, 86.44434
852.1987, 78.86523
852.6808, 71.49219
853.1629, 66.36621
853.6450, 67.14355
854.1271, 74.23730
854.6093, 84.46875
855.0914, 97.56445
855.5735, 109.4170
856.0556, 115.7988
856.5377, 115.8965
857.0198, 100.8906
857.5020, 73.60254
857.9841, 64.44922
858.4662, 91.36914
858.9483, 127.8525
859.4304, 125.8652
859.9125, 88.54297
860.3947, 73.67285
860.8768, 83.22949
861.3589, 99.78223
861.8410, 121.3916
862.3231, 137.8184
862.8052, 137.0068
863.2874, 123.0645
863.7695, 122.2441
864.2516, 147.7383
864.7337, 155.3320
865.2158, 125.2695
865.6979, 100.0557
866.1801, 101.7070
866.6622, 119.6045
867.1443, 142.6650
867.6264, 172.1670
868.1085, 191.7490
868.5906, 192.5898
869.0728, 192.5771
869.5549, 202.6416
870.0370, 209.8408
870.5191, 192.3096
871.0012, 161.6689
871.4833, 157.1279
871.9655, 198.7109
872.4476, 244.4180
872.9297, 270.9414
873.4118, 280.4834
873.8939, 269.9902
874.3760, 249.6250
874.8582, 236.7979
875.3403, 235.8379
875.8224, 239.8672
876.3045, 241.3037
876.7866, 248.3291
877.2687, 288.9580
877.7509, 341.4453
878.2330, 337.1348
878.7151, 276.8926
879.1972, 231.7246
879.6793, 239.1895
880.1614, 267.6768
880.6436, 266.4775
881.1257, 242.6631
881.6078, 247.4727
882.0899, 281.9990
882.5720, 318.9609
883.0541, 355.7197
883.5363, 368.7373
884.0184, 331.7754
884.5005, 265.2236
884.9826, 238.4277
885.4647, 262.1992
885.9468, 280.7197
886.4290, 286.4092
886.9111, 299.6582
887.3932, 341.2881
887.8753, 382.3359
888.3574, 380.5312
888.8395, 333.2021
889.3217, 301.6377
889.8038, 297.1514
890.2859, 289.7939
890.7680, 262.9404
891.2501, 237.8105
891.7322, 240.6211
892.2144, 256.0039
892.6965, 250.6396
893.1786, 216.6699
893.6607, 187.1475
894.1428, 165.0596
894.6249, 154.3662
895.1071, 165.1689
895.5892, 182.6807
896.0713, 190.7852
896.5534, 189.7188
897.0355, 189.6748
897.5176, 196.4561
897.9998, 200.9756
898.4819, 190.3359
898.9640, 175.3965
899.4461, 170.4502
899.9282, 171.7725
900.4103, 171.2812
900.8925, 166.1191
901.3746, 154.3379
901.8567, 127.9395
902.3388, 101.8145
902.8209, 100.3682
903.3030, 118.7334
903.7852, 133.4180
904.2673, 138.9160
904.7494, 146.7256
905.2315, 165.7598
905.7136, 181.3037
906.1957, 170.7168
906.6779, 142.0693
907.1600, 137.1465
907.6421, 154.2607
908.1242, 167.9346
908.6063, 173.0322
909.0884, 169.7949
909.5706, 157.5889
910.0527, 139.6113
910.5348, 120.6045
911.0169, 99.03809
911.4990, 93.34766
911.9811, 106.9785
912.4633, 123.8145
912.9454, 141.8135
913.4275, 155.0947
913.9096, 158.9980
914.3917, 153.0352
914.8738, 132.7812
915.3560, 84.54590
915.8381, 53.81445
916.3202, 47.54004
916.8023, 51.33789
917.2844, 63.31934
917.7665, 78.94824
918.2487, 96.47070
918.7308, 116.6953
919.2129, 116.5830
919.6950, 70.75781
920.1771, 40.55664
920.6592, 51.36719
921.1414, 63.19043
921.6235, 44.79785
922.1056, 12.97852
922.5877, 0.3232420
923.0698, 12.95801
923.5519, 26.73828
924.0341, 42.12012
924.5162, 49.70312
924.9983, 34.95117
925.4804, 19.04590
925.9625, 28.69531
926.4446, 54.59082
926.9268, 61.90137
927.4089, 34.50488
927.8910, 15.16211
928.3731, 46.36328
928.8552, 73.80859
929.3373, 30.53906
929.8195, 31.09668
930.3016, 20.05859
930.7837, 60.08594
931.2658, 121.2461
931.7479, 114.8809
932.2300, 85.80371
932.7122, 61.39062
933.1943, 44.96484
933.6764, 45.21484
934.1585, 56.20898
934.6406, 66.41797
935.1227, 71.53320
935.6049, 67.58398
936.0870, 48.19238
936.5691, 24.51660
937.0512, 6.558594
937.5333, 1.692383
938.0154, 18.36035
938.4976, 58.84766
938.9797, 80.61035
939.4618, 68.64941
939.9439, 43.82617
940.4260, 26.67969
940.9081, 14.06836
941.3903, 3.815430
941.8724, 24.37988
942.3545, 36.87402
942.8366, 39.35645
943.3187, 28.17383
943.8008, 0.8037110
944.2830, 32.83105
944.7651, 62.35156
945.2471, 85.01172
945.7292, 80.45605
946.2114, 49.49121
946.6935, 15.60449
947.1756, 17.44434
947.6577, 31.11621
948.1398, 9.660156
948.6219, 27.34082
949.1041, 37.88867
949.5862, 21.06445
950.0683, 23.96680
950.5504, 50.75000
951.0325, 65.33203
951.5146, 55.35547
951.9968, 42.39746
952.4789, 44.93750
952.9610, 56.65430
953.4431, 59.20898
953.9252, 52.18164
954.4073, 35.37305
954.8895, 1.390625
955.3716, 18.54395
955.8537, 12.19043
956.3358, 9.094727
956.8179, 41.23730
957.3000, 77.08984
957.7822, 76.62988
958.2643, 13.05957
958.7464, 9.170898
959.2285, 46.73145
959.7106, 76.41309
960.1927, 18.12305
960.6749, 59.15039
961.1570, 73.94238
961.6391, 32.22461
962.1212, 7.308594
962.6033, 10.42090
963.0854, 9.125000
963.5676, 1.515625
964.0497, 11.96680
964.5318, 15.82520
965.0139, 18.80664
965.4960, 32.76855
965.9781, 57.85938
966.4603, 63.69043
966.9424, 29.31152
967.4245, 7.111328
967.9066, 9.062500
968.3887, 14.91406
968.8708, 15.83398
969.3530, 13.77539
969.8351, 8.399414
970.3172, 1.038086
970.7993, 5.503906
971.2814, 46.71582
971.7635, 79.83887
972.2457, 102.4131
972.7278, 109.2764
973.2099, 76.10059
973.6920, 33.89746
974.1741, 47.76074
974.6563, 130.3516
975.1384, 164.9678
975.6205, 80.87500
976.1026, 15.47656
976.5847, 20.70312
977.0668, 44.55957
977.5490, 52.85645
978.0311, 50.42090
978.5132, 47.82129
978.9953, 44.81152
979.4774, 62.00586
979.9595, 138.6006
980.4417, 191.2871
980.9238, 165.5195
981.4059, 126.3545
981.8880, 123.1826
982.3701, 150.5850
982.8522, 191.4736
983.3344, 245.2305
983.8165, 288.2705
984.2986, 313.1367
984.7807, 325.3643
985.2628, 309.5820
985.7449, 296.8877
986.2271, 325.2783
986.7092, 378.4404
987.1913, 410.7949
987.6734, 405.8691
988.1555, 407.0039
988.6376, 444.8994
989.1198, 474.0996
989.6019, 452.6611
990.0840, 427.5967
990.5661, 452.8047
991.0482, 514.2568
991.5303, 566.0713
992.0125, 598.2891
992.4946, 610.5703
992.9767, 578.5098
993.4588, 555.1719
993.9409, 583.7930
994.4230, 626.0342
994.9052, 638.2969
995.3873, 627.7344
995.8694, 634.0615
996.3515, 674.5312
996.8336, 683.3262
997.3157, 592.5020
997.7979, 506.2627
998.2800, 504.9502
998.7621, 526.9082
999.2442, 501.9424
999.7263, 437.5420
1000.208, 377.7139
1000.691, 334.1787
1001.173, 306.8018
1001.655, 312.1523
1002.137, 315.0059
1002.619, 282.3447
1003.101, 245.2588
1003.583, 244.1279
1004.065, 268.4219
1004.547, 273.6611
1005.030, 240.8438
1005.512, 224.1055
1005.994, 274.8750
1006.476, 321.1230
1006.958, 303.3291
1007.440, 270.2676
1007.922, 286.3018
1008.404, 333.2031
1008.887, 341.3682
1009.369, 285.3896
1009.851, 236.9961
1010.333, 232.2666
1010.815, 237.3125
1011.297, 232.3047
1011.779, 227.9521
1012.261, 243.3945
1012.743, 268.2754
1013.226, 267.1523
1013.708, 227.0273
1014.190, 210.0264
1014.672, 257.1777
1015.154, 312.2432
1015.636, 357.2773
1016.118, 387.6553
1016.600, 397.6289
1017.083, 390.8809
1017.565, 366.8359
1018.047, 321.1289
1018.529, 297.5977
1019.011, 346.3906
1019.493, 387.9434
1019.975, 370.2314
1020.457, 338.5430
1020.939, 330.3330
1021.422, 343.2822
1021.904, 365.1875
1022.386, 394.6299
1022.868, 423.2197
1023.350, 466.5166
1023.832, 484.3584
1024.314, 433.9805
1024.796, 378.7773
1025.279, 371.8018
1025.761, 394.8311
1026.243, 405.1406
1026.725, 395.4062
1027.207, 396.5283
1027.689, 434.9375
1028.171, 457.6084
1028.653, 437.3818
1029.135, 408.6338
1029.618, 388.2822
1030.100, 378.0000
1030.582, 379.7852
1031.064, 394.0068
1031.546, 411.7871
1032.028, 436.1348
1032.510, 457.7588
1032.992, 464.8604
1033.474, 479.9688
1033.957, 529.8018
1034.439, 586.9766
1034.921, 610.1582
1035.403, 597.7051
1035.885, 593.7168
1036.367, 602.6367
1036.849, 612.1982
1037.331, 630.2969
1037.814, 644.1709
1038.296, 645.9678
1038.778, 642.0537
1039.260, 638.5410
1039.742, 633.8711
1040.224, 635.6396
1040.706, 659.8730
1041.188, 658.7158
1041.671, 596.3848
1042.153, 564.1006
1042.635, 623.8955
1043.117, 696.0557
1043.599, 691.1299
1044.081, 624.9824
1044.563, 595.4551
1045.045, 624.6016
1045.527, 631.3486
1046.010, 596.6270
1046.492, 576.7598
1046.974, 588.3711
1047.456, 625.5986
1047.938, 697.7148
1048.420, 780.4590
1048.902, 788.6924
1049.384, 699.8838
1049.866, 659.2354
1050.349, 681.2471
1050.831, 695.7578
1051.313, 675.3486
1051.795, 666.3857
1052.277, 707.6777
1052.759, 778.7334
1053.241, 837.3809
1053.723, 883.2266
1054.205, 921.2500
1054.688, 951.0381
1055.170, 974.8936
1055.652, 992.8330
1056.134, 1019.492
1056.616, 1062.758
1057.098, 1100.751
1057.580, 1090.225
1058.062, 1045.485
1058.545, 1052.755
1059.027, 1107.059
1059.509, 1150.011
1059.991, 1172.909
1060.473, 1177.702
1060.955, 1165.133
1061.437, 1139.140
1061.919, 1099.173
1062.401, 1055.682
1062.884, 1044.043
1063.366, 1050.320
1063.848, 1023.294
1064.330, 961.9766
1064.812, 884.7061
1065.294, 799.9219
1065.776, 725.7422
1066.258, 677.6084
1066.740, 647.4512
1067.223, 629.2393
1067.705, 617.0020
1068.187, 606.2402
1068.669, 590.1631
1069.151, 544.6729
1069.633, 471.7568
1070.115, 414.2285
1070.597, 399.1787
1071.080, 400.1309
1071.562, 390.9004
1072.044, 385.3379
1072.526, 415.4189
1073.008, 451.6963
1073.490, 443.6777
1073.972, 392.8955
1074.454, 331.3008
1074.937, 268.4590
1075.419, 216.0449
1075.901, 172.2939
1076.383, 151.2324
1076.865, 189.7842
1077.347, 233.6104
1077.829, 214.5312
1078.311, 156.2002
1078.793, 127.5840
1079.276, 144.2930
1079.758, 152.1484
1080.240, 124.5547
1080.722, 98.44531
1081.204, 78.45801
1081.686, 72.09961
1082.168, 92.42090
1082.650, 125.3584
1083.132, 154.5996
1083.615, 178.3516
1084.097, 182.5889
1084.579, 153.6855
1085.061, 124.9678
1085.543, 95.76270
1086.025, 70.20020
1086.507, 49.25684
1086.989, 33.14453
1087.472, 22.65039
1087.954, 16.49316
1088.436, 11.45020
1088.918, 6.751953
1089.400, 6.901367
1089.882, 16.09180
1090.364, 15.25684
1090.846, 7.791016
1091.328, 17.79688
1091.811, 19.27539
1092.293, 67.86719
1092.775, 47.04102
1093.257, 38.44824
1093.739, 58.18652
1094.221, 9.121094
1094.703, 26.56934
1095.185, 35.75781
1095.667, 24.74805
1096.150, 5.458008
1096.632, 26.78809
1097.114, 1.296875
1097.596, 53.98340
1098.078, 58.66211
1098.560, 29.38965
1099.042, 25.70215
1099.524, 45.02344
1100.007, 42.40234
1100.489, 7.521484
1100.971, 20.23340
1101.453, 8.340820
1101.935, 14.87500
1102.417, 0.9667970
1102.899, 22.09570
1103.381, 22.00488
1103.864, 92.82129
1104.346, 104.3486
1104.828, 57.80957
1105.310, 18.29297
1105.792, 12.95410
1106.274, 15.22168
1106.756, 13.40039
1107.238, 5.977539
1107.720, 20.38867
1108.203, 42.11719
1108.685, 25.05566
1109.167, 12.12012
1109.649, 25.20898
1110.131, 7.350586
1110.613, 2.231445
1111.095, 17.26758
1111.577, 30.49023
1112.059, 29.05762
1112.542, 19.91895
1113.024, 11.29199
1113.506, 35.59277
1113.988, 8.811523
1114.470, 58.52344
1114.952, 107.6621
1115.434, 142.7812
1115.916, 140.9639
1116.399, 77.63477
1116.881, 42.91113
1117.363, 71.85352
1117.845, 108.3633
1118.327, 113.3750
1118.809, 98.20508
1119.291, 81.32520
1119.773, 64.01172
1120.255, 77.69727
1120.738, 123.9375
1121.220, 146.5029
1121.702, 137.6475
1122.184, 114.7197
1122.666, 84.59375
1123.148, 77.93945
1123.630, 137.1270
1124.112, 218.0498
1124.594, 216.2480
1125.077, 162.9541
1125.559, 143.0059
1126.041, 152.2344
1126.523, 157.3418
1127.005, 151.5898
1127.487, 151.6143
1127.969, 169.6982
1128.451, 176.8301
1128.934, 120.0410
1129.416, 64.72266
1129.898, 98.86621
1130.380, 163.0811
1130.862, 181.5010
1131.344, 159.9434
1131.826, 134.3555
1132.308, 113.4697
1132.791, 96.32324
1133.273, 84.34082
1133.755, 73.09082
1134.237, 51.02930
1134.719, 40.73242
1135.201, 71.03516
1135.683, 109.6914
1136.165, 113.6270
1136.647, 87.95020
1137.130, 71.29688
1137.612, 60.02246
1138.094, 70.36133
1138.576, 121.7080
1139.058, 149.0664
1139.540, 129.4746
1140.022, 96.54492
1140.504, 69.53418
1140.986, 50.00781
1141.469, 38.86621
1141.951, 37.57520
1142.433, 69.94043
1142.915, 133.0869
1143.397, 134.1562
1143.879, 68.16895
1144.361, 18.22363
1144.843, 13.37012
1145.326, 29.89941
1145.808, 51.92578
1146.290, 70.59180
1146.772, 67.67090
1147.254, 55.33789
1147.736, 58.33984
1148.218, 68.78516
1148.700, 64.12012
1149.182, 47.14746
1149.665, 41.73145
1150.147, 55.92383
1150.629, 77.72266
1151.111, 106.7861
1151.593, 128.9941
1152.075, 137.8740
1152.557, 139.0605
1153.039, 142.4756
1153.521, 140.3320
1154.004, 112.5020
1154.486, 62.18066
1154.968, 35.26270
1155.450, 50.62012
1155.932, 56.08594
1156.414, 34.22070
1156.896, 30.71777
1157.378, 76.76172
1157.861, 108.8916
1158.343, 74.06543
1158.825, 9.364258
1159.307, 13.76855
1159.789, 1.953125
1160.271, 28.72949
1160.753, 66.43457
1161.235, 76.15332
1161.718, 53.00879
1162.200, 29.47070
1162.682, 17.41406
1163.164, 11.86133
1163.646, 7.916016
1164.128, 7.824219
1164.610, 14.43359
1165.092, 26.95312
1165.574, 53.39648
1166.057, 78.69238
1166.539, 66.67090
1167.021, 26.08984
1167.503, 0.7275390
1167.985, 0.8369140
1168.467, 11.42871
1168.949, 22.53223
1169.431, 36.95312
1169.913, 64.59277
1170.396, 87.75000
1170.878, 95.49805
1171.360, 86.23242
1171.842, 48.75488
1172.324, 7.166992
1172.806, 22.94727
1173.288, 21.12695
1173.770, 51.63770
1174.253, 70.21973
1174.735, 69.35840
1175.217, 37.83008
1175.699, 12.20508
1176.181, 13.75977
1176.663, 29.20801
1177.145, 43.45703
1177.627, 53.80371
1178.109, 44.78711
1178.592, 20.30176
1179.074, 11.46777
1179.556, 17.87891
1180.038, 24.41504
1180.520, 27.51660
1181.002, 31.05469
1181.484, 36.92871
1181.966, 48.16895
1182.448, 78.45898
1182.931, 104.7861
1183.413, 102.4268
1183.895, 81.25586
1184.377, 42.54688
1184.859, 0.3593750
1185.341, 27.78711
1185.823, 35.95410
1186.305, 25.94727
1186.788, 18.34570
1187.270, 45.71387
1187.752, 29.89941
1188.234, 18.54883
1188.716, 26.42285
1189.198, 45.43652
1189.680, 72.56738
1190.162, 103.4678
1190.645, 132.7422
1191.127, 159.3350
1191.609, 165.6914
1192.091, 150.6963
1192.573, 131.1270
1193.055, 108.3076
1193.537, 82.82422
1194.019, 55.40527
1194.501, 45.70703
1194.984, 71.07715
1195.466, 95.91211
1195.948, 55.43750
1196.430, 2.203125
1196.912, 4.535156
1197.394, 44.61621
1197.876, 70.42188
1198.358, 79.98633
1198.840, 86.34082
1199.323, 91.82910
1199.805, 85.50195
1200.287, 44.55664
1200.769, 30.58984
1201.251, 96.75781
1201.733, 151.6035
1202.215, 142.4043
1202.697, 117.8730
1203.180, 119.5479
1203.662, 135.2861
1204.144, 124.1562
1204.626, 86.70996
1205.108, 73.59766
1205.590, 90.96875
1206.072, 91.95898
1206.554, 70.63477
1207.036, 56.35742
1207.519, 60.05273
1208.001, 63.87207
1208.483, 51.84863
1208.965, 38.08887
1209.447, 38.97754
1209.929, 50.50293
1210.411, 88.09570
1210.893, 122.5205
1211.375, 92.47070
1211.858, 28.00391
1212.340, 9.680664
1212.822, 47.44043
1213.304, 78.65625
1213.786, 79.54980
1214.268, 72.66406
1214.750, 48.43750
1215.232, 39.63281
1215.715, 69.01562
1216.197, 97.38086
1216.679, 124.2812
1217.161, 144.5625
1217.643, 143.6250
1218.125, 125.0557
1218.607, 114.5195
1219.089, 113.9658
1219.572, 80.98047
1220.054, 14.06055
1220.536, 1.366211
1221.018, 52.90918
1221.500, 104.3613
1221.982, 115.3066
1222.464, 107.5703
1222.946, 97.08301
1223.428, 86.29688
1223.911, 77.31641
1224.393, 71.24707
1224.875, 69.31055
1225.357, 70.26270
1225.839, 77.30859
1226.321, 85.92188
1226.803, 72.32617
1227.285, 17.74902
1227.767, 8.049805
1228.250, 33.18945
1228.732, 64.40723
1229.214, 67.76660
1229.696, 65.12988
1230.178, 67.95117
1230.660, 72.63965
1231.142, 76.15332
1231.624, 80.36621
1232.107, 90.91113
1232.589, 105.8379
1233.071, 108.8232
1233.553, 99.15527
1234.035, 84.71680
1234.517, 67.81152
1234.999, 67.69727
1235.481, 89.43848
1235.964, 100.7490
1236.446, 73.24902
1236.928, 41.89648
1237.410, 26.97168
1237.892, 23.67871
1238.374, 22.65039
1238.856, 21.54492
1239.338, 15.62695
1239.820, 8.887695
1240.302, 14.36230
1240.785, 32.42871
1241.267, 37.02344
1241.749, 19.83301
1242.231, 21.68652
1242.713, 51.21777
1243.195, 56.51074
1243.677, 19.52832
1244.159, 1.109375
1244.641, 35.94434
1245.124, 80.68359
1245.606, 64.11230
1246.088, 0.0000000E+00
##END=



