##NAMES=Ferrimolybdite
##RRUFFID=R050566
##IDEAL CHEMISTRY=Fe^3+^_2_(Mo^6+^O_4_)_3_&#183;7H_2_O
##LOCALITY=Kingman, Arizona, USA
##OWNER=RRUFF
##SOURCE=University of Arizona Mineral Museum
##DESCRIPTION=Yellow fibrous aggregate
##STATUS=The identification of this mineral has been confirmed only by chemical analysis
##URL=rruff.info/R050566
##MEASURED CHEMISTRY=Wavelength dispersive spectroscopy (WDS) scanning shows Mo and Fe only.
150.8978, 0.0000000E+00
151.3799, 4.3457001E-02
151.8620, 2.827637
152.3441, 14.84106
152.8262, 28.74097
153.3084, 39.75256
153.7905, 32.37305
154.2726, 22.42786
154.7547, 12.77234
155.2368, 0.7116700
155.7189, 6.861206
156.2011, 1.083618
156.6832, 17.50879
157.1653, 28.38599
157.6474, 28.46777
158.1295, 24.18994
158.6116, 18.30029
159.0938, 6.504639
159.5759, 0.4060060
160.0580, 4.614136
160.5401, 17.67517
161.0222, 25.56262
161.5044, 15.65430
161.9865, 3.867310
162.4686, 1.228516
162.9507, 18.12915
163.4328, 35.75378
163.9149, 48.86340
164.3971, 57.42578
164.8792, 60.25562
165.3613, 48.96704
165.8434, 35.15881
166.3255, 29.49377
166.8076, 43.66846
167.2898, 59.53564
167.7719, 66.54797
168.2540, 65.55286
168.7361, 63.68469
169.2182, 60.95593
169.7003, 60.88672
170.1825, 67.69910
170.6646, 94.19995
171.1467, 120.5392
171.6288, 128.2620
172.1109, 117.9274
172.5931, 106.6066
173.0752, 107.4584
173.5573, 115.3047
174.0394, 121.8110
174.5215, 123.3185
175.0036, 121.9034
175.4858, 118.2101
175.9679, 112.0984
176.4500, 108.3385
176.9321, 114.5200
177.4142, 126.3384
177.8963, 133.8718
178.3785, 129.8069
178.8606, 119.9445
179.3427, 112.9987
179.8248, 109.1156
180.3069, 107.1232
180.7890, 107.2703
181.2712, 108.7046
181.7533, 108.6620
182.2354, 104.3684
182.7175, 97.87695
183.1996, 93.90918
183.6818, 92.79797
184.1639, 92.78796
184.6460, 91.43225
185.1281, 89.12769
185.6102, 87.91809
186.0923, 90.44055
186.5745, 95.03406
187.0566, 95.21167
187.5387, 89.60608
188.0208, 83.67712
188.5029, 85.78735
188.9850, 95.35669
189.4672, 105.1417
189.9493, 112.2806
190.4314, 116.8083
190.9135, 118.0842
191.3956, 114.8481
191.8777, 111.5055
192.3599, 115.7550
192.8420, 127.6246
193.3241, 140.4662
193.8062, 150.8132
194.2883, 158.9568
194.7704, 167.2271
195.2526, 175.6886
195.7347, 184.2854
196.2168, 193.3052
196.6989, 202.8226
197.1810, 211.2753
197.6632, 215.8610
198.1453, 216.6119
198.6274, 224.4330
199.1095, 242.1315
199.5916, 264.0559
200.0737, 277.7906
200.5559, 282.4467
201.0380, 285.3658
201.5201, 289.5122
202.0022, 294.7883
202.4843, 303.9556
202.9664, 318.1898
203.4486, 335.4205
203.9307, 350.7692
204.4128, 363.6362
204.8949, 376.6290
205.3770, 391.3541
205.8591, 408.1228
206.3413, 424.2529
206.8234, 439.2612
207.3055, 453.7498
207.7876, 469.3152
208.2697, 485.9309
208.7519, 502.4561
209.2340, 519.4756
209.7161, 536.8070
210.1982, 555.7335
210.6803, 577.1832
211.1624, 599.7419
211.6446, 619.2163
212.1267, 634.1997
212.6088, 649.2524
213.0909, 666.8315
213.5730, 687.2035
214.0551, 709.0308
214.5373, 732.7018
215.0194, 757.3271
215.5015, 780.7566
215.9836, 802.4297
216.4657, 824.3438
216.9478, 847.8881
217.4300, 873.2810
217.9121, 899.7644
218.3942, 927.5275
218.8763, 956.0164
219.3584, 983.2190
219.8405, 1008.039
220.3227, 1033.093
220.8048, 1059.825
221.2869, 1089.382
221.7690, 1117.694
222.2511, 1143.971
222.7333, 1168.899
223.2154, 1193.833
223.6975, 1218.928
224.1796, 1244.307
224.6617, 1270.367
225.1438, 1297.467
225.6260, 1323.931
226.1081, 1350.162
226.5902, 1375.997
227.0723, 1399.478
227.5544, 1419.776
228.0365, 1439.305
228.5187, 1459.260
229.0008, 1480.425
229.4829, 1499.334
229.9650, 1517.382
230.4471, 1533.455
230.9292, 1543.139
231.4114, 1541.537
231.8935, 1539.745
232.3756, 1544.196
232.8577, 1562.123
233.3398, 1570.135
233.8220, 1568.028
234.3041, 1555.825
234.7862, 1532.656
235.2683, 1492.031
235.7504, 1449.989
236.2325, 1413.018
236.7147, 1384.000
237.1968, 1355.890
237.6789, 1328.337
238.1610, 1300.815
238.6431, 1273.344
239.1252, 1246.575
239.6074, 1219.623
240.0895, 1192.803
240.5716, 1169.087
241.0537, 1136.722
241.5358, 1089.060
242.0179, 1035.437
242.5001, 995.5448
242.9822, 977.4753
243.4643, 960.2139
243.9464, 935.9878
244.4285, 901.8735
244.9106, 869.8613
245.3928, 840.4817
245.8749, 812.5366
246.3570, 784.0547
246.8391, 754.9958
247.3212, 725.3792
247.8034, 695.1072
248.2855, 663.8594
248.7676, 632.9993
249.2497, 602.7819
249.7318, 572.6060
250.2139, 540.8853
250.6961, 504.3821
251.1782, 472.3641
251.6603, 448.4490
252.1424, 434.3798
252.6245, 417.6471
253.1066, 396.8502
253.5888, 374.5657
254.0709, 352.9764
254.5530, 329.4238
255.0351, 312.1553
255.5172, 305.7135
255.9993, 311.6647
256.4815, 311.2375
256.9636, 304.1426
257.4457, 290.9979
257.9278, 270.6716
258.4099, 237.5557
258.8921, 210.0892
259.3742, 193.5012
259.8563, 188.1093
260.3384, 181.6837
260.8205, 174.2957
261.3026, 165.8898
261.7848, 155.6294
262.2669, 141.9415
262.7490, 131.3009
263.2311, 126.7356
263.7132, 127.5498
264.1953, 121.9374
264.6775, 106.7114
265.1596, 90.26782
265.6417, 79.92358
266.1238, 76.76782
266.6059, 76.15515
267.0880, 78.12939
267.5702, 82.20142
268.0523, 84.97180
268.5344, 86.35449
269.0165, 86.64929
269.4986, 85.74634
269.9807, 83.16821
270.4629, 81.49585
270.9450, 81.28027
271.4271, 82.15527
271.9092, 83.09949
272.3913, 84.65918
272.8734, 84.71606
273.3556, 81.36499
273.8377, 74.06409
274.3198, 66.84216
274.8019, 59.50305
275.2840, 52.78699
275.7661, 49.40271
276.2483, 50.28003
276.7304, 50.62512
277.2125, 47.48181
277.6946, 40.64307
278.1768, 32.74487
278.6589, 22.66101
279.1410, 13.32190
279.6231, 12.64417
280.1052, 22.16516
280.5873, 29.94238
281.0695, 27.99402
281.5516, 16.50269
282.0337, 10.27368
282.5158, 11.01868
282.9979, 14.21667
283.4800, 12.25244
283.9622, 4.874390
284.4443, 2.625610
284.9264, 8.642578
285.4085, 13.04504
285.8906, 14.17542
286.3727, 11.27234
286.8549, 7.918457
287.3370, 9.879028
287.8191, 16.83398
288.3012, 21.83398
288.7833, 20.89380
289.2654, 16.01978
289.7476, 14.95520
290.2297, 18.03772
290.7118, 22.19800
291.1939, 24.93274
291.6760, 26.15002
292.1581, 25.20483
292.6403, 20.21887
293.1224, 13.84253
293.6045, 13.69702
294.0866, 19.82568
294.5687, 25.06311
295.0508, 21.22034
295.5330, 10.96521
296.0151, 3.735229
296.4972, 2.397705
296.9793, 4.264893
297.4614, 5.937866
297.9435, 7.272827
298.4257, 6.755981
298.9078, 8.741386
299.3899, 11.12420
299.8720, 11.72205
300.3541, 16.16626
300.8362, 18.86890
301.3184, 19.05798
301.8005, 17.23657
302.2826, 15.45667
302.7647, 13.45435
303.2469, 12.71240
303.7290, 16.30310
304.2111, 25.52466
304.6932, 35.13672
305.1753, 39.43640
305.6574, 40.03198
306.1396, 40.55139
306.6217, 43.15833
307.1038, 46.42444
307.5859, 48.30420
308.0680, 48.44287
308.5501, 49.78577
309.0323, 56.05432
309.5144, 64.77136
309.9965, 71.96326
310.4786, 72.49341
310.9607, 73.48389
311.4428, 82.48853
311.9250, 99.18933
312.4071, 112.9855
312.8892, 113.6132
313.3713, 109.3123
313.8534, 108.7418
314.3355, 117.7168
314.8177, 128.4507
315.2998, 137.2079
315.7819, 144.3041
316.2640, 151.6890
316.7461, 159.6609
317.2282, 168.4734
317.7104, 178.9510
318.1925, 195.9365
318.6746, 207.6001
319.1567, 204.0797
319.6388, 191.4907
320.1209, 186.2628
320.6031, 198.1191
321.0852, 215.1851
321.5673, 232.0895
322.0494, 249.1151
322.5315, 263.6497
323.0136, 273.8258
323.4958, 281.4287
323.9779, 289.3525
324.4600, 298.7664
324.9421, 308.0442
325.4242, 315.8839
325.9064, 321.2737
326.3885, 329.8287
326.8706, 345.8959
327.3527, 363.7474
327.8348, 377.5472
328.3170, 383.4215
328.7991, 389.1714
329.2812, 394.9537
329.7633, 400.6836
330.2454, 410.1575
330.7275, 428.4598
331.2097, 446.2250
331.6918, 456.5370
332.1739, 454.1250
332.6560, 452.6619
333.1381, 453.3229
333.6202, 455.8369
334.1024, 459.2493
334.5845, 464.3315
335.0666, 469.0703
335.5487, 472.8053
336.0308, 476.4238
336.5129, 476.0527
336.9951, 469.8098
337.4772, 460.8191
337.9593, 455.7435
338.4414, 456.1636
338.9235, 455.8416
339.4056, 451.5172
339.8878, 442.6643
340.3699, 437.2950
340.8520, 436.6897
341.3341, 437.1554
341.8162, 432.2635
342.2983, 421.0065
342.7805, 413.8898
343.2626, 416.3009
343.7447, 425.8582
344.2268, 429.0576
344.7089, 425.2744
345.1910, 418.7117
345.6732, 413.1669
346.1553, 408.4348
346.6374, 402.5732
347.1195, 394.2449
347.6016, 385.7880
348.0837, 384.1393
348.5659, 388.7316
349.0480, 391.0182
349.5301, 382.7794
350.0122, 368.0221
350.4944, 357.1223
350.9765, 351.8525
351.4586, 349.0115
351.9407, 346.1313
352.4228, 342.8447
352.9049, 338.2848
353.3871, 330.1299
353.8692, 321.3152
354.3513, 316.0717
354.8334, 314.5610
355.3155, 313.3866
355.7976, 309.6621
356.2798, 304.5709
356.7619, 300.0797
357.2440, 297.0631
357.7261, 294.6267
358.2082, 292.4111
358.6903, 290.3171
359.1725, 287.7894
359.6546, 283.5262
360.1367, 279.1647
360.6188, 276.4480
361.1009, 277.7117
361.5830, 277.6923
362.0652, 272.7584
362.5473, 264.7684
363.0294, 258.2853
363.5115, 256.8700
363.9936, 255.8068
364.4757, 252.5194
364.9579, 245.8380
365.4400, 239.8376
365.9221, 235.4813
366.4042, 232.2112
366.8863, 229.3152
367.3684, 229.3784
367.8506, 227.1527
368.3327, 220.7745
368.8148, 209.8994
369.2969, 199.2039
369.7790, 187.4214
370.2611, 176.6956
370.7433, 168.5964
371.2254, 165.1797
371.7075, 161.1996
372.1896, 155.5043
372.6717, 148.8275
373.1538, 144.6531
373.6360, 144.7456
374.1181, 144.4274
374.6002, 140.4963
375.0823, 130.1915
375.5645, 127.0472
376.0466, 134.6713
376.5287, 145.4902
377.0108, 146.1527
377.4929, 134.8203
377.9750, 122.1055
378.4572, 110.6864
378.9393, 100.7463
379.4214, 95.19177
379.9035, 94.74646
380.3856, 95.92590
380.8677, 95.62915
381.3499, 93.91235
381.8320, 91.40332
382.3141, 87.73596
382.7962, 83.86523
383.2783, 81.92700
383.7604, 81.83130
384.2426, 82.05872
384.7247, 81.33081
385.2068, 80.18640
385.6889, 80.80029
386.1710, 84.27209
386.6531, 85.71924
387.1353, 76.69263
387.6174, 61.13135
388.0995, 49.21118
388.5816, 48.40063
389.0637, 51.88660
389.5458, 53.91223
390.0280, 54.29468
390.5101, 51.54907
390.9922, 41.27539
391.4743, 28.72632
391.9564, 19.59253
392.4385, 16.48352
392.9207, 16.19702
393.4028, 19.32166
393.8849, 24.35510
394.3670, 26.75574
394.8491, 23.53821
395.3312, 18.07800
395.8134, 11.68616
396.2955, 9.668401
396.7776, 2.643188
397.2597, 4.909180
397.7418, 4.708740
398.2239, 3.800171
398.7061, 0.4554440
399.1882, 1.623047
399.6703, 0.4809570
400.1524, 4.135254
400.6346, 5.611938
401.1167, 2.525879
401.5988, 2.488281
402.0809, 7.989014
402.5630, 15.52441
403.0451, 20.22021
403.5273, 19.97009
404.0094, 17.15515
404.4915, 18.92981
404.9736, 26.85278
405.4557, 35.53186
405.9378, 42.25281
406.4200, 46.62170
406.9021, 53.84668
407.3842, 64.47241
407.8663, 76.54736
408.3484, 88.86011
408.8305, 101.5348
409.3127, 109.6975
409.7948, 110.0277
410.2769, 106.1412
410.7590, 106.6124
411.2411, 111.4794
411.7232, 122.2729
412.2054, 145.4348
412.6875, 175.8169
413.1696, 196.9208
413.6517, 204.6132
414.1338, 209.5487
414.6159, 225.0221
415.0981, 247.8186
415.5802, 269.1573
416.0623, 283.4523
416.5444, 294.6500
417.0265, 305.5968
417.5086, 316.4906
417.9908, 328.4694
418.4729, 340.6749
418.9550, 354.8982
419.4371, 373.1003
419.9192, 400.4941
420.4013, 426.5237
420.8835, 445.7318
421.3656, 459.8805
421.8477, 474.5953
422.3298, 491.4091
422.8119, 509.1100
423.2940, 527.8903
423.7762, 548.8809
424.2583, 567.0779
424.7404, 581.4336
425.2225, 587.7430
425.7047, 602.3542
426.1868, 613.0165
426.6689, 611.4453
427.1510, 622.9625
427.6331, 627.5784
428.1152, 630.8477
428.5974, 642.0859
429.0795, 647.5969
429.5616, 648.5554
430.0437, 643.1749
430.5258, 640.6592
431.0079, 642.8561
431.4901, 646.0759
431.9722, 643.3000
432.4543, 633.9668
432.9364, 623.9773
433.4185, 616.1611
433.9006, 609.6371
434.3828, 601.9462
434.8649, 593.1324
435.3470, 583.1519
435.8291, 570.6367
436.3112, 556.5883
436.7933, 545.0865
437.2755, 537.4099
437.7576, 531.3635
438.2397, 523.1871
438.7218, 513.4532
439.2039, 503.2341
439.6860, 494.0660
440.1682, 484.2198
440.6503, 474.2474
441.1324, 463.9836
441.6145, 453.7173
442.0966, 446.6937
442.5787, 439.6426
443.0609, 431.4491
443.5430, 419.0634
444.0251, 408.0555
444.5072, 400.8108
444.9893, 395.6665
445.4714, 389.2942
445.9536, 379.0072
446.4357, 369.0481
446.9178, 363.1261
447.3999, 361.8910
447.8820, 358.8088
448.3641, 353.9871
448.8463, 348.0735
449.3284, 342.4985
449.8105, 339.4658
450.2926, 333.6373
450.7747, 324.0457
451.2569, 311.9791
451.7390, 302.9954
452.2211, 298.5574
452.7032, 294.9053
453.1853, 289.7390
453.6674, 283.0103
454.1496, 276.1580
454.6317, 268.9717
455.1138, 262.5045
455.5959, 259.6595
456.0780, 259.9548
456.5602, 258.2938
457.0423, 252.2351
457.5244, 243.3812
458.0065, 233.9426
458.4886, 224.2833
458.9707, 216.5786
459.4529, 214.9907
459.9350, 215.6567
460.4171, 212.5514
460.8992, 203.8854
461.3813, 194.0936
461.8634, 184.5734
462.3456, 176.5892
462.8277, 172.4763
463.3098, 177.8716
463.7919, 183.0651
464.2740, 181.9147
464.7561, 174.8097
465.2383, 169.4401
465.7204, 172.5115
466.2025, 174.9894
466.6846, 170.7834
467.1667, 151.6083
467.6488, 138.0682
468.1310, 135.2961
468.6131, 137.6021
469.0952, 135.7209
469.5773, 127.1442
470.0594, 118.3549
470.5415, 110.4331
471.0237, 103.4597
471.5058, 98.58362
471.9879, 96.71582
472.4700, 94.92004
472.9521, 90.67236
473.4342, 71.57861
473.9164, 82.40295
474.3985, 86.82996
474.8806, 85.20557
475.3627, 59.09399
475.8448, 64.84314
476.3270, 57.97058
476.8091, 50.68091
477.2912, 61.21423
477.7733, 39.20435
478.2554, 49.66650
478.7375, 47.31201
479.2197, 50.97473
479.7018, 41.93860
480.1839, 36.96167
480.6660, 44.89758
481.1481, 45.84546
481.6302, 35.75208
482.1124, 40.41748
482.5945, 19.00378
483.0766, 20.67065
483.5587, 32.35413
484.0408, 23.42407
484.5229, 28.84326
485.0051, 28.94104
485.4872, 4.486206
485.9693, 23.01355
486.4514, 23.10132
486.9335, 4.251221
487.4156, 21.61938
487.8978, 5.599121
488.3799, 1.636108
488.8620, 6.771606
489.3441, 2.631226
489.8262, 13.37830
490.3083, 0.3187260
490.7905, 7.537964
491.2726, 9.988525
491.7547, 5.939697
492.2368, 1.995728
492.7189, 4.214355
493.2010, 11.52161
493.6832, 16.27112
494.1653, 17.81360
494.6474, 16.79749
495.1295, 21.47449
495.6116, 9.796387
496.0938, 3.297119
496.5759, 1.693359
497.0580, 19.89417
497.5401, 12.33435
498.0222, 14.98926
498.5044, 17.98828
498.9865, 6.580322
499.4686, 21.49744
499.9507, 10.16052
500.4328, 9.194946
500.9149, 3.365967
501.3971, 7.810425
501.8792, 8.974731
502.3613, 0.3021240
502.8434, 3.925903
503.3255, 1.379639
503.8076, 5.250854
504.2898, 9.208984
504.7719, 5.006836
505.2540, 7.295288
505.7361, 2.927002
506.2182, 10.16479
506.7003, 13.10352
507.1825, 3.812134
507.6646, 14.03735
508.1467, 16.97510
508.6288, 4.600952
509.1109, 21.52209
509.5930, 11.44336
510.0752, 11.12048
510.5573, 18.16016
511.0394, 17.70300
511.5215, 29.29407
512.0037, 24.99182
512.4858, 25.83740
512.9679, 25.26550
513.4500, 22.43311
513.9321, 17.39099
514.4142, 14.16309
514.8964, 17.35461
515.3785, 23.02527
515.8606, 26.92395
516.3427, 27.43652
516.8248, 27.14636
517.3069, 25.56152
517.7891, 24.02527
518.2712, 25.03662
518.7533, 33.15735
519.2354, 39.82788
519.7175, 41.35413
520.1996, 37.88745
520.6818, 37.59839
521.1639, 42.19751
521.6460, 47.88232
522.1281, 52.45203
522.6102, 55.62708
523.0923, 58.84668
523.5745, 62.14575
524.0566, 65.50073
524.5387, 68.69116
525.0208, 71.72351
525.5029, 75.60352
525.9850, 81.28711
526.4672, 87.40491
526.9493, 91.06873
527.4314, 92.42615
527.9135, 92.66443
528.3956, 90.62524
528.8777, 88.74524
529.3599, 90.53577
529.8420, 96.40735
530.3241, 104.1696
530.8062, 114.3868
531.2883, 125.0024
531.7704, 133.4838
532.2526, 138.5942
532.7347, 142.4791
533.2168, 146.7294
533.6989, 150.2483
534.1810, 150.5624
534.6631, 141.3103
535.1453, 135.0486
535.6274, 136.5515
536.1095, 146.1320
536.5916, 151.5890
537.0737, 150.4788
537.5558, 149.1084
538.0380, 152.8018
538.5201, 162.9901
539.0022, 167.5796
539.4843, 164.1042
539.9664, 158.9027
540.4485, 162.3602
540.9307, 173.4332
541.4128, 183.6594
541.8949, 189.7147
542.3770, 193.7412
542.8591, 199.1635
543.3412, 205.6333
543.8234, 212.2139
544.3055, 217.9058
544.7876, 223.3756
545.2697, 229.4923
545.7518, 236.2212
546.2339, 242.9221
546.7161, 250.0767
547.1982, 256.6304
547.6803, 261.8988
548.1624, 264.8016
548.6445, 266.7772
549.1266, 269.1890
549.6088, 271.4883
550.0909, 271.3855
550.5730, 265.0844
551.0551, 261.3860
551.5372, 264.0050
552.0193, 272.2701
552.5015, 277.1736
552.9836, 277.8702
553.4657, 277.5935
553.9478, 276.5498
554.4299, 274.7064
554.9120, 274.6270
555.3942, 278.7368
555.8763, 282.1930
556.3584, 278.5668
556.8405, 271.3373
557.3226, 265.5962
557.8047, 265.9911
558.2869, 268.1522
558.7690, 269.7275
559.2511, 269.9978
559.7332, 268.9702
560.2154, 267.1637
560.6975, 264.5920
561.1796, 260.6737
561.6617, 256.1191
562.1439, 250.8969
562.6260, 246.1248
563.1081, 242.5310
563.5902, 239.2664
564.0723, 236.1875
564.5544, 235.3157
565.0366, 237.1982
565.5187, 240.4357
566.0008, 239.7924
566.4829, 234.0387
566.9650, 230.3721
567.4471, 230.4111
567.9293, 232.2616
568.4114, 229.7749
568.8935, 223.2241
569.3756, 218.9644
569.8577, 223.2124
570.3398, 231.0330
570.8220, 232.8907
571.3041, 228.8352
571.7862, 224.2356
572.2683, 222.5049
572.7504, 222.5763
573.2325, 214.1301
573.7147, 226.2008
574.1968, 233.0076
574.6789, 234.7068
575.1610, 216.3383
575.6431, 223.4795
576.1252, 220.2667
576.6074, 216.8345
577.0895, 227.9757
577.5716, 212.7235
578.0537, 223.3591
578.5358, 223.4381
579.0179, 228.4230
579.5001, 223.2496
579.9822, 221.3572
580.4643, 229.6897
580.9464, 218.5725
581.4285, 230.9086
581.9106, 238.0997
582.3928, 240.3654
582.8749, 222.7151
583.3570, 230.7030
583.8391, 228.3093
584.3212, 225.4292
584.8033, 237.0139
585.2855, 222.4629
585.7676, 234.2600
586.2497, 235.5422
586.7318, 241.4297
587.2139, 236.6396
587.6960, 234.6967
588.1782, 233.6111
588.6603, 227.7271
589.1424, 227.5259
589.6245, 220.0061
590.1066, 215.5077
590.5887, 215.8502
591.0709, 216.6511
591.5530, 214.7147
592.0351, 209.3672
592.5172, 206.4282
592.9993, 206.3003
593.4814, 207.2178
593.9636, 208.2393
594.4457, 208.7896
594.9278, 205.6810
595.4099, 196.8794
595.8920, 187.1765
596.3741, 183.1353
596.8563, 182.8978
597.3384, 181.8866
597.8205, 177.5035
598.3026, 171.9594
598.7847, 166.2538
599.2668, 160.5259
599.7490, 155.5957
600.2311, 152.9733
600.7132, 150.1959
601.1953, 145.0735
601.6774, 135.1649
602.1595, 132.6414
602.6417, 142.9568
603.1238, 153.1626
603.6059, 149.0779
604.0880, 126.8950
604.5701, 116.0883
605.0522, 122.2953
605.5344, 135.8757
606.0165, 142.1624
606.4986, 141.7118
606.9807, 136.7898
607.4628, 126.2419
607.9449, 113.5748
608.4271, 103.2899
608.9092, 95.10803
609.3913, 88.21387
609.8735, 81.30481
610.3556, 76.19324
610.8377, 74.87634
611.3198, 77.60217
611.8019, 79.74243
612.2841, 81.04089
612.7662, 80.65613
613.2483, 77.71362
613.7304, 70.31604
614.2125, 65.01489
614.6946, 63.11414
615.1768, 61.81580
615.6589, 56.01111
616.1410, 43.96228
616.6231, 41.04407
617.1052, 53.29138
617.5873, 70.80798
618.0695, 71.69006
618.5516, 58.71606
619.0337, 47.26404
619.5158, 46.98853
619.9979, 50.35950
620.4800, 47.71301
620.9622, 40.12122
621.4443, 33.15955
621.9264, 27.65088
622.4085, 25.32019
622.8906, 29.12903
623.3727, 40.76941
623.8549, 47.62439
624.3370, 43.77771
624.8191, 36.87610
625.3012, 31.77771
625.7833, 28.80542
626.2654, 26.83411
626.7476, 26.11792
627.2297, 26.01025
627.7118, 25.62634
628.1939, 24.95715
628.6760, 24.79712
629.1581, 26.05127
629.6403, 26.73706
630.1224, 21.92432
630.6045, 13.22278
631.0866, 6.640869
631.5687, 6.097290
632.0508, 8.341797
632.5330, 12.06165
633.0151, 16.54321
633.4972, 18.34473
633.9793, 12.23279
634.4614, 6.201904
634.9435, 5.354004
635.4257, 11.71411
635.9078, 14.31445
636.3899, 10.12207
636.8720, 4.921509
637.3541, 3.008667
637.8362, 5.431396
638.3184, 6.076294
638.8005, 4.229248
639.2826, 1.616943
639.7647, 0.4074710
640.2468, 0.4582520
640.7289, 0.9624020
641.2111, 2.206909
641.6932, 2.811768
642.1753, 7.1167000E-02
642.6574, 4.935059
643.1395, 8.125244
643.6216, 7.640259
644.1038, 5.353394
644.5859, 0.7913820
645.0680, 5.124390
645.5501, 8.430054
646.0322, 6.298950
646.5143, 3.163574
646.9965, 0.5079350
647.4786, 1.628662
647.9607, 4.003296
648.4428, 6.767944
648.9249, 9.450684
649.4070, 12.17468
649.8892, 14.88623
650.3713, 15.34338
650.8534, 13.25793
651.3355, 9.975708
651.8176, 5.566650
652.2997, 1.178833
652.7819, 0.3070070
653.2640, 2.630981
653.7461, 6.128052
654.2282, 7.537598
654.7103, 7.574951
655.1924, 7.311035
655.6746, 6.591309
656.1567, 6.085205
656.6388, 5.909058
657.1209, 6.082642
657.6030, 6.634521
658.0851, 7.161987
658.5673, 8.927734
659.0494, 13.38843
659.5316, 19.50427
660.0137, 19.78650
660.4958, 13.67114
660.9779, 8.158936
661.4600, 9.069824
661.9421, 13.54529
662.4243, 14.10291
662.9064, 10.60754
663.3885, 5.577637
663.8706, 0.8764650
664.3527, 6.829102
664.8348, 10.21948
665.3170, 10.41687
665.7991, 9.331055
666.2812, 6.034668
666.7633, 2.575073
667.2454, 0.9674070
667.7275, 2.293945
668.2097, 3.568237
668.6918, 4.602295
669.1739, 5.732178
669.6560, 7.778564
670.1381, 10.92615
670.6202, 13.00684
671.1024, 13.40320
671.5845, 12.50562
672.0666, 9.134888
672.5487, 4.578491
673.0308, 3.860229
673.5129, 13.53369
673.9951, 24.75879
674.4772, 29.34985
674.9593, 28.87817
675.4414, 29.47192
675.9235, 34.86377
676.4056, 40.40320
676.8878, 44.47119
677.3699, 47.18152
677.8520, 46.65552
678.3341, 40.29211
678.8162, 34.37415
679.2983, 33.18152
679.7805, 37.18372
680.2626, 38.03699
680.7447, 35.17065
681.2268, 32.89783
681.7089, 35.82654
682.1910, 42.32654
682.6732, 48.69543
683.1553, 54.66077
683.6374, 58.90051
684.1195, 58.74939
684.6016, 56.95349
685.0837, 56.98352
685.5659, 60.37378
686.0480, 64.81909
686.5301, 71.73303
687.0122, 78.90369
687.4943, 82.36755
687.9764, 79.04004
688.4586, 78.09485
688.9407, 82.26245
689.4228, 89.21387
689.9049, 92.19775
690.3870, 91.23730
690.8691, 89.30371
691.3513, 86.34900
691.8334, 83.74500
692.3155, 84.72302
692.7976, 88.91174
693.2797, 94.03064
693.7618, 99.41431
694.2440, 104.0212
694.7261, 107.2368
695.2082, 109.0845
695.6903, 110.4862
696.1724, 109.8948
696.6545, 110.2587
697.1367, 113.2458
697.6188, 119.4546
698.1009, 124.6699
698.5830, 128.7397
699.0651, 132.2690
699.5472, 136.5289
700.0294, 140.8934
700.5115, 140.7419
700.9936, 135.3809
701.4757, 129.5166
701.9578, 126.6948
702.4399, 126.8987
702.9221, 130.5939
703.4042, 139.2438
703.8863, 146.5186
704.3684, 147.5500
704.8505, 145.9482
705.3326, 145.9801
705.8148, 150.0217
706.2969, 153.4297
706.7790, 155.4911
707.2611, 157.0562
707.7432, 160.4343
708.2253, 166.7506
708.7075, 168.5931
709.1896, 162.4807
709.6718, 153.2966
710.1539, 150.7180
710.6360, 153.6218
711.1181, 157.8896
711.6002, 163.3914
712.0823, 168.1702
712.5645, 169.8849
713.0466, 169.3956
713.5287, 169.7346
714.0108, 172.7745
714.4929, 176.0554
714.9750, 178.9991
715.4572, 181.5281
715.9393, 181.8846
716.4214, 178.5940
716.9035, 175.8467
717.3856, 176.1595
717.8677, 179.4968
718.3499, 181.1719
718.8320, 181.1138
719.3141, 181.4014
719.7962, 182.9104
720.2783, 186.3563
720.7604, 194.6897
721.2426, 208.3693
721.7247, 218.6047
722.2068, 216.8696
722.6889, 211.8162
723.1710, 210.3302
723.6531, 215.4811
724.1353, 218.3206
724.6174, 216.4921
725.0995, 214.2156
725.5816, 215.7766
726.0637, 222.1270
726.5458, 224.5908
727.0280, 221.3396
727.5101, 218.2269
727.9922, 225.0883
728.4743, 238.0671
728.9564, 245.9792
729.4385, 244.9675
729.9207, 241.1213
730.4028, 237.2126
730.8849, 234.1556
731.3670, 233.2587
731.8491, 237.5693
732.3312, 240.8503
732.8134, 242.2499
733.2955, 241.8344
733.7776, 239.0011
734.2597, 232.2399
734.7418, 227.9028
735.2239, 227.6375
735.7061, 230.2321
736.1882, 234.0145
736.6703, 238.6758
737.1524, 241.4565
737.6345, 239.8317
738.1166, 237.3176
738.5988, 238.0000
739.0809, 241.0388
739.5630, 244.0255
740.0451, 248.0687
740.5272, 249.7570
741.0093, 245.1337
741.4915, 235.8563
741.9736, 232.7506
742.4557, 240.1219
742.9378, 245.1155
743.4199, 241.6500
743.9020, 231.8490
744.3842, 228.1198
744.8663, 230.4509
745.3484, 235.6406
745.8305, 245.3258
746.3126, 254.9965
746.7947, 255.7878
747.2769, 248.7295
747.7590, 243.4159
748.2411, 246.9167
748.7232, 252.2249
749.2053, 255.4680
749.6874, 256.1846
750.1696, 255.8759
750.6517, 252.8190
751.1338, 251.2881
751.6159, 254.9412
752.0980, 264.2306
752.5801, 266.7412
753.0623, 261.6777
753.5444, 256.1947
754.0265, 257.7708
754.5086, 262.7688
754.9907, 263.2455
755.4728, 258.1500
755.9550, 254.3390
756.4371, 259.3812
756.9192, 265.4456
757.4013, 265.5269
757.8835, 255.2278
758.3656, 248.5983
758.8477, 248.2863
759.3298, 249.7278
759.8120, 249.7560
760.2941, 248.4891
760.7762, 244.4843
761.2583, 237.2882
761.7404, 229.0304
762.2225, 220.5049
762.7047, 212.9132
763.1868, 209.8496
763.6689, 212.9110
764.1510, 216.4232
764.6331, 216.0522
765.1152, 214.3589
765.5974, 214.2460
766.0795, 220.6798
766.5616, 221.3542
767.0437, 212.3562
767.5258, 200.1735
768.0079, 192.6221
768.4901, 190.3079
768.9722, 186.7330
769.4543, 180.5540
769.9364, 174.2583
770.4185, 170.8237
770.9006, 169.9854
771.3828, 171.7399
771.8649, 178.0538
772.3470, 182.4272
772.8291, 180.0769
773.3112, 173.3291
773.7933, 165.4017
774.2755, 154.4253
774.7576, 145.8435
775.2397, 140.5491
775.7218, 137.6018
776.2039, 136.2483
776.6860, 136.9929
777.1682, 134.4701
777.6503, 126.3854
778.1324, 117.2878
778.6145, 116.0138
779.0966, 119.5504
779.5787, 119.6224
780.0609, 110.6230
780.5430, 101.2251
781.0251, 95.79895
781.5072, 93.65308
781.9893, 93.58081
782.4714, 98.89307
782.9536, 101.7177
783.4357, 101.1378
783.9178, 97.66235
784.3999, 91.26831
784.8820, 81.59680
785.3641, 74.35168
785.8463, 72.02710
786.3284, 71.18469
786.8105, 65.63281
787.2926, 57.11304
787.7747, 50.00391
788.2568, 46.34888
788.7390, 44.45813
789.2211, 44.29761
789.7032, 45.23132
790.1853, 45.78027
790.6674, 45.98962
791.1495, 45.45703
791.6317, 44.15930
792.1138, 42.04163
792.5959, 28.87146
793.0780, 38.41211
793.5601, 42.80591
794.0422, 42.33752
794.5244, 22.09216
795.0065, 27.64868
795.4886, 23.02612
795.9707, 18.09741
796.4528, 27.61450
796.9349, 10.83936
797.4171, 20.35986
797.8992, 19.54504
798.3813, 23.62781
798.8634, 17.46851
799.3455, 14.62341
799.8276, 22.25513
800.3098, 24.26318
800.7919, 17.37256
801.2740, 22.44946
801.7561, 6.462646
802.2382, 9.176392
802.7203, 20.02209
803.2025, 14.22510
803.6846, 20.06519
804.1667, 21.63245
804.6488, 3.409912
805.1309, 6.212524
805.6130, 9.747803
806.0952, 17.03552
806.5773, 18.12952
807.0594, 9.993652
807.5416, 6.184570
808.0237, 11.39514
808.5058, 21.05981
808.9879, 25.79150
809.4700, 26.56665
809.9521, 27.20215
810.4343, 28.32373
810.9164, 30.14209
811.3985, 33.46887
811.8806, 37.64832
812.3627, 41.36133
812.8448, 43.81042
813.3270, 46.14661
813.8091, 47.83069
814.2912, 49.76318
814.7733, 55.11523
815.2554, 64.75464
815.7375, 70.93237
816.2197, 70.05347
816.7018, 66.78882
817.1839, 69.86853
817.6660, 77.29285
818.1481, 84.19873
818.6302, 87.16980
819.1124, 90.78918
819.5945, 98.04846
820.0766, 106.9366
820.5587, 113.6779
821.0408, 117.6835
821.5229, 120.5690
822.0051, 121.0638
822.4872, 122.2184
822.9693, 131.1339
823.4514, 147.1071
823.9335, 162.0623
824.4156, 174.7344
824.8978, 183.8794
825.3799, 185.2635
825.8620, 183.1686
826.3441, 184.6235
826.8262, 195.1901
827.3083, 205.0923
827.7905, 210.3448
828.2726, 214.7057
828.7547, 223.9694
829.2368, 240.3751
829.7189, 251.1154
830.2010, 253.4736
830.6832, 252.2539
831.1653, 252.9222
831.6474, 255.5208
832.1295, 260.8462
832.6116, 270.5342
833.0938, 278.5081
833.5759, 277.4806
834.0580, 274.1990
834.5401, 276.3068
835.0222, 293.2732
835.5043, 302.8801
835.9865, 302.4962
836.4686, 298.1097
836.9507, 296.0195
837.4328, 296.1294
837.9149, 281.2156
838.3970, 294.9590
838.8792, 302.4070
839.3613, 303.8413
839.8434, 284.3513
840.3255, 289.5112
840.8076, 283.3430
841.2897, 275.7196
841.7719, 281.3896
842.2540, 259.6196
842.7361, 262.9958
843.2182, 254.8860
843.7003, 250.5234
844.1824, 234.7710
844.6646, 221.1782
845.1467, 216.9135
845.6288, 205.8788
846.1109, 197.8206
846.5930, 190.6433
847.0751, 181.7092
847.5573, 175.1481
848.0394, 166.6886
848.5215, 159.2991
849.0036, 153.6611
849.4857, 146.5310
849.9678, 136.9625
850.4500, 127.3715
850.9321, 119.2148
851.4142, 112.2726
851.8963, 103.9067
852.3784, 94.14917
852.8605, 85.54370
853.3427, 81.25134
853.8248, 78.25696
854.3069, 73.36450
854.7890, 66.63708
855.2711, 60.06042
855.7532, 55.67627
856.2354, 50.15796
856.7175, 41.21106
857.1996, 29.82983
857.6818, 23.22217
858.1639, 21.92163
858.6460, 21.12244
859.1281, 18.37634
859.6102, 14.76367
860.0923, 12.53076
860.5745, 11.19495
861.0566, 9.282959
861.5387, 5.598999
862.0208, 1.667725
862.5029, 2.198730
862.9850, 5.770142
863.4672, 8.541992
863.9493, 10.35547
864.4314, 11.77881
864.9135, 12.98059
865.3956, 13.83191
865.8777, 13.07886
866.3599, 11.54346
866.8420, 13.04028
867.3241, 21.56897
867.8062, 28.86584
868.2883, 27.29932
868.7704, 21.03882
869.2526, 16.23682
869.7347, 15.43408
870.2168, 14.48486
870.6989, 13.35742
871.1810, 11.88684
871.6631, 8.942261
872.1453, 4.778687
872.6274, 4.745361
873.1095, 10.39746
873.5916, 15.78857
874.0737, 12.77258
874.5558, 6.745972
875.0380, 4.761475
875.5201, 9.524170
876.0022, 13.79736
876.4843, 17.17810
876.9664, 18.31299
877.4485, 15.50989
877.9307, 7.845581
878.4128, 3.083618
878.8949, 1.513062
879.3770, 0.3289790
879.8591, 3.012695
880.3412, 7.407471
880.8234, 11.28674
881.3055, 14.52222
881.7876, 17.07568
882.2697, 16.32507
882.7518, 17.32031
883.2339, 23.52551
883.7161, 34.55225
884.1982, 44.12524
884.6803, 51.98584
885.1624, 59.38525
885.6445, 66.86804
886.1266, 74.33838
886.6088, 82.70544
887.0909, 91.26978
887.5730, 97.03149
888.0551, 94.14734
888.5372, 92.54187
889.0193, 98.06567
889.5015, 109.0946
889.9836, 119.7396
890.4657, 130.0518
890.9478, 139.9009
891.4299, 149.9620
891.9120, 158.5215
892.3942, 161.7002
892.8763, 160.4360
893.3584, 158.2057
893.8405, 154.5562
894.3226, 153.4834
894.8047, 158.5673
895.2869, 167.6389
895.7690, 178.1709
896.2511, 193.3137
896.7332, 204.1221
897.2153, 210.4626
897.6974, 212.4045
898.1796, 207.9917
898.6617, 198.3757
899.1438, 192.1761
899.6259, 190.2322
900.1080, 189.9260
900.5901, 189.4139
901.0723, 189.2866
901.5544, 190.3386
902.0365, 192.9320
902.5186, 194.7517
903.0007, 195.1053
903.4828, 195.2992
903.9650, 195.2024
904.4471, 195.2510
904.9292, 200.9597
905.4113, 212.0204
905.8935, 220.6910
906.3756, 217.5341
906.8577, 213.2007
907.3398, 218.3363
907.8220, 231.6429
908.3041, 246.9935
908.7862, 271.1771
909.2683, 286.4137
909.7504, 285.7960
910.2325, 275.8882
910.7147, 272.7491
911.1968, 276.2390
911.6789, 280.8756
912.1610, 284.7869
912.6431, 289.8307
913.1252, 297.4705
913.6074, 307.8424
914.0895, 321.4934
914.5716, 343.3773
915.0537, 360.1490
915.5358, 366.3885
916.0179, 370.3837
916.5001, 380.3132
916.9822, 396.5588
917.4643, 411.2412
917.9464, 423.8436
918.4285, 435.5186
918.9106, 445.3964
919.3928, 455.9325
919.8749, 471.3009
920.3570, 491.9606
920.8391, 510.4066
921.3212, 522.7745
921.8033, 534.2869
922.2855, 547.2979
922.7676, 561.5879
923.2497, 573.6403
923.7318, 583.4460
924.2139, 593.8125
924.6960, 607.0750
925.1782, 620.3328
925.6603, 629.6772
926.1424, 636.7534
926.6245, 644.8501
927.1066, 655.1221
927.5887, 665.9696
928.0709, 678.0931
928.5530, 690.0305
929.0351, 699.3083
929.5172, 706.0483
929.9993, 708.9537
930.4814, 706.2874
930.9636, 704.1060
931.4457, 708.8052
931.9278, 719.3389
932.4099, 735.0717
932.8920, 758.3135
933.3741, 777.0735
933.8563, 784.6444
934.3384, 790.7515
934.8205, 800.9968
935.3026, 815.7938
935.7847, 833.1338
936.2668, 852.9758
936.7490, 875.5552
937.2311, 905.3086
937.7132, 935.4180
938.1953, 953.2617
938.6774, 961.6787
939.1595, 978.5767
939.6417, 1016.486
940.1238, 1054.866
940.6059, 1088.713
941.0880, 1119.427
941.5701, 1152.502
942.0522, 1187.725
942.5344, 1217.093
943.0165, 1235.056
943.4986, 1254.268
943.9807, 1288.989
944.4628, 1333.996
944.9449, 1381.609
945.4271, 1431.664
945.9092, 1481.692
946.3913, 1533.929
946.8734, 1584.349
947.3555, 1627.240
947.8376, 1663.132
948.3198, 1705.489
948.8019, 1754.853
949.2840, 1801.388
949.7661, 1841.187
950.2482, 1871.823
950.7303, 1888.435
951.2125, 1890.778
951.6946, 1890.880
952.1767, 1895.315
952.6588, 1889.407
953.1409, 1867.363
953.6230, 1832.495
954.1052, 1792.502
954.5873, 1747.346
955.0695, 1699.013
955.5516, 1647.658
956.0337, 1594.641
956.5158, 1539.215
956.9979, 1483.672
957.4800, 1431.661
957.9622, 1387.285
958.4443, 1338.880
958.9264, 1284.462
959.4085, 1229.498
959.8906, 1178.598
960.3727, 1130.322
960.8549, 1082.722
961.3370, 1035.476
961.8191, 990.1182
962.3012, 946.2820
962.7833, 904.8650
963.2654, 867.4048
963.7476, 833.7317
964.2297, 801.2939
964.7118, 770.9011
965.1939, 741.2029
965.6760, 711.3472
966.1581, 682.3368
966.6403, 655.7284
967.1224, 631.3019
967.6045, 607.5793
968.0866, 586.8077
968.5687, 563.7942
969.0508, 531.8046
969.5330, 498.6379
970.0151, 475.1948
970.4972, 464.1301
970.9793, 450.4851
971.4614, 432.7318
971.9435, 413.8401
972.4257, 396.9408
972.9078, 380.9379
973.3899, 362.2778
973.8720, 340.3883
974.3541, 325.4755
974.8362, 330.5094
975.3184, 333.1368
975.8005, 322.3628
976.2826, 300.3130
976.7647, 282.2003
977.2468, 268.2006
977.7289, 254.5991
978.2111, 239.3518
978.6932, 224.7573
979.1753, 212.5939
979.6574, 203.1573
980.1395, 196.3806
980.6216, 197.5380
981.1038, 193.8875
981.5859, 183.4352
982.0680, 169.8395
982.5501, 156.6901
983.0322, 144.0885
983.5143, 133.6162
983.9965, 125.3702
984.4786, 116.4951
984.9607, 100.9586
985.4428, 86.70325
985.9249, 81.19678
986.4070, 85.15601
986.8892, 86.35303
987.3713, 84.22290
987.8534, 81.07178
988.3355, 78.87183
988.8176, 75.35400
989.2997, 61.01416
989.7819, 40.62585
990.2640, 28.42920
990.7461, 36.22852
991.2282, 44.08594
991.7103, 44.24988
992.1924, 39.96399
992.6746, 34.62231
993.1567, 27.49561
993.6388, 23.15613
994.1209, 21.95325
994.6030, 22.27063
995.0851, 25.64880
995.5673, 28.00098
996.0494, 20.92957
996.5315, 5.052612
997.0136, 5.001587
997.4957, 0.6147460
997.9778, 6.497437
998.4600, 8.001831
998.9421, 6.703735
999.4242, 7.641357
999.9063, 10.45325
1000.388, 11.69653
1000.871, 10.05969
1001.353, 6.931885
1001.835, 1.639893
1002.317, 3.478394
1002.799, 5.293579
1003.281, 0.7250980
1003.763, 0.5152590
1004.245, 2.560547
1004.728, 6.625977
1005.210, 10.37634
1005.692, 13.01074
1006.174, 10.79907
1006.656, 4.516846
1007.138, 0.2360840
1007.620, 3.252441
1008.102, 6.618774
1008.584, 7.337524
1009.067, 5.970947
1009.549, 3.375610
1010.031, 1.059204
1010.513, 1.623535
1010.995, 3.772217
1011.477, 3.899061
1011.959, 4.703002
1012.441, 7.003052
1012.924, 5.370605
1013.406, 6.365601
1013.888, 6.406372
1014.370, 4.350220
1014.852, 1.992065
1015.334, 0.5368650
1015.816, 2.705322
1016.298, 0.5723880
1016.780, 8.251953
1017.263, 12.86914
1017.745, 7.350708
1018.227, 0.4851070
1018.709, 2.143555
1019.191, 2.181152
1019.673, 2.802246
1020.155, 4.119507
1020.637, 6.262451
1021.120, 9.498657
1021.602, 12.74121
1022.084, 15.05835
1022.566, 16.42151
1023.048, 16.35278
1023.530, 14.84534
1024.012, 13.86670
1024.494, 15.38171
1024.976, 16.24316
1025.458, 14.63159
1025.941, 11.53906
1026.423, 11.06104
1026.905, 13.13647
1027.387, 16.50171
1027.869, 21.69287
1028.351, 25.95544
1028.833, 25.13391
1029.316, 22.54407
1029.798, 22.74707
1030.280, 29.58105
1030.762, 31.10681
1031.244, 25.27783
1031.726, 19.27087
1032.208, 19.69250
1032.690, 11.98877
1033.172, 24.67212
1033.655, 32.11694
1034.137, 34.54028
1034.619, 17.06311
1035.101, 25.26172
1035.583, 23.17773
1036.065, 20.63855
1036.547, 32.42224
1037.029, 17.80139
1037.511, 29.33484
1037.994, 30.43909
1038.476, 36.28589
1038.958, 31.76501
1039.440, 30.43433
1039.922, 39.45361
1040.404, 42.72656
1040.886, 36.97522
1041.368, 43.06848
1041.851, 27.97314
1042.333, 31.45361
1042.815, 42.95154
1043.297, 37.67358
1043.779, 43.90784
1044.261, 45.74463
1044.743, 27.62891
1045.225, 44.18591
1045.708, 45.75696
1046.190, 31.89551
1046.672, 38.83203
1047.154, 36.03259
1047.636, 36.57764
1048.118, 40.78491
1048.600, 44.29993
1049.082, 43.15015
1049.564, 40.12268
1050.047, 36.38171
1050.529, 32.80469
1051.011, 33.81018
1051.493, 43.91003
1051.975, 48.98914
1052.457, 45.07654
1052.939, 37.97461
1053.421, 35.56250
1053.903, 37.06238
1054.386, 42.17871
1054.868, 51.59265
1055.350, 56.99829
1055.832, 49.98438
1056.314, 41.28394
1056.796, 36.08411
1057.278, 34.31812
1057.760, 36.68445
1058.243, 42.87585
1058.725, 46.43579
1059.207, 43.21936
1059.689, 38.28577
1060.171, 34.19006
1060.653, 31.99646
1061.135, 33.89075
1061.617, 43.51917
1062.099, 36.07544
1062.582, 47.34656
1063.064, 53.10742
1063.546, 53.71289
1064.028, 34.55530
1064.510, 41.46631
1064.992, 38.34253
1065.474, 34.61084
1065.956, 44.97388
1066.438, 28.87524
1066.921, 39.03467
1067.403, 38.89563
1067.885, 43.80078
1068.367, 38.35901
1068.849, 35.79346
1069.331, 43.19202
1069.813, 44.84302
1070.295, 37.65808
1070.778, 42.42175
1071.260, 40.11804
1071.742, 28.02649
1072.224, 38.25684
1072.706, 31.87158
1073.188, 27.86963
1073.670, 21.68298
1074.152, 16.32239
1074.635, 21.23315
1075.117, 30.44653
1075.599, 34.20557
1076.081, 26.22607
1076.563, 21.54919
1077.045, 22.43469
1077.527, 24.45850
1078.009, 25.53833
1078.491, 25.33606
1078.974, 20.49622
1079.456, 12.36548
1079.938, 7.768799
1080.420, 13.91589
1080.902, 19.64014
1081.384, 18.39832
1081.866, 15.54065
1082.348, 19.55737
1082.831, 30.92517
1083.313, 31.78430
1083.795, 20.08923
1084.277, 9.767090
1084.759, 16.51721
1085.241, 26.13806
1085.723, 25.00427
1086.205, 14.21387
1086.688, 9.704224
1087.170, 13.91223
1087.652, 17.34583
1088.134, 17.64319
1088.616, 16.71741
1089.098, 17.08594
1089.580, 18.24133
1090.062, 19.71045
1090.544, 21.70654
1091.026, 11.34509
1091.509, 23.20581
1091.991, 29.81116
1092.473, 31.44373
1092.955, 13.10522
1093.437, 20.43005
1093.919, 17.43628
1094.401, 14.10889
1094.883, 24.99207
1095.366, 9.559937
1095.848, 20.36365
1096.330, 20.68823
1096.812, 25.77405
1097.294, 20.49146
1097.776, 18.48291
1098.258, 26.90149
1098.740, 29.49963
1099.223, 23.06604
1099.705, 28.60168
1100.187, 12.78894
1100.669, 15.63391
1101.151, 26.44568
1101.633, 20.52527
1102.115, 26.13147
1102.597, 27.26196
1103.079, 8.633789
1103.562, 24.58203
1104.044, 25.47119
1104.526, 10.98499
1105.008, 25.69702
1105.490, 13.32056
1105.972, 10.62646
1106.454, 15.22119
1106.936, 12.22327
1107.418, 21.16992
1107.901, 18.57800
1108.383, 14.94141
1108.865, 15.79736
1109.347, 3.963989
1109.829, 15.76550
1110.311, 11.41626
1110.793, 5.418213
1111.275, 17.20447
1111.758, 23.73279
1112.240, 25.30347
1112.722, 7.026123
1113.204, 14.44531
1113.686, 11.55371
1114.168, 8.202148
1114.650, 19.16052
1115.132, 3.703491
1115.615, 14.43665
1116.097, 14.74304
1116.579, 19.84814
1117.061, 14.58301
1117.543, 12.49622
1118.025, 20.75720
1118.507, 23.27673
1118.989, 16.79260
1119.471, 22.20264
1119.953, 6.408081
1120.436, 9.250366
1120.918, 20.11865
1121.400, 14.23486
1121.882, 19.83142
1122.364, 21.07385
1122.846, 2.362793
1123.328, 18.32361
1123.810, 19.32446
1124.293, 4.874878
1124.775, 19.68396
1125.257, 7.408936
1125.739, 4.809448
1126.221, 9.482910
1126.703, 6.563599
1127.185, 15.62268
1127.667, 13.16248
1128.150, 9.677246
1128.632, 10.68701
1129.114, 7.555542
1129.596, 10.84814
1130.078, 6.620361
1130.560, 10.41187
1131.042, 16.00781
1131.524, 7.663574
1132.006, 14.03369
1132.489, 2.416260
1132.971, 0.2928470
1133.453, 0.9462890
1133.935, -1.614701
1134.417, 2.496582
1134.899, 0.3292240
1135.381, 9.715332
1135.863, 8.760010
1136.346, 12.40906
1136.828, 2.414917
1137.310, 5.187500
1137.792, 4.414307
1138.274, 15.85950
1138.756, 17.70593
1139.238, 7.942017
1139.720, 1.782104
1140.203, 10.56958
1140.685, 2.030884
1141.167, 4.771851
1141.649, 4.145630
1142.131, 3.047241
1142.613, 2.078857
1143.095, 4.069092
1143.577, 2.947632
1144.059, 5.346191
1144.542, 4.372559
1145.024, 6.869751
1145.506, 8.997925
1145.988, 10.30957
1146.470, 7.863403
1146.952, 12.44104
1147.434, 2.056396
1147.916, 2.642090
1148.398, 3.302002
1148.881, 15.05786
1149.363, 15.74097
1149.845, 4.743774
1150.327, 12.80908
1150.809, 6.938599
1151.291, 8.045898
1151.773, 6.614380
1152.255, 5.921509
1152.738, 6.815063
1153.220, 1.980347
1153.702, 10.61597
1154.184, 5.808960
1154.666, 12.98645
1155.148, 1.451172
1155.630, 3.092041
1156.112, 1.380615
1156.594, 1.550049
1157.077, 5.438599
1157.559, 0.5469970
1158.041, 0.8957520
1158.523, 3.858887
1159.005, 2.357254
1159.487, 3.113265
1159.969, 5.382568
1160.451, 2.719238
1160.933, 6.212646
1161.416, 6.794556
1161.898, 19.00269
1162.380, 25.91992
1162.862, 27.64783
1163.344, 9.483154
1163.826, 16.99561
1164.308, 14.22400
1164.790, 11.22925
1165.273, 22.84351
1165.755, 7.723999
1166.237, 18.63660
1166.719, 19.09888
1167.201, 24.31348
1167.683, 19.20264
1168.165, 17.29150
1168.647, 25.71826
1169.130, 28.43237
1169.612, 22.13098
1170.094, 27.68408
1170.576, 12.04761
1171.058, 15.00757
1171.540, 25.98584
1172.022, 20.20410
1172.504, 25.94861
1172.986, 27.28418
1173.469, 8.699951
1173.951, 24.79846
1174.433, 25.89844
1174.915, 11.59778
1175.397, 26.50989
1175.879, 14.33362
1176.361, 11.82715
1176.843, 16.59814
1177.326, 13.78381
1177.808, 22.92676
1178.290, 20.55225
1178.772, 17.14819
1179.254, 18.23645
1179.736, 15.18213
1180.218, 18.57007
1180.700, 14.39978
1181.182, 18.26379
1181.665, 23.94495
1182.147, 15.74927
1182.629, 22.24976
1183.111, 5.900024
1183.593, 8.667847
1184.075, 9.378784
1184.557, 22.30908
1185.039, 6.072510
1185.521, 8.311401
1186.004, 18.41736
1186.486, 17.51672
1186.968, 21.21814
1187.450, 11.29504
1187.932, 14.17236
1188.414, 13.52100
1188.896, 25.06091
1189.378, 26.97839
1189.861, 17.28918
1190.343, 7.588989
1190.825, 19.99524
1191.307, 11.49817
1191.789, 14.28992
1192.271, 5.370239
1192.753, 6.554810
1193.235, 7.596680
1193.718, 13.79468
1194.200, 12.72290
1194.682, 15.20190
1195.164, 14.32581
1195.646, 16.90198
1196.128, 19.09485
1196.610, 20.46790
1197.092, 18.08716
1197.574, 22.68347
1198.057, 12.35425
1198.539, 7.705322
1199.021, 7.093628
1199.503, 25.42114
1199.985, 26.07471
1200.467, 5.585938
1200.949, 23.18567
1201.431, 17.38184
1201.913, 18.53101
1202.396, 17.13708
1202.878, 16.49280
1203.360, 17.41833
1203.842, 8.684692
1204.324, 21.30969
1204.806, 16.48376
1205.288, 23.51465
1205.770, 8.861084
1206.253, 7.013916
1206.735, 8.662720
1207.217, 11.55371
1207.699, 4.376953
1208.181, 17.18872
1208.663, 16.80115
1209.145, 5.000488
1209.627, 5.592163
1210.109, 13.80969
1210.592, 11.69495
1211.074, 6.886597
1211.556, 0.9058840
1212.038, 1.648071
1212.520, 1.564087
1213.002, 0.9736330
1213.484, 4.2114001E-02
1213.966, 0.4991460
1214.448, 0.4531250
1214.931, 0.6468510
1215.413, 3.953857
1215.895, 7.968018
1216.377, 7.536865
1216.859, 3.538208
1217.341, 1.267090
1217.823, 9.872803
1218.305, 12.23669
1218.788, 4.879150
1219.270, 3.021729
1219.752, 2.689941
1220.234, 2.761719
1220.716, 7.168945
1221.198, 9.872925
1221.680, 9.114380
1222.162, 2.215576
1222.645, 6.741455
1223.127, 1.278076
1223.609, 7.235229
1224.091, 13.71033
1224.573, 17.79114
1225.055, 17.37109
1225.537, 13.64392
1226.019, 11.22583
1226.501, 13.69165
1226.984, 14.17847
1227.466, 11.32349
1227.948, 8.491211
1228.430, 10.37183
1228.912, 13.96326
1229.394, 12.51697
1229.876, 7.403442
1230.358, 5.640259
1230.841, 11.79797
1231.323, 15.69080
1231.805, 15.91052
1232.287, 15.14661
1232.769, 16.35547
1233.251, 18.30469
1233.733, 18.79810
1234.215, 18.15552
1234.698, 18.40430
1235.180, 21.24829
1235.662, 21.33997
1236.144, 17.43372
1236.626, 13.34009
1237.108, 14.00891
1237.590, 16.23657
1238.072, 16.29077
1238.554, 14.15991
1239.036, 10.16187
1239.519, 0.8289790
1240.001, 2.610962
1240.483, 19.80310
1240.965, 36.93188
1241.447, 37.31323
1241.929, 30.19067
1242.411, 23.82935
1242.893, 18.78235
1243.376, 14.55847
1243.858, 10.57019
1244.340, 10.38574
1244.822, 15.04846
1245.304, 19.51697
1245.786, 18.63025
1246.268, 15.85461
1246.750, 13.93201
1247.233, 12.94653
1247.715, 12.32520
1248.197, 12.04907
1248.679, 12.08667
1249.161, 12.32104
1249.643, 14.14099
1250.125, 23.31970
1250.607, 30.31763
1251.089, 24.73413
1251.572, 11.59277
1252.054, 4.587158
1252.536, 3.663208
1253.018, 7.043213
1253.500, 14.80505
1253.982, 20.50696
1254.464, 15.14514
1254.946, 10.69995
1255.428, 18.16748
1255.911, 11.23108
1256.393, 26.16882
1256.875, 9.752563
1257.357, 3.206055
1257.839, 9.406860
1258.321, 18.00269
1258.803, 26.44189
1259.285, 29.90002
1259.768, 24.54163
1260.250, 16.69775
1260.732, 14.87366
1261.214, 16.69263
1261.696, 15.19092
1262.178, 9.795532
1262.660, 5.227539
1263.142, 4.421265
1263.625, 5.061646
1264.107, 5.443604
1264.589, 5.304810
1265.071, 3.743652
1265.553, 1.422974
1266.035, 0.2663570
1266.517, 1.145142
1266.999, 0.5013430
1267.481, 2.598389
1267.964, 6.260010
1268.446, 10.64453
1268.928, 14.22778
1269.410, 13.91199
1269.892, 11.78247
1270.374, 11.27405
1270.856, 12.57959
1271.338, 13.27087
1271.820, 13.03418
1272.303, 12.99402
1272.785, 13.55505
1273.267, 13.69849
1273.749, 11.59875
1274.231, 8.853271
1274.713, 7.498657
1275.195, 7.383057
1275.677, 6.068359
1276.160, 2.739868
1276.642, 2.884155
1277.124, 7.906250
1277.606, 12.55151
1278.088, 10.21350
1278.570, 6.832886
1279.052, 8.091431
1279.534, 12.35168
1280.016, 13.73340
1280.499, 12.14368
1280.981, 11.80811
1281.463, 13.37732
1281.945, 14.54980
1282.427, 12.85620
1282.909, 11.11157
1283.391, 10.81787
1283.873, 11.59094
1284.356, 13.18616
1284.838, 15.17456
1285.320, 16.73389
1285.802, 17.64771
1286.284, 17.31873
1286.766, 14.47400
1287.248, 11.38928
1287.730, 7.932129
1288.213, 5.786499
1288.695, 9.694946
1289.177, 16.29626
1289.659, 14.53442
1290.141, 4.938477
1290.623, 0.1213380
1291.105, 9.588257
1291.587, 15.62903
1292.069, 15.14844
1292.552, 12.51794
1293.034, 13.25696
1293.516, 11.01270
1293.998, 12.70422
1294.480, 7.616211
1294.962, 4.204468
1295.444, 2.184937
1295.926, 5.099243
1296.408, 14.45508
1296.891, 21.32520
1297.373, 12.50183
1297.855, 1.685303
1298.337, 4.717163
1298.819, 15.88611
1299.301, 16.54492
1299.783, 5.217041
1300.265, 1.059937
1300.748, 5.574463
1301.230, 9.698120
1301.712, 4.246216
1302.194, 6.6895001E-02
1302.676, 0.0000000E+00
##END=



