##NAMES=Fettelite
##RRUFFID=R110042
##IDEAL CHEMISTRY=Ag_16_HgAs_4_S_15_
##LOCALITY=Nieder-Beerbach mine near Darmstadt, Odenwald, Germany
##OWNER=RRUFF
##SOURCE=Institute of Mineralogy, University of Heidelberg
##DESCRIPTION=Red hexagonal plates, type-sample. New data are reported in Bindi et al (2012)
##STATUS=The identification of this mineral is confirmed by single-crystal X-ray diffraction and chemical analysis.
##URL=rruff.info/R110042
##MEASURED CHEMISTRY=Ag_16.08_Cu_0.13_Fe_0.01_Hg_0.71_As_3.80_S_15.28_
169.2243, 0.0000000E+00
169.7064, 9.6439999E-03
170.1885, 1.055878
170.6707, 2.512787
171.1528, 2.944763
171.6349, 2.467590
172.1170, 2.154633
172.5991, 2.251038
173.0812, 3.125793
173.5634, 3.275330
174.0455, 1.317261
174.5276, 0.3835140
175.0097, 0.5773620
175.4918, 0.5841980
175.9739, 2.001007
176.4561, 2.420715
176.9382, 1.464691
177.4203, 0.7664180
177.9024, 0.2897950
178.3845, 5.6334998E-02
178.8666, 0.1167600
179.3488, 0.4584350
179.8309, 1.014954
180.3130, 1.720825
180.7951, 2.715942
181.2772, 3.524139
181.7593, 4.293671
182.2415, 4.817657
182.7236, 4.898987
183.2057, 4.506500
183.6878, 3.789581
184.1699, 2.914612
184.6520, 1.448151
185.1342, 0.8067320
185.6163, 1.550659
186.0984, 2.911163
186.5805, 4.189880
187.0626, 5.199890
187.5447, 5.894806
188.0269, 6.099121
188.5090, 5.741272
188.9911, 5.323822
189.4732, 4.465179
189.9553, 3.688965
190.4374, 4.181641
190.9196, 6.685760
191.4017, 9.668182
191.8838, 10.88089
192.3659, 10.32266
192.8480, 9.339630
193.3301, 8.095642
193.8123, 6.810852
194.2944, 6.434082
194.7765, 7.825226
195.2586, 9.443451
195.7407, 9.581970
196.2228, 8.218506
196.7050, 6.692444
197.1871, 5.820404
197.6692, 5.595856
198.1513, 5.910675
198.6334, 7.445496
199.1155, 8.921997
199.5977, 9.314697
200.0798, 8.616150
200.5619, 7.792542
201.0440, 7.899719
201.5261, 9.128632
202.0082, 10.01291
202.4904, 10.31470
202.9725, 10.25220
203.4546, 9.600830
203.9367, 8.471191
204.4188, 7.526428
204.9009, 7.779327
205.3831, 9.848206
205.8652, 11.20352
206.3473, 11.20685
206.8294, 10.95346
207.3115, 11.03470
207.7936, 11.55695
208.2758, 12.27664
208.7579, 12.90628
209.2400, 13.61728
209.7221, 13.79440
210.2042, 12.42819
210.6863, 11.30957
211.1685, 11.83383
211.6506, 14.18811
212.1327, 17.41287
212.6148, 20.26935
213.0969, 23.34589
213.5790, 24.40686
214.0612, 21.89502
214.5433, 18.49588
215.0254, 16.29218
215.5075, 15.78897
215.9896, 16.06256
216.4717, 15.75330
216.9539, 14.12064
217.4360, 13.85205
217.9181, 16.47281
218.4002, 19.73596
218.8823, 21.23074
219.3644, 20.36441
219.8466, 18.68964
220.3287, 18.32840
220.8108, 19.53210
221.2929, 20.53809
221.7750, 21.01669
222.2571, 21.21356
222.7393, 21.39725
223.2214, 21.61368
223.7035, 21.88098
224.1856, 22.16058
224.6677, 22.44559
225.1498, 23.04126
225.6320, 24.29507
226.1141, 25.84348
226.5962, 27.10654
227.0783, 27.87631
227.5604, 28.37790
228.0425, 28.87024
228.5247, 29.29141
229.0068, 29.17566
229.4889, 27.68362
229.9710, 25.58646
230.4531, 24.77289
230.9352, 25.92511
231.4174, 27.33670
231.8995, 27.58484
232.3816, 27.01816
232.8637, 26.57886
233.3458, 26.90948
233.8279, 27.73740
234.3101, 28.15021
234.7922, 27.86655
235.2743, 27.60562
235.7564, 27.46255
236.2385, 27.62134
236.7206, 28.56284
237.2028, 31.31677
237.6849, 35.12079
238.1670, 36.48322
238.6491, 33.52206
239.1312, 30.84894
239.6133, 30.57162
240.0955, 31.79721
240.5776, 33.02698
241.0597, 33.45007
241.5418, 33.16135
242.0239, 32.51044
242.5060, 30.61389
242.9882, 29.64005
243.4703, 30.93445
243.9524, 33.30685
244.4345, 34.99396
244.9166, 34.89709
245.3987, 33.43842
245.8809, 32.69299
246.3630, 34.02100
246.8451, 34.24512
247.3272, 31.64456
247.8093, 27.92307
248.2914, 25.30743
248.7736, 25.03357
249.2557, 26.59857
249.7378, 27.99493
250.2199, 29.55688
250.7020, 30.46091
251.1841, 29.94473
251.6663, 28.94739
252.1484, 28.65720
252.6305, 29.65576
253.1126, 31.48907
253.5947, 32.73877
254.0768, 33.08945
254.5590, 33.16394
255.0411, 32.79312
255.5232, 32.23572
256.0053, 31.74942
256.4874, 31.44986
256.9695, 31.30457
257.4517, 31.27588
257.9338, 31.91080
258.4159, 31.91016
258.8980, 30.63736
259.3801, 28.94547
259.8622, 27.46027
260.3444, 26.41849
260.8265, 25.97635
261.3086, 26.51001
261.7907, 29.24072
262.2728, 31.01605
262.7549, 30.87265
263.2371, 30.20071
263.7192, 30.28421
264.2013, 31.45377
264.6834, 33.34973
265.1655, 35.59131
265.6476, 38.81754
266.1298, 40.68878
266.6119, 40.48248
267.0940, 39.32816
267.5761, 38.00262
268.0582, 36.73813
268.5403, 35.74167
269.0225, 35.44324
269.5046, 36.15204
269.9867, 35.91870
270.4688, 32.96466
270.9509, 29.96255
271.4330, 29.89709
271.9152, 32.97897
272.3973, 36.20670
272.8794, 36.56860
273.3615, 33.79077
273.8436, 31.90643
274.3257, 32.05328
274.8079, 32.35480
275.2900, 30.60461
275.7721, 26.91748
276.2542, 24.52078
276.7363, 26.66086
277.2184, 32.59998
277.7006, 35.35626
278.1827, 32.31732
278.6648, 28.13138
279.1469, 25.86981
279.6290, 25.42661
280.1111, 25.48059
280.5933, 25.39954
281.0754, 25.18741
281.5575, 24.88995
282.0396, 24.19467
282.5217, 23.80676
283.0038, 24.55737
283.4860, 26.17303
283.9681, 27.19327
284.4502, 26.84747
284.9323, 25.55838
285.4144, 24.20984
285.8965, 22.51068
286.3787, 21.42139
286.8608, 21.86981
287.3429, 23.45496
287.8250, 24.72150
288.3071, 25.16177
288.7892, 25.14453
289.2714, 25.24002
289.7535, 25.48401
290.2356, 25.60629
290.7177, 25.39615
291.1998, 24.97147
291.6819, 24.61252
292.1641, 24.36612
292.6462, 24.22888
293.1283, 24.16980
293.6104, 24.18597
294.0925, 24.35968
294.5746, 24.80475
295.0568, 25.41769
295.5389, 25.99622
296.0210, 26.51160
296.5031, 27.00928
296.9852, 27.68848
297.4673, 28.41898
297.9495, 28.75418
298.4316, 28.11209
298.9137, 27.16147
299.3958, 27.12265
299.8779, 28.26654
300.3600, 29.11227
300.8422, 28.07452
301.3243, 26.14713
301.8064, 25.14105
302.2885, 26.27751
302.7706, 27.67369
303.2527, 26.74916
303.7349, 23.30045
304.2170, 20.41882
304.6991, 20.40392
305.1812, 21.39029
305.6633, 20.69916
306.1454, 17.47719
306.6276, 13.88586
307.1097, 11.78859
307.5918, 11.12303
308.0739, 10.75031
308.5560, 10.41243
309.0381, 10.15790
309.5203, 10.27887
310.0024, 10.87758
310.4845, 10.80484
310.9666, 8.566086
311.4487, 4.735764
311.9308, 2.314758
312.4130, 2.507278
312.8951, 3.397675
313.3772, 3.220917
313.8593, 2.111282
314.3414, 0.9037480
314.8235, 0.3856660
315.3057, 1.457108
315.7878, 1.289337
316.2699, 0.7650910
316.7520, 2.704712
317.2341, 2.896637
317.7162, 1.880890
318.1984, 0.7006840
318.6805, 0.3450470
319.1626, 1.304199
319.6447, 2.341904
320.1268, 3.540817
320.6089, 4.403625
321.0911, 4.537521
321.5732, 4.175110
322.0553, 3.528549
322.5374, 2.447250
323.0195, 1.407364
323.5016, 1.087463
323.9838, 1.496902
324.4659, 1.496338
324.9480, 3.8449999E-03
325.4301, 1.628128
325.9122, 1.490128
326.3943, 0.8967900
326.8765, 3.066589
327.3586, 3.008423
327.8407, 1.086609
328.3228, 0.7843170
328.8049, 2.442764
329.2870, 3.502869
329.7692, 3.261749
330.2513, 1.859741
330.7334, 0.9398650
331.2155, 1.643555
331.6976, 3.367966
332.1797, 4.840866
332.6619, 6.058304
333.1440, 6.658813
333.6261, 5.868851
334.1082, 4.199356
334.5903, 2.810928
335.0724, 2.149002
335.5546, 1.914795
336.0367, 1.739578
336.5188, 1.607193
337.0009, 1.630844
337.4830, 1.726303
337.9651, 2.107468
338.4473, 3.256683
338.9294, 5.834793
339.4115, 8.250961
339.8936, 8.938354
340.3757, 8.100555
340.8578, 7.482849
341.3400, 7.864822
341.8221, 8.659225
342.3042, 8.918549
342.7863, 8.558563
343.2684, 8.178879
343.7505, 7.767532
344.2327, 7.563049
344.7148, 8.444672
345.1969, 11.01981
345.6790, 13.55602
346.1611, 13.41531
346.6432, 11.06711
347.1254, 9.576477
347.6075, 10.34450
348.0896, 12.10333
348.5717, 13.34367
349.0538, 13.93370
349.5359, 14.37282
350.0181, 15.11137
350.5002, 15.99573
350.9823, 16.39983
351.4644, 15.78200
351.9465, 15.11205
352.4286, 15.00111
352.9108, 15.39838
353.3929, 16.01813
353.8750, 16.66705
354.3571, 17.51221
354.8392, 19.07988
355.3214, 21.90111
355.8035, 24.20003
356.2856, 24.63875
356.7677, 24.25046
357.2498, 25.05742
357.7319, 27.75629
358.2141, 31.04308
358.6962, 33.05528
359.1783, 33.52797
359.6604, 34.44887
360.1425, 36.62210
360.6246, 38.99242
361.1068, 40.25800
361.5889, 40.41371
362.0710, 40.87914
362.5531, 42.87230
363.0352, 46.42836
363.5173, 50.03392
363.9995, 54.24680
364.4816, 57.97458
364.9637, 60.06517
365.4458, 61.35757
365.9279, 63.75584
366.4100, 68.34254
366.8922, 74.20598
367.3743, 78.44051
367.8564, 79.94733
368.3385, 81.51695
368.8206, 83.10817
369.3027, 85.09482
369.7849, 88.26901
370.2670, 92.77284
370.7491, 97.39465
371.2312, 100.2634
371.7133, 100.1348
372.1954, 102.1191
372.6776, 107.9496
373.1597, 114.1534
373.6418, 119.1892
374.1239, 122.8727
374.6060, 125.0870
375.0881, 125.6180
375.5703, 124.5376
376.0524, 124.5807
376.5345, 127.8972
377.0166, 129.9120
377.4987, 129.1043
377.9808, 126.2760
378.4630, 122.4096
378.9451, 117.9901
379.4272, 113.1037
379.9093, 107.9817
380.3914, 103.3766
380.8735, 97.14178
381.3557, 87.22939
381.8378, 77.13049
382.3199, 69.50259
382.8020, 64.71892
383.2841, 61.30475
383.7662, 57.74803
384.2484, 53.93323
384.7305, 49.73267
385.2126, 44.79019
385.6947, 40.18016
386.1768, 36.01985
386.6589, 32.35651
387.1411, 29.36449
387.6232, 27.21155
388.1053, 25.66649
388.5874, 23.91571
389.0695, 21.67238
389.5516, 19.89995
390.0338, 19.04465
390.5159, 18.53835
390.9980, 18.03069
391.4801, 17.40393
391.9622, 16.36038
392.4443, 14.13016
392.9265, 10.48146
393.4086, 8.036636
393.8907, 8.071167
394.3728, 8.554581
394.8549, 8.603485
395.3370, 8.138596
395.8192, 7.102051
396.3013, 4.611252
396.7834, 1.541794
397.2655, 1.213196
397.7476, 4.754532
398.2297, 8.070679
398.7119, 8.822540
399.1940, 8.132462
399.6761, 7.258881
400.1582, 6.467087
400.6403, 5.671738
401.1224, 4.635849
401.6046, 3.386887
402.0867, 2.623306
402.5688, 2.667465
403.0509, 3.204056
403.5330, 3.900696
404.0151, 4.764664
404.4973, 5.459442
404.9794, 5.861282
405.4615, 5.995865
405.9436, 5.799423
406.4257, 5.219940
406.9078, 4.654282
407.3900, 4.485748
407.8721, 4.630524
408.3542, 4.616150
408.8363, 4.389694
409.3184, 4.002396
409.8005, 3.116043
410.2827, 2.024933
410.7648, 1.956131
411.2469, 3.736481
411.7290, 6.271683
412.2111, 6.926605
412.6932, 5.035400
413.1754, 3.278870
413.6575, 1.835526
414.1396, 0.8922730
414.6217, 0.7833560
415.1038, 1.517014
415.5859, 2.615280
416.0681, 3.666214
416.5502, 4.689392
417.0323, 5.330338
417.5144, 5.256454
417.9965, 5.212036
418.4786, 5.738220
418.9608, 6.489288
419.4429, 6.734116
419.9250, 6.078690
420.4071, 4.838394
420.8892, 3.918320
421.3713, 4.124313
421.8535, 3.383514
422.3356, 0.6763760
422.8177, 2.266190
423.2998, 4.445801
423.7819, 5.556091
424.2640, 5.341034
424.7462, 3.143997
425.2283, 1.287308
425.7104, 4.060654
426.1925, 3.559341
426.6746, 3.052902
427.1567, 3.694946
427.6389, 4.893539
428.1210, 5.641479
428.6031, 5.429810
429.0852, 4.656052
429.5673, 4.050339
430.0494, 3.546783
430.5316, 3.440369
431.0137, 4.202240
431.4958, 5.128326
431.9779, 6.165558
432.4600, 7.163422
432.9421, 7.164230
433.4243, 4.238464
433.9064, 0.5465390
434.3885, 2.154648
434.8706, 0.8739470
435.3527, 4.206085
435.8348, 4.701706
436.3170, 3.677124
436.7991, 3.348984
437.2812, 4.803177
437.7633, 6.336761
438.2454, 5.950439
438.7275, 3.978363
439.2097, 2.866760
439.6918, 3.755539
440.1739, 5.424591
440.6560, 5.918472
441.1381, 5.135040
441.6202, 4.735077
442.1024, 5.826431
442.5845, 7.190582
443.0666, 7.307251
443.5487, 6.090652
444.0308, 4.577972
444.5129, 3.476303
444.9951, 2.769562
445.4772, 2.191147
445.9593, 1.286240
446.4414, 1.008881
446.9235, 2.427078
447.4056, 4.431641
447.8878, 5.104507
448.3699, 3.824142
448.8520, 1.972321
449.3341, 1.724640
449.8162, 3.892181
450.2983, 5.408966
450.7805, 6.065002
451.2626, 6.366425
451.7447, 6.498489
452.2268, 6.508987
452.7089, 6.395065
453.1910, 6.136292
453.6732, 5.785248
454.1553, 5.571091
454.6374, 5.533783
455.1195, 5.572189
455.6016, 5.734238
456.0837, 5.945038
456.5659, 6.220261
457.0480, 6.519806
457.5301, 6.619598
458.0122, 5.854858
458.4943, 4.266876
458.9764, 4.447327
459.4586, 8.037918
459.9407, 11.03871
460.4228, 10.98500
460.9049, 9.060638
461.3870, 7.308868
461.8691, 6.399994
462.3513, 6.019821
462.8334, 5.970200
463.3155, 6.230820
463.7976, 6.291153
464.2797, 6.007660
464.7618, 5.469528
465.2440, 4.415131
465.7261, 2.758698
466.2082, 2.000320
466.6903, 3.275146
467.1724, 5.368698
467.6545, 7.012299
468.1367, 8.070709
468.6188, 8.431717
469.1009, 7.815125
469.5830, 6.495514
470.0651, 5.831818
470.5472, 6.571823
471.0294, 6.912476
471.5115, 6.019211
471.9936, 4.633331
472.4757, 3.546402
472.9578, 3.011993
473.4399, 3.153198
473.9221, 4.293015
474.4042, 6.826355
474.8863, 8.014542
475.3684, 6.958221
475.8505, 5.685455
476.3326, 4.599503
476.8148, 3.882919
477.2969, 3.792236
477.7790, 4.463486
478.2611, 5.577606
478.7432, 6.647781
479.2253, 8.106979
479.7075, 8.273315
480.1896, 4.768936
480.6717, 1.569550
481.1538, 1.682175
481.6359, 4.551895
482.1180, 7.001617
482.6002, 6.583969
483.0823, 4.474792
483.5644, 3.756393
484.0465, 4.911972
484.5286, 5.610382
485.0107, 4.074158
485.4929, 1.928513
485.9750, 1.114883
486.4571, 1.972443
486.9392, 3.408051
487.4213, 5.445343
487.9034, 7.492905
488.3856, 8.012817
488.8677, 6.637619
489.3498, 4.773499
489.8319, 3.502197
490.3140, 2.826553
490.7961, 2.330200
491.2783, 2.076370
491.7604, 2.091537
492.2425, 2.375549
492.7246, 2.872696
493.2067, 2.883972
493.6888, 2.307602
494.1710, 1.613525
494.6531, 1.566696
495.1352, 2.441895
495.6173, 3.150513
496.0994, 4.076477
496.5815, 4.479019
497.0637, 3.417938
497.5458, 1.604599
498.0279, 0.5715640
498.5100, 1.223343
498.9921, 2.907272
499.4742, 4.076324
499.9564, 4.779236
500.4385, 4.822281
500.9206, 3.121521
501.4027, 1.592331
501.8848, 1.787369
502.3669, 3.460999
502.8491, 4.867081
503.3312, 4.414948
503.8133, 2.916214
504.2954, 2.771362
504.7775, 4.317749
505.2596, 5.664749
505.7418, 5.799164
506.2239, 5.276535
506.7060, 4.844986
507.1881, 4.498032
507.6702, 4.479874
508.1523, 5.432419
508.6345, 6.610474
509.1166, 6.557327
509.5987, 5.052902
510.0808, 3.414871
510.5629, 2.686203
511.0450, 2.812180
511.5272, 2.985321
512.0093, 3.694473
512.4914, 3.879272
512.9735, 2.565933
513.4556, 0.8217010
513.9377, 0.1096040
514.4199, 0.8969420
514.9020, 2.264038
515.3841, 3.320007
515.8662, 4.153732
516.3483, 4.541702
516.8304, 3.900238
517.3126, 3.430313
517.7947, 3.610306
518.2768, 4.129532
518.7589, 4.569977
519.2410, 4.775406
519.7231, 4.715775
520.2053, 4.354156
520.6874, 3.715103
521.1695, 2.653091
521.6516, 0.5476230
522.1337, 1.094971
522.6158, 1.083893
523.0980, 0.1545100
523.5801, 1.448578
524.0622, 2.453445
524.5443, 3.167603
525.0264, 3.924026
525.5085, 4.649384
525.9907, 4.775208
526.4728, 3.953781
526.9549, 2.780838
527.4370, 2.060104
527.9191, 1.765579
528.4012, 2.046402
528.8834, 3.770599
529.3655, 5.238190
529.8476, 5.071747
530.3297, 3.700195
530.8118, 2.427094
531.2939, 1.941437
531.7761, 2.064529
532.2582, 2.389023
532.7403, 3.312302
533.2224, 3.675873
533.7045, 2.660736
534.1866, 1.848068
534.6688, 2.705902
535.1509, 4.668167
535.6330, 5.802124
536.1151, 4.588394
536.5972, 2.036087
537.0793, 0.8944700
537.5615, 1.458099
538.0436, 2.261780
538.5257, 3.219604
539.0078, 3.997696
539.4899, 4.150574
539.9720, 3.672943
540.4542, 3.386063
540.9363, 4.025253
541.4184, 4.929718
541.9005, 5.048828
542.3826, 4.386261
542.8647, 3.743301
543.3469, 3.546082
543.8290, 3.622269
544.3111, 3.517700
544.7932, 3.125641
545.2753, 2.817474
545.7574, 2.488205
546.2396, 2.371155
546.7217, 3.206314
547.2038, 4.602844
547.6859, 4.836929
548.1680, 2.501678
548.6501, 1.577530
549.1323, 3.722305
549.6144, 3.191956
550.0965, 1.878433
550.5786, 1.024887
551.0607, 3.747787
551.5428, 4.882172
552.0250, 4.463928
552.5071, 3.556854
552.9892, 2.697311
553.4713, 1.998611
553.9534, 1.825180
554.4355, 2.240631
554.9177, 2.871399
555.3998, 3.575562
555.8819, 4.428070
556.3640, 5.794693
556.8461, 7.856812
557.3282, 8.938019
557.8104, 7.777191
558.2925, 5.655304
558.7746, 3.717850
559.2567, 2.162994
559.7388, 1.658997
560.2209, 2.817963
560.7031, 4.966873
561.1852, 5.956985
561.6673, 4.537811
562.1494, 3.699173
562.6315, 3.684647
563.1136, 4.101212
563.5958, 5.074921
564.0779, 6.279312
564.5600, 6.749039
565.0421, 5.641251
565.5242, 3.586258
566.0063, 2.900620
566.4885, 4.326340
566.9706, 4.958511
567.4527, 2.919266
567.9348, 0.7537540
568.4169, 0.3423610
568.8990, 1.595337
569.3812, 3.043442
569.8633, 4.578506
570.3454, 5.513519
570.8275, 4.065109
571.3096, 0.4705350
571.7917, 1.754379
572.2739, 0.9375000
572.7560, 1.721985
573.2381, 4.395416
573.7202, 7.487350
574.2023, 9.099106
574.6844, 7.824402
575.1666, 6.081253
575.6487, 5.822952
576.1308, 6.499512
576.6129, 6.133301
577.0950, 3.616425
577.5771, 0.3266600
578.0593, 0.4482120
578.5414, 2.647949
579.0235, 4.565430
579.5056, 4.559616
579.9877, 3.728043
580.4698, 1.776489
580.9520, 0.4949800
581.4341, 1.426483
581.9162, 0.1586610
582.3983, 2.507706
582.8804, 3.212357
583.3625, 2.440857
583.8447, 1.713715
584.3268, 1.445114
584.8089, 1.247452
585.2910, 0.5272830
585.7731, 0.6093140
586.2552, 1.009140
586.7374, 0.1720120
587.2195, 1.011993
587.7016, 2.419022
588.1837, 3.760651
588.6658, 4.540466
589.1479, 4.615723
589.6301, 4.205124
590.1122, 3.448074
590.5943, 2.226990
591.0764, 1.842148
591.5585, 3.597870
592.0406, 4.660309
592.5228, 3.529495
593.0049, 1.749268
593.4870, 1.388336
593.9691, 2.938339
594.4512, 4.534393
594.9333, 4.182312
595.4155, 2.346909
595.8976, 0.9480590
596.3797, 6.7230001E-02
596.8618, 0.2765660
597.3439, 7.2098002E-02
597.8260, 0.9429470
598.3082, 1.931320
598.7903, 3.313889
599.2724, 4.119858
599.7545, 3.683624
600.2366, 2.736893
600.7188, 1.646027
601.2009, 0.8449250
601.6830, 1.153900
602.1651, 3.529648
602.6472, 7.146698
603.1293, 8.605652
603.6115, 6.284088
604.0936, 4.765717
604.5757, 4.849747
605.0578, 5.308746
605.5399, 5.541153
606.0220, 5.492142
606.5042, 5.139191
606.9863, 4.326584
607.4684, 3.573242
607.9505, 3.639328
608.4326, 4.527847
608.9147, 5.110168
609.3969, 4.927078
609.8790, 4.713013
610.3611, 5.520355
610.8432, 7.229233
611.3253, 8.198608
611.8074, 7.388489
612.2896, 6.706787
612.7717, 7.745499
613.2538, 9.426437
613.7359, 9.713379
614.2180, 8.068069
614.7001, 5.811447
615.1823, 4.455948
615.6644, 4.034470
616.1465, 3.831696
616.6286, 3.965729
617.1107, 4.167557
617.5928, 4.321823
618.0750, 4.530716
618.5571, 5.041901
619.0392, 5.869507
619.5213, 6.411804
620.0034, 5.894989
620.4855, 4.846588
620.9677, 4.606110
621.4498, 5.261520
621.9319, 5.633850
622.4140, 5.032501
622.8961, 3.916733
623.3782, 3.270462
623.8604, 3.237503
624.3425, 3.153641
624.8246, 2.802582
625.3067, 2.507996
625.7888, 2.410843
626.2709, 2.556549
626.7531, 3.163925
627.2352, 4.350967
627.7173, 5.483215
628.1994, 5.071915
628.6815, 2.570297
629.1636, 1.592010
629.6458, 3.760025
630.1279, 5.538483
630.6100, 4.458923
631.0921, 1.895691
631.5742, 0.4791110
632.0563, 1.167892
632.5385, 2.150391
633.0206, 2.099731
633.5027, 1.424454
633.9848, 0.7442020
634.4669, 0.1735230
634.9490, 0.2358090
635.4312, 1.463715
635.9133, 3.503754
636.3954, 4.877396
636.8775, 5.049622
637.3596, 5.134781
637.8417, 5.411530
638.3239, 5.419373
638.8060, 4.628967
639.2881, 3.198471
639.7702, 1.809906
640.2523, 0.4924930
640.7344, 0.3945470
641.2166, 2.5162000E-02
641.6987, 1.816437
642.1808, 3.719559
642.6629, 5.894058
643.1450, 7.139481
643.6271, 5.485229
644.1093, 1.974106
644.5914, 0.2727810
645.0735, 2.716324
645.5556, 4.874542
646.0377, 3.940765
646.5198, 1.774414
647.0020, 1.194748
647.4841, 2.623825
647.9662, 4.495224
648.4483, 5.515900
648.9304, 5.696457
649.4125, 4.933273
649.8947, 1.918472
650.3768, 0.4695430
650.8589, 3.188538
651.3410, 6.071030
651.8231, 5.847412
652.3052, 2.961853
652.7874, 0.6603240
653.2695, 0.6861880
653.7516, 1.734497
654.2337, 2.278549
654.7158, 2.438217
655.1979, 2.935822
655.6801, 4.021194
656.1622, 5.121292
656.6443, 5.741943
657.1264, 5.914825
657.6085, 4.886566
658.0906, 0.4824070
658.5728, 2.238403
659.0549, 0.7539520
659.5370, 2.185013
660.0191, 3.796997
660.5012, 3.644028
660.9833, 2.909958
661.4655, 2.312317
661.9476, 2.005966
662.4297, 2.903076
662.9118, 5.312057
663.3939, 6.332184
663.8760, 4.204300
664.3582, 1.356934
664.8403, 1.019547
665.3224, 2.953949
665.8045, 4.114258
666.2866, 3.335541
666.7687, 2.381897
667.2509, 2.286407
667.7330, 2.656693
668.2151, 2.774826
668.6972, 2.470520
669.1793, 2.116440
669.6614, 2.083466
670.1436, 2.361740
670.6257, 2.854553
671.1078, 3.868240
671.5899, 4.464890
672.0720, 4.109070
672.5541, 3.428421
673.0363, 2.626556
673.5184, 1.821304
674.0005, 1.710678
674.4826, 3.499283
674.9647, 5.414658
675.4468, 5.303879
675.9290, 3.779663
676.4111, 2.594788
676.8932, 2.288055
677.3753, 2.640106
677.8574, 3.496780
678.3395, 4.896576
678.8217, 5.892868
679.3038, 6.323929
679.7859, 6.534683
680.2680, 6.852554
680.7501, 6.794601
681.2322, 5.501785
681.7144, 3.173401
682.1965, 1.386398
682.6786, 1.429016
683.1607, 2.470428
683.6428, 3.473511
684.1249, 4.366684
684.6071, 4.209198
685.0892, 2.380051
685.5713, 0.7159730
686.0534, 1.674988
686.5355, 5.518707
687.0176, 7.195557
687.4998, 4.734924
687.9819, 2.786591
688.4640, 3.073273
688.9461, 4.116226
689.4282, 4.235199
689.9103, 3.294312
690.3925, 2.420029
690.8746, 2.551910
691.3567, 3.320343
691.8388, 4.009521
692.3209, 4.642654
692.8030, 4.490570
693.2852, 2.977402
693.7673, 1.367188
694.2494, 1.122299
694.7315, 2.143784
695.2136, 2.583328
695.6957, 1.968002
696.1779, 1.254791
696.6600, 0.3271640
697.1421, 0.2680510
697.6242, 0.6841430
698.1063, 2.858185
698.5884, 3.981659
699.0706, 2.061539
699.5527, 1.544006
700.0348, 2.782654
700.5169, 1.304459
700.9990, 0.3891750
701.4811, 2.103348
701.9633, 3.511826
702.4454, 4.255539
702.9275, 4.480408
703.4096, 4.534302
703.8917, 4.091614
704.3738, 3.916977
704.8560, 4.814484
705.3381, 5.909897
705.8202, 5.865723
706.3023, 4.767151
706.7844, 3.973206
707.2665, 4.497681
707.7487, 5.673981
708.2308, 5.588562
708.7129, 3.964798
709.1950, 2.350937
709.6771, 0.3988190
710.1592, 0.7907100
710.6414, 1.2253000E-02
711.1235, 1.923660
711.6056, 3.325699
712.0877, 3.876038
712.5698, 3.953812
713.0519, 3.121979
713.5341, 2.289764
714.0162, 2.816772
714.4983, 4.503799
714.9804, 6.119629
715.4625, 7.010315
715.9446, 7.079330
716.4268, 5.589844
716.9089, 1.960312
717.3910, 0.8330080
717.8731, 4.420151
718.3552, 7.504623
718.8373, 7.045074
719.3195, 4.880447
719.8016, 3.569641
720.2837, 3.535782
720.7658, 3.983658
721.2479, 4.948761
721.7300, 5.908920
722.2122, 6.358383
722.6943, 6.288544
723.1764, 5.733994
723.6585, 4.696976
724.1406, 3.506378
724.6227, 2.582397
725.1049, 1.862869
725.5870, 2.015930
726.0691, 3.711243
726.5512, 5.192993
727.0333, 5.996948
727.5154, 6.227539
727.9976, 5.830170
728.4797, 4.822311
728.9618, 3.729904
729.4439, 2.189423
729.9260, 1.163780
730.4081, 2.369026
730.8903, 4.686211
731.3724, 4.953728
731.8545, 2.390778
732.3366, 5.4740999E-02
732.8187, 1.020836
733.3008, 5.182991
733.7830, 7.096298
734.2651, 5.827728
734.7472, 4.319099
735.2293, 2.486893
735.7114, 1.241035
736.1935, 1.830147
736.6757, 3.619133
737.1578, 4.822807
737.6399, 4.891121
738.1220, 4.454941
738.6041, 3.617195
739.0862, 2.676361
739.5684, 2.005959
740.0505, 1.714958
740.5326, 2.054337
741.0147, 3.311974
741.4968, 5.031433
741.9789, 5.850540
742.4611, 5.667236
742.9432, 4.895393
743.4253, 2.825935
743.9074, 1.122307
744.3895, 1.150993
744.8716, 2.052780
745.3538, 2.153000
745.8359, 0.8920970
746.3180, 0.1538470
746.8001, 0.4132460
747.2822, 4.9194001E-02
747.7643, 1.162460
748.2465, 2.850586
748.7286, 4.052643
749.2107, 4.326836
749.6928, 3.890945
750.1749, 2.729019
750.6570, 0.7356340
751.1392, 0.4121090
751.6213, 2.457092
752.1034, 4.587761
752.5855, 6.412521
753.0676, 7.499817
753.5497, 7.032089
754.0319, 4.947868
754.5140, 3.382851
754.9961, 3.206894
755.4782, 3.334694
755.9603, 2.878548
756.4424, 2.308357
756.9246, 2.685326
757.4067, 3.914932
757.8888, 4.655357
758.3709, 3.755760
758.8530, 1.779152
759.3351, 0.5341340
759.8173, 8.3030999E-02
760.2994, 0.2596050
760.7815, 0.7186360
761.2636, 0.9395220
761.7457, 0.5056690
762.2278, 0.4530410
762.7100, 1.275093
763.1921, 2.041008
763.6742, 2.522491
764.1563, 2.521942
764.6384, 2.333588
765.1205, 2.043785
765.6027, 1.788666
766.0848, 1.885536
766.5669, 2.502388
767.0490, 3.189911
767.5311, 3.326210
768.0132, 2.935829
768.4954, 2.429817
768.9775, 1.733864
769.4596, 1.613029
769.9417, 2.768700
770.4238, 4.237854
770.9059, 4.232994
771.3881, 2.223167
771.8702, 0.8418880
772.3523, 0.1678010
772.8344, 6.9269999E-03
773.3165, 0.7877270
773.7986, 1.728104
774.2808, 1.690422
774.7629, 0.6789020
775.2450, 3.6056999E-02
775.7271, 0.7147220
776.2092, 1.951080
776.6913, 1.997437
777.1735, 1.213806
777.6556, 1.228569
778.1377, 2.443542
778.6198, 3.726692
779.1019, 4.072441
779.5840, 3.696632
780.0662, 3.726357
780.5483, 4.564209
781.0304, 5.039948
781.5125, 4.818008
781.9946, 4.492981
782.4767, 4.396751
782.9589, 4.390610
783.4410, 4.101723
783.9231, 3.318336
784.4052, 2.867767
784.8873, 3.586311
785.3694, 4.683289
785.8516, 5.353378
786.3337, 5.520187
786.8158, 5.115410
787.2979, 4.118446
787.7800, 2.824715
788.2621, 1.431213
788.7443, 1.4275000E-02
789.2264, 7.4928001E-02
789.7085, 2.486015
790.1906, 4.187233
790.6727, 3.902779
791.1548, 3.036156
791.6370, 3.412064
792.1191, 4.707176
792.6012, 4.529221
793.0833, 0.2392960
793.5654, 2.733780
794.0475, 1.491661
794.5297, 1.480865
795.0118, 4.305138
795.4939, 6.411530
795.9760, 7.185577
796.4581, 6.175873
796.9402, 4.444206
797.4224, 3.569977
797.9045, 3.422401
798.3866, 3.061325
798.8687, 2.343452
799.3508, 2.045128
799.8329, 2.635353
800.3151, 3.784630
800.7972, 5.049942
801.2793, 6.870743
801.7614, 7.031326
802.2435, 3.961990
802.7256, 1.335815
803.2078, 4.5853000E-02
803.6899, 0.3042450
804.1720, 0.9544910
804.6541, 3.390808
805.1362, 5.107475
805.6183, 4.369415
806.1005, 3.030655
806.5826, 3.401924
807.0647, 4.892151
807.5468, 6.435547
808.0289, 7.763687
808.5110, 8.233368
808.9932, 7.320457
809.4753, 5.660919
809.9574, 5.004173
810.4395, 5.727692
810.9216, 5.621384
811.4037, 3.671753
811.8859, 2.404709
812.3680, 4.061005
812.8501, 6.712440
813.3322, 7.324799
813.8143, 5.415627
814.2964, 4.163651
814.7786, 5.074333
815.2607, 6.006844
815.7428, 5.401657
816.2249, 4.185143
816.7070, 3.880142
817.1891, 4.626862
817.6713, 5.233253
818.1534, 4.658531
818.6355, 3.546936
819.1176, 3.174919
819.5997, 3.509300
820.0818, 4.129768
820.5640, 4.997940
821.0461, 5.330742
821.5282, 4.332344
822.0103, 2.670471
822.4924, 2.477402
822.9745, 5.020645
823.4567, 6.196411
823.9388, 4.536774
824.4209, 3.207352
824.9030, 3.319557
825.3851, 4.403336
825.8672, 6.299080
826.3494, 8.915779
826.8315, 10.31051
827.3136, 8.594452
827.7957, 6.225822
828.2778, 5.221703
828.7599, 5.089226
829.2421, 4.894165
829.7242, 4.444031
830.2063, 3.953644
830.6884, 3.513382
831.1705, 3.354851
831.6526, 4.273140
832.1348, 6.317451
832.6169, 7.688484
833.0990, 8.118912
833.5811, 7.982872
834.0632, 7.200912
834.5453, 6.196182
835.0275, 5.992393
835.5096, 7.108719
835.9917, 7.541199
836.4738, 6.865128
836.9559, 5.781784
837.4380, 3.817116
837.9202, 2.166389
838.4023, 2.528358
838.8844, 4.752960
839.3665, 6.424583
839.8486, 5.753624
840.3307, 4.588898
840.8129, 5.166100
841.2950, 6.519035
841.7771, 6.428421
842.2592, 4.807831
842.7413, 3.468765
843.2234, 3.584129
843.7056, 4.490913
844.1877, 4.860832
844.6698, 4.647194
845.1519, 4.453293
845.6340, 4.293335
846.1161, 4.147102
846.5983, 3.926292
847.0804, 3.788933
847.5625, 4.199310
848.0446, 5.251625
848.5267, 5.183899
849.0089, 2.182007
849.4910, 0.3119350
849.9731, 1.497017
850.4552, 3.641823
850.9373, 5.175766
851.4194, 5.727501
851.9016, 5.629448
852.3837, 4.692459
852.8658, 3.854805
853.3479, 4.547707
853.8300, 5.746269
854.3121, 5.209366
854.7943, 3.267929
855.2764, 2.298149
855.7585, 3.336037
856.2406, 5.134384
856.7227, 6.193176
857.2048, 6.514236
857.6870, 6.010857
858.1691, 4.393822
858.6512, 3.104538
859.1333, 2.537918
859.6154, 2.347084
860.0975, 2.411812
860.5797, 2.626923
861.0618, 2.398811
861.5439, 1.479713
862.0260, 0.5546800
862.5081, 1.163132
862.9902, 2.042053
863.4724, 8.3309999E-03
863.9545, 3.124268
864.4366, 3.917473
864.9187, 1.635445
865.4008, 0.4192200
865.8829, 0.2190250
866.3651, 1.996780
866.8472, 3.344849
867.3293, 4.354492
867.8114, 5.703590
868.2935, 7.341469
868.7756, 7.606354
869.2578, 4.960747
869.7399, 0.9743960
870.2220, 0.1604840
870.7041, 1.723351
871.1862, 2.919060
871.6683, 2.982445
872.1505, 2.830925
872.6326, 2.866379
873.1147, 3.023811
873.5968, 3.189011
874.0789, 3.339478
874.5610, 3.619308
875.0432, 4.484032
875.5253, 4.872368
876.0074, 4.093208
876.4895, 3.104790
876.9716, 2.795349
877.4537, 3.024879
877.9359, 2.968933
878.4180, 2.095757
878.9001, 1.524361
879.3822, 2.447540
879.8643, 3.669373
880.3464, 3.809792
880.8286, 3.039680
881.3107, 1.966949
881.7928, 0.8707890
882.2749, 0.1825940
882.7570, 0.5143660
883.2391, 1.558327
883.7213, 2.527657
884.2034, 3.391754
884.6855, 3.289520
885.1676, 1.815750
885.6497, 0.9772570
886.1318, 2.664436
886.6140, 5.823090
887.0961, 6.723892
887.5782, 4.104446
888.0603, 2.466728
888.5424, 2.137421
889.0245, 2.377495
889.5067, 3.198334
889.9888, 4.240746
890.4709, 5.280724
890.9530, 6.296272
891.4351, 6.564682
891.9172, 5.890465
892.3994, 4.502312
892.8815, 1.336037
893.3636, 1.626579
893.8457, 2.391281
894.3278, 1.180191
894.8099, 1.041656
895.2921, 4.058571
895.7742, 6.327438
896.2563, 5.801987
896.7384, 3.859001
897.2205, 2.784073
897.7026, 2.500710
898.1848, 2.247528
898.6669, 1.880020
899.1490, 1.428734
899.6311, 1.099342
900.1132, 0.9607160
900.5953, 1.336540
901.0775, 2.320923
901.5596, 2.671158
902.0417, 2.059006
902.5238, 1.302063
903.0059, 0.8023910
903.4880, 0.5591740
903.9702, 0.5831220
904.4523, 0.9091340
904.9344, 1.361740
905.4165, 2.623695
905.8986, 3.123718
906.3807, 1.432495
906.8629, 0.3028790
907.3450, 0.3476790
907.8271, 2.729393
908.3092, 3.703484
908.7913, 1.555725
909.2734, 0.1901320
909.7556, 0.4182970
910.2377, 1.769882
910.7198, 2.752235
911.2019, 3.251350
911.6840, 2.986519
912.1661, 2.025764
912.6483, 1.742455
913.1304, 4.086319
913.6125, 7.088448
914.0946, 7.171524
914.5767, 5.183952
915.0588, 3.810059
915.5410, 3.486115
916.0231, 3.455238
916.5052, 3.272820
916.9873, 2.891548
917.4694, 1.824547
917.9515, 2.4101000E-02
918.4337, 0.6534880
918.9158, 4.709541
919.3979, 7.304733
919.8800, 6.296783
920.3621, 4.153358
920.8442, 3.646080
921.3264, 4.695068
921.8085, 4.561249
922.2906, 1.851234
922.7727, 0.2407150
923.2548, 0.3704830
923.7369, 1.053192
924.2191, 2.096756
924.7012, 3.146584
925.1833, 3.659569
925.6654, 3.558815
926.1475, 3.440109
926.6296, 3.244698
927.1118, 3.148911
927.5939, 3.620804
928.0760, 4.080139
928.5581, 3.740547
929.0402, 2.785378
929.5223, 2.115150
930.0045, 1.990463
930.4866, 2.157959
930.9687, 3.106804
931.4508, 4.177177
931.9329, 4.135780
932.4150, 3.292625
932.8972, 2.794807
933.3793, 2.933708
933.8614, 3.102844
934.3435, 2.752518
934.8256, 2.119324
935.3077, 1.693542
935.7899, 1.481392
936.2720, 1.820869
936.7541, 2.795158
937.2362, 3.844376
937.7183, 4.836906
938.2004, 5.267807
938.6826, 4.144440
939.1647, 1.401276
939.6468, 0.1660310
940.1289, 0.9551090
940.6110, 2.058502
941.0931, 3.817406
941.5753, 4.941429
942.0574, 3.985283
942.5395, 1.801353
943.0216, 0.7787630
943.5037, 1.439041
943.9858, 1.724800
944.4680, 0.7030260
944.9501, 7.5066000E-02
945.4322, 0.8547820
945.9143, 2.046707
946.3964, 2.687241
946.8785, 2.743294
947.3607, 2.579727
947.8428, 2.152473
948.3249, 1.891075
948.8070, 2.264320
949.2891, 2.681679
949.7712, 1.992630
950.2534, 1.082779
950.7355, 2.256836
951.2176, 5.700592
951.6997, 8.456017
952.1818, 7.930649
952.6639, 6.179832
953.1461, 6.160019
953.6282, 7.003326
954.1103, 6.622330
954.5924, 4.900543
955.0745, 2.603073
955.5566, 6.9808997E-02
956.0388, 1.627350
956.5209, 0.4528430
957.0030, 2.777145
957.4851, 3.657097
957.9672, 2.204956
958.4493, 0.8648150
958.9315, 0.1406780
959.4136, 4.5745999E-02
959.8957, 0.2871860
960.3778, 1.032722
960.8599, 2.024574
961.3420, 3.452316
961.8242, 4.057480
962.3063, 3.433945
962.7884, 3.014221
963.2705, 3.544388
963.7526, 4.067947
964.2347, 3.312523
964.7169, 1.570107
965.1990, 1.114273
965.6811, 3.843239
966.1632, 4.907066
966.6453, 2.664871
967.1274, 0.6210630
967.6096, 0.4337620
968.0917, 1.172958
968.5738, 1.556152
969.0559, 1.537735
969.5380, 2.159836
970.0201, 5.200714
970.5023, 6.892982
970.9844, 4.496735
971.4665, 1.513283
971.9486, 0.7691040
972.4307, 1.655624
972.9128, 2.579315
973.3950, 3.107689
973.8771, 3.413048
974.3592, 3.584892
974.8413, 3.594719
975.3234, 3.321014
975.8055, 2.922104
976.2877, 2.592659
976.7698, 2.375099
977.2519, 2.296310
977.7340, 2.371994
978.2161, 2.509415
978.6982, 2.512794
979.1804, 2.558655
979.6625, 3.004990
980.1446, 3.842545
980.6267, 5.205200
981.1088, 7.029221
981.5909, 7.774696
982.0731, 6.297050
982.5552, 3.641251
983.0373, 1.213020
983.5194, 0.8050380
984.0015, 0.7119290
984.4836, 1.528580
984.9658, 3.422432
985.4479, 4.246979
985.9300, 3.800125
986.4121, 1.616264
986.8942, 1.434723
987.3763, 2.021797
987.8585, 0.3416900
988.3406, 3.024002
988.8227, 6.493477
989.3048, 8.026680
989.7869, 5.684830
990.2690, 2.427826
990.7512, 2.068069
991.2333, 4.329521
991.7154, 4.661644
992.1975, 1.682884
992.6796, 0.3251500
993.1617, 2.100281
993.6439, 3.898552
994.1260, 4.311745
994.6081, 3.876068
995.0902, 2.999115
995.5723, 1.625977
996.0544, 1.606354
996.5366, 4.655777
997.0187, 6.708801
997.5008, 6.616257
997.9829, 5.856232
998.4650, 5.082634
998.9471, 4.365349
999.4293, 3.822639
999.9114, 3.483170
1000.393, 2.846443
1000.876, 0.7489320
1001.358, 0.3550640
1001.840, 1.687973
1002.322, 4.217133
1002.804, 4.691956
1003.286, 3.724442
1003.768, 3.327042
1004.250, 4.105263
1004.733, 4.388390
1005.215, 2.148537
1005.697, 0.3026960
1006.179, 1.629883
1006.661, 4.284424
1007.143, 6.193138
1007.625, 7.035172
1008.107, 6.922630
1008.589, 5.826889
1009.072, 4.744049
1009.554, 4.748589
1010.036, 5.029022
1010.518, 4.568466
1011.000, 3.648018
1011.482, 2.725166
1011.964, 1.973541
1012.446, 1.644119
1012.929, 1.894516
1013.411, 2.385612
1013.893, 2.691299
1014.375, 2.980644
1014.857, 3.187401
1015.339, 3.264847
1015.821, 3.478210
1016.303, 3.827805
1016.785, 3.845757
1017.268, 3.159584
1017.750, 2.291168
1018.232, 2.023270
1018.714, 2.297981
1019.196, 3.084976
1019.678, 4.268005
1020.160, 4.968147
1020.642, 4.945297
1021.125, 4.660957
1021.607, 4.503517
1022.089, 4.267487
1022.571, 3.209633
1023.053, 1.418472
1023.535, 0.9326020
1024.017, 1.963303
1024.499, 3.195549
1024.981, 4.137436
1025.464, 4.429321
1025.946, 3.677071
1026.428, 2.399704
1026.910, 2.384506
1027.392, 3.821182
1027.874, 4.494972
1028.356, 4.099937
1028.838, 4.188278
1029.321, 5.547020
1029.803, 6.788765
1030.285, 6.390015
1030.767, 6.989647
1031.249, 7.028366
1031.731, 6.118462
1032.213, 6.393150
1032.695, 4.672806
1033.177, 3.213242
1033.660, 2.796875
1034.142, 3.071182
1034.624, 3.930069
1035.106, 5.158134
1035.588, 5.354080
1036.070, 4.108597
1036.552, 2.699692
1037.034, 2.8960999E-02
1037.516, 0.7486800
1037.999, 3.322739
1038.481, 7.938087
1038.963, 7.888634
1039.445, 3.964363
1039.927, 2.338654
1040.409, 5.449409
1040.891, 6.534149
1041.373, 3.591858
1041.855, 1.076614
1042.338, 1.300041
1042.820, 2.238625
1043.302, 1.466980
1043.784, 0.6376040
1044.266, 1.118904
1044.748, 1.534744
1045.230, 3.203499
1045.712, 2.944771
1046.195, 2.787048
1046.677, 4.633659
1047.159, 6.265152
1047.641, 4.214104
1048.123, 0.7213520
1048.605, 2.652672
1049.087, 0.9773940
1049.569, 4.103012
1050.052, 5.972534
1050.534, 7.026855
1051.016, 7.579056
1051.498, 7.351555
1051.980, 5.387032
1052.462, 2.153130
1052.944, 0.3561100
1053.426, 1.102409
1053.908, 2.009193
1054.391, 2.855873
1054.873, 3.378746
1055.355, 3.385620
1055.837, 3.041481
1056.319, 2.098953
1056.801, 0.8992160
1057.283, 1.038841
1057.765, 3.801750
1058.248, 5.746552
1058.730, 5.446434
1059.212, 4.515060
1059.694, 3.449059
1060.176, 2.652069
1060.658, 2.804878
1061.140, 3.676018
1061.622, 4.107155
1062.104, 3.586609
1062.587, 3.183960
1063.069, 3.056740
1063.551, 3.406197
1064.033, 5.296753
1064.515, 7.097466
1064.997, 6.341660
1065.479, 3.703064
1065.961, 2.381271
1066.443, 3.742691
1066.926, 4.843712
1067.408, 4.198837
1067.890, 3.274284
1068.372, 2.653214
1068.854, 2.438171
1069.336, 2.988617
1069.818, 3.988968
1070.300, 4.511520
1070.782, 4.295586
1071.265, 3.566254
1071.747, 1.170853
1072.229, 0.2603450
1072.711, 2.099953
1073.193, 5.315361
1073.675, 5.935417
1074.157, 4.644424
1074.639, 3.896469
1075.122, 4.704903
1075.604, 5.011543
1076.086, 2.458282
1076.568, 0.8107300
1077.050, 3.818741
1077.532, 7.613754
1078.014, 7.705971
1078.496, 5.186188
1078.979, 3.916008
1079.461, 4.978729
1079.943, 5.415459
1080.425, 3.296097
1080.907, 0.9053270
1081.389, 1.255424
1081.871, 2.440361
1082.353, 1.121979
1082.835, 1.478043
1083.318, 2.516273
1083.800, 1.405602
1084.282, 0.6179200
1084.764, 1.690208
1085.246, 2.737495
1085.728, 2.545486
1086.210, 2.178391
1086.692, 2.670021
1087.175, 3.638672
1087.657, 4.322639
1088.139, 4.540672
1088.621, 4.593330
1089.103, 4.615379
1089.585, 4.468742
1090.067, 3.498619
1090.549, 2.927299
1091.031, 4.535095
1091.514, 6.725311
1091.996, 6.755333
1092.478, 4.555565
1092.960, 2.807205
1093.442, 2.462166
1093.924, 2.583046
1094.406, 3.264236
1094.888, 3.785942
1095.370, 3.562454
1095.853, 3.151314
1096.335, 3.063507
1096.817, 3.382591
1097.299, 3.762123
1097.781, 4.223122
1098.263, 4.352539
1098.745, 3.700378
1099.227, 3.055672
1099.709, 2.892624
1100.192, 2.900009
1100.674, 2.481293
1101.156, 1.918976
1101.638, 2.375641
1102.120, 4.698517
1102.602, 5.977333
1103.084, 4.461769
1103.566, 2.851898
1104.049, 2.073128
1104.531, 1.745171
1105.013, 1.512863
1105.495, 1.459076
1105.977, 1.821747
1106.459, 2.658615
1106.941, 3.636742
1107.423, 4.460838
1107.906, 5.243584
1108.388, 6.582031
1108.870, 7.308830
1109.352, 5.964180
1109.834, 3.785896
1110.316, 3.098656
1110.798, 4.108475
1111.280, 4.494461
1111.762, 3.655609
1112.245, 2.812309
1112.727, 1.818367
1113.209, 1.187683
1113.691, 1.486542
1114.173, 2.088554
1114.655, 2.176788
1115.137, 1.793755
1115.619, 1.491966
1116.102, 0.7384260
1116.584, 1.051338
1117.066, 3.836082
1117.548, 5.599495
1118.030, 4.418251
1118.512, 2.501816
1118.994, 1.930351
1119.476, 2.370537
1119.958, 2.510895
1120.441, 2.353897
1120.923, 1.797195
1121.405, 0.1953350
1121.887, 0.1467440
1122.369, 2.182663
1122.851, 4.357735
1123.333, 4.039864
1123.815, 2.311150
1124.297, 1.550491
1124.780, 1.826111
1125.262, 2.260979
1125.744, 3.001221
1126.226, 3.213623
1126.708, 2.420479
1127.190, 2.368408
1127.672, 4.407402
1128.154, 6.671867
1128.636, 6.165092
1129.119, 7.302780
1129.601, 6.998550
1130.083, 5.618958
1130.565, 5.164955
1131.047, 0.5779270
1131.529, 1.982071
1132.011, 0.2078090
1132.493, 3.483223
1132.976, 4.110008
1133.458, 3.051361
1133.940, 3.226891
1134.422, 4.475418
1134.904, 4.656502
1135.386, 3.730759
1135.868, 2.999588
1136.350, 2.815193
1136.833, 2.678085
1137.315, 2.178490
1137.797, 1.899574
1138.279, 3.588142
1138.761, 6.153404
1139.243, 4.792191
1139.725, 0.7030110
1140.207, 0.4618000
1140.689, 1.754074
1141.172, 3.619041
1141.654, 3.399834
1142.136, 2.446625
1142.618, 2.149712
1143.100, 2.102997
1143.582, 1.561668
1144.064, 0.7821580
1144.546, 1.6182000E-02
1145.029, 0.5164950
1145.511, 0.4615630
1145.993, 2.981285
1146.475, 4.749802
1146.957, 3.920311
1147.439, 2.474510
1147.921, 1.928505
1148.403, 2.233208
1148.885, 4.150398
1149.368, 6.477577
1149.850, 6.790657
1150.332, 5.315636
1150.814, 4.857811
1151.296, 6.958282
1151.778, 7.769661
1152.260, 3.056335
1152.742, 1.488937
1153.224, 1.488792
1153.707, 0.2536160
1154.189, 0.3360900
1154.671, 0.3551640
1155.153, 1.527435
1155.635, 6.709412
1156.117, 9.624535
1156.599, 6.536461
1157.081, 3.760895
1157.563, 3.532333
1158.046, 3.903091
1158.528, 3.927582
1159.010, 3.660919
1159.492, 3.234261
1159.974, 2.664146
1160.456, 1.934631
1160.938, 0.1776280
1161.420, 3.4325000E-02
1161.903, 3.456192
1162.385, 5.529068
1162.867, 3.550179
1163.349, 1.119576
1163.831, 1.098267
1164.313, 2.629799
1164.795, 3.630295
1165.277, 4.005569
1165.760, 4.715179
1166.242, 6.100922
1166.724, 7.165390
1167.206, 7.977905
1167.688, 7.863411
1168.170, 6.184418
1168.652, 4.117783
1169.134, 3.190231
1169.616, 3.175369
1170.099, 2.802635
1170.581, 2.051781
1171.063, 3.351746
1171.545, 6.877251
1172.027, 8.860580
1172.509, 8.152245
1172.991, 6.490265
1173.473, 5.097496
1173.956, 4.120575
1174.438, 4.240776
1174.920, 4.881485
1175.402, 3.575035
1175.884, 1.242828
1176.366, 1.451294
1176.848, 3.965668
1177.330, 4.943764
1177.813, 2.791862
1178.295, 0.1669850
1178.777, 1.092110
1179.259, 0.8352280
1179.741, 2.470306
1180.223, 6.467300
1180.705, 7.584610
1181.187, 6.599052
1181.669, 5.220009
1182.151, 4.084602
1182.634, 4.026016
1183.116, 5.855362
1183.598, 7.166931
1184.080, 5.763115
1184.562, 4.280037
1185.044, 4.543083
1185.526, 5.574654
1186.008, 6.583069
1186.490, 7.381699
1186.973, 7.680061
1187.455, 7.376770
1187.937, 7.582771
1188.419, 9.822708
1188.901, 10.63282
1189.383, 7.209549
1189.865, 4.693878
1190.347, 6.519173
1190.830, 9.538307
1191.312, 10.39150
1191.794, 9.490150
1192.276, 8.897476
1192.758, 8.833054
1193.240, 8.250496
1193.722, 6.803688
1194.204, 6.000252
1194.687, 6.500092
1195.169, 6.541458
1195.651, 4.745987
1196.133, 2.674667
1196.615, 3.063324
1197.097, 5.327652
1197.579, 5.708504
1198.061, 4.305641
1198.543, 3.297424
1199.026, 2.872131
1199.508, 3.044388
1199.990, 3.783028
1200.472, 4.381416
1200.954, 4.211655
1201.436, 3.914940
1201.918, 4.828674
1202.400, 4.365204
1202.883, 5.690269
1203.365, 4.357788
1203.847, 3.839424
1204.329, 4.159668
1204.811, 4.369133
1205.293, 4.113304
1205.775, 3.660393
1206.257, 2.848785
1206.740, 2.386200
1207.222, 3.030411
1207.704, 4.017426
1208.186, 4.751839
1208.668, 5.302650
1209.150, 5.843658
1209.632, 6.390656
1210.114, 6.926208
1210.596, 7.481430
1211.078, 7.608070
1211.561, 6.957306
1212.043, 6.310532
1212.525, 5.703537
1213.007, 5.530083
1213.489, 6.201225
1213.971, 6.962677
1214.453, 6.294533
1214.935, 6.379166
1215.417, 6.061096
1215.900, 5.056564
1216.382, 5.378571
1216.864, 4.062729
1217.346, 4.179192
1217.828, 7.131256
1218.310, 9.181107
1218.792, 7.183708
1219.274, 3.740547
1219.757, 3.919106
1220.239, 6.815285
1220.721, 8.093643
1221.203, 8.073235
1221.685, 8.926620
1222.167, 10.38580
1222.649, 8.560822
1223.131, 2.532585
1223.614, 2.091522
1224.096, 0.8387450
1224.578, 2.759651
1225.060, 6.215218
1225.542, 8.619194
1226.024, 8.037582
1226.506, 6.015068
1226.988, 4.507217
1227.470, 3.881493
1227.953, 4.336685
1228.435, 6.081642
1228.917, 7.344391
1229.399, 7.315308
1229.881, 6.928001
1230.363, 6.212227
1230.845, 5.534340
1231.327, 5.611275
1231.810, 5.480270
1232.292, 3.324890
1232.774, 2.0935001E-02
1233.256, 1.648506
1233.738, 1.499290
1234.220, 4.1724999E-02
1234.702, 3.840004
1235.184, 6.073021
1235.667, 5.721687
1236.149, 4.945084
1236.631, 4.790237
1237.113, 4.990135
1237.595, 5.201546
1238.077, 5.571938
1238.559, 7.026382
1239.041, 9.073196
1239.523, 8.649376
1240.005, 6.296196
1240.488, 5.468163
1240.970, 6.593605
1241.452, 7.326302
1241.934, 6.504616
1242.416, 5.557922
1242.898, 5.970711
1243.380, 6.699852
1243.862, 6.602867
1244.344, 6.332825
1244.827, 6.648102
1245.309, 7.329544
1245.791, 8.137413
1246.273, 8.864449
1246.755, 8.816475
1247.237, 7.491463
1247.719, 6.516808
1248.201, 6.676430
1248.684, 6.643661
1249.166, 5.478409
1249.648, 4.689499
1250.130, 5.732162
1250.612, 6.980339
1251.094, 5.859207
1251.576, 3.000320
1252.058, 2.714584
1252.541, 5.459236
1253.023, 7.573601
1253.505, 8.989258
1253.987, 9.400238
1254.469, 8.722733
1254.951, 7.113014
1255.433, 5.612053
1255.915, 4.390160
1256.397, 4.136703
1256.880, 4.583984
1257.362, 5.525848
1257.844, 6.594681
1258.326, 7.167816
1258.808, 7.196243
1259.290, 6.370758
1259.772, 4.532555
1260.254, 3.745361
1260.737, 4.049950
1261.219, 4.977180
1261.701, 6.854141
1262.183, 8.552338
1262.665, 10.13945
1263.147, 10.70744
1263.629, 8.443375
1264.111, 5.502014
1264.594, 5.323997
1265.076, 7.378990
1265.558, 8.069107
1266.040, 7.031776
1266.522, 5.781357
1267.004, 3.872917
1267.486, 3.517769
1267.968, 5.507027
1268.450, 7.433762
1268.932, 8.161308
1269.415, 7.243866
1269.897, 3.312004
1270.379, 1.013466
1270.861, 2.325989
1271.343, 9.928474
1271.825, 10.97765
1272.307, 7.115280
1272.789, 4.019455
1273.271, 2.774750
1273.754, 2.821800
1274.236, 3.896912
1274.718, 4.984627
1275.200, 5.771606
1275.682, 5.859779
1276.164, 4.492050
1276.646, 2.891495
1277.128, 1.773651
1277.611, 1.136635
1278.093, 5.8883999E-02
1278.575, 6.7596003E-02
1279.057, 1.540749
1279.539, 0.9326930
1280.021, 0.8923110
1280.503, 1.947777
1280.985, 0.7489240
1281.468, 3.046379
1281.950, 3.910889
1282.432, 1.660957
1282.914, 0.1179430
1283.396, 1.681343
1283.878, 5.439125
1284.360, 5.059174
1284.842, 3.274811
1285.324, 0.0000000E+00
##END=



