##NAMES=Finnemanite
##RRUFFID=R140329
##IDEAL CHEMISTRY=Pb^2+^_5_(As^3+^O_3_)_3_Cl
##LOCALITY=LÃ¥ngban, Varmland, Sweden
##OWNER=RRUFF
##SOURCE=Benjamin N. Schumer
##DESCRIPTION=Dark grey prismatic crystals, associated with hematite
##STATUS=The identification of this mineral has been confirmed by single-crystal X-ray diffraction.
##URL=rruff.info/R140329
193.4988, 0.0000000E+00
193.9810, 5.151855
194.4631, 5.697815
194.9452, 6.409668
195.4273, 5.933167
195.9094, 6.574524
196.3915, 6.818298
196.8737, 4.057922
197.3558, 2.367920
197.8379, 0.6851200
198.3200, 1.277527
198.8021, 1.998474
199.2842, 0.2776490
199.7664, 5.659058
200.2485, 11.20636
200.7306, 16.08014
201.2127, 20.63068
201.6948, 27.22070
202.1769, 36.30414
202.6591, 45.97913
203.1412, 54.38898
203.6233, 61.46710
204.1054, 68.29547
204.5875, 75.33203
205.0696, 82.44562
205.5518, 88.13940
206.0339, 92.15607
206.5160, 95.37183
206.9981, 98.95288
207.4802, 103.2864
207.9623, 106.0722
208.4445, 106.5233
208.9266, 104.7134
209.4087, 102.7209
209.8908, 100.5369
210.3729, 98.11594
210.8550, 95.32849
211.3372, 92.11148
211.8193, 88.89648
212.3014, 85.65042
212.7835, 82.41803
213.2656, 79.88611
213.7477, 78.17932
214.2299, 76.98364
214.7120, 75.93372
215.1941, 74.83905
215.6762, 74.37051
216.1583, 74.69266
216.6404, 75.82397
217.1226, 77.32028
217.6047, 79.15158
218.0868, 81.31757
218.5689, 83.78769
219.0510, 86.50162
219.5331, 89.60321
220.0153, 93.29932
220.4974, 97.70404
220.9795, 101.3873
221.4616, 103.7925
221.9437, 106.0811
222.4258, 109.8780
222.9080, 116.0086
223.3901, 121.9211
223.8722, 126.6872
224.3543, 130.0948
224.8364, 134.4879
225.3185, 140.3411
225.8007, 146.6896
226.2828, 152.3390
226.7649, 156.9284
227.2470, 161.4431
227.7291, 166.0557
228.2112, 170.7932
228.6934, 175.6745
229.1755, 181.0674
229.6576, 186.4200
230.1397, 190.6798
230.6218, 192.9706
231.1039, 195.7780
231.5861, 199.7619
232.0682, 205.0937
232.5503, 210.7595
233.0324, 216.8418
233.5145, 223.2440
233.9966, 229.8372
234.4788, 236.6727
234.9609, 243.8546
235.4430, 251.3876
235.9251, 259.4480
236.4072, 267.2269
236.8893, 274.4015
237.3715, 281.5776
237.8536, 289.1706
238.3357, 297.3928
238.8178, 305.5198
239.2999, 313.1962
239.7820, 320.2707
240.2642, 327.5904
240.7463, 335.6091
241.2284, 343.2903
241.7105, 349.5763
242.1926, 354.2848
242.6747, 358.4543
243.1569, 361.9565
243.6390, 365.2391
244.1211, 367.4162
244.6032, 368.3247
245.0853, 368.3496
245.5674, 367.7626
246.0496, 366.6549
246.5317, 364.8546
247.0138, 362.3678
247.4959, 359.2141
247.9780, 355.1149
248.4601, 350.1307
248.9423, 344.1462
249.4244, 336.9427
249.9065, 328.0887
250.3886, 318.9103
250.8707, 309.6858
251.3528, 301.4591
251.8350, 292.6687
252.3171, 283.0503
252.7992, 273.2812
253.2813, 264.2189
253.7634, 256.6804
254.2455, 248.2300
254.7277, 238.1000
255.2098, 226.1974
255.6919, 215.0463
256.1740, 205.0547
256.6561, 195.1928
257.1382, 184.5531
257.6204, 172.0844
258.1025, 160.8411
258.5846, 151.8174
259.0667, 144.8466
259.5488, 137.2574
260.0309, 128.9671
260.5131, 120.4522
260.9952, 112.2151
261.4773, 104.0422
261.9594, 96.57608
262.4415, 90.12137
262.9236, 84.53802
263.4058, 79.12009
263.8879, 73.76480
264.3700, 68.63525
264.8521, 63.65558
265.3342, 58.82217
265.8163, 54.33742
266.2985, 50.31248
266.7806, 46.71490
267.2627, 43.21455
267.7448, 39.82883
268.2269, 36.55963
268.7090, 33.38403
269.1912, 30.20175
269.6733, 27.37389
270.1554, 25.05536
270.6375, 23.07722
271.1196, 20.86548
271.6017, 18.32591
272.0839, 15.81651
272.5660, 13.60736
273.0481, 11.66849
273.5302, 10.16287
274.0123, 9.238068
274.4944, 8.647507
274.9766, 7.568497
275.4587, 5.880859
275.9408, 4.201157
276.4229, 3.011093
276.9050, 2.345917
277.3871, 1.577850
277.8693, 0.6233060
278.3514, 0.4090120
278.8335, 1.234695
279.3156, 1.829544
279.7977, 2.460052
280.2798, 3.388321
280.7620, 4.602448
281.2441, 5.451462
281.7262, 5.840622
282.2083, 5.973511
282.6904, 6.225052
283.1725, 6.611755
283.6547, 6.903900
284.1368, 6.965988
284.6189, 6.807831
285.1010, 6.624084
285.5831, 6.407501
286.0652, 6.198059
286.5474, 6.116364
287.0295, 6.157135
287.5116, 6.057175
287.9937, 5.602432
288.4758, 4.874268
288.9579, 4.293549
289.4401, 3.846542
289.9222, 3.603561
290.4043, 3.946472
290.8864, 4.750549
291.3685, 4.985764
291.8506, 3.863846
292.3328, 1.924835
292.8149, 0.8895110
293.2970, 0.8166500
293.7791, 0.8908390
294.2612, 0.2242130
294.7433, 1.026230
295.2255, 2.240921
295.7076, 3.166290
296.1897, 3.954117
296.6718, 4.907303
297.1539, 6.019867
297.6360, 7.143127
298.1182, 8.131058
298.6003, 9.026932
299.0824, 9.925278
299.5645, 10.72778
300.0466, 11.68611
300.5287, 13.28604
301.0109, 15.45081
301.4930, 17.67770
301.9751, 19.52924
302.4572, 21.20436
302.9393, 23.00533
303.4214, 25.04156
303.9036, 27.18301
304.3857, 29.31422
304.8678, 31.43596
305.3499, 33.59390
305.8320, 35.70436
306.3141, 37.89661
306.7963, 40.34366
307.2784, 43.19170
307.7605, 46.02542
308.2426, 48.38860
308.7247, 50.46468
309.2068, 52.69159
309.6890, 55.36641
310.1711, 58.24614
310.6532, 61.15253
311.1353, 64.08771
311.6174, 66.85851
312.0995, 69.30444
312.5817, 71.46948
313.0638, 73.46234
313.5459, 74.87970
314.0280, 76.49271
314.5101, 79.11754
314.9922, 82.89281
315.4744, 86.03992
315.9565, 86.98602
316.4386, 87.07283
316.9207, 87.81549
317.4028, 90.55786
317.8849, 93.27100
318.3671, 94.94513
318.8492, 95.64178
319.3313, 96.62451
319.8134, 98.51227
320.2955, 100.7647
320.7776, 102.9267
321.2598, 104.9741
321.7419, 106.8588
322.2240, 108.6423
322.7061, 110.2643
323.1882, 111.4987
323.6703, 111.9204
324.1525, 112.2086
324.6346, 112.7352
325.1167, 113.8304
325.5988, 114.7744
326.0809, 115.4900
326.5630, 116.0119
327.0452, 116.4345
327.5273, 115.9675
328.0094, 116.0852
328.4915, 117.5362
328.9736, 121.5565
329.4557, 124.0922
329.9379, 124.1787
330.4200, 123.0824
330.9021, 122.8396
331.3842, 123.9919
331.8663, 125.2855
332.3484, 126.4533
332.8306, 127.4602
333.3127, 128.2670
333.7948, 128.9473
334.2769, 129.3504
334.7590, 129.2209
335.2411, 128.1968
335.7233, 127.4233
336.2054, 127.1152
336.6875, 127.2807
337.1696, 127.8326
337.6517, 129.0299
338.1339, 130.1002
338.6160, 130.3500
339.0981, 129.7031
339.5802, 128.7702
340.0623, 127.4187
340.5444, 125.9504
341.0266, 125.5710
341.5087, 126.5159
341.9908, 127.4950
342.4729, 127.7348
342.9550, 127.2226
343.4371, 126.4209
343.9193, 125.2229
344.4014, 123.9875
344.8835, 123.3933
345.3656, 123.4462
345.8477, 123.7601
346.3298, 124.2741
346.8120, 124.9296
347.2941, 125.3507
347.7762, 125.4859
348.2583, 125.6096
348.7404, 126.2368
349.2225, 127.2471
349.7047, 128.0252
350.1868, 127.8253
350.6689, 127.4517
351.1510, 128.7114
351.6331, 131.5544
352.1152, 134.4406
352.5974, 135.8662
353.0795, 136.4378
353.5616, 137.2823
354.0437, 138.7371
354.5258, 140.5139
355.0079, 142.5069
355.4901, 144.6414
355.9722, 146.6537
356.4543, 147.9502
356.9364, 149.2438
357.4185, 151.4308
357.9006, 155.0161
358.3828, 158.5635
358.8649, 161.0355
359.3470, 162.8416
359.8291, 164.8342
360.3112, 167.1895
360.7933, 169.9866
361.2755, 173.2841
361.7576, 177.0810
362.2397, 181.4012
362.7218, 186.6744
363.2039, 192.3216
363.6860, 197.6977
364.1682, 202.0621
364.6503, 206.7369
365.1324, 212.0309
365.6145, 217.9738
366.0966, 224.2498
366.5787, 231.4513
367.0609, 238.5580
367.5430, 244.9154
368.0251, 249.9313
368.5072, 254.8794
368.9893, 259.6263
369.4714, 264.3043
369.9536, 269.2429
370.4357, 275.0193
370.9178, 280.4709
371.3999, 285.1061
371.8820, 288.8863
372.3641, 292.0654
372.8463, 294.6714
373.3284, 296.6205
373.8105, 297.9319
374.2926, 299.0075
374.7747, 298.4915
375.2568, 295.7117
375.7390, 290.6251
376.2211, 285.5775
376.7032, 280.6489
377.1853, 275.4714
377.6674, 269.5482
378.1495, 262.8098
378.6317, 255.7229
379.1138, 248.3316
379.5959, 240.6383
380.0780, 232.1554
380.5601, 222.8340
381.0422, 213.7351
381.5244, 205.7878
382.0065, 198.7374
382.4886, 191.5702
382.9707, 184.0980
383.4528, 176.5653
383.9349, 168.8984
384.4171, 161.2279
384.8992, 154.3063
385.3813, 148.6419
385.8634, 143.8171
386.3455, 139.0092
386.8276, 134.2075
387.3098, 129.6087
387.7919, 125.4084
388.2740, 121.4680
388.7561, 117.5721
389.2382, 113.5887
389.7203, 109.6230
390.2025, 105.8437
390.6846, 102.2265
391.1667, 98.56967
391.6488, 94.72574
392.1309, 90.84930
392.6130, 87.04047
393.0952, 83.33441
393.5773, 79.77716
394.0594, 76.32062
394.5415, 73.06857
395.0236, 70.21210
395.5057, 68.45468
395.9879, 66.54663
396.4700, 63.75150
396.9521, 59.78101
397.4342, 56.52017
397.9163, 54.85583
398.3984, 53.74551
398.8806, 52.23785
399.3627, 49.79099
399.8448, 47.49237
400.3269, 45.48947
400.8090, 43.74338
401.2911, 42.04526
401.7733, 40.43729
402.2554, 38.80991
402.7375, 37.05679
403.2196, 34.95926
403.7017, 33.32507
404.1838, 32.38995
404.6660, 31.75955
405.1481, 30.68982
405.6302, 29.07535
406.1123, 27.38159
406.5944, 25.67032
407.0765, 23.95575
407.5587, 22.77930
408.0408, 22.23508
408.5229, 21.82874
409.0050, 21.02612
409.4871, 19.85486
409.9692, 18.67853
410.4514, 17.50891
410.9335, 16.43414
411.4156, 15.74820
411.8977, 15.41940
412.3798, 15.00330
412.8619, 14.17181
413.3441, 13.06320
413.8262, 11.91412
414.3083, 10.73975
414.7904, 9.570435
415.2725, 8.318512
415.7546, 7.089752
416.2368, 6.064728
416.7189, 5.481079
417.2010, 5.043549
417.6831, 4.518127
418.1652, 3.911774
418.6473, 3.305908
419.1295, 2.704681
419.6116, 2.149475
420.0937, 1.707245
420.5758, 1.569214
421.0579, 1.276794
421.5400, 0.3932500
422.0222, 0.7681270
422.5043, 1.467560
422.9864, 1.041656
423.4685, 0.5379940
423.9506, 0.3671260
424.4327, 0.6605680
424.9149, 0.9185790
425.3970, 1.153625
425.8791, 1.325729
426.3612, 1.408752
426.8433, 1.467773
427.3254, 1.326675
427.8076, 0.9040680
428.2897, 0.2439880
428.7718, 0.3262630
429.2539, 0.7118070
429.7360, 1.196716
430.2181, 1.980728
430.7003, 3.094818
431.1824, 4.186142
431.6645, 5.190369
432.1466, 6.231018
432.6287, 7.517090
433.1108, 9.046844
433.5930, 10.68201
434.0751, 12.38733
434.5572, 14.15956
435.0393, 15.90807
435.5214, 17.62686
436.0035, 19.55801
436.4857, 21.92427
436.9678, 24.65558
437.4499, 27.64229
437.9320, 30.90269
438.4141, 34.28622
438.8962, 37.74190
439.3784, 41.19759
439.8605, 44.45364
440.3426, 46.96957
440.8247, 49.54926
441.3068, 52.98154
441.7889, 57.33789
442.2711, 61.88910
442.7532, 66.32736
443.2353, 70.75439
443.7174, 75.28168
444.1995, 79.65660
444.6816, 84.44162
445.1638, 89.93481
445.6459, 96.05188
446.1280, 102.5142
446.6101, 109.6668
447.0922, 116.8358
447.5743, 123.8085
448.0565, 130.6048
448.5386, 136.9873
449.0207, 142.9238
449.5028, 148.4158
449.9849, 153.4282
450.4670, 158.2279
450.9492, 162.1576
451.4313, 165.1279
451.9134, 167.1351
452.3955, 168.1432
452.8776, 168.3334
453.3597, 166.8309
453.8419, 162.5947
454.3240, 155.7371
454.8061, 148.5207
455.2882, 141.1692
455.7703, 133.6171
456.2524, 125.8182
456.7346, 117.7218
457.2167, 109.8276
457.6988, 101.8988
458.1809, 94.35760
458.6630, 87.89828
459.1451, 82.52023
459.6273, 77.37384
460.1094, 71.64146
460.5915, 65.94104
461.0736, 61.15776
461.5557, 57.67981
462.0378, 54.45941
462.5200, 50.72951
463.0021, 46.80371
463.4842, 43.36708
463.9663, 40.95970
464.4484, 38.80336
464.9305, 36.50708
465.4127, 33.99490
465.8948, 31.86356
466.3769, 30.70801
466.8590, 29.78569
467.3411, 28.56703
467.8232, 26.59738
468.3054, 24.85413
468.7875, 23.28574
469.2696, 21.95087
469.7517, 21.12759
470.2338, 21.18604
470.7159, 21.17068
471.1981, 20.72908
471.6802, 19.82777
472.1623, 18.82684
472.6444, 17.72615
473.1265, 16.62701
473.6086, 15.59698
474.0908, 14.60687
474.5729, 13.72913
475.0550, 12.97322
475.5371, 12.38434
476.0192, 12.16072
476.5013, 12.22296
476.9835, 12.07001
477.4656, 11.32173
477.9477, 10.23303
478.4298, 9.078537
478.9119, 7.861038
479.3940, 6.943787
479.8762, 7.095840
480.3583, 7.562546
480.8404, 7.295090
481.3225, 5.261719
481.8046, 3.401062
482.2867, 2.959518
482.7689, 3.489334
483.2510, 3.828949
483.7331, 3.531418
484.2152, 3.021744
484.6973, 2.466583
485.1794, 1.867401
485.6616, 1.279343
486.1437, 0.7144010
486.6258, 0.1576840
487.1079, 0.4388430
487.5900, 1.313431
488.0721, 1.793823
488.5543, 1.653900
489.0364, 1.139679
489.5185, 0.9840700
490.0006, 1.303696
490.4827, 1.614655
490.9648, 1.658859
491.4470, 1.459564
491.9291, 1.437454
492.4112, 1.612045
492.8933, 1.861450
493.3754, 2.038986
493.8575, 2.175613
494.3397, 2.449921
494.8218, 2.996170
495.3039, 3.495239
495.7860, 3.455841
496.2681, 2.973312
496.7502, 2.377396
497.2324, 1.600632
497.7145, 0.9438170
498.1966, 0.8615880
498.6787, 1.380417
499.1608, 1.635513
499.6429, 0.9781340
500.1251, 3.9032001E-02
500.6072, 0.9647670
501.0893, 2.136200
501.5714, 2.580521
502.0535, 1.489471
502.5356, 0.4566040
503.0178, 1.707413
503.4999, 1.646332
503.9820, 1.442047
504.4641, 1.369873
504.9462, 1.437057
505.4283, 1.407959
505.9105, 1.269943
506.3926, 1.044540
506.8747, 0.6656650
507.3568, 5.8867998E-02
507.8389, 0.1828000
508.3210, 5.5939000E-02
508.8032, 0.5688630
509.2853, 1.120834
509.7674, 1.695297
510.2495, 1.986557
510.7316, 1.742233
511.2137, 1.194351
511.6959, 0.8117830
512.1780, 0.5920260
512.6601, 0.4674530
513.1422, 0.4168090
513.6243, 0.4229580
514.1064, 0.4621580
514.5886, 0.5267940
515.0707, 0.6341860
515.5528, 0.8954320
516.0349, 1.176926
516.5170, 1.294250
516.9991, 0.9445040
517.4813, 0.6636510
517.9634, 0.7566830
518.4455, 1.149933
518.9276, 1.234421
519.4097, 0.5298310
519.8918, 0.1415860
520.3740, 0.4159390
520.8561, 0.1152800
521.3382, 1.7960001E-02
521.8203, 2.2781000E-02
522.3024, 0.1799160
522.7845, 0.8032680
523.2667, 1.982193
523.7488, 2.797379
524.2309, 3.009689
524.7130, 2.793625
525.1951, 2.444077
525.6772, 1.968079
526.1594, 1.747208
526.6415, 2.262177
527.1236, 3.137314
527.6057, 3.449722
528.0878, 3.165955
528.5699, 2.831055
529.0521, 2.964935
529.5342, 3.300995
530.0163, 3.444321
530.4984, 3.067108
530.9805, 2.897034
531.4626, 3.532822
531.9448, 4.643631
532.4269, 5.584656
532.9090, 5.896545
533.3911, 6.278717
533.8732, 7.075333
534.3553, 8.308762
534.8375, 9.240189
535.3196, 9.687546
535.8017, 9.982300
536.2838, 10.29626
536.7659, 10.64737
537.2480, 10.94167
537.7302, 11.10031
538.2123, 11.30544
538.6944, 11.89172
539.1765, 12.89825
539.6586, 13.79408
540.1407, 14.36256
540.6229, 14.78874
541.1050, 15.51613
541.5871, 16.52246
542.0692, 17.55850
542.5513, 18.47734
543.0334, 19.34242
543.5156, 20.19666
543.9977, 21.03928
544.4798, 22.03326
544.9619, 23.38402
545.4440, 24.87405
545.9261, 26.28235
546.4083, 27.47643
546.8904, 28.73169
547.3725, 30.01205
547.8546, 31.37881
548.3367, 33.02196
548.8188, 35.37988
549.3010, 37.59773
549.7831, 39.34897
550.2652, 40.63614
550.7473, 42.24092
551.2294, 44.15181
551.7115, 46.41057
552.1937, 49.22028
552.6758, 52.67812
553.1579, 55.52577
553.6400, 57.55980
554.1221, 59.53516
554.6042, 62.53137
555.0864, 66.42206
555.5685, 70.34802
556.0506, 73.89146
556.5327, 77.39955
557.0148, 81.32625
557.4969, 85.69798
557.9791, 90.48366
558.4612, 95.87819
558.9433, 101.4294
559.4254, 106.5819
559.9075, 111.3051
560.3896, 116.3066
560.8718, 121.8633
561.3539, 127.8500
561.8360, 134.1187
562.3181, 140.7166
562.8002, 147.5156
563.2823, 154.5248
563.7645, 161.7326
564.2466, 169.0836
564.7287, 176.4119
565.2108, 184.1556
565.6929, 192.4798
566.1750, 201.1972
566.6572, 209.9924
567.1393, 218.8300
567.6214, 227.6333
568.1035, 236.4517
568.5856, 245.2613
569.0677, 254.2187
569.5499, 263.2320
570.0320, 272.4194
570.5141, 282.2664
570.9962, 292.1484
571.4783, 300.9363
571.9604, 308.0901
572.4426, 314.8193
572.9247, 322.5706
573.4068, 330.3795
573.8889, 336.7199
574.3710, 340.4661
574.8531, 343.2685
575.3353, 345.8454
575.8174, 348.0843
576.2995, 348.8062
576.7816, 348.0367
577.2637, 345.8144
577.7458, 342.0641
578.2280, 336.6994
578.7101, 329.9968
579.1922, 321.7382
579.6743, 312.6558
580.1564, 303.6775
580.6385, 294.8034
581.1207, 284.6716
581.6028, 272.7177
582.0849, 260.1964
582.5670, 249.1039
583.0491, 239.1653
583.5313, 228.9516
584.0134, 217.4763
584.4955, 205.8389
584.9776, 194.8381
585.4597, 184.4718
585.9418, 174.7898
586.4240, 166.2096
586.9061, 158.0841
587.3882, 149.7582
587.8703, 140.9527
588.3524, 132.9362
588.8345, 126.2383
589.3167, 120.1814
589.7988, 114.2523
590.2809, 108.3535
590.7630, 102.7283
591.2451, 97.36310
591.7272, 92.27768
592.2094, 87.51367
592.6915, 83.10980
593.1736, 78.81241
593.6557, 74.32489
594.1378, 70.03825
594.6199, 67.29842
595.1021, 65.91888
595.5842, 64.19537
596.0663, 60.47893
596.5484, 56.11473
597.0305, 52.55655
597.5126, 49.92590
597.9948, 47.80006
598.4769, 46.49147
598.9590, 45.30251
599.4411, 43.58719
599.9232, 40.67947
600.4053, 38.12294
600.8875, 36.30139
601.3696, 34.94183
601.8517, 33.69846
602.3338, 32.68819
602.8159, 31.50046
603.2980, 29.95911
603.7802, 28.27013
604.2623, 27.11322
604.7444, 26.52280
605.2265, 25.85098
605.7086, 24.50583
606.1907, 22.82085
606.6729, 22.19138
607.1550, 22.63213
607.6371, 23.00325
608.1192, 22.17999
608.6013, 20.73242
609.0834, 19.37181
609.5656, 18.13684
610.0477, 17.37181
610.5298, 17.45554
611.0119, 17.97482
611.4940, 18.50565
611.9761, 19.24854
612.4583, 19.71707
612.9404, 19.95348
613.4225, 19.85242
613.9046, 19.03546
614.3867, 16.95332
614.8688, 15.30740
615.3510, 14.64381
615.8331, 14.80083
616.3152, 15.01669
616.7973, 15.31241
617.2794, 15.44374
617.7615, 15.02985
618.2437, 14.29509
618.7258, 13.98640
619.2079, 14.14848
619.6900, 14.41342
620.1721, 14.42384
620.6542, 14.36887
621.1364, 14.47997
621.6185, 14.81720
622.1006, 15.32484
622.5827, 16.20033
623.0648, 17.17389
623.5469, 17.86845
624.0291, 17.94806
624.5112, 18.08620
624.9933, 18.46773
625.4754, 18.98067
625.9575, 19.13022
626.4396, 18.66617
626.9218, 18.59837
627.4039, 19.45607
627.8860, 21.06183
628.3681, 22.32483
628.8502, 23.23488
629.3323, 24.06836
629.8145, 25.09561
630.2966, 26.17006
630.7787, 26.94481
631.2608, 27.35315
631.7429, 27.89661
632.2250, 29.09851
632.7072, 30.55888
633.1893, 31.87744
633.6714, 32.94650
634.1535, 33.84679
634.6356, 34.50478
635.1177, 35.02379
635.5999, 35.59521
636.0820, 36.34547
636.5641, 36.94617
637.0462, 37.31235
637.5283, 37.50224
638.0104, 37.68895
638.4926, 37.86383
638.9747, 38.13658
639.4568, 38.81438
639.9389, 39.59753
640.4210, 39.31891
640.9031, 38.02798
641.3853, 36.54405
641.8674, 35.45265
642.3495, 34.50925
642.8316, 33.47185
643.3137, 32.31120
643.7958, 30.99342
644.2780, 29.20096
644.7601, 27.39186
645.2422, 26.00513
645.7243, 25.76021
646.2064, 24.91159
646.6885, 23.08160
647.1707, 20.78947
647.6528, 18.68129
648.1349, 16.65022
648.6170, 15.13431
649.0991, 14.34198
649.5812, 13.95999
650.0634, 13.25908
650.5455, 12.24815
651.0276, 11.12599
651.5097, 9.881851
651.9918, 8.633163
652.4739, 7.382324
652.9561, 6.224915
653.4382, 5.587036
653.9203, 6.528488
654.4024, 7.477905
654.8845, 7.205841
655.3666, 5.481735
655.8488, 3.928787
656.3309, 2.966660
656.8130, 2.247696
657.2951, 1.563080
657.7772, 0.8948970
658.2593, 0.3032840
658.7415, 0.2335820
659.2236, 0.6582950
659.7057, 0.8028410
660.1878, 0.6778260
660.6699, 0.8763580
661.1520, 1.621460
661.6342, 2.426559
662.1163, 2.540619
662.5984, 2.155243
663.0805, 1.766266
663.5626, 1.380280
664.0447, 1.262695
664.5269, 1.862961
665.0090, 2.910873
665.4911, 3.626541
665.9732, 3.486725
666.4553, 3.251236
666.9374, 3.244949
667.4196, 3.440063
667.9017, 3.331543
668.3838, 2.710129
668.8659, 2.166214
669.3480, 2.041473
669.8301, 2.327194
670.3123, 2.505035
670.7944, 2.579636
671.2765, 2.502411
671.7586, 2.241333
672.2407, 1.792664
672.7228, 1.027664
673.2050, 0.1675110
673.6871, 1.076385
674.1692, 0.7191930
674.6513, 3.2150000E-02
675.1334, 0.1412350
675.6155, 1.116699
676.0977, 2.330719
676.5798, 3.085724
677.0619, 3.629532
677.5440, 4.350616
678.0261, 5.474930
678.5082, 6.257141
678.9904, 6.446106
679.4725, 6.307755
679.9546, 6.540863
680.4367, 7.144104
680.9188, 7.878372
681.4009, 8.702011
681.8831, 9.551315
682.3652, 10.18744
682.8473, 10.68837
683.3294, 11.39896
683.8115, 12.69724
684.2936, 14.15427
684.7758, 15.53491
685.2579, 16.80731
685.7400, 17.96413
686.2221, 18.70784
686.7042, 19.56973
687.1863, 20.87724
687.6685, 22.78227
688.1506, 24.41541
688.6327, 25.65974
689.1148, 26.91898
689.5969, 28.57147
690.0790, 30.60786
690.5612, 32.72540
691.0433, 34.90117
691.5254, 37.07254
692.0075, 39.10594
692.4896, 41.04178
692.9717, 42.90277
693.4539, 44.53358
693.9360, 46.40436
694.4181, 48.81798
694.9002, 51.62183
695.3823, 54.59203
695.8644, 57.76083
696.3466, 60.95645
696.8287, 64.05925
697.3108, 67.20972
697.7929, 70.70445
698.2750, 74.60559
698.7571, 78.62897
699.2393, 82.58710
699.7214, 86.68607
700.2035, 91.74606
700.6856, 97.65207
701.1677, 103.2036
701.6498, 106.8277
702.1320, 110.2557
702.6141, 115.6923
703.0962, 123.0133
703.5783, 130.4076
704.0604, 136.7781
704.5425, 143.2811
705.0247, 150.3605
705.5068, 158.0247
705.9889, 166.8761
706.4710, 177.8318
706.9531, 188.7927
707.4352, 197.9618
707.9174, 205.0000
708.3995, 213.7542
708.8816, 224.4268
709.3637, 236.1508
709.8458, 248.1972
710.3279, 260.5397
710.8101, 273.3380
711.2922, 286.4371
711.7743, 300.4504
712.2564, 316.4688
712.7385, 333.5432
713.2206, 350.5834
713.7028, 366.3023
714.1849, 383.2048
714.6670, 401.5521
715.1491, 421.2488
715.6312, 442.6357
716.1133, 466.0268
716.5955, 489.6443
717.0776, 512.5718
717.5597, 535.9615
718.0418, 561.9702
718.5239, 590.5968
719.0060, 619.8224
719.4882, 648.8694
719.9703, 678.1192
720.4524, 708.1448
720.9345, 738.7795
721.4166, 770.5930
721.8987, 803.9229
722.3809, 838.1355
722.8630, 872.3830
723.3451, 906.6642
723.8272, 941.5292
724.3093, 976.8512
724.7914, 1012.472
725.2736, 1048.019
725.7557, 1083.562
726.2378, 1119.750
726.7199, 1157.151
727.2020, 1194.208
727.6841, 1230.239
728.1663, 1265.700
728.6484, 1301.242
729.1305, 1336.830
729.6126, 1370.614
730.0947, 1401.362
730.5768, 1429.796
731.0590, 1456.952
731.5411, 1483.455
732.0232, 1505.536
732.5053, 1523.638
732.9874, 1535.990
733.4695, 1541.530
733.9517, 1540.081
734.4338, 1531.949
734.9159, 1517.146
735.3980, 1495.576
735.8801, 1466.718
736.3622, 1430.936
736.8444, 1389.385
737.3265, 1341.972
737.8086, 1290.128
738.2907, 1234.523
738.7728, 1176.141
739.2549, 1116.426
739.7371, 1055.112
740.2192, 993.6574
740.7013, 930.5293
741.1834, 868.4702
741.6655, 809.8684
742.1476, 755.5833
742.6298, 703.9592
743.1119, 654.7233
743.5940, 608.1685
744.0761, 564.7305
744.5582, 524.6974
745.0403, 487.4333
745.5225, 452.8197
746.0046, 420.6516
746.4867, 390.8544
746.9688, 363.1361
747.4509, 337.1539
747.9330, 312.9820
748.4152, 290.3050
748.8973, 268.7581
749.3794, 248.3412
749.8615, 229.7008
750.3436, 212.6437
750.8257, 197.2218
751.3079, 183.9468
751.7900, 172.2103
752.2721, 160.1606
752.7542, 147.7501
753.2363, 136.1887
753.7184, 126.4181
754.2006, 117.7320
754.6827, 108.9804
755.1648, 100.2550
755.6469, 92.31012
756.1290, 85.75684
756.6111, 79.77606
757.0933, 73.78113
757.5754, 67.88428
758.0575, 62.55589
758.5396, 57.99712
759.0217, 53.79800
759.5038, 49.83408
759.9860, 46.11098
760.4681, 42.16936
760.9502, 37.97585
761.4323, 34.17758
761.9144, 31.36292
762.3965, 29.17603
762.8787, 27.05203
763.3608, 24.97145
763.8429, 22.85045
764.3250, 20.70874
764.8071, 18.47520
765.2892, 16.03876
765.7714, 13.28723
766.2535, 10.94740
766.7356, 9.166428
767.2177, 7.649277
767.6998, 6.278366
768.1819, 5.049072
768.6641, 3.784317
769.1462, 2.473267
769.6283, 1.312653
770.1104, 0.5771180
770.5925, 8.3068997E-02
771.0746, 0.5492100
771.5568, 1.363632
772.0389, 2.105896
772.5210, 2.558197
773.0031, 2.916443
773.4852, 3.400146
773.9673, 4.214493
774.4495, 4.547562
774.9316, 4.171310
775.4137, 3.568497
775.8958, 3.025909
776.3779, 2.526947
776.8600, 2.426178
777.3422, 2.816772
777.8243, 3.097290
778.3064, 2.567581
778.7885, 1.517960
779.2706, 0.4712680
779.7527, 0.4860380
780.2349, 1.434708
780.7170, 2.196243
781.1991, 3.098038
781.6812, 4.468246
782.1633, 6.753586
782.6454, 8.682266
783.1276, 9.966858
783.6097, 11.24602
784.0918, 13.15630
784.5739, 15.69687
785.0560, 18.49417
785.5381, 21.55363
786.0203, 24.52420
786.5024, 26.63541
786.9845, 28.47360
787.4666, 31.13928
787.9487, 35.05911
788.4308, 39.26399
788.9130, 43.41508
789.3951, 47.59587
789.8772, 51.94440
790.3593, 56.23094
790.8414, 61.08832
791.3235, 66.66737
791.8057, 72.57849
792.2878, 78.01678
792.7699, 83.11343
793.2520, 89.01642
793.7341, 95.99182
794.2162, 103.5552
794.6984, 111.3888
795.1805, 119.5245
795.6626, 127.8742
796.1447, 136.3759
796.6268, 145.4865
797.1089, 155.4862
797.5911, 166.2378
798.0732, 177.5604
798.5553, 189.5861
799.0374, 202.0766
799.5195, 215.0510
800.0016, 228.4384
800.4838, 242.6520
800.9659, 257.5359
801.4480, 272.3810
801.9301, 286.8745
802.4122, 301.9131
802.8943, 318.4075
803.3765, 335.7354
803.8586, 353.3054
804.3407, 370.7786
804.8228, 388.7148
805.3049, 407.8434
805.7870, 427.3187
806.2692, 446.3162
806.7513, 464.6282
807.2334, 483.4270
807.7155, 502.7783
808.1976, 522.1685
808.6797, 541.5714
809.1619, 560.3890
809.6440, 576.7764
810.1261, 590.1161
810.6082, 601.8793
811.0903, 612.6105
811.5724, 622.4784
812.0546, 631.6591
812.5367, 641.0457
813.0188, 648.2895
813.5009, 653.2275
813.9830, 656.1965
814.4651, 657.6271
814.9473, 657.5651
815.4294, 655.2827
815.9115, 650.7445
816.3936, 643.8978
816.8757, 634.2242
817.3578, 622.2731
817.8400, 608.7463
818.3221, 593.6267
818.8042, 577.5038
819.2863, 560.4984
819.7684, 542.6344
820.2505, 523.8527
820.7327, 504.3928
821.2148, 484.0980
821.6969, 462.7017
822.1790, 440.7010
822.6611, 418.8241
823.1432, 396.9594
823.6254, 376.4145
824.1075, 357.2947
824.5896, 338.7440
825.0717, 320.0298
825.5538, 301.5717
826.0359, 284.1099
826.5181, 267.8463
827.0002, 252.4462
827.4823, 237.5776
827.9644, 223.6750
828.4465, 210.9142
828.9286, 199.4955
829.4108, 188.7838
829.8929, 178.8976
830.3750, 169.4858
830.8571, 160.1232
831.3392, 151.0219
831.8214, 142.4907
832.3035, 134.6662
832.7856, 127.4406
833.2677, 120.9098
833.7498, 114.9172
834.2319, 109.4411
834.7141, 104.6350
835.1962, 99.54004
835.6783, 93.86545
836.1604, 88.44516
836.6425, 83.94141
837.1246, 80.28413
837.6068, 76.76785
838.0889, 73.37837
838.5710, 69.94135
839.0531, 66.12428
839.5352, 62.31435
840.0173, 58.90924
840.4995, 55.90930
840.9816, 53.26987
841.4637, 51.40787
841.9458, 49.47644
842.4279, 46.96523
842.9100, 43.89023
843.3922, 41.43477
843.8743, 39.70549
844.3564, 38.03383
844.8385, 35.92439
845.3206, 33.58127
845.8027, 31.54941
846.2849, 29.79370
846.7670, 28.15663
847.2491, 26.59071
847.7312, 25.07564
848.2133, 23.62933
848.6954, 22.23366
849.1776, 20.79066
849.6597, 19.24510
850.1418, 17.74304
850.6239, 16.33218
851.1060, 15.02856
851.5881, 13.90346
852.0703, 12.94391
852.5524, 12.07224
853.0345, 11.32930
853.5166, 10.60451
853.9987, 9.747345
854.4808, 8.813492
854.9630, 7.947418
855.4451, 7.327209
855.9272, 6.624802
856.4093, 5.667892
856.8914, 4.647186
857.3735, 3.968811
857.8557, 3.656113
858.3378, 3.361755
858.8199, 3.000412
859.3020, 2.568855
859.7841, 2.025810
860.2662, 1.436668
860.7484, 0.9372480
861.2305, 0.4783250
861.7126, 0.2456210
862.1947, 0.6010360
862.6768, 1.114166
863.1589, 1.150688
863.6411, 0.4496000
864.1232, 1.1536000E-02
864.6053, 2.4757000E-02
865.0874, 0.1069110
865.5695, 0.1211930
866.0516, 4.4654999E-02
866.5338, 4.2931002E-02
867.0159, 0.1324770
867.4980, 0.2265400
867.9801, 0.3778530
868.4622, 0.5016020
868.9443, 0.5147930
869.4265, 0.3273240
869.9086, 0.2756650
870.3907, 0.3965380
870.8728, 0.5837250
871.3549, 0.7839200
871.8370, 0.9868930
872.3192, 1.004532
872.8013, 0.8356700
873.2834, 0.7490920
873.7655, 1.208748
874.2476, 1.697708
874.7297, 1.542458
875.2119, 0.6636350
875.6940, 0.1665730
876.1761, 0.8027040
876.6582, 1.369202
877.1403, 1.296082
877.6224, 0.6570820
878.1046, 0.5788420
878.5867, 1.089554
879.0688, 1.526611
879.5509, 1.409988
880.0330, 1.008102
880.5151, 0.6413570
880.9973, 0.3192750
881.4794, 6.0043000E-02
881.9615, 4.0619001E-02
882.4436, 0.1785580
882.9257, 0.5160750
883.4078, 0.9456180
883.8900, 1.100266
884.3721, 0.9080120
884.8542, 0.7847750
885.3363, 0.8573380
885.8184, 1.051598
886.3005, 1.300354
886.7827, 1.562218
887.2648, 1.723343
887.7469, 1.571190
888.2290, 1.569649
888.7111, 2.132408
889.1932, 2.884354
889.6754, 3.253731
890.1575, 3.014481
890.6396, 2.987572
891.1217, 3.298073
891.6038, 3.697433
892.0859, 3.940918
892.5681, 4.020523
893.0502, 3.793159
893.5323, 3.166817
894.0144, 2.784706
894.4965, 3.450745
894.9786, 4.336372
895.4608, 4.675591
895.9429, 4.177223
896.4250, 3.921318
896.9071, 3.995522
897.3892, 4.147911
897.8713, 4.241737
898.3535, 4.272621
898.8356, 4.187775
899.3177, 3.998253
899.7998, 3.861931
900.2819, 4.045334
900.7640, 4.185898
901.2462, 3.832382
901.7283, 3.066544
902.2104, 2.802292
902.6925, 3.530167
903.1746, 4.083611
903.6567, 4.059029
904.1389, 3.655457
904.6210, 3.468735
905.1031, 3.487534
905.5852, 3.602844
906.0673, 3.874741
906.5494, 4.080757
907.0316, 4.022247
907.5137, 3.757317
907.9958, 3.380539
908.4779, 2.670555
908.9600, 2.201286
909.4421, 2.079712
909.9243, 2.155052
910.4064, 2.215591
910.8885, 2.267509
911.3706, 2.433411
911.8527, 2.753876
912.3348, 3.046593
912.8170, 3.161194
913.2991, 3.138443
913.7812, 2.999718
914.2633, 2.710632
914.7454, 2.465126
915.2275, 2.237831
915.7097, 2.125748
916.1918, 2.260231
916.6739, 2.633774
917.1560, 2.650734
917.6381, 2.309669
918.1202, 1.999542
918.6024, 2.052841
919.0845, 2.226944
919.5666, 2.257225
920.0487, 2.186005
920.5308, 2.185822
921.0129, 2.340126
921.4951, 2.506790
921.9772, 2.652985
922.4593, 2.793198
922.9414, 2.939911
923.4235, 3.085541
923.9056, 3.200760
924.3878, 3.327332
924.8699, 3.317322
925.3520, 2.779640
925.8341, 2.051704
926.3162, 1.672096
926.7983, 2.129555
927.2805, 2.462135
927.7626, 2.529213
928.2447, 2.443756
928.7268, 2.250153
929.2089, 1.946251
929.6910, 2.003220
930.1732, 2.504532
930.6553, 2.957809
931.1374, 2.841743
931.6195, 2.424049
932.1016, 1.967056
932.5837, 1.543365
933.0659, 1.349609
933.5480, 1.582870
934.0301, 1.744133
934.5122, 1.649315
934.9943, 1.375313
935.4764, 1.253761
935.9586, 1.240341
936.4407, 1.106842
936.9228, 0.5872420
937.4049, 9.2545003E-02
937.8870, 8.9042999E-02
938.3691, 0.4257580
938.8513, 0.7576680
939.3334, 1.205467
939.8155, 1.303345
940.2976, 0.8258900
940.7797, 0.1704250
941.2618, 8.9299999E-04
941.7440, 0.2650300
942.2261, 0.4387970
942.7082, 0.4259720
943.1903, 0.3682480
943.6724, 0.4047930
944.1545, 0.4671940
944.6367, 0.4753340
945.1188, 0.3944470
945.6009, 0.3282390
946.0830, 0.2460780
946.5651, 0.2495730
947.0472, 0.4216460
947.5294, 0.7305370
948.0115, 1.007133
948.4936, 1.239868
948.9757, 1.300720
949.4578, 0.9035490
949.9399, 0.4866790
950.4221, 0.5055690
950.9042, 0.8157810
951.3863, 0.8090130
951.8684, 0.1252750
952.3505, 0.2756120
952.8326, 0.1588060
953.3148, 0.2260590
953.7969, 0.4464420
954.2790, 0.5315400
954.7611, 0.6144560
955.2432, 0.7454610
955.7253, 0.8100970
956.2075, 0.6553340
956.6896, 0.4359970
957.1717, 0.3130650
957.6538, 0.3505170
958.1359, 0.3026430
958.6180, 0.1217730
959.1002, 3.4446999E-02
959.5823, 6.5575004E-02
960.0644, 1.6953001E-02
960.5465, 0.2370910
961.0286, 0.5704270
961.5107, 0.8595200
961.9929, 0.7874530
962.4750, 0.8737720
962.9571, 1.711815
963.4392, 2.954948
963.9213, 3.270561
964.4034, 2.361755
964.8856, 1.735054
965.3677, 1.846779
965.8498, 2.208244
966.3319, 1.971756
966.8140, 1.400604
967.2961, 1.067467
967.7783, 1.206642
968.2604, 1.371201
968.7425, 1.386719
969.2246, 1.366440
969.7067, 1.427284
970.1888, 1.608292
970.6710, 1.516762
971.1531, 1.116562
971.6352, 0.7778780
972.1173, 0.8700560
972.5994, 1.141304
973.0815, 1.292870
973.5637, 1.321922
974.0458, 1.288597
974.5279, 1.109657
975.0100, 1.001183
975.4921, 1.041847
975.9742, 1.162697
976.4564, 1.187836
976.9385, 1.126686
977.4206, 1.109734
977.9027, 1.189392
978.3848, 1.266670
978.8669, 1.228386
979.3491, 1.146652
979.8312, 1.109856
980.3133, 1.160789
980.7954, 1.194046
981.2775, 1.216835
981.7596, 1.203178
982.2418, 1.119469
982.7239, 0.9758450
983.2060, 0.7688900
983.6881, 0.5188290
984.1702, 0.4358750
984.6523, 0.9336240
985.1345, 1.381493
985.6166, 1.316528
986.0987, 0.8727110
986.5808, 0.6123660
987.0629, 0.6063310
987.5450, 0.5584180
988.0272, 0.3998260
988.5093, 0.2175670
988.9914, 7.8879997E-02
989.4735, 2.7298000E-02
989.9556, 0.2075960
990.4377, 0.7283170
990.9199, 1.143578
991.4020, 1.242378
991.8841, 1.197128
992.3662, 1.116859
992.8483, 1.003845
993.3304, 0.7751540
993.8126, 0.4165040
994.2947, 0.2277910
994.7768, 0.5209050
995.2589, 0.9843980
995.7410, 1.333275
996.2231, 1.556366
996.7053, 1.627487
997.1874, 1.425926
997.6695, 1.203850
998.1516, 0.9639740
998.6337, 0.7431410
999.1158, 0.5932850
999.5980, 0.5199580
1000.080, 0.5325700
1000.562, 0.6340560
1001.044, 0.7909090
1001.526, 1.090118
1002.009, 1.367500
1002.491, 1.415558
1002.973, 1.190514
1003.455, 1.120949
1003.937, 1.282082
1004.419, 1.381538
1004.901, 1.207100
1005.383, 0.9565430
1005.865, 1.131264
1006.348, 1.579765
1006.830, 1.870247
1007.312, 1.606270
1007.794, 1.404922
1008.276, 1.605507
1008.758, 1.889183
1009.240, 1.828384
1009.722, 1.356613
1010.205, 1.225281
1010.687, 1.536049
1011.169, 1.823563
1011.651, 1.528641
1012.133, 1.098213
1012.615, 1.026863
1013.097, 1.333801
1013.579, 1.635193
1014.061, 1.979225
1014.544, 2.121445
1015.026, 1.963577
1015.508, 1.617310
1015.990, 1.248726
1016.472, 0.9111100
1016.954, 0.9143070
1017.436, 1.522888
1017.918, 2.071671
1018.401, 2.111496
1018.883, 1.905777
1019.365, 1.698929
1019.847, 1.468376
1020.329, 1.421196
1020.811, 1.594917
1021.293, 1.727386
1021.775, 1.528358
1022.257, 1.238991
1022.740, 1.306000
1023.222, 1.642189
1023.704, 1.883011
1024.186, 1.777588
1024.668, 1.712875
1025.150, 1.802628
1025.632, 1.942669
1026.114, 1.928154
1026.596, 1.780937
1027.079, 1.702888
1027.561, 1.727985
1028.043, 1.807968
1028.525, 1.993076
1029.007, 2.148872
1029.489, 2.154350
1029.971, 1.980934
1030.453, 1.845043
1030.936, 1.783226
1031.418, 1.733730
1031.900, 1.666187
1032.382, 1.592968
1032.864, 1.571289
1033.346, 1.568813
1033.828, 1.502018
1034.310, 1.206902
1034.792, 1.054337
1035.275, 1.281799
1035.757, 1.556858
1036.239, 1.554314
1036.721, 1.274303
1037.203, 1.177578
1037.685, 1.282658
1038.167, 1.335857
1038.649, 1.006557
1039.132, 0.6915820
1039.614, 0.8138050
1040.096, 1.266388
1040.578, 1.435234
1041.060, 1.187981
1041.542, 0.9304160
1042.024, 0.7066730
1042.506, 0.6000140
1042.989, 0.8539160
1043.471, 1.278458
1043.953, 1.441498
1044.435, 1.208553
1044.917, 1.046539
1045.399, 1.212708
1045.881, 1.417946
1046.363, 1.523087
1046.845, 1.539421
1047.328, 1.591454
1047.810, 1.670425
1048.292, 1.579853
1048.774, 1.027103
1049.256, 0.5475770
1049.738, 0.7931440
1050.220, 1.320751
1050.702, 1.374252
1051.184, 0.5320890
1051.667, 0.1370620
1052.149, 0.3159560
1052.631, 0.6182440
1053.113, 0.6423990
1053.595, 0.5127980
1054.077, 0.4885600
1054.559, 0.5578040
1055.041, 0.5655670
1055.523, 0.3515550
1056.006, 0.1836090
1056.488, 9.9143997E-02
1056.970, 0.1278340
1057.452, 0.4795270
1057.934, 1.080185
1058.416, 1.133152
1058.898, 0.3955310
1059.380, 0.3045160
1059.863, 0.1425210
1060.345, 0.2387700
1060.827, 0.2224660
1061.309, 0.2412450
1061.791, 0.2141720
1062.273, 0.4389920
1062.755, 0.9259720
1063.237, 0.8169560
1063.719, 0.4575080
1064.202, 0.3940510
1064.684, 0.4746130
1065.166, 0.4000050
1065.648, 0.1469310
1066.130, 0.4257580
1066.612, 0.2379530
1067.094, 2.4577999E-02
1067.576, 2.1042001E-02
1068.059, 0.2852750
1068.541, 0.1874430
1069.023, 0.2330510
1069.505, 0.6117290
1069.987, 0.7439350
1070.469, 0.7261540
1070.951, 0.6017760
1071.433, 0.3716280
1071.916, 5.2398998E-02
1072.398, 0.7326930
1072.880, 0.9688800
1073.362, 0.6196590
1073.844, 0.1193390
1074.326, 0.1992030
1074.808, 0.3671610
1075.290, 0.3916210
1075.772, 0.2716750
1076.255, 0.1185910
1076.737, 0.1023520
1077.219, 0.2520750
1077.701, 0.2989430
1078.183, 0.2265510
1078.665, 0.1230090
1079.147, 0.5990830
1079.629, 0.8359720
1080.111, 0.6737560
1080.594, 0.4600180
1081.076, 0.2260890
1081.558, 6.0470998E-02
1082.040, 3.1337999E-02
1082.522, 0.1263010
1083.004, 0.2515450
1083.486, 0.4001690
1083.968, 0.5000610
1084.450, 0.4523960
1084.933, 0.4085430
1085.415, 0.6036450
1085.897, 0.8020940
1086.379, 0.5652310
1086.861, 0.3626290
1087.343, 0.6133420
1087.825, 3.4267001E-02
1088.307, 0.6078190
1088.790, 0.4818270
1089.272, 0.1474420
1089.754, 0.3977700
1090.236, 1.122402
1090.718, 1.526649
1091.200, 1.314091
1091.682, 1.037582
1092.164, 0.7426610
1092.646, 0.5087430
1093.129, 0.5480840
1093.611, 0.7289770
1094.093, 0.6512760
1094.575, 0.2250520
1095.057, 1.5934000E-02
1095.539, 0.5720410
1096.021, 1.084282
1096.503, 1.216545
1096.986, 1.031212
1097.468, 0.6671450
1097.950, 0.1656720
1098.432, 9.3712002E-02
1098.914, 7.2471999E-02
1099.396, 0.3341640
1099.878, 0.5272250
1100.360, 0.6469270
1100.843, 0.6614720
1101.325, 0.5486680
1101.807, 0.6189770
1102.289, 0.8978350
1102.771, 1.091160
1103.253, 0.9864850
1103.735, 0.7531200
1104.217, 0.5321010
1104.699, 0.3445510
1105.182, 0.2294430
1105.664, 0.2014470
1106.146, 0.2439230
1106.628, 0.3740120
1107.110, 0.5285030
1107.592, 0.7188380
1108.074, 0.8701360
1108.556, 0.7438770
1109.038, 0.4042320
1109.521, 0.2237320
1110.003, 0.5392530
1110.485, 0.7792320
1110.967, 0.8186720
1111.449, 0.7324980
1111.931, 0.5658870
1112.413, 0.3655740
1112.895, 0.3851510
1113.377, 0.6571540
1113.860, 0.9043730
1114.342, 1.021343
1114.824, 0.9964520
1115.306, 0.7275580
1115.788, 0.3375130
1116.270, 0.2827340
1116.752, 0.5535930
1117.234, 0.6719400
1117.717, 0.4985010
1118.199, 0.3215560
1118.681, 0.4329910
1119.163, 0.6198160
1119.645, 0.6949420
1120.127, 0.6504440
1120.609, 0.6199380
1121.091, 0.6043320
1121.573, 0.5876390
1122.056, 0.5768590
1122.538, 0.5413280
1123.020, 0.3517840
1123.502, 0.1339720
1123.984, 0.1073840
1124.466, 0.5068740
1124.948, 0.7230610
1125.430, 0.7124630
1125.913, 0.5676080
1126.395, 0.2570650
1126.877, 6.5975003E-02
1127.359, 3.4088001E-02
1127.841, 0.2595790
1128.323, 0.5607300
1128.805, 0.8047140
1129.287, 1.010704
1129.770, 1.212254
1130.252, 1.303364
1130.734, 1.174786
1131.216, 0.9182970
1131.698, 0.7793080
1132.180, 0.7445760
1132.662, 0.7596740
1133.144, 0.8930020
1133.626, 0.9507830
1134.109, 0.8195610
1134.591, 0.6046640
1135.073, 0.4337580
1135.555, 0.3212930
1136.037, 0.4443550
1136.519, 0.8388710
1137.001, 1.173031
1137.483, 1.157162
1137.965, 1.060459
1138.448, 1.095444
1138.930, 1.186195
1139.412, 1.017826
1139.894, 0.5661890
1140.376, 0.3857000
1140.858, 0.6304820
1141.340, 0.9505540
1141.822, 1.099651
1142.304, 1.114384
1142.787, 0.9573060
1143.269, 0.6395230
1143.751, 0.5766330
1144.233, 0.8298650
1144.715, 0.9867440
1145.197, 0.9118460
1145.679, 0.7665670
1146.161, 0.5599520
1146.644, 0.4110600
1147.126, 0.5225640
1147.608, 1.042130
1148.090, 1.377785
1148.572, 1.494045
1149.054, 1.503975
1149.536, 1.439789
1150.018, 1.332123
1150.500, 1.184643
1150.983, 1.075092
1151.465, 1.181721
1151.947, 1.863113
1152.429, 2.055534
1152.911, 1.502411
1153.393, 0.8729590
1153.875, 0.6087720
1154.357, 0.6087910
1154.840, 0.5870670
1155.322, 0.5882030
1155.804, 0.7525410
1156.286, 1.508854
1156.768, 1.863419
1157.250, 1.499249
1157.732, 0.9827880
1158.214, 0.8916210
1158.697, 1.099651
1159.179, 1.037792
1159.661, 0.7430650
1160.143, 0.5210340
1160.625, 0.5480120
1161.107, 0.6431470
1161.589, 0.7447620
1162.071, 0.8866120
1162.553, 1.176899
1163.036, 1.570698
1163.518, 1.740005
1164.000, 1.669815
1164.482, 1.516998
1164.964, 1.299381
1165.446, 1.106857
1165.928, 0.9607580
1166.410, 0.8808560
1166.892, 0.9709970
1167.375, 1.209156
1167.857, 1.218098
1168.339, 0.9374280
1168.821, 0.7002490
1169.303, 0.8395960
1169.785, 1.012154
1170.267, 0.9665070
1170.749, 0.7801590
1171.231, 0.6295130
1171.714, 0.5131610
1172.196, 0.6726070
1172.678, 1.211754
1173.160, 1.689945
1173.642, 1.659779
1174.124, 1.437874
1174.606, 1.209686
1175.088, 1.024719
1175.571, 1.127430
1176.053, 1.541622
1176.535, 1.782017
1177.017, 1.691990
1177.499, 1.466564
1177.981, 1.213661
1178.463, 0.9683910
1178.945, 0.7398300
1179.427, 0.5344390
1179.910, 0.6586420
1180.392, 1.159817
1180.874, 1.510685
1181.356, 1.465698
1181.838, 1.312767
1182.320, 1.319271
1182.802, 1.387089
1183.284, 1.421383
1183.767, 1.412678
1184.249, 1.419224
1184.731, 1.444233
1185.213, 1.409546
1185.695, 1.269054
1186.177, 1.067230
1186.659, 0.7945480
1187.141, 0.5299760
1187.624, 0.3986400
1188.106, 0.4426690
1188.588, 0.6029820
1189.070, 0.8852350
1189.552, 1.035221
1190.034, 0.7902220
1190.516, 0.4600680
1190.998, 0.4808460
1191.480, 0.6748280
1191.963, 0.7247010
1192.445, 0.4618030
1192.927, 0.3863300
1193.409, 0.5359950
1193.891, 0.6935810
1194.373, 0.6961820
1194.855, 0.6291430
1195.337, 0.6126210
1195.819, 0.6108210
1196.302, 0.5390550
1196.784, 0.3022840
1197.266, 0.1785620
1197.748, 0.1736180
1198.230, 0.2812160
1198.712, 0.5553280
1199.194, 0.8962020
1199.676, 1.315731
1200.158, 1.680229
1200.641, 1.570999
1201.123, 0.4966660
1201.605, 4.5669999E-02
1202.087, 0.4176250
1202.569, 0.9351840
1203.051, 0.9070740
1203.533, 0.7101780
1204.015, 0.9545940
1204.498, 1.479782
1204.980, 1.654621
1205.462, 1.259975
1205.944, 0.8091810
1206.426, 0.2896610
1206.908, 7.7243999E-02
1207.390, 3.0640000E-02
1207.872, 0.3465610
1208.354, 0.5415920
1208.837, 0.6279980
1209.319, 0.7504620
1209.801, 1.017418
1210.283, 1.061501
1210.765, 0.7882350
1211.247, 0.4789390
1211.729, 0.4233210
1212.211, 0.5047420
1212.694, 0.5961490
1213.176, 0.6902770
1213.658, 0.8141370
1214.140, 1.053024
1214.622, 1.036076
1215.104, 0.6404880
1215.586, 0.2778550
1216.068, 0.5383680
1216.551, 0.9884680
1217.033, 1.057167
1217.515, 0.7741510
1217.997, 0.6668660
1218.479, 0.8546370
1218.961, 0.9105530
1219.443, 0.7445030
1219.925, 0.5134890
1220.407, 0.2962110
1220.890, 0.1707920
1221.372, 0.1946220
1221.854, 0.3995510
1222.336, 0.9676060
1222.818, 2.119747
1223.300, 2.684177
1223.782, 2.366409
1224.264, 1.723743
1224.746, 1.201656
1225.229, 0.8190420
1225.711, 0.5568200
1226.193, 0.4308010
1226.675, 0.3537100
1227.157, 0.3314780
1227.639, 0.3189540
1228.121, 0.3016280
1228.603, 0.3168640
1229.085, 0.5341530
1229.568, 0.7040370
1230.050, 0.4750370
1230.532, 9.6915998E-02
1231.014, 0.3415720
1231.496, 0.2439310
1231.978, 8.9951001E-02
1232.460, 0.6980630
1232.942, 1.215580
1233.425, 1.334824
1233.907, 1.188377
1234.389, 0.7538870
1234.871, 0.1278990
1235.353, 0.1514820
1235.835, 6.6978000E-02
1236.317, 7.7537999E-02
1236.799, 0.2237010
1237.281, 0.3437350
1237.764, 0.4706270
1238.246, 0.5131110
1238.728, 0.3176040
1239.210, 2.7912000E-02
1239.692, 0.1504630
1240.174, 5.4118998E-02
1240.656, 5.8651000E-02
1241.138, 0.1405870
1241.621, 0.2275240
1242.103, 0.3948970
1242.585, 0.5263290
1243.067, 0.5253940
1243.549, 0.4311290
1244.031, 0.4093020
1244.513, 0.4394300
1244.995, 0.3297270
1245.478, 2.9522000E-02
1245.960, 0.2513890
1246.442, 6.9472998E-02
1246.924, 0.4125180
1247.406, 0.4724160
1247.888, 0.3533360
1248.370, 0.3716090
1248.852, 0.4957010
1249.334, 0.5840950
1249.817, 0.5935550
1250.299, 0.6347080
1250.781, 0.8619310
1251.263, 1.007027
1251.745, 0.9370540
1252.227, 0.7411610
1252.709, 0.6379170
1253.191, 0.6046940
1253.673, 0.5931510
1254.156, 0.5987550
1254.638, 0.5666080
1255.120, 0.4067120
1255.602, 0.3893170
1256.084, 0.6743770
1256.566, 1.039097
1257.048, 0.9982450
1257.530, 0.7094310
1258.012, 0.4605640
1258.495, 0.2904320
1258.977, 0.2800750
1259.459, 0.4949570
1259.941, 0.7299840
1260.423, 0.9282490
1260.905, 1.096809
1261.387, 1.246937
1261.869, 1.370174
1262.352, 1.489857
1262.834, 1.608101
1263.316, 1.526726
1263.798, 1.146980
1264.280, 0.9290580
1264.762, 1.056801
1265.244, 1.255024
1265.726, 1.189495
1266.208, 1.010666
1266.691, 0.7821010
1267.173, 0.6208760
1267.655, 0.6200680
1268.137, 0.7423250
1268.619, 0.8974420
1269.101, 1.036140
1269.583, 1.178528
1270.065, 1.267265
1270.548, 1.256054
1271.030, 0.9830860
1271.512, 0.5915600
1271.994, 0.4061470
1272.476, 0.4074100
1272.958, 0.3995780
1273.440, 0.3321990
1273.922, 0.2900890
1274.405, 0.3779870
1274.887, 0.5591700
1275.369, 0.7355960
1275.851, 0.8594630
1276.333, 0.7185520
1276.815, 0.3781510
1277.297, 0.1325720
1277.779, 3.2497000E-02
1278.261, 8.5224003E-02
1278.744, 0.5293810
1279.226, 0.8150710
1279.708, 0.6616210
1280.190, 0.3459240
1280.672, 0.5602650
1281.154, 1.053543
1281.636, 0.9862790
1282.118, 0.2386820
1282.600, 0.1820950
1283.083, 0.2684900
1283.565, 0.6425700
1284.047, 0.7179910
1284.529, 0.6606220
1285.011, 0.6324650
1285.493, 0.6738170
1285.975, 0.9134480
1286.457, 1.328190
1286.939, 1.476303
1287.422, 1.261051
1287.904, 0.9900930
1288.386, 0.7062610
1288.868, 0.4850540
1289.350, 0.2188610
1289.832, 0.1400260
1290.314, 0.7850000
1290.796, 1.979603
1291.279, 2.345036
1291.761, 1.811554
1292.243, 1.195835
1292.725, 0.4862520
1293.207, 0.1039620
1293.689, 0.2028620
1294.171, 0.4165340
1294.653, 0.5715070
1295.135, 0.6341670
1295.618, 0.4608230
1296.100, 5.5954002E-02
1296.582, 3.4000001E-05
1297.064, 0.2772370
1297.546, 0.4900700
1298.028, 0.2254410
1298.510, 5.2505001E-02
1298.992, 0.1488840
1299.475, 0.2508810
1299.957, 0.2046360
1300.439, 9.0979999E-03
1300.921, 1.8119999E-03
1301.403, 0.1093290
1301.885, 0.0000000E+00
##END=



