##NAMES=Fleischerite
##RRUFFID=R120043
##IDEAL CHEMISTRY=Pb_3_Ge(SO_4_)_2_(OH)_6_&#183;3H_2_O
##LOCALITY=Tsumeb, Namibia
##OWNER=RRUFF
##SOURCE=William W. Pinch
##DESCRIPTION=Bundled aggregate of tan colored acicular crystals
##STATUS=The identification of this mineral has been confirmed by single-crystal X-ray diffraction.
##URL=rruff.info/R120043
92.56775, 0.0000000E+00
93.04987, 3.7597999E-02
93.53198, 7.329956
94.01410, 11.64938
94.49622, 12.63187
94.97833, 12.50391
95.46045, 13.13309
95.94257, 14.31558
96.42468, 15.44409
96.90680, 16.26111
97.38892, 17.66833
97.87103, 20.19162
98.35315, 23.15317
98.83527, 25.72104
99.31738, 28.24585
99.79950, 30.84143
100.2816, 33.49872
100.7637, 35.81741
101.2458, 38.23462
101.7280, 41.37668
102.2101, 45.50845
102.6922, 49.68472
103.1743, 52.28159
103.6564, 53.44156
104.1385, 53.90262
104.6207, 53.67462
105.1028, 52.86493
105.5849, 51.94415
106.0670, 51.37759
106.5491, 50.14706
107.0313, 47.11237
107.5134, 41.96381
107.9955, 36.33578
108.4776, 31.83966
108.9597, 28.60422
109.4418, 25.84583
109.9240, 23.06140
110.4061, 20.75171
110.8882, 19.32733
111.3703, 18.93704
111.8524, 19.60779
112.3345, 21.35251
112.8167, 24.18246
113.2988, 28.32074
113.7809, 34.12039
114.2630, 40.99142
114.7451, 48.26382
115.2272, 55.45886
115.7094, 62.66669
116.1915, 70.65213
116.6736, 79.55225
117.1557, 88.98294
117.6378, 99.00458
118.1199, 109.5121
118.6021, 120.2469
119.0842, 131.0843
119.5663, 141.9901
120.0484, 152.0823
120.5305, 161.8403
121.0126, 170.5816
121.4948, 177.7879
121.9769, 183.4135
122.4590, 187.3546
122.9411, 188.7509
123.4232, 188.1774
123.9053, 186.9114
124.3875, 185.2812
124.8696, 183.2614
125.3517, 180.7489
125.8338, 177.4659
126.3159, 174.0119
126.7980, 170.7080
127.2802, 167.5741
127.7623, 164.7318
128.2444, 162.5043
128.7265, 161.1102
129.2086, 159.5653
129.6907, 156.6277
130.1729, 154.5408
130.6550, 154.4539
131.1371, 156.1230
131.6192, 158.6697
132.1013, 161.1066
132.5834, 162.8767
133.0656, 165.7565
133.5477, 169.4366
134.0298, 173.6256
134.5119, 178.3270
134.9940, 183.2182
135.4761, 188.2830
135.9583, 193.2568
136.4404, 198.6035
136.9225, 203.5060
137.4046, 208.2933
137.8867, 212.5547
138.3688, 215.6807
138.8510, 217.4156
139.3331, 217.7980
139.8152, 216.9176
140.2973, 214.7270
140.7794, 211.7435
141.2615, 208.0609
141.7437, 203.7291
142.2258, 198.8575
142.7079, 193.3981
143.1900, 187.4540
143.6721, 181.3701
144.1542, 175.2267
144.6364, 168.8439
145.1185, 161.9964
145.6006, 154.6445
146.0827, 147.0859
146.5648, 139.1825
147.0469, 131.2030
147.5291, 123.4453
148.0112, 116.1143
148.4933, 108.9618
148.9754, 101.3850
149.4575, 92.96719
149.9396, 84.76520
150.4218, 76.62772
150.9039, 68.94971
151.3860, 61.96301
151.8681, 55.80759
152.3502, 50.39297
152.8323, 45.35861
153.3145, 40.76740
153.7966, 36.53357
154.2787, 32.57895
154.7608, 28.94781
155.2429, 25.70950
155.7250, 22.91513
156.2072, 20.59189
156.6893, 18.43335
157.1714, 16.45108
157.6535, 14.56735
158.1356, 12.66272
158.6177, 10.78577
159.0999, 9.120270
159.5820, 7.860901
160.0641, 7.077728
160.5462, 6.299255
161.0283, 5.638947
161.5104, 4.917175
161.9926, 3.933685
162.4747, 2.671356
162.9568, 1.381622
163.4389, 0.3382260
163.9210, 0.4703980
164.4031, 1.136536
164.8853, 1.589203
165.3674, 1.930054
165.8495, 2.244598
166.3316, 2.502411
166.8137, 2.873474
167.2958, 3.678864
167.7780, 4.793457
168.2601, 5.695435
168.7422, 6.043976
169.2243, 5.954895
169.7064, 5.842133
170.1885, 5.616241
170.6707, 5.561523
171.1528, 5.972931
171.6349, 6.742401
172.1170, 7.431396
172.5991, 7.777100
173.0812, 7.784485
173.5634, 7.345184
174.0455, 5.851074
174.5276, 4.361328
175.0097, 3.399231
175.4918, 2.918213
175.9739, 2.500610
176.4561, 1.657593
176.9382, 0.2125550
177.4203, 1.063080
177.9024, 2.042725
178.3845, 2.970673
178.8666, 3.941284
179.3488, 4.980988
179.8309, 6.089752
180.3130, 7.256989
180.7951, 8.449615
181.2772, 9.801788
181.7593, 11.30801
182.2415, 12.94861
182.7236, 14.72537
183.2057, 16.63324
183.6878, 18.63409
184.1699, 20.66388
184.6520, 22.65689
185.1342, 24.85379
185.6163, 27.47327
186.0984, 30.20660
186.5805, 32.73761
187.0626, 34.97314
187.5447, 36.99219
188.0269, 38.78323
188.5090, 40.13211
188.9911, 42.07471
189.4732, 45.19202
189.9553, 49.00015
190.4374, 52.61859
190.9196, 55.77963
191.4017, 58.77884
191.8838, 62.11551
192.3659, 65.79425
192.8480, 69.42659
193.3301, 72.73430
193.8123, 75.82214
194.2944, 79.14478
194.7765, 83.00250
195.2586, 86.88336
195.7407, 90.27222
196.2228, 93.15622
196.7050, 95.85861
197.1871, 98.64310
197.6692, 101.4970
198.1513, 104.0936
198.6334, 105.9980
199.1155, 107.9490
199.5977, 110.5786
200.0798, 113.8891
200.5619, 117.2057
201.0440, 119.9173
201.5261, 121.9949
202.0082, 123.7424
202.4904, 124.7947
202.9725, 125.8114
203.4546, 127.0963
203.9367, 128.6963
204.4188, 130.5075
204.9009, 132.4332
205.3831, 134.5282
205.8652, 136.5615
206.3473, 138.6169
206.8294, 140.5469
207.3115, 142.3258
207.7936, 143.9130
208.2758, 145.1992
208.7579, 145.9000
209.2400, 145.3044
209.7221, 145.7475
210.2042, 147.9214
210.6863, 150.4538
211.1685, 152.4107
211.6506, 153.6129
212.1327, 154.5353
212.6148, 155.9125
213.0969, 158.2557
213.5790, 159.9228
214.0612, 160.6599
214.5433, 160.9347
215.0254, 161.0134
215.5075, 160.9901
215.9896, 160.9824
216.4717, 161.1957
216.9539, 161.9250
217.4360, 162.0238
217.9181, 161.6039
218.4002, 160.4886
218.8823, 158.2708
219.3644, 154.8560
219.8466, 150.9968
220.3287, 147.7557
220.8108, 145.2777
221.2929, 142.3448
221.7750, 138.4640
222.2571, 134.1413
222.7393, 129.9887
223.2214, 126.1437
223.7035, 122.4149
224.1856, 118.4885
224.6677, 114.3818
225.1498, 110.7277
225.6320, 107.9682
226.1141, 105.7141
226.5962, 103.2605
227.0783, 100.3947
227.5604, 97.69333
228.0425, 95.61911
228.5247, 94.08281
229.0068, 93.08823
229.4889, 93.08310
229.9710, 93.60326
230.4531, 93.51146
230.9352, 92.43829
231.4174, 91.44228
231.8995, 91.43521
232.3816, 92.13501
232.8637, 92.87292
233.3458, 93.26685
233.8279, 93.45828
234.3101, 93.97678
234.7922, 95.06769
235.2743, 96.18835
235.7564, 96.85153
236.2385, 97.28918
236.7206, 98.01218
237.2028, 99.55246
237.6849, 101.5982
238.1670, 102.8687
238.6491, 103.0608
239.1312, 102.8572
239.6133, 102.4753
240.0955, 101.9604
240.5776, 101.3899
241.0597, 100.8637
241.5418, 100.3099
242.0239, 99.38257
242.5060, 97.86397
242.9882, 96.22012
243.4703, 94.49213
243.9524, 92.75919
244.4345, 91.13329
244.9166, 89.70059
245.3987, 88.39279
245.8809, 86.92712
246.3630, 85.12622
246.8451, 83.39328
247.3272, 81.94174
247.8093, 80.56561
248.2914, 79.00906
248.7736, 77.12701
249.2557, 74.97699
249.7378, 72.81079
250.2199, 70.45618
250.7020, 68.30371
251.1841, 66.60988
251.6663, 65.08478
252.1484, 63.36713
252.6305, 61.26518
253.1126, 58.95862
253.5947, 56.95422
254.0768, 55.62219
254.5590, 54.19754
255.0411, 52.71667
255.5232, 51.08879
256.0053, 49.13048
256.4874, 46.77504
256.9695, 44.22020
257.4517, 41.94724
257.9338, 40.10748
258.4159, 38.39783
258.8980, 36.89191
259.3801, 35.47656
259.8622, 34.01407
260.3444, 32.45822
260.8265, 30.86638
261.3086, 29.35725
261.7907, 28.09229
262.2728, 26.61606
262.7549, 24.56982
263.2371, 22.47078
263.7192, 20.87737
264.2013, 19.92641
264.6834, 19.32774
265.1655, 18.68690
265.6476, 18.06924
266.1298, 17.20670
266.6119, 15.94301
267.0940, 14.51065
267.5761, 13.02214
268.0582, 11.51166
268.5403, 10.22009
269.0225, 9.496628
269.5046, 9.536163
269.9867, 9.277512
270.4688, 8.427841
270.9509, 7.442535
271.4330, 6.771317
271.9152, 6.453491
272.3973, 6.094391
272.8794, 5.217667
273.3615, 3.783813
273.8436, 2.940216
274.3257, 3.131729
274.8079, 3.610474
275.2900, 3.921860
275.7721, 4.013931
276.2542, 3.778870
276.7363, 2.985260
277.2184, 1.734772
277.7006, 0.9009250
278.1827, 0.7653500
278.6648, 0.8322450
279.1469, 0.7690120
279.6290, 0.5911710
280.1111, 0.4837190
280.5933, 0.6186070
281.0754, 0.8861540
281.5575, 0.9218600
282.0396, 0.6496120
282.5217, 0.2464900
283.0038, 0.2525790
283.4860, 0.8191990
283.9681, 1.328674
284.4502, 1.767700
284.9323, 2.063477
285.4144, 2.091019
285.8965, 1.756180
286.3787, 1.397308
286.8608, 1.169037
287.3429, 1.061005
287.8250, 1.085861
288.3071, 1.371353
288.7892, 1.613190
289.2714, 1.362305
289.7535, 0.5902100
290.2356, 0.2947390
290.7177, 1.309418
291.1998, 2.301422
291.6819, 2.824966
292.1641, 2.667206
292.6462, 2.232086
293.1283, 1.861176
293.6104, 1.556061
294.0925, 1.478256
294.5746, 1.868423
295.0568, 2.501678
295.5389, 2.854507
296.0210, 2.745956
296.5031, 2.734970
296.9852, 3.515625
297.4673, 4.810532
297.9495, 5.876755
298.4316, 6.289078
298.9137, 6.410278
299.3958, 6.835144
299.8779, 7.658447
300.3600, 8.380585
300.8422, 8.417389
301.3243, 8.160034
301.8064, 8.301682
302.2885, 9.135559
302.7706, 10.29268
303.2527, 11.43655
303.7349, 12.58128
304.2170, 13.55774
304.6991, 14.16394
305.1812, 14.60567
305.6633, 15.11473
306.1454, 15.65097
306.6276, 16.43350
307.1097, 17.88074
307.5918, 19.93633
308.0739, 21.57672
308.5560, 22.10994
309.0381, 22.37895
309.5203, 23.41264
310.0024, 25.31090
310.4845, 27.21754
310.9666, 28.36682
311.4487, 28.96303
311.9308, 30.05937
312.4130, 32.08949
312.8951, 34.33246
313.3772, 35.96773
313.8593, 37.11412
314.3414, 38.53850
314.8235, 40.72073
315.3057, 43.45601
315.7878, 46.32951
316.2699, 49.42902
316.7520, 52.34949
317.2341, 54.61244
317.7162, 56.47081
318.1984, 58.46907
318.6805, 60.55878
319.1626, 62.98668
319.6447, 66.29410
320.1268, 70.62541
320.6089, 75.05032
321.0911, 79.04396
321.5732, 82.84909
322.0553, 86.74754
322.5374, 90.74440
323.0195, 94.98959
323.5016, 99.80042
323.9838, 105.1770
324.4659, 110.1152
324.9480, 113.8574
325.4301, 117.2476
325.9122, 121.3869
326.3943, 126.5147
326.8765, 131.4550
327.3586, 135.2812
327.8407, 138.1796
328.3228, 141.2825
328.8049, 145.5708
329.2870, 149.0188
329.7692, 149.5603
330.2513, 147.4077
330.7334, 144.3387
331.2155, 141.2198
331.6976, 137.7639
332.1797, 133.1965
332.6619, 127.1987
333.1440, 120.7834
333.6261, 114.7790
334.1082, 109.0101
334.5903, 102.9579
335.0724, 96.01616
335.5546, 88.96634
336.0367, 82.99535
336.5188, 78.23364
337.0009, 73.54424
337.4830, 68.05846
337.9651, 62.29750
338.4473, 57.29758
338.9294, 53.44820
339.4115, 49.93466
339.8936, 46.06310
340.3757, 41.90340
340.8578, 38.11105
341.3400, 34.82803
341.8221, 32.04805
342.3042, 29.71826
342.7863, 27.90291
343.2684, 26.16835
343.7505, 24.39499
344.2327, 22.55873
344.7148, 20.49591
345.1969, 18.03918
345.6790, 15.67711
346.1611, 14.07127
346.6432, 13.10278
347.1254, 12.25722
347.6075, 11.45828
348.0896, 10.72713
348.5717, 10.07977
349.0538, 9.509949
349.5359, 8.957840
350.0181, 8.323090
350.5002, 7.666443
350.9823, 7.229675
351.4644, 7.398209
351.9465, 7.478531
352.4286, 6.892517
352.9108, 5.768143
353.3929, 4.646255
353.8750, 3.688721
354.3571, 3.007355
354.8392, 2.928726
355.3214, 3.768494
355.8035, 4.410934
356.2856, 4.309097
356.7677, 3.764816
357.2498, 3.283539
357.7319, 2.996109
358.2141, 2.876480
358.6962, 2.935303
359.1783, 3.215363
359.6604, 3.391769
360.1425, 3.367981
360.6246, 3.268082
361.1068, 3.156662
361.5889, 3.052002
362.0710, 3.059891
362.5531, 3.322159
363.0352, 3.825195
363.5173, 4.027863
363.9995, 3.866653
364.4816, 3.503250
364.9637, 2.823151
365.4458, 1.989258
365.9279, 1.393509
366.4100, 1.246933
366.8922, 1.457077
367.3743, 1.747818
367.8564, 2.335922
368.3385, 2.694733
368.8206, 2.601959
369.3027, 2.310211
369.7849, 2.135071
370.2670, 2.159561
370.7491, 2.195557
371.2312, 1.965286
371.7133, 1.327530
372.1954, 0.8555910
372.6776, 0.6895600
373.1597, 0.5607150
373.6418, 0.2845920
374.1239, 0.1202390
374.6060, 0.5216220
375.0881, 0.8289180
375.5703, 1.039124
376.0524, 1.115845
376.5345, 1.055786
377.0166, 0.8720400
377.4987, 0.4268800
377.9808, 0.1064300
378.4630, 0.5122830
378.9451, 0.6922760
379.4272, 0.6504360
379.9093, 0.3602600
380.3914, 0.5512850
380.8735, 1.074341
381.3557, 0.9175420
381.8378, 0.5861050
382.3199, 0.4931180
382.8020, 0.6706090
383.2841, 0.8192600
383.7662, 0.5378110
384.2484, 0.2919920
384.7305, 0.7228090
385.2126, 0.2923130
385.6947, 0.1085050
386.1768, 0.1222080
386.6589, 0.1031340
387.1411, 0.2144930
387.6232, 3.2134999E-02
388.1053, 0.4981540
388.5874, 0.6868290
389.0695, 0.5365450
389.5516, 0.2026670
390.0338, 0.5356600
390.5159, 1.276108
390.9980, 1.560287
391.4801, 1.269287
391.9622, 0.8578950
392.4443, 0.9897000
392.9265, 1.758911
393.4086, 2.157043
393.8907, 1.807632
394.3728, 1.275986
394.8549, 0.7649080
395.3370, 0.3316350
395.8192, 0.1186370
396.3013, 0.4238430
396.7834, 1.014313
397.2655, 0.9839480
397.7476, 1.7990001E-02
398.2297, 0.7247310
398.7119, 0.2256160
399.1940, 0.8899230
399.6761, 1.956894
400.1582, 2.882355
400.6403, 3.551849
401.1224, 3.706512
401.6046, 3.383408
402.0867, 3.226227
402.5688, 3.502594
403.0509, 3.944641
403.5330, 4.175735
404.0151, 4.185974
404.4973, 4.352814
404.9794, 5.046066
405.4615, 5.945007
405.9436, 6.410355
406.4257, 6.314575
406.9078, 6.210709
407.3900, 6.533157
407.8721, 7.243393
408.3542, 8.057495
408.8363, 9.073959
409.3184, 10.08435
409.8005, 10.94966
410.2827, 11.69231
410.7648, 12.33139
411.2469, 12.81064
411.7290, 13.30547
412.2111, 14.24776
412.6932, 15.70775
413.1754, 17.34731
413.6575, 19.28394
414.1396, 21.27115
414.6217, 22.95456
415.1038, 24.30975
415.5859, 25.79314
416.0681, 27.93559
416.5502, 30.84738
417.0323, 33.14180
417.5144, 34.07056
417.9965, 35.25929
418.4786, 37.71423
418.9608, 40.87088
419.4429, 43.57774
419.9250, 45.22472
420.4071, 46.19092
420.8892, 47.54810
421.3713, 49.95045
421.8535, 51.71674
422.3356, 52.51407
422.8177, 52.91359
423.2998, 53.26651
423.7819, 53.66861
424.2640, 54.10056
424.7462, 54.52444
425.2283, 54.93054
425.7104, 55.49576
426.1925, 56.24286
426.6746, 57.13969
427.1567, 58.05983
427.6389, 59.14806
428.1210, 60.61597
428.6031, 62.56921
429.0852, 64.93671
429.5673, 67.60750
430.0494, 70.65042
430.5316, 73.76715
431.0137, 76.76659
431.4958, 79.88634
431.9779, 83.33778
432.4600, 87.10553
432.9421, 90.89378
433.4243, 94.59619
433.9064, 98.16524
434.3885, 101.4183
434.8706, 104.3896
435.3527, 106.9984
435.8348, 109.0592
436.3170, 110.7339
436.7991, 112.3022
437.2812, 113.8940
437.7633, 115.3023
438.2454, 116.0266
438.7275, 116.1962
439.2097, 117.0150
439.6918, 119.0489
440.1739, 121.6586
440.6560, 123.7385
441.1381, 125.1675
441.6202, 127.3878
442.1024, 131.2412
442.5845, 135.7820
443.0666, 140.0869
443.5487, 144.0572
444.0308, 147.8639
444.5129, 151.6668
444.9951, 155.4203
445.4772, 158.8388
445.9593, 162.2577
446.4414, 164.9551
446.9235, 166.9408
447.4056, 168.0393
447.8878, 167.9157
448.3699, 166.4446
448.8520, 163.9047
449.3341, 160.7181
449.8162, 156.9636
450.2983, 152.2643
450.7805, 146.1909
451.2626, 139.8041
451.7447, 133.3393
452.2268, 126.9392
452.7089, 120.7493
453.1910, 114.8868
453.6732, 109.4062
454.1553, 104.5684
454.6374, 100.6284
455.1195, 96.92503
455.6016, 93.29599
456.0837, 89.83562
456.5659, 86.65677
457.0480, 83.74336
457.5301, 81.24104
458.0122, 79.56033
458.4943, 78.67009
458.9764, 77.20175
459.4586, 74.99362
459.9407, 72.38718
460.4228, 69.52777
460.9049, 66.42912
461.3870, 63.08940
461.8691, 59.38515
462.3513, 55.66713
462.8334, 52.40459
463.3155, 49.58391
463.7976, 46.89027
464.2797, 44.33305
464.7618, 41.77415
465.2440, 38.90639
465.7261, 35.69327
466.2082, 32.78023
466.6903, 30.45428
467.1724, 28.51172
467.6545, 26.67290
468.1367, 24.89941
468.6188, 23.22629
469.1009, 21.76245
469.5830, 20.43930
470.0651, 18.85965
470.5472, 16.47472
471.0294, 14.56937
471.5115, 13.72301
471.9936, 13.44180
472.4757, 13.15642
472.9578, 12.71353
473.4399, 12.07115
473.9221, 11.13747
474.4042, 9.817520
474.8863, 8.766342
475.3684, 8.029404
475.8505, 7.466339
476.3326, 7.127197
476.8148, 6.910965
477.2969, 6.675690
477.7790, 6.359268
478.2611, 5.959442
478.7432, 5.448334
479.2253, 4.756104
479.7075, 4.159775
480.1896, 3.613754
480.6717, 3.239151
481.1538, 3.165695
481.6359, 3.351166
482.1180, 3.616577
482.6002, 3.924454
483.0823, 4.199463
483.5644, 4.187302
484.0465, 3.814178
484.5286, 3.425354
485.0107, 3.188675
485.4929, 3.009338
485.9750, 2.795959
486.4571, 2.556091
486.9392, 2.205048
487.4213, 1.450089
487.9034, 0.5800930
488.3856, 0.3740230
488.8677, 1.029999
489.3498, 1.723740
489.8319, 1.702774
490.3140, 1.015686
490.7961, 0.5834500
491.2783, 0.5295720
491.7604, 0.5925600
492.2425, 0.7249450
492.7246, 0.8768620
493.2067, 0.9752040
493.6888, 0.9947510
494.1710, 0.9189760
494.6531, 0.6946410
495.1352, 0.1869050
495.6173, 2.6123000E-02
496.0994, 0.3693390
496.5815, 0.7112730
497.0637, 0.6244660
497.5458, 0.2346650
498.0279, 0.1747280
498.5100, 0.4599460
498.9921, 0.5869140
499.4742, 0.4126430
499.9564, 0.2747340
500.4385, 0.7202910
500.9206, 0.6850130
501.4027, 0.4834590
501.8848, 0.2324220
502.3669, 2.9053001E-02
502.8491, 0.2246090
503.3312, 0.2645800
503.8133, 0.2090380
504.2954, 0.2465210
504.7775, 0.4131390
505.2596, 0.4931720
505.7418, 0.3107830
506.2239, 2.2812000E-02
506.7060, 0.1750340
507.1881, 0.2932970
507.6702, 0.2327420
508.1523, 0.2712250
508.6345, 0.9172900
509.1166, 1.155449
509.5987, 0.9045410
510.0808, 0.5358350
510.5629, 0.3493960
511.0450, 0.3232270
511.5272, 0.1816180
512.0093, 0.3129200
512.4914, 0.6262660
512.9735, 0.4501190
513.4556, 6.6620000E-02
513.9377, 0.1458820
514.4199, 8.8675998E-02
514.9020, 6.5719999E-02
515.3841, 0.1133650
515.8662, 5.1674001E-02
516.3483, 9.5473997E-02
516.8304, 0.5377430
517.3126, 0.8399580
517.7947, 0.7966610
518.2768, 0.5593410
518.7589, 0.3414540
519.2410, 0.2262880
519.7231, 0.1745760
520.2053, 0.1137010
520.6874, 3.5712998E-02
521.1695, 9.6869998E-02
521.6516, 0.5094990
522.1337, 0.8143010
522.6158, 0.5452120
523.0980, 8.0086000E-02
523.5801, 0.4221340
524.0622, 3.1005999E-02
524.5443, 0.5175930
525.0264, 0.6330340
525.5085, 0.3629460
525.9907, 7.0685998E-02
526.4728, 0.6742710
526.9549, 1.229507
527.4370, 1.380013
527.9191, 1.075073
528.4012, 0.7370990
528.8834, 0.1124800
529.3655, 0.2800670
529.8476, 0.1947330
530.3297, 1.231697
530.8118, 1.903923
531.2939, 1.693634
531.7761, 0.9468150
532.2582, 0.5582810
532.7403, 0.8588260
533.2224, 0.9068450
533.7045, 0.3607560
534.1866, 0.1265410
534.6688, 5.1895000E-02
535.1509, 0.4424210
535.6330, 0.8198390
536.1151, 0.6767350
536.5972, 0.2510380
537.0793, 0.2537380
537.5615, 0.8440320
538.0436, 1.202621
538.5257, 0.8592150
539.0078, 0.3676220
539.4899, 0.1551280
539.9720, 0.2398450
540.4542, 0.5589750
540.9363, 1.365517
541.4184, 2.249672
541.9005, 2.582542
542.3826, 2.362221
542.8647, 1.978226
543.3469, 1.569153
543.8290, 1.188698
544.3111, 0.9946670
544.7932, 1.070168
545.2753, 1.105492
545.7574, 0.8466570
546.2396, 0.6768950
546.7217, 1.115387
547.2038, 2.023643
547.6859, 2.688469
548.1680, 2.570313
548.6501, 1.887924
549.1323, 1.619804
549.6144, 1.922516
550.0965, 2.397369
550.5786, 3.325348
551.0607, 4.139328
551.5428, 4.320366
552.0250, 3.922859
552.5071, 3.477768
552.9892, 3.341553
553.4713, 3.441681
553.9534, 3.571762
554.4355, 3.673882
554.9177, 4.042374
555.3998, 5.015366
555.8819, 6.136703
556.3640, 6.827972
556.8461, 7.058411
557.3282, 7.150764
557.8104, 7.053688
558.2925, 6.987045
558.7746, 7.316757
559.2567, 8.019318
559.7388, 8.707916
560.2209, 9.122505
560.7031, 9.388390
561.1852, 9.913971
561.6673, 10.95818
562.1494, 11.92542
562.6315, 12.79768
563.1136, 13.59014
563.5958, 14.29688
564.0779, 14.95097
564.5600, 15.57812
565.0421, 16.16104
565.5242, 16.78561
566.0063, 17.80455
566.4885, 19.42033
566.9706, 20.78464
567.4527, 21.19736
567.9348, 21.72266
568.4169, 23.23183
568.8990, 25.62042
569.3812, 27.98986
569.8633, 29.79615
570.3454, 31.32469
570.8275, 32.85742
571.3096, 34.42110
571.7917, 36.43098
572.2739, 39.18127
572.7560, 42.37440
573.2381, 45.49714
573.7202, 48.53899
574.2023, 51.59190
574.6844, 54.37694
575.1666, 57.41821
575.6487, 61.16751
576.1308, 65.50961
576.6129, 70.04241
577.0950, 74.56952
577.5771, 79.19872
578.0593, 84.13680
578.5414, 89.22493
579.0235, 95.05527
579.5056, 102.1475
579.9877, 109.5205
580.4698, 116.8282
580.9520, 124.1126
581.4341, 131.5488
581.9162, 139.2302
582.3983, 147.0667
582.8804, 154.6687
583.3625, 162.1991
583.8447, 171.0750
584.3268, 182.0339
584.8089, 193.3931
585.2910, 203.4891
585.7731, 212.3692
586.2552, 220.3535
586.7374, 227.7385
587.2195, 233.9428
587.7016, 238.9369
588.1837, 242.4679
588.6658, 244.2668
589.1479, 244.2227
589.6301, 242.0411
590.1122, 237.1666
590.5943, 229.3673
591.0764, 221.0304
591.5585, 212.2652
592.0406, 202.7292
592.5228, 191.9067
593.0049, 180.4725
593.4870, 169.1853
593.9691, 158.2004
594.4512, 147.5045
594.9333, 136.8340
595.4155, 126.3360
595.8976, 116.7518
596.3797, 108.1594
596.8618, 100.3607
597.3439, 93.31632
597.8260, 87.06012
598.3082, 81.51723
598.7903, 76.65891
599.2724, 72.58528
599.7545, 69.66174
600.2366, 67.33007
600.7188, 64.91221
601.2009, 62.44190
601.6830, 60.54431
602.1651, 59.66539
602.6472, 59.58936
603.1293, 59.54298
603.6115, 59.60890
604.0936, 59.54575
604.5757, 59.04405
605.0578, 58.68210
605.5399, 58.95390
606.0220, 59.69066
606.5042, 60.25340
606.9863, 60.16502
607.4684, 59.89553
607.9505, 60.30964
608.4326, 61.38751
608.9147, 62.20457
609.3969, 62.35143
609.8790, 62.54871
610.3611, 63.80420
610.8432, 66.03839
611.3253, 67.87109
611.8074, 68.85859
612.2896, 69.69565
612.7717, 70.65108
613.2538, 71.75708
613.7359, 73.11147
614.2180, 74.73125
614.7001, 76.20493
615.1823, 77.03018
615.6644, 77.17902
616.1465, 77.53561
616.6286, 78.37827
617.1107, 78.95435
617.5928, 79.14251
618.0750, 79.01861
618.5571, 78.61353
619.0392, 77.92402
619.5213, 77.17206
620.0034, 76.50684
620.4855, 75.93044
620.9677, 75.41962
621.4498, 74.96700
621.9319, 74.60460
622.4140, 74.41042
622.8961, 74.30785
623.3782, 74.22190
623.8604, 74.30604
624.3425, 73.82215
624.8246, 72.27860
625.3067, 70.51253
625.7888, 69.19859
626.2709, 68.12528
626.7531, 66.60505
627.2352, 64.30004
627.7173, 61.65317
628.1994, 59.38157
628.6815, 57.42017
629.1636, 56.05073
629.6458, 55.79567
630.1279, 55.36945
630.6100, 53.84688
631.0921, 51.92366
631.5742, 50.98825
632.0563, 51.68659
632.5385, 52.38063
633.0206, 51.80942
633.5027, 50.45941
633.9848, 49.28072
634.4669, 48.40625
634.9490, 47.41225
635.4312, 45.99016
635.9133, 44.18666
636.3954, 42.18568
636.8775, 40.04732
637.3596, 37.56474
637.8417, 34.46918
638.3239, 31.29049
638.8060, 28.24410
639.2881, 25.46852
639.7702, 23.18635
640.2523, 21.58818
640.7344, 20.34566
641.2166, 18.87038
641.6987, 17.15501
642.1808, 15.46496
642.6629, 13.74880
643.1450, 12.21912
643.6271, 11.13630
644.1093, 10.40676
644.5914, 9.754097
645.0735, 9.222260
645.5556, 8.672768
646.0377, 7.908943
646.5198, 7.142319
647.0020, 6.804146
647.4841, 6.909645
647.9662, 6.895805
648.4483, 6.183014
648.9304, 4.947990
649.4125, 4.493324
649.8947, 5.470131
650.3768, 6.006699
650.8589, 5.416916
651.3410, 4.589584
651.8231, 4.144501
652.3052, 4.054970
652.7874, 3.911171
653.2695, 3.433914
653.7516, 2.871506
654.2337, 2.509941
654.7158, 2.330818
655.1979, 2.304031
655.6801, 2.456787
656.1622, 2.537270
656.6443, 2.209984
657.1264, 1.438133
657.6085, 1.003319
658.0906, 1.171631
658.5728, 1.295265
659.0549, 1.171928
659.5370, 0.9578250
660.0191, 0.8419340
660.5012, 0.8347630
660.9833, 0.7732240
661.4655, 0.4648060
661.9476, 3.2889999E-02
662.4297, 0.1115190
662.9118, 5.9402000E-02
663.3939, 0.3135300
663.8760, 0.6454770
664.3582, 0.9532320
664.8403, 1.174278
665.3224, 1.307350
665.8045, 1.138733
666.2866, 0.1933140
666.7687, 0.6010060
667.2509, 0.5245820
667.7330, 1.5799999E-02
668.2151, 0.1302110
668.6972, 0.2619780
669.1793, 0.6612630
669.6614, 0.4541850
670.1436, 0.2899860
670.6257, 0.5373540
671.1078, 8.3010001E-03
671.5899, 0.4386290
672.0720, 0.4779740
672.5541, 0.4080730
673.0363, 0.5315020
673.5184, 0.8237990
674.0005, 0.8924560
674.4826, 0.2031780
674.9647, 0.4902650
675.4468, 0.2303850
675.9290, 0.6606980
676.4111, 1.168877
676.8932, 0.9748840
677.3753, 0.5097350
677.8574, 0.2733840
678.3395, 0.2786100
678.8217, 0.1737060
679.3038, 0.3361660
679.7859, 0.5720980
680.2680, 0.1272130
680.7501, 0.4386600
681.2322, 0.6112820
681.7144, 0.3577960
682.1965, 1.0170000E-02
682.6786, 0.3784870
683.1607, 0.6770710
683.6428, 0.8154220
684.1249, 0.7873460
684.6071, 0.4742280
685.0892, 0.2334290
685.5713, 0.9810560
686.0534, 1.416161
686.5355, 1.536560
687.0176, 1.259026
687.4998, 9.2995003E-02
687.9819, 0.9570080
688.4640, 0.5046920
688.9461, 0.3493580
689.4282, 0.6718520
689.9103, 0.3686450
690.3925, 5.9211999E-02
690.8746, 0.2744600
691.3567, 0.3110580
691.8388, 0.2053150
692.3209, 4.9492002E-02
692.8030, 0.2781680
693.2852, 0.4903410
693.7673, 0.5515140
694.2494, 0.1897280
694.7315, 0.5463100
695.2136, 0.8906170
695.6957, 0.5419850
696.1779, 0.1312100
696.6600, 0.2407300
697.1421, 0.4952470
697.6242, 0.5158460
698.1063, 0.3151550
698.5884, 1.9974001E-02
699.0706, 0.2964710
699.5527, 0.5978700
700.0348, 0.7646330
700.5169, 0.7738490
700.9990, 0.8029480
701.4811, 0.9455030
701.9633, 1.033524
702.4454, 0.7252040
702.9275, 0.2147670
703.4096, 0.2027820
703.8917, 1.246361
704.3738, 2.160416
704.8560, 2.278831
705.3381, 2.102219
705.8202, 2.282372
706.3023, 2.829002
706.7844, 3.289612
707.2665, 3.344589
707.7487, 3.132851
708.2308, 3.043976
708.7129, 3.126389
709.1950, 3.079369
709.6771, 2.637733
710.1592, 2.369965
710.6414, 2.826180
711.1235, 3.682182
711.6056, 4.258453
712.0877, 4.422417
712.5698, 4.349854
713.0519, 3.834190
713.5341, 3.304794
714.0162, 3.341995
714.4983, 3.897781
714.9804, 4.546356
715.4625, 5.059906
715.9446, 5.434059
716.4268, 5.599998
716.9089, 5.441734
717.3910, 5.630966
717.8731, 6.590080
718.3552, 7.340302
718.8373, 7.229004
719.3195, 6.721115
719.8016, 6.472328
720.2837, 6.593262
720.7658, 6.838860
721.2479, 7.163483
721.7300, 7.486488
722.2122, 7.701706
722.6943, 7.833618
723.1764, 8.030350
723.6585, 8.359673
724.1406, 8.612823
724.6227, 8.367973
725.1049, 7.583740
725.5870, 7.188843
726.0691, 7.382401
726.5512, 7.552223
727.0333, 7.396843
727.5154, 7.212837
727.9976, 7.304932
728.4797, 7.659248
728.9618, 8.011932
729.4439, 8.177856
729.9260, 8.342148
730.4081, 8.724716
730.8903, 9.205978
731.3724, 9.505661
731.8545, 9.563324
732.3366, 9.562462
732.8187, 9.629433
733.3008, 9.730453
733.7830, 9.648994
734.2651, 9.368553
734.7472, 9.037415
735.2293, 8.442276
735.7114, 8.020477
736.1935, 8.171532
736.6757, 8.800323
737.1578, 9.431473
737.6399, 10.01363
738.1220, 10.38147
738.6041, 10.27805
739.0862, 9.926056
739.5684, 9.614464
740.0505, 9.416306
740.5326, 9.355011
741.0147, 9.448486
741.4968, 9.690430
741.9789, 10.12346
742.4611, 10.88763
742.9432, 11.29041
743.4253, 11.10371
743.9074, 10.71451
744.3895, 10.16924
744.8716, 9.665077
745.3538, 9.632988
745.8359, 10.16196
746.3180, 10.70871
746.8001, 11.07666
747.2822, 11.26613
747.7643, 11.22318
748.2465, 11.03334
748.7286, 10.87164
749.2107, 10.82259
749.6928, 10.92384
750.1749, 11.30141
750.6570, 11.98151
751.1392, 12.29442
751.6213, 12.07063
752.1034, 11.93646
752.5855, 12.29567
753.0676, 12.72177
753.5497, 12.60865
754.0319, 11.92562
754.5140, 11.55560
754.9961, 11.89278
755.4782, 12.44118
755.9603, 13.07570
756.4424, 13.66998
756.9246, 14.04044
757.4067, 14.14400
757.8888, 14.02446
758.3709, 13.63258
758.8530, 13.14371
759.3351, 13.22747
759.8173, 13.96175
760.2994, 14.60184
760.7815, 14.99879
761.2636, 15.24614
761.7457, 15.36001
762.2278, 15.37772
762.7100, 15.48396
763.1921, 15.76313
763.6742, 16.00753
764.1563, 16.05269
764.6384, 16.14066
765.1205, 16.52248
765.6027, 17.12081
766.0848, 17.75261
766.5669, 18.35007
767.0490, 18.70929
767.5311, 18.31707
768.0132, 17.38132
768.4954, 17.16721
768.9775, 17.83504
769.4596, 18.47621
769.9417, 18.63232
770.4238, 18.54826
770.9059, 18.63205
771.3881, 18.89917
771.8702, 19.29274
772.3523, 20.04424
772.8344, 20.64388
773.3165, 20.86867
773.7986, 20.87508
774.2808, 20.76354
774.7629, 20.59806
775.2450, 20.55640
775.7271, 20.77681
776.2092, 21.17135
776.6913, 21.73944
777.1735, 22.38906
777.6556, 22.64223
778.1377, 22.37411
778.6198, 22.14112
779.1019, 22.45229
779.5840, 23.17439
780.0662, 23.63544
780.5483, 23.83184
781.0304, 23.76568
781.5125, 23.15727
781.9946, 22.57432
782.4767, 22.35211
782.9589, 22.33966
783.4410, 22.19068
783.9231, 21.75420
784.4052, 21.46798
784.8873, 21.83772
785.3694, 22.34905
785.8516, 22.38065
786.3337, 21.97286
786.8158, 21.32037
787.2979, 20.51092
787.7800, 19.85516
788.2621, 19.80105
788.7443, 20.33250
789.2264, 20.55987
789.7085, 20.31230
790.1906, 20.26456
790.6727, 20.83022
791.1548, 21.47956
791.6370, 21.72884
792.1191, 21.59502
792.6012, 21.16533
793.0833, 20.16397
793.5654, 19.21485
794.0475, 18.58199
794.5297, 18.11971
795.0118, 17.70164
795.4939, 17.31110
795.9760, 16.95164
796.4581, 16.62732
796.9402, 16.30009
797.4224, 15.85278
797.9045, 15.31664
798.3866, 15.00831
798.8687, 14.98958
799.3508, 14.87144
799.8329, 14.42347
800.3151, 13.82105
800.7972, 13.40742
801.2793, 13.23781
801.7614, 12.99178
802.2435, 12.71846
802.7256, 12.35532
803.2078, 11.84756
803.6899, 11.28791
804.1720, 10.66432
804.6541, 10.05360
805.1362, 9.708221
805.6183, 9.871643
806.1005, 10.22982
806.5826, 10.64514
807.0647, 10.96738
807.5468, 10.76590
808.0289, 10.01245
808.5110, 9.144928
808.9932, 8.441986
809.4753, 7.937935
809.9574, 7.771645
810.4395, 8.057762
810.9216, 8.173790
811.4037, 8.155487
811.8859, 7.854279
812.3680, 6.858757
812.8501, 5.689423
813.3322, 5.156380
813.8143, 5.386452
814.2964, 5.569321
814.7786, 5.457115
815.2607, 5.313354
815.7428, 5.295052
816.2249, 5.337578
816.7070, 5.345467
817.1891, 5.300743
817.6713, 5.242363
818.1534, 5.217773
818.6355, 5.170166
819.1176, 4.913162
819.5997, 4.491768
820.0818, 4.326279
820.5640, 4.519943
821.0461, 4.713493
821.5282, 4.650368
822.0103, 4.399139
822.4924, 4.187843
822.9745, 4.107307
823.4567, 3.861366
823.9388, 3.233032
824.4209, 2.688171
824.9030, 2.436882
825.3851, 2.334747
825.8672, 2.162560
826.3494, 1.892662
826.8315, 1.774361
827.3136, 2.124275
827.7957, 2.486015
828.2778, 2.443840
828.7599, 2.145561
829.2421, 1.797150
829.7242, 1.482262
830.2063, 1.360420
830.6884, 1.588120
831.1705, 1.990883
831.6526, 2.134476
832.1348, 2.011108
832.6169, 1.806427
833.0990, 1.503990
833.5811, 1.242851
834.0632, 1.108978
834.5453, 1.063606
835.0275, 1.008522
835.5096, 0.8891750
835.9917, 0.9328160
836.4738, 1.496254
836.9559, 1.802452
837.4380, 1.292496
837.9202, 0.5443880
838.4023, 0.2644120
838.8844, 0.4816280
839.3665, 0.6245800
839.8486, 0.2785870
840.3307, 0.1480560
840.8129, 0.2939300
841.2950, 0.1960370
841.7771, 0.1919710
842.2592, 0.8022840
842.7413, 1.248077
843.2234, 1.281891
843.7056, 1.014732
844.1877, 0.5725780
844.6698, 8.6372003E-02
845.1519, 0.3173600
845.6340, 7.5874001E-02
846.1161, 0.3949360
846.5983, 0.3370060
847.0804, 5.9478998E-02
847.5625, 0.2795410
848.0446, 0.6978910
848.5267, 0.9019930
849.0089, 0.7210390
849.4910, 0.5245590
849.9731, 0.4508210
850.4552, 0.3891070
850.9373, 0.1614530
851.4194, 0.1576080
851.9016, 0.2877200
852.3837, 5.7983000E-02
852.8658, 0.2308580
853.3479, 0.2760620
853.8300, 0.2020340
854.3121, 0.2648240
854.7943, 0.4426570
855.2764, 0.4971770
855.7585, 0.3188860
856.2406, 0.1032030
856.7227, 0.1348500
857.2048, 0.3845060
857.6870, 0.4969560
858.1691, 0.4707950
858.6512, 0.3476870
859.1333, 2.0119000E-02
859.6154, 0.2327960
860.0975, 4.1237000E-02
860.5797, 0.4748920
861.0618, 0.6085740
861.5439, 0.1146090
862.0260, 0.3679730
862.5081, 0.8087010
862.9902, 1.141876
863.4724, 1.335899
863.9545, 1.428345
864.4366, 1.390121
864.9187, 1.187294
865.4008, 1.059464
865.8829, 1.201996
866.3651, 1.475311
866.8472, 1.817886
867.3293, 2.132507
867.8114, 2.142899
868.2935, 1.833405
868.7756, 1.533104
869.2578, 1.480385
869.7399, 1.603317
870.2220, 1.798347
870.7041, 2.082581
871.1862, 2.042152
871.6683, 1.537018
872.1505, 1.093040
872.6326, 0.9717100
873.1147, 1.099663
873.5968, 1.352310
874.0789, 1.777504
874.5610, 2.072159
875.0432, 2.317200
875.5253, 2.341400
876.0074, 1.824448
876.4895, 1.303383
876.9716, 1.332062
877.4537, 1.804199
877.9359, 2.111221
878.4180, 1.922218
878.9001, 1.766380
879.3822, 2.243622
879.8643, 2.772270
880.3464, 2.519043
880.8286, 1.726234
881.3107, 1.150017
881.7928, 1.060997
882.2749, 1.228867
882.7570, 1.423622
883.2391, 1.668045
883.7213, 2.224876
884.2034, 3.073021
884.6855, 3.622757
885.1676, 3.701363
885.6497, 3.741875
886.1318, 4.126846
886.6140, 4.685898
887.0961, 4.831398
887.5782, 4.440849
888.0603, 3.928970
888.5424, 3.011215
889.0245, 2.369804
889.5067, 2.421593
889.9888, 2.827110
890.4709, 3.218071
890.9530, 3.569672
891.4351, 3.837364
891.9172, 4.113983
892.3994, 4.180130
892.8815, 3.755203
893.3636, 3.225891
893.8457, 2.966339
894.3278, 2.951897
894.8099, 3.007278
895.2921, 3.076866
895.7742, 3.039978
896.2563, 2.625061
896.7384, 2.110252
897.2205, 2.049965
897.7026, 2.352066
898.1848, 2.568787
898.6669, 2.560730
899.1490, 2.479774
899.6311, 2.453331
900.1132, 2.483566
900.5953, 2.650490
901.0775, 2.986130
901.5596, 3.061462
902.0417, 2.749199
902.5238, 2.378441
903.0059, 2.078491
903.4880, 1.923149
903.9702, 2.058189
904.4523, 2.612854
904.9344, 2.926537
905.4165, 2.948120
905.8986, 2.757309
906.3807, 2.064095
906.8629, 1.458046
907.3450, 1.624924
907.8271, 2.344307
908.3092, 2.639732
908.7913, 2.027077
909.2734, 1.474548
909.7556, 1.528244
910.2377, 1.719154
910.7198, 1.590195
911.2019, 1.276283
911.6840, 1.140533
912.1661, 1.258514
912.6483, 1.313919
913.1304, 1.005424
913.6125, 0.5465240
914.0946, 0.1844940
914.5767, 6.2523000E-02
915.0588, 2.0027000E-02
915.5410, 0.3163450
916.0231, 0.5924380
916.5052, 0.5791320
916.9873, 0.4303280
917.4694, 0.4291460
917.9515, 0.5769880
918.4337, 0.4884950
918.9158, 0.1086200
919.3979, 6.1728999E-02
919.8800, 0.2127460
920.3621, 0.5313030
920.8442, 0.4169690
921.3264, 6.2302001E-02
921.8085, 0.1675950
922.2906, 0.5336000
922.7727, 0.8991390
923.2548, 0.6451950
923.7369, 0.3189540
924.2191, 0.1607890
924.7012, 9.7969003E-02
925.1833, 7.1560000E-03
925.6654, 0.1759190
926.1475, 0.2379230
926.6296, 5.6366000E-02
927.1118, 0.1421810
927.5939, 0.2515180
928.0760, 0.3141860
928.5581, 0.4097210
929.0402, 0.5062560
929.5223, 0.4413990
930.0045, 0.1064530
930.4866, 0.1496580
930.9687, 0.1045300
931.4508, 0.5726090
931.9329, 0.8340000
932.4150, 0.8914410
932.8972, 0.8350220
933.3793, 0.6906130
933.8614, 0.3961490
934.3435, 0.1613310
934.8256, 0.7699510
935.3077, 0.8791580
935.7899, 0.5175780
936.2720, 4.5929998E-03
936.7541, 0.6585390
937.2362, 1.036217
937.7183, 0.8554460
938.2004, 0.4503400
938.6826, 0.3260880
939.1647, 0.4894030
939.6468, 0.4911500
940.1289, 5.0889999E-03
940.6110, 0.2226640
941.0931, 2.150276
941.5753, 3.808807
942.0574, 3.483276
942.5395, 1.892067
943.0216, 1.027390
943.5037, 1.164482
943.9858, 1.196388
944.4680, 0.8910220
944.9501, 0.6438600
945.4322, 0.7342300
945.9143, 0.8602750
946.3964, 0.6299440
946.8785, 0.1132890
947.3607, 0.2262950
947.8428, 0.1985320
948.3249, 5.4680001E-02
948.8070, 4.0047001E-02
949.2891, 0.2143780
949.7712, 0.7350690
950.2534, 1.385612
950.7355, 1.700012
951.2176, 1.581001
951.6997, 1.363663
952.1818, 1.279137
952.6639, 1.258888
953.1461, 1.146133
953.6282, 1.042412
954.1103, 1.270599
954.5924, 1.793961
955.0745, 2.212723
955.5566, 2.331512
956.0388, 2.279930
956.5209, 2.211716
957.0030, 2.129707
957.4851, 1.965393
957.9672, 1.722183
958.4493, 1.912964
958.9315, 2.695511
959.4136, 3.595573
959.8957, 4.275101
960.3778, 4.811920
960.8599, 5.406868
961.3420, 6.068298
961.8242, 6.758377
962.3063, 7.560623
962.7884, 8.159996
963.2705, 8.288582
963.7526, 8.408226
964.2347, 8.978470
964.7169, 9.943291
965.1990, 10.91727
965.6811, 11.80928
966.1632, 12.85591
966.6453, 14.15051
967.1274, 15.48232
967.6096, 16.76401
968.0917, 18.04720
968.5738, 19.34847
969.0559, 20.68539
969.5380, 22.21657
970.0201, 24.02644
970.5023, 25.99296
970.9844, 27.97231
971.4665, 30.18237
971.9486, 32.61926
972.4307, 35.50498
972.9128, 39.28581
973.3950, 44.08121
973.8771, 49.43376
974.3592, 54.99641
974.8413, 61.13356
975.3234, 67.91420
975.8055, 75.64745
976.2877, 84.60884
976.7698, 94.94348
977.2519, 106.7808
977.7340, 120.1921
978.2161, 135.7911
978.6982, 153.4617
979.1804, 174.0601
979.6625, 198.6823
980.1446, 227.5617
980.6267, 261.0370
981.1088, 299.3140
981.5909, 344.2746
982.0731, 397.2618
982.5552, 457.6789
983.0373, 525.0364
983.5194, 599.2525
984.0015, 682.4586
984.4836, 774.9357
984.9658, 867.7914
985.4479, 959.6682
985.9300, 1038.928
986.4121, 1095.121
986.8942, 1129.745
987.3763, 1146.223
987.8585, 1143.221
988.3406, 1131.727
988.8227, 1115.285
989.3048, 1080.290
989.7869, 1021.232
990.2690, 940.8520
990.7512, 838.8370
991.2333, 717.2803
991.7154, 603.9484
992.1975, 495.0405
992.6796, 402.1747
993.1617, 328.2446
993.6439, 267.8659
994.1260, 220.5358
994.6081, 183.7262
995.0902, 154.4971
995.5723, 132.9901
996.0544, 114.3953
996.5366, 98.72102
997.0187, 85.56365
997.5008, 75.62494
997.9829, 67.37099
998.4650, 60.17973
998.9471, 53.88972
999.4293, 48.49103
999.9114, 43.98320
1000.393, 39.96281
1000.876, 36.43260
1001.358, 33.24794
1001.840, 30.47765
1002.322, 27.95962
1002.804, 25.50966
1003.286, 23.19758
1003.768, 21.22126
1004.250, 19.65764
1004.733, 18.16434
1005.215, 16.46168
1005.697, 14.88366
1006.179, 13.75178
1006.661, 12.84669
1007.143, 11.85204
1007.625, 10.80540
1008.107, 9.994759
1008.589, 9.564888
1009.072, 9.111588
1009.554, 8.161392
1010.036, 7.117683
1010.518, 6.518829
1011.000, 6.177719
1011.482, 5.685448
1011.964, 5.003464
1012.446, 4.324142
1012.929, 3.738007
1013.411, 3.282669
1013.893, 3.114922
1014.375, 3.053360
1014.857, 2.599075
1015.339, 1.918068
1015.821, 1.656319
1016.303, 1.920418
1016.785, 2.284637
1017.268, 2.472626
1017.750, 2.521019
1018.232, 2.546158
1018.714, 2.484871
1019.196, 1.972603
1019.678, 1.063225
1020.160, 0.2398610
1020.642, 0.3638150
1021.125, 0.6039580
1021.607, 0.3146900
1022.089, 0.2181630
1022.571, 0.2688060
1023.053, 0.1231840
1023.535, 0.1298520
1024.017, 0.2979280
1024.499, 0.5926360
1024.981, 0.5717160
1025.464, 0.3992390
1025.946, 0.2015380
1026.428, 7.3699998E-03
1026.910, 0.1171800
1027.392, 0.1879430
1027.874, 1.8790999E-02
1028.356, 0.5968170
1028.838, 1.012009
1029.321, 1.030991
1029.803, 0.9793470
1030.285, 1.216232
1030.767, 1.625565
1031.249, 1.670540
1031.731, 1.253021
1032.213, 0.8308180
1032.695, 0.3777310
1033.177, 5.6530000E-03
1033.660, 0.2947850
1034.142, 0.4063570
1034.624, 0.1481780
1035.106, 0.4080280
1035.588, 0.8032680
1036.070, 0.9843980
1036.552, 1.140190
1037.034, 1.364899
1037.516, 1.401062
1037.999, 1.037788
1038.481, 0.5609890
1038.963, 0.2391200
1039.445, 7.0389003E-02
1039.927, 4.6195999E-02
1040.409, 0.3841930
1040.891, 0.4781340
1041.373, 5.4985002E-02
1041.855, 0.3450850
1042.338, 0.2399830
1042.820, 0.9929500
1043.302, 1.135445
1043.784, 0.7513050
1044.266, 0.5100780
1044.748, 0.4981230
1045.230, 0.5177460
1045.712, 0.5520550
1046.195, 0.6256640
1046.677, 0.8075030
1047.159, 0.9917450
1047.641, 1.061180
1048.123, 1.023476
1048.605, 0.9685290
1049.087, 0.9611430
1049.569, 0.8346330
1050.052, 0.4571230
1050.534, 8.3457999E-02
1051.016, 0.2148130
1051.498, 0.4183120
1051.980, 0.4949260
1052.462, 0.4573900
1052.944, 0.3787160
1053.426, 0.2478180
1053.908, 0.1258240
1054.391, 0.1319730
1054.873, 2.9259000E-02
1055.355, 0.4810710
1055.837, 1.041031
1056.319, 1.178398
1056.801, 0.9558330
1057.283, 0.8707730
1057.765, 1.076653
1058.248, 1.337570
1058.730, 1.616264
1059.212, 1.898315
1059.694, 2.324707
1060.176, 2.646950
1060.658, 2.397644
1061.140, 1.750916
1061.622, 1.582642
1062.104, 2.383278
1062.587, 2.943596
1063.069, 2.480721
1063.551, 2.050041
1064.033, 2.304993
1064.515, 2.900925
1064.997, 3.537231
1065.479, 4.108414
1065.961, 4.438980
1066.443, 4.412300
1066.926, 4.376625
1067.408, 4.413498
1067.890, 4.550209
1068.372, 4.810822
1068.854, 5.174789
1069.336, 5.668343
1069.818, 6.240883
1070.300, 6.735008
1070.782, 7.070648
1071.265, 7.513000
1071.747, 8.336967
1072.229, 9.123283
1072.711, 9.601082
1073.193, 9.923492
1073.675, 10.16843
1074.157, 10.42257
1074.639, 10.89049
1075.122, 11.66840
1075.604, 12.35445
1076.086, 12.56644
1076.568, 12.86980
1077.050, 13.78872
1077.532, 14.81307
1078.014, 15.38116
1078.496, 15.58712
1078.979, 15.75729
1079.461, 15.97810
1079.943, 16.47895
1080.425, 17.51765
1080.907, 18.65397
1081.389, 19.73395
1081.871, 20.72459
1082.353, 21.64883
1082.835, 22.44066
1083.318, 22.90119
1083.800, 22.99255
1084.282, 23.17325
1084.764, 23.88811
1085.246, 24.41923
1085.728, 24.16139
1086.210, 23.80170
1086.692, 23.93369
1087.175, 24.41342
1087.657, 24.93938
1088.139, 25.44442
1088.621, 25.90514
1089.103, 26.50171
1089.585, 26.78487
1090.067, 26.24776
1090.549, 25.63245
1091.031, 25.46401
1091.514, 25.61636
1091.996, 25.72728
1092.478, 25.84714
1092.960, 26.65497
1093.442, 28.84721
1093.924, 30.86797
1094.406, 32.18828
1094.888, 33.11800
1095.370, 33.72157
1095.853, 34.16108
1096.335, 34.42941
1096.817, 34.65927
1097.299, 35.42447
1097.781, 37.07200
1098.263, 38.73013
1098.745, 40.13744
1099.227, 41.51478
1099.709, 42.93230
1100.192, 44.42153
1100.674, 46.05431
1101.156, 47.75454
1101.638, 49.31990
1102.120, 50.80399
1102.602, 51.79730
1103.084, 51.78566
1103.566, 51.79955
1104.049, 52.30858
1104.531, 52.95367
1105.013, 53.33764
1105.495, 53.62566
1105.977, 54.26617
1106.459, 55.35852
1106.941, 56.49469
1107.423, 58.05246
1107.906, 59.02724
1108.388, 58.68538
1108.870, 58.15023
1109.352, 58.28880
1109.834, 58.68196
1110.316, 58.57336
1110.798, 57.90796
1111.280, 57.06822
1111.762, 55.89362
1112.245, 54.82957
1112.727, 53.98749
1113.209, 53.20010
1113.691, 52.43579
1114.173, 51.65503
1114.655, 50.81104
1115.137, 49.90657
1115.619, 48.93379
1116.102, 48.08397
1116.584, 46.80939
1117.066, 44.57636
1117.548, 42.71506
1118.030, 42.03413
1118.512, 41.52039
1118.994, 40.13673
1119.476, 38.11710
1119.958, 36.40479
1120.441, 35.07792
1120.923, 33.84018
1121.405, 32.90695
1121.887, 31.58105
1122.369, 29.56737
1122.851, 27.32581
1123.333, 25.06936
1123.815, 22.94883
1124.297, 21.30718
1124.780, 20.17735
1125.262, 19.15663
1125.744, 18.22739
1126.226, 17.53584
1126.708, 17.20948
1127.190, 16.78131
1127.672, 15.98853
1128.154, 14.95944
1128.636, 13.84057
1129.119, 12.66152
1129.601, 11.71416
1130.083, 11.01388
1130.565, 10.34118
1131.047, 9.697647
1131.529, 8.868736
1132.011, 7.760429
1132.493, 6.635429
1132.976, 5.722534
1133.458, 4.992775
1133.940, 4.456108
1134.422, 4.101837
1134.904, 3.631805
1135.386, 3.047478
1135.868, 2.673775
1136.350, 2.595764
1136.833, 2.516708
1137.315, 2.225487
1137.797, 1.924637
1138.279, 2.084991
1138.761, 2.454750
1139.243, 2.029053
1139.725, 1.062180
1140.207, 0.6930080
1140.689, 1.008163
1141.172, 1.231712
1141.654, 0.9966280
1142.136, 0.6099400
1142.618, 0.3009570
1143.100, 0.1512150
1143.582, 0.4702610
1144.064, 0.9836810
1144.546, 1.106361
1145.029, 0.8773420
1145.511, 0.5632320
1145.993, 0.2673420
1146.475, 6.6940002E-02
1146.957, 2.2766000E-02
1147.439, 6.3804999E-02
1147.921, 0.1663890
1148.403, 0.2813260
1148.885, 0.3678510
1149.368, 0.4172590
1149.850, 0.4009480
1150.332, 0.3251420
1150.814, 0.2238850
1151.296, 0.1101680
1151.778, 1.8160000E-03
1152.260, 5.1971000E-02
1152.742, 0.1356350
1153.224, 0.4033050
1153.707, 0.6679080
1154.189, 0.7593150
1154.671, 0.6770170
1155.153, 0.4244460
1155.635, 4.1199999E-04
1156.117, 0.3158260
1156.599, 0.3648380
1157.081, 0.3920820
1157.563, 0.4039990
1158.046, 0.4932330
1158.528, 0.8657230
1159.010, 1.254402
1159.492, 1.181000
1159.974, 0.7240140
1160.456, 0.6932220
1160.938, 1.486664
1161.420, 2.073502
1161.903, 2.369492
1162.385, 2.491203
1162.867, 2.386101
1163.349, 2.215034
1163.831, 2.015816
1164.313, 1.888428
1164.795, 2.127296
1165.277, 2.811310
1165.760, 3.205040
1166.242, 3.121071
1166.724, 3.332420
1167.206, 4.102814
1167.688, 4.761932
1168.170, 4.937103
1168.652, 4.917580
1169.134, 5.086937
1169.616, 5.371086
1170.099, 5.421707
1170.581, 5.237144
1171.063, 4.819763
1171.545, 4.164322
1172.027, 3.903427
1172.509, 4.230988
1172.991, 4.820557
1173.473, 5.478218
1173.956, 5.920670
1174.438, 5.536003
1174.920, 4.577538
1175.402, 3.729080
1175.884, 3.060471
1176.366, 2.910950
1176.848, 3.206978
1177.330, 3.361069
1177.813, 3.123222
1178.295, 2.765335
1178.777, 2.486908
1179.259, 2.279190
1179.741, 2.171135
1180.223, 2.098495
1180.705, 1.963272
1181.187, 1.790627
1181.669, 1.695412
1182.151, 1.660812
1182.634, 1.454674
1183.116, 0.8789060
1183.598, 0.4744030
1184.080, 0.6831280
1184.562, 1.028191
1185.044, 1.319748
1185.526, 1.474930
1186.008, 1.331352
1186.490, 1.021317
1186.973, 0.8931430
1187.455, 1.023094
1187.937, 0.9720760
1188.419, 0.5271070
1188.901, 8.1490003E-02
1189.383, 0.4766460
1189.865, 0.7992170
1190.347, 0.5419390
1190.830, 8.9973003E-02
1191.312, 0.1648330
1191.794, 0.2569730
1192.276, 0.3638690
1192.758, 0.5242610
1193.240, 0.5704800
1193.722, 0.5014040
1194.204, 0.2856520
1194.687, 0.1768040
1195.169, 0.4716260
1195.651, 0.2932820
1196.133, 7.9963997E-02
1196.615, 0.1824040
1197.097, 7.1808003E-02
1197.579, 0.2000430
1198.061, 0.5465390
1198.543, 0.6436610
1199.026, 0.4640500
1199.508, 0.2833790
1199.990, 0.1968770
1200.472, 0.1519550
1200.954, 0.1043550
1201.436, 5.1337998E-02
1201.918, 3.2288000E-02
1202.400, 9.4512999E-02
1202.883, 1.8828999E-02
1203.365, 0.2206950
1203.847, 0.2597730
1204.329, 0.1762240
1204.811, 0.2919160
1205.293, 0.7117160
1205.775, 1.004707
1206.257, 0.7382660
1206.740, 0.4333420
1207.222, 0.5269170
1207.704, 0.6940160
1208.186, 0.6539840
1208.668, 0.4802630
1209.150, 0.2705310
1209.632, 6.1202999E-02
1210.114, 7.6247998E-02
1210.596, 0.1300280
1211.078, 0.1147920
1211.561, 4.2548999E-02
1212.043, 0.1731570
1212.525, 0.2079850
1213.007, 0.2421880
1213.489, 0.3482890
1213.971, 0.4684680
1214.453, 0.5271220
1214.935, 0.5400700
1215.417, 0.6213910
1215.900, 0.7854610
1216.382, 0.9899060
1216.864, 1.295860
1217.346, 1.318230
1217.828, 0.8848500
1218.310, 0.3966140
1218.792, 0.1346740
1219.274, 9.1536999E-02
1219.757, 0.3311610
1220.239, 0.7613070
1220.721, 0.8838880
1221.203, 0.7699200
1221.685, 0.8077470
1222.167, 0.9933090
1222.649, 0.8629460
1223.131, 0.3256530
1223.614, 0.3509670
1224.096, 1.938339
1224.578, 3.574768
1225.060, 3.083519
1225.542, 2.161766
1226.024, 3.408882
1226.506, 5.294395
1226.988, 5.061279
1227.470, 3.139023
1227.953, 1.767891
1228.435, 1.611809
1228.917, 1.650513
1229.399, 1.617920
1229.881, 1.559601
1230.363, 1.305130
1230.845, 1.239464
1231.327, 1.801720
1231.810, 2.516739
1232.292, 2.837616
1232.774, 2.821663
1233.256, 2.698853
1233.738, 2.445328
1234.220, 2.149849
1234.702, 1.679634
1235.184, 1.674904
1235.667, 2.415405
1236.149, 2.985580
1236.631, 2.895264
1237.113, 2.481880
1237.595, 2.007629
1238.077, 1.568306
1238.559, 1.726166
1239.041, 2.282288
1239.523, 2.632355
1240.005, 2.727432
1240.488, 2.435822
1240.970, 1.937927
1241.452, 1.554764
1241.934, 1.427788
1242.416, 1.507645
1242.898, 1.799866
1243.380, 2.161247
1243.862, 2.676773
1244.344, 2.969490
1244.827, 2.357849
1245.309, 1.368011
1245.791, 1.024353
1246.273, 1.314087
1246.755, 1.659195
1247.237, 1.939110
1247.719, 2.109489
1248.201, 2.222099
1248.684, 2.193512
1249.166, 1.869110
1249.648, 1.547829
1250.130, 1.428482
1250.612, 1.391846
1251.094, 1.286781
1251.576, 1.140465
1252.058, 1.163193
1252.541, 1.409409
1253.023, 1.236214
1253.505, 0.5341490
1253.987, 0.3017730
1254.469, 0.7608180
1254.951, 1.245987
1255.433, 1.374702
1255.915, 1.345711
1256.397, 1.479294
1256.880, 1.574425
1257.362, 1.039299
1257.844, 0.2781680
1258.326, 0.1259540
1258.808, 0.4476700
1259.290, 0.7699200
1259.772, 0.9889140
1260.254, 1.201447
1260.737, 1.472473
1261.219, 1.556664
1261.701, 1.130112
1262.183, 0.7368160
1262.665, 0.5790100
1263.147, 0.6246950
1263.629, 0.9597850
1264.111, 1.407997
1264.594, 1.795670
1265.076, 2.094002
1265.558, 2.227333
1266.040, 2.223328
1266.522, 1.883011
1267.004, 1.016548
1267.486, 0.4484180
1267.968, 0.3444370
1268.450, 0.5531460
1268.932, 1.049934
1269.415, 1.456642
1269.897, 1.263954
1270.379, 0.7884600
1270.861, 0.6572490
1271.343, 0.7205580
1271.825, 0.3964540
1272.307, 0.1264950
1272.789, 6.2531002E-02
1273.271, 0.5151370
1273.754, 0.9138410
1274.236, 0.8729170
1274.718, 0.8233260
1275.200, 1.125206
1275.682, 1.366386
1276.164, 1.331253
1276.646, 1.113586
1277.128, 0.5406190
1277.611, 3.3011999E-02
1278.093, 0.2056880
1278.575, 0.8060230
1279.057, 0.8043210
1279.539, 0.2141650
1280.021, 4.8470002E-02
1280.503, 4.1901000E-02
1280.985, 0.1278000
1281.468, 0.1997680
1281.950, 0.1846160
1282.432, 0.1227420
1282.914, 0.1711730
1283.396, 0.6607130
1283.878, 1.216583
1284.360, 1.099792
1284.842, 0.5208130
1285.324, 0.0000000E+00
##END=



