##NAMES=Fluellite
##RRUFFID=R070473
##IDEAL CHEMISTRY=Al_2_(PO_4_)F_2_(OH)&#183;7H_2_O
##LOCALITY=Gold Quarry mine (Maggie claims), Maggie Creek District, Eureka County, Nevada, USA
##OWNER=RRUFF
##SOURCE=Michael Scott
##DESCRIPTION=Colorless to pale green blocky prismatic crystals
##STATUS=The identification of this mineral has been confirmed by single-crystal X-ray diffraction.
##URL=rruff.info/R070473
143.0946, 0.0000000E+00
143.5767, 3.4180000E-02
144.0588, 12.58301
144.5410, 19.67676
145.0231, 55.89160
145.5052, 115.5928
145.9873, 230.8838
146.4694, 412.3604
146.9515, 627.8799
147.4337, 805.3555
147.9158, 920.6221
148.3979, 1013.465
148.8800, 1067.134
149.3621, 1104.324
149.8442, 1153.605
150.3264, 1227.706
150.8085, 1314.413
151.2906, 1379.686
151.7727, 1414.605
152.2548, 1436.173
152.7369, 1453.439
153.2191, 1455.340
153.7012, 1420.473
154.1833, 1336.510
154.6654, 1221.514
155.1475, 1137.196
155.6296, 1094.377
156.1118, 1065.826
156.5939, 1046.618
157.0760, 1038.975
157.5581, 1048.587
158.0402, 1056.365
158.5223, 1131.067
159.0045, 1194.558
159.4866, 1247.365
159.9687, 1254.990
160.4508, 1322.668
160.9329, 1367.229
161.4150, 1411.428
161.8972, 1489.329
162.3793, 1506.768
162.8614, 1585.195
163.3435, 1720.839
163.8256, 1869.630
164.3077, 1981.650
164.7899, 2074.378
165.2720, 2190.597
165.7541, 2354.244
166.2362, 2547.334
166.7183, 2719.244
167.2004, 2865.034
167.6826, 3006.535
168.1647, 3151.972
168.6468, 3301.104
169.1289, 3453.879
169.6110, 3612.188
170.0931, 3773.360
170.5753, 3937.940
171.0574, 4130.585
171.5395, 4284.261
172.0216, 4352.349
172.5037, 4350.827
172.9858, 4337.596
173.4680, 4341.348
173.9501, 4338.602
174.4322, 4288.800
174.9143, 4184.859
175.3964, 4054.482
175.8785, 3894.286
176.3607, 3713.104
176.8428, 3548.464
177.3249, 3409.318
177.8070, 3302.084
178.2891, 3231.306
178.7712, 3205.808
179.2534, 3188.423
179.7355, 3153.726
180.2176, 3105.268
180.6997, 3062.339
181.1818, 3022.881
181.6639, 3002.404
182.1461, 3024.390
182.6282, 3102.265
183.1103, 3172.332
183.5924, 3173.408
184.0745, 3119.175
184.5566, 3104.352
185.0388, 3180.482
185.5209, 3288.921
186.0030, 3357.772
186.4851, 3382.514
186.9672, 3389.727
187.4493, 3385.857
187.9315, 3374.324
188.4136, 3384.385
188.8957, 3441.892
189.3778, 3506.393
189.8599, 3544.787
190.3420, 3546.792
190.8242, 3517.868
191.3063, 3454.392
191.7884, 3370.882
192.2705, 3322.393
192.7526, 3325.013
193.2347, 3345.058
193.7169, 3359.073
194.1990, 3363.108
194.6811, 3373.698
195.1632, 3411.028
195.6453, 3456.935
196.1274, 3505.499
196.6096, 3581.406
197.0917, 3634.703
197.5738, 3631.065
198.0559, 3562.832
198.5380, 3463.634
199.0201, 3361.602
199.5023, 3257.923
199.9844, 3137.706
200.4665, 2987.897
200.9486, 2827.015
201.4307, 2681.876
201.9128, 2552.835
202.3950, 2443.545
202.8771, 2363.124
203.3592, 2305.802
203.8413, 2241.140
204.3234, 2149.055
204.8055, 2076.470
205.2877, 2064.194
205.7698, 2097.330
206.2519, 2125.459
206.7340, 2103.815
207.2161, 2050.341
207.6982, 2040.103
208.1804, 2096.624
208.6625, 2161.533
209.1446, 2203.137
209.6267, 2224.898
210.1088, 2233.986
210.5909, 2224.048
211.0731, 2204.043
211.5552, 2205.421
212.0373, 2244.463
212.5194, 2271.492
213.0015, 2252.031
213.4836, 2203.482
213.9658, 2154.678
214.4479, 2119.792
214.9300, 2092.758
215.4121, 2060.128
215.8942, 2019.859
216.3763, 1979.615
216.8584, 1954.462
217.3406, 1929.496
217.8227, 1880.283
218.3048, 1786.349
218.7869, 1674.822
219.2690, 1595.129
219.7511, 1556.526
220.2333, 1515.853
220.7154, 1446.243
221.1975, 1366.288
221.6796, 1296.723
222.1617, 1245.918
222.6438, 1202.138
223.1260, 1149.394
223.6081, 1086.482
224.0902, 1021.322
224.5723, 954.5098
225.0544, 887.7930
225.5365, 823.1377
226.0187, 761.7393
226.5008, 700.7969
226.9829, 632.9932
227.4650, 557.3369
227.9471, 497.5352
228.4292, 469.1338
228.9114, 455.5439
229.3935, 446.6211
229.8756, 443.6982
230.3577, 428.0547
230.8398, 372.6035
231.3219, 280.6631
231.8041, 207.7646
232.2862, 173.2480
232.7683, 157.8643
233.2504, 146.6416
233.7325, 139.4102
234.2146, 123.7520
234.6968, 84.53320
235.1789, 27.50586
235.6610, 21.37012
236.1431, 63.08203
236.6252, 87.13086
237.1073, 79.06836
237.5895, 43.38477
238.0716, 12.22656
238.5537, 0.5224610
239.0358, 3.162109
239.5179, 21.52637
240.0000, 60.67285
240.4822, 99.93066
240.9643, 125.1299
241.4464, 137.8936
241.9285, 138.8926
242.4106, 118.6172
242.8927, 89.74121
243.3749, 75.47949
243.8570, 79.84082
244.3391, 84.44141
244.8212, 65.86816
245.3033, 37.88086
245.7854, 32.77539
246.2676, 83.89355
246.7497, 144.7500
247.2318, 159.4043
247.7139, 126.1211
248.1960, 90.15723
248.6781, 76.33008
249.1603, 78.02246
249.6424, 78.26074
250.1245, 71.57422
250.6066, 68.44531
251.0887, 85.83691
251.5708, 118.9170
252.0530, 132.9990
252.5351, 107.0674
253.0172, 56.52051
253.4993, 14.89648
253.9814, 16.86230
254.4635, 42.72754
254.9457, 60.43848
255.4278, 73.28613
255.9099, 88.25586
256.3920, 104.4717
256.8741, 129.9258
257.3563, 185.6963
257.8384, 278.8594
258.3205, 358.2861
258.8026, 398.9316
259.2847, 419.3184
259.7668, 445.8926
260.2490, 484.2783
260.7311, 532.2158
261.2132, 588.0488
261.6953, 651.7529
262.1774, 722.8643
262.6595, 803.7725
263.1417, 891.2871
263.6238, 985.4707
264.1059, 1085.995
264.5880, 1184.665
265.0701, 1274.020
265.5522, 1353.478
266.0344, 1432.669
266.5165, 1507.832
266.9986, 1586.077
267.4807, 1674.111
267.9628, 1769.734
268.4449, 1860.647
268.9271, 1931.970
269.4092, 1990.919
269.8913, 2111.743
270.3734, 2320.704
270.8555, 2546.282
271.3376, 2763.473
271.8198, 2981.070
272.3019, 3222.158
272.7840, 3497.929
273.2661, 3795.998
273.7482, 4079.205
274.2303, 4331.221
274.7125, 4588.842
275.1946, 4878.235
275.6767, 5163.130
276.1588, 5416.787
276.6409, 5627.695
277.1230, 5780.742
277.6052, 5854.357
278.0873, 5851.812
278.5694, 5744.563
279.0515, 5507.004
279.5336, 5198.159
280.0157, 4834.451
280.4979, 4432.300
280.9800, 4020.832
281.4621, 3627.290
281.9442, 3246.255
282.4263, 2909.871
282.9084, 2615.112
283.3906, 2366.126
283.8727, 2177.276
284.3548, 2036.888
284.8369, 1921.873
285.3190, 1818.501
285.8011, 1725.711
286.2833, 1638.064
286.7654, 1541.309
287.2475, 1469.687
287.7296, 1435.795
288.2117, 1428.075
288.6938, 1433.538
289.1760, 1446.799
289.6581, 1467.015
290.1402, 1494.617
290.6223, 1536.933
291.1044, 1568.657
291.5865, 1579.974
292.0687, 1583.179
292.5508, 1584.694
293.0329, 1586.430
293.5150, 1590.848
293.9971, 1600.927
294.4792, 1617.566
294.9614, 1639.065
295.4435, 1665.418
295.9256, 1699.108
296.4077, 1747.796
296.8898, 1806.546
297.3719, 1853.766
297.8541, 1871.258
298.3362, 1863.566
298.8183, 1849.511
299.3004, 1827.756
299.7825, 1805.609
300.2646, 1785.256
300.7468, 1768.987
301.2289, 1761.158
301.7110, 1773.496
302.1931, 1786.313
302.6752, 1768.589
303.1573, 1717.804
303.6395, 1670.259
304.1216, 1646.520
304.6037, 1631.907
305.0858, 1601.897
305.5679, 1547.648
306.0500, 1499.542
306.5322, 1480.022
307.0143, 1482.532
307.4964, 1487.139
307.9785, 1489.587
308.4606, 1488.702
308.9427, 1481.746
309.4249, 1468.230
309.9070, 1449.854
310.3891, 1421.557
310.8712, 1392.850
311.3533, 1382.311
311.8354, 1393.532
312.3176, 1398.878
312.7997, 1367.355
313.2818, 1293.111
313.7639, 1229.093
314.2460, 1187.719
314.7281, 1146.963
315.2103, 1088.313
315.6924, 1017.271
316.1745, 952.6514
316.6566, 904.0576
317.1387, 871.2842
317.6208, 851.7422
318.1030, 861.7070
318.5851, 864.6133
319.0672, 850.5830
319.5493, 827.2129
320.0314, 801.0723
320.5135, 775.4922
320.9957, 757.0176
321.4778, 758.0693
321.9599, 792.9600
322.4420, 825.1689
322.9241, 857.1182
323.4063, 885.2324
323.8884, 905.4775
324.3705, 918.4756
324.8526, 929.1123
325.3347, 941.2217
325.8168, 954.6689
326.2990, 974.6152
326.7811, 1025.604
327.2632, 1056.605
327.7453, 1037.422
328.2274, 988.4854
328.7095, 948.3467
329.1917, 939.5283
329.6738, 950.7881
330.1559, 956.2422
330.6380, 956.2334
331.1201, 947.7520
331.6022, 926.7969
332.0844, 898.8057
332.5665, 865.1758
333.0486, 825.7402
333.5307, 790.3818
334.0128, 772.5898
334.4949, 771.0791
334.9771, 736.5195
335.4592, 762.2412
335.9413, 773.7627
336.4234, 771.8506
336.9055, 716.7666
337.3876, 730.2705
337.8698, 716.2393
338.3519, 701.0508
338.8340, 724.1152
339.3161, 676.5996
339.7982, 698.9932
340.2803, 693.4326
340.7624, 700.6191
341.2445, 680.1025
341.7267, 668.0967
342.2088, 683.7383
342.6909, 684.0225
343.1730, 660.1885
343.6551, 667.9873
344.1372, 619.1748
344.6194, 619.9746
345.1015, 642.1631
345.5836, 619.5527
346.0657, 586.1553
346.5478, 551.9717
347.0299, 519.2256
347.5121, 499.5771
347.9942, 494.4062
348.4763, 496.6655
348.9584, 501.2368
349.4405, 511.5264
349.9226, 500.4258
350.4048, 447.0229
350.8869, 397.1025
351.3690, 368.3848
351.8511, 356.5962
352.3332, 350.3325
352.8153, 343.1191
353.2975, 336.6831
353.7796, 338.1265
354.2617, 358.2368
354.7438, 366.8003
355.2259, 354.9609
355.7080, 334.4546
356.1902, 314.5581
356.6723, 297.3521
357.1544, 279.5225
357.6365, 254.5200
358.1186, 221.7241
358.6007, 198.8887
359.0829, 195.4038
359.5650, 192.3413
360.0471, 177.8472
360.5292, 154.7075
361.0113, 131.4619
361.4934, 108.9487
361.9756, 90.25293
362.4577, 84.71143
362.9398, 94.77441
363.4219, 98.19678
363.9040, 80.17578
364.3861, 49.82275
364.8683, 24.93213
365.3504, 7.735840
365.8325, 7.387695
366.3146, 28.21094
366.7967, 48.83789
367.2788, 51.83936
367.7610, 30.07617
368.2431, 2.852051
368.7252, 4.904785
369.2073, 11.47607
369.6894, 19.46680
370.1715, 7.116211
370.6537, 6.598633
371.1358, 8.548828
371.6179, 0.6879880
372.1000, 15.97949
372.5821, 36.71191
373.0642, 61.73145
373.5464, 72.70850
374.0285, 56.27295
374.5106, 39.81445
374.9927, 24.44971
375.4748, 11.03320
375.9569, 0.5932620
376.4391, 10.18506
376.9212, 15.78516
377.4033, 11.72705
377.8854, 8.419922
378.3675, 14.47852
378.8496, 12.32080
379.3318, 37.01758
379.8139, 43.88623
380.2960, 36.75146
380.7781, 28.38965
381.2602, 26.05176
381.7423, 27.03369
382.2245, 26.01367
382.7066, 23.27148
383.1887, 14.80322
383.6708, 25.48975
384.1529, 32.14355
384.6350, 34.81836
385.1172, 19.01270
385.5993, 28.91455
386.0814, 29.95752
386.5635, 32.03174
387.0456, 49.35938
387.5277, 42.08008
388.0099, 61.14502
388.4920, 71.54932
388.9741, 81.30615
389.4562, 100.7354
389.9383, 135.2603
390.4204, 167.3418
390.9026, 181.4722
391.3847, 180.8901
391.8668, 177.9429
392.3489, 177.7144
392.8310, 183.2466
393.3131, 205.1333
393.7953, 269.0142
394.2774, 316.0439
394.7595, 338.4487
395.2416, 346.0381
395.7237, 341.2231
396.2058, 328.0083
396.6880, 319.8564
397.1701, 333.1304
397.6522, 370.1929
398.1343, 400.2539
398.6164, 409.6260
399.0985, 427.3735
399.5807, 472.4907
400.0628, 529.0649
400.5449, 571.4712
401.0270, 587.0347
401.5091, 588.2378
401.9912, 596.0835
402.4734, 612.0391
402.9555, 620.8652
403.4376, 599.0933
403.9197, 587.6406
404.4018, 630.2705
404.8839, 725.5244
405.3661, 814.6938
405.8482, 866.7793
406.3303, 895.7285
406.8124, 924.2988
407.2945, 954.3262
407.7766, 978.1841
408.2588, 988.0444
408.7409, 987.5830
409.2230, 995.1182
409.7051, 1021.499
410.1872, 1042.564
410.6693, 1066.907
411.1515, 1075.791
411.6336, 1028.489
412.1157, 914.2729
412.5978, 781.0127
413.0799, 695.6074
413.5620, 672.9688
414.0442, 644.1348
414.5263, 611.9438
415.0084, 572.0630
415.4905, 516.0161
415.9726, 451.1904
416.4547, 390.6787
416.9369, 341.3198
417.4190, 303.2485
417.9011, 278.9863
418.3832, 275.4800
418.8653, 266.9062
419.3474, 238.1162
419.8296, 212.0879
420.3117, 208.4136
420.7938, 225.1733
421.2759, 234.6035
421.7580, 206.2251
422.2401, 156.1968
422.7223, 136.1484
423.2044, 155.9810
423.6865, 173.5981
424.1686, 155.2319
424.6507, 114.7031
425.1328, 92.89258
425.6150, 110.0674
426.0971, 125.7749
426.5792, 114.6162
427.0613, 85.88525
427.5434, 57.83398
428.0255, 36.34814
428.5077, 20.85986
428.9898, 6.624512
429.4719, 9.782227
429.9540, 11.10791
430.4361, 12.90234
430.9182, 38.90283
431.4004, 61.72559
431.8825, 80.02441
432.3646, 88.88721
432.8467, 84.74316
433.3288, 73.35693
433.8109, 70.13086
434.2931, 79.33203
434.7752, 84.27100
435.2573, 79.23438
435.7394, 70.83252
436.2215, 65.23193
436.7036, 63.49121
437.1858, 58.71875
437.6679, 42.07910
438.1500, 19.12646
438.6321, 7.508789
439.1142, 10.00439
439.5963, 10.15820
440.0785, 4.542969
440.5606, 25.62695
441.0427, 35.59619
441.5248, 30.20459
442.0069, 20.92236
442.4890, 10.10107
442.9712, 2.9300000E-03
443.4533, 5.319336
443.9354, 4.927246
444.4175, 5.979004
444.8996, 16.83984
445.3817, 37.88867
445.8639, 52.37988
446.3460, 55.84863
446.8281, 58.35840
447.3102, 56.24023
447.7923, 57.48242
448.2744, 75.97705
448.7566, 116.4956
449.2387, 163.3276
449.7208, 191.1802
450.2029, 195.4629
450.6850, 202.9507
451.1671, 212.2075
451.6493, 228.6968
452.1314, 257.1108
452.6135, 294.6050
453.0956, 334.0615
453.5777, 372.3110
454.0598, 410.7783
454.5420, 455.2285
455.0241, 504.9302
455.5062, 541.5195
455.9883, 553.1396
456.4704, 555.8516
456.9525, 573.1094
457.4347, 603.7603
457.9168, 646.7017
458.3989, 706.1538
458.8810, 774.4277
459.3631, 849.0723
459.8452, 927.0674
460.3274, 1001.980
460.8095, 1069.648
461.2916, 1130.040
461.7737, 1180.793
462.2558, 1217.593
462.7379, 1250.210
463.2201, 1284.201
463.7022, 1310.992
464.1843, 1331.343
464.6664, 1340.570
465.1485, 1321.749
465.6306, 1251.756
466.1128, 1141.339
466.5949, 1045.076
467.0770, 970.2119
467.5591, 892.1367
468.0412, 791.4966
468.5233, 685.8936
469.0055, 595.3647
469.4876, 524.2217
469.9697, 462.7227
470.4518, 406.6040
470.9339, 356.1538
471.4160, 311.4595
471.8982, 272.5298
472.3803, 240.1699
472.8624, 218.6099
473.3445, 206.2651
473.8266, 174.4038
474.3087, 93.59863
474.7909, 31.96240
475.2730, 23.82910
475.7551, 35.71436
476.2372, 23.13135
476.7193, 23.30908
477.2014, 74.06787
477.6836, 90.84033
478.1657, 70.54980
478.6478, 61.80078
479.1299, 73.23877
479.6120, 85.02441
480.0941, 89.66797
480.5763, 89.93213
481.0584, 89.94922
481.5405, 91.68555
482.0226, 91.19434
482.5047, 81.37549
482.9868, 65.61230
483.4690, 61.25244
483.9511, 76.52344
484.4332, 85.63428
484.9153, 58.66943
485.3974, 3.566895
485.8795, 45.45264
486.3617, 45.64404
486.8438, 47.60156
487.3259, 76.67676
487.8080, 120.0220
488.2901, 151.4199
488.7722, 161.9312
489.2544, 172.5942
489.7365, 217.0244
490.2186, 305.8696
490.7007, 378.0698
491.1828, 419.1406
491.6649, 457.6099
492.1471, 502.7217
492.6292, 551.8647
493.1113, 596.3613
493.5934, 629.0913
494.0755, 671.4800
494.5576, 760.1362
495.0398, 888.5894
495.5219, 995.0942
496.0040, 1059.583
496.4861, 1115.535
496.9682, 1193.226
497.4503, 1291.292
497.9325, 1395.859
498.4146, 1515.815
498.8967, 1632.175
499.3788, 1729.788
499.8609, 1818.331
500.3430, 1914.700
500.8252, 2024.896
501.3073, 2144.663
501.7894, 2267.706
502.2715, 2391.459
502.7536, 2527.199
503.2357, 2682.107
503.7179, 2841.178
504.2000, 3001.414
504.6821, 3161.648
505.1642, 3321.814
505.6463, 3483.240
506.1284, 3638.177
506.6106, 3768.982
507.0927, 3879.651
507.5748, 4016.881
508.0569, 4195.605
508.5390, 4386.489
509.0211, 4556.707
509.5033, 4714.830
509.9854, 4905.294
510.4675, 5160.773
510.9496, 5420.544
511.4317, 5651.760
511.9138, 5867.420
512.3960, 6092.336
512.8781, 6333.002
513.3602, 6575.649
513.8423, 6797.609
514.3245, 6994.652
514.8066, 7208.844
515.2887, 7446.981
515.7708, 7696.138
516.2529, 7950.951
516.7350, 8215.115
517.2172, 8503.818
517.6993, 8822.107
518.1814, 9132.915
518.6635, 9390.347
519.1456, 9602.968
519.6277, 9814.079
520.1099, 10030.03
520.5920, 10237.74
521.0741, 10438.61
521.5562, 10622.36
522.0383, 10757.46
522.5204, 10849.14
523.0026, 10884.71
523.4847, 10850.70
523.9668, 10762.61
524.4489, 10641.06
524.9310, 10488.83
525.4131, 10292.85
525.8953, 10039.42
526.3774, 9729.748
526.8595, 9383.960
527.3416, 8992.213
527.8237, 8577.612
528.3058, 8129.574
528.7880, 7672.353
529.2701, 7223.597
529.7522, 6787.885
530.2343, 6370.191
530.7164, 5972.901
531.1985, 5595.390
531.6807, 5232.644
532.1628, 4885.247
532.6449, 4550.014
533.1270, 4223.260
533.6091, 3908.793
534.0912, 3626.403
534.5734, 3373.351
535.0555, 3148.255
535.5376, 2976.444
536.0197, 2816.124
536.5018, 2627.608
536.9839, 2416.958
537.4661, 2220.419
537.9482, 2061.346
538.4303, 1930.240
538.9124, 1800.077
539.3945, 1667.117
539.8766, 1548.311
540.3588, 1442.824
540.8409, 1358.518
541.3230, 1311.017
541.8051, 1291.408
542.2872, 1254.672
542.7693, 1169.290
543.2515, 1076.103
543.7336, 1009.210
544.2157, 963.5244
544.6978, 923.2744
545.1799, 883.7339
545.6620, 840.1606
546.1442, 782.8877
546.6263, 680.5981
547.1084, 705.3657
547.5905, 716.1304
548.0726, 713.6484
548.5547, 658.0781
549.0369, 671.1787
549.5190, 656.8394
550.0011, 641.4214
550.4832, 664.3442
550.9653, 616.7729
551.4474, 639.1953
551.9296, 633.7490
552.4117, 641.1372
552.8938, 620.9092
553.3759, 609.2827
553.8580, 625.3926
554.3401, 626.2368
554.8223, 603.0522
555.3044, 611.5986
555.7865, 563.6284
556.2686, 565.3740
556.7507, 588.6123
557.2328, 547.9331
557.7150, 535.4033
558.1971, 531.0166
558.6792, 533.7529
559.1613, 539.3076
559.6434, 548.2612
560.1255, 559.0864
560.6077, 580.6328
561.0898, 597.1660
561.5719, 594.5625
562.0540, 576.0889
562.5361, 560.4395
563.0182, 554.6860
563.5004, 556.5913
563.9825, 565.0435
564.4646, 580.4629
564.9467, 603.0933
565.4288, 632.9248
565.9109, 665.4175
566.3931, 695.6621
566.8752, 723.7544
567.3573, 744.9824
567.8394, 749.7617
568.3215, 762.2012
568.8036, 788.9644
569.2858, 827.8965
569.7679, 880.5801
570.2500, 946.8530
570.7321, 1012.661
571.2142, 1056.394
571.6964, 1082.818
572.1785, 1124.985
572.6606, 1187.638
573.1427, 1258.479
573.6248, 1333.429
574.1069, 1411.192
574.5891, 1490.357
575.0712, 1575.312
575.5533, 1651.224
576.0354, 1710.462
576.5175, 1762.542
576.9996, 1810.739
577.4818, 1858.770
577.9639, 1914.899
578.4460, 1984.352
578.9281, 2063.298
579.4102, 2142.023
579.8923, 2218.938
580.3745, 2305.898
580.8566, 2422.497
581.3387, 2527.394
581.8208, 2583.909
582.3029, 2608.928
582.7850, 2649.504
583.2672, 2728.116
583.7493, 2811.192
584.2314, 2887.398
584.7135, 2948.944
585.1956, 2977.711
585.6777, 2970.745
586.1598, 2939.585
586.6419, 2891.319
587.1240, 2828.396
587.6061, 2779.418
588.0883, 2757.805
588.5704, 2729.744
589.0525, 2693.544
589.5346, 2647.358
590.0167, 2582.787
590.4988, 2503.647
590.9810, 2432.172
591.4631, 2390.322
591.9452, 2358.265
592.4273, 2306.000
592.9094, 2235.693
593.3915, 2165.540
593.8737, 2104.099
594.3558, 2036.086
594.8379, 1938.734
595.3200, 1802.473
595.8021, 1688.610
596.2842, 1603.151
596.7664, 1529.582
597.2485, 1467.205
597.7306, 1410.886
598.2127, 1357.190
598.6948, 1304.499
599.1769, 1248.500
599.6591, 1181.146
600.1412, 1106.919
600.6233, 1041.316
601.1054, 985.3052
601.5875, 933.5635
602.0696, 883.4355
602.5518, 836.7095
603.0339, 798.2207
603.5160, 772.6929
603.9981, 736.6094
604.4802, 683.8159
604.9623, 623.8506
605.4445, 549.4170
605.9266, 474.6475
606.4087, 428.6582
606.8908, 423.4380
607.3729, 429.3218
607.8550, 402.9233
608.3372, 345.1133
608.8193, 294.3711
609.3014, 252.3501
609.7835, 217.8872
610.2656, 189.8247
610.7477, 169.6079
611.2299, 161.5352
611.7120, 173.1050
612.1941, 176.0869
612.6762, 162.2954
613.1583, 136.4219
613.6404, 91.77344
614.1226, 38.14746
614.6047, 4.051758
615.0868, 5.820801
615.5689, 25.58594
616.0510, 25.95752
616.5331, 2.475098
617.0153, 6.663086
617.4974, 12.69824
617.9795, 28.81494
618.4616, 19.68994
618.9437, 2.318848
619.4258, 21.60938
619.9080, 39.93164
620.3901, 53.29199
620.8722, 51.74365
621.3543, 48.52588
621.8364, 67.90771
622.3185, 106.4102
622.8007, 135.9028
623.2828, 138.3921
623.7649, 119.1309
624.2470, 89.35254
624.7291, 41.03076
625.2112, 12.03906
625.6934, 20.39258
626.1755, 33.07324
626.6576, 28.49316
627.1397, 14.77734
627.6218, 12.02881
628.1039, 33.31445
628.5861, 48.37158
629.0682, 29.04102
629.5503, 5.818848
630.0324, 20.07471
630.5145, 12.14453
630.9966, 12.46387
631.4788, 45.25195
631.9609, 95.80566
632.4430, 110.6934
632.9251, 69.38379
633.4072, 47.93311
633.8893, 72.97559
634.3715, 102.5322
634.8536, 113.0674
635.3357, 110.2422
635.8178, 107.8750
636.2999, 104.7798
636.7820, 111.4365
637.2642, 139.2983
637.7463, 180.0708
638.2284, 228.5039
638.7105, 279.8398
639.1926, 310.2842
639.6747, 300.2222
640.1569, 260.5132
640.6390, 230.2808
641.1211, 212.2446
641.6032, 196.5889
642.0853, 168.5249
642.5674, 156.1055
643.0496, 189.8872
643.5317, 251.1006
644.0138, 289.4023
644.4959, 281.4668
644.9780, 265.2417
645.4601, 269.6753
645.9423, 280.9551
646.4244, 272.7354
646.9065, 243.9102
647.3886, 218.1128
647.8707, 213.2759
648.3528, 221.3779
648.8350, 211.4390
649.3171, 167.9937
649.7992, 148.8687
650.2813, 181.2197
650.7634, 217.3345
651.2455, 228.6875
651.7277, 223.3428
652.2098, 224.2729
652.6919, 246.0332
653.1740, 257.7280
653.6561, 221.2607
654.1382, 172.3843
654.6204, 169.5679
655.1025, 213.0708
655.5846, 260.0239
656.0667, 283.4961
656.5488, 288.0596
657.0309, 285.6421
657.5131, 274.9805
657.9952, 263.4907
658.4773, 247.7412
658.9594, 235.6436
659.4415, 236.0933
659.9236, 242.6406
660.4058, 240.4326
660.8879, 221.6240
661.3700, 205.1802
661.8521, 203.3569
662.3342, 207.9990
662.8163, 209.8809
663.2985, 208.6880
663.7806, 208.4922
664.2627, 211.8311
664.7448, 216.4517
665.2269, 219.4868
665.7090, 222.1221
666.1912, 210.1387
666.6733, 170.1909
667.1554, 137.8096
667.6375, 140.0083
668.1196, 160.5864
668.6017, 173.2217
669.0839, 175.5981
669.5660, 171.9985
670.0481, 161.0156
670.5302, 146.6470
671.0123, 130.2368
671.4944, 113.9019
671.9766, 101.4795
672.4587, 94.66455
672.9408, 89.66211
673.4229, 79.25146
673.9050, 63.96240
674.3871, 62.93262
674.8693, 84.87842
675.3514, 91.84717
675.8335, 49.35791
676.3156, 7.458984
676.7977, 5.725098
677.2798, 71.45508
677.7620, 117.0498
678.2441, 90.15723
678.7262, 56.63818
679.2083, 55.71973
679.6904, 70.73730
680.1725, 71.99365
680.6547, 51.55078
681.1368, 25.26270
681.6189, 7.312012
682.1010, 2.831055
682.5831, 9.551758
683.0652, 14.22559
683.5474, 11.65771
684.0295, 1.695801
684.5116, 21.00879
684.9937, 42.93506
685.4758, 70.46045
685.9579, 72.15723
686.4401, 17.17529
686.9222, 21.97168
687.4043, 14.03662
687.8864, 10.42432
688.3685, 20.67871
688.8506, 14.29688
689.3328, 9.871094
689.8149, 22.52783
690.2970, 39.69141
690.7791, 45.09473
691.2612, 40.31641
691.7433, 28.01660
692.2255, 8.276367
692.7076, 5.897949
693.1897, 0.7216800
693.6718, 21.53418
694.1539, 36.18018
694.6360, 34.76709
695.1182, 38.67627
695.6003, 53.59229
696.0824, 71.91357
696.5645, 93.76025
697.0466, 115.2407
697.5287, 125.8359
698.0109, 120.4468
698.4930, 106.5884
698.9751, 78.10791
699.4572, 51.26953
699.9393, 56.03320
700.4214, 87.07959
700.9036, 108.8701
701.3857, 99.11084
701.8678, 70.65137
702.3499, 50.41553
702.8320, 38.47998
703.3141, 34.85010
703.7963, 42.01904
704.2784, 53.22607
704.7605, 70.21777
705.2426, 86.81982
705.7247, 90.12939
706.2068, 74.95068
706.6890, 62.38477
707.1711, 58.78760
707.6532, 58.74512
708.1353, 54.31250
708.6174, 51.17920
709.0995, 63.88330
709.5817, 96.61719
710.0638, 131.7056
710.5459, 149.3394
711.0280, 153.2100
711.5101, 160.0728
711.9922, 170.6182
712.4744, 165.2212
712.9565, 130.5239
713.4386, 91.87744
713.9207, 84.44385
714.4028, 113.3457
714.8849, 128.2461
715.3671, 117.5854
715.8492, 109.2456
716.3313, 116.9995
716.8134, 127.2871
717.2955, 123.7383
717.7776, 106.0801
718.2598, 104.6099
718.7419, 146.4312
719.2240, 192.6045
719.7061, 206.8970
720.1882, 197.9053
720.6703, 196.1333
721.1525, 205.5303
721.6346, 213.7363
722.1167, 208.1357
722.5988, 195.2729
723.0809, 207.0957
723.5630, 257.5605
724.0452, 280.9058
724.5273, 257.0723
725.0094, 228.6338
725.4915, 226.3950
725.9736, 238.8994
726.4557, 237.4639
726.9379, 213.0425
727.4200, 199.0293
727.9021, 211.8833
728.3842, 225.1655
728.8663, 213.6865
729.3484, 185.5771
729.8306, 169.9590
730.3127, 175.1074
730.7948, 188.2085
731.2769, 199.1138
731.7590, 206.7231
732.2411, 214.4429
732.7233, 222.8081
733.2054, 224.2061
733.6875, 214.2007
734.1696, 199.1035
734.6517, 197.5537
735.1339, 213.7490
735.6160, 219.0361
736.0981, 198.3701
736.5802, 184.9453
737.0623, 187.8921
737.5444, 198.7646
738.0266, 216.8213
738.5087, 237.1299
738.9908, 243.6631
739.4729, 221.1743
739.9550, 197.8052
740.4371, 193.6650
740.9193, 201.5776
741.4014, 218.4912
741.8835, 239.5244
742.3656, 245.0840
742.8477, 221.8740
743.3298, 183.8438
743.8120, 154.2617
744.2941, 131.4502
744.7762, 123.4390
745.2583, 140.3901
745.7404, 152.7891
746.2225, 137.0000
746.7047, 110.4990
747.1868, 111.8203
747.6689, 154.0806
748.1510, 179.1558
748.6331, 176.8950
749.1152, 165.4429
749.5974, 146.7905
750.0795, 125.1616
750.5616, 100.4146
751.0437, 76.37891
751.5258, 70.02832
752.0079, 107.4141
752.4901, 152.7358
752.9722, 161.0137
753.4543, 143.4097
753.9364, 127.8696
754.4185, 120.4878
754.9006, 113.7378
755.3828, 101.8936
755.8649, 84.88623
756.3470, 58.78809
756.8291, 16.22900
757.3112, 1.696289
757.7933, 21.94043
758.2755, 52.33838
758.7576, 68.85645
759.2397, 74.85107
759.7218, 79.82373
760.2039, 84.35400
760.6860, 86.54102
761.1682, 86.87793
761.6503, 84.87158
762.1324, 78.64111
762.6145, 70.55029
763.0966, 64.14795
763.5787, 59.94678
764.0609, 55.04639
764.5430, 45.84277
765.0251, 35.98145
765.5072, 31.65967
765.9893, 31.62061
766.4714, 31.82178
766.9536, 31.64844
767.4357, 30.98828
767.9178, 28.99707
768.3999, 25.84229
768.8820, 23.99561
769.3641, 24.42871
769.8463, 22.95410
770.3284, 17.83447
770.8105, 11.79297
771.2926, 7.888672
771.7747, 4.528320
772.2568, 4.118652
772.7390, 51.73779
773.2211, 22.60303
773.7032, 7.561035
774.1853, 5.564941
774.6674, 56.40576
775.1495, 38.62305
775.6317, 48.56689
776.1138, 59.59961
776.5959, 31.56201
777.0780, 73.46777
777.5601, 45.23584
778.0422, 44.87744
778.5244, 31.63770
779.0065, 45.85791
779.4886, 51.34424
779.9707, 29.08203
780.4528, 22.11621
780.9349, 38.98975
781.4171, 23.79736
781.8992, 64.93604
782.3813, 56.40186
782.8634, 26.43262
783.3455, 41.08740
783.8276, 24.76367
784.3098, 20.01123
784.7919, 68.54053
785.2740, 24.40918
785.7561, 20.08008
786.2382, 56.62207
786.7203, 15.08203
787.2025, 46.03467
787.6846, 51.22461
788.1667, 36.75195
788.6488, 42.22070
789.1309, 15.44824
789.6130, 19.19727
790.0952, 25.45020
790.5773, 19.46338
791.0594, 47.29443
791.5415, 11.94824
792.0236, 19.59668
792.5057, 5.615723
792.9879, 13.54980
793.4700, 4.238281
793.9521, 17.35352
794.4342, 22.02393
794.9163, 10.09570
795.3984, 3.379883
795.8806, 36.30322
796.3627, 29.87305
796.8448, 27.72461
797.3269, 36.84863
797.8090, 66.30127
798.2911, 77.59131
798.7733, 51.94482
799.2554, 32.08643
799.7375, 37.55127
800.2196, 50.83887
800.7017, 50.74170
801.1838, 37.30469
801.6660, 31.37891
802.1481, 51.62402
802.6302, 70.56348
803.1123, 67.02344
803.5944, 53.96484
804.0765, 46.49561
804.5587, 46.55469
805.0408, 51.51416
805.5229, 60.03662
806.0050, 73.19824
806.4871, 97.31641
806.9692, 127.9521
807.4514, 144.9932
807.9335, 147.4424
808.4156, 149.8599
808.8977, 158.8516
809.3798, 167.6050
809.8619, 166.2490
810.3441, 153.9224
810.8262, 147.5903
811.3083, 148.4453
811.7904, 153.0259
812.2725, 164.8188
812.7546, 175.8457
813.2368, 174.2964
813.7189, 165.7949
814.2010, 172.5093
814.6831, 210.4414
815.1652, 236.6470
815.6473, 237.7217
816.1295, 232.5552
816.6116, 223.2285
817.0937, 219.1890
817.5758, 241.5337
818.0579, 295.6694
818.5400, 341.0063
819.0222, 340.9102
819.5043, 322.1904
819.9864, 307.9883
820.4685, 302.8604
820.9506, 322.5054
821.4327, 366.4658
821.9149, 404.3413
822.3970, 409.9316
822.8791, 396.4717
823.3612, 397.4624
823.8433, 412.5137
824.3254, 420.6577
824.8076, 417.8760
825.2897, 419.0508
825.7718, 433.5781
826.2539, 455.3062
826.7360, 472.6743
827.2181, 485.1826
827.7003, 496.2861
828.1824, 512.3584
828.6645, 516.9341
829.1466, 492.1753
829.6287, 464.3936
830.1108, 452.6562
830.5930, 455.2012
831.0751, 474.8193
831.5572, 526.7480
832.0393, 571.0811
832.5214, 590.4458
833.0035, 600.3354
833.4857, 607.1558
833.9678, 610.7759
834.4499, 607.9785
834.9320, 592.1826
835.4141, 585.0874
835.8962, 609.8682
836.3784, 643.3052
836.8605, 647.5322
837.3426, 632.1519
837.8247, 627.0679
838.3068, 638.2461
838.7889, 650.7617
839.2711, 654.6421
839.7532, 649.9487
840.2353, 641.1338
840.7174, 630.2671
841.1995, 646.6934
841.6816, 700.1509
842.1638, 748.2598
842.6459, 764.0972
843.1280, 762.2622
843.6101, 758.8828
844.0922, 749.0435
844.5743, 758.7788
845.0565, 807.7427
845.5386, 834.2246
846.0207, 798.2520
846.5028, 751.2876
846.9849, 737.8325
847.4670, 755.7480
847.9492, 798.7124
848.4313, 910.8188
848.9134, 984.4751
849.3955, 978.6294
849.8776, 950.1079
850.3597, 933.2759
850.8419, 926.1665
851.3240, 915.8901
851.8061, 898.7119
852.2882, 894.4629
852.7703, 931.4082
853.2524, 973.0244
853.7346, 983.2402
854.2167, 973.8384
854.6988, 964.0869
855.1809, 959.2969
855.6630, 961.6138
856.1451, 975.1260
856.6273, 988.0371
857.1094, 970.0015
857.5915, 935.4893
858.0736, 947.2959
858.5557, 1006.405
859.0378, 1050.017
859.5200, 1048.668
860.0021, 1027.348
860.4842, 1022.403
860.9663, 1031.571
861.4484, 1012.573
861.9305, 954.4976
862.4127, 921.7109
862.8948, 933.2573
863.3769, 963.9854
863.8590, 1001.742
864.3411, 1040.230
864.8232, 1054.712
865.3054, 1033.083
865.7875, 1011.721
866.2696, 982.9146
866.7517, 963.5620
867.2338, 962.4819
867.7159, 972.5352
868.1981, 990.3770
868.6802, 1014.949
869.1623, 1025.911
869.6444, 998.7051
870.1265, 983.2227
870.6086, 1009.624
871.0908, 1045.378
871.5729, 1065.615
872.0550, 1069.753
872.5371, 1062.317
873.0192, 1043.133
873.5013, 1026.456
873.9835, 1021.911
874.4656, 1024.913
874.9477, 1037.123
875.4298, 1050.919
875.9119, 1047.075
876.3940, 1024.827
876.8762, 1008.425
877.3583, 1016.612
877.8404, 1038.898
878.3225, 1066.353
878.8046, 1092.942
879.2867, 1093.270
879.7689, 1067.649
880.2510, 1046.044
880.7331, 1042.856
881.2152, 1046.045
881.6973, 1035.589
882.1794, 1015.236
882.6616, 1025.346
883.1437, 1070.224
883.6258, 1107.794
884.1079, 1130.517
884.5900, 1136.328
885.0721, 1116.862
885.5543, 1085.425
886.0364, 1087.421
886.5185, 1143.258
887.0006, 1172.750
887.4827, 1155.275
887.9648, 1145.674
888.4470, 1169.234
888.9291, 1206.611
889.4112, 1236.396
889.8933, 1258.906
890.3754, 1280.997
890.8575, 1297.405
891.3397, 1321.413
891.8218, 1368.592
892.3039, 1410.745
892.7860, 1419.994
893.2681, 1414.876
893.7502, 1433.597
894.2324, 1486.081
894.7145, 1530.039
895.1966, 1540.287
895.6787, 1548.739
896.1608, 1576.692
896.6429, 1611.846
897.1251, 1639.161
897.6072, 1658.129
898.0893, 1673.575
898.5714, 1683.013
899.0535, 1706.940
899.5356, 1774.325
900.0178, 1857.113
900.4999, 1929.563
900.9820, 1985.185
901.4641, 2006.961
901.9462, 1995.183
902.4283, 1989.390
902.9105, 2026.910
903.3926, 2082.195
903.8747, 2109.017
904.3568, 2116.724
904.8389, 2132.757
905.3210, 2160.905
905.8032, 2203.235
906.2853, 2261.695
906.7674, 2319.759
907.2495, 2351.019
907.7316, 2361.793
908.2137, 2394.474
908.6959, 2450.296
909.1780, 2488.574
909.6601, 2495.884
910.1422, 2505.278
910.6243, 2545.325
911.1064, 2601.573
911.5886, 2636.053
912.0707, 2644.940
912.5528, 2647.748
913.0349, 2640.729
913.5170, 2644.592
913.9991, 2678.547
914.4813, 2708.170
914.9634, 2694.821
915.4455, 2641.309
915.9276, 2586.502
916.4097, 2518.110
916.8918, 2477.151
917.3740, 2489.277
917.8561, 2505.383
918.3382, 2511.671
918.8203, 2501.177
919.3024, 2456.413
919.7845, 2373.765
920.2667, 2308.405
920.7488, 2277.551
921.2309, 2245.890
921.7130, 2214.931
922.1951, 2171.452
922.6772, 2089.906
923.1594, 1993.321
923.6415, 1935.997
924.1236, 1938.556
924.6057, 1922.211
925.0878, 1837.805
925.5699, 1754.958
926.0521, 1713.640
926.5342, 1690.026
927.0163, 1660.405
927.4984, 1621.720
927.9805, 1576.594
928.4626, 1523.940
928.9448, 1476.644
929.4269, 1444.462
929.9090, 1418.826
930.3911, 1399.959
930.8732, 1378.593
931.3553, 1339.455
931.8375, 1279.903
932.3196, 1208.899
932.8017, 1122.369
933.2838, 1048.640
933.7659, 1028.292
934.2480, 1031.752
934.7302, 1015.905
935.2123, 982.5171
935.6944, 952.2397
936.1765, 931.4458
936.6586, 905.2695
937.1407, 851.9858
937.6229, 793.7817
938.1050, 781.5596
938.5871, 793.1250
939.0692, 756.8345
939.5513, 674.5596
940.0334, 618.9316
940.5156, 626.6714
940.9977, 656.4956
941.4798, 661.0698
941.9619, 642.2212
942.4440, 596.7446
942.9261, 530.5391
943.4083, 485.4287
943.8904, 469.6025
944.3725, 459.7773
944.8546, 440.6450
945.3367, 417.3306
945.8188, 399.5303
946.3010, 386.7925
946.7831, 374.1982
947.2652, 361.7275
947.7473, 350.7100
948.2294, 342.0859
948.7115, 330.6973
949.1937, 311.5776
949.6758, 287.2017
950.1579, 262.5308
950.6400, 236.2461
951.1221, 229.2095
951.6042, 248.8628
952.0864, 251.9697
952.5685, 217.6050
953.0506, 174.8394
953.5327, 154.3604
954.0148, 153.1421
954.4969, 154.0308
954.9791, 158.7358
955.4612, 158.8330
955.9433, 153.3369
956.4254, 143.6509
956.9075, 128.6440
957.3896, 112.2500
957.8718, 99.12012
958.3539, 89.32373
958.8360, 86.59717
959.3181, 97.43896
959.8002, 99.75195
960.2823, 83.83203
960.7645, 71.36914
961.2466, 81.51855
961.7287, 96.52344
962.2108, 82.90381
962.6929, 35.54150
963.1750, 6.558105
963.6572, 2.296875
964.1393, 6.534668
964.6214, 31.82715
965.1035, 48.79834
965.5856, 30.90723
966.0677, 5.709961
966.5499, 24.75635
967.0320, 18.67432
967.5141, 28.76074
967.9962, 80.85205
968.4783, 115.2905
968.9604, 107.3286
969.4426, 88.52881
969.9247, 74.83252
970.4068, 69.18018
970.8889, 79.61621
971.3710, 113.6177
971.8531, 139.3125
972.3353, 165.5376
972.8174, 167.1582
973.2995, 103.6211
973.7816, 38.79346
974.2637, 35.50293
974.7458, 78.52490
975.2280, 110.1929
975.7101, 122.1992
976.1922, 122.5679
976.6743, 103.6895
977.1564, 84.52002
977.6385, 75.11719
978.1207, 67.97412
978.6028, 55.97656
979.0849, 38.93018
979.5670, 17.81152
980.0491, 13.99658
980.5313, 33.25000
981.0134, 32.01758
981.4955, 18.46777
981.9776, 18.00049
982.4597, 54.36572
982.9418, 60.48877
983.4240, 39.49219
983.9061, 21.57910
984.3882, 18.76221
984.8703, 11.60205
985.3524, 13.90039
985.8345, 37.79395
986.3167, 48.77490
986.7988, 49.82031
987.2809, 43.16211
987.7630, 30.62646
988.2451, 18.29297
988.7272, 1.770996
989.2094, 2.192871
989.6915, 20.36865
990.1736, 50.31104
990.6557, 82.13672
991.1378, 108.2563
991.6199, 115.1123
992.1021, 104.3853
992.5842, 100.0444
993.0663, 118.1279
993.5484, 131.6147
994.0305, 117.8516
994.5126, 105.4668
994.9948, 121.5171
995.4769, 151.0630
995.9590, 170.1499
996.4411, 175.4072
996.9232, 177.4951
997.4053, 175.1455
997.8875, 179.3579
998.3696, 200.5933
998.8517, 225.3696
999.3338, 242.7217
999.8159, 256.2446
1000.298, 272.2656
1000.780, 292.0449
1001.262, 315.1191
1001.744, 343.5332
1002.227, 371.6665
1002.709, 402.1094
1003.191, 426.0854
1003.673, 426.0615
1004.155, 419.1143
1004.637, 436.7446
1005.119, 481.9116
1005.601, 523.5527
1006.083, 548.9409
1006.566, 568.2358
1007.048, 574.0757
1007.530, 587.6260
1008.012, 634.1729
1008.494, 697.0381
1008.976, 749.5112
1009.458, 786.6670
1009.940, 816.2632
1010.422, 827.9824
1010.905, 852.3945
1011.387, 914.8184
1011.869, 984.4194
1012.351, 1038.350
1012.833, 1081.940
1013.315, 1126.047
1013.797, 1172.413
1014.279, 1219.014
1014.762, 1254.868
1015.244, 1305.807
1015.726, 1407.326
1016.208, 1503.723
1016.690, 1532.724
1017.172, 1538.665
1017.654, 1599.137
1018.136, 1719.691
1018.618, 1827.745
1019.101, 1877.654
1019.583, 1944.540
1020.065, 2073.007
1020.547, 2209.184
1021.029, 2317.230
1021.511, 2408.039
1021.993, 2488.035
1022.475, 2564.098
1022.958, 2681.562
1023.440, 2885.784
1023.922, 3080.393
1024.404, 3227.640
1024.886, 3369.590
1025.368, 3517.957
1025.850, 3680.778
1026.332, 3878.850
1026.814, 4111.878
1027.297, 4343.789
1027.779, 4558.994
1028.261, 4788.089
1028.743, 5047.654
1029.225, 5308.032
1029.707, 5542.991
1030.189, 5779.225
1030.671, 6065.590
1031.154, 6396.486
1031.636, 6682.456
1032.118, 6875.875
1032.600, 7073.666
1033.082, 7295.174
1033.564, 7516.298
1034.046, 7743.953
1034.528, 7954.777
1035.010, 8135.864
1035.493, 8280.483
1035.975, 8364.009
1036.457, 8365.413
1036.939, 8343.843
1037.421, 8315.764
1037.903, 8248.045
1038.385, 8146.609
1038.867, 7983.444
1039.349, 7704.026
1039.832, 7336.108
1040.314, 7005.479
1040.796, 6737.828
1041.278, 6452.301
1041.760, 6142.465
1042.242, 5821.298
1042.724, 5485.714
1043.206, 5149.450
1043.689, 4815.421
1044.171, 4487.146
1044.653, 4183.969
1045.135, 3906.759
1045.617, 3646.980
1046.099, 3408.269
1046.581, 3174.735
1047.063, 2940.315
1047.546, 2719.658
1048.028, 2520.559
1048.510, 2344.535
1048.992, 2197.448
1049.474, 2082.352
1049.956, 1967.390
1050.438, 1852.017
1050.920, 1738.884
1051.402, 1627.290
1051.885, 1520.462
1052.367, 1419.539
1052.849, 1326.269
1053.331, 1244.160
1053.813, 1172.198
1054.295, 1098.424
1054.777, 1022.137
1055.259, 947.7031
1055.741, 874.3428
1056.224, 819.5552
1056.706, 795.2041
1057.188, 777.2788
1057.670, 732.2891
1058.152, 667.4907
1058.634, 608.6987
1059.116, 557.4385
1059.598, 537.7466
1060.081, 549.6943
1060.563, 547.6543
1061.045, 512.7935
1061.527, 464.0039
1062.009, 416.6152
1062.491, 376.6592
1062.973, 363.1431
1063.455, 368.5771
1063.938, 368.3242
1064.420, 361.0928
1064.902, 351.5127
1065.384, 341.3198
1065.866, 331.1890
1066.348, 321.4126
1066.830, 312.6792
1067.312, 306.8999
1067.794, 302.2739
1068.276, 288.5034
1068.759, 274.5938
1069.241, 293.3735
1069.723, 342.4878
1070.205, 372.1992
1070.687, 351.0039
1071.169, 319.1299
1071.651, 310.9473
1072.133, 314.6763
1072.616, 328.0601
1073.098, 337.9956
1073.580, 313.1899
1074.062, 265.2671
1074.544, 246.1362
1075.026, 277.9697
1075.508, 313.6699
1075.990, 331.4028
1076.473, 336.9224
1076.955, 326.5088
1077.437, 312.1392
1077.919, 302.7495
1078.401, 300.5786
1078.883, 310.2529
1079.365, 333.3608
1079.847, 349.8354
1080.329, 349.8496
1080.812, 347.0635
1081.294, 338.5249
1081.776, 336.6016
1082.258, 354.5420
1082.740, 381.8887
1083.222, 402.9268
1083.704, 416.6846
1084.186, 428.3594
1084.668, 432.0991
1085.151, 443.5747
1085.633, 469.4702
1086.115, 495.7627
1086.597, 515.6714
1087.079, 535.2773
1087.561, 559.8052
1088.043, 589.4937
1088.525, 626.6724
1089.007, 677.3662
1089.490, 716.8979
1089.972, 742.7808
1090.454, 763.1357
1090.936, 776.4102
1091.418, 797.0205
1091.900, 841.1875
1092.382, 890.3042
1092.864, 897.1885
1093.347, 862.0908
1093.829, 860.3857
1094.311, 893.9756
1094.793, 932.1436
1095.275, 969.8677
1095.757, 1009.756
1096.239, 1053.953
1096.721, 1088.267
1097.203, 1089.716
1097.686, 1070.897
1098.168, 1070.863
1098.650, 1085.123
1099.132, 1095.081
1099.614, 1100.883
1100.096, 1117.983
1100.578, 1148.906
1101.060, 1164.647
1101.542, 1137.234
1102.025, 1094.410
1102.507, 1066.631
1102.989, 1052.126
1103.471, 1058.656
1103.953, 1072.325
1104.435, 1058.786
1104.917, 1019.494
1105.399, 993.7637
1105.882, 1002.317
1106.364, 1014.425
1106.846, 1003.658
1107.328, 993.7891
1107.810, 1006.841
1108.292, 1030.482
1108.774, 1050.829
1109.256, 1068.259
1109.739, 1089.621
1110.221, 1117.670
1110.703, 1132.912
1111.185, 1112.742
1111.667, 1103.864
1112.149, 1130.352
1112.631, 1160.813
1113.113, 1171.893
1113.595, 1176.721
1114.078, 1201.571
1114.560, 1244.932
1115.042, 1263.950
1115.524, 1241.585
1116.006, 1234.430
1116.488, 1246.215
1116.970, 1265.451
1117.452, 1288.140
1117.934, 1316.792
1118.417, 1358.765
1118.899, 1404.966
1119.381, 1425.137
1119.863, 1416.523
1120.345, 1413.735
1120.827, 1417.946
1121.309, 1411.340
1121.791, 1390.209
1122.274, 1358.337
1122.756, 1316.297
1123.238, 1281.194
1123.720, 1283.494
1124.202, 1303.384
1124.684, 1286.373
1125.166, 1241.835
1125.648, 1196.755
1126.130, 1153.377
1126.613, 1104.810
1127.095, 1049.473
1127.577, 1000.375
1128.059, 968.6748
1128.541, 942.1680
1129.023, 914.7815
1129.505, 881.0427
1129.987, 829.1843
1130.469, 769.8779
1130.952, 718.2800
1131.434, 675.9175
1131.916, 639.1143
1132.398, 608.3745
1132.880, 572.6455
1133.362, 517.5859
1133.844, 468.9658
1134.326, 443.4324
1134.809, 422.7422
1135.291, 388.0024
1135.773, 350.0647
1136.255, 335.0967
1136.737, 345.8789
1137.219, 332.4294
1137.701, 273.0872
1138.183, 235.7573
1138.666, 238.0364
1139.148, 233.0076
1139.630, 199.6963
1140.112, 160.4402
1140.594, 132.8286
1141.076, 119.3608
1141.558, 133.4297
1142.040, 175.9875
1142.522, 194.3911
1143.005, 188.6692
1143.487, 157.7917
1143.969, 102.6604
1144.451, 57.47192
1144.933, 40.38330
1145.415, 41.20874
1145.897, 54.13110
1146.379, 69.80054
1146.861, 67.63110
1147.344, 55.83398
1147.826, 53.85229
1148.308, 57.09082
1148.790, 47.64160
1149.272, 23.01294
1149.754, 1.472900
1150.236, 19.80029
1150.718, 29.29980
1151.201, 17.29736
1151.683, 7.829102
1152.165, 25.26611
1152.647, 49.67212
1153.129, 61.13257
1153.611, 59.32983
1154.093, 47.68921
1154.575, 24.72900
1155.057, 7.489746
1155.540, 12.37134
1156.022, 9.065430
1156.504, 40.52783
1156.986, 85.02832
1157.468, 105.7659
1157.950, 104.3770
1158.432, 76.98633
1158.914, 31.99097
1159.396, 7.520752
1159.879, 5.736328
1160.361, 5.220459
1160.843, 5.639404
1161.325, 5.237305
1161.807, 3.219971
1162.289, 7.685059
1162.771, 26.68921
1163.253, 44.66113
1163.736, 40.92896
1164.218, 22.52979
1164.700, 2.778076
1165.182, 27.17847
1165.664, 29.18652
1166.146, 14.48560
1166.628, 3.541016
1167.110, 1.884033
1167.593, 4.693359
1168.075, 10.92041
1168.557, 16.40967
1169.039, 14.47607
1169.521, 15.44409
1170.003, 34.35034
1170.485, 53.52612
1170.967, 51.15454
1171.449, 33.79956
1171.932, 22.68628
1172.414, 21.91089
1172.896, 11.88965
1173.378, 21.41577
1173.860, 40.60010
1174.342, 39.50708
1174.824, 28.29565
1175.306, 6.152100
1175.788, 13.76685
1176.271, 15.91772
1176.753, 9.223633
1177.235, 23.87769
1177.717, 58.89380
1178.199, 74.60132
1178.681, 71.10107
1179.163, 58.97510
1179.645, 42.08984
1180.128, 35.91626
1180.610, 47.71338
1181.092, 64.09766
1181.574, 72.08618
1182.056, 77.05493
1182.538, 92.29883
1183.020, 103.9246
1183.502, 77.54102
1183.984, 40.33496
1184.467, 55.16455
1184.949, 115.0649
1185.431, 141.4207
1185.913, 99.71191
1186.395, 65.55518
1186.877, 66.16650
1187.359, 74.71704
1187.841, 88.65503
1188.323, 100.0156
1188.806, 107.6257
1189.288, 108.0767
1189.770, 95.69263
1190.252, 73.33887
1190.734, 67.84473
1191.216, 82.03613
1191.698, 98.67065
1192.180, 117.9253
1192.663, 131.7686
1193.145, 138.0251
1193.627, 136.4932
1194.109, 125.8875
1194.591, 118.8718
1195.073, 137.1008
1195.555, 167.5891
1196.037, 184.9905
1196.520, 193.2776
1197.002, 202.5286
1197.484, 209.6462
1197.966, 200.3721
1198.448, 173.0725
1198.930, 153.9172
1199.412, 148.3035
1199.894, 146.7358
1200.376, 164.2295
1200.859, 177.7000
1201.341, 150.7744
1201.823, 112.9763
1202.305, 122.1655
1202.787, 162.6418
1203.269, 171.8972
1203.751, 148.2634
1204.233, 116.3430
1204.715, 59.76562
1205.198, 42.24341
1205.680, 82.28857
1206.162, 111.7966
1206.644, 109.2542
1207.126, 102.8667
1207.608, 111.3213
1208.090, 123.9314
1208.572, 124.7788
1209.055, 117.5044
1209.537, 110.9990
1210.019, 98.04468
1210.501, 92.93213
1210.983, 98.72510
1211.465, 91.73022
1211.947, 71.88330
1212.429, 62.23633
1212.911, 72.38086
1213.394, 94.02246
1213.876, 154.6631
1214.358, 187.2065
1214.840, 124.2307
1215.322, 50.14746
1215.804, 39.72314
1216.286, 67.28662
1216.768, 91.98706
1217.250, 113.5349
1217.733, 118.0452
1218.215, 103.8574
1218.697, 72.51807
1219.179, 19.44580
1219.661, 3.137695
1220.143, 19.70728
1220.625, 52.68066
1221.107, 74.23779
1221.590, 86.28589
1222.072, 90.29492
1222.554, 87.55347
1223.036, 76.25708
1223.518, 62.56006
1224.000, 56.73560
1224.482, 58.12305
1224.964, 62.61426
1225.447, 68.82568
1225.929, 77.12817
1226.411, 90.42749
1226.893, 97.83716
1227.375, 93.27466
1227.857, 85.92139
1228.339, 74.98950
1228.821, 67.43774
1229.303, 65.47266
1229.786, 70.81274
1230.268, 89.91040
1230.750, 115.9402
1231.232, 113.5159
1231.714, 81.92822
1232.196, 71.79053
1232.678, 81.42017
1233.160, 76.18872
1233.642, 62.09570
1234.125, 41.20410
1234.607, 17.54565
1235.089, 0.2033690
1235.571, 4.106445
1236.053, 4.146484
1236.535, 36.04053
1237.017, 68.93237
1237.499, 76.69824
1237.982, 71.35107
1238.464, 69.72510
1238.946, 72.04785
1239.428, 71.42480
1239.910, 66.47461
1240.392, 64.71558
1240.874, 61.71533
1241.356, 64.53833
1241.839, 73.71509
1242.321, 67.37476
1242.803, 32.73047
1243.285, 0.6613770
1243.767, 0.4692380
1244.249, 14.59424
1244.731, 21.15381
1245.213, 16.10278
1245.695, 0.0000000E+00
##END=



