##NAMES=Fluorapatite
##RRUFFID=R060184
##IDEAL CHEMISTRY=Ca_5_(PO_4_)_3_F
##LOCALITY=Yates mine, Otter Lake, Quebec, Canada
##OWNER=RRUFF
##SOURCE=Lloyd Twaites
##DESCRIPTION=Green colored fragment of a hexagonal prism
##STATUS=The identification of this mineral has been confirmed by X-ray diffraction and chemical analysis
##URL=rruff.info/R060184
##MEASURED CHEMISTRY=(Ca_0.99_Ce_0.01_)_5.00_((P_0.98_Si_0.01_S_0.01_)O_4_)_3_F_1.00_
150.0462, 0.0000000E+00
150.5283, 26.68312
151.0105, 59.05380
151.4926, 64.45058
151.9747, 64.32986
152.4568, 65.05280
152.9389, 66.02333
153.4210, 67.38783
153.9032, 69.66202
154.3853, 75.76836
154.8674, 79.90421
155.3495, 79.67703
155.8316, 72.78590
156.3137, 66.55296
156.7959, 63.35477
157.2780, 61.85765
157.7601, 57.75722
158.2422, 47.12285
158.7243, 37.05835
159.2065, 30.99821
159.6886, 31.72054
160.1707, 31.25037
160.6528, 26.04250
161.1349, 17.76891
161.6170, 10.89853
162.0992, 7.590424
162.5813, 5.672302
163.0634, 3.612114
163.5455, 2.5009001E-02
164.0276, 2.326981
164.5097, 2.006882
164.9919, 0.9716950
165.4740, 6.071281
165.9561, 18.07565
166.4382, 31.10852
166.9203, 41.53722
167.4024, 44.36774
167.8846, 43.92538
168.3667, 45.28883
168.8488, 48.18671
169.3309, 50.97924
169.8130, 54.77704
170.2952, 59.77716
170.7773, 64.27293
171.2594, 68.40372
171.7415, 71.08016
172.2236, 70.87420
172.7057, 69.80038
173.1879, 69.02285
173.6700, 67.42878
174.1521, 66.28227
174.6342, 65.85426
175.1163, 67.41682
175.5984, 68.62130
176.0806, 66.56835
176.5627, 61.26800
177.0448, 55.34883
177.5269, 50.33472
178.0090, 46.34939
178.4911, 42.10994
178.9733, 36.90687
179.4554, 31.55043
179.9375, 26.88547
180.4196, 22.34527
180.9017, 17.92379
181.3838, 13.96634
181.8660, 10.49132
182.3481, 6.921505
182.8302, 3.112551
183.3123, 0.8994340
183.7944, 5.198985
184.2766, 9.838800
184.7587, 12.03524
185.2408, 8.531195
185.7229, 6.278811
186.2050, 4.647102
186.6871, 3.373374
187.1693, 2.400856
187.6514, 1.478910
188.1335, 0.5701640
188.6156, 0.2154250
189.0977, 0.7846560
189.5798, 1.168432
190.0620, 1.130013
190.5441, 0.3559120
191.0262, 1.004355
191.5083, 2.230235
191.9904, 3.555224
192.4725, 4.492895
192.9547, 3.783623
193.4368, 1.579100
193.9189, 9.1673002E-02
194.4010, 1.2592000E-02
194.8831, 1.940882
195.3652, 4.429327
195.8474, 6.426514
196.3295, 3.041984
196.8116, 0.1551890
197.2937, 1.773761
197.7758, 2.937493
198.2579, 2.714586
198.7401, 1.288752
199.2222, 0.8051400
199.7043, 1.601225
200.1864, 2.957832
200.6685, 3.163778
201.1507, 1.988808
201.6328, 0.6084880
202.1149, 0.3029930
202.5970, 0.7146970
203.0791, 1.126281
203.5612, 1.747945
204.0434, 2.418449
204.5255, 1.885458
205.0076, 0.2749200
205.4897, 2.282173
205.9718, 2.820357
206.4539, 1.539568
206.9361, 1.125819
207.4182, 2.387661
207.9003, 5.084792
208.3824, 5.393074
208.8645, 2.291615
209.3466, 0.6083000
209.8288, 1.059560
210.3109, 1.312686
210.7930, 4.678620
211.2751, 9.660435
211.7572, 15.30683
212.2393, 17.99158
212.7215, 16.55919
213.2036, 14.56000
213.6857, 14.26852
214.1678, 16.17880
214.6499, 18.03517
215.1320, 19.52977
215.6142, 20.82867
216.0963, 22.84623
216.5784, 26.26011
217.0605, 29.04569
217.5426, 29.47054
218.0247, 26.16122
218.5069, 24.61971
218.9890, 26.17471
219.4711, 29.92610
219.9532, 31.38885
220.4353, 29.33565
220.9175, 27.12064
221.3996, 26.96197
221.8817, 29.57558
222.3638, 32.35424
222.8459, 35.23814
223.3280, 38.15449
223.8102, 40.31055
224.2923, 41.19625
224.7744, 42.15762
225.2565, 44.08384
225.7386, 47.45663
226.2207, 50.54037
226.7029, 53.08816
227.1850, 55.17677
227.6671, 57.10704
228.1492, 59.14986
228.6313, 60.63456
229.1134, 61.16423
229.5956, 60.73645
230.0777, 59.36786
230.5598, 56.40874
231.0419, 52.45348
231.5240, 50.46983
232.0062, 51.39615
232.4883, 53.09836
232.9704, 54.60348
233.4525, 56.89045
233.9346, 56.70702
234.4167, 52.30047
234.8989, 45.03907
235.3810, 41.72353
235.8631, 45.29371
236.3452, 48.88773
236.8273, 48.14362
237.3094, 39.69179
237.7916, 34.13833
238.2737, 33.09946
238.7558, 35.40195
239.2379, 36.20127
239.7200, 34.79328
240.2021, 32.76261
240.6843, 30.87831
241.1664, 28.99061
241.6485, 27.19715
242.1306, 25.91379
242.6127, 24.83562
243.0948, 22.54796
243.5770, 18.34814
244.0591, 13.97077
244.5412, 13.43089
245.0233, 15.34987
245.5054, 16.71377
245.9876, 17.63774
246.4697, 17.92850
246.9518, 16.80375
247.4339, 13.32935
247.9160, 9.686764
248.3981, 10.75361
248.8803, 10.81730
249.3624, 11.77246
249.8445, 14.10505
250.3266, 17.17665
250.8087, 19.14851
251.2908, 18.93786
251.7730, 19.15885
252.2551, 21.24148
252.7372, 26.76547
253.2193, 29.82677
253.7014, 29.16623
254.1835, 26.81765
254.6657, 26.81244
255.1478, 29.94963
255.6299, 33.74113
256.1120, 37.33763
256.5941, 40.69535
257.0763, 43.84860
257.5584, 46.82954
258.0405, 49.77323
258.5226, 52.84029
259.0047, 56.19450
259.4868, 59.43381
259.9690, 62.22914
260.4511, 64.38490
260.9332, 67.24053
261.4153, 71.14224
261.8974, 75.45956
262.3795, 79.20815
262.8617, 82.57954
263.3438, 85.24625
263.8259, 87.07452
264.3080, 87.89591
264.7901, 88.62291
265.2722, 89.36359
265.7544, 89.88760
266.2365, 89.80850
266.7186, 89.07501
267.2007, 87.55167
267.6828, 85.36800
268.1649, 82.79860
268.6471, 79.06973
269.1292, 73.60368
269.6113, 67.79781
270.0934, 63.60656
270.5755, 61.45160
271.0576, 59.18875
271.5398, 56.12700
272.0219, 52.32737
272.5040, 49.06853
272.9861, 46.44989
273.4682, 44.13578
273.9503, 41.83994
274.4325, 39.57394
274.9146, 37.13480
275.3967, 34.12995
275.8788, 30.76579
276.3610, 29.23561
276.8431, 30.06126
277.3252, 31.15243
277.8073, 30.36315
278.2894, 27.51134
278.7715, 24.89597
279.2537, 22.97836
279.7358, 21.75730
280.2179, 21.28844
280.7000, 21.80795
281.1821, 22.12705
281.6642, 21.19429
282.1464, 19.01462
282.6285, 16.65211
283.1106, 13.84327
283.5927, 11.30160
284.0748, 11.45518
284.5569, 14.55579
285.0391, 17.89232
285.5212, 19.06810
286.0033, 18.32195
286.4854, 19.17761
286.9675, 22.49551
287.4496, 26.85016
287.9318, 29.71210
288.4139, 31.10088
288.8960, 31.06053
289.3781, 28.68092
289.8602, 24.64910
290.3423, 22.52246
290.8245, 22.84568
291.3066, 24.67058
291.7887, 26.94149
292.2708, 29.61964
292.7529, 31.86470
293.2350, 32.64550
293.7172, 32.62194
294.1993, 34.01716
294.6814, 37.28901
295.1635, 40.43808
295.6456, 39.86510
296.1277, 36.55017
296.6099, 34.62397
297.0920, 36.48481
297.5741, 40.76443
298.0562, 45.33983
298.5383, 50.21739
299.0204, 54.50758
299.5026, 56.17001
299.9847, 56.19291
300.4668, 56.76948
300.9489, 58.76257
301.4311, 61.80991
301.9132, 65.97283
302.3953, 71.27274
302.8774, 75.85929
303.3595, 78.24086
303.8416, 79.07092
304.3238, 79.73923
304.8059, 80.04034
305.2880, 80.63483
305.7701, 82.04841
306.2522, 84.30291
306.7343, 87.13280
307.2165, 91.47380
307.6986, 96.09013
308.1807, 99.22427
308.6628, 100.2063
309.1449, 99.84393
309.6270, 97.83921
310.1092, 94.86991
310.5913, 93.02582
311.0734, 95.14265
311.5555, 97.87656
312.0376, 97.61698
312.5197, 92.16644
313.0019, 87.77409
313.4840, 89.86320
313.9661, 95.59388
314.4482, 99.17113
314.9303, 95.98084
315.4124, 91.46465
315.8946, 89.39697
316.3767, 91.19614
316.8588, 91.05959
317.3409, 84.08672
317.8230, 74.47261
318.3051, 67.81130
318.7873, 68.36238
319.2694, 69.94820
319.7515, 70.00365
320.2336, 68.27059
320.7157, 66.81626
321.1978, 66.56895
321.6800, 66.44881
322.1621, 65.47729
322.6442, 61.45758
323.1263, 58.27407
323.6084, 56.93869
324.0905, 57.42321
324.5727, 58.07010
325.0548, 58.16606
325.5369, 58.44736
326.0190, 59.38765
326.5012, 63.82541
326.9833, 66.15403
327.4654, 64.19796
327.9475, 59.25452
328.4296, 57.10351
328.9117, 59.83070
329.3939, 63.51101
329.8760, 66.65129
330.3581, 69.15947
330.8402, 71.14980
331.3223, 72.17113
331.8044, 72.71775
332.2866, 73.92344
332.7687, 76.40462
333.2508, 78.36931
333.7329, 79.17791
334.2150, 78.59243
334.6971, 77.79960
335.1793, 76.89123
335.6614, 75.72415
336.1435, 74.30382
336.6256, 73.20500
337.1077, 70.51411
337.5898, 65.11684
338.0720, 57.30713
338.5541, 52.29809
339.0362, 51.00061
339.5183, 50.74821
340.0004, 49.05724
340.4825, 45.77608
340.9647, 42.63623
341.4468, 39.81780
341.9289, 37.41706
342.4110, 35.88122
342.8931, 35.24646
343.3752, 34.77764
343.8574, 33.61224
344.3395, 31.80543
344.8216, 30.85843
345.3037, 30.90919
345.7858, 31.65521
346.2679, 33.16829
346.7501, 35.33440
347.2322, 36.34495
347.7143, 34.53125
348.1964, 30.74949
348.6785, 27.78265
349.1607, 25.76937
349.6428, 24.41770
350.1249, 24.12898
350.6070, 24.40663
351.0891, 23.66962
351.5713, 20.36863
352.0534, 16.14818
352.5355, 13.80225
353.0176, 13.26563
353.4997, 12.52222
353.9818, 9.526113
354.4640, 5.418922
354.9461, 2.077353
355.4282, 0.9327980
355.9103, 0.3756170
356.3924, 2.968606
356.8745, 4.336908
357.3567, 9.312806
357.8388, 6.731536
358.3209, 2.088685
358.8030, 0.3969500
359.2851, 3.661150
359.7672, 6.975213
360.2494, 7.215100
360.7315, 5.695700
361.2136, 4.893050
361.6957, 8.447252
362.1778, 10.73379
362.6599, 7.663323
363.1421, 2.008242
363.6242, 0.5733560
364.1063, 0.7632780
364.5884, 2.114704
365.0705, 4.063390
365.5526, 3.890013
366.0348, 3.202953
366.5169, 1.981846
366.9990, 0.3330030
367.4811, 0.5002180
367.9632, 0.4432440
368.4453, 1.674068
368.9275, 2.367175
369.4096, 2.321261
369.8917, 2.004082
370.3738, 0.9389170
370.8559, 0.3977000
371.3380, 0.5430070
371.8202, 1.125983
372.3023, 3.081240
372.7844, 4.746615
373.2665, 2.864193
373.7487, 2.206424
374.2308, 3.515640
374.7129, 4.677293
375.1950, 4.492288
375.6771, 3.836993
376.1592, 2.277468
376.6414, 1.451566
377.1235, 1.382806
377.6056, 2.625839
378.0877, 5.054825
378.5698, 2.354625
379.0519, 2.267468
379.5341, 4.825035
380.0162, 5.038420
380.4983, 5.695323
380.9804, 4.158384
381.4625, 3.806177
381.9446, 4.647293
382.4268, 5.003936
382.9089, 3.057431
383.3910, 0.2523390
383.8731, 1.585183
384.3552, 0.2391740
384.8373, 1.139409
385.3195, 1.164164
385.8016, 6.047194
386.2837, 10.41547
386.7658, 12.50041
387.2479, 13.40263
387.7300, 14.67925
388.2122, 16.27658
388.6943, 17.36745
389.1764, 16.54514
389.6585, 15.08556
390.1406, 14.62832
390.6227, 16.26427
391.1049, 18.08276
391.5870, 18.82160
392.0691, 18.68392
392.5512, 18.30350
393.0333, 17.20086
393.5154, 16.48441
393.9976, 17.12242
394.4797, 19.78041
394.9618, 21.92518
395.4439, 22.24620
395.9260, 21.74103
396.4081, 21.72462
396.8903, 23.92743
397.3724, 25.29577
397.8545, 24.39801
398.3366, 21.09204
398.8188, 19.19528
399.3009, 20.15692
399.7830, 21.81782
400.2651, 22.78148
400.7472, 21.89018
401.2293, 22.00041
401.7115, 23.34552
402.1936, 25.75517
402.6757, 28.90021
403.1578, 33.48087
403.6399, 37.56060
404.1220, 40.09648
404.6042, 40.79063
405.0863, 41.70070
405.5684, 42.67188
406.0505, 43.99570
406.5326, 46.12919
407.0147, 49.19004
407.4969, 52.34864
407.9790, 55.18901
408.4611, 58.08707
408.9432, 62.74014
409.4253, 69.24916
409.9074, 76.35808
410.3896, 83.99733
410.8717, 91.71786
411.3538, 96.99416
411.8359, 98.62508
412.3180, 99.60305
412.8001, 104.5397
413.2823, 112.5157
413.7644, 120.4527
414.2465, 125.8649
414.7286, 130.2717
415.2107, 135.7537
415.6928, 142.7650
416.1750, 150.7254
416.6571, 159.3550
417.1392, 167.9091
417.6213, 176.1670
418.1034, 183.8655
418.5855, 191.7587
419.0677, 200.0529
419.5498, 208.5352
420.0319, 216.9153
420.5140, 225.1041
420.9961, 234.0832
421.4782, 244.2705
421.9604, 255.6028
422.4425, 267.1133
422.9246, 279.4337
423.4067, 291.6076
423.8889, 302.3490
424.3710, 309.9751
424.8531, 317.7225
425.3352, 326.6172
425.8173, 336.6052
426.2994, 344.1325
426.7816, 347.0856
427.2637, 349.7278
427.7458, 355.1115
428.2279, 365.5045
428.7100, 373.4371
429.1921, 377.7571
429.6743, 379.5346
430.1564, 381.2522
430.6385, 383.2147
431.1206, 384.1660
431.6027, 383.4813
432.0848, 381.1794
432.5670, 377.1406
433.0491, 370.9633
433.5312, 364.9527
434.0133, 362.1078
434.4954, 361.9300
434.9775, 360.9876
435.4597, 357.8744
435.9418, 354.2461
436.4239, 352.7563
436.9060, 353.3105
437.3881, 356.1618
437.8702, 364.3527
438.3524, 374.1441
438.8345, 380.0388
439.3166, 380.9988
439.7987, 380.1307
440.2808, 378.1677
440.7629, 376.5070
441.2451, 377.1664
441.7272, 384.7914
442.2093, 391.0417
442.6914, 390.3141
443.1735, 383.6709
443.6556, 377.4436
444.1378, 375.7743
444.6199, 374.0963
445.1020, 369.3918
445.5841, 359.5852
446.0662, 350.2006
446.5483, 343.0135
447.0305, 336.5794
447.5126, 328.4295
447.9947, 318.2088
448.4768, 306.7766
448.9590, 293.8479
449.4411, 279.4034
449.9232, 265.5551
450.4053, 251.9300
450.8874, 239.1330
451.3695, 227.8097
451.8517, 218.1187
452.3338, 208.7157
452.8159, 199.5632
453.2980, 190.5154
453.7801, 181.1017
454.2622, 171.3208
454.7444, 161.7046
455.2265, 152.6456
455.7086, 143.9981
456.1907, 135.3385
456.6728, 126.6043
457.1549, 118.1567
457.6371, 109.7590
458.1192, 101.8409
458.6013, 95.45686
459.0834, 91.52711
459.5655, 88.09639
460.0476, 83.08860
460.5298, 76.83713
461.0119, 70.45738
461.4940, 62.91164
461.9761, 56.48215
462.4582, 53.77050
462.9403, 55.27913
463.4225, 56.07001
463.9046, 53.32629
464.3867, 49.07529
464.8688, 45.23890
465.3509, 42.66622
465.8330, 40.44397
466.3152, 37.94404
466.7973, 35.26412
467.2794, 33.08423
467.7615, 31.09902
468.2436, 30.03475
468.7257, 30.51197
469.2079, 32.97939
469.6900, 33.26450
470.1721, 30.16304
470.6542, 27.10123
471.1363, 28.03917
471.6184, 34.24199
472.1006, 38.72877
472.5827, 40.17603
473.0648, 39.39434
473.5469, 38.69083
474.0291, 38.09380
474.5112, 37.54443
474.9933, 36.99125
475.4754, 36.73726
475.9575, 37.24781
476.4396, 38.59665
476.9218, 40.62298
477.4039, 42.91908
477.8860, 45.24140
478.3681, 47.18565
478.8502, 48.37432
479.3323, 49.46404
479.8145, 51.48230
480.2966, 53.89732
480.7787, 55.23965
481.2608, 54.21663
481.7429, 52.02682
482.2250, 49.32955
482.7072, 46.14713
483.1893, 43.38213
483.6714, 41.59770
484.1535, 40.27742
484.6356, 38.92176
485.1177, 36.60856
485.5999, 34.91776
486.0820, 35.07809
486.5641, 36.49596
487.0462, 36.93353
487.5283, 36.31718
488.0104, 34.97809
488.4926, 32.87929
488.9747, 29.86780
489.4568, 27.23406
489.9389, 24.78263
490.4210, 23.08165
490.9031, 22.81468
491.3853, 24.00350
491.8674, 25.95485
492.3495, 28.71928
492.8316, 31.80067
493.3137, 34.35950
493.7958, 36.34999
494.2780, 37.63236
494.7601, 36.59346
495.2422, 34.26945
495.7243, 33.35069
496.2064, 33.95156
496.6885, 36.06388
497.1707, 42.33559
497.6528, 49.59811
498.1349, 53.10522
498.6170, 47.80494
499.0992, 43.20561
499.5813, 47.64021
500.0634, 57.31551
500.5455, 62.99941
501.0276, 57.29646
501.5097, 50.91660
501.9919, 48.99560
502.4740, 52.91282
502.9561, 53.80350
503.4382, 47.27802
503.9203, 40.22842
504.4024, 37.65865
504.8846, 42.98809
505.3667, 45.60884
505.8488, 43.63905
506.3309, 39.43000
506.8130, 38.55818
507.2951, 42.01377
507.7773, 44.41152
508.2594, 43.15158
508.7415, 39.05646
509.2236, 37.00405
509.7057, 37.12813
510.1878, 37.73388
510.6700, 37.50666
511.1521, 36.67912
511.6342, 36.21007
512.1163, 36.56017
512.5984, 36.14208
513.0806, 31.78229
513.5627, 25.43963
514.0448, 21.19997
514.5269, 23.37268
515.0090, 26.12706
515.4911, 25.05394
515.9733, 20.66356
516.4554, 16.85727
516.9375, 14.99835
517.4196, 14.18640
517.9017, 14.13919
518.3839, 15.64284
518.8660, 15.77448
519.3481, 13.23821
519.8302, 9.598970
520.3123, 6.434385
520.7944, 3.562807
521.2766, 1.738606
521.7587, 2.049202
522.2408, 3.469179
522.7229, 1.291013
523.2050, 5.522902
523.6871, 3.981728
524.1693, 1.385956
524.6514, 2.340704
525.1335, 1.723457
525.6156, 0.8625610
526.0977, 2.191688
526.5798, 3.894287
527.0620, 3.0731000E-02
527.5441, 4.140106
528.0262, 2.959100
528.5083, 0.9502340
528.9904, 2.035405
529.4725, 0.1718120
529.9547, 1.972326
530.4368, 0.9274330
530.9189, 0.2398620
531.4010, 2.922955
531.8831, 2.972289
532.3652, 1.817648
532.8474, 3.719723
533.3295, 3.593306
533.8116, 1.833410
534.2937, 3.711830
534.7758, 3.702016
535.2579, 3.905237
535.7401, 4.576509
536.2222, 3.737205
536.7043, 4.128121
537.1864, 4.329568
537.6685, 1.323605
538.1506, 2.458704
538.6328, 3.913610
539.1149, 2.713955
539.5970, 0.7772090
540.0791, 1.003296
540.5612, 2.625088
541.0433, 3.438158
541.5255, 3.278408
542.0076, 3.459739
542.4897, 2.105314
542.9718, 1.787998
543.4539, 4.245404
543.9360, 3.899246
544.4182, 2.811530
544.9003, 1.897778
545.3824, 1.362051
545.8645, 1.723745
546.3466, 3.330097
546.8287, 5.665555
547.3109, 9.158340
547.7930, 13.77181
548.2751, 16.56308
548.7572, 16.28852
549.2393, 14.68441
549.7214, 12.68827
550.2036, 10.45291
550.6857, 7.402161
551.1678, 2.475966
551.6499, 2.052775
552.1320, 2.192376
552.6141, 3.069280
553.0963, 6.514539
553.5784, 6.300619
554.0605, 3.443138
554.5426, 0.7639670
555.0247, 0.9420860
555.5068, 3.820454
555.9890, 0.3187930
556.4711, 2.851787
556.9532, 6.768377
557.4353, 6.800644
557.9174, 6.112160
558.3995, 6.763472
558.8817, 8.008979
559.3638, 8.962440
559.8459, 8.906574
560.3281, 9.468816
560.8102, 10.61010
561.2923, 12.91540
561.7744, 17.29630
562.2565, 26.01651
562.7386, 34.56919
563.2208, 41.58662
563.7029, 47.71408
564.1850, 56.17449
564.6671, 68.31960
565.1492, 80.26054
565.6313, 89.68320
566.1135, 96.28178
566.5956, 105.0998
567.0777, 116.7742
567.5598, 128.1369
568.0419, 135.1145
568.5240, 138.6282
569.0062, 144.5583
569.4883, 153.6266
569.9704, 165.9464
570.4525, 184.5857
570.9346, 206.9315
571.4167, 225.1909
571.8989, 231.1164
572.3810, 235.8932
572.8631, 247.2118
573.3452, 264.4438
573.8273, 283.2537
574.3094, 302.2986
574.7916, 322.1387
575.2737, 343.2237
575.7558, 365.9221
576.2379, 388.7488
576.7200, 413.4756
577.2021, 436.5064
577.6843, 454.6449
578.1664, 466.4027
578.6485, 477.6779
579.1306, 490.9549
579.6127, 501.9810
580.0948, 503.3716
580.5770, 495.1571
581.0591, 477.0163
581.5412, 445.3414
582.0233, 406.2888
582.5054, 372.5177
582.9875, 343.9725
583.4697, 316.9116
583.9518, 286.9868
584.4339, 258.8395
584.9160, 237.9511
585.3981, 224.8730
585.8802, 215.2970
586.3624, 209.5344
586.8445, 205.2322
587.3266, 200.3522
587.8087, 192.2112
588.2908, 186.1764
588.7729, 184.9451
589.2551, 185.6150
589.7372, 183.3338
590.2193, 176.2641
590.7014, 169.6314
591.1835, 164.7256
591.6656, 161.2613
592.1478, 158.0679
592.6299, 155.4132
593.1120, 151.9655
593.5941, 146.1387
594.0762, 138.7497
594.5583, 132.5040
595.0405, 127.4388
595.5226, 123.9188
596.0047, 123.1409
596.4868, 123.6479
596.9689, 122.8565
597.4510, 118.5169
597.9332, 117.3377
598.4153, 126.8471
598.8974, 141.1611
599.3795, 151.7779
599.8616, 153.4082
600.3438, 154.8799
600.8259, 157.6301
601.3080, 161.5679
601.7901, 167.1134
602.2722, 174.8636
602.7543, 183.0582
603.2365, 191.4107
603.7186, 199.7566
604.2007, 206.8987
604.6828, 212.8404
605.1649, 216.5337
605.6470, 216.9152
606.1292, 214.1236
606.6113, 209.0631
607.0934, 201.8315
607.5755, 192.3067
608.0576, 178.5594
608.5398, 162.8635
609.0219, 149.4687
609.5040, 141.0528
609.9861, 132.9454
610.4683, 121.5866
610.9504, 108.7953
611.4325, 98.94230
611.9146, 94.59599
612.3967, 92.06333
612.8788, 91.92644
613.3610, 93.84002
613.8431, 92.24184
614.3252, 86.19548
614.8073, 78.66763
615.2894, 70.63660
615.7715, 61.96915
616.2537, 56.02150
616.7358, 53.44331
617.2179, 50.12671
617.7000, 39.80019
618.1821, 24.88759
618.6642, 14.81812
619.1464, 11.79000
619.6285, 10.73881
620.1106, 6.742658
620.5927, 1.041799
621.0748, 4.158624
621.5569, 1.755559
622.0391, 1.431459
622.5212, 1.425493
623.0033, 0.7182700
623.4854, 1.695676
623.9675, 1.232521
624.4496, 2.896949
624.9318, 0.9050300
625.4139, 4.692507
625.8960, 3.685785
626.3781, 5.043994
626.8602, 3.892838
627.3423, 2.472912
627.8245, 1.754159
628.3066, 3.054552
628.7887, 4.780522
629.2708, 0.2952670
629.7529, 5.321549
630.2350, 10.98201
630.7172, 14.10289
631.1993, 13.29453
631.6814, 11.83915
632.1635, 12.00484
632.6456, 13.29794
633.1277, 15.00303
633.6099, 17.06306
634.0920, 19.26958
634.5741, 22.19533
635.0562, 25.36575
635.5383, 27.05196
636.0204, 25.94065
636.5026, 25.44574
636.9847, 27.26451
637.4668, 31.16169
637.9489, 32.34065
638.4310, 30.46934
638.9131, 27.88363
639.3953, 25.86344
639.8774, 24.43688
640.3595, 23.28342
640.8416, 22.29062
641.3237, 22.94778
641.8058, 28.13964
642.2880, 35.25127
642.7701, 40.17111
643.2522, 41.07782
643.7343, 42.30920
644.2164, 46.78122
644.6985, 52.68056
645.1807, 57.54492
645.6628, 60.94468
646.1449, 63.08514
646.6270, 63.59846
647.1091, 63.00882
647.5912, 62.64093
648.0734, 62.77366
648.5555, 62.36551
649.0376, 60.76657
649.5197, 58.44755
650.0018, 57.70895
650.4839, 58.55862
650.9661, 59.39406
651.4482, 58.12420
651.9303, 56.58084
652.4124, 59.14202
652.8945, 65.86979
653.3766, 71.02612
653.8588, 69.83252
654.3409, 66.06879
654.8230, 62.74810
655.3051, 60.35889
655.7872, 58.53439
656.2693, 56.26480
656.7515, 55.04496
657.2336, 56.49838
657.7158, 62.56604
658.1979, 66.85648
658.6800, 68.57975
659.1621, 68.46045
659.6442, 67.57668
660.1263, 65.85035
660.6085, 63.60912
661.0906, 60.44430
661.5727, 57.30466
662.0548, 55.84492
662.5369, 55.87610
663.0190, 56.75272
663.5012, 61.31851
663.9833, 64.20092
664.4654, 59.26471
664.9475, 47.96464
665.4296, 39.46291
665.9117, 39.35350
666.3939, 40.82681
666.8760, 40.44751
667.3581, 37.95548
667.8402, 36.72837
668.3223, 37.51432
668.8044, 38.50413
669.2866, 38.62461
669.7687, 37.85297
670.2508, 36.09117
670.7329, 33.02515
671.2150, 30.33772
671.6971, 29.92611
672.1793, 31.35562
672.6614, 33.43551
673.1435, 36.02428
673.6256, 38.34601
674.1077, 40.56139
674.5898, 42.05421
675.0720, 41.62675
675.5541, 36.16277
676.0362, 31.86201
676.5183, 31.43393
677.0004, 33.47375
677.4825, 34.06546
677.9647, 32.92534
678.4468, 31.00165
678.9289, 27.74533
679.4110, 24.01841
679.8931, 23.01015
680.3752, 24.96513
680.8574, 27.38400
681.3395, 29.09966
681.8216, 30.01192
682.3037, 29.61718
682.7858, 28.25450
683.2679, 26.53316
683.7501, 25.16147
684.2322, 23.68985
684.7143, 21.79930
685.1964, 19.27731
685.6785, 17.31378
686.1606, 16.08819
686.6428, 15.57487
687.1249, 16.05131
687.6070, 17.78747
688.0891, 19.25612
688.5712, 20.90070
689.0533, 21.82628
689.5355, 20.66666
690.0176, 17.56001
690.4997, 14.33926
690.9818, 10.63690
691.4639, 8.390808
691.9460, 11.85099
692.4282, 18.47568
692.9103, 22.54773
693.3924, 20.14601
693.8745, 16.60266
694.3566, 14.01211
694.8387, 12.55722
695.3209, 12.43780
695.8030, 13.57978
696.2851, 11.87974
696.7672, 17.36363
697.2493, 20.38986
697.7314, 21.09051
698.2136, 12.49958
698.6957, 15.90713
699.1778, 14.50644
699.6599, 13.05153
700.1420, 18.14818
700.6241, 10.90948
701.1063, 15.90020
701.5884, 16.01024
702.0705, 18.35556
702.5526, 15.86364
703.0347, 14.86674
703.5168, 18.71052
703.9990, 19.87527
704.4811, 16.82915
704.9632, 19.32013
705.4453, 10.59875
705.9274, 9.423044
706.4095, 12.30681
706.8917, 15.92356
707.3738, 17.33468
707.8560, 16.24936
708.3381, 15.51811
708.8202, 15.51278
709.3023, 15.40243
709.7844, 13.17446
710.2665, 9.978259
710.7487, 9.377789
711.2308, 13.23681
711.7129, 17.43666
712.1950, 19.06330
712.6771, 18.85889
713.1592, 17.94012
713.6414, 15.58485
714.1235, 13.71932
714.6056, 12.23071
715.0877, 11.58292
715.5698, 13.23196
716.0519, 18.73498
716.5341, 22.21891
717.0162, 21.86345
717.4983, 18.74134
717.9804, 15.33061
718.4625, 11.68154
718.9446, 9.003324
719.4268, 8.567710
719.9089, 8.951377
720.3910, 8.690450
720.8731, 7.719985
721.3552, 5.793892
721.8373, 0.4546410
722.3195, 3.750942
722.8016, 2.918055
723.2837, 3.149460
723.7658, 5.164662
724.2479, 0.3490320
724.7300, 1.867061
725.2122, 0.8370140
725.6943, 3.162659
726.1764, 1.434094
726.6585, 1.551297
727.1406, 1.826349
727.6227, 0.3741490
728.1049, 1.835354
728.5870, 2.189749
729.0691, 0.4321980
729.5512, 1.474916
730.0333, 2.826019
730.5154, 3.284915
730.9976, 2.282027
731.4797, 0.9810190
731.9618, 3.520284
732.4439, 4.851741
732.9260, 5.262852
733.4081, 4.755423
733.8903, 2.790322
734.3724, 1.879749
734.8545, 2.306907
735.3366, 3.475112
735.8187, 0.1795330
736.3008, 5.642143
736.7830, 8.647861
737.2651, 9.328259
737.7472, 0.7167860
738.2293, 4.103388
738.7114, 2.681715
739.1935, 1.063230
739.6757, 6.138725
740.1578, 1.121415
740.6399, 3.846723
741.1220, 3.934230
741.6041, 6.256817
742.0862, 3.742554
742.5684, 2.723425
743.0505, 6.544460
743.5326, 7.686046
744.0147, 4.617127
744.4968, 7.086305
744.9789, 0.3374910
745.4611, 0.9190940
745.9432, 5.921030
746.4253, 3.095183
746.9074, 5.651323
747.3895, 6.157390
747.8716, 2.652437
748.3538, 4.736612
748.8359, 2.430749
749.3180, 1.369130
749.8001, 0.5240590
750.2822, 2.7780000E-02
750.7643, 0.5740610
751.2465, 1.823770
751.7286, 1.855791
752.2107, 2.227266
752.6928, 1.453215
753.1749, 4.722843
753.6570, 5.827718
754.1392, 5.522726
754.6213, 4.868412
755.1034, 3.929225
755.5855, 2.913174
756.0676, 3.252872
756.5498, 2.512771
757.0319, 1.724122
757.5140, 4.683466
757.9962, 9.517111
758.4783, 8.962839
758.9604, 8.299306
759.4425, 9.827390
759.9246, 13.30820
760.4067, 14.63386
760.8889, 13.64351
761.3710, 12.94550
761.8531, 15.47933
762.3352, 19.57894
762.8173, 21.79956
763.2994, 22.09536
763.7816, 21.27364
764.2637, 19.92369
764.7458, 18.27048
765.2279, 16.08557
765.7100, 12.94223
766.1921, 11.50018
766.6743, 12.48905
767.1564, 14.48791
767.6385, 17.12759
768.1206, 20.71907
768.6027, 22.03040
769.0848, 20.74373
769.5670, 18.73112
770.0491, 17.05946
770.5312, 16.02270
771.0133, 16.33469
771.4954, 18.09067
771.9775, 20.52256
772.4597, 23.82372
772.9418, 27.09424
773.4239, 29.69644
773.9060, 31.76068
774.3881, 32.37631
774.8702, 30.52234
775.3524, 28.42437
775.8345, 28.58384
776.3166, 31.66415
776.7987, 31.70034
777.2808, 27.36357
777.7629, 23.22077
778.2451, 24.16105
778.7272, 28.92553
779.2093, 35.08136
779.6914, 42.38000
780.1735, 47.36166
780.6556, 45.91726
781.1378, 42.44172
781.6199, 40.95251
782.1020, 43.40608
782.5841, 45.34968
783.0662, 46.66787
783.5483, 47.87270
784.0305, 49.92478
784.5126, 52.77126
784.9947, 54.45356
785.4768, 54.88870
785.9589, 54.08860
786.4410, 51.37262
786.9232, 47.62242
787.4053, 44.27018
787.8874, 41.72638
788.3695, 39.71112
788.8516, 37.78107
789.3337, 36.67936
789.8159, 37.21861
790.2980, 41.81331
790.7801, 43.40588
791.2622, 40.34642
791.7443, 36.00781
792.2264, 34.99799
792.7086, 37.11481
793.1907, 38.59605
793.6728, 38.83431
794.1549, 38.32175
794.6370, 37.04423
795.1191, 35.57596
795.6013, 34.98655
796.0834, 36.38092
796.5655, 37.11187
797.0476, 36.00559
797.5297, 33.89459
798.0118, 31.60440
798.4940, 28.66220
798.9761, 27.36127
799.4582, 28.29195
799.9403, 30.12806
800.4224, 31.49705
800.9045, 32.28660
801.3867, 31.55577
801.8688, 28.52139
802.3509, 26.06039
802.8330, 28.40786
803.3151, 32.62723
803.7972, 34.28971
804.2794, 29.84296
804.7615, 26.79334
805.2436, 28.71456
805.7258, 31.42410
806.2079, 30.31195
806.6900, 23.43922
807.1721, 20.60327
807.6542, 23.62041
808.1364, 28.49825
808.6185, 30.50797
809.1006, 30.02961
809.5827, 27.70051
810.0648, 22.56893
810.5469, 18.79804
811.0291, 21.59461
811.5112, 26.37446
811.9933, 27.75463
812.4754, 22.47292
812.9575, 16.91066
813.4396, 10.27353
813.9218, 4.515108
814.4039, 2.934656
814.8860, 6.026107
815.3681, 6.293310
815.8502, 2.191133
816.3323, 2.626915
816.8145, 2.823598
817.2966, 1.960601
817.7787, 1.494560
818.2608, 2.899900
818.7429, 1.800494
819.2250, 0.3320820
819.7072, 1.777770
820.1893, 1.106600
820.6714, 2.933388
821.1535, 0.5027510
821.6356, 1.043067
822.1177, 2.578052
822.5999, 3.235455
823.0820, 3.078118
823.5641, 2.276852
824.0462, 0.8248850
824.5283, 0.8098020
825.0104, 1.723161
825.4926, 2.701360
825.9747, 4.971939
826.4568, 9.569564
826.9389, 12.50303
827.4210, 11.31090
827.9031, 9.301787
828.3853, 8.467867
828.8674, 8.743228
829.3495, 11.19573
829.8316, 16.59932
830.3137, 20.75329
830.7958, 17.75826
831.2780, 10.86371
831.7601, 7.805987
832.2422, 9.647095
832.7243, 10.30305
833.2064, 2.009708
833.6885, 2.131872
834.1707, 3.226568
834.6528, 10.47163
835.1349, 15.21710
835.6170, 3.606053
836.0991, 0.5828070
836.5812, 3.941296
837.0634, 1.278423
837.5455, 3.786706
838.0276, 1.657544
838.5097, 0.4131930
838.9918, 3.078057
839.4739, 6.466480
839.9561, 11.44434
840.4382, 17.97350
840.9203, 22.61030
841.4024, 23.92373
841.8845, 23.09693
842.3666, 19.99566
842.8488, 14.71080
843.3309, 12.29278
843.8130, 13.27850
844.2951, 14.40967
844.7772, 14.18432
845.2593, 12.72699
845.7415, 9.699150
846.2236, 5.466652
846.7057, 1.764107
847.1878, 1.107449
847.6699, 2.471459
848.1520, 1.930686
848.6342, 0.5644760
849.1163, 4.974616
849.5984, 12.88470
850.0805, 19.21417
850.5626, 21.85168
851.0447, 21.81043
851.5269, 22.09587
852.0090, 22.67715
852.4911, 23.57234
852.9732, 24.75020
853.4553, 26.17167
853.9374, 27.91879
854.4196, 29.84699
854.9017, 31.68484
855.3839, 34.44304
855.8660, 35.54929
856.3481, 33.86154
856.8302, 30.75482
857.3123, 28.73935
857.7944, 27.61156
858.2766, 28.01643
858.7587, 31.01696
859.2408, 34.04236
859.7229, 32.88462
860.2050, 29.06572
860.6871, 25.44478
861.1693, 22.05429
861.6514, 20.51826
862.1335, 23.21412
862.6156, 27.50470
863.0977, 29.68830
863.5798, 28.95918
864.0620, 27.95756
864.5441, 26.76696
865.0262, 26.47684
865.5083, 27.87586
865.9904, 30.13254
866.4725, 31.40533
866.9547, 31.13114
867.4368, 30.95984
867.9189, 31.85244
868.4010, 33.45181
868.8831, 35.59665
869.3652, 39.01884
869.8474, 41.17570
870.3295, 41.21302
870.8116, 40.95024
871.2937, 42.27466
871.7758, 45.07826
872.2579, 46.89944
872.7401, 47.72835
873.2222, 46.99609
873.7043, 41.95832
874.1864, 36.33891
874.6685, 34.83019
875.1506, 38.53531
875.6328, 40.87812
876.1149, 37.62033
876.5970, 34.41898
877.0791, 33.47393
877.5612, 34.46581
878.0433, 33.92606
878.5255, 31.58005
879.0076, 30.29326
879.4897, 32.26091
879.9718, 35.41890
880.4539, 37.46598
880.9360, 38.47782
881.4182, 38.48411
881.9003, 35.82360
882.3824, 34.07690
882.8645, 34.82799
883.3466, 37.22099
883.8287, 39.45657
884.3109, 41.71640
884.7930, 42.44527
885.2751, 40.61291
885.7572, 37.99523
886.2393, 37.81680
886.7214, 39.20752
887.2036, 39.95988
887.6857, 38.02550
888.1678, 37.39857
888.6499, 42.69919
889.1320, 49.01132
889.6141, 49.56936
890.0963, 41.33229
890.5784, 35.76446
891.0605, 34.09487
891.5426, 33.65624
892.0247, 32.27778
892.5068, 30.48900
892.9890, 27.67857
893.4711, 23.51884
893.9532, 20.81076
894.4353, 23.88018
894.9174, 28.38972
895.3995, 29.93085
895.8817, 27.27757
896.3638, 26.34385
896.8459, 27.48719
897.3280, 29.14991
897.8101, 29.11424
898.2922, 28.41093
898.7744, 34.85493
899.2565, 47.53949
899.7386, 57.41676
900.2207, 56.96428
900.7028, 52.90811
901.1849, 49.04610
901.6671, 45.77085
902.1492, 44.28841
902.6313, 45.47081
903.1134, 47.01585
903.5955, 48.40739
904.0776, 49.79240
904.5598, 52.57225
905.0419, 56.26488
905.5240, 57.06709
906.0062, 52.50376
906.4883, 46.93624
906.9704, 43.35783
907.4525, 41.51901
907.9346, 40.93784
908.4167, 44.18414
908.8989, 44.74377
909.3810, 41.19240
909.8631, 35.94946
910.3452, 31.49689
910.8273, 27.85619
911.3094, 26.30712
911.7916, 27.16608
912.2737, 28.43165
912.7558, 29.84842
913.2379, 29.72645
913.7200, 24.66928
914.2021, 12.21888
914.6843, 6.350346
915.1664, 13.67698
915.6485, 22.31449
916.1306, 26.52215
916.6127, 26.45427
917.0948, 23.50002
917.5770, 17.68378
918.0591, 12.45674
918.5412, 10.58650
919.0233, 9.974874
919.5054, 7.961730
919.9875, 5.098341
920.4697, 3.939880
920.9518, 9.295907
921.4339, 11.01116
921.9160, 5.138859
922.3981, 4.792678
922.8802, 4.605929
923.3624, 4.482432
923.8445, 5.365487
924.3266, 6.655941
924.8087, 7.287088
925.2908, 6.200656
925.7729, 3.873122
926.2551, 1.334509
926.7372, 1.979074
927.2193, 4.376369
927.7014, 3.010803
928.1835, 1.132010
928.6656, 1.423124
929.1478, 3.511979
929.6299, 4.842967
930.1120, 5.706995
930.5941, 4.995267
931.0762, 0.7291700
931.5583, 4.821599
932.0405, 2.740878
932.5226, 6.239196
933.0047, 5.812359
933.4868, 5.587366
933.9689, 14.72764
934.4510, 15.52421
934.9332, 10.39271
935.4153, 11.56892
935.8974, 18.57575
936.3795, 26.90572
936.8616, 35.60844
937.3438, 43.09906
937.8259, 46.99680
938.3080, 48.79358
938.7901, 51.06506
939.2722, 53.92285
939.7543, 57.98673
940.2365, 62.00244
940.7186, 68.60226
941.2007, 81.95472
941.6828, 101.6697
942.1649, 122.5655
942.6470, 144.0715
943.1292, 167.6796
943.6113, 192.4437
944.0934, 221.3995
944.5755, 259.2758
945.0576, 307.9771
945.5397, 356.9598
946.0219, 402.7066
946.5040, 452.6108
946.9861, 509.8300
947.4682, 574.9276
947.9503, 645.8478
948.4324, 722.9235
948.9146, 806.9823
949.3967, 896.2294
949.8788, 994.7260
950.3609, 1107.253
950.8430, 1231.953
951.3251, 1361.315
951.8073, 1494.853
952.2894, 1634.101
952.7715, 1781.200
953.2536, 1931.178
953.7357, 2071.759
954.2179, 2207.465
954.7000, 2357.998
955.1821, 2527.704
955.6642, 2704.379
956.1464, 2880.160
956.6285, 3057.933
957.1106, 3242.704
957.5927, 3436.048
958.0748, 3630.935
958.5569, 3828.152
959.0391, 4026.611
959.5212, 4235.531
960.0033, 4443.754
960.4854, 4619.956
960.9675, 4764.190
961.4496, 4873.598
961.9318, 4967.613
962.4139, 5007.035
962.8960, 4973.517
963.3781, 4867.584
963.8602, 4689.673
964.3423, 4434.315
964.8245, 4133.291
965.3066, 3783.317
965.7887, 3412.195
966.2708, 3040.685
966.7529, 2679.265
967.2350, 2357.459
967.7172, 2082.805
968.1993, 1833.121
968.6814, 1595.053
969.1635, 1381.737
969.6456, 1199.883
970.1277, 1051.579
970.6099, 918.0864
971.0920, 799.6992
971.5741, 695.9247
972.0562, 610.4992
972.5383, 538.3587
973.0204, 474.4677
973.5026, 418.0461
973.9847, 365.7517
974.4668, 315.0691
974.9489, 270.7736
975.4310, 233.5641
975.9131, 202.8086
976.3953, 178.6640
976.8774, 160.5759
977.3595, 141.2896
977.8416, 118.7953
978.3237, 97.60855
978.8058, 82.42815
979.2880, 70.52363
979.7701, 58.65083
980.2522, 45.12410
980.7343, 34.35068
981.2164, 27.25928
981.6985, 21.91733
982.1807, 17.55292
982.6628, 13.84754
983.1449, 9.907855
983.6270, 5.517262
984.1091, 0.4637820
984.5912, 9.767590
985.0734, 0.3284730
985.5555, 1.765326
986.0376, 2.441961
986.5197, 3.392757
987.0018, 0.6659150
987.4839, 2.231914
987.9661, 0.7046640
988.4482, 4.391748
988.9303, 2.650276
989.4124, 1.074836
989.8945, 0.6309700
990.3766, 6.150710
990.8588, 11.62475
991.3409, 11.17598
991.8230, 10.19394
992.3051, 11.62979
992.7872, 12.85973
993.2693, 10.17934
993.7515, 8.223897
994.2336, 5.842457
994.7157, 2.909731
995.1978, 1.021463
995.6799, 6.384475
996.1620, 13.14011
996.6442, 21.20598
997.1263, 32.43796
997.6084, 41.92975
998.0905, 48.47717
998.5726, 53.94867
999.0547, 60.46035
999.5369, 68.09461
1000.019, 78.31636
1000.501, 91.59425
1000.983, 102.1009
1001.465, 103.3288
1001.947, 102.1527
1002.430, 103.5246
1002.912, 107.9450
1003.394, 113.2713
1003.876, 120.0662
1004.358, 126.3313
1004.840, 131.0592
1005.322, 135.3671
1005.804, 141.9167
1006.287, 149.8788
1006.769, 157.4438
1007.251, 164.1598
1007.733, 169.9026
1008.215, 174.8191
1008.697, 178.6647
1009.179, 181.0314
1009.661, 181.7358
1010.143, 182.5399
1010.626, 183.5329
1011.108, 184.1068
1011.590, 183.7643
1012.072, 182.7914
1012.554, 180.2690
1013.036, 176.8277
1013.518, 177.2208
1014.000, 184.1979
1014.483, 191.4484
1014.965, 197.4133
1015.447, 203.0275
1015.929, 211.6876
1016.411, 221.9604
1016.893, 227.2342
1017.375, 223.4856
1017.857, 223.3004
1018.339, 238.5546
1018.822, 257.8288
1019.304, 270.6071
1019.786, 275.3583
1020.268, 284.6985
1020.750, 299.3571
1021.232, 313.4232
1021.714, 322.2507
1022.196, 328.6974
1022.679, 336.2977
1023.161, 345.1143
1023.643, 355.3207
1024.125, 369.6080
1024.607, 381.6372
1025.089, 389.4109
1025.571, 395.8170
1026.053, 405.2025
1026.535, 417.0881
1027.018, 428.8478
1027.500, 440.2896
1027.982, 450.4809
1028.464, 458.6140
1028.946, 465.3733
1029.428, 470.1857
1029.910, 473.2779
1030.392, 480.3127
1030.875, 493.1779
1031.357, 503.0773
1031.839, 506.3332
1032.321, 505.7722
1032.803, 504.9062
1033.285, 504.2843
1033.767, 505.4871
1034.249, 511.6371
1034.731, 514.1619
1035.214, 508.0108
1035.696, 500.4612
1036.178, 496.9362
1036.660, 497.4464
1037.142, 497.8598
1037.624, 498.1138
1038.106, 496.6178
1038.588, 489.9598
1039.071, 483.4263
1039.553, 481.2239
1040.035, 482.3592
1040.517, 483.8685
1040.999, 486.8625
1041.481, 487.3546
1041.963, 483.7375
1042.445, 479.9768
1042.927, 484.7709
1043.410, 493.8618
1043.892, 498.5774
1044.374, 497.2317
1044.856, 498.8154
1045.338, 512.6644
1045.820, 522.9650
1046.302, 520.6841
1046.784, 509.1420
1047.266, 506.4629
1047.749, 512.0288
1048.231, 518.8017
1048.713, 525.0624
1049.195, 529.2526
1049.677, 529.7286
1050.159, 527.8499
1050.641, 525.5709
1051.123, 522.6257
1051.606, 522.4957
1052.088, 525.9255
1052.570, 529.2705
1053.052, 531.1244
1053.534, 531.1370
1054.016, 526.4027
1054.498, 518.7753
1054.980, 514.7760
1055.463, 521.6273
1055.945, 525.5970
1056.427, 521.6590
1056.909, 514.8271
1057.391, 514.7534
1057.873, 519.9927
1058.355, 518.2617
1058.837, 507.2285
1059.319, 494.1217
1059.802, 483.4538
1060.284, 474.0887
1060.766, 465.5381
1061.248, 457.7304
1061.730, 449.8004
1062.212, 441.4216
1062.694, 435.2912
1063.176, 433.9924
1063.658, 432.8427
1064.141, 421.8276
1064.623, 407.0381
1065.105, 399.1531
1065.587, 404.8224
1066.069, 408.9301
1066.551, 409.5974
1067.033, 408.5628
1067.515, 405.6373
1067.998, 401.7337
1068.480, 403.4112
1068.962, 409.6073
1069.444, 414.7519
1069.926, 418.1740
1070.408, 417.0797
1070.890, 409.2243
1071.372, 396.3462
1071.854, 379.6617
1072.337, 358.6015
1072.819, 342.4800
1073.301, 332.8953
1073.783, 324.2981
1074.265, 311.9501
1074.747, 298.0141
1075.229, 283.9791
1075.711, 270.2348
1076.193, 258.5750
1076.676, 250.5807
1077.158, 240.8420
1077.640, 227.1178
1078.122, 212.5109
1078.604, 203.1962
1079.086, 196.9160
1079.568, 189.2927
1080.051, 179.4695
1080.533, 167.2753
1081.015, 148.2415
1081.497, 131.4335
1081.979, 122.2917
1082.461, 119.6253
1082.943, 115.0509
1083.425, 108.8814
1083.907, 103.6237
1084.390, 102.2408
1084.872, 99.64566
1085.354, 90.22014
1085.836, 79.00190
1086.318, 72.30339
1086.800, 71.05521
1087.282, 71.43519
1087.764, 73.72701
1088.246, 74.31536
1088.729, 68.46396
1089.211, 60.60252
1089.693, 55.84575
1090.175, 53.55058
1090.657, 50.77416
1091.139, 46.91590
1091.621, 42.48407
1092.103, 37.18574
1092.586, 32.16004
1093.068, 29.28395
1093.550, 27.82306
1094.032, 26.48539
1094.514, 25.13424
1094.996, 21.83989
1095.478, 13.67414
1095.960, 5.805425
1096.443, 0.5040530
1096.925, 4.707110
1097.407, 3.924133
1097.889, 0.9419560
1098.371, 3.096315
1098.853, 0.1477540
1099.335, 3.812754
1099.817, 6.741386
1100.299, 8.804724
1100.781, 9.650547
1101.264, 9.246893
1101.746, 11.79271
1102.228, 9.921435
1102.710, 4.239090
1103.192, 0.4734200
1103.674, 3.380746
1104.156, 2.256485
1104.638, 1.050235
1105.121, 3.621441
1105.603, 6.332920
1106.085, 4.966625
1106.567, 1.930712
1107.049, 8.562637
1107.531, 9.591498
1108.013, 7.400484
1108.495, 7.590005
1108.978, 9.193526
1109.460, 8.091401
1109.942, 0.4587660
1110.424, 7.033892
1110.906, 13.83178
1111.388, 8.774914
1111.870, 10.25125
1112.352, 12.03013
1112.834, 11.68863
1113.317, 10.85206
1113.799, 4.990187
1114.281, 2.689270
1114.763, 0.9407600
1115.245, 2.247977
1115.727, 5.815717
1116.209, 5.962635
1116.691, 2.937788
1117.173, 3.873962
1117.656, 11.13642
1118.138, 18.39507
1118.620, 20.25686
1119.102, 19.82775
1119.584, 18.70782
1120.066, 17.22620
1120.548, 20.48494
1121.030, 29.43690
1121.513, 36.12738
1121.995, 36.78561
1122.477, 35.43064
1122.959, 36.16329
1123.441, 38.37765
1123.923, 41.27834
1124.405, 44.84699
1124.887, 48.61741
1125.370, 52.50016
1125.852, 56.77263
1126.334, 61.87192
1126.816, 67.33292
1127.298, 72.66862
1127.780, 77.56409
1128.262, 81.15942
1128.744, 81.69578
1129.226, 83.01074
1129.709, 85.31609
1130.191, 88.64425
1130.673, 93.61708
1131.155, 99.56866
1131.637, 103.8236
1132.119, 106.5631
1132.601, 109.3843
1133.083, 113.5511
1133.566, 117.2775
1134.048, 120.1731
1134.530, 122.1490
1135.012, 122.8731
1135.494, 122.4696
1135.976, 121.4105
1136.458, 119.7882
1136.940, 119.7086
1137.422, 125.3924
1137.905, 130.4231
1138.387, 129.7558
1138.869, 125.7963
1139.351, 124.0519
1139.833, 124.5103
1140.315, 128.2660
1140.797, 136.1098
1141.279, 143.1447
1141.761, 144.0232
1142.244, 142.9064
1142.726, 143.0609
1143.208, 144.6823
1143.690, 147.0810
1144.172, 150.4771
1144.654, 152.8973
1145.136, 153.3549
1145.618, 153.5801
1146.101, 155.6609
1146.583, 158.7172
1147.065, 161.8104
1147.547, 164.8014
1148.029, 167.4128
1148.511, 170.1661
1148.993, 170.6200
1149.475, 167.4059
1149.958, 161.7946
1150.440, 153.4850
1150.922, 144.9779
1151.404, 141.0752
1151.886, 145.8130
1152.368, 148.6069
1152.850, 148.6429
1153.332, 147.2803
1153.814, 145.4045
1154.297, 142.7523
1154.779, 137.7666
1155.261, 131.6422
1155.743, 127.3299
1156.225, 126.8881
1156.707, 125.7714
1157.189, 122.7230
1157.671, 119.3129
1158.153, 116.5812
1158.636, 114.6460
1159.118, 114.0571
1159.600, 114.4989
1160.082, 115.4344
1160.564, 117.8188
1161.046, 119.2888
1161.528, 118.9275
1162.010, 117.5158
1162.493, 115.2904
1162.975, 112.4343
1163.457, 110.9240
1163.939, 110.7779
1164.421, 109.8694
1164.903, 103.8214
1165.385, 99.73044
1165.867, 103.2764
1166.349, 108.9753
1166.832, 107.1093
1167.314, 98.42501
1167.796, 93.00929
1168.278, 91.46095
1168.760, 88.77863
1169.242, 78.35526
1169.724, 65.43781
1170.206, 69.04907
1170.688, 70.22598
1171.171, 69.12888
1171.653, 59.11297
1172.135, 61.24175
1172.617, 58.67466
1173.099, 56.01339
1173.581, 60.04731
1174.063, 51.74693
1174.545, 55.67653
1175.028, 54.72318
1175.510, 56.00713
1175.992, 52.45428
1176.474, 50.39639
1176.956, 48.60007
1177.438, 53.73870
1177.920, 56.42032
1178.402, 56.81588
1178.885, 48.11203
1179.367, 51.46088
1179.849, 50.12588
1180.331, 48.87949
1180.813, 53.75996
1181.295, 46.19643
1181.777, 51.02629
1182.259, 46.46852
1182.741, 52.70596
1183.224, 56.59296
1183.706, 58.51417
1184.188, 51.40529
1184.670, 55.90892
1185.152, 55.70645
1185.634, 55.40959
1186.116, 62.22116
1186.598, 56.95679
1187.081, 63.76258
1187.563, 65.69819
1188.045, 70.07210
1188.527, 69.96152
1189.009, 71.39079
1189.491, 77.35074
1189.973, 80.73415
1190.455, 80.00836
1190.938, 85.01980
1191.420, 92.36249
1191.902, 93.55991
1192.384, 99.45020
1192.866, 102.8836
1193.348, 103.9924
1193.830, 95.81044
1194.312, 99.62789
1194.794, 98.63806
1195.276, 97.45233
1195.759, 102.9623
1196.241, 96.13741
1196.723, 101.5430
1197.205, 102.0680
1197.687, 104.8284
1198.169, 102.7518
1198.651, 102.1708
1199.133, 99.99623
1199.616, 102.4912
1200.098, 106.6938
1200.580, 108.6731
1201.062, 107.5329
1201.544, 104.4930
1202.026, 98.87582
1202.508, 94.02554
1202.990, 93.65981
1203.473, 95.30022
1203.955, 96.09282
1204.437, 96.03178
1204.919, 95.32545
1205.401, 93.75961
1205.883, 92.35621
1206.365, 91.30761
1206.847, 89.90054
1207.329, 86.59543
1207.812, 83.17450
1208.294, 83.53074
1208.776, 83.45264
1209.258, 87.75367
1209.740, 89.59858
1210.222, 89.11884
1210.704, 79.34918
1211.186, 81.57893
1211.668, 79.00166
1212.151, 76.22190
1212.633, 80.13364
1213.115, 71.71165
1213.597, 75.51688
1214.079, 66.75617
1214.561, 62.66111
1215.043, 61.87466
1215.525, 62.66985
1216.008, 64.73623
1216.490, 66.17690
1216.972, 63.81152
1217.454, 58.11110
1217.936, 54.22502
1218.418, 52.46867
1218.900, 52.38031
1219.382, 54.29458
1219.865, 55.73440
1220.347, 53.01150
1220.829, 48.97661
1221.311, 46.56598
1221.793, 40.25043
1222.275, 43.80369
1222.757, 44.90011
1223.239, 43.67063
1223.721, 33.15036
1224.203, 34.62811
1224.686, 31.29336
1225.168, 27.76655
1225.650, 30.93386
1226.132, 21.76848
1226.614, 24.83592
1227.096, 28.74905
1227.578, 29.84173
1228.061, 26.51624
1228.543, 21.46732
1229.025, 15.48549
1229.507, 10.77144
1229.989, 10.97562
1230.471, 15.26566
1230.953, 14.36100
1231.435, 7.253445
1231.917, 3.574337
1232.400, 5.994581
1232.882, 9.876457
1233.364, 12.08129
1233.846, 12.62862
1234.328, 11.20450
1234.810, 8.072140
1235.292, 4.033329
1235.774, 0.8712530
1236.256, 4.374823
1236.739, 5.233848
1237.221, 7.181312
1237.703, 11.68147
1238.185, 2.377025
1238.667, 0.1595340
1239.149, 3.251069
1239.631, 3.544289
1240.113, 1.199585
1240.596, 1.234594
1241.078, 5.621323
1241.560, 8.120976
1242.042, 0.4813390
1242.524, 8.192106
1243.006, 5.059427
1243.488, 5.159247
1243.970, 7.621058
1244.453, 3.324327
1244.935, 1.762106
1245.417, 3.426180
1245.899, 7.388048
1246.381, 6.407092
1246.863, 1.556730
1247.345, 5.353046
1247.827, 6.003344
1248.309, 5.716131
1248.792, 5.068072
1249.274, 6.641198
1249.756, 11.42137
1250.238, 16.37342
1250.720, 21.58184
1251.202, 24.59399
1251.684, 23.34495
1252.166, 20.23951
1252.648, 21.51249
1253.131, 26.09998
1253.613, 31.57716
1254.095, 37.94061
1254.577, 41.01161
1255.059, 35.77357
1255.541, 32.46770
1256.023, 35.06909
1256.505, 41.23543
1256.988, 47.60054
1257.470, 53.45013
1257.952, 56.40257
1258.434, 55.36517
1258.916, 58.23064
1259.398, 68.77106
1259.880, 77.23853
1260.362, 79.91274
1260.844, 80.01298
1261.327, 82.43816
1261.809, 86.02530
1262.291, 88.80302
1262.773, 90.34182
1263.255, 92.79947
1263.737, 96.16236
1264.219, 100.5946
1264.701, 106.2222
1265.183, 112.3868
1265.666, 118.4181
1266.148, 124.1342
1266.630, 129.7619
1267.112, 134.6743
1267.594, 139.4386
1268.076, 144.2411
1268.558, 147.4898
1269.040, 147.9095
1269.523, 146.9353
1270.005, 147.2435
1270.487, 146.2395
1270.969, 142.1998
1271.451, 135.4096
1271.933, 127.4874
1272.415, 117.3405
1272.897, 109.4219
1273.380, 105.1137
1273.862, 99.88708
1274.344, 91.84258
1274.826, 86.33949
1275.308, 80.73117
1275.790, 74.85564
1276.272, 69.57678
1276.754, 65.03535
1277.236, 61.04338
1277.719, 57.93684
1278.201, 57.07513
1278.683, 61.64859
1279.165, 63.37196
1279.647, 59.58008
1280.129, 52.61843
1280.611, 46.45497
1281.093, 41.56930
1281.576, 37.63669
1282.058, 34.60532
1282.540, 31.48471
1283.022, 26.99916
1283.504, 23.99340
1283.986, 23.57081
1284.468, 24.06161
1284.950, 22.83737
1285.432, 20.74889
1285.915, 19.52313
1286.397, 19.47973
1286.879, 18.44413
1287.361, 16.07793
1287.843, 13.50537
1288.325, 10.65565
1288.807, 8.744434
1289.289, 10.44547
1289.771, 13.04581
1290.254, 13.56616
1290.736, 12.09880
1291.218, 11.44002
1291.700, 11.71384
1292.182, 9.319379
1292.664, 3.217902
1293.146, 0.8310720
1293.628, 5.189836
1294.111, 12.67077
1294.593, 16.39986
1295.075, 16.84869
1295.557, 14.44246
1296.039, 10.13394
1296.521, 5.560158
1297.003, 1.173677
1297.485, 0.5477680
1297.968, 5.409391
1298.450, 9.889222
1298.932, 5.323772
1299.414, 0.5300010
1299.896, 2.1181000E-02
1300.378, 10.01372
1300.860, 10.13895
1301.342, 3.581993
1301.824, 0.0000000E+00
##END=



