##NAMES=Fluorophlogopite
##RRUFFID=R040039
##IDEAL CHEMISTRY=KMg_3_(Si_3_Al)O_10_F_2_
##LOCALITY=Franklin, Sussex County, New Jersey, USA
##OWNER=RRUFF
##SOURCE=University of Arizona Mineral Museum
##DESCRIPTION=Brown hexagonal sheets
##STATUS=The identification of this mineral has been confirmed by X-ray diffraction and chemical analysis
##URL=rruff.info/R040039
##MEASURED CHEMISTRY=(K_0.92_Na_0.06_[box]_0.02_)_Σ=1_(Mg_2.94_Fe_0.04_Ti_0.02_)_Σ=3_(Si_2.98_Al_1.02_)O_10_(F_1.24_(OH)_0.76_)_Σ=2_; OH estimated by charge balance
157.247, 0.000
158.630, 49.669
160.013, 5.854
161.396, 62.978
162.779, 157.097
164.161, 126.635
165.544, 237.395
166.926, 323.592
168.308, 221.912
169.689, 338.768
171.070, 347.021
172.452, 386.051
173.833, 517.287
175.213, 619.855
176.594, 699.963
177.974, 968.797
179.354, 1180.173
180.734, 1661.714
182.114, 2113.143
183.493, 2654.617
184.872, 3419.977
186.251, 4885.678
187.630, 6333.094
189.008, 7910.818
190.387, 9567.600
191.765, 11082.135
193.143, 12189.329
194.520, 12641.586
195.898, 12514.038
197.275, 11360.661
198.652, 10124.959
200.029, 8277.832
201.405, 6642.850
202.782, 5297.578
204.158, 4254.242
205.534, 3492.085
206.909, 3106.406
208.285, 2679.206
209.660, 2094.159
211.035, 1541.238
212.410, 1187.431
213.784, 947.724
215.159, 854.109
216.533, 729.577
217.907, 567.121
219.281, 567.732
220.654, 316.401
222.027, 292.136
223.400, 207.930
224.773, 273.861
226.146, 142.926
227.518, 206.095
228.891, 216.290
230.263, 237.494
231.634, 121.684
233.006, 4.144
234.377, 210.012
235.748, 32.850
237.119, 82.301
238.490, 78.820
239.860, 45.316
241.231, 108.678
242.601, 97.222
243.970, 19.010
245.340, 101.714
246.709, 48.343
248.079, 49.907
249.448, 66.414
250.816, 1.872
252.185, 99.292
253.553, 82.685
254.921, 55.944
256.289, 20.588
257.657, 300.238
259.024, 131.888
260.391, 349.533
261.758, 352.165
263.125, 538.773
264.492, 667.352
265.858, 757.894
267.224, 1076.407
268.590, 1417.884
269.956, 1959.327
271.321, 2346.735
272.687, 2864.104
274.052, 3515.420
275.416, 3735.688
276.781, 3899.904
278.146, 3998.499
279.510, 3740.490
280.874, 3115.791
282.237, 2661.569
283.601, 2125.180
284.964, 1766.486
286.327, 1497.715
287.690, 1201.788
289.053, 1238.678
290.416, 1175.945
291.778, 1151.560
293.140, 1100.913
294.502, 1119.827
295.863, 1257.846
297.225, 1275.673
298.586, 1467.825
299.947, 1629.673
301.308, 1854.307
302.668, 2322.393
304.029, 2501.275
305.389, 2989.136
306.749, 3537.979
308.108, 3966.795
309.468, 4293.588
310.827, 4628.584
312.186, 4887.094
313.545, 5010.811
314.903, 5065.418
316.262, 5009.839
317.620, 5018.586
318.978, 4933.275
320.336, 4819.475
321.693, 4746.532
323.051, 4455.043
324.408, 4140.154
325.765, 3817.773
327.121, 3216.514
328.478, 3119.637
329.834, 2515.781
331.190, 2239.705
332.546, 1971.737
333.902, 1759.523
335.257, 1538.110
336.612, 1350.823
337.967, 1162.332
339.322, 1050.740
340.677, 888.050
342.031, 873.244
343.385, 825.310
344.739, 703.230
346.093, 717.999
347.446, 630.627
348.799, 555.129
350.153, 539.514
351.505, 627.792
352.858, 663.967
354.210, 666.030
355.563, 696.977
356.915, 695.820
358.267, 699.560
359.618, 750.131
360.969, 815.498
362.321, 870.251
363.672, 878.181
365.022, 1155.224
366.373, 1186.135
367.723, 1240.526
369.073, 1254.218
370.423, 1313.328
371.773, 1218.670
373.122, 1173.974
374.471, 909.443
375.821, 866.786
377.169, 759.957
378.518, 682.003
379.866, 632.426
381.215, 577.234
382.563, 533.666
383.910, 512.501
385.258, 503.875
386.605, 501.630
387.952, 513.878
389.299, 547.849
390.646, 545.689
391.992, 519.686
393.339, 393.884
394.685, 390.028
396.031, 332.592
397.376, 293.091
398.722, 458.368
400.067, 422.087
401.412, 435.337
402.757, 266.934
404.101, 334.748
405.446, 429.948
406.790, 211.257
408.134, 235.547
409.478, 216.062
410.821, 218.759
412.165, 206.037
413.508, 184.356
414.851, 30.333
416.193, 180.986
417.536, 265.068
418.878, 279.020
420.220, 16.850
421.562, 117.212
422.904, 104.298
424.245, 79.398
425.586, 62.104
426.927, 179.679
428.268, 41.744
429.609, 137.799
430.949, 7.647
432.289, 58.278
433.629, 91.647
434.969, 282.566
436.309, 100.612
437.648, 221.521
438.987, 92.482
440.326, 318.912
441.665, 187.824
443.003, 230.326
444.342, 246.433
445.680, 378.669
447.018, 335.952
448.355, 458.775
449.693, 475.412
451.030, 384.443
452.367, 392.283
453.704, 457.819
455.041, 479.332
456.377, 610.259
457.713, 456.268
459.049, 815.695
460.385, 861.100
461.721, 786.481
463.056, 818.842
464.391, 918.184
465.726, 693.508
467.061, 476.813
468.395, 194.101
469.730, 152.367
471.064, 49.614
472.398, 117.839
473.731, 142.958
475.065, 60.180
476.398, 117.708
477.731, 122.662
479.064, 36.729
480.397, 63.915
481.729, 34.812
483.062, 1.494
484.394, 170.123
485.725, 111.716
487.057, 90.267
488.389, 29.774
489.720, 224.235
491.051, 273.658
492.382, 224.046
493.712, 292.395
495.043, 329.707
496.373, 373.984
497.703, 474.226
499.032, 402.432
500.362, 471.603
501.691, 637.739
503.020, 578.842
504.349, 677.910
505.678, 613.946
507.007, 800.950
508.335, 817.922
509.663, 734.861
510.991, 772.772
512.319, 703.652
513.646, 638.992
514.973, 492.320
516.300, 498.112
517.627, 389.874
518.954, 344.608
520.280, 432.314
521.607, 98.993
522.933, 244.641
524.259, 141.263
525.584, 111.857
526.910, 185.427
528.235, 41.972
529.560, 160.490
530.885, 97.986
532.209, 104.456
533.534, 60.903
534.858, 88.422
536.182, 125.732
537.506, 152.117
538.829, 122.553
540.152, 136.965
541.476, 48.355
542.799, 200.732
544.121, 22.090
545.444, 144.461
546.766, 246.839
548.088, 87.198
549.410, 40.538
550.732, 177.869
552.053, 184.243
553.375, 127.606
554.696, 124.953
556.017, 77.247
557.337, 159.355
558.658, 218.730
559.978, 71.104
561.298, 158.461
562.618, 33.521
563.938, 199.880
565.257, 156.281
566.576, 118.205
567.895, 150.292
569.214, 86.332
570.533, 179.417
571.851, 183.491
573.170, 253.486
574.488, 209.843
575.805, 184.767
577.123, 60.207
578.440, 105.679
579.758, 52.204
581.075, 39.538
582.391, 158.203
583.708, 44.984
585.024, 69.385
586.341, 70.729
587.657, 166.636
588.972, 54.845
590.288, 3.554
591.603, 13.548
592.918, 71.339
594.233, 41.966
595.548, 40.292
596.863, 7.723
598.177, 35.277
599.491, 7.915
600.805, 5.434
602.119, 93.938
603.432, 56.490
604.746, 49.802
606.059, 142.855
607.372, 248.492
608.685, 81.111
609.997, 119.708
611.309, 377.284
612.621, 320.844
613.933, 292.385
615.245, 397.908
616.557, 431.414
617.868, 507.903
619.179, 739.373
620.490, 739.828
621.801, 856.263
623.111, 850.682
624.421, 1138.082
625.731, 1071.466
627.041, 1297.475
628.351, 1317.297
629.660, 1753.578
630.970, 1676.226
632.279, 1974.542
633.588, 2200.879
634.896, 2190.773
636.205, 2203.354
637.513, 2217.329
638.821, 2270.711
640.129, 2254.683
641.437, 2426.071
642.744, 2420.830
644.051, 2531.337
645.358, 2341.744
646.665, 2467.754
647.972, 2669.703
649.278, 2480.814
650.584, 2711.744
651.890, 2735.828
653.196, 2692.900
654.502, 3060.960
655.807, 3093.007
657.113, 3404.042
658.418, 3213.064
659.722, 3667.075
661.027, 4169.072
662.331, 4132.061
663.636, 4579.035
664.940, 5138.999
666.244, 5491.279
667.547, 6004.221
668.851, 6747.148
670.154, 7414.113
671.457, 8598.020
672.760, 9710.099
674.062, 10996.088
675.365, 12575.985
676.667, 14038.850
677.969, 15540.700
679.271, 16573.951
680.572, 17284.785
681.874, 17664.350
683.175, 17223.760
684.476, 17108.598
685.777, 16270.862
687.077, 14927.341
688.378, 13707.669
689.678, 12183.901
690.978, 11215.146
692.278, 9976.600
693.577, 8679.905
694.877, 7056.492
696.176, 6622.109
697.475, 5514.812
698.774, 4744.906
700.072, 4231.499
701.371, 3788.697
702.669, 3274.023
703.967, 2834.889
705.265, 2410.982
706.562, 2312.375
707.860, 2173.206
709.157, 2037.635
710.454, 1711.037
711.751, 1716.783
713.047, 1413.792
714.344, 1468.482
715.640, 1287.915
716.936, 1210.890
718.232, 1092.498
719.527, 978.490
720.823, 1190.048
722.118, 1112.502
723.413, 1121.970
724.708, 1121.344
726.002, 858.345
727.297, 844.691
728.591, 1179.044
729.885, 733.473
731.179, 1005.893
732.472, 1118.229
733.766, 954.036
735.059, 901.163
736.352, 1098.305
737.645, 971.002
738.937, 1083.603
740.230, 979.763
741.522, 1066.612
742.814, 915.183
744.106, 987.486
745.397, 968.610
746.689, 1086.193
747.980, 902.087
749.271, 904.398
750.562, 838.549
751.853, 805.869
753.143, 853.042
754.433, 706.717
755.723, 817.877
757.013, 663.415
758.303, 658.320
759.592, 799.062
760.881, 642.728
762.170, 723.820
763.459, 596.064
764.748, 623.889
766.036, 626.870
767.325, 460.179
768.613, 768.391
769.901, 524.597
771.188, 687.793
772.476, 495.981
773.763, 690.163
775.050, 698.338
776.337, 448.504
777.624, 769.663
778.910, 761.813
780.196, 677.957
781.482, 765.095
782.768, 782.225
784.054, 724.352
785.339, 762.475
786.625, 707.595
787.910, 869.755
789.195, 673.911
790.479, 847.102
791.764, 745.327
793.048, 832.564
794.332, 809.822
795.616, 752.242
796.900, 883.500
798.183, 668.753
799.467, 784.001
800.750, 629.248
802.033, 679.491
803.316, 706.729
804.598, 390.962
805.880, 630.188
807.163, 335.408
808.445, 460.622
809.726, 401.829
811.008, 156.070
812.289, 235.266
813.570, 364.454
814.851, 115.637
816.132, 265.814
817.413, 199.986
818.693, 130.152
819.973, 36.312
821.253, 233.462
822.533, 224.607
823.813, 103.747
825.092, 207.880
826.371, 71.007
827.650, 90.127
828.929, 109.291
830.208, 191.348
831.486, 141.451
832.764, 121.547
834.042, 133.641
835.320, 81.147
836.598, 85.403
837.875, 56.896
839.152, 47.973
840.429, 135.046
841.706, 87.114
842.983, 234.180
844.259, 68.246
845.536, 46.665
846.812, 269.398
848.088, 267.540
849.363, 35.373
850.639, 28.281
851.914, 43.815
853.189, 129.060
854.464, 143.032
855.739, 89.204
857.013, 63.568
858.288, 133.376
859.562, 49.819
860.836, 223.047
862.110, 23.395
863.383, 74.234
864.656, 162.142
865.930, 167.390
867.203, 30.919
868.475, 40.556
869.748, 108.938
871.020, 42.431
872.292, 110.079
873.564, 91.347
874.836, 69.769
876.108, 26.198
877.379, 78.623
878.650, 101.046
879.922, 255.465
881.192, 148.883
882.463, 237.237
883.733, 373.748
885.004, 247.181
886.274, 173.641
887.544, 74.101
888.813, 3.442
890.083, 231.021
891.352, 8.485
892.621, 57.941
893.890, 175.410
895.159, 47.879
896.427, 171.365
897.695, 21.896
898.964, 54.426
900.232, 176.955
901.499, 194.489
902.767, 212.044
904.034, 90.609
905.301, 286.185
906.568, 116.763
907.835, 251.339
909.102, 221.920
910.368, 171.499
911.634, 186.078
912.900, 245.655
914.166, 181.246
915.432, 208.834
916.697, 376.419
917.962, 183.004
919.227, 83.587
920.492, 238.168
921.757, 271.745
923.021, 283.320
924.285, 334.104
925.550, 257.461
926.813, 288.026
928.077, 321.589
929.341, 183.171
930.604, 122.751
931.867, 296.325
933.130, 365.896
934.393, 220.465
935.655, 145.027
936.918, 235.588
938.180, 174.143
939.442, 240.697
940.703, 167.250
941.965, 123.801
943.226, 233.346
944.488, 214.885
945.749, 157.420
947.009, 65.949
948.270, 120.932
949.530, 233.988
950.791, 170.504
952.051, 385.014
953.311, 343.510
954.570, 366.498
955.830, 453.514
957.089, 379.004
958.348, 176.488
959.607, 206.967
960.866, 213.443
962.124, 96.916
963.383, 207.383
964.641, 119.883
965.899, 287.377
967.156, 349.865
968.414, 308.348
969.671, 381.824
970.928, 243.297
972.185, 288.434
973.442, 272.895
974.699, 351.350
975.955, 181.750
977.211, 471.189
978.468, 337.451
979.723, 247.787
980.979, 505.199
982.234, 390.627
983.490, 293.049
984.745, 681.465
986.000, 279.877
987.254, 542.684
988.509, 589.518
989.763, 506.668
991.017, 718.004
992.271, 578.453
993.525, 481.025
994.779, 658.027
996.032, 548.463
997.285, 747.197
998.538, 692.086
999.791, 745.846
1001.044, 750.568
1002.296, 757.256
1003.548, 692.180
1004.800, 780.535
1006.052, 746.871
1007.304, 712.643
1008.555, 735.510
1009.807, 778.031
1011.058, 759.281
1012.309, 754.510
1013.559, 795.893
1014.810, 802.113
1016.060, 644.266
1017.310, 568.746
1018.560, 662.123
1019.810, 823.662
1021.060, 470.463
1022.309, 635.012
1023.558, 766.293
1024.807, 651.088
1026.056, 900.760
1027.305, 838.914
1028.553, 1025.721
1029.801, 1082.977
1031.049, 1200.752
1032.297, 1351.926
1033.545, 1489.193
1034.793, 1605.658
1036.040, 1635.225
1037.287, 1658.062
1038.534, 1554.328
1039.781, 1458.064
1041.027, 1251.744
1042.274, 1437.564
1043.520, 1019.211
1044.766, 1280.754
1046.012, 1295.287
1047.257, 904.879
1048.503, 1001.465
1049.748, 846.570
1050.993, 1058.404
1052.238, 801.016
1053.483, 1201.410
1054.727, 981.654
1055.971, 1039.088
1057.216, 848.221
1058.459, 1010.041
1059.703, 985.150
1060.947, 1106.811
1062.190, 1025.893
1063.433, 1091.381
1064.676, 1070.861
1065.919, 967.447
1067.162, 1115.867
1068.404, 1021.475
1069.646, 1095.160
1070.888, 1024.363
1072.130, 1163.867
1073.372, 1382.223
1074.613, 1327.371
1075.855, 1368.035
1077.096, 1516.951
1078.337, 1591.555
1079.578, 1620.871
1080.818, 1852.246
1082.059, 1704.104
1083.299, 1855.170
1084.539, 1874.523
1085.779, 2046.336
1087.018, 2000.410
1088.258, 2227.316
1089.497, 2198.996
1090.736, 2214.793
1091.975, 2288.189
1093.213, 2317.908
1094.452, 2243.986
1095.690, 2151.801
1096.928, 2470.305
1098.166, 2083.455
1099.404, 2334.520
1100.642, 2224.006
1101.879, 2302.877
1103.116, 2036.723
1104.353, 2241.172
1105.590, 1894.723
1106.827, 1963.617
1108.063, 1705.295
1109.299, 1833.654
1110.536, 1405.680
1111.771, 1540.525
1113.007, 1212.664
1114.243, 1129.184
1115.478, 991.600
1116.713, 800.750
1117.948, 727.260
1119.183, 786.482
1120.418, 744.809
1121.652, 715.738
1122.886, 728.766
1124.120, 621.938
1125.354, 656.971
1126.588, 480.105
1127.821, 313.699
1129.055, 341.240
1130.288, 165.410
1131.521, 368.664
1132.753, 267.268
1133.986, 260.016
1135.218, 24.477
1136.450, 21.205
1137.682, 349.615
1138.914, 100.752
1140.146, 140.309
1141.377, 81.961
1142.609, 6.264
1143.840, 94.936
1145.071, 21.521
1146.301, 35.023
1147.532, 91.584
1148.762, 25.115
1149.992, 94.488
1151.222, 34.285
1152.452, 137.537
1153.682, 79.492
1154.911, 64.664
1156.140, 148.635
1157.369, 118.014
1158.598, 62.465
1159.827, 13.146
1161.055, 162.070
1162.284, 164.875
1163.512, 93.029
1164.740, 141.398
1165.967, 89.252
1167.195, 165.178
1168.422, 74.826
1169.650, 68.637
1170.877, 151.613
1172.103, 57.291
1173.330, 23.754
1174.557, 145.418
1175.783, 41.740
1177.009, 262.256
1178.235, 44.102
1179.461, 57.672
1180.686, 231.549
1181.912, 0.762
1183.137, 100.680
1184.362, 100.832
1185.587, 161.318
1186.811, 133.115
1188.036, 100.941
1189.260, 247.893
1190.484, 60.305
1191.708, 132.602
1192.932, 74.617
1194.155, 121.881
1195.378, 38.184
1196.602, 183.469
1197.825, 58.127
1199.047, 110.299
1200.270, 158.988
1201.492, 179.436
1202.715, 146.967
1203.937, 252.986
1205.159, 49.459
1206.380, 247.096
1207.602, 83.832
1208.823, 313.209
1210.044, 119.555
1211.265, 118.896
1212.486, 91.178
1213.707, 127.428
1214.927, 80.645
1216.147, 88.605
1217.367, 120.711
1218.587, 97.102
1219.807, 129.332
1221.027, 176.424
1222.246, 51.486
1223.465, 240.514
1224.684, 62.488
1225.903, 124.434
1227.121, 107.322
1228.340, 298.354
1229.558, 175.182
1230.776, 103.285
1231.994, 307.328
1233.212, 164.059
1234.429, 18.760
1235.646, 36.504
1236.864, 220.432
1238.081, 74.164
1239.297, 305.715
1240.514, 143.232
1241.730, 203.713
1242.947, 324.156
1244.163, 115.576
1245.378, 133.020
1246.594, 46.379
1247.810, 171.707
1249.025, 174.008
1250.240, 46.314
1251.455, 292.510
1252.670, 150.680
1253.885, 199.148
1255.099, 50.928
1256.313, 108.008
1257.527, 137.055
1258.741, 120.869
1259.955, 217.066
1261.168, 237.480
1262.382, 65.352
1263.595, 207.188
1264.808, 52.990
1266.021, 293.760
1267.233, 94.488
1268.446, 252.176
1269.658, 180.832
1270.870, 203.453
1272.082, 10.961
1273.294, 152.578
1274.505, 160.076
1275.716, 253.496
1276.928, 34.879
1278.139, 131.189
1279.349, 91.453
1280.560, 155.680
1281.770, 85.328
1282.981, 154.920
1284.191, 216.041
1285.401, 116.896
1286.610, 139.879
1287.820, 95.572
1289.029, 9.109
1290.239, 103.570
1291.448, 71.746
1292.656, 66.883
1293.865, 76.494
1295.073, 105.646
1296.282, 41.053
1297.490, 143.170
1298.698, 12.775
1299.906, 116.275
1301.113, 34.139
1302.320, 206.904
1303.528, 93.193
1304.735, 14.217
1305.942, 68.348
1307.148, 121.287
1308.355, 72.984
1309.561, 46.918
1310.767, 33.984
1311.973, 21.170
1313.179, 24.092
1314.384, 136.553
1315.590, 89.465
1316.795, 162.031
1318.000, 88.496
1319.205, 45.957
1320.410, 27.719
1321.614, 166.012
1322.819, 80.910
1324.023, 221.143
1325.227, 202.230
1326.431, 84.033
1327.634, 267.602
1328.838, 87.854
1330.041, 2.850
1331.244, 33.658
1332.447, 40.924
1333.650, 194.180
1334.852, 19.244
1336.055, 97.674
1337.257, 156.865
1338.459, 18.215
1339.661, 72.857
1340.862, 69.549
1342.064, 235.824
1343.265, 109.549
1344.466, 160.469
1345.667, 32.564
1346.868, 221.717
1348.068, 87.709
1349.269, 283.969
1350.469, 163.506
1351.669, 132.725
1352.869, 357.359
1354.069, 279.537
1355.268, 204.277
1356.468, 266.000
1357.667, 210.584
1358.866, 271.305
1360.065, 378.820
1361.263, 226.135
1362.462, 415.053
1363.660, 193.441
1364.858, 221.094
1366.056, 315.930
1367.254, 250.225
1368.451, 249.309
1369.649, 376.625
1370.846, 218.211
1372.043, 172.719
1373.240, 310.729
1374.436, 140.480
1375.633, 147.439
1376.829, 253.875
1378.025, 260.891
1379.221, 193.041
1380.417, 140.279
1381.613, 178.078
1382.808, 280.584
1384.003, 222.301
1385.199, 383.400
1386.393, 374.543
1387.588, 246.082
1388.783, 196.756
1389.977, 220.432
1391.171, 235.131
1392.365, 295.424
1393.559, 201.734
1394.753, 243.717
1395.946, 434.201
1397.140, 236.773
1398.333, 350.318
1399.526, 244.086
1400.719, 401.010
1401.911, 182.676
1403.104, 264.551
1404.296, 76.971
1405.488, 332.963
1406.680, 251.863
1407.872, 446.152
1409.063, 288.898
1410.255, 276.758
1411.446, 403.918
1412.637, 263.309
1413.828, 563.438
1415.018, 277.059
1416.209, 457.605
1417.399, 433.301
1418.589, 470.393
1419.779, 202.207
1420.969, 486.926
1422.159, 255.738
1423.348, 426.086
1424.537, 197.607
1425.726, 414.277
1426.915, 396.785
1428.104, 429.252
1429.293, 401.895
1430.481, 420.826
1431.669, 463.295
1432.857, 156.004
1434.045, 330.035
1435.233, 439.316
1436.420, 309.686
1437.608, 474.961
1438.795, 465.078
1439.982, 342.654
1441.169, 325.980
1442.355, 548.756
1443.542, 587.547
1444.728, 434.311
1445.914, 528.035
1447.100, 423.416
1448.286, 513.941
1449.472, 509.467
1450.657, 529.684
1451.842, 248.592
1453.027, 781.508
1454.212, 458.744
1455.397, 667.266
1456.581, 795.631
1457.766, 357.994
1458.950, 602.195
1460.134, 562.438
1461.318, 400.541
1462.501, 666.834
1463.685, 266.068
1464.868, 459.242
1466.051, 570.248
1467.234, 411.191
1468.417, 559.260
1469.600, 334.320
1470.782, 320.396
1471.965, 473.471
1473.147, 499.539
1474.329, 445.854
1475.510, 524.395
1476.692, 307.992
1477.873, 402.621
1479.055, 389.242
1480.236, 417.004
1481.416, 399.836
1482.597, 353.715
1483.778, 453.053
1484.958, 217.229
1486.138, 389.426
1487.318, 298.637
1488.498, 316.885
1489.678, 326.861
1490.857, 276.086
1492.037, 369.979
1493.216, 210.500
1494.395, 418.105
1495.574, 376.799
1496.752, 275.596
1497.931, 434.535
1499.109, 405.641
1500.287, 450.906
1501.465, 180.348
1502.643, 60.953
1503.820, 121.500
1504.998, 98.305
1506.175, 230.844
1507.352, 275.189
1508.529, 335.762
1509.706, 188.592
1510.882, 330.707
1512.059, 356.146
1513.235, 424.953
1514.411, 363.162
1515.587, 405.727
1516.762, 132.035
1517.938, 138.920
1519.113, 11.947
1520.288, 121.703
1521.463, 123.533
1522.638, 259.752
1523.813, 12.525
1524.987, 18.172
1526.162, 105.602
1527.336, 0.000
##END=



