##NAMES=Fluoro-richterite
##RRUFFID=R040019
##IDEAL CHEMISTRY=Na(NaCa)Mg_5_Si_8_O_22_F_2_
##LOCALITY=Wilberforce, Ontario, Canada
##OWNER=RRUFF
##SOURCE=University of Arizona Mineral Museum
##DESCRIPTION=Brown prismatic crystals
##STATUS=The identification of this mineral has been confirmed by X-ray diffraction and chemical analysis
##URL=rruff.info/R040019
##MEASURED CHEMISTRY=(Na_0.59_K_0.27_[box]_0.14_)_Σ=1_(Ca_1.30_Na_0.70_)_Σ=2_(Mg_4.67_Fe_0.17_Fe^3+^_0.10_Ti_0.03_Mn_0.02_Al_0.01_)_Σ=5_(Si_7.67_Al_0.33_)_Σ=8_(F_1.12_(OH)_0.88_)_Σ=2_; OH estimated by charge balance
177.9162, 0.0000000E+00
178.3984, 1.884521
178.8805, 0.5043950
179.3626, 1.391602
179.8447, 7.408203
180.3268, 15.57837
180.8089, 20.39966
181.2911, 18.34521
181.7732, 11.45923
182.2553, 9.945557
182.7374, 17.37964
183.2195, 21.13525
183.7016, 22.91968
184.1838, 23.48682
184.6659, 21.96143
185.1480, 17.51978
185.6301, 8.915283
186.1122, 2.798096
186.5943, 0.3110350
187.0764, 1.758789
187.5586, 1.701904
188.0407, 0.3415530
188.5228, 2.069824
189.0049, 5.914551
189.4870, 10.54785
189.9691, 12.63989
190.4513, 10.62207
190.9334, 7.515869
191.4155, 4.163574
191.8976, 0.7536620
192.3797, 0.2861330
192.8618, 4.138184
193.3440, 12.08716
193.8261, 17.77100
194.3082, 18.71753
194.7903, 18.41406
195.2724, 20.77197
195.7545, 26.18164
196.2367, 31.72852
196.7188, 35.68530
197.2009, 38.61938
197.6830, 40.96191
198.1651, 41.95801
198.6472, 43.04028
199.1294, 47.20654
199.6115, 55.86963
200.0936, 64.09619
200.5757, 69.38647
201.0578, 72.98657
201.5399, 76.29492
202.0221, 79.64673
202.5042, 83.29053
202.9863, 88.21240
203.4684, 95.29736
203.9505, 102.1060
204.4326, 107.1284
204.9148, 111.5593
205.3969, 117.3301
205.8790, 125.9460
206.3611, 136.4785
206.8432, 144.3477
207.3253, 146.5427
207.8075, 149.5369
208.2896, 155.3000
208.7717, 162.6580
209.2538, 169.9360
209.7359, 176.0703
210.2180, 181.1619
210.7002, 185.8259
211.1823, 190.9827
211.6644, 194.7029
212.1465, 195.5337
212.6286, 194.7378
213.1107, 194.2419
213.5929, 195.2244
214.0750, 197.7207
214.5571, 202.2329
215.0392, 210.4045
215.5213, 218.6777
216.0034, 225.4958
216.4856, 231.6128
216.9677, 238.7668
217.4498, 248.2974
217.9319, 259.9292
218.4140, 270.7578
218.8961, 279.8271
219.3783, 289.1479
219.8604, 299.4580
220.3425, 310.6750
220.8246, 322.5024
221.3067, 334.8894
221.7888, 347.8003
222.2710, 360.9353
222.7531, 374.1309
223.2352, 387.6357
223.7173, 401.4446
224.1994, 415.7317
224.6815, 431.2039
225.1637, 448.3647
225.6458, 465.7698
226.1279, 482.3242
226.6100, 498.0305
227.0921, 513.4463
227.5742, 529.8960
228.0564, 547.6340
228.5385, 562.1509
229.0206, 569.8970
229.5027, 572.4138
229.9848, 573.3308
230.4669, 572.2861
230.9491, 568.9939
231.4312, 564.7634
231.9133, 559.5840
232.3954, 550.5298
232.8775, 534.2554
233.3596, 514.1123
233.8418, 494.7190
234.3239, 476.8481
234.8060, 459.0825
235.2881, 439.8398
235.7702, 419.3625
236.2523, 398.4768
236.7345, 376.3440
237.2166, 354.7915
237.6987, 335.7441
238.1808, 319.7185
238.6629, 305.6597
239.1451, 292.8030
239.6272, 281.4106
240.1093, 269.7671
240.5914, 255.7644
241.0735, 242.3115
241.5556, 232.0737
242.0378, 225.6863
242.5199, 220.7083
243.0020, 213.6936
243.4841, 203.8831
243.9662, 194.8179
244.4483, 186.7852
244.9305, 179.7839
245.4126, 174.6008
245.8947, 171.3130
246.3768, 168.1096
246.8589, 162.1436
247.3410, 152.0847
247.8231, 143.3606
248.3053, 137.7053
248.7874, 132.5137
249.2695, 126.2568
249.7516, 118.6526
250.2337, 110.4119
250.7158, 102.2407
251.1980, 93.39404
251.6801, 86.73486
252.1622, 83.56958
252.6443, 81.37256
253.1264, 78.87012
253.6085, 75.83398
254.0907, 72.68579
254.5728, 70.04761
255.0549, 68.37988
255.5370, 65.75244
256.0191, 60.78027
256.5013, 56.10815
256.9834, 53.01562
257.4655, 51.68188
257.9476, 51.78906
258.4297, 53.28882
258.9118, 57.06030
259.3940, 58.41992
259.8761, 56.03882
260.3582, 52.90381
260.8403, 50.72705
261.3224, 49.37646
261.8045, 47.49292
262.2867, 43.67163
262.7688, 37.54370
263.2509, 31.95312
263.7330, 26.35181
264.2151, 21.66895
264.6972, 18.87622
265.1794, 17.56519
265.6615, 16.24951
266.1436, 13.62500
266.6257, 9.600342
267.1078, 6.754150
267.5899, 4.890625
268.0721, 4.095947
268.5542, 5.472412
269.0363, 8.137695
269.5184, 9.738037
270.0005, 8.507568
270.4826, 4.645752
270.9648, 1.187012
271.4469, 2.801270
271.9290, 5.564941
272.4111, 5.732178
272.8932, 4.121094
273.3753, 2.662109
273.8575, 2.469482
274.3396, 3.332031
274.8217, 4.142578
275.3038, 5.323975
275.7859, 6.040039
276.2680, 5.425293
276.7502, 4.179199
277.2323, 3.984375
277.7144, 5.881104
278.1965, 8.821045
278.6786, 9.441406
279.1607, 6.641846
279.6428, 4.089844
280.1249, 2.626465
280.6071, 2.071533
281.0892, 2.392090
281.5713, 3.783447
282.0534, 5.371582
282.5355, 5.167725
283.0176, 2.661377
283.4998, 0.5837400
283.9819, 6.3965000E-02
284.4640, 5.0537001E-02
284.9461, 0.2268070
285.4282, 1.293701
285.9103, 2.328369
286.3925, 1.923828
286.8746, 4.9805000E-02
287.3567, 1.687256
287.8388, 2.614746
288.3209, 3.001465
288.8030, 2.976563
289.2852, 2.529053
289.7673, 1.896729
290.2494, 1.370117
290.7315, 0.9177250
291.2136, 0.1772460
291.6957, 0.6982420
292.1779, 2.029297
292.6600, 4.270020
293.1421, 7.471924
293.6242, 11.07544
294.1063, 14.79590
294.5884, 18.56543
295.0706, 21.94116
295.5527, 24.41602
296.0348, 26.78467
296.5169, 29.88989
296.9990, 33.69531
297.4811, 37.29419
297.9633, 40.03760
298.4454, 42.09229
298.9275, 44.19360
299.4096, 46.69263
299.8917, 48.83521
300.3738, 49.68750
300.8560, 49.47437
301.3381, 49.87329
301.8202, 52.09326
302.3023, 55.04541
302.7844, 56.38599
303.2665, 55.17773
303.7487, 54.60571
304.2308, 56.89551
304.7129, 61.39453
305.1950, 66.01831
305.6771, 70.59717
306.1592, 74.28003
306.6414, 75.65381
307.1235, 74.58667
307.6056, 73.42285
308.0877, 73.06274
308.5698, 73.35645
309.0519, 73.81445
309.5341, 74.13135
310.0162, 75.13647
310.4983, 78.87598
310.9804, 84.85132
311.4625, 88.71191
311.9446, 87.85254
312.4268, 84.43701
312.9089, 81.63208
313.3910, 79.76587
313.8731, 78.32080
314.3552, 77.43311
314.8373, 76.68555
315.3195, 74.64087
315.8016, 68.75708
316.2837, 62.73584
316.7658, 61.20239
317.2479, 64.34399
317.7300, 67.93604
318.2122, 70.11719
318.6943, 70.70435
319.1764, 69.54028
319.6585, 66.01660
320.1406, 61.52319
320.6227, 56.75391
321.1049, 51.80859
321.5870, 47.06274
322.0691, 42.09766
322.5512, 38.12671
323.0333, 37.44238
323.5154, 41.32935
323.9976, 44.39038
324.4797, 42.57104
324.9618, 37.49731
325.4439, 34.29053
325.9260, 34.81055
326.4081, 36.84717
326.8903, 37.33521
327.3724, 36.23779
327.8545, 35.61328
328.3366, 36.14429
328.8187, 37.48706
329.3008, 39.19336
329.7830, 41.37842
330.2651, 43.65039
330.7472, 45.69458
331.2293, 47.49219
331.7114, 48.83984
332.1935, 48.65845
332.6757, 48.53857
333.1578, 51.03345
333.6399, 56.28296
334.1220, 60.16846
334.6041, 59.44336
335.0862, 55.06689
335.5684, 51.48706
336.0505, 48.11377
336.5326, 46.32861
337.0147, 48.34302
337.4968, 53.29272
337.9789, 57.01782
338.4611, 57.10327
338.9432, 55.30225
339.4253, 55.55615
339.9074, 58.10645
340.3895, 61.65576
340.8716, 67.00171
341.3538, 72.94214
341.8359, 77.05176
342.3180, 78.59326
342.8001, 78.28320
343.2822, 76.48999
343.7643, 72.99414
344.2465, 70.32910
344.7286, 69.04810
345.2107, 68.67944
345.6928, 69.22290
346.1749, 70.69067
346.6570, 71.87695
347.1392, 71.53223
347.6213, 69.59521
348.1034, 68.33228
348.5855, 68.42358
349.0676, 68.60205
349.5497, 67.54419
350.0319, 65.61060
350.5140, 64.73779
350.9961, 66.41382
351.4782, 69.87671
351.9603, 71.54077
352.4424, 70.41138
352.9246, 69.07178
353.4067, 68.24341
353.8888, 67.76538
354.3709, 67.21460
354.8530, 66.38354
355.3351, 65.77393
355.8173, 66.45264
356.2994, 69.18726
356.7815, 71.49951
357.2636, 72.82031
357.7457, 73.84497
358.2278, 74.82812
358.7100, 75.94824
359.1921, 78.26636
359.6742, 83.41992
360.1563, 92.46240
360.6384, 97.30786
361.1205, 94.35010
361.6027, 90.90991
362.0848, 90.45093
362.5669, 92.92871
363.0490, 97.46387
363.5311, 103.8381
364.0132, 111.4956
364.4954, 115.6863
364.9775, 113.4250
365.4596, 111.4260
365.9417, 110.3772
366.4238, 110.5273
366.9059, 112.6045
367.3881, 116.8984
367.8702, 122.0122
368.3523, 125.1062
368.8344, 125.1863
369.3165, 124.6094
369.7986, 120.9395
370.2808, 118.3350
370.7629, 121.1633
371.2450, 129.2104
371.7271, 137.8203
372.2092, 141.8330
372.6913, 140.5540
373.1735, 139.3447
373.6556, 139.0415
374.1377, 138.0020
374.6198, 134.9961
375.1019, 130.8123
375.5840, 126.9536
376.0662, 124.2854
376.5483, 122.8669
377.0304, 123.1497
377.5125, 127.1389
377.9946, 129.9399
378.4767, 129.8928
378.9589, 128.8025
379.4410, 128.3508
379.9231, 129.1084
380.4052, 130.7334
380.8873, 133.1655
381.3694, 137.2815
381.8516, 139.1877
382.3337, 136.3240
382.8158, 133.0283
383.2979, 131.8269
383.7800, 132.4702
384.2621, 132.8572
384.7443, 130.9202
385.2264, 126.9204
385.7085, 124.1929
386.1906, 124.2490
386.6727, 123.3984
387.1548, 119.4417
387.6370, 114.0308
388.1191, 109.4553
388.6012, 106.8357
389.0833, 105.5718
389.5654, 104.6370
390.0475, 104.0212
390.5297, 103.7832
391.0118, 104.5203
391.4939, 105.2993
391.9760, 105.6597
392.4581, 105.5498
392.9402, 104.4790
393.4224, 101.3530
393.9045, 96.62305
394.3866, 92.47241
394.8687, 88.52588
395.3508, 86.38599
395.8329, 88.54492
396.3151, 93.66919
396.7972, 97.42456
397.2793, 98.44019
397.7614, 97.10693
398.2435, 92.85156
398.7256, 85.37061
399.2078, 79.53809
399.6899, 79.42896
400.1720, 82.48779
400.6541, 82.80908
401.1362, 78.75293
401.6183, 74.45776
402.1004, 73.29663
402.5826, 73.99341
403.0647, 72.34277
403.5468, 66.35767
404.0289, 59.03247
404.5110, 55.64673
404.9931, 56.81543
405.4753, 56.20337
405.9574, 50.62891
406.4395, 44.00952
406.9216, 39.95190
407.4037, 38.74609
407.8858, 39.37305
408.3680, 41.62427
408.8501, 45.17139
409.3322, 46.00024
409.8143, 42.55054
410.2964, 38.59912
410.7785, 34.92114
411.2607, 31.77002
411.7428, 29.68555
412.2249, 28.93701
412.7070, 28.80420
413.1891, 27.83667
413.6712, 25.27588
414.1534, 23.27466
414.6355, 21.59375
415.1176, 20.63599
415.5997, 20.76123
416.0818, 21.94141
416.5639, 23.98877
417.0461, 26.81958
417.5282, 30.41895
418.0103, 33.89185
418.4924, 36.31836
418.9745, 38.96411
419.4566, 43.71558
419.9388, 48.86841
420.4209, 51.80859
420.9030, 51.33716
421.3851, 48.90039
421.8672, 47.17847
422.3493, 45.77637
422.8315, 46.21265
423.3136, 49.71729
423.7957, 54.12769
424.2778, 58.82422
424.7599, 63.40454
425.2420, 66.88330
425.7242, 68.17261
426.2063, 67.48560
426.6884, 66.59155
427.1705, 64.81128
427.6526, 64.04443
428.1347, 66.10938
428.6169, 69.30957
429.0990, 71.33057
429.5811, 71.46387
430.0632, 70.01001
430.5453, 66.55469
431.0274, 61.03125
431.5096, 57.47144
431.9917, 58.28882
432.4738, 60.31616
432.9559, 60.28296
433.4380, 58.13452
433.9201, 55.21826
434.4023, 51.61206
434.8844, 47.94287
435.3665, 45.83789
435.8486, 45.69751
436.3307, 44.48779
436.8128, 38.98584
437.2950, 30.52466
437.7771, 24.94067
438.2592, 24.13770
438.7413, 24.31860
439.2234, 24.03247
439.7055, 23.17188
440.1877, 21.22607
440.6698, 17.84302
441.1519, 14.08984
441.6340, 11.78784
442.1161, 11.51978
442.5982, 10.56274
443.0804, 8.562256
443.5625, 6.027344
444.0446, 2.317139
444.5267, 1.888916
445.0088, 3.919189
445.4909, 1.321777
445.9731, 5.185547
446.4552, 8.596924
446.9373, 6.385498
447.4194, 4.079102
447.9015, 2.749756
448.3836, 1.590820
448.8658, 0.8571780
449.3479, 4.841797
449.8300, 8.541992
450.3121, 8.923096
450.7942, 4.684326
451.2763, 2.037842
451.7585, 2.384766
452.2406, 3.063477
452.7227, 3.236816
453.2048, 2.940674
453.6869, 2.382568
454.1690, 1.522705
454.6512, 0.7158200
455.1333, 1.074463
455.6154, 3.151367
456.0975, 4.737549
456.5796, 4.523438
457.0617, 3.906006
457.5439, 4.184082
458.0260, 5.530518
458.5081, 6.438232
458.9902, 5.011475
459.4723, 2.124756
459.9544, 1.455322
460.4366, 4.409424
460.9187, 6.698242
461.4008, 3.551270
461.8829, 2.809814
462.3650, 6.864502
462.8471, 6.367920
463.3293, 4.710693
463.8114, 4.402100
464.2935, 5.079102
464.7756, 5.397949
465.2577, 4.832520
465.7398, 3.774170
466.2220, 2.700439
466.7041, 1.355957
467.1862, 0.9841310
467.6683, 2.688965
468.1504, 4.700684
468.6325, 5.390625
469.1147, 4.854248
469.5968, 4.162109
470.0789, 3.957031
470.5610, 4.316650
471.0431, 5.822266
471.5252, 11.67432
472.0074, 14.67700
472.4895, 12.40576
472.9716, 7.818115
473.4537, 3.456543
473.9358, 0.1096190
474.4179, 2.443359
474.9001, 4.678955
475.3822, 6.844482
475.8643, 6.508789
476.3464, 1.2939000E-02
476.8285, 5.112061
477.3106, 5.604248
477.7928, 3.326416
478.2749, 1.322998
478.7570, 0.8986820
479.2391, 1.457764
479.7212, 1.817139
480.2033, 1.795166
480.6855, 3.239258
481.1676, 8.161133
481.6497, 13.14087
482.1318, 15.40820
482.6139, 15.14062
483.0960, 14.06934
483.5782, 12.53564
484.0603, 10.89868
484.5424, 9.978271
485.0245, 9.839600
485.5066, 9.051514
485.9887, 6.338135
486.4709, 2.738037
486.9530, 0.9570310
487.4351, 1.508545
487.9172, 2.604492
488.3993, 4.534424
488.8814, 6.302979
489.3636, 6.015137
489.8457, 3.457275
490.3278, 0.9343260
490.8099, 0.6674800
491.2920, 2.737061
491.7741, 5.001465
492.2563, 8.856201
492.7384, 11.27783
493.2205, 9.708008
493.7026, 6.670654
494.1847, 6.110352
494.6668, 9.401123
495.1490, 14.00366
495.6311, 15.75952
496.1132, 13.56299
496.5953, 12.06738
497.0774, 12.75000
497.5595, 12.74878
498.0417, 9.444336
498.5238, 4.638428
499.0059, 2.465820
499.4880, 5.787354
499.9701, 11.68140
500.4522, 13.96411
500.9344, 11.96753
501.4165, 10.68115
501.8986, 11.65674
502.3807, 13.70752
502.8628, 16.11694
503.3449, 18.93262
503.8271, 20.94580
504.3092, 20.92822
504.7913, 20.03320
505.2734, 19.82178
505.7555, 20.39111
506.2376, 22.05273
506.7198, 25.49414
507.2019, 29.75952
507.6840, 32.12012
508.1661, 31.65015
508.6482, 32.02563
509.1303, 35.47437
509.6125, 39.29639
510.0946, 39.35059
510.5767, 35.56763
511.0588, 32.96289
511.5409, 36.67700
512.0230, 46.63379
512.5051, 52.59839
512.9872, 49.82495
513.4694, 48.55029
513.9515, 52.08374
514.4336, 57.51709
514.9157, 61.57397
515.3978, 63.26538
515.8799, 63.70532
516.3621, 64.01099
516.8442, 64.19287
517.3263, 65.76514
517.8084, 69.00122
518.2905, 72.93726
518.7726, 78.99194
519.2548, 85.42603
519.7369, 88.49731
520.2190, 85.91406
520.7011, 81.58447
521.1832, 79.99731
521.6653, 80.75977
522.1475, 80.76099
522.6296, 79.18335
523.1117, 76.84497
523.5938, 74.92725
524.0759, 73.26196
524.5580, 70.03931
525.0402, 62.69409
525.5223, 55.69556
526.0044, 53.43164
526.4865, 54.26221
526.9686, 52.67432
527.4507, 46.00439
527.9329, 37.65137
528.4150, 34.05176
528.8971, 37.48730
529.3792, 40.82227
529.8613, 45.01611
530.3434, 48.09204
530.8256, 48.69653
531.3077, 47.34106
531.7898, 45.31250
532.2719, 43.30225
532.7540, 41.23438
533.2361, 38.63892
533.7183, 34.95630
534.2004, 33.18848
534.6825, 37.67627
535.1646, 40.60181
535.6467, 34.87744
536.1288, 22.31030
536.6110, 12.73462
537.0931, 14.60254
537.5752, 21.95532
538.0573, 23.08740
538.5394, 17.75464
539.0215, 13.36182
539.5037, 13.77222
539.9858, 16.32202
540.4679, 15.67651
540.9500, 10.80737
541.4321, 7.766846
541.9142, 10.46997
542.3964, 14.94800
542.8785, 16.50366
543.3606, 15.03101
543.8427, 13.53296
544.3248, 14.04858
544.8069, 16.07739
545.2891, 17.71948
545.7712, 19.34717
546.2533, 20.16528
546.7354, 19.49512
547.2175, 18.25073
547.6996, 16.67188
548.1818, 14.79614
548.6639, 13.54102
549.1460, 13.70630
549.6281, 14.89795
550.1102, 15.40308
550.5923, 14.42871
551.0745, 13.62305
551.5566, 14.57666
552.0387, 15.37720
552.5208, 13.65796
553.0029, 9.418701
553.4850, 6.849121
553.9672, 10.26392
554.4493, 16.02466
554.9314, 17.05029
555.4135, 13.04248
555.8956, 10.83594
556.3777, 15.30615
556.8599, 23.15796
557.3420, 25.06323
557.8241, 18.13257
558.3062, 12.68433
558.7883, 11.29492
559.2704, 11.91138
559.7526, 13.00366
560.2347, 14.26831
560.7168, 15.75757
561.1989, 17.44971
561.6810, 19.39429
562.1631, 22.06104
562.6453, 27.10547
563.1274, 29.77417
563.6095, 27.10669
564.0916, 24.00293
564.5737, 25.11206
565.0558, 29.72827
565.5380, 32.45288
566.0201, 28.26538
566.5022, 20.05786
566.9843, 15.82202
567.4664, 16.27148
567.9485, 16.02051
568.4307, 12.13110
568.9128, 7.409668
569.3949, 6.009766
569.8770, 8.289551
570.3591, 9.892578
570.8412, 7.694824
571.3234, 5.333008
571.8055, 7.610840
572.2876, 13.72363
572.7697, 18.68506
573.2518, 19.76318
573.7339, 17.84961
574.2161, 15.02783
574.6982, 8.736816
575.1803, 6.107910
575.6624, 10.15869
576.1445, 14.92822
576.6266, 16.40234
577.1088, 15.41699
577.5909, 15.25684
578.0730, 18.06152
578.5551, 22.12842
579.0372, 23.61426
579.5193, 22.11377
580.0015, 20.12354
580.4836, 17.05762
580.9657, 14.80469
581.4478, 15.21436
581.9299, 17.73828
582.4120, 19.92285
582.8942, 20.18213
583.3763, 20.33008
583.8584, 23.56738
584.3405, 28.50928
584.8226, 29.34570
585.3047, 23.63525
585.7869, 15.35254
586.2690, 9.385742
586.7511, 5.526367
587.2332, 6.123047
587.7153, 16.28662
588.1974, 25.13477
588.6796, 26.97998
589.1617, 24.79297
589.6438, 24.13086
590.1259, 26.91455
590.6080, 29.68896
591.0901, 26.80225
591.5723, 17.44385
592.0544, 10.00830
592.5365, 4.419434
593.0186, 1.117676
593.5007, 0.5024410
593.9828, 1.942871
594.4650, 5.217285
594.9471, 11.12158
595.4292, 15.39355
595.9113, 13.73682
596.3934, 8.142090
596.8755, 2.712402
597.3577, 1.978027
597.8398, 4.917480
598.3219, 4.708008
598.8040, 2.015625
599.2861, 1.565430
599.7682, 6.128906
600.2504, 8.814453
600.7325, 7.026855
601.2146, 3.846191
601.6967, 1.818359
602.1788, 1.339844
602.6609, 1.870605
603.1431, 3.208008
603.6252, 4.986328
604.1073, 5.646484
604.5894, 5.188965
605.0715, 3.621094
605.5536, 1.376465
606.0358, 5.711914
606.5179, 5.276367
607.0000, 0.6137700
607.4821, 2.741699
607.9642, 1.161133
608.4464, 2.461426
608.9285, 5.367676
609.4106, 7.360840
609.8927, 7.044434
610.3748, 3.456055
610.8569, 1.184570
611.3391, 3.507813
611.8212, 2.653320
612.3033, 2.431641
612.7854, 3.319336
613.2675, 4.303223
613.7496, 5.767090
614.2318, 6.744629
614.7139, 5.277344
615.1960, 0.7792970
615.6781, 4.171875
616.1602, 5.669434
616.6423, 3.511230
617.1245, 2.674316
617.6066, 3.833008
618.0887, 5.257324
618.5708, 6.439941
619.0529, 7.239258
619.5350, 7.377930
620.0172, 6.708496
620.4993, 5.855957
620.9814, 4.632813
621.4635, 3.686035
621.9456, 4.451172
622.4277, 6.893066
622.9099, 9.012207
623.3920, 9.417969
623.8741, 8.669922
624.3562, 8.720703
624.8383, 11.20312
625.3204, 12.07275
625.8026, 8.993652
626.2847, 6.333984
626.7668, 7.721191
627.2489, 12.01562
627.7310, 15.51123
628.2131, 16.02490
628.6953, 14.87842
629.1774, 14.26807
629.6595, 14.25098
630.1416, 14.96631
630.6237, 16.65674
631.1058, 18.59326
631.5880, 20.30957
632.0701, 21.79248
632.5522, 22.94092
633.0343, 24.08301
633.5164, 24.55420
633.9985, 23.80908
634.4807, 22.18359
634.9628, 19.24365
635.4449, 15.33496
635.9270, 13.66455
636.4091, 17.69385
636.8912, 26.65381
637.3734, 31.93750
637.8555, 31.47998
638.3376, 30.56055
638.8197, 28.64746
639.3018, 27.66455
639.7839, 29.78760
640.2661, 34.59082
640.7482, 39.18408
641.2303, 41.98486
641.7124, 43.41406
642.1945, 43.63818
642.6766, 42.79248
643.1588, 42.65674
643.6409, 44.03418
644.1230, 45.61328
644.6051, 45.60791
645.0872, 43.77393
645.5693, 43.03369
646.0515, 42.75537
646.5336, 44.17188
647.0157, 49.71338
647.4978, 56.40234
647.9799, 59.75049
648.4620, 58.96875
648.9442, 57.64111
649.4263, 59.61035
649.9084, 64.49023
650.3905, 68.62549
650.8726, 71.69873
651.3547, 74.82715
651.8369, 77.76318
652.3190, 81.58105
652.8011, 87.92773
653.2832, 96.87695
653.7653, 104.7754
654.2474, 109.3550
654.7296, 112.9448
655.2117, 117.5435
655.6938, 122.9858
656.1759, 128.6436
656.6580, 134.3755
657.1401, 139.5278
657.6223, 142.5508
658.1044, 142.5308
658.5865, 146.9385
659.0686, 159.5688
659.5507, 172.6431
660.0328, 183.9419
660.5150, 194.5898
660.9971, 205.7769
661.4792, 217.7075
661.9613, 230.6152
662.4434, 244.8408
662.9255, 260.1270
663.4077, 276.1470
663.8898, 292.6182
664.3719, 307.7227
664.8540, 320.0112
665.3361, 331.2896
665.8182, 345.3291
666.3004, 362.8589
666.7825, 380.8740
667.2646, 399.4961
667.7467, 418.5049
668.2288, 436.9209
668.7109, 455.8506
669.1931, 477.0952
669.6752, 501.5566
670.1573, 528.4302
670.6394, 557.3701
671.1215, 588.2056
671.6036, 617.8550
672.0858, 646.0796
672.5679, 673.5356
673.0500, 699.0581
673.5321, 724.7695
674.0142, 754.5337
674.4963, 789.1294
674.9785, 822.4131
675.4606, 853.8052
675.9427, 882.0322
676.4248, 905.1382
676.9069, 924.0796
677.3890, 941.9272
677.8712, 959.9268
678.3533, 974.9434
678.8354, 982.7710
679.3175, 983.3784
679.7996, 976.9131
680.2817, 962.3926
680.7639, 941.9043
681.2460, 915.4414
681.7281, 884.3706
682.2102, 849.7212
682.6923, 811.4702
683.1744, 770.7012
683.6566, 727.5356
684.1387, 682.3184
684.6208, 632.9072
685.1029, 581.1895
685.5850, 533.9697
686.0671, 494.5527
686.5493, 460.2031
687.0314, 426.6533
687.5135, 393.7852
687.9956, 363.0552
688.4777, 334.9258
688.9598, 308.5381
689.4420, 283.5356
689.9241, 260.2051
690.4062, 238.4922
690.8883, 218.5425
691.3704, 202.0557
691.8525, 192.4302
692.3347, 186.2505
692.8168, 175.9561
693.2989, 161.8726
693.7810, 151.2446
694.2631, 147.8315
694.7452, 145.7651
695.2274, 136.2085
695.7095, 117.1157
696.1916, 102.9849
696.6737, 96.79785
697.1558, 91.60303
697.6379, 85.69385
698.1201, 79.42383
698.6022, 73.08203
699.0843, 66.86670
699.5664, 61.38232
700.0485, 57.14893
700.5306, 54.00098
701.0128, 51.50732
701.4949, 49.66455
701.9770, 48.85645
702.4591, 49.67041
702.9412, 50.63037
703.4233, 50.05957
703.9055, 47.85010
704.3876, 44.89795
704.8697, 40.78076
705.3518, 36.38916
705.8339, 30.52148
706.3160, 25.39160
706.7982, 24.18311
707.2803, 26.78711
707.7624, 30.01807
708.2445, 31.59766
708.7266, 31.68262
709.2087, 30.33008
709.6909, 27.38574
710.1730, 24.80029
710.6550, 22.59668
711.1371, 22.11670
711.6193, 25.39209
712.1014, 31.66797
712.5835, 36.92188
713.0656, 40.87842
713.5477, 43.96436
714.0298, 46.94238
714.5120, 48.78320
714.9941, 48.16309
715.4762, 45.21143
715.9583, 40.72021
716.4404, 34.82422
716.9225, 29.33496
717.4047, 29.04150
717.8868, 34.43359
718.3689, 37.97168
718.8510, 38.52148
719.3331, 37.86670
719.8152, 35.91992
720.2974, 33.89404
720.7795, 35.12549
721.2616, 41.49121
721.7437, 47.98242
722.2258, 53.56787
722.7079, 57.82568
723.1901, 60.79443
723.6722, 62.23340
724.1543, 60.62891
724.6364, 55.04199
725.1185, 48.66113
725.6006, 48.15967
726.0828, 54.23340
726.5649, 55.37549
727.0470, 48.30078
727.5291, 42.15967
728.0112, 42.90918
728.4933, 46.93652
728.9755, 48.60645
729.4576, 47.37842
729.9397, 45.62109
730.4218, 42.35938
730.9039, 39.81445
731.3860, 40.50732
731.8682, 43.32910
732.3503, 45.40625
732.8324, 45.83154
733.3145, 46.86084
733.7966, 52.52246
734.2787, 62.08105
734.7609, 63.75098
735.2430, 55.06396
735.7251, 45.98535
736.2072, 39.03906
736.6893, 34.10059
737.1714, 31.02832
737.6536, 29.77637
738.1357, 29.54004
738.6178, 31.66211
739.0999, 33.10693
739.5820, 30.77783
740.0641, 27.37402
740.5463, 27.10303
741.0284, 30.46436
741.5105, 34.78467
741.9926, 38.24609
742.4747, 40.37549
742.9568, 38.95117
743.4390, 33.21484
743.9211, 28.77686
744.4032, 26.96289
744.8853, 25.89941
745.3674, 24.51270
745.8495, 22.71484
746.3317, 20.06348
746.8138, 16.16553
747.2959, 12.08936
747.7780, 7.060059
748.2601, 2.936035
748.7422, 1.638672
749.2244, 2.601074
749.7065, 4.836914
750.1886, 7.881836
750.6707, 11.64111
751.1528, 15.43018
751.6349, 19.05615
752.1171, 19.86572
752.5992, 16.54834
753.0813, 14.46143
753.5634, 17.48633
754.0455, 22.72900
754.5276, 24.20459
755.0098, 20.99170
755.4919, 18.81836
755.9740, 20.45117
756.4561, 21.09912
756.9382, 16.38623
757.4203, 9.672852
757.9025, 6.429688
758.3846, 7.802734
758.8667, 10.44678
759.3488, 11.39795
759.8309, 11.16016
760.3130, 11.22754
760.7952, 11.60938
761.2773, 11.63477
761.7594, 10.96729
762.2415, 10.26221
762.7236, 10.47705
763.2057, 11.54346
763.6879, 10.99121
764.1700, 7.305664
764.6521, 4.206543
765.1342, 2.220215
765.6163, 1.143066
766.0984, 1.758301
766.5806, 3.151855
767.0627, 2.727051
767.5448, 1.142578
768.0269, 5.884766
768.5090, 8.782715
768.9911, 9.952148
769.4733, 9.407227
769.9554, 7.124512
770.4375, 4.984863
770.9196, 4.075195
771.4017, 3.967285
771.8839, 3.799805
772.3660, 3.578613
772.8481, 3.296387
773.3302, 2.446777
773.8123, 2.083496
774.2944, 3.754395
774.7766, 5.495605
775.2587, 4.158691
775.7408, 0.5327150
776.2229, 3.998535
776.7050, 2.068359
777.1871, 1.560547
777.6693, 2.233398
778.1514, 0.8007810
778.6335, 0.2812500
779.1156, 1.459473
779.5977, 2.469238
780.0798, 1.473633
780.5620, 1.275879
781.0441, 4.464355
781.5262, 9.231934
782.0083, 11.62793
782.4904, 8.704102
782.9725, 5.656250
783.4547, 6.306152
783.9368, 9.189453
784.4189, 10.55518
784.9010, 9.233887
785.3831, 7.378418
785.8652, 5.826660
786.3474, 4.347656
786.8295, 1.603027
787.3116, 1.311523
787.7937, 0.2875980
788.2758, 6.405762
788.7579, 13.63867
789.2401, 13.20605
789.7222, 5.565430
790.2043, 0.9721680
790.6864, 0.1352540
791.1685, 8.1055000E-02
791.6506, 1.206055
792.1328, 2.890625
792.6149, 4.667480
793.0970, 6.527344
793.5791, 9.063965
794.0612, 14.36621
794.5433, 17.71924
795.0255, 16.28662
795.5076, 13.21484
795.9897, 11.10303
796.4718, 10.41357
796.9539, 11.06738
797.4360, 13.51660
797.9182, 15.79395
798.4003, 14.57812
798.8824, 10.77734
799.3645, 8.085938
799.8466, 6.958008
800.3287, 5.774414
800.8109, 3.210449
801.2930, 0.8105470
801.7751, 2.302734
802.2572, 9.632324
802.7393, 14.12842
803.2214, 14.28711
803.7036, 13.24414
804.1857, 11.44336
804.6678, 9.091309
805.1499, 5.630371
805.6320, 1.303711
806.1141, 0.7910160
806.5963, 3.401367
807.0784, 7.357910
807.5605, 3.218750
808.0426, 3.703125
808.5247, 1.049805
809.0068, 11.93994
809.4890, 22.53076
809.9711, 20.95508
810.4532, 12.09668
810.9353, 8.833984
811.4174, 11.84766
811.8995, 15.57617
812.3817, 20.18896
812.8638, 24.04443
813.3459, 26.48047
813.8280, 27.60059
814.3101, 27.37451
814.7922, 25.18115
815.2744, 24.03662
815.7565, 25.71387
816.2386, 26.93652
816.7207, 25.52490
817.2028, 22.81152
817.6849, 20.03906
818.1671, 17.79932
818.6492, 17.42773
819.1313, 20.75293
819.6134, 25.50732
820.0955, 28.22314
820.5776, 29.11328
821.0598, 28.66895
821.5419, 27.10254
822.0240, 26.48877
822.5061, 28.20264
822.9882, 31.26807
823.4703, 34.16113
823.9525, 39.13330
824.4346, 39.49365
824.9167, 30.78271
825.3988, 22.68018
825.8809, 18.83984
826.3630, 17.68262
826.8452, 17.87061
827.3273, 19.46826
827.8094, 19.60889
828.2915, 14.50977
828.7736, 9.476563
829.2557, 8.902344
829.7379, 11.30664
830.2200, 14.79639
830.7021, 18.57471
831.1842, 21.43359
831.6663, 22.26270
832.1484, 21.80859
832.6306, 21.75977
833.1127, 22.28955
833.5948, 23.81348
834.0769, 26.43799
834.5590, 28.00928
835.0411, 26.70166
835.5233, 23.47510
836.0054, 20.51709
836.4875, 17.02002
836.9696, 15.73584
837.4517, 19.02295
837.9338, 21.53955
838.4160, 20.55225
838.8981, 18.42578
839.3802, 17.97266
839.8623, 19.34375
840.3444, 20.72510
840.8265, 20.77588
841.3087, 21.13330
841.7908, 24.10986
842.2729, 27.97607
842.7550, 29.63916
843.2371, 28.95947
843.7192, 27.85547
844.2014, 27.50781
844.6835, 27.42480
845.1656, 26.27539
845.6477, 24.27588
846.1298, 24.20361
846.6119, 26.77832
847.0941, 28.16260
847.5762, 26.11914
848.0583, 22.70850
848.5404, 21.05615
849.0225, 21.53809
849.5046, 20.64844
849.9868, 16.69092
850.4689, 13.47363
850.9510, 11.20166
851.4331, 10.48682
851.9152, 13.37207
852.3973, 18.21875
852.8795, 19.93994
853.3616, 15.38721
853.8437, 11.23389
854.3258, 13.73389
854.8079, 19.28857
855.2900, 23.83301
855.7722, 26.59668
856.2543, 26.50488
856.7364, 23.15039
857.2185, 17.98584
857.7006, 12.15137
858.1827, 6.099609
858.6649, 3.515137
859.1470, 4.812988
859.6291, 6.854492
860.1112, 9.514648
860.5933, 11.21924
861.0754, 10.26221
861.5576, 7.180664
862.0397, 4.728516
862.5218, 3.325684
863.0039, 1.845215
863.4860, 1.627441
863.9681, 3.390137
864.4503, 1.235352
864.9324, 7.864746
865.4145, 9.183105
865.8966, 3.536133
866.3787, 0.3178710
866.8608, 4.909668
867.3430, 11.62842
867.8251, 12.81299
868.3072, 10.15869
868.7893, 5.910645
869.2714, 1.276367
869.7535, 0.2666020
870.2357, 4.193848
870.7178, 10.99463
871.1999, 11.90625
871.6820, 7.137207
872.1641, 4.545898
872.6462, 4.887695
873.1284, 6.684570
873.6105, 9.921875
874.0926, 13.17822
874.5747, 14.27930
875.0568, 13.14551
875.5389, 10.86426
876.0211, 5.161621
876.5032, 1.373047
876.9853, 2.058594
877.4674, 3.407227
877.9495, 2.711426
878.4316, 0.2358400
878.9138, 3.076660
879.3959, 8.155762
879.8780, 10.62207
880.3601, 6.375977
880.8422, 3.0273000E-02
881.3243, 5.548828
881.8065, 9.334473
882.2886, 9.953125
882.7707, 7.255371
883.2528, 3.984375
883.7349, 2.833008
884.2170, 2.780273
884.6992, 0.7690430
885.1813, 2.699219
885.6634, 3.017578
886.1455, 0.8764650
886.6276, 4.405273
887.1097, 4.208984
887.5919, 1.890625
888.0740, 1.672852
888.5561, 4.499023
889.0382, 5.685059
889.5203, 4.236816
890.0024, 2.750488
890.4846, 2.232422
890.9667, 2.053711
891.4488, 1.046875
891.9309, 0.5932620
892.4130, 0.2231450
892.8951, 4.992676
893.3773, 9.013184
893.8594, 9.510742
894.3415, 8.552734
894.8236, 7.386230
895.3057, 6.302734
895.7878, 5.330566
896.2700, 4.469238
896.7521, 4.234375
897.2342, 6.101563
897.7163, 8.152344
898.1984, 7.011230
898.6805, 3.787109
899.1627, 1.828125
899.6448, 1.927734
900.1269, 2.826172
900.6090, 3.400879
901.0911, 4.223145
901.5732, 7.264160
902.0554, 12.58252
902.5375, 15.96436
903.0196, 16.48340
903.5017, 17.90088
903.9838, 22.95996
904.4659, 28.38281
904.9481, 28.54395
905.4302, 22.72314
905.9123, 18.61621
906.3944, 17.05371
906.8765, 16.00195
907.3586, 14.98096
907.8408, 14.46777
908.3229, 14.78418
908.8050, 15.84619
909.2871, 17.31006
909.7692, 18.68896
910.2513, 21.83936
910.7335, 29.41943
911.2156, 36.95654
911.6977, 41.92725
912.1798, 44.31641
912.6619, 43.68604
913.1440, 40.48779
913.6262, 37.24072
914.1083, 35.38477
914.5904, 34.84180
915.0725, 36.63086
915.5546, 39.38574
916.0367, 39.16211
916.5189, 36.06836
917.0010, 33.90186
917.4831, 34.59229
917.9652, 36.27588
918.4473, 36.07471
918.9294, 34.22998
919.4116, 33.03174
919.8937, 32.14893
920.3758, 34.57422
920.8579, 41.87939
921.3400, 50.25488
921.8221, 57.77295
922.3043, 64.26123
922.7864, 69.31445
923.2685, 73.00830
923.7506, 75.08789
924.2327, 75.17285
924.7148, 74.32617
925.1970, 72.02881
925.6791, 68.96582
926.1612, 65.84814
926.6433, 62.79248
927.1254, 60.02393
927.6075, 57.26709
928.0897, 55.43604
928.5718, 55.31250
929.0539, 55.81885
929.5360, 56.10254
930.0181, 56.25391
930.5002, 56.99707
930.9824, 58.52637
931.4645, 59.15771
931.9466, 55.56348
932.4287, 52.25781
932.9108, 55.37012
933.3929, 61.64404
933.8751, 65.43457
934.3572, 65.78076
934.8393, 64.96924
935.3214, 64.50879
935.8035, 63.22705
936.2856, 57.39014
936.7678, 48.13330
937.2499, 46.23193
937.7320, 52.25977
938.2141, 55.53711
938.6962, 51.84180
939.1783, 46.72949
939.6605, 46.63916
940.1426, 50.42432
940.6247, 50.46777
941.1068, 44.15723
941.5889, 42.53223
942.0710, 49.54150
942.5532, 56.10596
943.0353, 57.47754
943.5174, 55.79346
943.9995, 53.73877
944.4816, 50.90527
944.9637, 49.58691
945.4459, 53.24219
945.9280, 53.76709
946.4101, 44.63770
946.8922, 36.02637
947.3743, 37.75439
947.8564, 45.38037
948.3386, 47.47314
948.8207, 40.31445
949.3028, 34.49609
949.7849, 36.67773
950.2670, 39.97217
950.7491, 38.08057
951.2313, 34.70264
951.7134, 36.55371
952.1955, 43.11719
952.6776, 47.68164
953.1597, 46.34570
953.6418, 42.73926
954.1240, 40.52539
954.6061, 38.94775
955.0882, 36.31104
955.5703, 33.00000
956.0524, 31.23096
956.5345, 31.51562
957.0166, 30.87012
957.4987, 26.06787
957.9808, 19.31885
958.4630, 16.53467
958.9451, 17.42578
959.4272, 18.08203
959.9093, 18.11621
960.3914, 17.22510
960.8735, 14.97998
961.3557, 12.90332
961.8378, 13.23926
962.3199, 15.91748
962.8020, 18.80518
963.2841, 22.56104
963.7662, 24.23584
964.2484, 21.78516
964.7305, 20.12451
965.2126, 23.75928
965.6947, 29.55713
966.1768, 30.21875
966.6589, 24.31299
967.1411, 18.82471
967.6232, 12.09521
968.1053, 7.977051
968.5874, 8.836426
969.0695, 11.26807
969.5516, 12.34570
970.0338, 12.75684
970.5159, 15.18066
970.9980, 20.80811
971.4801, 25.91797
971.9622, 30.35645
972.4443, 32.87158
972.9265, 31.00879
973.4086, 27.84277
973.8907, 27.97510
974.3728, 30.88965
974.8549, 31.42285
975.3370, 26.39404
975.8192, 20.93262
976.3013, 18.95898
976.7834, 18.41553
977.2655, 18.69873
977.7476, 18.09229
978.2297, 11.84912
978.7119, 0.1064450
979.1940, 10.02441
979.6761, 11.70410
980.1582, 9.275391
980.6403, 7.684082
981.1224, 6.928711
981.6046, 7.792480
982.0867, 9.757813
982.5688, 10.09863
983.0509, 7.728027
983.5330, 4.199707
984.0151, 1.437012
984.4973, 1.322266
984.9794, 7.712891
985.4615, 17.19336
985.9436, 22.49902
986.4257, 22.45703
986.9078, 20.94434
987.3900, 20.04199
987.8721, 18.55469
988.3542, 14.43408
988.8363, 7.783691
989.3184, 1.058594
989.8005, 7.057129
990.2827, 8.370605
990.7648, 1.053711
991.2469, 11.27539
991.7290, 16.03906
992.2111, 17.12939
992.6932, 18.70703
993.1754, 21.78662
993.6575, 19.49854
994.1396, 5.854980
994.6217, 2.194336
995.1038, 2.694824
995.5859, 10.52881
996.0681, 14.36279
996.5502, 15.31104
997.0323, 16.47852
997.5144, 18.44287
997.9965, 18.87402
998.4786, 15.28906
998.9608, 13.04736
999.4429, 15.84717
999.9250, 19.00977
1000.407, 16.31396
1000.889, 10.25781
1001.371, 10.83447
1001.853, 23.83398
1002.336, 31.78418
1002.818, 23.34961
1003.300, 15.14258
1003.782, 18.81152
1004.264, 26.72656
1004.746, 29.10645
1005.228, 26.05322
1005.710, 24.05273
1006.193, 26.09570
1006.675, 28.05566
1007.157, 26.35498
1007.639, 24.51123
1008.121, 26.34619
1008.603, 30.06836
1009.085, 32.11328
1009.567, 32.21729
1010.049, 33.11328
1010.532, 36.73486
1011.014, 40.37109
1011.496, 41.44287
1011.978, 40.89893
1012.460, 39.08447
1012.942, 37.00732
1013.424, 37.26709
1013.906, 40.16797
1014.388, 43.13379
1014.871, 44.50439
1015.353, 44.26270
1015.835, 40.28418
1016.317, 35.38379
1016.799, 38.16016
1017.281, 46.98828
1017.763, 52.04736
1018.245, 50.33740
1018.728, 46.82520
1019.210, 46.03369
1019.692, 46.30127
1020.174, 43.25732
1020.656, 37.94971
1021.138, 35.32666
1021.620, 35.79590
1022.102, 39.34277
1022.584, 46.00293
1023.067, 52.97314
1023.549, 57.36572
1024.031, 59.72852
1024.513, 62.34326
1024.995, 65.11572
1025.477, 64.51367
1025.959, 59.98291
1026.441, 55.47266
1026.924, 52.34521
1027.406, 51.61719
1027.888, 55.04736
1028.370, 61.47363
1028.852, 64.36133
1029.334, 63.22119
1029.816, 61.82617
1030.298, 60.22021
1030.781, 59.48340
1031.263, 59.95068
1031.745, 61.83984
1032.227, 65.67383
1032.709, 71.13770
1033.191, 75.99219
1033.673, 80.44922
1034.155, 83.33545
1034.637, 84.30225
1035.120, 84.37451
1035.602, 84.23535
1036.084, 83.09912
1036.566, 79.52539
1037.048, 73.22852
1037.530, 68.45068
1038.012, 65.41455
1038.494, 64.35303
1038.976, 65.70605
1039.459, 68.32910
1039.941, 72.66699
1040.423, 77.22314
1040.905, 79.90137
1041.387, 80.86084
1041.869, 82.44580
1042.351, 85.14111
1042.833, 87.37305
1043.316, 89.20605
1043.798, 90.17285
1044.280, 88.35352
1044.762, 86.62695
1045.244, 89.67236
1045.726, 96.98047
1046.208, 100.2363
1046.690, 94.84766
1047.172, 91.84814
1047.655, 95.45801
1048.137, 97.18018
1048.619, 92.09424
1049.101, 84.16553
1049.583, 77.06689
1050.065, 71.54248
1050.547, 71.59424
1051.029, 81.34180
1051.511, 90.80273
1051.994, 101.1387
1052.476, 108.2246
1052.958, 106.4019
1053.440, 102.4038
1053.922, 105.3062
1054.404, 114.4038
1054.886, 120.9062
1055.368, 121.9482
1055.851, 122.2480
1056.333, 121.1709
1056.815, 121.5557
1057.297, 126.9331
1057.779, 133.2583
1058.261, 135.3696
1058.743, 133.6948
1059.225, 132.5239
1059.708, 132.4331
1060.190, 133.6460
1060.672, 136.6899
1061.154, 140.7080
1061.636, 146.2827
1062.118, 152.3213
1062.600, 157.0444
1063.082, 160.7212
1063.564, 165.3013
1064.047, 172.2319
1064.529, 176.6450
1065.011, 175.4805
1065.493, 171.8267
1065.975, 164.8613
1066.457, 158.6118
1066.939, 158.7778
1067.421, 163.7480
1067.903, 166.4907
1068.386, 164.6606
1068.868, 162.4146
1069.350, 161.2891
1069.832, 160.4106
1070.314, 160.6201
1070.796, 159.7754
1071.278, 153.4189
1071.760, 144.1978
1072.243, 140.8447
1072.725, 146.8750
1073.207, 150.6050
1073.689, 142.8716
1074.171, 136.3076
1074.653, 142.9185
1075.135, 150.4448
1075.617, 143.5747
1076.099, 127.4092
1076.582, 117.6587
1077.064, 118.7056
1077.546, 118.7173
1078.028, 111.6704
1078.510, 103.1226
1078.992, 94.73242
1079.474, 87.45068
1079.956, 81.61768
1080.438, 77.70752
1080.921, 77.67578
1081.403, 81.77344
1081.885, 83.16943
1082.367, 73.79053
1082.849, 67.57422
1083.331, 76.31152
1083.813, 86.77539
1084.295, 87.60693
1084.777, 81.75684
1085.260, 74.63965
1085.742, 67.78955
1086.224, 63.71191
1086.706, 65.57666
1087.188, 67.03076
1087.670, 65.24805
1088.152, 61.94238
1088.634, 57.42285
1089.117, 52.85010
1089.599, 49.81396
1090.081, 48.35742
1090.563, 47.09717
1091.045, 44.80469
1091.527, 44.41113
1092.009, 50.11279
1092.491, 54.80811
1092.974, 52.85400
1093.456, 47.83545
1093.938, 43.97021
1094.420, 41.58398
1094.902, 39.02734
1095.384, 34.70947
1095.866, 33.96729
1096.348, 41.81885
1096.830, 50.01367
1097.313, 56.27246
1097.795, 58.99805
1098.277, 56.40723
1098.759, 49.14258
1099.241, 37.89746
1099.723, 21.23877
1100.205, 10.36621
1100.687, 12.18848
1101.169, 15.99756
1101.652, 18.00439
1102.134, 19.77930
1102.616, 23.63086
1103.098, 27.94238
1103.580, 29.22705
1104.062, 26.87061
1104.544, 24.65576
1105.026, 24.21729
1105.509, 22.90088
1105.991, 19.73438
1106.473, 15.66113
1106.955, 9.829590
1107.437, 4.217285
1107.919, 2.388672
1108.401, 4.263672
1108.883, 4.322266
1109.365, 0.7363280
1109.848, 3.859375
1110.330, 2.780762
1110.812, 1.112305
1111.294, 0.6093750
1111.776, 0.2690430
1112.258, 0.1479490
1112.740, 0.5825200
1113.222, 6.858398
1113.704, 26.69238
1114.187, 35.16016
1114.669, 22.03271
1115.151, 9.298340
1115.633, 2.601074
1116.115, 0.6845700
1116.597, 1.977539
1117.079, 1.628418
1117.561, 0.1308590
1118.044, 3.603027
1118.526, 3.698730
1119.008, 3.673828
1119.490, 7.850098
1119.972, 3.114258
1120.454, 0.5317380
1120.936, 10.50732
1121.418, 23.47461
1121.901, 21.94873
1122.383, 5.536133
1122.865, 3.419922
1123.347, 1.011719
1123.829, 1.328613
1124.311, 6.030762
1124.793, 13.29102
1125.275, 24.43896
1125.757, 33.91113
1126.240, 34.89355
1126.722, 28.59473
1127.204, 20.78467
1127.686, 9.740723
1128.168, 6.191406
1128.650, 12.29590
1129.132, 18.70020
1129.614, 23.01074
1130.096, 25.06836
1130.579, 24.40137
1131.061, 22.16895
1131.543, 20.94043
1132.025, 20.75244
1132.507, 22.55273
1132.989, 26.70752
1133.471, 27.94092
1133.953, 25.10352
1134.436, 21.00195
1134.918, 17.10303
1135.400, 13.80225
1135.882, 11.46777
1136.364, 10.36523
1136.846, 11.93213
1137.328, 15.90918
1137.810, 21.04541
1138.292, 26.81592
1138.775, 28.62012
1139.257, 24.75293
1139.739, 19.89062
1140.221, 18.34131
1140.703, 18.35254
1141.185, 14.84863
1141.667, 10.45361
1142.149, 14.17188
1142.631, 24.94775
1143.114, 37.39600
1143.596, 48.62207
1144.078, 52.18994
1144.560, 43.42871
1145.042, 33.66211
1145.524, 39.67383
1146.006, 50.63135
1146.488, 48.56104
1146.971, 38.92578
1147.453, 32.86572
1147.935, 30.70947
1148.417, 26.64648
1148.899, 18.93164
1149.381, 13.76025
1149.863, 17.25879
1150.345, 23.06641
1150.828, 26.70361
1151.310, 28.39844
1151.792, 27.14844
1152.274, 24.62549
1152.756, 22.85107
1153.238, 22.62354
1153.720, 25.85938
1154.202, 35.00342
1154.684, 42.39844
1155.167, 43.80811
1155.649, 42.32178
1156.131, 37.04492
1156.613, 32.22656
1157.095, 34.49072
1157.577, 40.59521
1158.059, 40.56494
1158.541, 31.88232
1159.023, 24.22656
1159.506, 17.95996
1159.988, 15.76953
1160.470, 21.53027
1160.952, 28.26709
1161.434, 32.45557
1161.916, 34.57471
1162.398, 35.18896
1162.880, 34.41895
1163.363, 33.85547
1163.845, 33.77686
1164.327, 33.41406
1164.809, 31.97949
1165.291, 31.65869
1165.773, 34.00439
1166.255, 36.52344
1166.737, 37.27344
1167.219, 36.37842
1167.702, 34.28662
1168.184, 31.14600
1168.666, 28.02002
1169.148, 24.59521
1169.630, 22.09180
1170.112, 20.54443
1170.594, 20.98438
1171.076, 24.36768
1171.558, 28.16162
1172.041, 28.72021
1172.523, 27.44629
1173.005, 30.23584
1173.487, 36.64990
1173.969, 41.29639
1174.451, 43.87256
1174.933, 44.55859
1175.415, 43.57031
1175.898, 42.73633
1176.380, 43.31836
1176.862, 43.38867
1177.344, 40.63428
1177.826, 36.28027
1178.308, 30.52832
1178.790, 23.87061
1179.272, 19.34180
1179.755, 17.96533
1180.237, 19.61865
1180.719, 23.14893
1181.201, 26.34619
1181.683, 28.61865
1182.165, 29.17285
1182.647, 25.84424
1183.129, 21.53223
1183.611, 18.59375
1184.094, 17.50732
1184.576, 19.59033
1185.058, 23.97412
1185.540, 27.24854
1186.022, 28.44873
1186.504, 27.61963
1186.986, 22.75684
1187.468, 18.35303
1187.950, 17.09082
1188.433, 16.66553
1188.915, 14.40137
1189.397, 11.93750
1189.879, 13.31787
1190.361, 18.78857
1190.843, 21.02002
1191.325, 14.90723
1191.807, 12.91162
1192.290, 20.30176
1192.772, 24.67334
1193.254, 18.86621
1193.736, 12.77539
1194.218, 16.05566
1194.700, 24.90674
1195.182, 29.60352
1195.664, 29.86084
1196.146, 27.39209
1196.629, 21.49121
1197.111, 16.53027
1197.593, 13.11328
1198.075, 11.34180
1198.557, 11.71240
1199.039, 10.74756
1199.521, 3.763672
1200.003, 5.567871
1200.485, 6.238281
1200.968, 1.7090000E-02
1201.450, 3.407227
1201.932, 3.874512
1202.414, 2.658203
1202.896, 0.6010740
1203.378, 0.3691410
1203.860, 3.451172
1204.342, 7.613770
1204.825, 11.76123
1205.307, 14.35400
1205.789, 10.43750
1206.271, 5.542969
1206.753, 9.551270
1207.235, 18.65723
1207.717, 23.78271
1208.199, 22.89795
1208.682, 18.01807
1209.164, 8.062988
1209.646, 0.2973630
1210.128, 0.5195310
1210.610, 1.381348
1211.092, 2.872070
1211.574, 7.097168
1212.056, 6.472656
1212.538, 1.958008
1213.021, 4.794434
1213.503, 14.01025
1213.985, 18.95850
1214.467, 13.20215
1214.949, 13.43213
1215.431, 24.63770
1215.913, 35.26172
1216.395, 42.74219
1216.877, 45.16895
1217.360, 39.62939
1217.842, 28.89258
1218.324, 19.62988
1218.806, 11.76367
1219.288, 8.758301
1219.770, 10.92529
1220.252, 11.48877
1220.734, 9.363281
1221.217, 6.743652
1221.699, 4.496094
1222.181, 5.075195
1222.663, 11.85889
1223.145, 19.96924
1223.627, 18.29980
1224.109, 11.86621
1224.591, 13.93701
1225.073, 21.13965
1225.556, 22.83887
1226.038, 16.72363
1226.520, 11.99365
1227.002, 9.335938
1227.484, 8.448730
1227.966, 9.882813
1228.448, 12.67480
1228.930, 18.86670
1229.412, 23.28418
1229.895, 18.31641
1230.377, 10.35107
1230.859, 8.382813
1231.341, 11.88525
1231.823, 13.88672
1232.305, 18.05225
1232.787, 20.90576
1233.269, 21.22754
1233.752, 20.40137
1234.234, 16.02295
1234.716, 14.39404
1235.198, 20.61719
1235.680, 28.74707
1236.162, 31.40479
1236.644, 29.38965
1237.126, 26.56592
1237.609, 22.75635
1238.091, 20.18604
1238.573, 19.01025
1239.055, 17.07275
1239.537, 13.83789
1240.019, 11.52588
1240.501, 11.42139
1240.983, 11.12109
1241.465, 7.210449
1241.948, 2.522949
1242.430, 2.779297
1242.912, 5.625000
1243.394, 5.854492
1243.876, 4.485840
1244.358, 5.351563
1244.840, 8.409180
1245.322, 9.669434
1245.804, 7.211914
1246.287, 6.083496
1246.769, 10.39453
1247.251, 15.38916
1247.733, 20.17920
1248.215, 22.77490
1248.697, 21.19336
1249.179, 16.84473
1249.661, 9.501465
1250.144, 0.8159180
1250.626, 0.1059570
1251.108, 0.0000000E+00
##END=



