##NAMES=Fluorapatite
##RRUFFID=R050369
##IDEAL CHEMISTRY=Ca_5_(PO_4_)_3_F
##LOCALITY=Russia
##OWNER=RRUFF
##SOURCE=Eugene Schlepp
##DESCRIPTION=Blueish-green hexagonal prismatic crystal
##STATUS=The identification of this mineral has been confirmed by X-ray diffraction and chemical analysis
##URL=rruff.info/R050369
##MEASURED CHEMISTRY=(Ca_0.99_Na_0.01_)_5_((P_0.98_S_0.02_)O_4_)_3_F_1.00_
130.9229, 0.0000000E+00
131.4050, 2.535889
131.8871, 31.74854
132.3692, 74.71558
132.8513, 119.8213
133.3334, 160.4700
133.8156, 184.2156
134.2977, 191.3169
134.7798, 193.0649
135.2619, 193.0432
135.7440, 190.4614
136.2261, 186.6367
136.7083, 190.3198
137.1904, 202.8352
137.6725, 218.5032
138.1546, 234.4695
138.6367, 252.8347
139.1188, 261.1335
139.6010, 254.1428
140.0831, 232.8120
140.5652, 214.8093
141.0473, 195.1545
141.5294, 175.7393
142.0115, 156.9207
142.4937, 139.1924
142.9758, 120.2573
143.4579, 98.06079
143.9400, 70.64136
144.4221, 49.37744
144.9042, 35.83423
145.3864, 27.16309
145.8685, 18.49854
146.3506, 6.768799
146.8327, 1.061523
147.3148, 1.463379
147.7969, 12.63379
148.2791, 17.90186
148.7612, 7.859863
149.2433, 10.29102
149.7254, 20.01855
150.2075, 15.03540
150.6896, 7.082031
151.1718, 0.3688960
151.6539, 4.454346
152.1360, 9.144043
152.6181, 12.57202
153.1002, 15.72290
153.5823, 21.50439
154.0645, 32.88184
154.5466, 44.96826
155.0287, 55.45801
155.5108, 63.51660
155.9929, 70.86377
156.4750, 77.09717
156.9572, 82.53931
157.4393, 88.41138
157.9214, 98.86646
158.4035, 107.5540
158.8856, 110.5815
159.3677, 101.5286
159.8499, 92.40576
160.3320, 87.05859
160.8141, 84.83936
161.2962, 81.87402
161.7783, 75.82080
162.2604, 68.96045
162.7426, 63.17993
163.2247, 57.97754
163.7068, 54.89819
164.1889, 55.60791
164.6710, 59.80786
165.1531, 63.79077
165.6353, 65.74951
166.1174, 66.51074
166.5995, 66.95703
167.0816, 65.85107
167.5637, 65.61572
168.0458, 68.58350
168.5280, 74.68311
169.0101, 80.38452
169.4922, 83.14502
169.9743, 84.07007
170.4564, 84.66968
170.9385, 86.27612
171.4207, 87.39136
171.9028, 85.29028
172.3849, 79.63892
172.8670, 76.26807
173.3491, 81.73608
173.8312, 92.63354
174.3134, 102.4822
174.7955, 108.0322
175.2776, 111.0081
175.7597, 112.4160
176.2418, 112.0063
176.7239, 112.9150
177.2061, 119.3625
177.6882, 129.7793
178.1703, 139.6831
178.6524, 147.6873
179.1345, 153.7573
179.6166, 157.4019
180.0988, 158.4561
180.5809, 158.1509
181.0630, 158.1045
181.5451, 158.0117
182.0272, 156.5684
182.5093, 153.6343
182.9915, 148.8276
183.4736, 141.0515
183.9557, 129.9268
184.4378, 116.7136
184.9199, 100.7854
185.4020, 83.07861
185.8842, 68.59668
186.3663, 63.27686
186.8484, 64.41064
187.3305, 60.79517
187.8126, 49.09155
188.2947, 35.13818
188.7769, 26.46118
189.2590, 24.63745
189.7411, 24.19653
190.2232, 22.70801
190.7053, 20.69629
191.1874, 19.52515
191.6696, 18.66284
192.1517, 18.89111
192.6338, 22.54565
193.1159, 29.79517
193.5980, 37.98706
194.0801, 46.58325
194.5623, 55.34790
195.0444, 60.40137
195.5265, 59.69458
196.0086, 56.99146
196.4907, 60.94165
196.9728, 72.16968
197.4550, 85.38623
197.9371, 98.10693
198.4192, 110.3726
198.9013, 120.9202
199.3834, 129.2334
199.8655, 136.1255
200.3477, 143.5032
200.8298, 151.2583
201.3119, 159.9463
201.7940, 169.7278
202.2761, 180.5081
202.7582, 193.8179
203.2404, 210.4561
203.7225, 229.2632
204.2046, 247.2686
204.6867, 264.5994
205.1688, 280.8638
205.6509, 294.9309
206.1331, 306.2339
206.6152, 319.6121
207.0973, 335.4758
207.5794, 353.4265
208.0615, 374.0447
208.5436, 399.5774
209.0258, 421.9995
209.5079, 436.3572
209.9900, 442.1921
210.4721, 441.4963
210.9542, 432.6448
211.4363, 417.9246
211.9185, 405.3252
212.4006, 395.9910
212.8827, 386.1147
213.3648, 373.7542
213.8469, 358.7732
214.3290, 341.0437
214.8112, 318.9902
215.2933, 294.5361
215.7754, 274.3015
216.2575, 259.9395
216.7396, 246.5591
217.2217, 230.5325
217.7038, 209.2876
218.1860, 193.8252
218.6681, 187.4951
219.1502, 187.1531
219.6323, 180.2708
220.1144, 162.0747
220.5965, 145.6687
221.0787, 140.1626
221.5608, 152.0232
222.0429, 156.8733
222.5250, 150.3748
223.0071, 136.1958
223.4892, 128.0474
223.9714, 128.0251
224.4535, 130.7117
224.9356, 133.0747
225.4177, 133.7942
225.8998, 137.6848
226.3819, 146.5867
226.8641, 158.6560
227.3462, 167.0232
227.8283, 170.1658
228.3104, 171.8716
228.7925, 174.0955
229.2746, 177.8022
229.7568, 179.6313
230.2389, 178.1716
230.7210, 174.9397
231.2031, 175.5312
231.6852, 184.1382
232.1673, 190.3147
232.6495, 187.9661
233.1316, 171.0789
233.6137, 159.5078
234.0958, 156.9631
234.5779, 159.4456
235.0600, 155.5632
235.5422, 142.7678
236.0243, 127.2881
236.5064, 110.9075
236.9885, 89.77612
237.4706, 76.64282
237.9527, 74.57080
238.4349, 79.81592
238.9170, 83.82910
239.3991, 89.06055
239.8812, 89.37524
240.3633, 81.35645
240.8454, 60.83203
241.3276, 42.10449
241.8097, 24.66162
242.2918, 9.439209
242.7739, 1.188232
243.2560, 6.063965
243.7381, 8.083984
244.2203, 7.488037
244.7024, 1.788574
245.1845, 0.9257810
245.6666, 8.390869
246.1487, 19.01001
246.6308, 22.22144
247.1130, 12.72827
247.5951, 4.531738
248.0772, 3.478760
248.5593, 12.64551
249.0414, 17.50854
249.5235, 16.32617
250.0057, 11.97559
250.4878, 9.080811
250.9699, 8.217041
251.4520, 7.864014
251.9341, 7.920898
252.4162, 8.846436
252.8984, 7.827393
253.3805, 4.096191
253.8626, 1.026367
254.3447, 5.389404
254.8268, 8.529541
255.3089, 12.07129
255.7911, 16.66724
256.2732, 22.59570
256.7553, 27.44043
257.2374, 30.74756
257.7195, 33.45264
258.2017, 36.35132
258.6838, 38.51392
259.1659, 43.16919
259.6480, 51.81787
260.1301, 64.55249
260.6122, 76.71387
261.0944, 89.16089
261.5765, 100.0449
262.0586, 106.8008
262.5407, 107.4165
263.0228, 109.3506
263.5049, 113.4404
263.9871, 119.8601
264.4692, 132.3250
264.9513, 154.5535
265.4334, 177.1133
265.9155, 191.3777
266.3976, 195.2471
266.8798, 196.8005
267.3619, 196.5762
267.8440, 194.9419
268.3261, 194.4048
268.8082, 194.1426
269.2903, 196.6318
269.7725, 205.9331
270.2546, 224.8154
270.7367, 236.5635
271.2188, 236.3711
271.7009, 227.5767
272.1830, 224.0649
272.6652, 226.3892
273.1473, 232.5010
273.6294, 242.1367
274.1115, 256.1372
274.5936, 268.3049
275.0757, 277.1965
275.5579, 284.4231
276.0400, 295.0405
276.5221, 310.0918
277.0042, 324.2119
277.4863, 333.3350
277.9684, 336.9458
278.4506, 342.7700
278.9327, 352.0254
279.4148, 362.8757
279.8969, 370.8584
280.3790, 375.4417
280.8611, 381.0796
281.3433, 391.5869
281.8254, 407.0276
282.3075, 417.8374
282.7896, 423.1311
283.2717, 425.3574
283.7538, 429.0767
284.2360, 434.4851
284.7181, 436.8079
285.2002, 431.3462
285.6823, 419.4680
286.1644, 414.4607
286.6465, 417.2546
287.1287, 423.2808
287.6108, 428.1172
288.0929, 431.6548
288.5750, 431.7603
289.0571, 425.1169
289.5392, 414.3848
290.0214, 411.6680
290.5035, 417.8193
290.9856, 424.2908
291.4677, 421.6965
291.9498, 411.5095
292.4319, 400.7695
292.9141, 390.6511
293.3962, 381.9219
293.8783, 377.5024
294.3604, 377.7144
294.8425, 378.1997
295.3246, 375.0164
295.8068, 369.0239
296.2889, 362.5874
296.7710, 355.0056
297.2531, 348.7820
297.7352, 349.4363
298.2173, 356.3589
298.6995, 364.0251
299.1816, 369.3838
299.6637, 372.2192
300.1458, 371.2629
300.6279, 364.8752
301.1100, 357.2397
301.5922, 353.1062
302.0743, 352.0332
302.5564, 352.3318
303.0385, 353.9880
303.5206, 355.0530
304.0027, 353.2476
304.4849, 348.9067
304.9670, 343.0554
305.4491, 335.0918
305.9312, 325.3787
306.4133, 315.1379
306.8954, 306.0881
307.3776, 297.2197
307.8597, 286.8042
308.3418, 274.5049
308.8239, 263.2146
309.3060, 257.5713
309.7881, 253.9924
310.2703, 246.7732
310.7524, 230.0034
311.2345, 212.2322
311.7166, 199.8330
312.1987, 192.5796
312.6808, 186.5312
313.1630, 179.8025
313.6451, 173.2366
314.1272, 167.7021
314.6093, 164.3247
315.0914, 161.3071
315.5735, 158.7827
316.0557, 156.0864
316.5378, 150.5178
317.0199, 137.5493
317.5020, 123.6790
317.9841, 113.7791
318.4662, 112.4482
318.9484, 110.2053
319.4305, 102.3826
319.9126, 91.16895
320.3947, 82.34888
320.8768, 79.67188
321.3589, 78.09814
321.8411, 75.31152
322.3232, 69.90991
322.8053, 66.12085
323.2874, 66.32861
323.7695, 68.33838
324.2516, 68.67407
324.7338, 66.98755
325.2159, 63.35547
325.6980, 57.08423
326.1801, 47.20996
326.6622, 38.87524
327.1443, 31.88794
327.6265, 26.79712
328.1086, 24.17944
328.5907, 26.01245
329.0728, 28.16919
329.5549, 30.92383
330.0370, 34.33350
330.5192, 34.61548
331.0013, 28.80005
331.4834, 22.42578
331.9655, 19.40234
332.4476, 22.12598
332.9297, 24.06006
333.4119, 24.10376
333.8940, 22.84180
334.3761, 22.92773
334.8582, 24.82300
335.3403, 27.16260
335.8224, 29.34521
336.3046, 31.51855
336.7867, 33.08472
337.2688, 34.48730
337.7509, 34.90942
338.2330, 32.28760
338.7151, 25.64209
339.1973, 19.06323
339.6794, 14.08105
340.1615, 10.79590
340.6436, 8.187500
341.1257, 6.475342
341.6078, 5.164063
342.0899, 3.471191
342.5721, 1.369629
343.0542, 6.9824003E-02
343.5363, 0.2226560
344.0184, 1.506104
344.5005, 2.605713
344.9826, 3.561523
345.4648, 4.041016
345.9469, 3.650391
346.4290, 2.427246
346.9111, 0.2031250
347.3932, 4.194824
347.8753, 8.224609
348.3575, 5.003906
348.8396, 4.663574
349.3217, 12.58984
349.8038, 9.687500
350.2859, 0.9169920
350.7680, 0.4086910
351.2502, 8.647461
351.7323, 19.69873
352.2144, 23.12793
352.6965, 20.63330
353.1786, 17.17432
353.6607, 15.58936
354.1429, 14.35547
354.6250, 11.37256
355.1071, 6.571777
355.5892, 1.545410
356.0713, 3.283691
356.5534, 7.292480
357.0356, 9.545898
357.5177, 7.074219
357.9998, 4.868164
358.4819, 8.218262
358.9640, 15.91309
359.4461, 21.16650
359.9283, 19.56934
360.4104, 14.51611
360.8925, 8.554688
361.3746, 1.105957
361.8567, 5.070313
362.3388, 9.069824
362.8210, 10.88037
363.3031, 10.68652
363.7852, 5.825195
364.2673, 1.094727
364.7494, 0.8452150
365.2315, 1.332520
365.7137, 2.400879
366.1958, 0.3847660
366.6779, 4.241211
367.1600, 5.897461
367.6421, 2.000000
368.1242, 1.047852
368.6064, 0.9111330
369.0885, 2.674316
369.5706, 3.054688
370.0527, 4.061035
370.5348, 11.13184
371.0169, 13.15869
371.4991, 6.527832
371.9812, 0.9155270
372.4633, 3.492188
372.9454, 6.388184
373.4275, 6.441406
373.9096, 2.149902
374.3918, 2.487305
374.8739, 5.326172
375.3560, 5.752441
375.8381, 7.978516
376.3202, 13.54199
376.8023, 18.81152
377.2845, 15.73096
377.7666, 1.574707
378.2487, 5.758301
378.7308, 2.574219
379.2129, 23.54932
379.6950, 34.87988
380.1772, 35.28418
380.6593, 33.12842
381.1414, 37.33496
381.6235, 46.90918
382.1056, 52.94580
382.5877, 52.90967
383.0699, 49.28809
383.5520, 45.29541
384.0341, 41.19531
384.5162, 39.66895
384.9983, 44.98389
385.4804, 53.78467
385.9626, 58.21875
386.4447, 56.89453
386.9268, 54.62402
387.4089, 56.64307
387.8910, 61.47510
388.3731, 65.71094
388.8553, 66.86865
389.3374, 67.28564
389.8195, 69.29150
390.3016, 72.83838
390.7837, 76.57861
391.2658, 79.42041
391.7480, 82.04736
392.2301, 85.50879
392.7122, 93.10205
393.1943, 97.56543
393.6764, 91.82275
394.1585, 79.74463
394.6407, 72.29297
395.1228, 79.71973
395.6049, 87.64258
396.0870, 87.82617
396.5691, 75.86816
397.0512, 67.46484
397.5334, 65.93555
398.0155, 69.47168
398.4976, 75.74365
398.9797, 89.88281
399.4618, 100.9668
399.9439, 104.5264
400.4261, 100.5405
400.9082, 102.9595
401.3903, 118.7344
401.8724, 134.4131
402.3545, 140.5479
402.8366, 130.1553
403.3188, 125.0830
403.8009, 127.1650
404.2830, 134.9048
404.7651, 145.2686
405.2472, 159.0312
405.7293, 172.3193
406.2115, 183.7646
406.6936, 193.5122
407.1757, 204.1768
407.6578, 215.4072
408.1399, 227.6108
408.6220, 242.1685
409.1042, 259.4829
409.5863, 277.7432
410.0684, 296.3247
410.5505, 315.4683
411.0326, 337.4058
411.5147, 362.1807
411.9969, 387.0698
412.4790, 407.9160
412.9611, 427.8726
413.4432, 454.4663
413.9253, 489.5376
414.4074, 528.7017
414.8896, 570.2544
415.3717, 612.9077
415.8538, 652.5786
416.3359, 683.3906
416.8180, 711.7056
417.3001, 742.5522
417.7823, 776.9170
418.2644, 813.4878
418.7465, 852.2241
419.2286, 893.4204
419.7107, 936.2803
420.1928, 978.8149
420.6750, 1025.774
421.1571, 1080.121
421.6392, 1140.509
422.1213, 1202.168
422.6034, 1263.162
423.0855, 1325.686
423.5677, 1391.239
424.0498, 1459.836
424.5319, 1529.696
425.0140, 1604.159
425.4961, 1679.516
425.9782, 1751.889
426.4604, 1821.621
426.9425, 1887.906
427.4246, 1952.772
427.9067, 2015.654
428.3888, 2067.036
428.8709, 2108.338
429.3531, 2135.486
429.8352, 2146.018
430.3173, 2138.746
430.7994, 2119.748
431.2815, 2091.151
431.7636, 2048.371
432.2458, 1979.670
432.7279, 1883.554
433.2100, 1783.593
433.6921, 1685.394
434.1742, 1589.680
434.6563, 1502.110
435.1385, 1421.655
435.6206, 1346.009
436.1027, 1271.612
436.5848, 1200.538
437.0669, 1137.380
437.5490, 1083.544
438.0312, 1036.355
438.5133, 991.6685
438.9954, 950.5269
439.4775, 915.7119
439.9596, 890.3384
440.4417, 870.9849
440.9239, 854.9453
441.4060, 842.1025
441.8881, 832.5327
442.3702, 826.5996
442.8523, 823.9263
443.3344, 824.2349
443.8166, 831.4854
444.2987, 836.8843
444.7808, 836.3901
445.2629, 831.7305
445.7450, 828.0400
446.2271, 829.5068
446.7093, 829.2783
447.1914, 823.5767
447.6735, 809.0796
448.1556, 799.8076
448.6377, 800.9741
449.1198, 803.8936
449.6020, 799.4746
450.0841, 784.3164
450.5662, 769.2290
451.0483, 756.4688
451.5304, 744.9609
452.0125, 730.1782
452.4947, 711.7305
452.9768, 690.8994
453.4589, 667.3345
453.9410, 640.7339
454.4231, 616.4526
454.9052, 594.9902
455.3874, 573.4087
455.8695, 546.3711
456.3516, 514.6392
456.8337, 484.8145
457.3158, 458.3345
457.7979, 435.1938
458.2801, 416.3467
458.7622, 401.3955
459.2443, 386.8276
459.7264, 370.6641
460.2085, 353.5181
460.6906, 336.3364
461.1728, 319.5830
461.6549, 302.5908
462.1370, 285.0684
462.6191, 267.9556
463.1012, 252.9639
463.5833, 241.6406
464.0655, 231.6616
464.5476, 222.5830
465.0297, 214.2354
465.5118, 205.5557
465.9939, 196.1519
466.4760, 186.6816
466.9582, 177.4609
467.4403, 168.4390
467.9224, 158.8843
468.4045, 148.1006
468.8866, 137.6548
469.3687, 130.1689
469.8509, 126.0947
470.3330, 123.5288
470.8151, 122.7632
471.2972, 122.9756
471.7793, 119.6768
472.2614, 112.2568
472.7436, 104.3516
473.2257, 98.75635
473.7078, 95.26904
474.1899, 91.69238
474.6720, 88.12988
475.1541, 84.09521
475.6363, 78.41846
476.1184, 71.47998
476.6005, 65.05078
477.0826, 58.92725
477.5647, 53.70654
478.0468, 51.68848
478.5290, 52.65576
479.0111, 54.08154
479.4932, 53.55420
479.9753, 52.62549
480.4574, 54.04102
480.9395, 59.76221
481.4217, 63.28955
481.9038, 57.70557
482.3859, 47.97510
482.8680, 41.41992
483.3501, 43.21436
483.8322, 45.88623
484.3144, 47.17773
484.7965, 46.56445
485.2786, 45.37158
485.7607, 45.11816
486.2428, 43.60840
486.7249, 39.26367
487.2071, 28.42236
487.6892, 21.94922
488.1713, 22.32715
488.6534, 25.41162
489.1355, 24.61328
489.6176, 17.89697
490.0998, 14.46777
490.5819, 18.12988
491.0640, 26.51514
491.5461, 27.24414
492.0282, 19.42334
492.5103, 11.31934
492.9925, 9.494629
493.4746, 12.64062
493.9567, 13.23242
494.4388, 10.14600
494.9209, 7.539063
495.4030, 11.87695
495.8852, 20.39258
496.3673, 26.31006
496.8494, 25.30469
497.3315, 22.04004
497.8136, 20.67383
498.2957, 20.77441
498.7779, 20.76270
499.2600, 19.74951
499.7421, 18.35254
500.2242, 16.69189
500.7063, 14.44971
501.1884, 13.68799
501.6706, 16.81738
502.1527, 21.05371
502.6348, 23.51318
503.1169, 22.25732
503.5990, 21.26221
504.0811, 21.49170
504.5633, 22.40479
505.0454, 21.86035
505.5275, 19.24219
506.0096, 16.19434
506.4917, 13.12891
506.9738, 9.931152
507.4560, 7.702637
507.9381, 6.416504
508.4202, 6.097168
508.9023, 7.545410
509.3844, 10.56641
509.8665, 11.42188
510.3487, 8.485352
510.8308, 4.834473
511.3129, 7.155762
511.7950, 14.00830
512.2772, 18.58594
512.7593, 13.93311
513.2414, 6.840820
513.7235, 6.399414
514.2056, 12.49365
514.6877, 18.43799
515.1699, 19.53076
515.6520, 18.68604
516.1341, 19.02148
516.6162, 23.67334
517.0983, 24.57422
517.5804, 13.89404
518.0626, 1.244141
518.5447, 9.149414
519.0268, 0.1328130
519.5089, 7.880371
519.9910, 9.868164
520.4731, 6.362305
520.9553, 6.407715
521.4374, 14.20410
521.9195, 19.33105
522.4016, 14.12158
522.8837, 4.651367
523.3658, 16.08545
523.8480, 19.06787
524.3301, 16.52490
524.8122, 9.274902
525.2943, 2.081055
525.7764, 6.425781
526.2585, 2.017578
526.7407, 15.88037
527.2228, 23.19482
527.7049, 24.23535
528.1870, 20.67969
528.6691, 7.922852
529.1512, 5.981445
529.6334, 9.905762
530.1155, 2.768066
530.5976, 3.984375
531.0797, 2.485840
531.5618, 2.166016
532.0439, 4.908203
532.5261, 3.580078
533.0082, 1.458008
533.4903, 2.223633
533.9724, 6.061035
534.4545, 7.012695
534.9366, 0.8227540
535.4188, 3.701660
535.9009, 3.813477
536.3830, 0.3061520
536.8651, 2.125488
537.3472, 0.8334960
537.8293, 1.358398
538.3115, 2.917480
538.7936, 3.784668
539.2757, 6.356934
539.7578, 11.73975
540.2399, 16.07764
540.7220, 11.71631
541.2042, 0.5898440
541.6863, 6.059570
542.1684, 2.657715
542.6505, 4.285156
543.1326, 4.352051
543.6147, 0.5883790
544.0969, 3.216309
544.5790, 4.780762
545.0611, 14.11816
545.5432, 16.34180
546.0253, 10.42578
546.5074, 4.319824
546.9896, 0.5117190
547.4717, 3.053223
547.9538, 2.346191
548.4359, 6.792969
548.9180, 12.34277
549.4001, 10.53271
549.8823, 5.576172
550.3644, 4.673340
550.8465, 9.791992
551.3286, 15.47412
551.8107, 20.88135
552.2928, 25.88037
552.7750, 29.35205
553.2571, 31.48047
553.7392, 31.45166
554.2213, 26.28906
554.7034, 17.64648
555.1855, 15.88721
555.6677, 22.05322
556.1498, 30.77246
556.6319, 36.14111
557.1140, 39.80029
557.5961, 45.46143
558.0782, 55.94678
558.5604, 65.72656
559.0425, 67.88330
559.5246, 65.85938
560.0067, 67.31982
560.4888, 81.02686
560.9709, 93.78076
561.4531, 98.44092
561.9352, 94.83594
562.4173, 92.34766
562.8994, 90.44043
563.3815, 91.52783
563.8636, 97.36963
564.3458, 110.4141
564.8279, 121.7617
565.3100, 131.6851
565.7921, 139.8135
566.2742, 144.0498
566.7563, 143.5698
567.2385, 148.0151
567.7206, 160.2998
568.2027, 177.5986
568.6848, 193.8613
569.1669, 209.3604
569.6490, 224.3579
570.1312, 237.3105
570.6133, 250.8486
571.0954, 268.2368
571.5775, 289.7642
572.0596, 314.7871
572.5417, 342.8555
573.0239, 374.5513
573.5060, 410.1621
573.9881, 450.7603
574.4702, 493.3813
574.9523, 535.8628
575.4344, 580.9966
575.9166, 631.7798
576.3987, 695.6528
576.8808, 756.7578
577.3629, 813.9795
577.8450, 867.1489
578.3271, 915.3608
578.8093, 955.8325
579.2914, 999.1929
579.7735, 1051.392
580.2556, 1110.083
580.7377, 1164.225
581.2198, 1213.335
581.7020, 1255.552
582.1841, 1285.338
582.6662, 1306.862
583.1483, 1329.555
583.6304, 1352.983
584.1125, 1386.739
584.5947, 1442.247
585.0768, 1512.761
585.5589, 1588.045
586.0410, 1662.583
586.5231, 1743.087
587.0052, 1834.654
587.4873, 1934.939
587.9694, 2035.863
588.4515, 2148.808
588.9337, 2249.952
589.4158, 2335.739
589.8979, 2406.249
590.3800, 2455.264
590.8621, 2492.908
591.3442, 2489.651
591.8264, 2423.431
592.3085, 2291.933
592.7906, 2128.736
593.2727, 1927.078
593.7548, 1718.367
594.2369, 1530.464
594.7191, 1362.667
595.2012, 1216.603
595.6833, 1091.933
596.1654, 987.6074
596.6475, 905.0264
597.1296, 842.1621
597.6118, 793.2183
598.0939, 761.0073
598.5760, 737.6846
599.0581, 719.5435
599.5402, 706.5552
600.0223, 699.5845
600.5045, 698.0088
600.9866, 703.4790
601.4687, 717.1699
601.9508, 740.3740
602.4329, 766.8931
602.9150, 797.3477
603.3972, 829.4512
603.8793, 861.2900
604.3614, 893.0059
604.8435, 925.3110
605.3256, 959.9814
605.8077, 990.5459
606.2899, 1011.901
606.7720, 1021.310
607.2541, 1005.375
607.7362, 950.5112
608.2183, 876.9194
608.7004, 806.1021
609.1826, 736.4805
609.6647, 665.1348
610.1468, 581.8711
610.6289, 502.2339
611.1110, 435.4438
611.5931, 381.2471
612.0753, 338.8403
612.5574, 314.1753
613.0395, 296.2905
613.5216, 279.0068
614.0037, 261.9795
614.4858, 245.9619
614.9680, 230.5479
615.4501, 216.6138
615.9322, 205.9497
616.4143, 198.7866
616.8964, 189.9751
617.3785, 177.9351
617.8607, 164.9712
618.3428, 155.2720
618.8249, 148.2461
619.3070, 141.4756
619.7891, 135.1772
620.2712, 127.6919
620.7534, 116.4141
621.2355, 102.1401
621.7176, 88.76758
622.1997, 76.03271
622.6818, 66.63184
623.1639, 63.10791
623.6461, 66.71289
624.1282, 69.02002
624.6103, 68.54346
625.0924, 67.09473
625.5745, 65.47803
626.0566, 62.85742
626.5388, 62.68555
627.0209, 66.14111
627.5030, 69.94434
627.9851, 69.00000
628.4672, 63.49414
628.9493, 58.38037
629.4315, 54.64697
629.9136, 52.02832
630.3957, 50.55322
630.8778, 49.94775
631.3599, 49.41992
631.8420, 51.34131
632.3242, 51.05811
632.8063, 42.10303
633.2884, 26.66406
633.7705, 16.13477
634.2526, 19.42529
634.7347, 24.43359
635.2169, 25.22119
635.6990, 20.67627
636.1811, 17.06104
636.6632, 14.16504
637.1453, 12.24951
637.6274, 12.40771
638.1096, 15.55371
638.5917, 12.79297
639.0738, 1.579590
639.5559, 9.465332
640.0380, 6.105469
640.5201, 7.813965
641.0023, 14.82471
641.4844, 8.443359
641.9665, 2.111328
642.4486, 9.943359
642.9307, 14.33984
643.4128, 13.73438
643.8950, 0.3129880
644.3771, 12.03467
644.8592, 12.19385
645.3413, 2.924805
645.8234, 3.790527
646.3055, 4.048828
646.7877, 3.432129
647.2698, 4.221680
647.7519, 6.582031
648.2340, 4.443848
648.7161, 3.772949
649.1982, 11.99219
649.6804, 15.06250
650.1625, 13.56152
650.6446, 13.94873
651.1267, 16.91895
651.6088, 18.52979
652.0909, 12.32275
652.5731, 2.399414
653.0552, 4.131348
653.5373, 5.375488
654.0194, 3.112305
654.5015, 5.730957
654.9836, 16.29785
655.4658, 21.48730
655.9479, 13.28564
656.4300, 6.804199
656.9121, 5.667969
657.3942, 8.396484
657.8763, 11.14502
658.3585, 14.09326
658.8406, 16.45947
659.3227, 17.18506
659.8048, 17.00195
660.2869, 20.29932
660.7690, 27.08350
661.2512, 34.14502
661.7333, 39.25879
662.2154, 43.04199
662.6975, 47.24902
663.1796, 51.80322
663.6617, 54.19971
664.1439, 50.49316
664.6260, 45.23975
665.1081, 42.62842
665.5902, 44.30664
666.0723, 45.91016
666.5544, 47.35303
667.0366, 47.94775
667.5187, 47.17725
668.0008, 45.09619
668.4829, 41.60498
668.9650, 35.49023
669.4471, 29.63672
669.9293, 29.63184
670.4114, 35.58740
670.8935, 40.05127
671.3756, 41.08301
671.8577, 39.50293
672.3398, 34.75830
672.8220, 28.13037
673.3041, 24.16260
673.7862, 26.00244
674.2683, 30.41992
674.7504, 35.74268
675.2325, 41.73926
675.7147, 47.58008
676.1968, 54.47217
676.6789, 59.65918
677.1610, 61.46582
677.6431, 59.92480
678.1252, 58.76953
678.6074, 59.01221
679.0895, 58.04248
679.5716, 52.34863
680.0537, 41.76709
680.5358, 38.43994
681.0179, 43.53906
681.5001, 50.93896
681.9822, 54.64648
682.4643, 56.29590
682.9464, 59.77490
683.4285, 67.55859
683.9106, 72.48535
684.3928, 65.90625
684.8749, 55.00977
685.3570, 48.45508
685.8391, 54.82324
686.3212, 57.77930
686.8033, 51.16211
687.2855, 40.87354
687.7676, 36.34180
688.2497, 39.66748
688.7318, 43.72217
689.2139, 47.42432
689.6960, 50.78516
690.1782, 54.14502
690.6603, 57.43359
691.1424, 58.73926
691.6245, 57.90137
692.1066, 54.11133
692.5887, 41.37012
693.0709, 22.94922
693.5530, 13.26562
694.0351, 31.06250
694.5172, 51.27490
694.9993, 56.89307
695.4814, 46.42285
695.9636, 38.63184
696.4457, 36.55371
696.9278, 37.06201
697.4099, 38.82129
697.8920, 42.97656
698.3741, 48.56055
698.8563, 56.11328
699.3384, 60.88135
699.8205, 55.50049
700.3026, 42.68359
700.7847, 36.40088
701.2668, 39.07031
701.7490, 44.39160
702.2311, 45.58057
702.7132, 44.11426
703.1953, 42.18896
703.6774, 40.12500
704.1595, 38.19092
704.6417, 36.06201
705.1238, 34.14307
705.6059, 33.10986
706.0880, 34.75781
706.5701, 35.47021
707.0522, 34.60840
707.5344, 32.16748
708.0165, 27.57422
708.4986, 20.57080
708.9807, 15.77783
709.4628, 15.43555
709.9449, 16.94385
710.4271, 13.83203
710.9092, 7.654297
711.3913, 5.041016
711.8734, 15.17285
712.3555, 25.72266
712.8376, 25.93506
713.3198, 17.71240
713.8019, 11.71533
714.2840, 14.03418
714.7661, 15.84424
715.2482, 12.87695
715.7303, 5.414063
716.2125, 2.817383
716.6946, 6.430664
717.1767, 11.14551
717.6588, 14.81982
718.1409, 17.29932
718.6230, 16.02930
719.1052, 10.91504
719.5873, 6.258789
720.0694, 6.775391
720.5515, 9.139160
721.0336, 8.158691
721.5157, 2.607422
721.9979, 0.4721680
722.4800, 4.372559
722.9621, 11.63867
723.4442, 16.95898
723.9263, 19.12256
724.4084, 21.02979
724.8906, 23.33203
725.3727, 24.61035
725.8548, 23.01416
726.3369, 18.30371
726.8190, 13.55176
727.3011, 8.659668
727.7833, 5.415527
728.2654, 8.048828
728.7475, 14.08447
729.2296, 17.64990
729.7117, 16.71045
730.1938, 13.72314
730.6760, 8.836914
731.1581, 3.395996
731.6402, 0.5898440
732.1223, 1.685547
732.6044, 2.423828
733.0865, 3.803711
733.5687, 4.807129
734.0508, 2.427734
734.5329, 4.994629
735.0150, 8.853516
735.4971, 5.958984
735.9792, 0.6630860
736.4614, 5.313477
736.9435, 7.884277
737.4256, 7.856445
737.9077, 1.427246
738.3898, 4.960449
738.8719, 1.908203
739.3541, 6.989746
739.8362, 8.954590
740.3183, 10.52393
740.8004, 27.76807
741.2825, 31.92773
741.7646, 24.65381
742.2468, 19.27295
742.7289, 16.13086
743.2110, 13.92432
743.6931, 11.96582
744.1752, 10.41553
744.6573, 10.70947
745.1395, 12.78418
745.6216, 14.66553
746.1037, 15.01172
746.5858, 14.37012
747.0679, 11.97705
747.5500, 8.104980
748.0322, 8.117676
748.5143, 21.89307
748.9964, 34.45508
749.4785, 34.76758
749.9606, 18.37354
750.4427, 10.68799
750.9249, 15.72119
751.4070, 22.39990
751.8891, 22.10596
752.3712, 14.97607
752.8533, 12.76953
753.3354, 16.19971
753.8176, 20.76855
754.2997, 23.46484
754.7818, 24.14453
755.2639, 21.31543
755.7460, 13.65527
756.2281, 9.189453
756.7103, 16.95703
757.1924, 27.04297
757.6745, 30.51904
758.1566, 21.63623
758.6387, 15.18701
759.1208, 10.67090
759.6030, 9.084473
760.0851, 12.60059
760.5672, 21.43359
761.0493, 28.02490
761.5314, 31.44727
762.0135, 32.65332
762.4957, 31.64209
762.9778, 29.42334
763.4599, 27.76660
763.9420, 26.70557
764.4241, 27.37939
764.9063, 32.68555
765.3884, 39.12012
765.8705, 42.38818
766.3526, 38.14404
766.8347, 36.38135
767.3168, 38.63818
767.7990, 42.66260
768.2811, 44.89014
768.7632, 45.18213
769.2453, 46.33447
769.7274, 49.35938
770.2095, 52.32617
770.6917, 52.02197
771.1738, 50.02881
771.6559, 48.77881
772.1380, 49.79883
772.6201, 49.37598
773.1022, 43.37500
773.5844, 35.25391
774.0665, 31.30371
774.5486, 36.94873
775.0307, 40.51367
775.5128, 39.74121
775.9949, 36.11035
776.4771, 32.56055
776.9592, 29.36621
777.4413, 26.78076
777.9234, 24.35693
778.4055, 22.21973
778.8876, 21.24902
779.3698, 21.26123
779.8519, 21.57422
780.3340, 21.55908
780.8161, 22.25732
781.2982, 24.20264
781.7803, 27.16357
782.2625, 30.67188
782.7446, 38.07227
783.2267, 39.79443
783.7088, 30.68506
784.1909, 16.26562
784.6730, 13.52930
785.1552, 22.32715
785.6373, 30.76416
786.1194, 33.34033
786.6015, 33.86670
787.0836, 39.42334
787.5657, 47.60449
788.0479, 51.64697
788.5300, 43.25049
789.0121, 35.08789
789.4942, 34.60059
789.9763, 39.21973
790.4584, 37.83447
790.9406, 24.50244
791.4227, 16.90527
791.9048, 22.39893
792.3869, 35.60059
792.8690, 37.49023
793.3511, 28.99365
793.8333, 23.03418
794.3154, 28.15967
794.7975, 36.82617
795.2796, 41.39307
795.7617, 42.47803
796.2438, 40.39893
796.7260, 31.28564
797.2081, 23.09912
797.6902, 20.12354
798.1723, 21.64258
798.6544, 22.32031
799.1365, 22.14355
799.6187, 20.95215
800.1008, 17.63281
800.5829, 13.92285
801.0650, 16.65674
801.5471, 24.66309
802.0292, 30.62744
802.5114, 29.42090
802.9935, 25.19824
803.4756, 19.93994
803.9577, 14.52344
804.4398, 11.96484
804.9219, 15.63867
805.4041, 19.49219
805.8862, 21.97803
806.3683, 23.21191
806.8504, 23.61963
807.3325, 23.09863
807.8146, 22.20264
808.2968, 20.62109
808.7789, 19.25879
809.2610, 21.39990
809.7431, 25.94482
810.2252, 28.36523
810.7073, 25.78369
811.1895, 20.86523
811.6716, 13.08984
812.1537, 4.057129
812.6358, 0.5454100
813.1179, 4.181641
813.6000, 7.859863
814.0822, 7.605469
814.5643, 4.844238
815.0464, 5.200195
815.5285, 8.754395
816.0106, 11.03711
816.4927, 9.446777
816.9749, 6.375000
817.4570, 4.803223
817.9391, 4.705078
818.4212, 6.019531
818.9033, 11.06641
819.3854, 14.94580
819.8676, 15.16064
820.3497, 12.38574
820.8318, 9.078613
821.3139, 3.954102
821.7960, 1.171387
822.2781, 2.208496
822.7603, 5.929199
823.2424, 11.47852
823.7245, 18.13428
824.2066, 20.45605
824.6887, 13.43408
825.1708, 5.308105
825.6530, 3.921875
826.1351, 7.187012
826.6172, 10.35498
827.0993, 15.89258
827.5814, 16.38574
828.0635, 6.916504
828.5457, 6.516602
829.0278, 10.67920
829.5099, 3.996582
829.9920, 2.172363
830.4741, 5.653809
830.9562, 6.416992
831.4384, 3.006348
831.9205, 2.694824
832.4026, 5.772949
832.8847, 1.723145
833.3668, 1.315918
833.8489, 3.754395
834.3311, 11.90234
834.8132, 14.20020
835.2953, 7.759277
835.7774, 0.1450200
836.2595, 9.574707
836.7416, 17.76123
837.2238, 16.00879
837.7059, 5.759766
838.1880, 2.597656
838.6701, 12.34668
839.1522, 22.70508
839.6343, 18.10596
840.1165, 7.666992
840.5986, 4.610840
841.0807, 19.29541
841.5628, 30.01709
842.0449, 30.41406
842.5270, 25.73779
843.0092, 21.03320
843.4913, 16.52490
843.9734, 12.68604
844.4555, 9.322754
844.9376, 6.763672
845.4197, 5.843262
845.9019, 6.366211
846.3840, 8.825684
846.8661, 13.46924
847.3482, 15.91748
847.8303, 11.03516
848.3124, 4.427734
848.7946, 1.135254
849.2767, 2.158203
849.7588, 5.412109
850.2409, 12.59961
850.7230, 18.74365
851.2051, 17.05615
851.6873, 9.512695
852.1694, 10.19092
852.6515, 19.88525
853.1336, 29.91650
853.6157, 33.12061
854.0978, 33.00586
854.5800, 32.82666
855.0621, 32.98975
855.5442, 32.80273
856.0263, 30.61230
856.5084, 29.74707
856.9905, 32.60791
857.4727, 39.23877
857.9548, 43.41211
858.4369, 45.20605
858.9190, 45.48682
859.4011, 42.91650
859.8832, 39.53662
860.3654, 40.68799
860.8475, 45.94824
861.3296, 49.23486
861.8117, 47.18701
862.2938, 43.09131
862.7759, 35.51855
863.2581, 25.91797
863.7402, 27.03809
864.2223, 41.84570
864.7044, 57.32080
865.1865, 69.05957
865.6686, 76.97705
866.1508, 79.25000
866.6329, 76.84229
867.1150, 73.86914
867.5971, 70.76855
868.0792, 69.35254
868.5613, 72.55469
869.0435, 78.39404
869.5256, 80.28760
870.0077, 74.08301
870.4898, 71.06055
870.9719, 75.50488
871.4540, 82.30078
871.9362, 78.58008
872.4183, 65.81201
872.9004, 55.49463
873.3825, 51.58057
873.8646, 50.63672
874.3467, 51.94824
874.8289, 53.30371
875.3110, 51.26855
875.7931, 40.62402
876.2752, 32.52979
876.7573, 29.72412
877.2394, 28.14307
877.7216, 21.33154
878.2037, 8.632324
878.6858, 4.445313
879.1679, 11.95605
879.6500, 20.38525
880.1321, 15.35107
880.6143, 4.907227
881.0964, 1.305664
881.5785, 8.182617
882.0606, 15.48291
882.5427, 21.85205
883.0248, 25.61279
883.5070, 24.95361
883.9891, 18.61279
884.4712, 15.80811
884.9533, 16.73730
885.4354, 19.99463
885.9175, 28.26807
886.3997, 36.36475
886.8818, 31.19824
887.3639, 14.30713
887.8460, 2.484375
888.3281, 8.501953
888.8102, 18.48535
889.2924, 26.03857
889.7745, 30.68359
890.2566, 31.73340
890.7387, 28.68115
891.2208, 25.20850
891.7029, 22.32520
892.1851, 19.69580
892.6672, 18.68945
893.1493, 19.02441
893.6314, 17.06836
894.1135, 6.748047
894.5956, 2.970215
895.0778, 6.638672
895.5599, 5.832031
896.0420, 4.403809
896.5241, 1.227051
897.0062, 0.2812500
897.4883, 2.908691
897.9705, 7.088867
898.4526, 9.955566
898.9347, 11.18164
899.4168, 9.101074
899.8989, 1.874512
900.3810, 4.576660
900.8632, 3.639160
901.3453, 0.2407230
901.8274, 0.3173830
902.3095, 9.741211
902.7916, 12.82910
903.2737, 4.896484
903.7559, 2.585449
904.2380, 3.362305
904.7201, 20.78906
905.2022, 30.10498
905.6843, 29.87842
906.1664, 26.65723
906.6486, 25.17188
907.1307, 23.62402
907.6128, 19.88184
908.0949, 13.62842
908.5770, 8.096680
909.0591, 1.414551
909.5413, 0.9213870
910.0234, 5.561523
910.5055, 18.68115
910.9876, 23.90527
911.4697, 21.58447
911.9518, 17.72021
912.4340, 14.50879
912.9161, 12.26416
913.3982, 12.78662
913.8803, 14.59033
914.3624, 13.55469
914.8445, 5.179688
915.3267, 2.154297
915.8088, 8.124023
916.2909, 11.57764
916.7730, 9.032715
917.2551, 0.6411130
917.7372, 6.639648
918.2194, 10.85156
918.7015, 14.87207
919.1836, 25.10791
919.6657, 35.85596
920.1478, 38.55566
920.6299, 25.93945
921.1121, 17.00586
921.5942, 16.11670
922.0763, 17.81348
922.5584, 17.67041
923.0405, 15.58008
923.5226, 15.30127
924.0048, 16.89307
924.4869, 20.98975
924.9690, 31.50098
925.4511, 42.69482
925.9332, 47.35205
926.4153, 45.27051
926.8975, 42.55322
927.3796, 38.52734
927.8617, 36.62939
928.3438, 37.76709
928.8259, 41.92041
929.3080, 50.68115
929.7902, 63.94971
930.2723, 74.32031
930.7544, 77.06738
931.2365, 76.91797
931.7186, 80.15332
932.2007, 84.78223
932.6829, 86.31592
933.1650, 77.72852
933.6471, 73.89648
934.1292, 77.69580
934.6113, 86.39844
935.0934, 96.44189
935.5756, 107.5977
936.0577, 118.3872
936.5398, 128.5942
937.0219, 140.6582
937.5040, 156.7163
937.9861, 174.0801
938.4683, 190.5459
938.9504, 206.7920
939.4325, 220.2935
939.9146, 225.3257
940.3967, 233.4961
940.8788, 252.0928
941.3610, 280.1230
941.8431, 305.5664
942.3252, 328.7676
942.8073, 355.5771
943.2894, 388.5317
943.7715, 427.1831
944.2537, 470.4780
944.7358, 519.1821
945.2179, 576.6045
945.7000, 644.6924
946.1821, 719.8159
946.6642, 800.8643
947.1464, 890.3960
947.6285, 989.4448
948.1106, 1099.830
948.5927, 1232.376
949.0748, 1389.164
949.5569, 1570.974
950.0391, 1774.689
950.5212, 2006.703
951.0033, 2273.336
951.4854, 2590.575
951.9675, 2914.572
952.4496, 3245.839
952.9318, 3580.083
953.4139, 3912.209
953.8960, 4243.998
954.3781, 4583.754
954.8602, 4929.580
955.3423, 5293.993
955.8245, 5666.294
956.3066, 6075.681
956.7887, 6538.080
957.2708, 7059.132
957.7529, 7635.513
958.2350, 8257.200
958.7172, 8960.375
959.1993, 9760.020
959.6814, 10651.95
960.1635, 11625.71
960.6456, 12674.79
961.1277, 13774.48
961.6099, 14952.26
962.0920, 16114.66
962.5741, 17318.47
963.0562, 18419.80
963.5383, 19273.21
964.0204, 20016.65
964.5026, 20146.51
964.9847, 19631.74
965.4668, 18603.83
965.9489, 16979.21
966.4310, 14997.11
966.9131, 13005.64
967.3953, 11059.44
967.8774, 9298.343
968.3595, 7806.515
968.8416, 6533.250
969.3237, 5490.990
969.8058, 4652.091
970.2880, 3939.438
970.7701, 3352.120
971.2522, 2855.153
971.7343, 2441.154
972.2164, 2092.954
972.6985, 1785.352
973.1807, 1517.691
973.6628, 1291.996
974.1449, 1115.296
974.6270, 964.2407
975.1091, 838.0200
975.5912, 729.4873
976.0734, 632.8477
976.5555, 548.4443
977.0376, 477.5347
977.5197, 421.5439
978.0018, 371.7583
978.4839, 318.6445
978.9661, 269.6128
979.4482, 233.0747
979.9303, 209.0796
980.4124, 188.2197
980.8945, 169.9385
981.3766, 152.7754
981.8588, 136.7441
982.3409, 120.9722
982.8230, 100.8838
983.3051, 78.05469
983.7872, 61.37842
984.2693, 56.35742
984.7515, 53.67139
985.2336, 47.41699
985.7157, 39.29053
986.1978, 31.35449
986.6799, 22.72998
987.1620, 17.01855
987.6442, 15.27783
988.1263, 13.32617
988.6084, 5.842773
989.0905, 4.357910
989.5726, 9.849121
990.0547, 10.60352
990.5369, 10.66943
991.0190, 10.81104
991.5011, 12.04932
991.9832, 16.41846
992.4653, 22.17773
992.9474, 21.98389
993.4296, 14.75635
993.9117, 12.50977
994.3938, 21.48828
994.8759, 30.92285
995.3580, 23.31348
995.8401, 7.240723
996.3223, 3.701172
996.8044, 4.424805
997.2865, 3.182617
997.7686, 0.3876950
998.2507, 3.490723
998.7328, 4.388184
999.2150, 3.078613
999.6971, 0.8085940
1000.179, 7.229004
1000.661, 16.90332
1001.143, 32.80957
1001.626, 50.05420
1002.108, 63.84473
1002.590, 75.38525
1003.072, 92.55127
1003.554, 119.6294
1004.036, 141.5444
1004.518, 153.4360
1005.000, 161.6929
1005.482, 175.5410
1005.965, 194.4653
1006.447, 217.8110
1006.929, 247.0493
1007.411, 273.8452
1007.893, 294.3701
1008.375, 310.8052
1008.857, 326.6323
1009.339, 342.8486
1009.822, 343.7524
1010.304, 328.1387
1010.786, 310.6768
1011.268, 305.2627
1011.750, 300.2993
1012.232, 277.9395
1012.714, 243.4326
1013.196, 211.9199
1013.678, 185.6470
1014.161, 166.6533
1014.643, 157.9375
1015.125, 153.4326
1015.607, 143.1514
1016.089, 128.6875
1016.571, 120.3989
1017.053, 120.2339
1017.535, 122.0361
1018.018, 121.2886
1018.500, 120.5884
1018.982, 122.4175
1019.464, 127.0469
1019.946, 130.8081
1020.428, 133.5962
1020.910, 135.9771
1021.392, 137.1821
1021.874, 139.2622
1022.357, 146.3135
1022.839, 157.2822
1023.321, 169.7656
1023.803, 184.7651
1024.285, 198.2168
1024.767, 207.0059
1025.249, 215.5381
1025.731, 226.9814
1026.214, 241.3081
1026.696, 263.3218
1027.178, 293.6108
1027.660, 322.6733
1028.142, 340.5957
1028.624, 356.4927
1029.106, 378.6416
1029.588, 406.7300
1030.070, 434.6924
1030.553, 462.6318
1031.035, 489.5698
1031.517, 515.2056
1031.999, 539.9121
1032.481, 565.7495
1032.963, 591.4751
1033.445, 612.9146
1033.927, 626.7339
1034.410, 645.2783
1034.892, 675.5786
1035.374, 711.2954
1035.856, 748.1631
1036.338, 786.3652
1036.820, 820.4800
1037.302, 849.7056
1037.784, 887.9360
1038.266, 950.1685
1038.749, 1019.501
1039.231, 1076.273
1039.713, 1126.617
1040.195, 1184.616
1040.677, 1266.102
1041.159, 1331.476
1041.641, 1376.484
1042.123, 1407.585
1042.605, 1431.154
1043.088, 1447.735
1043.570, 1454.420
1044.052, 1450.973
1044.534, 1455.085
1045.016, 1478.046
1045.498, 1509.306
1045.980, 1539.435
1046.462, 1572.557
1046.945, 1630.570
1047.427, 1714.485
1047.909, 1808.048
1048.391, 1904.806
1048.873, 2009.200
1049.355, 2132.852
1049.837, 2264.999
1050.319, 2393.972
1050.802, 2529.274
1051.284, 2635.773
1051.766, 2720.029
1052.248, 2756.122
1052.730, 2720.068
1053.212, 2622.559
1053.694, 2481.297
1054.176, 2302.818
1054.658, 2118.735
1055.141, 1935.387
1055.623, 1758.635
1056.105, 1581.623
1056.587, 1416.667
1057.069, 1285.699
1057.551, 1188.838
1058.033, 1101.536
1058.515, 1021.487
1058.997, 946.8350
1059.480, 870.3262
1059.962, 801.4180
1060.444, 752.8853
1060.926, 726.4194
1061.408, 691.9355
1061.890, 644.2407
1062.372, 600.1196
1062.854, 564.9097
1063.337, 536.7158
1063.819, 513.2061
1064.301, 495.0591
1064.783, 484.6807
1065.265, 487.4937
1065.747, 486.5835
1066.229, 471.5991
1066.711, 455.5190
1067.193, 444.7920
1067.676, 439.8218
1068.158, 451.1606
1068.640, 477.4531
1069.122, 502.1704
1069.604, 513.1958
1070.086, 522.1426
1070.568, 536.8521
1071.050, 555.5537
1071.532, 573.4907
1072.015, 589.8018
1072.497, 608.3301
1072.979, 629.6128
1073.461, 653.4253
1073.943, 679.0347
1074.425, 707.3291
1074.907, 739.2515
1075.389, 774.7871
1075.872, 816.7939
1076.354, 868.8091
1076.836, 923.6768
1077.318, 982.4741
1077.800, 1039.069
1078.282, 1085.255
1078.764, 1119.088
1079.246, 1134.309
1079.729, 1128.836
1080.211, 1106.499
1080.693, 1064.702
1081.175, 1009.512
1081.657, 945.9028
1082.139, 873.7563
1082.621, 799.0938
1083.103, 721.1079
1083.585, 655.6211
1084.068, 618.0352
1084.550, 589.1860
1085.032, 552.0347
1085.514, 510.4263
1085.996, 471.9614
1086.478, 435.8877
1086.960, 407.9160
1087.442, 391.0410
1087.924, 373.4429
1088.406, 338.5664
1088.889, 297.7656
1089.371, 272.6519
1089.853, 262.2397
1090.335, 253.2964
1090.817, 245.7173
1091.299, 232.0220
1091.781, 206.0430
1092.263, 177.9941
1092.746, 170.5933
1093.228, 178.8599
1093.710, 178.1353
1094.192, 163.3574
1094.674, 147.5586
1095.156, 138.5801
1095.638, 131.8589
1096.120, 124.7271
1096.603, 117.0723
1097.085, 108.9482
1097.567, 100.3071
1098.049, 90.35986
1098.531, 77.80664
1099.013, 65.82422
1099.495, 55.91748
1099.977, 49.33496
1100.459, 48.72070
1100.942, 58.99707
1101.424, 60.31152
1101.906, 50.67383
1102.388, 38.63574
1102.870, 27.87646
1103.352, 19.46191
1103.834, 16.99756
1104.316, 18.55664
1104.798, 18.73438
1105.281, 15.35742
1105.763, 10.62988
1106.245, 3.965820
1106.727, 2.458008
1107.209, 5.367676
1107.691, 5.787598
1108.173, 8.538574
1108.655, 13.64062
1109.138, 17.17285
1109.620, 15.48535
1110.102, 13.25537
1110.584, 12.50146
1111.066, 12.79102
1111.548, 14.24268
1112.030, 16.79883
1112.512, 13.70215
1112.995, 2.610840
1113.477, 6.366211
1113.959, 0.5756840
1114.441, 9.704102
1114.923, 6.781250
1115.405, 8.060547
1115.887, 12.63184
1116.369, 4.959961
1116.851, 1.805664
1117.333, 2.724121
1117.816, 1.184082
1118.298, 0.5625000
1118.780, 0.8344730
1119.262, 2.333496
1119.744, 6.425781
1120.226, 7.026367
1120.708, 2.519043
1121.190, 2.109863
1121.673, 4.261719
1122.155, 4.321777
1122.637, 1.835449
1123.119, 1.910645
1123.601, 3.385742
1124.083, 2.543945
1124.565, 5.306152
1125.047, 1.081055
1125.530, 3.783691
1126.012, 2.865234
1126.494, 2.701172
1126.976, 6.041504
1127.458, 7.537598
1127.940, 11.20068
1128.422, 22.31543
1128.904, 33.12939
1129.386, 42.39795
1129.869, 48.10107
1130.351, 43.06250
1130.833, 27.71338
1131.315, 24.06982
1131.797, 35.30615
1132.279, 46.40039
1132.761, 42.45508
1133.243, 36.49561
1133.725, 40.18652
1134.208, 50.84521
1134.690, 52.71582
1135.172, 44.24072
1135.654, 38.79492
1136.136, 39.80664
1136.618, 43.71924
1137.100, 48.51221
1137.582, 52.89941
1138.065, 55.40479
1138.547, 55.63135
1139.029, 55.11963
1139.511, 53.91602
1139.993, 51.57959
1140.475, 46.59570
1140.957, 42.53223
1141.439, 46.98828
1141.922, 55.75049
1142.404, 61.83105
1142.886, 63.47998
1143.368, 61.37939
1143.850, 53.31543
1144.332, 46.86523
1144.814, 48.26514
1145.296, 53.87988
1145.778, 53.31445
1146.260, 48.89795
1146.743, 47.42822
1147.225, 53.91309
1147.707, 60.87891
1148.189, 70.15674
1148.671, 75.72461
1149.153, 69.25244
1149.635, 54.15918
1150.117, 48.02051
1150.600, 49.97363
1151.082, 50.80176
1151.564, 43.71533
1152.046, 37.14404
1152.528, 32.98828
1153.010, 31.95410
1153.492, 36.70752
1153.974, 46.49365
1154.457, 52.37842
1154.939, 53.55469
1155.421, 54.16943
1155.903, 58.00488
1156.385, 61.05566
1156.867, 59.63477
1157.349, 55.91943
1157.831, 54.89648
1158.313, 56.55566
1158.796, 57.24561
1159.278, 55.94482
1159.760, 56.63037
1160.242, 68.03613
1160.724, 78.43018
1161.206, 75.54004
1161.688, 61.48047
1162.170, 54.32910
1162.652, 54.57617
1163.135, 56.07520
1163.617, 56.67822
1164.099, 59.50488
1164.581, 71.85254
1165.063, 85.36182
1165.545, 90.23584
1166.027, 84.42578
1166.509, 81.00586
1166.992, 80.84082
1167.474, 78.39502
1167.956, 69.38916
1168.438, 60.34570
1168.920, 62.71875
1169.402, 69.12061
1169.884, 68.15625
1170.366, 53.85693
1170.849, 47.71875
1171.331, 51.44189
1171.813, 55.49268
1172.295, 53.79639
1172.777, 50.03516
1173.259, 50.58740
1173.741, 52.46338
1174.223, 50.38965
1174.705, 37.23584
1175.188, 30.72607
1175.670, 33.78418
1176.152, 36.54883
1176.634, 27.73926
1177.116, 15.20166
1177.598, 16.89160
1178.080, 28.34668
1178.562, 35.50146
1179.044, 29.22705
1179.527, 24.66748
1180.009, 23.28076
1180.491, 23.23438
1180.973, 23.26562
1181.455, 22.97314
1181.937, 22.32373
1182.419, 20.96240
1182.901, 18.80371
1183.384, 14.57422
1183.866, 9.514648
1184.348, 2.304688
1184.830, 3.232422
1185.312, 0.3295900
1185.794, 7.145996
1186.276, 7.389160
1186.758, 0.3916020
1187.240, 3.745605
1187.723, 0.6987300
1188.205, 6.156738
1188.687, 17.32227
1189.169, 29.51318
1189.651, 39.16162
1190.133, 45.17383
1190.615, 41.10010
1191.097, 26.01562
1191.579, 16.72656
1192.062, 27.54541
1192.544, 36.81592
1193.026, 37.10742
1193.508, 32.11328
1193.990, 30.35156
1194.472, 30.33447
1194.954, 25.81592
1195.436, 15.08154
1195.919, 6.196289
1196.401, 0.2788090
1196.883, 0.7636720
1197.365, 15.76514
1197.847, 36.50342
1198.329, 35.57373
1198.811, 18.74805
1199.293, 9.065918
1199.776, 13.80713
1200.258, 18.17334
1200.740, 11.74805
1201.222, 7.130859
1201.704, 12.32373
1202.186, 23.57520
1202.668, 25.28125
1203.150, 19.53711
1203.632, 14.63818
1204.115, 12.94678
1204.597, 13.21973
1205.079, 17.48438
1205.561, 20.90088
1206.043, 19.09473
1206.525, 14.25684
1207.007, 20.83447
1207.489, 35.50586
1207.971, 43.05713
1208.454, 33.66650
1208.936, 23.90869
1209.418, 20.29590
1209.900, 19.28027
1210.382, 19.22510
1210.864, 19.84033
1211.346, 18.48633
1211.828, 15.86279
1212.311, 15.66455
1212.793, 22.41162
1213.275, 27.43799
1213.757, 24.49951
1214.239, 21.70703
1214.721, 26.97070
1215.203, 38.42920
1215.685, 40.23389
1216.167, 34.09814
1216.650, 29.19580
1217.132, 32.33496
1217.614, 34.51562
1218.096, 32.27734
1218.578, 28.72021
1219.060, 25.94385
1219.542, 24.10010
1220.024, 25.27344
1220.506, 28.69629
1220.989, 29.82910
1221.471, 21.42041
1221.953, 17.13281
1222.435, 23.54395
1222.917, 32.74463
1223.399, 39.62207
1223.881, 43.12061
1224.363, 35.02588
1224.846, 17.63184
1225.328, 6.243652
1225.810, 12.72998
1226.292, 20.72998
1226.774, 27.41846
1227.256, 31.95459
1227.738, 31.64014
1228.220, 28.41016
1228.703, 29.97217
1229.185, 35.97656
1229.667, 41.24463
1230.149, 45.92432
1230.631, 45.20654
1231.113, 34.83496
1231.595, 23.95410
1232.077, 26.82764
1232.559, 37.99658
1233.042, 41.09863
1233.524, 36.16260
1234.006, 33.36426
1234.488, 41.60449
1234.970, 45.37109
1235.452, 40.54785
1235.934, 32.46240
1236.416, 29.09961
1236.898, 27.77881
1237.381, 20.40723
1237.863, 7.625000
1238.345, 0.7983400
1238.827, 12.33203
1239.309, 16.48828
1239.791, 6.663574
1240.273, 6.580078
1240.755, 11.41406
1241.238, 8.629395
1241.720, 5.216309
1242.202, 28.47461
1242.684, 38.41357
1243.166, 21.35742
1243.648, 10.85010
1244.130, 13.92236
1244.612, 23.08789
1245.094, 32.29248
1245.577, 39.06104
1246.059, 37.92773
1246.541, 29.07715
1247.023, 23.27002
1247.505, 21.42432
1247.987, 22.19385
1248.469, 24.86621
1248.951, 29.99854
1249.433, 36.39062
1249.916, 34.45068
1250.398, 33.13770
1250.880, 22.49512
1251.362, 15.59961
1251.844, 12.61182
1252.326, 15.90674
1252.808, 27.83398
1253.290, 38.36182
1253.773, 36.16602
1254.255, 28.54150
1254.737, 19.96875
1255.219, 10.87939
1255.701, 5.414551
1256.183, 4.244629
1256.665, 3.522461
1257.147, 2.453125
1257.630, 1.899902
1258.112, 0.0000000E+00
##END=



