##NAMES=Fluorophlogopite
##RRUFFID=R040042
##IDEAL CHEMISTRY=KMg_3_(Si_3_Al)O_10_F_2_
##LOCALITY=Franklin, Sussex County, New Jersey, USA
##OWNER=RRUFF
##SOURCE=University of Arizona Mineral Museum
##DESCRIPTION=Brown flattened hexagonal prism, polytype 1M
##STATUS=The identification of this mineral has been confirmed by X-ray diffraction and chemical analysis
##URL=rruff.info/R040042
##MEASURED CHEMISTRY=(K_0.92_Na_0.08_)_Σ=1_(Mg_2.95_Fe_0.05_)_Σ=3_(Si_3.00_Al_1.00_)O_10_(F_1.40_(OH)_0.60_)_Σ=2_; trace amounts of Ti; OH estimated by charge balance
149.0088, 0.0000000E+00
149.4909, 48.31323
149.9730, 75.55225
150.4551, 85.75708
150.9372, 86.94189
151.4194, 85.68408
151.9015, 73.85034
152.3836, 66.24097
152.8657, 72.40161
153.3478, 89.58594
153.8299, 110.4724
154.3121, 103.5161
154.7942, 88.46094
155.2763, 61.95703
155.7584, 31.30347
156.2405, 10.10718
156.7226, 0.6313480
157.2048, 6.553955
157.6869, 12.76147
158.1690, 17.36719
158.6511, 11.68701
159.1332, 10.01367
159.6153, 42.13599
160.0975, 72.98218
160.5796, 101.4753
161.0617, 131.4451
161.5438, 167.7910
162.0259, 209.1016
162.5080, 246.1387
162.9902, 272.9646
163.4723, 294.8665
163.9544, 320.6562
164.4365, 351.5803
164.9186, 383.6941
165.4007, 415.0247
165.8829, 445.5142
166.3650, 472.1406
166.8471, 489.1953
167.3292, 504.4980
167.8113, 530.1523
168.2934, 572.2356
168.7756, 612.2280
169.2577, 629.9868
169.7398, 625.1589
170.2219, 622.6086
170.7040, 632.3164
171.1861, 649.1350
171.6683, 668.0112
172.1504, 689.2024
172.6325, 710.0867
173.1146, 726.8367
173.5967, 739.0491
174.0788, 753.6699
174.5610, 773.0051
175.0431, 796.6006
175.5252, 822.7979
176.0073, 850.0774
176.4894, 883.8496
176.9715, 933.1379
177.4537, 1000.011
177.9358, 1066.312
178.4179, 1118.349
178.9000, 1170.086
179.3821, 1233.895
179.8642, 1312.905
180.3464, 1403.131
180.8285, 1499.337
181.3106, 1600.604
181.7927, 1712.828
182.2748, 1829.013
182.7569, 1963.316
183.2391, 2130.660
183.7212, 2335.449
184.2033, 2567.283
184.6854, 2812.771
185.1675, 3069.825
185.6496, 3348.804
186.1318, 3657.222
186.6139, 3987.019
187.0960, 4336.302
187.5781, 4705.185
188.0602, 5091.871
188.5423, 5501.546
189.0245, 5933.482
189.5066, 6379.637
189.9887, 6849.718
190.4708, 7324.000
190.9529, 7797.357
191.4350, 8267.102
191.9172, 8723.544
192.3993, 9167.844
192.8814, 9608.891
193.3635, 9988.475
193.8456, 10310.71
194.3277, 10553.09
194.8099, 10694.36
195.2920, 10729.97
195.7741, 10662.61
196.2562, 10481.58
196.7383, 10176.02
197.2204, 9811.964
197.7026, 9381.228
198.1847, 8902.127
198.6668, 8374.425
199.1489, 7788.284
199.6310, 7187.025
200.1131, 6610.992
200.5953, 6061.459
201.0774, 5546.631
201.5595, 5074.353
202.0416, 4642.799
202.5237, 4259.972
203.0058, 3925.181
203.4880, 3633.307
203.9701, 3384.279
204.4522, 3180.971
204.9343, 2994.123
205.4164, 2829.367
205.8985, 2674.064
206.3807, 2520.347
206.8628, 2367.446
207.3449, 2222.343
207.8270, 2091.607
208.3091, 1975.294
208.7912, 1872.862
209.2734, 1792.363
209.7555, 1720.617
210.2376, 1652.946
210.7197, 1588.148
211.2018, 1523.607
211.6839, 1454.432
212.1661, 1380.301
212.6482, 1317.466
213.1303, 1281.972
213.6124, 1246.378
214.0945, 1190.552
214.5766, 1116.573
215.0588, 1044.724
215.5409, 994.1624
216.0230, 964.3872
216.5051, 935.2402
216.9872, 911.0977
217.4693, 880.8147
217.9515, 834.1519
218.4336, 774.2212
218.9157, 716.2163
219.3978, 671.9404
219.8799, 640.0686
220.3620, 608.5854
220.8442, 574.7126
221.3263, 544.0850
221.8084, 520.7148
222.2905, 503.0701
222.7726, 486.2261
223.2547, 467.6160
223.7369, 447.2437
224.2190, 425.8345
224.7011, 405.2588
225.1832, 380.0081
225.6653, 339.4094
226.1474, 291.4827
226.6296, 255.8303
227.1117, 249.6707
227.5938, 263.1519
228.0759, 268.1611
228.5580, 262.3286
229.0401, 252.5015
229.5223, 239.3918
230.0044, 225.4917
230.4865, 215.9341
230.9686, 216.7009
231.4507, 221.2769
231.9328, 217.0664
232.4150, 202.6631
232.8971, 183.5652
233.3792, 156.9976
233.8613, 128.8135
234.3434, 107.3357
234.8255, 95.94092
235.3077, 91.73340
235.7898, 92.91333
236.2719, 100.7583
236.7540, 106.1060
237.2361, 104.2744
237.7182, 97.17505
238.2004, 85.95728
238.6825, 67.42773
239.1646, 50.29907
239.6467, 47.78735
240.1288, 60.17383
240.6109, 63.90161
241.0931, 42.00708
241.5752, 10.08252
242.0573, 9.116211
242.5394, 11.09399
243.0215, 7.737061
243.5036, 5.513916
243.9858, 4.716064
244.4679, 8.513184
244.9500, 21.75317
245.4321, 36.24707
245.9142, 38.11011
246.3963, 23.17041
246.8785, 12.88599
247.3606, 24.77710
247.8427, 51.03613
248.3248, 68.03223
248.8069, 67.64404
249.2890, 58.73438
249.7712, 52.10522
250.2533, 47.55396
250.7354, 45.70923
251.2175, 52.22388
251.6996, 60.58252
252.1817, 58.35229
252.6639, 41.92188
253.1460, 19.45972
253.6281, 1.244873
254.1102, 20.32568
254.5923, 36.61938
255.0744, 52.07031
255.5566, 63.63989
256.0387, 62.89673
256.5208, 48.62769
257.0029, 38.94092
257.4850, 49.80249
257.9671, 83.20288
258.4492, 126.4712
258.9314, 185.3716
259.4135, 249.5281
259.8956, 324.5771
260.3777, 405.1130
260.8598, 456.1279
261.3419, 445.4727
261.8241, 376.9690
262.3062, 333.5232
262.7883, 319.4714
263.2704, 323.0117
263.7525, 345.9319
264.2346, 383.0212
264.7168, 421.1433
265.1989, 452.3059
265.6810, 479.1230
266.1631, 514.5278
266.6452, 560.0896
267.1273, 611.1833
267.6095, 666.5100
268.0916, 726.8696
268.5737, 791.9641
269.0558, 861.2161
269.5379, 938.6677
270.0201, 1032.476
270.5022, 1170.310
270.9843, 1291.749
271.4664, 1380.035
271.9485, 1460.007
272.4306, 1554.775
272.9128, 1670.555
273.3949, 1800.998
273.8770, 1937.813
274.3591, 2095.676
274.8412, 2225.979
275.3233, 2325.812
275.8055, 2404.929
276.2876, 2474.924
276.7697, 2533.760
277.2518, 2565.118
277.7339, 2550.246
278.2160, 2483.879
278.6982, 2400.916
279.1803, 2297.798
279.6624, 2181.869
280.1445, 2052.760
280.6266, 1912.289
281.1087, 1761.471
281.5909, 1596.938
282.0730, 1421.675
282.5551, 1271.152
283.0372, 1158.004
283.5193, 1054.399
284.0014, 954.9414
284.4836, 859.3596
284.9657, 766.7324
285.4478, 675.9529
285.9299, 590.7083
286.4120, 523.1672
286.8941, 478.1602
287.3763, 440.7324
287.8584, 407.8008
288.3405, 378.7986
288.8226, 354.7139
289.3047, 335.9458
289.7868, 321.0132
290.2690, 308.6252
290.7511, 298.9893
291.2332, 290.4858
291.7153, 286.0547
292.1974, 279.9714
292.6795, 265.5527
293.1617, 242.5154
293.6438, 221.9126
294.1259, 212.1282
294.6080, 211.8960
295.0901, 213.9319
295.5722, 214.4709
296.0544, 222.0530
296.5365, 249.1252
297.0186, 291.4070
297.5007, 327.5569
297.9828, 339.9092
298.4649, 344.3499
298.9471, 369.3845
299.4292, 419.7625
299.9113, 470.5728
300.3934, 501.2944
300.8755, 518.2729
301.3576, 545.1670
301.8398, 593.8608
302.3219, 645.4268
302.8040, 679.9866
303.2861, 701.5737
303.7682, 735.3560
304.2503, 798.0063
304.7325, 880.8105
305.2146, 954.1167
305.6967, 1010.410
306.1788, 1067.897
306.6609, 1133.323
307.1430, 1205.345
307.6252, 1284.775
308.1073, 1372.552
308.5894, 1458.258
309.0715, 1521.549
309.5536, 1547.579
310.0357, 1580.862
310.5179, 1628.090
311.0000, 1681.062
311.4821, 1734.319
311.9642, 1785.682
312.4463, 1834.273
312.9284, 1880.262
313.4106, 1926.109
313.8927, 1954.135
314.3748, 1948.442
314.8569, 1943.683
315.3390, 1959.215
315.8211, 1988.136
316.3033, 2011.210
316.7854, 2015.010
317.2675, 2002.332
317.7496, 1991.326
318.2317, 1986.246
318.7138, 1977.052
319.1960, 1955.394
319.6781, 1931.346
320.1602, 1919.799
320.6423, 1927.287
321.1244, 1938.591
321.6065, 1925.678
322.0887, 1883.067
322.5708, 1833.765
323.0529, 1774.655
323.5350, 1714.582
324.0171, 1663.631
324.4992, 1621.477
324.9814, 1571.685
325.4635, 1492.274
325.9456, 1386.395
326.4277, 1299.106
326.9098, 1244.485
327.3919, 1194.618
327.8741, 1126.343
328.3562, 1046.153
328.8383, 974.4780
329.3204, 929.5876
329.8025, 894.9678
330.2846, 840.6055
330.7668, 764.0613
331.2489, 689.7739
331.7310, 633.2664
332.2131, 589.9746
332.6952, 546.7000
333.1773, 501.9053
333.6595, 458.2766
334.1416, 419.6794
334.6237, 384.2283
335.1058, 345.7515
335.5879, 301.1504
336.0700, 254.1760
336.5522, 211.4146
337.0343, 170.1973
337.5164, 139.0601
337.9985, 125.6311
338.4806, 119.8425
338.9627, 112.6511
339.4449, 101.9783
339.9270, 87.07422
340.4091, 65.51904
340.8912, 34.16235
341.3733, 16.41064
341.8554, 20.98950
342.3376, 28.30884
342.8197, 32.72900
343.3018, 32.61914
343.7839, 24.47876
344.2660, 4.435059
344.7481, 22.21973
345.2303, 28.81909
345.7124, 6.550781
346.1945, 32.25000
346.6766, 35.08130
347.1587, 28.91382
347.6408, 26.10620
348.1230, 30.73071
348.6051, 41.93115
349.0872, 61.70996
349.5693, 94.37646
350.0514, 116.7090
350.5335, 119.4077
351.0157, 116.6426
351.4978, 111.1003
351.9799, 105.0393
352.4620, 107.2124
352.9441, 133.7771
353.4262, 176.1511
353.9084, 198.8120
354.3905, 196.8794
354.8726, 189.7522
355.3547, 189.8108
355.8368, 192.5530
356.3189, 190.0076
356.8011, 175.0356
357.2832, 158.7129
357.7653, 148.8079
358.2474, 146.1682
358.7295, 155.3667
359.2116, 182.2263
359.6938, 216.3530
360.1759, 238.7756
360.6580, 248.3562
361.1401, 255.8960
361.6222, 255.6501
362.1043, 257.9099
362.5865, 280.4243
363.0686, 324.9375
363.5507, 368.3152
364.0328, 387.9050
364.5149, 380.0732
364.9970, 379.2231
365.4792, 381.5640
365.9613, 394.8003
366.4434, 430.4929
366.9255, 478.6304
367.4076, 518.6626
367.8897, 538.7485
368.3719, 543.5652
368.8540, 550.6296
369.3361, 566.4790
369.8182, 574.9204
370.3003, 571.0217
370.7824, 560.8301
371.2646, 552.3572
371.7467, 546.9478
372.2288, 535.7729
372.7109, 505.6970
373.1930, 455.4961
373.6751, 410.9714
374.1573, 372.0806
374.6394, 341.4856
375.1215, 327.8879
375.6036, 323.0967
376.0857, 306.1523
376.5678, 255.7610
377.0500, 195.7446
377.5321, 170.6157
378.0142, 183.4685
378.4963, 192.7888
378.9784, 178.2913
379.4605, 149.2922
379.9427, 124.4968
380.4248, 104.7937
380.9069, 87.34839
381.3890, 71.28003
381.8711, 56.33105
382.3532, 40.89453
382.8354, 24.23047
383.3175, 10.43164
383.7996, 4.463379
384.2817, 8.042725
384.7638, 12.41992
385.2459, 20.81885
385.7281, 27.15723
386.2102, 26.77783
386.6923, 21.22461
387.1744, 13.58765
387.6565, 4.684570
388.1386, 2.270996
388.6208, 7.289795
389.1029, 58.16089
389.5850, 90.16821
390.0671, 84.65161
390.5492, 66.75488
391.0313, 57.77881
391.5135, 62.68774
391.9956, 73.57446
392.4777, 82.70654
392.9598, 90.13379
393.4419, 94.83545
393.9240, 95.41602
394.4062, 94.73120
394.8883, 93.65894
395.3704, 92.52832
395.8525, 92.18970
396.3346, 94.24854
396.8167, 96.09033
397.2989, 93.46851
397.7810, 86.26050
398.2631, 77.35669
398.7452, 64.35352
399.2273, 53.34595
399.7094, 55.83398
400.1916, 76.95825
400.6737, 92.73438
401.1558, 94.06982
401.6379, 84.62036
402.1200, 64.66431
402.6021, 34.42896
403.0843, 9.972412
403.5664, 9.305420
404.0485, 34.36670
404.5306, 47.44141
405.0127, 44.66748
405.4948, 36.10449
405.9770, 20.54810
406.4591, 2.929443
406.9412, 7.850098
407.4233, 7.527832
407.9054, 2.114014
408.3875, 6.537598
408.8697, 31.80884
409.3518, 42.07446
409.8339, 20.16333
410.3160, 4.063965
410.7981, 12.33740
411.2802, 4.738525
411.7624, 7.626221
412.2445, 17.34741
412.7266, 24.94580
413.2087, 34.38379
413.6908, 49.28467
414.1729, 56.73584
414.6551, 42.16577
415.1372, 18.58960
415.6193, 2.788086
416.1014, 0.2783200
416.5835, 0.2270510
417.0656, 4.207031
417.5478, 10.41016
418.0299, 6.796631
418.5120, 11.84375
418.9941, 32.07031
419.4762, 38.15332
419.9583, 28.14233
420.4405, 12.55640
420.9226, 24.04614
421.4047, 52.51367
421.8868, 47.59888
422.3689, 18.20361
422.8510, 9.119629
423.3332, 19.04395
423.8153, 15.73315
424.2974, 12.62207
424.7795, 11.13916
425.2616, 7.432129
425.7437, 3.506592
426.2259, 13.24854
426.7080, 11.70752
427.1901, 0.1425780
427.6722, 8.554932
428.1543, 3.648438
428.6364, 33.31128
429.1186, 47.88184
429.6007, 40.31128
430.0828, 30.91602
430.5649, 30.57251
431.0470, 34.70117
431.5291, 36.31689
432.0113, 31.82788
432.4934, 28.54663
432.9755, 33.69604
433.4576, 45.33301
433.9397, 56.13525
434.4218, 63.79419
434.9040, 71.42090
435.3861, 83.85791
435.8682, 102.4734
436.3503, 116.1213
436.8324, 122.3135
437.3145, 125.0200
437.7967, 121.7776
438.2788, 116.8376
438.7609, 122.1165
439.2430, 145.3696
439.7251, 179.4578
440.2072, 202.1616
440.6894, 206.2034
441.1715, 210.7661
441.6536, 211.0107
442.1357, 216.5981
442.6178, 237.5994
443.0999, 272.6174
443.5821, 309.2141
444.0642, 338.0312
444.5463, 359.8650
445.0284, 377.6057
445.5105, 389.6975
445.9926, 401.5596
446.4748, 413.1501
446.9569, 427.2407
447.4390, 448.6863
447.9211, 480.2820
448.4032, 513.9622
448.8853, 546.5591
449.3675, 577.3308
449.8496, 603.5037
450.3317, 623.7429
450.8138, 645.0486
451.2959, 673.2349
451.7780, 708.2864
452.2602, 755.8801
452.7423, 824.2358
453.2244, 895.3071
453.7065, 956.5881
454.1886, 1016.167
454.6707, 1088.069
455.1528, 1178.186
455.6349, 1283.570
456.1171, 1399.907
456.5992, 1529.456
457.0813, 1662.727
457.5634, 1804.784
458.0455, 1946.661
458.5276, 2079.155
459.0098, 2206.974
459.4919, 2344.255
459.9740, 2504.552
460.4561, 2674.300
460.9382, 2832.212
461.4203, 2979.216
461.9025, 3108.747
462.3846, 3227.885
462.8667, 3318.856
463.3488, 3356.546
463.8309, 3341.853
464.3130, 3283.958
464.7952, 3178.968
465.2773, 3035.782
465.7594, 2850.914
466.2415, 2630.818
466.7236, 2405.802
467.2057, 2198.307
467.6879, 2008.762
468.1700, 1825.706
468.6521, 1644.521
469.1342, 1474.320
469.6163, 1307.078
470.0984, 1155.338
470.5806, 1032.792
471.0627, 940.3660
471.5448, 860.9670
472.0269, 778.8391
472.5090, 696.7568
472.9911, 632.6392
473.4733, 590.9297
473.9554, 552.4565
474.4375, 507.3606
474.9196, 460.4399
475.4017, 416.3342
475.8839, 371.2612
476.3660, 337.8435
476.8481, 336.8530
477.3302, 351.8513
477.8123, 345.1443
478.2944, 308.5378
478.7766, 268.0623
479.2587, 248.8611
479.7408, 252.5017
480.2229, 245.7085
480.7050, 215.5076
481.1871, 189.6543
481.6693, 178.8057
482.1514, 178.1880
482.6335, 182.9614
483.1156, 190.9663
483.5977, 197.3452
484.0798, 192.5256
484.5620, 173.7734
485.0441, 161.1045
485.5262, 157.8860
486.0083, 158.8494
486.4904, 161.8743
486.9725, 165.4885
487.4547, 167.3833
487.9368, 164.0554
488.4189, 162.9844
488.9010, 177.0945
489.3831, 200.9705
489.8652, 211.1790
490.3474, 199.3784
490.8295, 178.8650
491.3116, 164.0176
491.7937, 155.3235
492.2758, 152.1499
492.7579, 153.8044
493.2401, 161.6082
493.7222, 182.9192
494.2043, 209.6445
494.6864, 227.3059
495.1685, 229.3979
495.6506, 222.1270
496.1328, 216.1790
496.6149, 211.9380
497.0970, 207.2590
497.5791, 201.3752
498.0612, 195.6841
498.5433, 188.5857
499.0255, 182.1694
499.5076, 182.1387
499.9897, 194.1514
500.4718, 209.5466
500.9539, 221.3794
501.4360, 228.7729
501.9182, 224.1907
502.4003, 202.0605
502.8824, 175.6772
503.3645, 163.5632
503.8466, 169.6987
504.3287, 172.1157
504.8109, 167.9204
505.2930, 162.2466
505.7751, 156.1394
506.2572, 150.9766
506.7393, 149.8135
507.2214, 153.7363
507.7036, 159.4385
508.1857, 162.1260
508.6678, 162.1636
509.1499, 157.8279
509.6320, 124.3113
510.1141, 148.9309
510.5963, 162.5386
511.0784, 166.1443
511.5605, 125.7056
512.0426, 139.8967
512.5247, 130.9702
513.0068, 121.1035
513.4890, 143.3418
513.9711, 108.5815
514.4532, 131.5706
514.9353, 130.1060
515.4174, 139.2717
515.8995, 127.0715
516.3817, 122.9426
516.8638, 141.4290
517.3459, 146.5671
517.8280, 116.8022
518.3101, 109.7710
518.7922, 106.0376
519.2744, 110.4641
519.7565, 117.8438
520.2386, 119.9714
520.7207, 116.1716
521.2028, 112.8848
521.6849, 114.4141
522.1671, 111.6121
522.6492, 93.89404
523.1313, 68.60596
523.6134, 53.36572
524.0955, 56.34229
524.5776, 68.52759
525.0598, 88.89966
525.5419, 111.0559
526.0240, 117.1870
526.5061, 102.5718
526.9882, 81.38330
527.4703, 69.15576
527.9525, 67.15674
528.4346, 62.46582
528.9167, 55.99536
529.3988, 47.12305
529.8809, 27.00684
530.3630, 7.348877
530.8452, 4.657227
531.3273, 23.26636
531.8094, 47.08032
532.2915, 57.55273
532.7736, 55.45557
533.2557, 49.26880
533.7379, 35.05518
534.2200, 26.68896
534.7021, 38.61938
535.1842, 60.79663
535.6663, 72.87036
536.1484, 66.06885
536.6306, 61.76611
537.1127, 78.52490
537.5948, 99.97461
538.0769, 99.84546
538.5590, 75.80957
539.0411, 47.77441
539.5233, 31.35376
540.0054, 26.20728
540.4875, 29.30225
540.9696, 51.10571
541.4517, 65.59814
541.9338, 64.27026
542.4160, 58.02710
542.8981, 55.28979
543.3802, 57.23022
543.8623, 60.63599
544.3444, 65.70508
544.8265, 69.97705
545.3087, 64.06226
545.7908, 47.28223
546.2729, 41.95850
546.7550, 64.13428
547.2371, 96.77246
547.7192, 103.6824
548.2014, 74.98682
548.6835, 54.91943
549.1656, 56.18213
549.6477, 61.01123
550.1298, 54.24048
550.6119, 40.42529
551.0941, 35.43237
551.5762, 48.76587
552.0583, 69.81738
552.5404, 74.39990
553.0225, 58.32227
553.5046, 47.56689
553.9868, 46.46631
554.4689, 50.40332
554.9510, 60.21729
555.4331, 72.56177
555.9152, 76.83643
556.3973, 64.78052
556.8795, 49.67969
557.3616, 39.10889
557.8437, 33.36328
558.3258, 35.17456
558.8079, 45.29346
559.2900, 55.67822
559.7722, 57.17334
560.2543, 49.10620
560.7364, 42.81104
561.2185, 35.14307
561.7006, 33.13135
562.1827, 48.06543
562.6649, 64.12866
563.1470, 60.15161
563.6291, 32.89355
564.1112, 6.343506
564.5933, 4.743652
565.0754, 19.63452
565.5576, 26.59741
566.0397, 24.37500
566.5218, 17.92432
567.0039, 8.475342
567.4860, 2.598633
567.9681, 13.38086
568.4503, 30.25513
568.9324, 31.90015
569.4145, 6.759766
569.8966, 43.36182
570.3787, 39.03687
570.8608, 4.720215
571.3430, 21.44409
571.8251, 16.37109
572.3072, 3.875732
572.7893, 3.131836
573.2714, 23.04565
573.7535, 38.87915
574.2357, 33.26294
574.7178, 23.70483
575.1999, 24.76538
575.6820, 32.80005
576.1641, 36.17798
576.6462, 29.45679
577.1284, 20.68384
577.6105, 13.91309
578.0926, 8.587891
578.5747, 3.305908
579.0568, 2.113281
579.5389, 5.966309
580.0211, 6.910400
580.5032, 4.845215
580.9853, 3.576660
581.4674, 30.09863
581.9495, 44.45435
582.4316, 31.70947
582.9138, 11.05054
583.3959, 0.3520510
583.8780, 0.7229000
584.3601, 0.1110840
584.8422, 6.355957
585.3243, 13.76660
585.8065, 8.624512
586.2886, 6.826904
586.7707, 11.95850
587.2528, 4.388916
587.7349, 27.84570
588.2170, 32.05835
588.6992, 6.424072
589.1813, 4.397949
589.6634, 10.37183
590.1455, 26.28198
590.6276, 36.73755
591.1097, 40.35522
591.5919, 34.08984
592.0740, 16.34033
592.5561, 2.242920
593.0382, 9.094971
593.5203, 6.656006
594.0024, 6.567139
594.4846, 10.55713
594.9667, 13.21143
595.4488, 11.10645
595.9309, 5.085938
596.4130, 2.031982
596.8951, 10.30640
597.3773, 19.27441
597.8594, 33.53076
598.3415, 45.02026
598.8236, 43.38013
599.3057, 32.55225
599.7878, 27.33545
600.2700, 37.61499
600.7521, 55.37769
601.2342, 64.19336
601.7163, 63.52124
602.1984, 62.08203
602.6805, 60.72437
603.1627, 60.01685
603.6448, 60.86572
604.1269, 62.87329
604.6090, 64.43799
605.0911, 61.38745
605.5732, 62.49976
606.0554, 76.03784
606.5375, 93.39282
607.0196, 102.6826
607.5017, 102.7227
607.9838, 101.8027
608.4659, 107.5771
608.9481, 117.9915
609.4302, 122.6323
609.9123, 119.0659
610.3944, 117.2297
610.8765, 120.9795
611.3586, 126.2483
611.8408, 127.5608
612.3229, 125.7200
612.8050, 129.8149
613.2871, 147.3613
613.7692, 167.0852
614.2513, 181.8101
614.7335, 192.7075
615.2156, 202.2080
615.6977, 211.0715
616.1798, 218.4880
616.6619, 222.4260
617.1440, 222.9624
617.6262, 230.5742
618.1083, 248.3455
618.5904, 267.6631
619.0725, 283.9478
619.5546, 301.6250
620.0367, 326.4812
620.5189, 358.9094
621.0010, 389.4500
621.4831, 414.7063
621.9652, 435.1709
622.4473, 447.8701
622.9294, 456.6841
623.4116, 472.9910
623.8937, 501.4412
624.3758, 534.1792
624.8579, 559.4653
625.3400, 575.1914
625.8221, 594.1387
626.3043, 620.7163
626.7864, 644.5811
627.2685, 662.2344
627.7506, 676.9839
628.2327, 693.4624
628.7148, 711.8542
629.1970, 735.2271
629.6791, 775.7915
630.1612, 820.9453
630.6433, 850.0225
631.1254, 863.2952
631.6075, 874.7698
632.0897, 891.9199
632.5718, 912.6672
633.0539, 932.0173
633.5360, 948.8755
634.0181, 966.6609
634.5002, 987.2539
634.9824, 1008.015
635.4645, 1030.618
635.9466, 1051.361
636.4287, 1065.746
636.9108, 1072.870
637.3929, 1072.662
637.8751, 1058.023
638.3572, 1039.569
638.8393, 1035.996
639.3214, 1044.075
639.8035, 1046.142
640.2856, 1034.193
640.7678, 1014.062
641.2499, 995.7632
641.7320, 980.0056
642.2141, 961.1191
642.6962, 924.7734
643.1783, 901.8308
643.6605, 915.4722
644.1426, 944.9907
644.6247, 959.6770
645.1068, 952.3611
645.5889, 938.3000
646.0710, 924.8623
646.5532, 912.4832
647.0353, 899.4282
647.5174, 887.3716
647.9995, 884.9443
648.4816, 898.2383
648.9637, 917.1882
649.4459, 917.8176
649.9280, 886.5498
650.4101, 879.3909
650.8922, 920.5483
651.3743, 958.2739
651.8564, 969.3040
652.3386, 964.4709
652.8207, 959.9568
653.3028, 958.5437
653.7849, 961.8660
654.2670, 970.2849
654.7491, 983.9014
655.2313, 1005.697
655.7134, 1033.807
656.1955, 1059.628
656.6776, 1078.506
657.1597, 1094.263
657.6418, 1114.043
658.1240, 1138.192
658.6061, 1165.656
659.0882, 1200.227
659.5703, 1233.049
660.0524, 1256.065
660.5345, 1276.946
661.0167, 1306.566
661.4988, 1347.309
661.9809, 1393.572
662.4630, 1452.511
662.9451, 1509.286
663.4272, 1540.763
663.9094, 1554.942
664.3915, 1580.477
664.8736, 1630.425
665.3557, 1699.421
665.8378, 1781.595
666.3199, 1879.656
666.8021, 1968.463
667.2842, 2041.905
667.7663, 2117.095
668.2484, 2198.133
668.7305, 2287.793
669.2126, 2392.348
669.6948, 2514.294
670.1769, 2636.330
670.6590, 2745.274
671.1411, 2858.472
671.6232, 2991.199
672.1053, 3139.511
672.5875, 3293.267
673.0696, 3449.177
673.5517, 3610.812
674.0338, 3786.267
674.5159, 3975.156
674.9980, 4154.542
675.4802, 4324.905
675.9623, 4485.457
676.4444, 4631.112
676.9265, 4768.564
677.4086, 4911.454
677.8907, 5063.055
678.3729, 5202.244
678.8550, 5328.171
679.3371, 5439.129
679.8192, 5540.864
680.3013, 5624.696
680.7834, 5678.458
681.2656, 5698.284
681.7477, 5687.064
682.2298, 5640.067
682.7119, 5567.678
683.1940, 5506.895
683.6761, 5459.429
684.1583, 5382.241
684.6404, 5255.747
685.1225, 5104.463
685.6046, 4954.365
686.0867, 4805.862
686.5688, 4656.834
687.0510, 4514.792
687.5331, 4364.636
688.0152, 4184.059
688.4973, 4003.926
688.9794, 3749.972
689.4615, 3728.815
689.9437, 3647.350
690.4258, 3509.075
690.9079, 3143.521
691.3900, 3071.466
691.8721, 2881.836
692.3542, 2687.544
692.8364, 2657.138
693.3185, 2324.949
693.8006, 2283.896
694.2827, 2174.229
694.7648, 2055.426
695.2469, 1913.739
695.7291, 1784.170
696.2112, 1682.783
696.6933, 1584.919
697.1754, 1470.180
697.6575, 1345.208
698.1396, 1234.075
698.6218, 1148.194
699.1039, 1074.635
699.5860, 1002.298
700.0681, 933.8145
700.5502, 880.8611
701.0323, 841.6729
701.5145, 792.2402
701.9966, 714.3020
702.4787, 624.6475
702.9608, 567.0442
703.4429, 547.2434
703.9250, 527.8093
704.4072, 507.0518
704.8893, 480.0356
705.3714, 435.9390
705.8535, 385.2961
706.3356, 352.4304
706.8177, 345.6321
707.2999, 337.9548
707.7820, 322.6729
708.2641, 304.5967
708.7462, 287.2974
709.2283, 269.6887
709.7104, 247.9734
710.1926, 220.6353
710.6747, 194.0083
711.1568, 175.4329
711.6389, 163.6418
712.1210, 155.1729
712.6031, 150.1658
713.0853, 140.7942
713.5674, 121.5891
714.0495, 100.8147
714.5316, 92.71484
715.0137, 101.3274
715.4958, 102.6013
715.9780, 90.31665
716.4601, 78.56616
716.9422, 69.53833
717.4243, 63.81885
717.9064, 63.99536
718.3885, 69.31982
718.8707, 71.14429
719.3528, 57.22974
719.8349, 43.83740
720.3170, 56.56543
720.7991, 82.10083
721.2813, 83.37207
721.7634, 53.24683
722.2455, 20.66650
722.7276, 12.65649
723.2097, 23.14233
723.6918, 20.45166
724.1740, 2.622559
724.6561, 11.61938
725.1382, 8.446777
725.6203, 32.32544
726.1024, 41.14746
726.5845, 38.12500
727.0667, 31.70532
727.5488, 21.12720
728.0309, 9.691650
728.5130, 6.549072
728.9951, 19.35229
729.4772, 18.94678
729.9594, 9.156250
730.4415, 0.3295900
730.9236, 2.866211
731.4057, 1.751953
731.8878, 4.026123
732.3699, 12.84448
732.8521, 19.83911
733.3342, 24.76660
733.8163, 22.53711
734.2984, 9.094238
734.7805, 8.501465
735.2626, 17.56494
735.7448, 15.69263
736.2269, 16.18384
736.7090, 28.61475
737.1911, 31.25830
737.6732, 6.026367
738.1553, 23.75122
738.6375, 32.18628
739.1196, 17.65869
739.6017, 0.8449710
740.0838, 15.39258
740.5659, 25.21265
741.0480, 20.28735
741.5302, 7.013428
742.0123, 5.362549
742.4944, 14.11157
742.9765, 17.58496
743.4586, 13.42920
743.9407, 4.976807
744.4229, 1.814209
744.9050, 4.220947
745.3871, 6.682373
745.8692, 9.290283
746.3513, 8.855713
746.8334, 1.699707
747.3156, 10.13867
747.7977, 18.49438
748.2798, 25.13354
748.7619, 25.40820
749.2440, 12.23853
749.7261, 0.2976070
750.2083, 3.235107
750.6904, 0.6384280
751.1725, 1.327148
751.6546, 8.225830
752.1367, 11.55859
752.6188, 0.8869630
753.1010, 17.30688
753.5831, 20.64014
754.0652, 13.62061
754.5473, 8.771973
755.0294, 10.35645
755.5115, 10.51025
755.9937, 2.459717
756.4758, 25.70288
756.9579, 31.32642
757.4400, 14.43945
757.9221, 0.1806640
758.4042, 5.623291
758.8864, 7.665527
759.3685, 13.27441
759.8506, 21.35913
760.3327, 20.94312
760.8148, 0.6130370
761.2969, 12.79761
761.7791, 10.25073
762.2612, 2.573242
762.7433, 4.301270
763.2254, 8.978271
763.7075, 10.39087
764.1896, 7.685547
764.6718, 3.556641
765.1539, 1.157471
765.6360, 4.987549
766.1181, 5.450439
766.6002, 2.438477
767.0823, 3.466553
767.5645, 11.98926
768.0466, 23.29956
768.5287, 39.73560
769.0108, 61.41553
769.4929, 69.38599
769.9750, 59.29053
770.4572, 48.61987
770.9393, 41.95654
771.4214, 38.12988
771.9035, 36.65381
772.3856, 37.43506
772.8677, 37.05151
773.3499, 33.98901
773.8320, 31.58813
774.3141, 28.12891
774.7962, 27.75391
775.2783, 37.33643
775.7604, 53.29956
776.2426, 63.76758
776.7247, 62.08179
777.2068, 57.98340
777.6889, 61.10913
778.1710, 67.66504
778.6531, 70.83130
779.1353, 70.43384
779.6174, 68.24268
780.0995, 64.82251
780.5816, 64.02051
781.0637, 72.81519
781.5458, 91.19824
782.0280, 108.3916
782.5101, 125.1096
782.9922, 132.5029
783.4743, 122.3391
783.9564, 108.8977
784.4385, 110.9626
784.9207, 129.2190
785.4028, 138.1106
785.8849, 132.7278
786.3670, 124.5798
786.8491, 108.3835
787.3312, 96.32788
787.8134, 100.6511
788.2955, 117.2617
788.7776, 132.1895
789.2597, 139.1431
789.7418, 146.7300
790.2239, 168.6753
790.7061, 190.3052
791.1882, 185.9888
791.6703, 162.4468
792.1524, 148.6028
792.6345, 156.4534
793.1166, 171.8037
793.5988, 175.2898
794.0809, 168.8831
794.5630, 165.1047
795.0451, 163.6042
795.5272, 170.3994
796.0093, 188.8296
796.4915, 209.2991
796.9736, 224.1941
797.4557, 233.2344
797.9378, 228.3857
798.4199, 170.8801
798.9020, 195.2053
799.3842, 207.8018
799.8663, 209.1084
800.3484, 165.9333
800.8305, 180.0696
801.3126, 171.6128
801.7947, 161.9968
802.2769, 184.1543
802.7590, 147.5845
803.2411, 168.9604
803.7232, 167.0059
804.2053, 175.6892
804.6874, 161.7566
805.1696, 155.0618
805.6517, 171.3354
806.1338, 174.8923
806.6159, 152.3130
807.0980, 156.9124
807.5801, 161.9985
808.0623, 165.3591
808.5444, 166.8223
809.0265, 165.4109
809.5086, 159.5820
809.9907, 151.1958
810.4728, 149.0608
810.9550, 156.6414
811.4371, 152.8008
811.9192, 127.5818
812.4013, 105.8127
812.8834, 104.5735
813.3655, 114.3013
813.8477, 114.3291
814.3298, 99.98901
814.8119, 92.13110
815.2940, 103.3223
815.7761, 111.3330
816.2582, 102.5161
816.7404, 87.84814
817.2225, 77.39990
817.7046, 73.49390
818.1867, 78.36890
818.6688, 101.6987
819.1509, 120.8984
819.6331, 113.5181
820.1152, 94.38965
820.5973, 85.13110
821.0794, 86.79199
821.5615, 91.53540
822.0436, 95.57227
822.5258, 96.16846
823.0079, 84.24609
823.4900, 63.72681
823.9720, 58.37329
824.4542, 69.43066
824.9363, 78.19775
825.4184, 76.86548
825.9005, 73.48706
826.3826, 79.28320
826.8647, 93.44531
827.3469, 94.60669
827.8290, 74.46216
828.3111, 59.69458
828.7932, 57.39380
829.2753, 58.85327
829.7574, 60.97144
830.2396, 61.79419
830.7217, 54.93628
831.2038, 33.67407
831.6859, 19.80981
832.1680, 19.32153
832.6501, 24.91382
833.1323, 38.29517
833.6144, 52.22290
834.0965, 56.80762
834.5786, 50.27734
835.0607, 39.51025
835.5428, 23.70410
836.0250, 10.13745
836.5071, 4.393799
836.9892, 6.439209
837.4713, 23.28540
837.9534, 50.36548
838.4355, 60.54028
838.9177, 34.16821
839.3998, 2.516357
839.8819, 0.8659670
840.3640, 30.97021
840.8461, 45.19092
841.3282, 38.65771
841.8104, 32.68530
842.2925, 36.64551
842.7746, 44.08960
843.2567, 46.63330
843.7388, 44.30493
844.2209, 38.74878
844.7031, 26.59473
845.1852, 20.10913
845.6673, 25.08398
846.1494, 32.67554
846.6315, 36.98340
847.1136, 38.28540
847.5958, 38.20190
848.0779, 37.56689
848.5600, 33.71362
849.0421, 22.97656
849.5242, 12.70117
850.0063, 2.944824
850.4885, 2.374023
850.9706, 4.989258
851.4527, 25.33691
851.9348, 40.67261
852.4169, 39.96899
852.8990, 34.61987
853.3812, 32.54541
853.8633, 30.58667
854.3454, 22.00806
854.8275, 8.767578
855.3096, 1.048828
855.7917, 4.723145
856.2739, 12.18237
856.7560, 16.01782
857.2381, 16.10620
857.7202, 8.165771
858.2023, 5.003418
858.6844, 5.574707
859.1666, 12.83984
859.6487, 34.47192
860.1308, 41.89160
860.6129, 37.71484
861.0950, 33.63306
861.5771, 29.00562
862.0593, 27.77563
862.5414, 32.26587
863.0235, 35.55762
863.5056, 31.71484
863.9877, 24.74341
864.4698, 26.10498
864.9520, 42.15527
865.4341, 45.18115
865.9162, 25.48291
866.3983, 7.105957
866.8804, 5.094727
867.3625, 9.982910
867.8447, 2.937256
868.3268, 14.64966
868.8089, 27.16235
869.2910, 30.09961
869.7731, 31.91797
870.2552, 33.00391
870.7374, 34.69043
871.2195, 38.39014
871.7016, 43.36108
872.1837, 50.06885
872.6658, 59.03149
873.1479, 62.55103
873.6301, 50.78638
874.1122, 37.06470
874.5943, 32.63110
875.0764, 34.39429
875.5585, 38.66064
876.0406, 43.31812
876.5228, 42.92163
877.0049, 31.61450
877.4870, 21.05151
877.9691, 34.46704
878.4512, 58.40063
878.9333, 53.46558
879.4155, 22.40186
879.8976, 3.855469
880.3797, 13.94922
880.8618, 34.27124
881.3439, 42.14380
881.8260, 40.98096
882.3082, 51.21484
882.7903, 73.35522
883.2724, 78.87256
883.7545, 59.77466
884.2366, 35.02637
884.7188, 15.47559
885.2009, 4.538086
885.6830, 14.81641
886.1651, 57.80542
886.6472, 80.69678
887.1293, 73.79517
887.6115, 62.08228
888.0936, 49.81885
888.5757, 41.73828
889.0578, 46.38550
889.5399, 63.44580
890.0220, 72.97192
890.5042, 69.39526
890.9863, 66.45654
891.4684, 63.39160
891.9505, 64.17725
892.4326, 75.61426
892.9147, 88.08936
893.3969, 84.00854
893.8790, 58.13354
894.3611, 41.34570
894.8432, 50.81836
895.3253, 61.87524
895.8074, 61.41650
896.2896, 56.31567
896.7717, 52.76123
897.2538, 51.52319
897.7359, 54.76416
898.2180, 65.77930
898.7001, 74.65503
899.1823, 71.02856
899.6644, 63.16626
900.1465, 62.61719
900.6286, 64.79541
901.1107, 53.57520
901.5928, 27.95288
902.0750, 13.72290
902.5571, 38.63379
903.0392, 74.61548
903.5213, 77.25171
904.0034, 57.92627
904.4855, 43.94580
904.9677, 39.62744
905.4498, 42.05176
905.9319, 48.32520
906.4140, 56.51440
906.8961, 60.60059
907.3782, 62.81665
907.8604, 79.35791
908.3425, 108.5962
908.8246, 116.8877
909.3067, 95.15942
909.7888, 67.00806
910.2709, 48.83374
910.7531, 40.48193
911.2352, 43.85425
911.7173, 61.03735
912.1994, 71.67798
912.6815, 75.46216
913.1636, 69.71851
913.6458, 48.57739
914.1279, 28.88013
914.6100, 31.46875
915.0921, 53.61743
915.5742, 65.21362
916.0563, 62.61279
916.5385, 56.77686
917.0206, 48.25049
917.5027, 38.13525
917.9848, 22.73022
918.4669, 8.469971
918.9490, 7.948730
919.4312, 23.57666
919.9133, 36.03882
920.3954, 45.89966
920.8775, 51.47119
921.3596, 50.14575
921.8417, 46.41431
922.3239, 42.08057
922.8060, 38.24512
923.2881, 37.46289
923.7702, 41.36206
924.2523, 43.43652
924.7344, 40.62500
925.2166, 36.85425
925.6987, 37.83081
926.1808, 37.55933
926.6629, 24.76025
927.1450, 2.418213
927.6271, 11.64307
928.1093, 9.962891
928.5914, 1.175781
929.0735, 16.43335
929.5556, 33.58838
930.0377, 41.03833
930.5198, 42.24072
931.0020, 44.83594
931.4841, 50.13745
931.9662, 52.35400
932.4483, 45.83008
932.9304, 37.60864
933.4125, 33.38330
933.8947, 32.07080
934.3768, 35.03442
934.8589, 39.34326
935.3410, 34.91504
935.8231, 18.48828
936.3052, 4.344482
936.7874, 9.778809
937.2695, 23.68652
937.7516, 29.84277
938.2337, 30.00171
938.7158, 25.37964
939.1979, 17.32690
939.6801, 11.65942
940.1622, 11.77173
940.6443, 14.19067
941.1264, 13.94507
941.6085, 12.13818
942.0906, 15.07910
942.5728, 20.48584
943.0549, 11.99829
943.5370, 13.12671
944.0191, 34.35156
944.5012, 35.66821
944.9833, 24.11914
945.4655, 12.32275
945.9476, 0.8403320
946.4297, 3.368652
946.9118, 1.5381000E-02
947.3939, 0.9787600
947.8760, 4.322266
948.3582, 7.769287
948.8403, 0.4836430
949.3224, 15.19385
949.8045, 12.50659
950.2866, 9.464844
950.7687, 17.28296
951.2509, 4.638184
951.7330, 0.5605470
952.2151, 16.97729
952.6972, 39.59985
953.1793, 43.40625
953.6614, 29.94214
954.1436, 19.86401
954.6257, 14.19482
955.1078, 6.633301
955.5899, 6.244873
956.0720, 13.26074
956.5541, 5.561279
957.0363, 8.336426
957.5184, 13.24268
958.0005, 8.159180
958.4826, 8.078857
958.9647, 18.04736
959.4468, 20.40308
959.9290, 7.960449
960.4111, 6.324463
960.8932, 13.92139
961.3753, 17.81152
961.8574, 26.69360
962.3395, 46.10034
962.8217, 46.93018
963.3038, 12.15771
963.7859, 13.47314
964.2680, 13.01001
964.7501, 6.714355
965.2322, 12.41406
965.7144, 25.14380
966.1965, 26.89111
966.6786, 8.209229
967.1607, 0.8903810
967.6428, 13.79712
968.1249, 26.58569
968.6071, 36.89941
969.0892, 41.83154
969.5713, 35.41626
970.0534, 20.59619
970.5355, 11.62842
971.0176, 10.18140
971.4998, 13.13940
971.9819, 22.38428
972.4640, 33.35620
972.9461, 48.16235
973.4282, 60.93799
973.9103, 63.17529
974.3925, 56.37207
974.8746, 53.88257
975.3567, 61.41895
975.8388, 67.06616
976.3209, 70.15723
976.8030, 69.09912
977.2852, 57.14819
977.7673, 44.18091
978.2494, 45.09326
978.7315, 59.77222
979.2136, 71.58838
979.6957, 74.35645
980.1779, 77.54004
980.6600, 82.32373
981.1421, 54.61865
981.6242, 97.88354
982.1063, 122.8086
982.5884, 130.3777
983.0706, 68.60352
983.5527, 96.38721
984.0348, 88.28418
984.5169, 78.69971
984.9990, 118.5811
985.4811, 65.53003
985.9633, 94.30420
986.4454, 77.20898
986.9275, 58.29077
987.4096, 39.21826
987.8917, 34.91699
988.3738, 68.49487
988.8560, 94.45972
989.3381, 90.06494
989.8202, 73.58960
990.3023, 51.50610
990.7844, 32.26416
991.2665, 32.73804
991.7487, 56.39111
992.2308, 71.48633
992.7129, 54.06787
993.1950, 39.42554
993.6771, 45.22925
994.1592, 60.77026
994.6414, 79.14673
995.1235, 99.01270
995.6056, 122.8145
996.0877, 151.5520
996.5698, 168.6372
997.0519, 155.9666
997.5341, 142.9734
998.0162, 148.0374
998.4983, 157.8801
998.9804, 158.5291
999.4625, 153.3811
999.9446, 152.2383
1000.427, 157.4495
1000.909, 168.9941
1001.391, 195.2676
1001.873, 215.1418
1002.355, 212.5891
1002.837, 204.5642
1003.319, 207.4375
1003.802, 218.6323
1004.284, 228.3667
1004.766, 233.9932
1005.248, 234.9744
1005.730, 225.2605
1006.212, 218.1499
1006.694, 220.3809
1007.176, 228.7266
1007.659, 249.0442
1008.141, 273.4307
1008.623, 278.1050
1009.105, 254.6033
1009.587, 241.5862
1010.069, 271.8193
1010.551, 298.1863
1011.033, 292.2153
1011.515, 271.9226
1011.998, 247.6240
1012.480, 226.4209
1012.962, 221.7688
1013.444, 238.5408
1013.926, 251.7395
1014.408, 251.1316
1014.890, 246.2800
1015.372, 239.5056
1015.854, 232.5867
1016.337, 224.1304
1016.819, 217.4666
1017.301, 224.0806
1017.783, 249.2837
1018.265, 257.6169
1018.747, 216.5227
1019.229, 180.6106
1019.711, 177.0881
1020.194, 186.7454
1020.676, 199.1394
1021.158, 212.8806
1021.640, 220.8660
1022.122, 220.5234
1022.604, 226.0581
1023.086, 240.3777
1023.568, 263.3289
1024.051, 299.7903
1024.533, 340.4004
1025.015, 381.5237
1025.497, 419.8184
1025.979, 447.0425
1026.461, 460.4246
1026.943, 481.9897
1027.425, 512.2292
1027.907, 558.0764
1028.390, 636.2776
1028.872, 716.6465
1029.354, 778.1282
1029.836, 825.9912
1030.318, 873.9106
1030.800, 924.5439
1031.282, 959.5339
1031.764, 957.1118
1032.246, 965.3345
1032.729, 1015.021
1033.211, 1058.560
1033.693, 1062.505
1034.175, 1041.692
1034.657, 1021.639
1035.139, 1004.162
1035.621, 982.2246
1036.103, 958.1501
1036.586, 925.3521
1037.068, 873.2388
1037.550, 822.4250
1038.032, 787.3301
1038.514, 758.4038
1038.996, 722.0950
1039.478, 678.1931
1039.960, 629.0808
1040.443, 562.4580
1040.925, 511.7646
1041.407, 489.9875
1041.889, 469.8096
1042.371, 439.8083
1042.853, 404.1794
1043.335, 366.5566
1043.817, 327.2195
1044.299, 292.8081
1044.781, 260.7732
1045.264, 241.0591
1045.746, 242.1289
1046.228, 239.5667
1046.710, 220.9685
1047.192, 198.2651
1047.674, 183.7297
1048.156, 176.8943
1048.638, 175.8430
1049.121, 184.2783
1049.603, 183.8071
1050.085, 171.2676
1050.567, 157.7666
1051.049, 146.9109
1051.531, 136.8936
1052.013, 126.1541
1052.495, 114.7190
1052.978, 100.6848
1053.460, 82.09595
1053.942, 81.67017
1054.424, 103.0271
1054.906, 118.4446
1055.388, 119.9641
1055.870, 111.9373
1056.352, 95.59644
1056.834, 78.63306
1057.317, 82.01074
1057.799, 103.9209
1058.281, 109.5876
1058.763, 99.25708
1059.245, 95.00806
1059.727, 101.8130
1060.209, 105.3333
1060.691, 95.82568
1061.173, 82.06934
1061.656, 79.32483
1062.138, 84.20020
1062.620, 82.44702
1063.102, 75.52649
1063.584, 69.55212
1064.066, 66.05493
1064.548, 67.78101
1065.030, 76.16931
1065.513, 85.57581
1065.995, 88.74878
1066.477, 89.01770
1066.959, 93.72412
1067.441, 100.5142
1067.923, 104.5496
1068.405, 105.6367
1068.887, 102.5731
1069.370, 93.83716
1069.852, 84.74365
1070.334, 81.22668
1070.816, 80.36829
1071.298, 77.34656
1071.780, 75.22192
1072.262, 80.77698
1072.744, 90.29468
1073.226, 93.35608
1073.708, 88.86328
1074.191, 87.09485
1074.673, 93.56116
1075.155, 101.8687
1075.637, 107.2214
1076.119, 113.7798
1076.601, 128.1562
1077.083, 143.8470
1077.565, 149.2112
1078.047, 145.2197
1078.530, 145.0988
1079.012, 156.3921
1079.494, 166.6025
1079.976, 168.0839
1080.458, 167.5524
1080.940, 166.7931
1081.422, 168.2629
1081.904, 174.0183
1082.387, 182.2084
1082.869, 189.5743
1083.351, 197.1869
1083.833, 197.5063
1084.315, 175.6814
1084.797, 165.7102
1085.279, 185.4500
1085.761, 211.1946
1086.244, 232.2129
1086.726, 245.3613
1087.208, 239.9254
1087.690, 214.6721
1088.172, 204.4004
1088.654, 215.0200
1089.136, 226.1144
1089.618, 239.1644
1090.100, 242.8241
1090.583, 226.3008
1091.065, 207.3380
1091.547, 209.5054
1092.029, 229.5061
1092.511, 245.7834
1092.993, 257.9406
1093.475, 267.6185
1093.957, 275.7888
1094.439, 275.8824
1094.922, 264.5996
1095.404, 253.3345
1095.886, 251.8075
1096.368, 257.0928
1096.850, 265.4941
1097.332, 275.1084
1097.814, 270.9783
1098.296, 255.0684
1098.779, 243.1759
1099.261, 238.7896
1099.743, 240.0985
1100.225, 246.3441
1100.707, 252.9556
1101.189, 254.2269
1101.671, 251.9109
1102.153, 249.6631
1102.635, 246.2435
1103.118, 237.4570
1103.600, 224.7994
1104.082, 215.3361
1104.564, 211.1565
1105.046, 205.4227
1105.528, 190.5337
1106.010, 175.9177
1106.492, 170.6024
1106.974, 168.8600
1107.457, 165.0647
1107.939, 160.0288
1108.421, 155.9016
1108.903, 152.9170
1109.385, 150.6772
1109.867, 150.1250
1110.349, 147.9629
1110.831, 91.22290
1111.314, 131.8478
1111.796, 154.5339
1112.278, 160.1320
1112.760, 96.27576
1113.242, 121.5015
1113.724, 110.6050
1114.206, 98.23364
1114.688, 103.3739
1115.171, 102.0243
1115.653, 96.87854
1116.135, 79.61072
1116.617, 67.76257
1117.099, 78.27148
1117.581, 92.90540
1118.063, 80.45520
1118.545, 44.00269
1119.027, 30.64087
1119.510, 46.11194
1119.992, 47.87695
1120.474, 29.66785
1120.956, 18.05823
1121.438, 23.58838
1121.920, 32.13367
1122.402, 30.84668
1122.884, 23.30005
1123.366, 16.01953
1123.849, 9.692749
1124.331, 11.34119
1124.813, 17.94043
1125.295, 8.723389
1125.777, 16.90479
1126.259, 33.71631
1126.741, 27.85376
1127.223, 10.59314
1127.706, 16.13879
1128.188, 38.22021
1128.670, 28.92883
1129.152, 6.488647
1129.634, 0.7930910
1130.116, 7.561646
1130.598, 6.868774
1131.080, 5.496094
1131.563, 14.38354
1132.045, 9.298462
1132.527, 4.741089
1133.009, 10.01843
1133.491, 16.08582
1133.973, 17.78723
1134.455, 15.83984
1134.937, 7.795898
1135.419, 2.964722
1135.901, 1.889648
1136.384, 21.33423
1136.866, 30.12622
1137.348, 6.178589
1137.830, 8.433716
1138.312, 1.303223
1138.794, 11.81799
1139.276, 8.141846
1139.758, 2.300171
1140.241, 7.853394
1140.723, 8.827393
1141.205, 11.14087
1141.687, 15.82312
1142.169, 11.39966
1142.651, 4.710205
1143.133, 9.708496
1143.615, 5.656372
1144.098, 16.94092
1144.580, 0.3100590
1145.062, 25.05920
1145.544, 17.74805
1146.026, 11.48511
1146.508, 30.55664
1146.990, 37.67920
1147.472, 36.06604
1147.954, 28.11145
1148.437, 18.73816
1148.919, 9.139893
1149.401, 2.465454
1149.883, 0.4395750
1150.365, 2.881348
1150.847, 14.78479
1151.329, 26.58289
1151.811, 25.58997
1152.293, 18.07568
1152.776, 16.31128
1153.258, 21.35522
1153.740, 25.89075
1154.222, 23.20911
1154.704, 27.76270
1155.186, 52.34741
1155.668, 72.23425
1156.150, 75.75403
1156.633, 73.09985
1157.115, 69.60120
1157.597, 67.07507
1158.079, 69.26331
1158.561, 76.23352
1159.043, 88.18433
1159.525, 109.8038
1160.007, 114.6370
1160.490, 96.97791
1160.972, 76.74902
1161.454, 61.09961
1161.936, 51.08118
1162.418, 48.82300
1162.900, 49.66711
1163.382, 41.28455
1163.864, 27.28271
1164.346, 22.14893
1164.828, 23.94861
1165.311, 22.39941
1165.793, 17.35535
1166.275, 19.66846
1166.757, 34.21826
1167.239, 46.31152
1167.721, 42.67505
1168.203, 32.32996
1168.685, 18.21399
1169.168, 6.139160
1169.650, 1.116821
1170.132, 3.064453
1170.614, 15.12231
1171.096, 34.48535
1171.578, 44.41541
1172.060, 37.84485
1172.542, 29.88940
1173.025, 11.68591
1173.507, 8.919800
1173.989, 46.67371
1174.471, 78.89880
1174.953, 70.73792
1175.435, 44.25916
1175.917, 37.80432
1176.399, 49.53809
1176.881, 48.42505
1177.364, 33.02234
1177.846, 22.54175
1178.328, 18.87305
1178.810, 23.82593
1179.292, 38.00623
1179.774, 52.27405
1180.256, 59.79736
1180.738, 61.39465
1181.220, 55.78821
1181.703, 48.10596
1182.185, 51.85706
1182.667, 60.06958
1183.149, 54.21350
1183.631, 38.55774
1184.113, 36.71704
1184.595, 55.32031
1185.077, 65.91772
1185.560, 43.85425
1186.042, 25.32617
1186.524, 33.19104
1187.006, 43.50879
1187.488, 42.15247
1187.970, 35.09119
1188.452, 26.51672
1188.934, 18.30481
1189.417, 15.96851
1189.899, 21.17004
1190.381, 27.43481
1190.863, 34.44287
1191.345, 41.85022
1191.827, 51.52710
1192.309, 55.10864
1192.791, 48.41968
1193.273, 38.52930
1193.755, 31.13342
1194.238, 25.90332
1194.720, 26.76172
1195.202, 34.72253
1195.684, 49.89990
1196.166, 66.40430
1196.648, 61.69897
1197.130, 39.74951
1197.612, 29.64368
1198.095, 41.76501
1198.577, 56.07104
1199.059, 59.95935
1199.541, 58.74609
1200.023, 56.23938
1200.505, 49.54199
1200.987, 29.65369
1201.469, 11.01184
1201.952, 16.04895
1202.434, 37.00098
1202.916, 34.31213
1203.398, 0.4836430
1203.880, 13.36438
1204.362, 10.49915
1204.844, 21.20691
1205.326, 3.920776
1205.808, 2.616455
1206.291, 21.76282
1206.773, 50.06665
1207.255, 51.79932
1207.737, 39.01562
1208.219, 46.99805
1208.701, 69.37830
1209.183, 76.06531
1209.665, 69.50427
1210.147, 61.67603
1210.630, 55.10266
1211.112, 1.0864000E-02
1211.594, 47.68542
1212.076, 77.01453
1212.558, 88.89307
1213.040, 31.28662
1213.522, 63.32190
1214.004, 59.57751
1214.487, 54.17053
1214.969, 97.16211
1215.451, 48.56458
1215.933, 92.43896
1216.415, 96.29138
1216.897, 67.51416
1217.379, 50.48669
1217.861, 47.86951
1218.344, 46.29297
1218.826, 44.51611
1219.308, 41.68774
1219.790, 38.24036
1220.272, 35.44153
1220.754, 34.43787
1221.236, 34.70752
1221.718, 33.24976
1222.200, 32.74646
1222.682, 48.05798
1223.165, 70.04907
1223.647, 69.78174
1224.129, 50.83142
1224.611, 40.06226
1225.093, 45.66675
1225.575, 51.92993
1226.057, 48.52844
1226.539, 45.13416
1227.022, 49.04565
1227.504, 51.64758
1227.986, 45.75366
1228.468, 38.30237
1228.950, 35.63623
1229.432, 37.04456
1229.914, 41.69751
1230.396, 49.68738
1230.879, 48.68628
1231.361, 35.80737
1231.843, 33.61975
1232.325, 44.27979
1232.807, 49.96753
1233.289, 40.77820
1233.771, 25.91284
1234.253, 7.761353
1234.735, 5.519165
1235.218, 2.344727
1235.700, 16.39014
1236.182, 15.89917
1236.664, 7.958984
1237.146, 0.1781010
1237.628, 2.382935
1238.110, 13.68787
1238.592, 44.48926
1239.074, 58.33948
1239.557, 39.53491
1240.039, 25.60315
1240.521, 24.91016
1241.003, 30.08923
1241.485, 45.43701
1241.967, 56.14539
1242.449, 53.06360
1242.931, 44.39795
1243.414, 38.45984
1243.896, 36.36353
1244.378, 45.87817
1244.860, 64.09583
1245.342, 60.88965
1245.824, 40.75879
1246.306, 31.05005
1246.788, 34.10461
1247.271, 35.84363
1247.753, 28.41174
1248.235, 22.85803
1248.717, 17.00903
1249.199, 14.51221
1249.681, 24.81897
1250.163, 34.57410
1250.645, 35.71594
1251.127, 31.86621
1251.609, 25.95862
1252.092, 18.63611
1252.574, 9.277100
1253.056, 2.063477
1253.538, 2.089722
1254.020, 13.75952
1254.502, 18.01709
1254.984, 7.120605
1255.466, 8.132080
1255.949, 28.61426
1256.431, 42.95337
1256.913, 30.05969
1257.395, 17.26160
1257.877, 24.83569
1258.359, 36.28809
1258.841, 27.43848
1259.323, 11.21509
1259.806, 0.0000000E+00
##END=



