##NAMES=Fluor-uvite
##RRUFFID=R050301
##IDEAL CHEMISTRY=CaMg_3_(Al_5_Mg)(Si_6_O_18_)(BO_3_)_3_(OH)_3_F
##LOCALITY=Brumado, Bahia, Brazil
##OWNER=RRUFF
##SOURCE=Eugene Schlepp
##DESCRIPTION=Short prismatic green crystals
##STATUS=The identification of this mineral has been confirmed by X-ray diffraction and chemical analysis
##URL=rruff.info/R050301
##MEASURED CHEMISTRY=(Ca_0.68_Na_0.22_[box]_0.10_)(Mg_0.77_Al_0.16_Ti_0.03_[box]_0.04_)_3_(Mg_1.00_Al_5.00_)(BO_3_)_3_Si_6.00_O_18_((OH)_3_F)
52.866, 0.000
54.266, 107.385
55.666, 111.192
57.065, 388.435
58.464, 872.655
59.863, 274.838
61.262, 217.185
62.661, 215.111
64.059, 81.779
65.458, 11.566
66.856, 69.179
68.253, 16.420
69.651, 10.808
71.048, 2.739
72.445, 32.668
73.842, 24.769
75.239, 97.947
76.635, 18.617
78.031, 35.165
79.427, 59.498
80.823, 73.533
82.218, 199.852
83.614, 0.441
85.009, 57.738
86.404, 3.752
87.798, 21.344
89.193, 177.502
90.587, 351.681
91.981, 263.844
93.375, 292.958
94.768, 245.995
96.161, 340.901
97.554, 517.614
98.947, 575.073
100.340, 589.229
101.732, 587.043
103.124, 745.484
104.516, 962.528
105.908, 1137.156
107.300, 1058.354
108.691, 1116.117
110.082, 1324.436
111.473, 1260.325
112.864, 1483.272
114.254, 1727.959
115.644, 1987.123
117.034, 2177.761
118.424, 2404.871
119.813, 2598.453
121.203, 3166.503
122.592, 3467.894
123.981, 4061.002
125.369, 4345.449
126.758, 4873.354
128.146, 5303.720
129.534, 5623.542
130.922, 5702.958
132.309, 5903.547
133.696, 5537.727
135.083, 5143.353
136.470, 4841.352
137.857, 4574.487
139.243, 4391.751
140.630, 4267.329
142.016, 4223.611
143.401, 4203.166
144.787, 4315.804
146.172, 4433.576
147.557, 4590.527
148.942, 4473.091
150.327, 4371.967
151.711, 4180.484
153.096, 3976.206
154.480, 3758.154
155.863, 3233.338
157.247, 2894.768
158.630, 2766.453
160.013, 2342.428
161.396, 2129.715
162.779, 1995.373
164.161, 1998.319
165.544, 1892.551
166.926, 2163.074
168.308, 2327.893
169.689, 2497.641
171.070, 2444.522
172.452, 2358.051
173.833, 2344.278
175.213, 1880.250
176.594, 1579.528
177.974, 1246.110
179.354, 1165.998
180.734, 1061.186
182.114, 1073.677
183.493, 1159.470
184.872, 1215.564
186.251, 1360.959
187.630, 1474.652
189.008, 1710.645
190.387, 2089.935
191.765, 2479.521
193.143, 2952.406
194.520, 3742.586
195.898, 4348.058
197.275, 5251.821
198.652, 6006.873
200.029, 6896.213
201.405, 7765.844
202.782, 8595.759
204.158, 9779.481
205.534, 10788.448
206.909, 12355.217
208.285, 13777.271
209.660, 15450.604
211.035, 17055.223
212.410, 17373.111
213.784, 17083.281
215.159, 15230.730
216.533, 12641.453
217.907, 10249.453
219.281, 7898.580
220.654, 6124.644
222.027, 4920.614
223.400, 4289.471
224.773, 3582.246
226.146, 3289.866
227.518, 3153.345
228.891, 3461.133
230.263, 3807.250
231.634, 4599.752
233.006, 5580.041
234.377, 6790.908
235.748, 8108.084
237.119, 9572.671
238.490, 10812.714
239.860, 11754.080
241.231, 11786.764
242.601, 11379.759
243.970, 10121.183
245.340, 8540.238
246.709, 6915.129
248.079, 5416.309
249.448, 4167.760
250.816, 3097.791
252.185, 2191.472
253.553, 1567.755
254.921, 1102.304
256.289, 864.128
257.657, 615.256
259.024, 488.723
260.391, 488.515
261.758, 460.648
263.125, 507.163
264.492, 632.875
265.858, 807.881
267.224, 878.636
268.590, 1192.689
269.956, 1179.061
271.321, 1510.211
272.687, 1643.933
274.052, 1509.945
275.416, 1466.250
276.781, 1405.834
278.146, 1115.697
279.510, 693.824
280.874, 589.226
282.237, 299.899
283.601, 229.837
284.964, 110.984
286.327, 257.568
287.690, 297.947
289.053, 308.133
290.416, 294.133
291.778, 70.953
293.140, 112.579
294.502, 55.987
295.863, 223.752
297.225, 297.711
298.586, 387.863
299.947, 404.208
301.308, 394.745
302.668, 414.212
304.029, 269.391
305.389, 449.502
306.749, 447.804
308.108, 603.297
309.468, 887.982
310.827, 1212.858
312.186, 1664.928
313.545, 1984.188
314.903, 2500.640
316.262, 2870.281
317.620, 3137.113
318.978, 3607.135
320.336, 4062.347
321.693, 4541.747
323.051, 5000.336
324.408, 5281.110
325.765, 5546.072
327.121, 6215.220
328.478, 6159.551
329.834, 6276.066
331.190, 6799.764
332.546, 6639.855
333.902, 6668.696
335.257, 6782.871
336.612, 6749.162
337.967, 7066.617
339.322, 7167.252
340.677, 7106.066
342.031, 7252.058
343.385, 7269.225
344.739, 7238.430
346.093, 7582.088
347.446, 7216.783
348.799, 7327.647
350.153, 7418.686
351.505, 7998.893
352.858, 8286.271
354.210, 9024.824
355.563, 9929.537
356.915, 11151.424
358.267, 12784.476
359.618, 14362.696
360.969, 16371.079
362.321, 18801.625
363.672, 21067.338
365.022, 23800.209
366.373, 26382.244
367.723, 29116.439
369.073, 31748.791
370.423, 32948.312
371.773, 34471.988
373.122, 33288.812
374.471, 32119.797
375.821, 29688.941
377.169, 26069.236
378.518, 23246.688
379.866, 19455.291
381.215, 16702.049
382.563, 14439.992
383.910, 12434.128
385.258, 10452.456
386.605, 9017.974
387.952, 7885.686
389.299, 6663.592
390.646, 5914.693
391.992, 4862.987
393.339, 4315.482
394.685, 4146.180
396.031, 3304.074
397.376, 2980.172
398.722, 2376.467
400.067, 2201.957
401.412, 1803.635
402.757, 1718.501
404.101, 1635.555
405.446, 1466.793
406.790, 1418.502
408.134, 1327.842
409.478, 1287.646
410.821, 1223.633
412.165, 1199.802
413.508, 1071.156
414.851, 1078.692
416.193, 792.409
417.536, 598.699
418.878, 395.637
420.220, 323.738
421.562, 127.836
422.904, 21.568
424.245, 6.712
425.586, 62.859
426.927, 56.343
428.268, 16.892
429.609, 154.208
430.949, 182.638
432.289, 40.364
433.629, 125.663
434.969, 222.146
436.309, 378.738
437.648, 396.456
438.987, 671.433
440.326, 745.249
441.665, 931.595
443.003, 1108.279
444.342, 1431.540
445.680, 1470.493
447.018, 1536.876
448.355, 1798.709
449.693, 1700.086
451.030, 1760.860
452.367, 1782.798
453.704, 1922.111
455.041, 1688.017
456.377, 1984.254
457.713, 1851.628
459.049, 2061.135
460.385, 2224.775
461.721, 2435.551
463.056, 2828.458
464.391, 3212.498
465.726, 3872.719
467.061, 4485.971
468.395, 5567.400
469.730, 6517.961
471.064, 7792.650
472.398, 8465.467
473.731, 9625.410
475.065, 9798.480
476.398, 9941.676
477.731, 9743.996
479.064, 9471.442
480.397, 8897.013
481.729, 8228.703
483.062, 7759.519
484.394, 7090.453
485.725, 6724.509
487.057, 6150.686
488.389, 6124.979
489.720, 6033.395
491.051, 5523.928
492.382, 5651.576
493.712, 5666.342
495.043, 5708.223
496.373, 5755.221
497.703, 5777.333
499.032, 5961.560
500.362, 6076.900
501.691, 5764.354
503.020, 5800.920
504.349, 5335.597
505.678, 5233.387
507.007, 4735.285
508.335, 4519.295
509.663, 4021.412
510.991, 4043.638
512.319, 3955.971
513.646, 3625.412
514.973, 3895.956
516.300, 3877.608
517.627, 4302.365
518.954, 4288.225
520.280, 4358.189
521.607, 4669.258
522.933, 4896.426
524.259, 4883.695
525.584, 4978.066
526.910, 4846.537
528.235, 5002.107
529.560, 4871.777
530.885, 4939.543
532.209, 4549.408
533.534, 4471.369
534.858, 4468.429
536.182, 4357.581
537.506, 4368.830
538.829, 4187.172
540.152, 4157.617
541.476, 4183.160
542.799, 4258.807
544.121, 4132.570
545.444, 4314.467
546.766, 4290.479
548.088, 4283.605
549.410, 4211.869
550.732, 4078.285
552.053, 3876.824
553.375, 3833.502
554.696, 3483.324
556.017, 3225.285
557.337, 3259.404
558.658, 2915.654
559.978, 2487.045
561.298, 2172.572
562.618, 2026.248
563.938, 1640.062
565.257, 1532.015
566.576, 1307.087
567.895, 1006.284
569.214, 846.620
570.533, 714.068
571.851, 499.639
573.170, 362.840
574.488, 149.062
575.805, 42.921
577.123, 107.165
578.440, 272.263
579.758, 229.438
581.075, 308.690
582.391, 292.050
583.708, 236.565
585.024, 399.046
586.341, 264.631
587.657, 300.745
588.972, 314.951
590.288, 161.273
591.603, 226.146
592.918, 174.598
594.233, 174.682
595.548, 130.056
596.863, 151.486
598.177, 88.984
599.491, 149.522
600.805, 133.130
602.119, 102.802
603.432, 19.524
604.746, 26.263
606.059, 56.987
607.372, 106.272
608.685, 125.608
609.997, 245.003
611.309, 280.471
612.621, 283.991
613.933, 333.567
615.245, 444.190
616.557, 552.861
617.868, 601.579
619.179, 772.343
620.490, 934.150
621.801, 1060.005
623.111, 1320.902
624.421, 1667.844
625.731, 2146.828
627.041, 2219.854
628.351, 2864.922
629.660, 3102.030
630.970, 3154.180
632.279, 3045.369
633.588, 2754.597
634.896, 2636.864
636.205, 2328.168
637.513, 2372.510
638.821, 2205.889
640.129, 2232.303
641.437, 2344.753
642.744, 2275.238
644.051, 2208.758
645.358, 2256.309
646.665, 2331.896
647.972, 2224.514
649.278, 1939.163
650.584, 2218.845
651.890, 2064.557
653.196, 2350.299
654.502, 2445.070
655.807, 2614.871
657.113, 2853.380
658.418, 2939.557
659.722, 3291.439
661.027, 3411.351
662.331, 3614.288
663.636, 3812.249
664.940, 3988.236
666.244, 3864.246
667.547, 3951.281
668.851, 3807.340
670.154, 3841.420
671.457, 3581.523
672.760, 3462.647
674.062, 3439.792
675.365, 3057.957
676.667, 2960.143
677.969, 2772.348
679.271, 2708.571
680.572, 2561.813
681.874, 2697.074
683.175, 2610.661
684.476, 2644.646
685.777, 2674.955
687.077, 2810.280
688.378, 3000.620
689.678, 3242.976
690.978, 3618.345
692.278, 3788.728
693.577, 4243.782
694.877, 4863.540
696.176, 5128.675
697.475, 5630.432
698.774, 6113.931
700.072, 6774.629
701.371, 7357.331
702.669, 7984.195
703.967, 8300.029
705.265, 9177.074
706.562, 9831.796
707.860, 10827.922
709.157, 11610.405
710.454, 13075.398
711.751, 14430.835
713.047, 16796.369
714.344, 18866.453
715.640, 21824.512
716.936, 24489.025
718.232, 26526.273
719.527, 29270.295
720.823, 30246.039
722.118, 30375.191
723.413, 29493.324
724.708, 27985.961
726.002, 26618.814
727.297, 25891.547
728.591, 24073.318
729.885, 23545.023
731.179, 22319.238
732.472, 20782.100
733.766, 19115.230
735.059, 17776.295
736.352, 16293.069
737.645, 14973.989
738.937, 14337.710
740.230, 13802.380
741.522, 13409.539
742.814, 13560.927
744.106, 14234.658
745.397, 15376.568
746.689, 16025.414
747.980, 17117.852
749.271, 18626.898
750.562, 19448.172
751.853, 20910.250
753.143, 21113.094
754.433, 22097.023
755.723, 22067.562
757.013, 22044.902
758.303, 22195.814
759.592, 21285.166
760.881, 20841.072
762.170, 20008.865
763.459, 18999.229
764.748, 17831.074
766.036, 16545.230
767.325, 16027.386
768.613, 14980.537
769.901, 14597.681
771.188, 14134.821
772.476, 13593.959
773.763, 13630.087
775.050, 13153.209
776.337, 12950.326
777.624, 12754.437
778.910, 12348.539
780.196, 12246.639
781.482, 11861.726
782.768, 11562.808
784.054, 11442.884
785.339, 11481.946
786.625, 11346.003
787.910, 11336.050
789.195, 11784.090
790.479, 12022.121
791.764, 12115.143
793.048, 12531.153
794.332, 12381.154
795.616, 12516.147
796.900, 11924.128
798.183, 11752.099
799.467, 11224.059
800.750, 10884.004
802.033, 10502.945
803.316, 10191.871
804.598, 10215.782
805.880, 9504.683
807.163, 9556.572
808.445, 9153.451
809.726, 8658.315
811.008, 8430.169
812.289, 8236.007
813.570, 7889.832
814.851, 7698.645
816.132, 7435.443
817.413, 7324.229
818.693, 6830.000
819.973, 6793.758
821.253, 6514.500
822.533, 5983.229
823.813, 5764.939
825.092, 5311.639
826.371, 4999.323
827.650, 4540.991
828.929, 4130.645
830.208, 3785.282
831.486, 3424.904
832.764, 2972.511
834.042, 2632.102
835.320, 2231.676
836.598, 1830.233
837.875, 1607.775
839.152, 1396.300
840.429, 1113.809
841.706, 941.299
842.983, 587.773
844.259, 525.230
845.536, 383.669
846.812, 287.091
848.088, 318.495
849.363, 115.882
850.639, 142.233
851.914, 94.554
853.189, 6.162
854.464, 74.950
855.739, 9.840
857.013, 9.802
858.288, 98.836
859.562, 157.985
860.836, 50.283
862.110, 122.671
863.383, 147.187
864.656, 122.843
865.930, 204.625
867.203, 102.577
868.475, 150.645
869.748, 126.853
871.020, 187.188
872.292, 152.679
873.564, 149.311
874.836, 93.077
876.108, 109.951
877.379, 166.933
878.650, 76.057
879.922, 107.275
881.192, 45.573
882.463, 46.052
883.733, 71.339
885.004, 14.189
886.274, 22.696
887.544, 22.791
888.813, 44.765
890.083, 11.396
891.352, 60.112
892.621, 134.899
893.890, 93.759
895.159, 90.747
896.427, 145.637
897.695, 59.002
898.964, 220.279
900.232, 184.649
901.499, 193.104
902.767, 151.629
904.034, 231.216
905.301, 223.879
906.568, 403.591
907.835, 449.382
909.102, 452.227
910.368, 504.120
911.634, 537.051
912.900, 644.019
914.166, 679.024
915.432, 667.034
916.697, 756.041
917.962, 758.040
919.227, 988.023
920.492, 835.989
921.757, 1065.939
923.021, 1025.873
924.285, 1219.788
925.550, 1158.686
926.813, 1099.565
928.077, 1215.428
929.341, 1265.272
930.604, 1380.100
931.867, 1453.908
933.130, 1459.699
934.393, 1536.473
935.655, 1697.229
936.918, 1748.967
938.180, 1863.146
939.442, 1947.389
940.703, 2056.074
941.965, 2127.742
943.226, 2224.392
944.488, 2259.022
945.749, 2303.637
947.009, 2645.234
948.270, 2703.814
949.530, 2880.374
950.791, 2930.917
952.051, 3091.444
953.311, 3191.952
954.570, 3407.443
955.830, 3616.916
957.089, 3723.371
958.348, 3918.811
959.607, 4055.229
960.866, 4217.633
962.124, 4116.019
963.383, 4256.385
964.641, 4405.734
965.899, 4632.067
967.156, 4613.384
968.414, 4793.682
969.671, 4930.961
970.928, 5049.225
972.185, 5134.471
973.442, 5345.697
974.699, 5489.910
975.955, 5522.104
977.211, 5613.279
978.468, 5774.440
979.723, 5907.582
980.979, 5832.709
982.234, 5752.815
983.490, 6095.906
984.745, 5712.980
986.000, 5701.038
987.254, 5489.080
988.509, 5201.102
989.763, 5188.108
991.017, 5077.099
992.271, 4930.071
993.525, 4819.028
994.779, 4651.967
996.032, 4477.891
997.285, 4384.799
998.538, 4307.678
999.791, 4189.552
1001.044, 4125.697
1002.296, 3983.213
1003.548, 3946.982
1004.800, 3966.549
1006.052, 3983.103
1007.304, 4040.490
1008.555, 3932.901
1009.807, 4124.097
1011.058, 4190.586
1012.309, 4417.703
1013.559, 4663.564
1014.810, 4955.777
1016.060, 5283.073
1017.310, 5581.223
1018.560, 6030.066
1019.810, 6318.529
1021.060, 6809.731
1022.309, 7342.975
1023.558, 7781.570
1024.807, 8489.607
1026.056, 9003.161
1027.305, 9561.001
1028.553, 10108.130
1029.801, 10724.055
1031.049, 11608.189
1032.297, 12101.174
1033.545, 12825.653
1034.793, 13731.882
1036.040, 14146.947
1037.287, 14705.750
1038.534, 15382.638
1039.781, 15889.865
1041.027, 16466.854
1042.274, 16607.898
1043.520, 16759.746
1044.766, 17271.697
1046.012, 17059.564
1047.257, 17065.033
1048.503, 17169.201
1049.748, 17208.951
1050.993, 16893.699
1052.238, 17042.287
1053.483, 16841.436
1054.727, 16723.520
1055.971, 16712.314
1057.216, 16894.020
1058.459, 17310.053
1059.703, 17548.762
1060.947, 18096.230
1062.190, 18659.742
1063.433, 19366.682
1064.676, 19987.020
1065.919, 20564.377
1067.162, 20956.268
1068.404, 21665.143
1069.646, 21550.773
1070.888, 21854.627
1072.130, 21858.115
1073.372, 21381.584
1074.613, 21136.045
1075.855, 20494.494
1077.096, 19523.936
1078.337, 18847.369
1079.578, 17961.783
1080.818, 16900.189
1082.059, 15902.584
1083.299, 14722.969
1084.539, 13931.343
1085.779, 12726.702
1087.018, 11929.056
1088.258, 11014.396
1089.497, 10078.724
1090.736, 9384.043
1091.975, 8630.351
1093.213, 7937.646
1094.452, 7381.929
1095.690, 6966.203
1096.928, 6350.465
1098.166, 5871.715
1099.404, 5626.956
1100.642, 5285.186
1101.879, 4994.405
1103.116, 4694.611
1104.353, 4431.528
1105.590, 4189.993
1106.827, 3925.170
1108.063, 3850.334
1109.299, 3580.488
1110.536, 3504.632
1111.771, 3378.764
1113.007, 3212.885
1114.243, 3053.997
1115.478, 3124.098
1116.713, 3084.188
1117.948, 3139.268
1119.183, 3224.336
1120.418, 3286.396
1121.652, 3296.774
1122.886, 3337.484
1124.120, 3275.513
1125.354, 3225.531
1126.588, 3154.688
1127.821, 3109.177
1129.055, 3014.525
1130.288, 3012.507
1131.521, 2938.477
1132.753, 2889.438
1133.986, 2775.390
1135.218, 2653.334
1136.450, 2537.271
1137.682, 2119.198
1138.914, 1867.117
1140.146, 1564.029
1141.377, 1325.035
1142.609, 1081.836
1143.840, 975.730
1145.071, 824.617
1146.301, 766.500
1147.532, 622.396
1148.762, 560.284
1149.992, 520.173
1151.222, 472.091
1152.452, 345.030
1153.682, 257.992
1154.911, 250.029
1156.140, 296.088
1157.369, 247.165
1158.598, 142.293
1159.827, 219.484
1161.055, 86.715
1162.284, 133.990
1163.512, 27.319
1164.740, 77.690
1165.967, 108.129
1167.195, 51.610
1168.422, 28.142
1169.650, 54.715
1170.877, 39.348
1172.103, 19.027
1173.330, 28.752
1174.557, 25.491
1175.783, 20.288
1177.009, 5.122
1178.235, 120.023
1179.461, 20.803
1180.686, 78.356
1181.912, 32.562
1183.137, 29.758
1184.362, 14.030
1185.587, 70.187
1186.811, 131.432
1188.036, 120.754
1189.260, 42.144
1190.484, 55.563
1191.708, 143.027
1192.932, 77.580
1194.155, 157.184
1195.378, 86.891
1196.602, 167.655
1197.825, 90.528
1199.047, 70.472
1200.270, 52.473
1201.492, 122.523
1202.715, 1.664
1203.937, 155.834
1205.159, 8.113
1206.380, 6.578
1207.602, 25.243
1208.823, 45.116
1210.044, 51.526
1211.265, 39.006
1212.486, 36.517
1213.707, 94.003
1214.927, 96.471
1216.147, 152.919
1217.367, 97.351
1218.587, 210.763
1219.807, 278.159
1221.027, 307.537
1222.246, 244.897
1223.465, 350.237
1224.684, 334.560
1225.903, 409.861
1227.121, 344.143
1228.340, 397.403
1229.558, 513.643
1230.776, 472.860
1231.994, 473.058
1233.212, 485.232
1234.429, 544.385
1235.646, 590.514
1236.864, 721.619
1238.081, 743.700
1239.297, 724.756
1240.514, 858.802
1241.730, 872.837
1242.947, 859.144
1244.163, 725.879
1245.378, 794.885
1246.594, 818.880
1247.810, 763.865
1249.025, 762.841
1250.240, 842.806
1251.455, 787.761
1252.670, 880.704
1253.885, 881.638
1255.099, 892.559
1256.313, 825.472
1257.527, 833.371
1258.741, 890.262
1259.955, 885.140
1261.168, 920.007
1262.382, 937.861
1263.595, 1006.707
1264.808, 844.538
1266.021, 902.359
1267.233, 894.167
1268.446, 948.017
1269.658, 906.799
1270.870, 919.566
1272.082, 947.820
1273.294, 930.453
1274.505, 980.177
1275.716, 992.100
1276.928, 967.105
1278.139, 988.232
1279.349, 977.018
1280.560, 973.130
1281.770, 968.196
1282.981, 943.213
1284.191, 937.452
1285.401, 969.365
1286.610, 863.098
1287.820, 901.648
1289.029, 862.100
1290.239, 823.257
1291.448, 807.136
1292.656, 824.771
1293.865, 892.025
1295.073, 826.869
1296.282, 892.151
1297.490, 871.671
1298.698, 746.428
1299.906, 850.895
1301.113, 823.262
1302.320, 817.707
1303.528, 717.221
1304.735, 754.515
1305.942, 728.836
1307.148, 719.559
1308.355, 755.317
1309.561, 673.615
1310.767, 695.308
1311.973, 710.822
1313.179, 688.457
1314.384, 697.708
1315.590, 716.992
1316.795, 677.156
1318.000, 815.779
1319.205, 695.948
1320.410, 761.004
1321.614, 716.056
1322.819, 682.706
1324.023, 740.725
1325.227, 719.416
1326.431, 693.950
1327.634, 671.965
1328.838, 655.523
1330.041, 630.569
1331.244, 598.205
1332.447, 580.919
1333.650, 494.304
1334.852, 486.221
1336.055, 479.167
1337.257, 375.189
1338.459, 528.479
1339.661, 430.800
1340.862, 494.733
1342.064, 412.505
1343.265, 377.922
1344.466, 434.364
1345.667, 489.613
1346.868, 436.234
1348.068, 434.130
1349.269, 381.490
1350.469, 368.299
1351.669, 464.396
1352.869, 460.477
1354.069, 464.688
1355.268, 422.159
1356.468, 370.140
1357.667, 441.056
1358.866, 515.496
1360.065, 410.628
1361.263, 432.746
1362.462, 494.665
1363.660, 460.689
1364.858, 578.782
1366.056, 542.825
1367.254, 550.747
1368.451, 565.627
1369.649, 647.363
1370.846, 606.009
1372.043, 587.555
1373.240, 620.961
1374.436, 573.216
1375.633, 609.365
1376.829, 510.725
1378.025, 593.641
1379.221, 508.443
1380.417, 584.070
1381.613, 486.553
1382.808, 535.902
1384.003, 519.895
1385.199, 630.859
1386.393, 511.798
1387.588, 568.710
1388.783, 547.593
1389.977, 446.449
1391.171, 539.277
1392.365, 494.075
1393.559, 432.846
1394.753, 455.587
1395.946, 449.298
1397.140, 388.979
1398.333, 371.628
1399.526, 365.247
1400.719, 322.842
1401.911, 372.380
1403.104, 297.893
1404.296, 292.363
1405.488, 344.791
1406.680, 262.174
1407.872, 284.501
1409.063, 253.775
1410.255, 289.946
1411.446, 191.030
1412.637, 221.971
1413.828, 275.746
1415.018, 294.447
1416.209, 110.048
1417.399, 258.576
1418.589, 153.048
1419.779, 129.451
1420.969, 213.801
1422.159, 112.101
1423.348, 64.358
1424.537, 98.562
1425.726, 106.808
1426.915, 65.700
1428.104, 123.314
1429.293, 13.615
1430.481, 26.037
1431.669, 33.543
1432.857, 67.199
1434.045, 9.044
1435.233, 51.941
1436.420, 53.214
1437.608, 117.516
1438.795, 93.078
1439.982, 44.622
1441.169, 8.943
1442.355, 126.460
1443.542, 40.157
1444.728, 68.793
1445.914, 3.546
1447.100, 6.155
1448.286, 10.098
1449.472, 102.702
1450.657, 123.571
1451.842, 105.511
1453.027, 59.539
1454.212, 53.672
1455.397, 84.822
1456.581, 106.965
1457.766, 149.101
1458.950, 143.762
1460.134, 243.357
1461.318, 114.483
1462.501, 92.609
1463.685, 32.739
1464.868, 173.876
1466.051, 128.024
1467.234, 193.189
1468.417, 125.240
1469.600, 50.462
1470.782, 106.697
1471.965, 174.433
1473.147, 93.941
1474.329, 173.440
1475.510, 159.465
1476.692, 75.062
1477.873, 266.997
1479.055, 119.594
1480.236, 77.189
1481.416, 234.270
1482.597, 100.438
1483.778, 55.715
1484.958, 68.989
1486.138, 77.800
1487.318, 119.883
1488.498, 156.788
1489.678, 132.468
1490.857, 152.162
1492.037, 53.422
1493.216, 112.116
1494.395, 157.221
1495.574, 81.840
1496.752, 211.564
1497.931, 127.544
1499.109, 111.103
1500.287, 69.210
1501.465, 117.589
1502.643, 1.885
1503.820, 121.967
1504.998, 3.707
1506.175, 106.920
1507.352, 79.993
1508.529, 131.970
1509.706, 67.188
1510.882, 104.385
1512.059, 195.788
1513.235, 168.052
1514.411, 135.246
1515.587, 97.932
1516.762, 145.636
1517.938, 2.597
1519.113, 81.973
1520.288, 129.979
1521.463, 58.156
1522.638, 164.465
1523.813, 0.000
##END=



