##NAMES=Fluor-liddicoatite
##RRUFFID=R060635
##IDEAL CHEMISTRY=Ca(Li_2_Al)Al_6_(Si_6_O_18_)(BO_3_)_3_(OH)_3_F
##LOCALITY=unknown
##OWNER=RRUFF
##SOURCE=Gemological Institute of America
##DESCRIPTION=Rootbeer brown cut gemstone
##STATUS=The identification of this mineral has been confirmed by X-ray diffraction and chemical analysis
##URL=rruff.info/R060635
##MEASURED CHEMISTRY=(Li_1.84_Al_1.05_Mn_0.11_)_Σ=3_(Ca_0.82_Na_0.15_[box]_0.03_)_Σ=1_Al_6.00_(BO_3_)_3_[Si_6.00_O_18_]((OH)_3.16_F_0.84_)_Σ=4_
92.10938, 0.0000000E+00
92.59149, 0.1015920
93.07361, 0.3530700
93.55573, 0.6847040
94.03784, 1.019009
94.51996, 1.006620
95.00208, 0.7638910
95.48419, 0.6588310
95.96631, 0.7835990
96.44843, 1.095256
96.93054, 1.451886
97.41266, 1.843415
97.89478, 2.289151
98.37689, 2.633468
98.85901, 2.784693
99.34113, 2.859800
99.82324, 2.987918
100.3054, 3.212012
100.7875, 3.589679
101.2696, 3.988465
101.7517, 4.041509
102.2338, 4.125770
102.7159, 4.533563
103.1981, 5.058753
103.6802, 5.147449
104.1623, 4.711357
104.6444, 4.187201
105.1265, 3.864901
105.6086, 3.724402
106.0908, 3.458799
106.5729, 3.001606
107.0550, 2.495002
107.5371, 2.015992
108.0192, 1.553364
108.5013, 1.132878
108.9835, 0.7195960
109.4656, 0.3183630
109.9477, 8.8127002E-02
110.4298, 0.2538700
110.9119, 0.4667060
111.3940, 0.5011060
111.8762, 0.2131850
112.3583, 0.1198420
112.8404, 0.5136140
113.3225, 0.9890760
113.8046, 1.283126
114.2867, 1.261734
114.7689, 1.068182
115.2510, 0.8643290
115.7331, 0.6588220
116.2152, 0.4663550
116.6973, 0.2945920
117.1794, 0.1421030
117.6616, 1.8850001E-02
118.1437, 4.1521002E-02
118.6258, 7.6869003E-02
119.1079, 0.1339180
119.5900, 0.1628770
120.0721, 0.2676880
120.5543, 0.5345040
121.0364, 1.020859
121.5185, 1.557667
122.0006, 1.997874
122.4827, 2.398629
122.9648, 2.936899
123.4470, 3.888301
123.9291, 4.960014
124.4112, 5.770494
124.8933, 6.049171
125.3754, 6.317898
125.8575, 7.036953
126.3397, 8.192636
126.8218, 9.709713
127.3039, 11.79961
127.7860, 14.19048
128.2681, 16.29430
128.7502, 17.82404
129.2324, 19.07466
129.7145, 20.54038
130.1966, 22.22929
130.6787, 23.90181
131.1608, 25.29605
131.6429, 26.44841
132.1251, 27.62983
132.6072, 29.01992
133.0893, 30.49712
133.5714, 31.64085
134.0535, 32.39913
134.5356, 33.06454
135.0178, 34.04318
135.4999, 35.33750
135.9820, 36.57321
136.4641, 37.50298
136.9462, 38.15165
137.4283, 39.27592
137.9105, 41.04118
138.3926, 43.01361
138.8747, 44.32202
139.3568, 44.77605
139.8389, 45.41735
140.3210, 46.70512
140.8032, 48.73081
141.2853, 50.99953
141.7674, 53.58329
142.2495, 56.34811
142.7316, 58.78732
143.2137, 60.41448
143.6959, 61.62060
144.1780, 63.13145
144.6601, 65.15078
145.1422, 67.02524
145.6243, 68.73042
146.1064, 70.29036
146.5886, 71.88290
147.0707, 73.67474
147.5528, 75.31384
148.0349, 76.58523
148.5170, 77.49847
148.9991, 78.07939
149.4813, 78.31709
149.9634, 78.24593
150.4455, 77.89240
150.9276, 77.41158
151.4097, 76.54870
151.8918, 75.16557
152.3740, 72.28601
152.8561, 69.96268
153.3382, 68.77701
153.8203, 68.69011
154.3024, 67.84325
154.7845, 65.65858
155.2667, 62.92632
155.7488, 60.20383
156.2309, 57.88356
156.7130, 55.31352
157.1951, 52.18534
157.6772, 48.47181
158.1594, 45.03367
158.6415, 42.00312
159.1236, 39.36483
159.6057, 37.09727
160.0878, 35.51151
160.5699, 34.03435
161.0521, 32.51386
161.5342, 30.96087
162.0163, 29.22792
162.4984, 27.07066
162.9805, 24.75664
163.4626, 22.62343
163.9448, 20.79647
164.4269, 19.16991
164.9090, 17.64161
165.3911, 16.17208
165.8732, 14.96106
166.3553, 14.31130
166.8375, 13.96090
167.3196, 13.47728
167.8017, 12.43796
168.2838, 11.36851
168.7659, 10.60847
169.2480, 10.19273
169.7302, 10.04837
170.2123, 10.35820
170.6944, 10.91360
171.1765, 11.24299
171.6586, 10.96822
172.1407, 10.46014
172.6229, 10.06208
173.1050, 9.819302
173.5871, 9.700371
174.0692, 9.758812
174.5513, 9.934185
175.0334, 10.04134
175.5156, 9.812904
175.9977, 9.489948
176.4798, 9.483006
176.9619, 10.00994
177.4440, 10.53552
177.9261, 10.33007
178.4083, 9.541355
178.8904, 8.800457
179.3725, 8.597290
179.8546, 8.725727
180.3367, 8.828426
180.8188, 8.901543
181.3010, 8.821888
181.7831, 8.341080
182.2652, 7.498432
182.7473, 6.581257
183.2294, 5.733612
183.7115, 4.968235
184.1937, 4.347794
184.6758, 3.901745
185.1579, 3.576977
185.6400, 3.272251
186.1221, 2.989368
186.6042, 2.769360
187.0864, 2.633446
187.5685, 2.584827
188.0506, 2.629234
188.5327, 2.758789
189.0148, 2.991234
189.4969, 3.325924
189.9791, 3.753021
190.4612, 4.457714
190.9433, 5.765717
191.4254, 7.588638
191.9075, 9.271072
192.3896, 10.56673
192.8718, 11.65854
193.3539, 13.19144
193.8360, 15.23335
194.3181, 17.30930
194.8002, 19.00183
195.2823, 20.33271
195.7645, 21.49015
196.2466, 22.37786
196.7287, 23.15161
197.2108, 24.54414
197.6929, 26.65498
198.1750, 28.91726
198.6572, 30.84164
199.1393, 32.41294
199.6214, 33.77244
200.1035, 34.85970
200.5856, 35.74545
201.0677, 36.84467
201.5499, 38.21822
202.0320, 39.62627
202.5141, 40.83896
202.9962, 41.84405
203.4783, 42.76596
203.9604, 43.65488
204.4426, 44.49600
204.9247, 45.14502
205.4068, 45.57770
205.8889, 45.86848
206.3710, 46.06704
206.8531, 46.15623
207.3353, 46.22292
207.8174, 46.23160
208.2995, 46.20925
208.7816, 46.57639
209.2637, 47.45641
209.7458, 48.49354
210.2280, 49.26870
210.7101, 49.66094
211.1922, 50.19133
211.6743, 51.02635
212.1564, 52.14982
212.6385, 53.23321
213.1207, 54.31040
213.6028, 55.27122
214.0849, 55.79564
214.5670, 55.44667
215.0491, 55.95934
215.5313, 57.99157
216.0134, 61.55237
216.4955, 64.48354
216.9776, 66.51011
217.4597, 68.29503
217.9418, 70.47421
218.4239, 72.88753
218.9061, 76.07505
219.3882, 80.40345
219.8703, 85.84386
220.3524, 90.82615
220.8345, 95.15049
221.3166, 99.19252
221.7988, 103.3901
222.2809, 107.8006
222.7630, 112.1450
223.2451, 116.3094
223.7272, 120.3288
224.2093, 124.4082
224.6915, 128.9686
225.1736, 133.1869
225.6557, 136.0045
226.1378, 136.7015
226.6199, 137.6638
227.1020, 139.4798
227.5842, 142.1725
228.0663, 144.3470
228.5484, 145.8412
229.0305, 147.0225
229.5126, 148.2363
229.9947, 149.5370
230.4769, 150.7528
230.9590, 151.8805
231.4411, 152.9132
231.9232, 153.7304
232.4053, 154.0386
232.8874, 154.4559
233.3696, 155.5449
233.8517, 157.5184
234.3338, 159.7842
234.8159, 162.4986
235.2980, 165.6599
235.7801, 167.8428
236.2623, 168.7243
236.7444, 169.0217
237.2265, 169.3198
237.7086, 169.7024
238.1907, 170.0093
238.6728, 170.5258
239.1550, 171.1552
239.6371, 170.2581
240.1192, 167.5530
240.6013, 163.6347
241.0834, 158.8528
241.5655, 152.7833
242.0477, 146.7508
242.5298, 141.0135
243.0119, 135.5038
243.4940, 129.5482
243.9761, 122.9480
244.4582, 116.1195
244.9404, 109.3457
245.4225, 102.5862
245.9046, 95.93764
246.3867, 89.33109
246.8688, 82.82346
247.3509, 76.65714
247.8331, 70.79276
248.3152, 65.32218
248.7973, 60.34549
249.2794, 56.05585
249.7615, 51.79921
250.2436, 47.42558
250.7258, 43.03013
251.2079, 39.17400
251.6900, 36.02558
252.1721, 33.17723
252.6542, 30.38979
253.1363, 27.65453
253.6185, 25.04173
254.1006, 22.50926
254.5827, 20.11852
255.0648, 18.17878
255.5469, 16.95064
256.0291, 15.78655
256.5112, 14.29758
256.9933, 12.18714
257.4754, 10.50999
257.9575, 9.428101
258.4396, 8.757774
258.9218, 8.050476
259.4039, 7.385475
259.8860, 6.529572
260.3681, 5.257652
260.8502, 3.219971
261.3323, 1.815422
261.8145, 1.255066
262.2966, 1.218307
262.7787, 0.9833980
263.2608, 0.4001690
263.7429, 6.6307001E-02
264.2250, 0.1747130
264.7072, 0.2053070
265.1893, 0.4034120
265.6714, 0.3756330
266.1535, 0.1966250
266.6356, 2.7786000E-02
267.1177, 0.3483890
267.5999, 0.5848310
268.0820, 0.6395420
268.5641, 0.4764250
269.0462, 0.4063490
269.5283, 0.4542470
270.0104, 0.5597920
270.4926, 0.6590960
270.9747, 0.7811740
271.4568, 0.7818070
271.9389, 0.5557250
272.4210, 8.7600999E-02
272.9031, 0.1515270
273.3853, 7.0220999E-02
273.8674, 7.2669998E-02
274.3495, 3.6727998E-02
274.8316, 0.4177550
275.3137, 0.9489900
275.7958, 1.640724
276.2780, 2.475685
276.7601, 3.276268
277.2422, 4.047318
277.7243, 4.767639
278.2064, 5.380234
278.6885, 5.863525
279.1707, 6.419502
279.6528, 7.095757
280.1349, 7.882385
280.6170, 8.791245
281.0991, 9.879387
281.5812, 10.86752
282.0634, 11.51537
282.5455, 11.83243
283.0276, 11.83428
283.5097, 11.34818
283.9918, 10.65334
284.4739, 10.82295
284.9561, 11.98818
285.4382, 13.05278
285.9203, 13.09394
286.4024, 12.16730
286.8845, 11.21584
287.3666, 10.39687
287.8488, 9.602989
288.3309, 8.566208
288.8130, 7.279518
289.2951, 6.001762
289.7772, 4.819817
290.2593, 3.768150
290.7415, 3.046509
291.2236, 2.760849
291.7057, 2.622490
292.1878, 2.138535
292.6699, 1.336609
293.1520, 0.5464480
293.6342, 2.0035001E-02
294.1163, 0.3389970
294.5984, 0.8559340
295.0805, 1.576569
295.5626, 2.346046
296.0447, 3.014259
296.5269, 3.582382
297.0090, 4.056847
297.4911, 4.488457
297.9732, 4.820763
298.4553, 4.898590
298.9374, 4.712708
299.4196, 4.375519
299.9017, 3.979271
300.3838, 3.522942
300.8659, 3.002884
301.3480, 2.387489
301.8301, 1.727264
302.3123, 1.131157
302.7944, 0.5891420
303.2765, 2.3697000E-02
303.7586, 1.046654
304.2407, 2.188080
304.7228, 2.910156
305.2050, 2.757889
305.6871, 2.396461
306.1692, 2.509186
306.6513, 3.056580
307.1334, 3.808640
307.6155, 4.688324
308.0977, 5.665215
308.5798, 6.745552
309.0619, 8.093292
309.5440, 9.276886
310.0261, 9.714645
310.5082, 9.653343
310.9904, 9.842133
311.4725, 10.79081
311.9546, 12.11710
312.4367, 13.52757
312.9188, 15.01578
313.4009, 16.43907
313.8831, 17.67873
314.3652, 18.77614
314.8473, 19.83102
315.3294, 20.97626
315.8115, 22.03802
316.2936, 22.89030
316.7758, 23.50018
317.2579, 24.04964
317.7400, 24.49821
318.2221, 24.97067
318.7042, 25.63344
319.1863, 27.03649
319.6685, 28.19646
320.1506, 28.63661
320.6327, 28.33001
321.1148, 27.90761
321.5969, 27.36578
322.0790, 26.87801
322.5612, 26.58899
323.0433, 26.65088
323.5254, 26.77151
324.0075, 26.94319
324.4896, 27.14101
324.9717, 27.21326
325.4539, 27.06345
325.9360, 26.84348
326.4181, 26.64819
326.9002, 26.65212
327.3823, 26.45303
327.8644, 25.92756
328.3466, 25.16624
328.8287, 24.44331
329.3108, 23.77565
329.7929, 23.15404
330.2750, 22.61375
330.7571, 22.23434
331.2393, 21.68510
331.7214, 20.83023
332.2035, 19.85806
332.6856, 19.05926
333.1677, 18.39214
333.6498, 17.93629
334.1320, 17.79176
334.6141, 18.03124
335.0962, 17.99009
335.5783, 17.43864
336.0604, 16.84541
336.5425, 16.74051
337.0247, 17.35219
337.5068, 17.87952
337.9889, 18.16390
338.4710, 18.22965
338.9531, 18.29631
339.4352, 18.37741
339.9173, 18.43169
340.3994, 18.37450
340.8816, 18.15475
341.3637, 18.14574
341.8458, 18.39239
342.3279, 18.87580
342.8100, 19.64796
343.2921, 20.75461
343.7743, 21.80534
344.2564, 22.41866
344.7385, 22.64028
345.2206, 23.36166
345.7027, 24.75779
346.1848, 26.35508
346.6670, 27.45142
347.1491, 28.06549
347.6312, 28.48513
348.1133, 28.84470
348.5954, 29.11021
349.0775, 29.08585
349.5597, 28.73892
350.0418, 28.42984
350.5239, 28.54348
351.0060, 28.99990
351.4881, 29.56289
351.9702, 30.31716
352.4524, 31.00469
352.9345, 31.12637
353.4166, 30.72856
353.8987, 30.27055
354.3808, 30.06891
354.8629, 30.03909
355.3451, 30.01032
355.8272, 29.84086
356.3093, 29.91962
356.7914, 30.66395
357.2735, 31.96464
357.7556, 33.48788
358.2378, 34.89581
358.7199, 36.53175
359.2020, 38.74105
359.6841, 41.62479
360.1662, 44.71964
360.6483, 47.68184
361.1305, 50.70979
361.6126, 54.06604
362.0947, 57.85873
362.5768, 61.95872
363.0589, 66.31416
363.5410, 70.92557
364.0232, 75.90831
364.5053, 81.59792
364.9874, 87.51598
365.4695, 93.29107
365.9516, 98.03401
366.4337, 103.5314
366.9159, 110.1725
367.3980, 117.8707
367.8801, 126.3098
368.3622, 135.3090
368.8443, 145.0581
369.3264, 155.6711
369.8086, 167.6109
370.2907, 179.6685
370.7728, 191.5107
371.2549, 203.5414
371.7370, 216.3941
372.2191, 230.7863
372.7013, 245.0806
373.1834, 258.8852
373.6655, 272.3297
374.1476, 284.7654
374.6297, 295.9625
375.1118, 306.1004
375.5940, 315.5677
376.0761, 324.9215
376.5582, 331.5487
377.0403, 334.8611
377.5224, 335.1319
378.0045, 333.5150
378.4867, 329.9791
378.9688, 324.8922
379.4509, 318.2922
379.9330, 310.2099
380.4151, 301.1485
380.8972, 291.2975
381.3794, 280.3820
381.8615, 267.6851
382.3436, 253.0808
382.8257, 238.7510
383.3078, 225.2763
383.7899, 212.6955
384.2721, 200.6187
384.7542, 189.0802
385.2363, 178.3003
385.7184, 168.5091
386.2005, 159.6870
386.6826, 151.1621
387.1648, 142.7289
387.6469, 134.6572
388.1290, 127.0483
388.6111, 119.9725
389.0932, 113.6844
389.5753, 108.4065
390.0575, 103.9492
390.5396, 100.0501
391.0217, 96.72723
391.5038, 93.65437
391.9859, 90.39845
392.4680, 87.19971
392.9502, 84.52041
393.4323, 82.81099
393.9144, 81.59934
394.3965, 80.62467
394.8786, 79.81317
395.3607, 79.23240
395.8429, 78.94347
396.3250, 78.87794
396.8071, 78.96119
397.2892, 79.29645
397.7713, 79.63666
398.2534, 79.65055
398.7356, 79.52278
399.2177, 80.15344
399.6998, 82.07571
400.1819, 84.42577
400.6640, 86.87014
401.1461, 89.51810
401.6283, 92.03513
402.1104, 94.46097
402.5925, 96.73217
403.0746, 98.69817
403.5567, 99.84715
404.0388, 101.6408
404.5210, 104.6935
405.0031, 109.0067
405.4852, 112.6795
405.9673, 115.6993
406.4494, 118.1168
406.9315, 119.9151
407.4137, 121.0597
407.8958, 121.9612
408.3779, 122.7287
408.8600, 123.2405
409.3421, 123.2326
409.8242, 122.7082
410.3064, 121.6048
410.7885, 119.9867
411.2706, 117.7724
411.7527, 114.4799
412.2348, 109.9723
412.7169, 104.9810
413.1991, 100.4412
413.6812, 96.15054
414.1633, 91.57977
414.6454, 86.35828
415.1275, 80.89484
415.6096, 75.68333
416.0918, 70.75726
416.5739, 66.01789
417.0560, 61.37696
417.5381, 56.90233
418.0202, 52.66386
418.5023, 48.72960
418.9845, 44.92004
419.4666, 41.00953
419.9487, 37.17303
420.4308, 33.83545
420.9129, 31.39063
421.3951, 29.25397
421.8772, 27.11801
422.3593, 24.99596
422.8414, 22.96172
423.3235, 21.10355
423.8056, 19.32241
424.2878, 17.56110
424.7699, 15.50817
425.2520, 13.82530
425.7341, 12.82328
426.2162, 12.31447
426.6983, 11.54213
427.1805, 10.08790
427.6626, 8.866650
428.1447, 8.323334
428.6268, 8.788826
429.1089, 8.707352
429.5910, 7.863937
430.0732, 6.693474
430.5553, 5.729202
431.0374, 5.038280
431.5195, 4.263580
432.0016, 3.200447
432.4837, 1.997635
432.9659, 1.435822
433.4480, 1.604294
433.9301, 1.851543
434.4122, 1.710930
434.8943, 1.226528
435.3764, 0.6712610
435.8586, 2.9560000E-02
436.3407, 0.5407560
436.8228, 0.7432170
437.3049, 0.6560780
437.7870, 0.6080930
438.2691, 0.8031390
438.7513, 1.099174
439.2334, 1.304058
439.7155, 1.419659
440.1976, 1.489964
440.6797, 1.539310
441.1618, 1.563950
441.6440, 1.547066
442.1261, 1.431816
442.6082, 1.371616
443.0903, 1.505230
443.5724, 1.759254
444.0545, 1.975117
444.5367, 2.119743
445.0188, 2.191353
445.5009, 2.161373
445.9830, 2.009659
446.4651, 1.912853
446.9472, 1.958057
447.4294, 2.045235
447.9115, 2.089718
448.3936, 2.282097
448.8757, 2.179619
449.3578, 1.495064
449.8399, 0.4829750
450.3221, 3.5808999E-02
450.8042, 0.5844080
451.2863, 1.003853
451.7684, 0.7339820
452.2505, 0.4125180
452.7326, 1.009777
453.2148, 0.8883590
453.6969, 0.5213430
454.1790, 0.4697040
454.6611, 0.7459300
455.1432, 1.066616
455.6253, 1.347610
456.1075, 1.643967
456.5896, 2.189884
457.0717, 2.979603
457.5538, 3.612198
458.0359, 3.655781
458.5180, 3.365562
459.0002, 3.345371
459.4823, 3.666218
459.9644, 4.120945
460.4465, 4.455116
460.9286, 4.779537
461.4107, 5.306034
461.8929, 6.438507
462.3750, 7.525475
462.8571, 7.978851
463.3392, 7.923149
463.8213, 7.916664
464.3034, 8.442017
464.7856, 8.963223
465.2677, 9.041668
465.7498, 8.360600
466.2319, 7.949600
466.7140, 8.252155
467.1961, 8.900326
467.6783, 9.426235
468.1604, 9.599018
468.6425, 9.839397
469.1246, 10.30670
469.6067, 10.96197
470.0888, 11.35662
470.5710, 11.53435
471.0531, 11.39079
471.5352, 10.73271
472.0173, 9.229797
472.4994, 8.454227
472.9815, 8.634037
473.4637, 9.257580
473.9458, 9.622578
474.4279, 9.737476
474.9100, 9.487160
475.3921, 8.674366
475.8742, 7.539703
476.3564, 6.766582
476.8385, 6.354366
477.3206, 6.243561
477.8027, 6.582916
478.2848, 7.164589
478.7669, 7.534691
479.2491, 7.602352
479.7312, 7.587078
480.2133, 7.680721
480.6954, 7.841789
481.1775, 7.993862
481.6596, 8.018669
482.1418, 8.093410
482.6239, 8.310658
483.1060, 8.671448
483.5881, 9.162792
484.0702, 10.08861
484.5523, 10.92825
485.0345, 11.30129
485.5166, 10.82220
485.9987, 10.61847
486.4808, 11.13157
486.9629, 11.90988
487.4450, 12.32529
487.9272, 11.99442
488.4093, 11.84295
488.8914, 12.05552
489.3735, 12.60443
489.8556, 13.21969
490.3377, 13.94413
490.8199, 14.65794
491.3020, 15.28882
491.7841, 15.83751
492.2662, 16.32513
492.7483, 16.72642
493.2304, 17.11978
493.7126, 17.64759
494.1947, 18.25932
494.6768, 18.73344
495.1589, 18.94661
495.6410, 19.04583
496.1231, 19.25143
496.6053, 19.55300
497.0874, 19.90646
497.5695, 20.28177
498.0516, 20.70737
498.5337, 21.26879
499.0158, 22.00613
499.4980, 22.65636
499.9801, 23.09552
500.4622, 23.35244
500.9443, 23.46294
501.4264, 23.21915
501.9085, 23.04651
502.3907, 23.09607
502.8728, 23.33583
503.3549, 23.61258
503.8370, 23.94761
504.3191, 24.29661
504.8012, 24.66286
505.2834, 25.08714
505.7655, 25.32253
506.2476, 25.24045
506.7297, 25.11296
507.2118, 25.22627
507.6939, 25.63222
508.1761, 26.14032
508.6582, 26.68692
509.1403, 27.24649
509.6224, 27.86945
510.1045, 28.63036
510.5866, 29.14979
511.0688, 29.08777
511.5509, 28.61289
512.0330, 28.23516
512.5151, 27.96834
512.9973, 27.91332
513.4794, 28.39780
513.9615, 29.06687
514.4436, 29.35762
514.9257, 29.09048
515.4078, 28.57388
515.8900, 27.94902
516.3721, 27.23835
516.8542, 26.48426
517.3363, 25.81806
517.8184, 24.99921
518.3005, 23.80970
518.7827, 22.26009
519.2648, 20.91675
519.7469, 20.13766
520.2290, 19.39064
520.7111, 18.34195
521.1932, 16.64141
521.6754, 15.40691
522.1575, 14.84251
522.6396, 14.56525
523.1217, 14.00883
523.6038, 13.07978
524.0859, 12.21112
524.5681, 11.50931
525.0502, 10.94997
525.5323, 10.42181
526.0144, 9.918190
526.4965, 9.534378
526.9786, 9.424530
527.4608, 9.477039
527.9429, 9.374111
528.4250, 9.095093
528.9071, 8.681755
529.3892, 7.936230
529.8713, 7.131981
530.3535, 6.765457
530.8356, 7.263981
531.3177, 7.817440
531.7998, 7.805466
532.2819, 7.438953
532.7640, 7.225445
533.2462, 7.496704
533.7283, 7.812008
534.2104, 8.049950
534.6925, 8.213531
535.1746, 8.115437
535.6567, 7.384556
536.1389, 6.667706
536.6210, 6.370148
537.1031, 6.661243
537.5852, 7.007828
538.0673, 7.512314
538.5494, 7.959091
539.0316, 7.896088
539.5137, 7.221806
539.9958, 6.735550
540.4779, 6.715359
540.9600, 7.026611
541.4421, 7.332088
541.9243, 7.629986
542.4064, 7.807636
542.8885, 7.686100
543.3706, 7.413582
543.8527, 7.279503
544.3348, 7.320900
544.8170, 7.331860
545.2991, 6.979794
545.7812, 6.562687
546.2633, 6.474327
546.7454, 7.222198
547.2275, 7.809437
547.7097, 7.639687
548.1918, 6.999046
548.6739, 6.543674
549.1560, 6.549858
549.6381, 6.632832
550.1202, 6.660618
550.6024, 6.625198
551.0845, 6.716778
551.5666, 7.034222
552.0487, 7.348099
552.5308, 7.504436
553.0129, 7.469772
553.4951, 7.392532
553.9772, 7.274235
554.4593, 7.141197
554.9414, 7.103462
555.4235, 7.118813
555.9056, 6.964134
556.3878, 6.523380
556.8699, 5.940536
557.3520, 5.399025
557.8341, 4.901318
558.3162, 4.480366
558.7983, 4.211178
559.2805, 4.038715
559.7626, 3.950741
560.2447, 3.948822
560.7268, 3.807407
561.2089, 3.237679
561.6910, 2.590767
562.1732, 2.155689
562.6553, 2.201965
563.1374, 2.128464
563.6195, 1.723804
564.1016, 1.199898
564.5837, 0.8824690
565.0659, 0.9218560
565.5480, 0.8834460
566.0301, 0.6620940
566.5122, 0.2920950
566.9943, 8.8223003E-02
567.4764, 0.5016210
567.9586, 0.8006250
568.4407, 0.8336910
568.9228, 0.6542630
569.4049, 0.5848540
569.8870, 0.6421390
570.3691, 0.6898650
570.8513, 0.6094470
571.3334, 0.4215810
571.8155, 0.1419370
572.2976, 0.2960890
572.7797, 0.6614760
573.2618, 0.7270050
573.7440, 0.6081160
574.2261, 0.5135460
574.7082, 0.5506590
575.1903, 0.5970000
575.6724, 0.5678140
576.1545, 0.4824410
576.6367, 0.5226860
577.1188, 0.8873140
577.6009, 1.195992
578.0830, 1.288147
578.5651, 1.119167
579.0472, 0.9467470
579.5294, 0.7229120
580.0115, 0.5785710
580.4936, 0.6955030
580.9757, 1.082104
581.4578, 1.329304
581.9399, 1.338718
582.4221, 1.281853
582.9042, 1.488754
583.3863, 1.880802
583.8684, 2.146999
584.3505, 2.092808
584.8326, 1.893974
585.3148, 1.687290
585.7969, 1.483295
586.2789, 1.342224
586.7610, 1.217842
587.2432, 1.223797
587.7253, 1.539265
588.2074, 2.276199
588.6895, 2.698544
589.1716, 2.417454
589.6537, 1.924110
590.1359, 1.585190
590.6180, 1.432884
591.1001, 1.374580
591.5822, 1.414467
592.0643, 1.540707
592.5464, 1.821510
593.0286, 2.318108
593.5107, 2.477348
593.9928, 2.007401
594.4749, 1.206585
594.9570, 0.8761060
595.4391, 0.9788320
595.9213, 1.103569
596.4034, 0.9651260
596.8855, 0.7211650
597.3676, 0.6019860
597.8497, 0.6162340
598.3318, 0.6091380
598.8140, 0.3836330
599.2961, 0.1518550
599.7782, 0.1171460
600.2603, 0.4414830
600.7424, 0.6834180
601.2245, 0.6795580
601.7067, 0.5645370
602.1888, 0.5230410
602.6709, 0.6668280
603.1530, 0.6854900
603.6351, 0.4660490
604.1172, 0.1212200
604.5994, 2.6726000E-02
605.0815, 0.2376790
605.5636, 0.3975870
606.0457, 0.3330690
606.5278, 9.9838004E-02
607.0099, 0.1028820
607.4921, 0.2707370
607.9742, 0.4140430
608.4563, 0.5173300
608.9384, 0.6054420
609.4205, 0.7424350
609.9026, 0.9551810
610.3848, 1.070103
610.8669, 0.7435190
611.3490, 0.3683850
611.8311, 0.3725930
612.3132, 1.527626
612.7953, 2.181515
613.2775, 1.571373
613.7596, 0.3411410
614.2417, 0.2757570
614.7238, 0.2135160
615.2059, 0.4664500
615.6880, 9.6863002E-02
616.1702, 0.7295110
616.6523, 1.146103
617.1344, 1.078373
617.6165, 1.082306
618.0986, 1.497375
618.5807, 2.241791
619.0629, 3.046474
619.5450, 3.910484
620.0271, 4.735367
620.5092, 5.377068
620.9913, 5.956558
621.4734, 6.618748
621.9556, 7.389114
622.4377, 8.257332
622.9198, 9.185352
623.4019, 10.24345
623.8840, 11.49738
624.3661, 12.99688
624.8483, 14.66148
625.3304, 16.56689
625.8125, 18.57588
626.2946, 20.42126
626.7767, 22.04924
627.2589, 23.69990
627.7410, 25.42916
628.2231, 27.19321
628.7052, 28.80463
629.1873, 30.26233
629.6694, 31.83214
630.1516, 33.72769
630.6337, 35.82972
631.1158, 37.99902
631.5979, 40.21119
632.0800, 42.23670
632.5621, 43.82333
633.0443, 45.16191
633.5264, 46.52169
634.0085, 48.14127
634.4906, 49.27454
634.9727, 49.43791
635.4548, 49.05713
635.9370, 48.62664
636.4191, 48.45833
636.9012, 47.87231
637.3833, 46.80141
637.8654, 45.28263
638.3475, 43.36459
638.8297, 40.98006
639.3118, 38.53930
639.7939, 36.12040
640.2760, 33.76312
640.7581, 31.71626
641.2402, 29.93606
641.7224, 28.15175
642.2045, 26.02368
642.6866, 23.81879
643.1687, 21.94027
643.6508, 20.38987
644.1329, 18.98205
644.6151, 17.71576
645.0972, 16.45608
645.5793, 15.06546
646.0614, 13.36550
646.5435, 11.94075
647.0256, 11.02575
647.5078, 10.32529
647.9899, 9.558727
648.4720, 8.600559
648.9541, 7.895882
649.4362, 7.544273
649.9183, 7.390717
650.4005, 7.119522
650.8826, 6.735104
651.3647, 6.429813
651.8468, 6.303894
652.3289, 6.250961
652.8110, 6.052044
653.2932, 5.748520
653.7753, 5.526672
654.2574, 5.546280
654.7395, 5.637115
655.2216, 5.727028
655.7037, 5.801369
656.1859, 5.727306
656.6680, 5.329880
657.1501, 4.875225
657.6322, 4.497299
658.1143, 4.190823
658.5964, 4.035976
659.0786, 4.133469
659.5607, 4.234051
660.0428, 4.076622
660.5249, 3.640167
661.0070, 3.354965
661.4891, 3.271210
661.9713, 3.312782
662.4534, 3.424957
662.9355, 3.610134
663.4176, 3.849915
663.8997, 4.243710
664.3818, 4.490551
664.8640, 4.093395
665.3461, 3.393578
665.8282, 3.052219
666.3103, 3.787861
666.7924, 4.411942
667.2745, 4.351219
667.7567, 3.759933
668.2388, 3.630264
668.7209, 4.299133
669.2030, 4.970215
669.6851, 5.339512
670.1672, 5.356987
670.6494, 5.347427
671.1315, 5.395374
671.6136, 5.499443
672.0957, 5.548054
672.5778, 5.531631
673.0599, 5.638378
673.5421, 5.919415
674.0242, 6.162529
674.5063, 6.227783
674.9884, 6.117706
675.4705, 5.801311
675.9526, 5.178894
676.4348, 4.608246
676.9169, 4.402954
677.3990, 4.227905
677.8811, 3.688473
678.3632, 2.459969
678.8453, 1.450214
679.3275, 0.7718430
679.8096, 0.3114930
680.2917, 0.1245730
680.7738, 0.5301090
681.2559, 0.8870200
681.7380, 1.201195
682.2202, 1.442158
682.7023, 1.471436
683.1844, 1.348824
683.6665, 1.311283
684.1486, 1.673058
684.6307, 2.018566
685.1129, 1.981705
685.5950, 1.611771
686.0771, 1.229874
686.5592, 0.9992830
687.0413, 0.7361450
687.5234, 0.3543510
688.0056, 0.1491170
688.4877, 0.7089000
688.9698, 1.351624
689.4519, 2.000145
689.9340, 2.569302
690.4161, 3.054153
690.8983, 3.742954
691.3804, 4.657520
691.8625, 5.710697
692.3446, 6.749039
692.8267, 7.863831
693.3088, 9.316498
693.7910, 11.23420
694.2731, 13.10706
694.7552, 14.45132
695.2373, 15.60393
695.7194, 16.95441
696.2015, 18.57458
696.6837, 20.43154
697.1658, 22.46991
697.6479, 24.76338
698.1300, 27.50952
698.6121, 30.94223
699.0942, 34.13384
699.5764, 36.83263
700.0585, 39.25599
700.5406, 41.91075
701.0227, 44.79756
701.5048, 47.94335
701.9869, 51.61952
702.4691, 55.35299
702.9512, 58.31369
703.4333, 60.73805
703.9154, 63.45987
704.3975, 66.89140
704.8796, 70.76228
705.3618, 75.10765
705.8439, 79.91269
706.3260, 84.44724
706.8081, 88.42024
707.2902, 92.44109
707.7723, 96.70926
708.2545, 101.2730
708.7366, 105.8361
709.2187, 110.4488
709.7008, 114.8431
710.1829, 118.7942
710.6650, 122.3194
711.1472, 125.5061
711.6293, 128.3622
712.1114, 130.5475
712.5935, 131.7600
713.0756, 132.1904
713.5577, 132.1611
714.0399, 132.1066
714.5220, 130.6142
715.0041, 126.5629
715.4862, 121.2338
715.9683, 115.9502
716.4504, 110.8543
716.9326, 105.6367
717.4147, 100.3795
717.8968, 94.91781
718.3789, 88.93367
718.8610, 82.41621
719.3431, 76.21749
719.8253, 70.49187
720.3074, 65.29480
720.7895, 60.70396
721.2716, 56.67189
721.7537, 52.96841
722.2358, 49.51648
722.7180, 46.38440
723.2001, 43.66129
723.6822, 41.31548
724.1643, 39.38564
724.6464, 38.06076
725.1285, 36.92279
725.6107, 35.91350
726.0928, 35.03223
726.5749, 34.18649
727.0570, 33.34163
727.5391, 32.84703
728.0212, 32.99667
728.5034, 33.57770
728.9855, 34.00388
729.4676, 34.30153
729.9497, 34.68366
730.4318, 35.25653
730.9139, 35.99361
731.3961, 36.92159
731.8782, 38.03372
732.3603, 39.14882
732.8424, 40.10840
733.3245, 41.14178
733.8066, 42.37090
734.2888, 43.82660
734.7709, 45.32675
735.2530, 46.91697
735.7351, 48.45475
736.2172, 49.87362
736.6993, 51.15680
737.1815, 52.16877
737.6636, 52.89175
738.1457, 53.46291
738.6278, 54.09028
739.1099, 54.59019
739.5920, 54.74763
740.0742, 54.54040
740.5563, 53.94113
741.0384, 52.76915
741.5205, 51.29260
742.0026, 49.75536
742.4847, 48.36902
742.9669, 46.57838
743.4490, 44.20427
743.9311, 41.69884
744.4132, 39.61647
744.8953, 37.94703
745.3774, 36.25902
745.8596, 34.41146
746.3417, 32.62578
746.8238, 31.30772
747.3059, 30.25229
747.7880, 29.03242
748.2701, 27.19489
748.7523, 25.62450
749.2344, 24.98846
749.7165, 24.88315
750.1986, 24.54117
750.6807, 23.39890
751.1628, 22.67751
751.6450, 22.65260
752.1271, 23.08893
752.6092, 23.45544
753.0913, 23.76984
753.5734, 24.13601
754.0555, 24.57999
754.5377, 24.94775
755.0198, 25.41674
755.5019, 25.71204
755.9840, 26.05347
756.4661, 26.47085
756.9482, 26.98172
757.4304, 27.69606
757.9125, 28.53299
758.3946, 29.20170
758.8767, 29.32622
759.3588, 29.65452
759.8409, 30.39926
760.3231, 31.50062
760.8052, 32.73783
761.2873, 34.15711
761.7694, 35.34887
762.2515, 35.99714
762.7336, 36.35791
763.2158, 36.93814
763.6979, 37.75013
764.1800, 38.82227
764.6621, 40.72271
765.1442, 42.43475
765.6263, 43.00385
766.1085, 42.46728
766.5906, 42.38757
767.0727, 43.60924
767.5548, 44.69687
768.0369, 45.02658
768.5190, 44.62000
769.0012, 44.59219
769.4833, 44.99585
769.9654, 45.46333
770.4475, 45.81633
770.9296, 46.04296
771.4117, 46.18148
771.8939, 46.21772
772.3760, 45.92126
772.8581, 44.69312
773.3402, 43.40091
773.8223, 42.85599
774.3044, 43.25486
774.7866, 43.22818
775.2687, 42.33208
775.7508, 41.22200
776.2329, 40.24158
776.7150, 39.42349
777.1971, 38.31599
777.6793, 36.87688
778.1614, 35.33934
778.6435, 34.01999
779.1256, 32.73955
779.6077, 31.04086
780.0898, 28.87338
780.5720, 26.62655
781.0541, 24.30074
781.5362, 22.14697
782.0183, 20.48051
782.5004, 19.52051
782.9825, 18.28922
783.4647, 16.34653
783.9468, 14.49694
784.4289, 13.37050
784.9110, 13.07534
785.3931, 12.44782
785.8752, 11.40498
786.3574, 10.40782
786.8395, 10.09188
787.3216, 10.11597
787.8037, 9.716463
788.2858, 8.758862
788.7679, 7.751625
789.2501, 6.916563
789.7322, 6.230358
790.2143, 5.659851
790.6964, 5.207468
791.1785, 4.901651
791.6606, 4.871895
792.1428, 4.831650
792.6249, 4.498238
793.1070, 3.855507
793.5891, 3.324057
794.0712, 2.933811
794.5533, 2.605602
795.0355, 2.259741
795.5176, 1.911848
795.9997, 1.580996
796.4818, 1.266491
796.9639, 0.9920600
797.4460, 0.7229980
797.9282, 0.5223330
798.4103, 0.4686810
798.8924, 0.7189220
799.3745, 0.7589650
799.8566, 0.5275290
800.3387, 0.1888240
800.8209, 0.1060090
801.3030, 0.3584420
801.7851, 0.5938820
802.2672, 0.8228930
802.7493, 1.000183
803.2314, 1.054077
803.7136, 1.038074
804.1957, 1.027210
804.6778, 1.054321
805.1599, 1.028168
805.6420, 0.8195020
806.1241, 0.6078430
806.6063, 0.5677830
807.0884, 0.8337040
807.5705, 0.8900360
808.0526, 0.6851390
808.5347, 0.3916300
809.0168, 0.1173110
809.4990, 0.1012500
809.9811, 5.1369000E-02
810.4632, 0.3344120
810.9453, 0.6952550
811.4274, 0.7820640
811.9095, 0.6588880
812.3917, 0.3457090
812.8738, 0.3137700
813.3559, 0.7270660
813.8380, 0.6749020
814.3201, 0.4553570
814.8022, 0.2566620
815.2844, 5.8242999E-02
815.7665, 4.2417999E-02
816.2486, 0.2436900
816.7307, 0.5072060
817.2128, 0.6707340
817.6949, 0.7783810
818.1771, 0.9333150
818.6592, 1.157278
819.1413, 1.371367
819.6234, 1.583946
820.1055, 1.731833
820.5876, 1.732014
821.0698, 1.424042
821.5519, 1.361671
822.0340, 1.617048
822.5161, 2.015303
822.9982, 2.481606
823.4803, 3.008095
823.9625, 3.299339
824.4446, 3.320562
824.9267, 3.377241
825.4088, 3.881243
825.8909, 4.527924
826.3730, 4.876049
826.8552, 4.831800
827.3373, 4.822315
827.8194, 4.939619
828.3015, 5.196220
828.7836, 5.618078
829.2657, 6.242819
829.7479, 6.817762
830.2300, 7.345036
830.7121, 7.790272
831.1942, 8.108656
831.6763, 8.318178
832.1584, 8.413231
832.6406, 8.399969
833.1227, 8.493614
833.6048, 9.051291
834.0869, 9.628044
834.5690, 9.800512
835.0511, 9.449024
835.5333, 9.399155
836.0154, 9.872698
836.4975, 10.42531
836.9796, 10.85442
837.4617, 11.16878
837.9438, 11.41300
838.4260, 11.58514
838.9081, 11.74126
839.3902, 12.00029
839.8723, 12.22990
840.3544, 12.17791
840.8365, 11.86825
841.3187, 11.63007
841.8008, 11.68069
842.2829, 11.77414
842.7650, 11.82228
843.2471, 11.82128
843.7292, 11.70484
844.2114, 11.44854
844.6935, 11.15649
845.1756, 10.84930
845.6577, 10.56434
846.1398, 10.43860
846.6219, 10.43430
847.1041, 10.34431
847.5862, 9.949549
848.0683, 9.496902
848.5504, 9.147682
849.0325, 8.901449
849.5146, 8.690660
849.9968, 8.539598
850.4789, 8.392111
850.9610, 8.235708
851.4431, 8.059805
851.9252, 7.841961
852.4073, 7.584129
852.8895, 7.359678
853.3716, 7.213945
853.8537, 7.156610
854.3358, 7.220452
854.8179, 7.308929
855.3000, 7.265066
855.7822, 6.906616
856.2643, 6.612215
856.7464, 6.486408
857.2285, 6.477221
857.7106, 6.536220
858.1927, 6.692863
858.6749, 6.812523
859.1570, 6.859907
859.6391, 6.887548
860.1212, 6.897353
860.6033, 6.869465
861.0854, 6.859377
861.5676, 6.980553
862.0497, 7.072220
862.5318, 6.929449
863.0139, 6.676044
863.4960, 6.560076
863.9781, 6.748758
864.4603, 6.889994
864.9424, 6.892239
865.4245, 6.836982
865.9066, 6.872772
866.3887, 6.989258
866.8708, 7.062492
867.3530, 7.059363
867.8351, 7.101306
868.3172, 7.384693
868.7993, 7.677887
869.2814, 7.737162
869.7635, 7.440125
870.2457, 7.223431
870.7278, 7.134081
871.2099, 7.108912
871.6920, 7.163439
872.1741, 7.300903
872.6563, 7.213961
873.1384, 6.871069
873.6205, 6.660616
874.1026, 7.071951
874.5847, 7.695617
875.0668, 7.987270
875.5490, 7.899611
876.0311, 7.701698
876.5132, 7.372251
876.9953, 7.069098
877.4774, 6.837679
877.9595, 6.681381
878.4417, 6.733206
878.9238, 7.037205
879.4059, 7.272648
879.8880, 7.187294
880.3701, 6.951353
880.8522, 6.928640
881.3344, 7.067778
881.8165, 7.148041
882.2986, 7.079959
882.7807, 6.902731
883.2628, 6.523613
883.7449, 6.039614
884.2271, 5.835939
884.7092, 6.047663
885.1913, 6.139025
885.6734, 5.922110
886.1555, 5.570621
886.6376, 5.488285
887.1198, 5.599594
887.6019, 5.627977
888.0840, 5.402828
888.5661, 5.176538
889.0482, 5.157154
889.5303, 5.225323
890.0125, 5.188932
890.4946, 4.964151
890.9767, 4.756697
891.4588, 4.600786
891.9409, 4.429222
892.4230, 4.064684
892.9052, 3.571215
893.3873, 3.405462
893.8694, 3.686707
894.3515, 3.961517
894.8336, 3.781139
895.3157, 3.431358
895.7979, 3.203371
896.2800, 3.197681
896.7621, 3.140839
897.2442, 2.988811
897.7263, 2.815361
898.2084, 2.663336
898.6906, 2.532892
899.1727, 2.427940
899.6548, 2.348965
900.1369, 2.277819
900.6190, 2.215294
901.1011, 2.144398
901.5833, 2.066498
902.0654, 1.974823
902.5475, 1.804384
903.0296, 1.423571
903.5117, 1.088575
903.9938, 0.8611640
904.4760, 0.7437740
904.9581, 0.7932130
905.4402, 1.012651
905.9223, 1.186312
906.4044, 1.237776
906.8865, 1.185820
907.3687, 0.9877110
907.8508, 0.7105260
908.3329, 0.5057980
908.8150, 0.4956820
909.2971, 0.4803390
909.7792, 0.4713290
910.2614, 0.4025960
910.7435, 9.2721999E-02
911.2256, 0.5008320
911.7077, 0.7554630
912.1898, 0.5112000
912.6719, 0.1422980
913.1541, 0.1057380
913.6362, 0.2455670
914.1183, 0.3173010
914.6004, 0.2337720
915.0825, 0.2132050
915.5646, 0.3154220
916.0468, 0.5188790
916.5289, 0.8842240
917.0110, 1.490480
917.4931, 1.550554
917.9752, 0.9994980
918.4573, 0.4422040
918.9395, 0.4844000
919.4216, 0.7510510
919.9037, 0.5469150
920.3858, 7.9060003E-02
920.8679, 0.4248600
921.3500, 0.1479150
921.8322, 0.6921650
922.3143, 0.7874470
922.7964, 0.5298610
923.2785, 0.3504470
923.7606, 0.2494030
924.2427, 0.2289370
924.7249, 0.3297000
925.2070, 0.4595320
925.6891, 0.4667610
926.1712, 0.3885170
926.6533, 0.3082960
927.1354, 0.3319820
927.6176, 0.2696190
928.0997, 3.6210999E-02
928.5818, 0.4048960
929.0639, 0.6292950
929.5460, 0.7111240
930.0281, 0.6027790
930.5103, 0.2378920
930.9924, 6.5036997E-02
931.4745, 0.2285310
931.9566, 0.7737370
932.4387, 0.9670830
932.9208, 0.6637520
933.4030, 0.4266820
933.8851, 0.5464820
934.3672, 0.7365860
934.8493, 0.8360230
935.3314, 0.8443870
935.8135, 0.7909160
936.2957, 0.6697330
936.7778, 0.5464150
937.2599, 0.4386560
937.7420, 0.3675960
938.2241, 0.3600010
938.7062, 0.4171370
939.1884, 0.5439320
939.6705, 0.8435940
940.1526, 1.093771
940.6347, 1.204670
941.1168, 1.232872
941.5989, 1.287945
942.0811, 1.367826
942.5632, 1.500864
943.0453, 1.718145
943.5274, 1.918678
944.0095, 1.958515
944.4916, 1.909075
944.9738, 1.890961
945.4559, 1.962605
945.9380, 1.993622
946.4201, 1.936613
946.9022, 1.842890
947.3843, 1.687954
947.8665, 1.439981
948.3486, 1.644466
948.8307, 2.343502
949.3128, 2.905260
949.7949, 2.586266
950.2770, 2.005053
950.7592, 1.924105
951.2413, 2.326477
951.7234, 2.704752
952.2055, 2.908701
952.6876, 3.066740
953.1697, 3.225931
953.6519, 3.361799
954.1340, 3.335962
954.6161, 3.160892
955.0982, 3.133255
955.5803, 3.437160
956.0624, 3.775948
956.5446, 3.689598
957.0267, 3.491039
957.5088, 3.658905
957.9909, 4.810940
958.4730, 5.574551
958.9551, 5.819389
959.4373, 5.776054
959.9194, 5.503559
960.4015, 5.076107
960.8836, 5.272675
961.3657, 6.152637
961.8478, 7.030422
962.3300, 7.419445
962.8121, 7.542484
963.2942, 7.450142
963.7763, 7.153423
964.2584, 7.201290
964.7405, 7.729515
965.2227, 8.350296
965.7048, 9.007320
966.1869, 9.591118
966.6690, 9.750294
967.1511, 9.582069
967.6332, 9.489468
968.1154, 9.668480
968.5975, 9.917309
969.0796, 10.18230
969.5617, 10.42239
970.0438, 10.59027
970.5259, 10.66986
971.0081, 10.73308
971.4902, 10.79569
971.9723, 10.76194
972.4544, 10.42589
972.9365, 9.933987
973.4186, 9.690834
973.9008, 9.730934
974.3829, 9.626671
974.8650, 8.965584
975.3471, 8.287575
975.8292, 7.943493
976.3113, 7.899082
976.7935, 7.725395
977.2756, 7.394623
977.7577, 7.061790
978.2398, 6.806705
978.7219, 6.586884
979.2040, 6.336216
979.6862, 6.042301
980.1683, 5.710377
980.6504, 5.371815
981.1325, 4.983253
981.6146, 4.504704
982.0967, 3.990204
982.5789, 3.476135
983.0610, 2.959858
983.5431, 2.567524
984.0252, 2.322998
984.5073, 2.069283
984.9894, 1.635384
985.4716, 1.135117
985.9537, 0.6759640
986.4358, 0.2626950
986.9179, 0.1197810
987.4000, 0.5984760
987.8821, 0.8212590
988.3643, 0.5445820
988.8464, 2.3769999E-03
989.3285, 0.1134910
989.8106, 0.1476820
990.2927, 0.4323620
990.7748, 0.6314740
991.2570, 0.7563480
991.7391, 0.8114930
992.2212, 0.7961810
992.7033, 0.7033160
993.1854, 0.5076900
993.6675, 0.3177380
994.1497, 0.1460300
994.6318, 4.6215001E-02
995.1139, 0.3083150
995.5960, 0.6116410
996.0781, 0.9126210
996.5602, 1.207172
997.0424, 1.469620
997.5245, 1.606136
998.0066, 1.803455
998.4887, 2.251713
998.9708, 2.830917
999.4529, 2.902214
999.9351, 2.422844
1000.417, 2.226933
1000.899, 2.727959
1001.381, 3.381176
1001.864, 3.440540
1002.346, 3.240864
1002.828, 3.319439
1003.310, 4.028934
1003.792, 4.626377
1004.274, 5.003742
1004.756, 5.340199
1005.238, 5.793419
1005.720, 6.346760
1006.203, 6.962120
1006.685, 7.616505
1007.167, 8.144512
1007.649, 8.223450
1008.131, 8.315510
1008.613, 8.862240
1009.095, 9.737625
1009.577, 10.19174
1010.060, 10.08239
1010.542, 9.941288
1011.024, 9.864071
1011.506, 9.867031
1011.988, 10.12067
1012.470, 10.44660
1012.952, 10.41688
1013.434, 9.799690
1013.916, 9.253147
1014.399, 8.985733
1014.881, 8.929428
1015.363, 9.078945
1015.845, 9.437366
1016.327, 9.810162
1016.809, 10.20018
1017.291, 10.35171
1017.773, 9.885460
1018.255, 9.280407
1018.738, 8.969929
1019.220, 8.906185
1019.702, 8.942265
1020.184, 9.292496
1020.666, 9.305988
1021.148, 8.787891
1021.630, 8.095222
1022.112, 7.760838
1022.595, 7.697571
1023.077, 7.654392
1023.559, 7.601845
1024.041, 7.452518
1024.523, 7.010857
1025.005, 6.573429
1025.487, 6.397892
1025.969, 6.456726
1026.452, 6.348427
1026.934, 6.065632
1027.416, 5.662582
1027.898, 5.071388
1028.380, 4.488071
1028.862, 4.254238
1029.344, 4.229694
1029.826, 4.146900
1030.308, 3.772247
1030.791, 3.565670
1031.273, 3.615097
1031.755, 3.763355
1032.237, 3.836014
1032.719, 3.860573
1033.201, 4.065208
1033.683, 4.452408
1034.165, 4.827225
1034.647, 4.918148
1035.130, 5.076271
1035.612, 5.650417
1036.094, 5.895412
1036.576, 7.005684
1037.058, 6.947701
1037.540, 7.217457
1038.022, 8.133095
1038.504, 9.174679
1038.987, 9.413654
1039.469, 9.323112
1039.951, 9.737240
1040.433, 10.96124
1040.915, 12.23693
1041.397, 13.52175
1041.879, 14.64203
1042.361, 15.40391
1042.844, 15.88825
1043.326, 16.83610
1043.808, 18.20415
1044.290, 19.56756
1044.772, 20.64190
1045.254, 21.71651
1045.736, 23.14947
1046.218, 24.68343
1046.700, 25.74956
1047.182, 26.03209
1047.665, 26.87424
1048.147, 28.43548
1048.629, 30.31451
1049.111, 32.19027
1049.593, 34.07586
1050.075, 36.02481
1050.557, 38.03754
1051.039, 40.00595
1051.522, 41.69422
1052.004, 43.55257
1052.486, 45.75879
1052.968, 48.17044
1053.450, 50.41721
1053.932, 52.50523
1054.414, 54.42251
1054.896, 56.04417
1055.379, 57.85476
1055.861, 60.50887
1056.343, 63.33481
1056.825, 65.63522
1057.307, 67.31289
1057.789, 69.02988
1058.271, 70.82493
1058.753, 72.44273
1059.235, 73.71087
1059.718, 74.68736
1060.200, 75.38212
1060.682, 75.84650
1061.164, 76.22486
1061.646, 76.66100
1062.128, 76.86075
1062.610, 76.80563
1063.092, 76.48585
1063.574, 75.89543
1064.057, 75.02834
1064.539, 73.76610
1065.021, 72.09081
1065.503, 70.45773
1065.985, 69.25700
1066.467, 68.07017
1066.949, 66.56295
1067.431, 64.84492
1067.914, 63.33552
1068.396, 62.05296
1068.878, 60.72601
1069.360, 59.24868
1069.842, 57.72174
1070.324, 56.12285
1070.806, 54.60075
1071.288, 53.42988
1071.771, 52.85828
1072.253, 51.93480
1072.735, 50.41355
1073.217, 49.01287
1073.699, 48.37776
1074.181, 48.14359
1074.663, 47.08984
1075.145, 45.46072
1075.627, 44.16125
1076.109, 43.99312
1076.592, 43.70106
1077.074, 42.61177
1077.556, 41.42824
1078.038, 41.04993
1078.520, 41.46005
1079.002, 41.62840
1079.484, 41.49040
1079.966, 41.26566
1080.448, 40.95102
1080.931, 40.73563
1081.413, 40.86401
1081.895, 41.29494
1082.377, 41.51561
1082.859, 41.44156
1083.341, 41.54912
1083.823, 41.98364
1084.305, 42.59435
1084.788, 43.38594
1085.270, 44.19445
1085.752, 44.68552
1086.234, 44.78725
1086.716, 44.95960
1087.198, 45.42363
1087.680, 45.77905
1088.162, 45.81357
1088.645, 45.69545
1089.127, 45.92903
1089.609, 46.41248
1090.091, 46.85341
1090.573, 47.21196
1091.055, 47.46269
1091.537, 47.47799
1092.019, 47.39959
1092.501, 47.41677
1092.984, 47.55510
1093.466, 47.45208
1093.948, 47.09895
1094.430, 46.71738
1094.912, 46.54480
1095.394, 46.33297
1095.876, 45.70501
1096.358, 44.86773
1096.840, 44.56726
1097.323, 45.22270
1097.805, 45.19747
1098.287, 44.18681
1098.769, 42.85636
1099.251, 41.92533
1099.733, 41.18855
1100.215, 40.37605
1100.697, 39.43433
1101.180, 38.28471
1101.662, 36.71549
1102.144, 35.25349
1102.626, 34.07399
1103.108, 33.02820
1103.590, 31.84015
1104.072, 30.51331
1104.554, 29.05062
1105.036, 27.37689
1105.519, 25.85809
1106.001, 24.96344
1106.483, 24.04829
1106.965, 22.62248
1107.447, 20.76236
1107.929, 19.44866
1108.411, 18.66116
1108.893, 17.82319
1109.375, 16.52192
1109.858, 15.22152
1110.340, 14.31795
1110.822, 13.65344
1111.304, 12.96394
1111.786, 12.24195
1112.268, 11.46702
1112.750, 10.62597
1113.232, 9.842934
1113.715, 9.223995
1114.197, 8.702530
1114.679, 8.206337
1115.161, 7.722244
1115.643, 7.190170
1116.125, 6.524567
1116.607, 5.946072
1117.089, 5.480255
1117.572, 5.120270
1118.054, 4.935648
1118.536, 4.827829
1119.018, 4.559998
1119.500, 4.117121
1119.982, 3.715141
1120.464, 3.430157
1120.946, 3.216316
1121.428, 3.105143
1121.911, 3.025707
1122.393, 2.764025
1122.875, 2.368692
1123.357, 2.070114
1123.839, 1.948835
1124.321, 1.790251
1124.803, 1.338530
1125.285, 0.9370920
1125.767, 0.8443980
1126.250, 1.013353
1126.732, 0.9649600
1127.214, 0.7085570
1127.696, 0.5258240
1128.178, 0.6301900
1128.660, 0.6765400
1129.142, 0.2007240
1129.624, 0.4000840
1130.107, 0.6043280
1130.589, 0.3124330
1131.071, 2.9913001E-02
1131.553, 0.2475410
1132.035, 0.4674210
1132.517, 0.6553000
1132.999, 0.7183490
1133.481, 0.4234100
1133.964, 6.5618999E-02
1134.446, 0.3649330
1134.928, 0.3373830
1135.410, 0.2529370
1135.892, 9.3042001E-02
1136.374, 2.0864001E-02
1136.856, 0.1302010
1137.338, 0.3580880
1137.820, 0.2401310
1138.302, 0.1622510
1138.785, 0.3704700
1139.267, 0.3115330
1139.749, 9.3659997E-02
1140.231, 0.3065620
1140.713, 0.3380150
1141.195, 0.3538420
1141.677, 0.1110570
1142.159, 0.2428990
1142.642, 0.3914240
1143.124, 2.1392999E-02
1143.606, 0.6151620
1144.088, 0.2580300
1144.570, 0.3206620
1145.052, 0.1914650
1145.534, 0.1457390
1146.016, 0.3446880
1146.499, 0.6169280
1146.981, 0.4468000
1147.463, 0.3452630
1147.945, 0.7920570
1148.427, 1.261526
1148.909, 1.388189
1149.391, 1.209705
1149.873, 1.046293
1150.355, 0.8974840
1150.838, 0.7571810
1151.320, 0.6196630
1151.802, 0.4959090
1152.284, 0.4163460
1152.766, 0.3400080
1153.248, 0.2053180
1153.730, 7.3429998E-03
1154.212, 0.1015380
1154.694, 7.2591998E-02
1155.177, 2.0903001E-02
1155.659, 0.2183360
1156.141, 0.3925890
1156.623, 0.4624620
1157.105, 0.4093480
1157.587, 0.1569510
1158.069, 0.4657300
1158.551, 0.7343860
1159.034, 0.5981060
1159.516, 0.3375010
1159.998, 8.7205000E-02
1160.480, 9.7176999E-02
1160.962, 0.1958600
1161.444, 0.1725730
1161.926, 0.1208170
1162.408, 0.9352370
1162.891, 1.487536
1163.373, 1.696195
1163.855, 1.665208
1164.337, 1.405735
1164.819, 1.032652
1165.301, 0.6671780
1165.783, 0.3489920
1166.265, 0.2349860
1166.747, 0.5300930
1167.229, 0.7362190
1167.712, 0.7395730
1168.194, 0.6769330
1168.676, 0.7314310
1169.158, 0.8732710
1169.640, 1.046519
1170.122, 1.244740
1170.604, 1.469097
1171.086, 1.822471
1171.569, 2.052335
1172.051, 2.054635
1172.533, 1.940471
1173.015, 1.911612
1173.497, 1.956951
1173.979, 2.055265
1174.461, 2.209546
1174.943, 2.352123
1175.426, 2.515676
1175.908, 2.582529
1176.390, 2.438145
1176.872, 2.201870
1177.354, 2.315160
1177.836, 2.681861
1178.318, 2.971687
1178.800, 3.085024
1179.282, 3.104750
1179.765, 2.928818
1180.247, 2.812123
1180.729, 2.961512
1181.211, 3.298822
1181.693, 3.339424
1182.175, 3.128181
1182.657, 2.903503
1183.139, 2.691771
1183.621, 2.613870
1184.104, 2.843575
1184.586, 3.133672
1185.068, 3.289042
1185.550, 3.318831
1186.032, 3.407642
1186.514, 3.539740
1186.996, 3.584256
1187.478, 3.340138
1187.961, 3.126217
1188.443, 3.102612
1188.925, 3.213957
1189.407, 3.425438
1189.889, 3.739608
1190.371, 4.005312
1190.853, 4.217321
1191.335, 4.324265
1191.818, 4.157581
1192.300, 4.009996
1192.782, 4.128479
1193.264, 4.352870
1193.746, 4.450517
1194.228, 4.416146
1194.710, 4.339281
1195.192, 4.221803
1195.674, 4.127004
1196.156, 4.094965
1196.639, 4.096290
1197.121, 4.135916
1197.603, 4.204745
1198.085, 4.198813
1198.567, 4.111402
1199.049, 4.020887
1199.531, 3.965667
1200.013, 4.004121
1200.496, 4.295961
1200.978, 4.626304
1201.460, 4.798586
1201.942, 4.871897
1202.424, 4.851871
1202.906, 4.764372
1203.388, 4.650501
1203.870, 4.491466
1204.353, 4.339363
1204.835, 4.202721
1205.317, 4.155980
1205.799, 4.318487
1206.281, 4.593267
1206.763, 4.628158
1207.245, 4.431387
1207.727, 4.286117
1208.209, 4.256139
1208.692, 4.260721
1209.174, 4.264166
1209.656, 4.243421
1210.138, 4.134757
1210.620, 3.972293
1211.102, 3.980941
1211.584, 4.171297
1212.066, 4.311330
1212.548, 4.327234
1213.031, 4.281660
1213.513, 4.240337
1213.995, 4.146908
1214.477, 3.889832
1214.959, 3.518290
1215.441, 3.442552
1215.923, 3.683770
1216.405, 3.899077
1216.888, 3.974469
1217.370, 3.948179
1217.852, 3.776451
1218.334, 3.578299
1218.816, 3.488054
1219.298, 3.345409
1219.780, 3.229778
1220.262, 3.254852
1220.745, 3.167585
1221.227, 3.227363
1221.709, 3.340531
1222.191, 3.515548
1222.673, 3.633867
1223.155, 3.545587
1223.637, 3.595465
1224.119, 3.212783
1224.601, 3.404980
1225.083, 3.480617
1225.566, 3.190755
1226.048, 2.878283
1226.530, 2.812543
1227.012, 2.840149
1227.494, 2.789186
1227.976, 2.664365
1228.458, 2.675916
1228.940, 2.790489
1229.423, 2.908529
1229.905, 3.061446
1230.387, 3.122054
1230.869, 2.840712
1231.351, 2.532784
1231.833, 2.599821
1232.315, 3.024025
1232.797, 3.060299
1233.280, 2.764392
1233.762, 2.508710
1234.244, 2.457776
1234.726, 2.509026
1235.208, 2.779759
1235.690, 3.011629
1236.172, 2.929883
1236.654, 2.537423
1237.136, 2.396536
1237.619, 2.482944
1238.101, 2.502051
1238.583, 2.128612
1239.065, 1.838840
1239.547, 1.953716
1240.029, 2.125437
1240.511, 2.002267
1240.993, 1.638408
1241.475, 1.507435
1241.958, 1.577131
1242.440, 1.631578
1242.922, 1.545821
1243.404, 1.477897
1243.886, 1.443547
1244.368, 1.451341
1244.850, 1.544393
1245.332, 1.691197
1245.815, 1.736394
1246.297, 1.700680
1246.779, 1.720287
1247.261, 2.074930
1247.743, 2.163397
1248.225, 1.762896
1248.707, 1.275296
1249.189, 1.100076
1249.672, 1.154613
1250.154, 1.252617
1250.636, 1.365413
1251.118, 1.386720
1251.600, 1.151525
1252.082, 0.9898570
1252.564, 0.9547860
1253.046, 0.9742040
1253.528, 0.9921310
1254.010, 1.005697
1254.493, 0.9845220
1254.975, 0.9406840
1255.457, 0.9372350
1255.939, 1.075143
1256.421, 1.068254
1256.903, 0.8388050
1257.385, 0.6223790
1257.867, 0.6579280
1258.350, 0.8347790
1258.832, 1.101587
1259.314, 1.388066
1259.796, 1.393188
1260.278, 0.9484360
1260.760, 0.6464580
1261.242, 0.5379330
1261.724, 0.5798610
1262.207, 0.8418870
1262.689, 1.132314
1263.171, 1.198887
1263.653, 1.085917
1264.135, 1.017560
1264.617, 1.010711
1265.099, 0.9564840
1265.581, 0.8386520
1266.063, 0.7680610
1266.546, 0.9179810
1267.028, 1.086560
1267.510, 1.086714
1267.992, 1.166953
1268.474, 1.186753
1268.956, 1.130285
1269.438, 1.118587
1269.920, 0.9552260
1270.402, 0.8213790
1270.885, 0.8701850
1271.367, 0.9697080
1271.849, 1.132377
1272.331, 1.299641
1272.813, 1.321007
1273.295, 1.189023
1273.777, 1.073193
1274.259, 0.9915080
1274.742, 0.9206490
1275.224, 0.8529970
1275.706, 0.7924120
1276.188, 0.7067900
1276.670, 0.6648430
1277.152, 0.8402980
1277.634, 1.149891
1278.116, 1.204697
1278.599, 1.005924
1279.081, 0.7992560
1279.563, 0.7475720
1280.045, 0.6081660
1280.527, 0.2668960
1281.009, 5.5934001E-02
1281.491, 2.0320000E-02
1281.973, 0.2242850
1282.455, 0.3553830
1282.938, 0.3729510
1283.420, 0.1666200
1283.902, 0.2252160
1284.384, 0.1645490
1284.866, 0.0000000E+00
##END=



