##NAMES=Fluorapatite
##RRUFFID=R050192
##IDEAL CHEMISTRY=Ca_5_(PO_4_)_3_F
##LOCALITY=Fulford, Eagle County, Colorado, USA
##OWNER=RRUFF
##SOURCE=Dave Bunk Minerals
##DESCRIPTION=Pale green hexagonal prism
##STATUS=The identification of this mineral has been confirmed by X-ray diffraction and chemical analysis
##URL=rruff.info/R050192
##MEASURED CHEMISTRY=Ca_5.00_(P_1.00_O_4_)_3_(F_0.86_Cl_0.13_)
143.9155, 0.0000000E+00
144.3976, 1.554688
144.8797, 19.86914
145.3619, 33.88086
145.8440, 59.82617
146.3261, 62.46973
146.8082, 46.52637
147.2903, 17.04980
147.7724, 3.694336
148.2546, 0.9707030
148.7367, 45.84668
149.2188, 85.71289
149.7009, 112.1504
150.1830, 125.8408
150.6651, 137.5801
151.1473, 142.7871
151.6294, 148.9131
152.1115, 161.1855
152.5936, 187.0234
153.0757, 211.5596
153.5578, 234.9844
154.0400, 255.4346
154.5221, 271.3604
155.0042, 285.2793
155.4863, 296.0576
155.9684, 303.6611
156.4505, 321.9912
156.9327, 324.1680
157.4148, 294.5703
157.8969, 226.8447
158.3790, 180.1328
158.8611, 186.3369
159.3432, 212.5889
159.8254, 221.2295
160.3075, 187.7031
160.7896, 148.0625
161.2717, 115.6016
161.7538, 93.07422
162.2359, 73.73145
162.7181, 49.75977
163.2002, 28.47754
163.6823, 18.83789
164.1644, 33.57812
164.6465, 50.68652
165.1286, 55.78613
165.6108, 42.67480
166.0929, 32.03418
166.5750, 36.74414
167.0571, 50.77637
167.5392, 64.19727
168.0213, 66.08887
168.5035, 61.43066
168.9856, 66.31348
169.4677, 94.09375
169.9498, 122.2080
170.4319, 118.8252
170.9140, 97.00195
171.3962, 79.91309
171.8783, 77.62598
172.3604, 87.04980
172.8425, 106.0859
173.3246, 137.4004
173.8067, 163.7764
174.2889, 163.0088
174.7710, 143.5908
175.2531, 131.9326
175.7352, 154.0566
176.2173, 189.2910
176.6994, 210.0723
177.1816, 209.8555
177.6637, 197.7812
178.1458, 178.3613
178.6279, 152.4668
179.1100, 128.2998
179.5921, 110.7568
180.0743, 103.0635
180.5564, 105.1582
181.0385, 129.8564
181.5206, 159.4346
182.0027, 146.2930
182.4848, 97.20312
182.9670, 60.79492
183.4491, 88.52832
183.9312, 161.4844
184.4133, 202.7744
184.8954, 186.6738
185.3775, 144.1064
185.8596, 116.2373
186.3418, 103.4004
186.8239, 96.52246
187.3060, 88.66992
187.7881, 80.76758
188.2702, 77.19141
188.7523, 83.08008
189.2345, 91.66992
189.7166, 83.41992
190.1987, 57.76172
190.6808, 30.04395
191.1629, 10.15723
191.6451, 1.389648
192.1272, 1.600586
192.6093, 17.35742
193.0914, 45.75488
193.5735, 50.11426
194.0556, 27.98047
194.5378, 0.3681640
195.0199, 19.05762
195.5020, 27.76855
195.9841, 25.16406
196.4662, 7.636719
196.9483, 20.56250
197.4305, 39.11328
197.9126, 45.95996
198.3947, 53.58691
198.8768, 80.11523
199.3589, 126.9531
199.8410, 147.7588
200.3232, 119.4355
200.8053, 54.11719
201.2874, 26.54883
201.7695, 46.56445
202.2516, 84.34082
202.7337, 117.4619
203.2159, 146.1621
203.6980, 165.6514
204.1801, 175.3213
204.6622, 175.2393
205.1443, 162.2793
205.6264, 132.6943
206.1086, 99.29883
206.5907, 73.16699
207.0728, 53.44141
207.5549, 44.34375
208.0370, 49.63672
208.5191, 68.36914
209.0013, 84.86328
209.4834, 101.0664
209.9655, 111.4619
210.4476, 107.8623
210.9297, 86.01367
211.4118, 65.76855
211.8940, 49.91113
212.3761, 38.64062
212.8582, 42.37402
213.3403, 71.31055
213.8224, 99.62988
214.3045, 93.86426
214.7867, 39.33008
215.2688, 3.733398
215.7509, 19.82715
216.2330, 9.179688
216.7151, 2.609375
217.1972, 18.60449
217.6794, 31.33496
218.1615, 28.76465
218.6436, 0.6074220
219.1257, 14.48340
219.6078, 4.090820
220.0899, 55.49512
220.5721, 76.53418
221.0542, 54.70312
221.5363, 17.37793
222.0184, 6.736328
222.5005, 12.15234
222.9826, 18.54492
223.4648, 36.54199
223.9469, 66.77930
224.4290, 60.52051
224.9111, 0.9960940
225.3932, 77.62793
225.8753, 132.3447
226.3575, 163.6787
226.8396, 174.4229
227.3217, 158.0244
227.8038, 113.9902
228.2859, 84.54297
228.7680, 72.63477
229.2502, 71.92773
229.7323, 77.71387
230.2144, 95.06445
230.6965, 109.4863
231.1786, 118.6016
231.6607, 122.3193
232.1429, 122.7627
232.6250, 119.5898
233.1071, 113.5713
233.5892, 104.0264
234.0713, 84.86816
234.5534, 74.81934
235.0356, 81.61133
235.5177, 104.1133
235.9998, 112.4248
236.4819, 95.56348
236.9640, 76.63184
237.4461, 76.79395
237.9283, 108.6055
238.4104, 133.9355
238.8925, 143.6768
239.3746, 138.9785
239.8567, 145.3096
240.3388, 174.8369
240.8210, 200.9199
241.3031, 200.8174
241.7852, 158.1338
242.2673, 122.5596
242.7494, 101.3623
243.2315, 93.48535
243.7137, 87.53906
244.1958, 81.81641
244.6779, 80.40137
245.1600, 88.19922
245.6421, 115.4951
246.1242, 130.1836
246.6064, 123.7744
247.0885, 100.2715
247.5706, 87.25977
248.0527, 89.43457
248.5348, 95.78125
249.0169, 98.22168
249.4990, 91.67578
249.9812, 94.96191
250.4633, 120.8330
250.9454, 159.4434
251.4275, 160.7930
251.9096, 101.7617
252.3917, 37.81738
252.8739, 1.425781
253.3560, 1.970703
253.8381, 9.340820
254.3202, 21.40527
254.8023, 40.20996
255.2844, 75.32227
255.7666, 141.6006
256.2487, 198.7891
256.7308, 222.1074
257.2129, 197.2979
257.6950, 177.7344
258.1772, 166.0762
258.6593, 159.8848
259.1414, 150.9893
259.6235, 130.6533
260.1056, 124.8359
260.5877, 152.4180
261.0699, 233.3535
261.5520, 280.9736
262.0341, 283.2090
262.5162, 258.8281
262.9983, 248.9619
263.4804, 260.6123
263.9626, 271.0303
264.4447, 270.2832
264.9268, 255.7725
265.4089, 242.8115
265.8910, 232.1475
266.3731, 222.9248
266.8553, 210.0342
267.3374, 185.9102
267.8195, 179.9502
268.3016, 213.8301
268.7837, 297.8965
269.2658, 330.2129
269.7480, 292.9229
270.2301, 228.6895
270.7122, 199.7949
271.1943, 214.2256
271.6764, 234.9932
272.1585, 253.8887
272.6407, 270.6943
273.1228, 266.7344
273.6049, 235.3955
274.0870, 196.1240
274.5691, 168.1143
275.0512, 151.1289
275.5334, 143.1396
276.0155, 145.3926
276.4976, 156.4961
276.9797, 169.1045
277.4618, 188.9219
277.9439, 201.3789
278.4260, 183.4629
278.9081, 130.1758
279.3903, 97.52539
279.8724, 106.0059
280.3545, 144.5273
280.8366, 156.8818
281.3187, 137.3203
281.8008, 112.9678
282.2830, 114.0967
282.7651, 144.8486
283.2472, 166.1641
283.7293, 170.0010
284.2114, 160.9150
284.6935, 151.2227
285.1757, 140.9404
285.6578, 129.6689
286.1399, 115.8271
286.6220, 99.82812
287.1041, 87.09961
287.5862, 77.72168
288.0684, 72.66895
288.5505, 71.58008
289.0326, 74.32422
289.5147, 87.79980
289.9968, 130.6504
290.4789, 193.7207
290.9611, 216.8906
291.4432, 186.7324
291.9253, 139.0684
292.4074, 132.2256
292.8895, 163.0088
293.3716, 195.6064
293.8538, 211.5078
294.3359, 214.6738
294.8180, 219.4805
295.3001, 227.3066
295.7822, 230.8672
296.2643, 218.6221
296.7465, 193.3809
297.2286, 167.2539
297.7107, 142.1689
298.1928, 120.6504
298.6749, 105.7754
299.1570, 97.23438
299.6392, 101.8232
300.1213, 147.2480
300.6034, 212.9365
301.0855, 241.7588
301.5676, 186.1650
302.0497, 100.0742
302.5319, 64.51562
303.0140, 76.88770
303.4961, 98.22266
303.9782, 95.38184
304.4603, 80.73047
304.9424, 77.87793
305.4246, 102.3330
305.9067, 131.9404
306.3888, 137.4814
306.8709, 123.5430
307.3530, 107.9551
307.8351, 101.3877
308.3173, 100.1270
308.7994, 99.51855
309.2815, 98.16895
309.7636, 97.87500
310.2457, 102.6221
310.7278, 110.3691
311.2100, 114.6426
311.6921, 113.8369
312.1742, 107.5107
312.6563, 91.77148
313.1384, 62.39258
313.6205, 42.26758
314.1027, 51.20898
314.5848, 78.50781
315.0669, 105.6592
315.5490, 126.1592
316.0311, 141.3477
316.5132, 151.4443
316.9954, 157.7666
317.4775, 158.6162
317.9596, 143.6699
318.4417, 125.8506
318.9238, 119.8604
319.4059, 142.2021
319.8881, 165.5225
320.3702, 180.9277
320.8523, 188.2363
321.3344, 186.5283
321.8165, 171.8545
322.2986, 149.7852
322.7808, 124.5596
323.2629, 84.17090
323.7450, 54.62500
324.2271, 45.44434
324.7092, 53.40723
325.1913, 61.53613
325.6735, 75.39746
326.1556, 83.65625
326.6377, 79.87500
327.1198, 49.47168
327.6019, 29.21387
328.0840, 26.87305
328.5662, 36.56348
329.0483, 43.83887
329.5304, 51.28027
330.0125, 53.60840
330.4946, 46.86328
330.9767, 23.26758
331.4589, 11.93555
331.9410, 10.69824
332.4231, 22.67285
332.9052, 55.82227
333.3873, 143.5723
333.8694, 200.6699
334.3516, 195.1885
334.8337, 120.9043
335.3158, 81.32715
335.7979, 90.53418
336.2800, 112.2910
336.7621, 115.2637
337.2443, 90.64355
337.7264, 71.76270
338.2085, 65.32520
338.6906, 69.41406
339.1727, 73.67676
339.6548, 79.14648
340.1370, 83.81152
340.6191, 86.92188
341.1012, 88.08594
341.5833, 88.64258
342.0654, 85.46387
342.5475, 84.19922
343.0297, 103.8594
343.5118, 148.8828
343.9939, 181.1582
344.4760, 171.3428
344.9581, 123.2725
345.4402, 91.50879
345.9224, 80.15137
346.4045, 77.11426
346.8866, 59.91211
347.3687, 30.95703
347.8508, 20.64160
348.3329, 58.17676
348.8151, 117.3916
349.2972, 129.1436
349.7793, 92.03418
350.2614, 43.66699
350.7435, 15.70312
351.2256, 4.720703
351.7078, 0.1054690
352.1899, 6.255859
352.6720, 2.532227
353.1541, 41.36230
353.6362, 117.9473
354.1183, 178.0762
354.6005, 176.4561
355.0826, 141.5020
355.5647, 112.4600
356.0468, 97.13965
356.5289, 86.49219
357.0110, 68.52832
357.4932, 48.80469
357.9753, 40.46289
358.4574, 66.50293
358.9395, 96.06445
359.4216, 97.74805
359.9037, 65.54688
360.3859, 41.62305
360.8680, 69.98438
361.3501, 114.1367
361.8322, 129.4824
362.3143, 61.66797
362.7964, 2.611328
363.2786, 22.56641
363.7607, 0.9121090
364.2428, 25.06250
364.7249, 53.39648
365.2070, 74.99219
365.6891, 82.82812
366.1713, 54.63477
366.6534, 39.25586
367.1355, 58.91406
367.6176, 99.35547
368.0997, 119.8594
368.5818, 107.2969
369.0640, 81.49023
369.5461, 45.94922
370.0282, 12.97266
370.5103, 47.06055
370.9924, 40.25195
371.4745, 15.51562
371.9567, 3.353516
372.4388, 16.48633
372.9209, 23.54102
373.4030, 15.74023
373.8851, 7.441406
374.3672, 26.25000
374.8494, 42.35938
375.3315, 51.96680
375.8136, 46.35547
376.2957, 13.66406
376.7778, 7.111328
377.2599, 41.17969
377.7421, 101.4258
378.2242, 141.1641
378.7063, 156.6758
379.1884, 163.6289
379.6705, 168.5020
380.1526, 171.4004
380.6348, 179.9375
381.1169, 200.2812
381.5990, 211.2129
382.0811, 165.6309
382.5632, 68.62500
383.0453, 2.656250
383.5275, 1.759766
384.0096, 45.47070
384.4917, 61.74414
384.9738, 46.42383
385.4559, 27.03320
385.9380, 30.05078
386.4202, 48.55859
386.9023, 65.33984
387.3844, 78.51562
387.8665, 85.36328
388.3486, 80.47266
388.8307, 65.53906
389.3129, 47.77539
389.7950, 24.48828
390.2771, 3.843750
390.7592, 2.134766
391.2413, 11.02734
391.7234, 22.68164
392.2056, 2.554688
392.6877, 25.90820
393.1698, 26.14844
393.6519, 61.11328
394.1340, 142.2754
394.6161, 161.1367
395.0983, 117.8691
395.5804, 69.98047
396.0625, 27.93164
396.5446, 4.617188
397.0267, 24.89844
397.5089, 25.80664
397.9910, 22.25391
398.4731, 20.02734
398.9552, 15.68555
399.4373, 1.052734
399.9194, 58.52344
400.4016, 104.3262
400.8837, 114.8926
401.3658, 72.47656
401.8479, 49.63281
402.3300, 56.91602
402.8121, 77.13281
403.2942, 91.62695
403.7763, 106.4629
404.2585, 102.3027
404.7406, 63.32031
405.2227, 4.042969
405.7048, 26.53125
406.1869, 9.273438
406.6690, 60.58594
407.1512, 101.9492
407.6333, 134.5039
408.1154, 143.6797
408.5975, 119.2578
409.0796, 83.50195
409.5617, 86.91992
410.0439, 130.3906
410.5260, 165.1484
411.0081, 157.1328
411.4902, 118.6914
411.9723, 104.6406
412.4544, 116.6719
412.9366, 140.0430
413.4187, 170.9043
413.9008, 203.5293
414.3829, 218.6426
414.8650, 203.0918
415.3471, 176.8477
415.8293, 163.9531
416.3114, 162.9414
416.7935, 165.9629
417.2756, 167.8652
417.7577, 171.5039
418.2398, 183.5137
418.7220, 210.0059
419.2041, 226.0137
419.6862, 202.2520
420.1683, 161.5684
420.6504, 138.8145
421.1325, 162.6230
421.6147, 193.7773
422.0968, 209.6660
422.5789, 211.0430
423.0610, 222.9316
423.5431, 269.1719
424.0252, 317.0410
424.5074, 345.7559
424.9895, 330.6484
425.4716, 323.3652
425.9537, 324.0332
426.4358, 334.4824
426.9179, 359.8105
427.4001, 414.4355
427.8822, 464.6777
428.3643, 497.0410
428.8464, 510.1562
429.3285, 538.7090
429.8106, 596.3457
430.2928, 647.9043
430.7749, 655.6680
431.2570, 608.2285
431.7391, 569.1855
432.2212, 547.0703
432.7033, 540.1758
433.1855, 545.4766
433.6676, 564.0430
434.1497, 585.6211
434.6318, 607.3691
435.1139, 628.2383
435.5960, 638.1484
436.0782, 634.3848
436.5603, 630.9609
437.0424, 648.9551
437.5245, 682.4453
438.0066, 711.0859
438.4887, 727.8906
438.9709, 735.5664
439.4530, 731.3496
439.9351, 717.8379
440.4172, 712.2520
440.8993, 733.2383
441.3814, 765.3633
441.8636, 792.3555
442.3457, 810.6699
442.8278, 825.4453
443.3099, 836.9922
443.7920, 846.5078
444.2741, 856.6484
444.7563, 870.6973
445.2384, 884.5137
445.7205, 905.7852
446.2026, 934.3203
446.6847, 929.7656
447.1668, 835.6270
447.6490, 737.4434
448.1311, 689.1914
448.6132, 756.5156
449.0953, 791.8184
449.5774, 782.4121
450.0595, 740.6484
450.5417, 696.5586
451.0238, 650.5566
451.5059, 611.7441
451.9880, 581.9199
452.4701, 561.4707
452.9522, 537.5488
453.4344, 509.9707
453.9165, 478.7227
454.3986, 440.9375
454.8807, 395.2090
455.3628, 356.3672
455.8449, 329.2617
456.3271, 306.3105
456.8092, 262.7051
457.2913, 201.9980
457.7734, 164.1641
458.2555, 193.3281
458.7376, 255.9941
459.2198, 275.4844
459.7019, 247.3047
460.1840, 211.9766
460.6661, 214.7363
461.1482, 232.7969
461.6303, 225.2930
462.1125, 155.1738
462.5946, 89.54688
463.0767, 89.92188
463.5588, 136.0742
464.0409, 174.2578
464.5230, 169.4746
465.0052, 152.7520
465.4873, 140.2090
465.9694, 133.7695
466.4515, 128.7754
466.9336, 129.1875
467.4157, 128.3320
467.8979, 119.3066
468.3800, 93.64648
468.8621, 68.10742
469.3442, 30.87500
469.8263, 7.386719
470.3084, 2.123047
470.7906, 99.91406
471.2727, 183.6660
471.7548, 203.4297
472.2369, 144.9980
472.7190, 117.5684
473.2011, 130.5859
473.6833, 156.7461
474.1654, 163.5195
474.6475, 150.0430
475.1296, 139.0391
475.6117, 136.8398
476.0938, 138.4766
476.5760, 130.5586
477.0581, 113.6973
477.5402, 98.34570
478.0223, 88.91992
478.5044, 85.62695
478.9865, 93.95898
479.4687, 115.6934
479.9508, 130.0449
480.4329, 107.5391
480.9150, 68.39648
481.3971, 43.50586
481.8792, 58.81250
482.3614, 74.71484
482.8435, 59.40234
483.3256, 23.81445
483.8077, 1.984375
484.2898, 20.67773
484.7719, 45.87109
485.2541, 60.20703
485.7362, 58.49805
486.2183, 59.46875
486.7004, 74.80469
487.1825, 89.38867
487.6646, 88.14648
488.1468, 47.20898
488.6289, 22.57031
489.1110, 25.56836
489.5931, 48.21484
490.0752, 64.83008
490.5573, 76.83398
491.0395, 80.68359
491.5216, 68.75000
492.0037, 40.93555
492.4858, 34.68750
492.9679, 51.31250
493.4500, 72.30859
493.9322, 72.99805
494.4143, 56.53711
494.8964, 42.07031
495.3785, 33.54492
495.8606, 28.52539
496.3427, 16.94531
496.8249, 3.867188
497.3070, 8.955078
497.7891, 75.11133
498.2712, 145.9355
498.7533, 151.4531
499.2354, 88.16797
499.7176, 22.84180
500.1997, 12.52148
500.6818, 27.12891
501.1639, 28.84375
501.6460, 12.11133
502.1281, 6.406250
502.6103, 27.60352
503.0924, 47.63867
503.5745, 57.42188
504.0566, 45.81055
504.5387, 34.17578
505.0208, 29.69141
505.5030, 33.09961
505.9851, 25.29102
506.4672, 10.14453
506.9493, 34.60742
507.4314, 12.50586
507.9135, 74.00586
508.3957, 124.5000
508.8778, 125.5371
509.3599, 99.61523
509.8420, 82.47656
510.3241, 73.79102
510.8062, 65.94922
511.2884, 53.27734
511.7705, 40.72852
512.2526, 42.02539
512.7347, 56.34375
513.2168, 73.09961
513.6989, 90.81836
514.1810, 104.0586
514.6631, 99.01758
515.1453, 67.82031
515.6274, 48.97266
516.1095, 94.80859
516.5916, 161.5762
517.0737, 190.8379
517.5558, 122.8223
518.0380, 55.16211
518.5201, 14.33594
519.0022, 0.4472660
519.4843, 11.74219
519.9664, 91.76367
520.4485, 157.2695
520.9307, 171.7578
521.4128, 121.5645
521.8949, 75.56445
522.3770, 27.91797
522.8591, 9.265625
523.3412, 23.51562
523.8234, 12.86914
524.3055, 12.85742
524.7876, 58.04492
525.2697, 111.5723
525.7518, 151.4863
526.2339, 178.1426
526.7161, 183.3359
527.1982, 137.2344
527.6803, 69.94336
528.1624, 79.36719
528.6445, 163.4746
529.1266, 233.5723
529.6088, 193.7480
530.0909, 106.3711
530.5730, 64.47266
531.0551, 103.1172
531.5372, 141.4023
532.0193, 118.8184
532.5015, 65.76953
532.9836, 29.53906
533.4657, 33.98438
533.9478, 48.25000
534.4299, 64.81641
534.9120, 82.92969
535.3942, 102.0625
535.8763, 125.8809
536.3584, 146.5059
536.8405, 160.3633
537.3226, 166.7656
537.8047, 170.9766
538.2869, 178.1660
538.7690, 176.2402
539.2511, 142.2246
539.7332, 71.25391
540.2153, 25.95898
540.6974, 24.71680
541.1796, 46.09766
541.6617, 45.35352
542.1438, 24.82812
542.6259, 7.533203
543.1080, 11.74219
543.5901, 24.23633
544.0723, 17.97852
544.5544, 5.957031
545.0365, 20.51953
545.5186, 8.837891
546.0007, 49.60352
546.4828, 66.99023
546.9650, 47.23633
547.4471, 22.04688
547.9292, 1.447266
548.4113, 20.96680
548.8934, 33.36523
549.3755, 54.10742
549.8577, 49.17188
550.3398, 12.02734
550.8219, 112.4043
551.3040, 155.1973
551.7861, 108.2031
552.2682, 57.79688
552.7504, 46.17773
553.2325, 78.43945
553.7146, 83.49219
554.1967, 53.17188
554.6788, 19.96680
555.1609, 18.31250
555.6431, 45.15625
556.1252, 84.29883
556.6073, 142.3691
557.0894, 188.4883
557.5715, 161.5684
558.0536, 84.21484
558.5358, 23.55664
559.0179, 18.99805
559.5000, 42.33594
559.9821, 76.47266
560.4642, 118.4961
560.9464, 155.0957
561.4285, 186.8184
561.9106, 205.9629
562.3927, 201.4824
562.8748, 157.7383
563.3569, 135.3711
563.8391, 158.1777
564.3212, 194.8398
564.8033, 218.7188
565.2854, 230.6914
565.7675, 235.2285
566.2496, 228.2207
566.7318, 215.8125
567.2139, 212.8594
567.6960, 220.6621
568.1781, 233.1699
568.6602, 247.3789
569.1423, 264.9473
569.6245, 295.4629
570.1066, 339.6484
570.5887, 375.2188
571.0708, 381.7188
571.5529, 371.0859
572.0350, 357.3320
572.5172, 339.3672
572.9993, 337.5234
573.4814, 371.1387
573.9635, 427.9043
574.4456, 491.7539
574.9277, 557.5254
575.4099, 629.3965
575.8920, 720.4805
576.3741, 818.4785
576.8562, 895.8711
577.3383, 928.5352
577.8204, 973.3984
578.3026, 1060.854
578.7847, 1186.070
579.2668, 1257.137
579.7489, 1265.049
580.2310, 1255.109
580.7131, 1265.631
581.1953, 1295.592
581.6774, 1279.770
582.1595, 1212.818
582.6416, 1107.371
583.1237, 954.5723
583.6058, 775.1855
584.0880, 629.3965
584.5701, 542.8516
585.0522, 483.6797
585.5343, 416.9746
586.0164, 353.0000
586.4985, 318.5488
586.9807, 337.3867
587.4628, 371.5332
587.9449, 405.8633
588.4270, 438.4629
588.9091, 466.0586
589.3912, 491.7188
589.8734, 511.8164
590.3555, 529.0176
590.8376, 554.1895
591.3197, 536.9082
591.8018, 458.5859
592.2839, 363.4102
592.7661, 295.8379
593.2482, 257.2285
593.7303, 232.8203
594.2124, 219.6699
594.6945, 220.3711
595.1766, 255.1465
595.6588, 314.5703
596.1409, 348.9043
596.6230, 315.6680
597.1051, 258.8457
597.5872, 230.1309
598.0693, 226.3398
598.5515, 231.0332
599.0336, 233.1289
599.5157, 241.9375
599.9978, 267.4922
600.4799, 313.7852
600.9620, 354.1855
601.4442, 387.1113
601.9263, 409.0137
602.4084, 416.9883
602.8905, 404.9238
603.3726, 391.0156
603.8547, 366.0566
604.3369, 345.8125
604.8190, 361.6406
605.3011, 419.5293
605.7832, 471.4844
606.2653, 505.0840
606.7474, 521.8750
607.2296, 517.4609
607.7117, 494.9258
608.1938, 470.0977
608.6759, 427.1562
609.1580, 392.8203
609.6401, 421.0645
610.1223, 508.2520
610.6044, 571.8477
611.0865, 548.5215
611.5686, 492.6211
612.0507, 444.8086
612.5328, 411.7715
613.0150, 384.2344
613.4971, 357.7578
613.9792, 337.9785
614.4613, 331.2734
614.9434, 348.0977
615.4255, 358.7090
615.9077, 363.3809
616.3898, 358.2578
616.8719, 322.2461
617.3540, 249.0742
617.8361, 214.1738
618.3182, 270.6816
618.8004, 369.1562
619.2825, 373.8008
619.7646, 294.6191
620.2467, 213.8535
620.7288, 176.0762
621.2109, 170.0996
621.6931, 196.0781
622.1752, 254.4199
622.6573, 294.8672
623.1394, 287.4082
623.6215, 253.3047
624.1036, 206.2891
624.5858, 131.5391
625.0679, 76.64453
625.5500, 47.40430
626.0321, 39.02734
626.5142, 50.48438
626.9963, 95.75391
627.4785, 123.6035
627.9606, 119.3301
628.4427, 99.86719
628.9248, 116.0020
629.4069, 168.0254
629.8890, 193.4336
630.3712, 147.0684
630.8533, 68.34180
631.3354, 39.88867
631.8175, 54.44727
632.2996, 64.73828
632.7817, 19.71289
633.2639, 29.10938
633.7460, 23.62695
634.2281, 46.28516
634.7102, 87.71289
635.1923, 27.19141
635.6744, 47.45898
636.1566, 70.33398
636.6387, 3.498047
637.1208, 55.27734
637.6029, 78.79492
638.0850, 85.13477
638.5671, 86.81055
639.0493, 84.13281
639.5314, 72.07227
640.0135, 45.45117
640.4956, 14.71875
640.9777, 1.970703
641.4598, 5.158203
641.9420, 11.06641
642.4241, 22.97070
642.9062, 28.18945
643.3883, 0.7675780
643.8704, 50.21094
644.3525, 85.11719
644.8347, 80.30078
645.3168, 55.57617
645.7989, 17.31055
646.2810, 34.94531
646.7631, 83.32617
647.2452, 135.7266
647.7274, 174.1113
648.2095, 184.4902
648.6916, 154.0137
649.1737, 136.2773
649.6558, 135.3223
650.1379, 138.0645
650.6201, 123.5371
651.1022, 93.64648
651.5843, 84.42383
652.0664, 107.2168
652.5485, 138.1562
653.0306, 142.4141
653.5128, 128.9199
653.9949, 118.4238
654.4770, 126.5215
654.9591, 133.6406
655.4412, 123.4258
655.9233, 102.7539
656.4055, 90.72266
656.8876, 90.79297
657.3697, 103.1484
657.8518, 140.3223
658.3339, 199.3848
658.8160, 218.5684
659.2982, 175.0547
659.7803, 137.6191
660.2624, 149.6328
660.7445, 211.8965
661.2266, 230.6270
661.7087, 201.2051
662.1909, 161.1543
662.6730, 144.7598
663.1551, 143.3398
663.6372, 132.0508
664.1193, 101.5547
664.6014, 89.59180
665.0836, 158.0488
665.5657, 249.6328
666.0478, 293.8242
666.5299, 235.3535
667.0120, 176.0781
667.4941, 137.5391
667.9763, 114.3750
668.4584, 93.69531
668.9405, 62.15039
669.4226, 62.73828
669.9047, 120.4512
670.3868, 207.7793
670.8690, 225.6621
671.3511, 169.0840
671.8332, 122.3223
672.3153, 139.0156
672.7974, 186.0586
673.2795, 183.3203
673.7617, 138.1465
674.2438, 103.8457
674.7259, 120.7461
675.2080, 159.3691
675.6901, 207.1953
676.1722, 264.8184
676.6544, 286.0430
677.1365, 208.7051
677.6186, 126.0801
678.1007, 103.2520
678.5828, 171.5000
679.0649, 215.2305
679.5471, 229.8398
680.0292, 226.2383
680.5113, 208.3223
680.9934, 175.6855
681.4755, 158.2188
681.9576, 160.4199
682.4398, 177.0430
682.9219, 215.1387
683.4040, 262.2734
683.8861, 281.2500
684.3682, 247.0684
684.8503, 202.1309
685.3325, 173.8457
685.8146, 157.5664
686.2967, 143.3828
686.7788, 121.9180
687.2609, 109.5039
687.7430, 119.2363
688.2252, 143.2500
688.7073, 149.3496
689.1894, 132.5605
689.6715, 107.3965
690.1536, 75.67383
690.6357, 42.01172
691.1179, 41.78906
691.6000, 79.10156
692.0821, 117.9336
692.5642, 123.8340
693.0463, 115.5488
693.5284, 131.5996
694.0106, 175.2656
694.4927, 205.1074
694.9748, 166.8652
695.4569, 112.6465
695.9390, 80.58594
696.4211, 74.98438
696.9033, 75.67188
697.3854, 93.90430
697.8675, 113.5234
698.3496, 120.3516
698.8317, 107.7754
699.3138, 102.1992
699.7960, 103.4316
700.2781, 114.2090
700.7602, 146.9844
701.2423, 195.4375
701.7244, 221.5352
702.2065, 214.6816
702.6887, 194.1055
703.1708, 179.5312
703.6529, 167.6836
704.1350, 149.6699
704.6171, 105.0898
705.0992, 70.02930
705.5814, 70.39062
706.0635, 92.65820
706.5456, 94.50977
707.0277, 55.37695
707.5098, 22.89258
707.9919, 6.460938
708.4741, 5.703125
708.9562, 24.12891
709.4383, 64.14062
709.9204, 99.78906
710.4025, 113.8906
710.8846, 114.3965
711.3667, 127.6562
711.8488, 150.2578
712.3309, 157.4297
712.8130, 101.9414
713.2952, 44.92578
713.7773, 53.70898
714.2594, 137.9277
714.7415, 187.1055
715.2236, 148.2871
715.7057, 84.99609
716.1879, 29.41016
716.6700, 24.69531
717.1521, 39.88672
717.6342, 4.251953
718.1163, 46.39648
718.5984, 85.46289
719.0806, 111.9297
719.5627, 107.7070
720.0448, 65.43359
720.5269, 27.47266
721.0090, 45.06250
721.4911, 93.40039
721.9733, 137.6855
722.4554, 172.1543
722.9375, 189.8555
723.4196, 177.5703
723.9017, 149.7168
724.3839, 124.7617
724.8660, 92.05859
725.3481, 84.05469
725.8302, 121.5605
726.3123, 172.6836
726.7944, 168.9141
727.2766, 104.1992
727.7587, 69.09766
728.2408, 99.01172
728.7229, 151.5898
729.2050, 146.2695
729.6871, 97.48047
730.1693, 53.10547
730.6514, 31.96094
731.1335, 25.46094
731.6156, 27.37109
732.0977, 38.53906
732.5798, 62.94531
733.0620, 133.2891
733.5441, 179.5273
734.0262, 167.8789
734.5083, 110.0781
734.9904, 87.74219
735.4725, 107.9062
735.9547, 137.6055
736.4368, 169.1914
736.9189, 197.6758
737.4010, 198.7227
737.8831, 174.4375
738.3652, 148.2812
738.8474, 134.3438
739.3295, 130.6367
739.8116, 145.4648
740.2937, 177.7617
740.7758, 187.0977
741.2579, 116.2695
741.7401, 53.10156
742.2222, 60.58594
742.7043, 157.2148
743.1864, 198.1836
743.6685, 166.6016
744.1506, 113.7969
744.6328, 73.37891
745.1149, 44.56250
745.5970, 13.82031
746.0791, 21.13672
746.5612, 38.15625
747.0433, 4.285156
747.5255, 69.56250
748.0076, 100.1016
748.4897, 81.11328
748.9718, 61.05469
749.4539, 60.63281
749.9360, 70.69141
750.4182, 85.78906
750.9003, 128.4336
751.3824, 130.5820
751.8645, 73.51953
752.3466, 0.8281250
752.8287, 56.61719
753.3109, 94.32812
753.7930, 63.13672
754.2751, 59.55859
754.7572, 194.0352
755.2393, 248.2461
755.7214, 243.0898
756.2036, 218.4727
756.6857, 176.1836
757.1678, 134.9219
757.6499, 90.84375
758.1320, 58.17969
758.6141, 57.83984
759.0963, 143.9023
759.5784, 186.3320
760.0605, 153.8555
760.5426, 89.55469
761.0247, 72.71094
761.5068, 105.6562
761.9890, 150.7422
762.4711, 209.7734
762.9532, 254.1328
763.4353, 203.7109
763.9174, 100.2109
764.3995, 50.76172
764.8817, 159.2891
765.3638, 270.9336
765.8459, 294.3398
766.3280, 260.5000
766.8101, 238.8320
767.2922, 251.4922
767.7744, 262.6406
768.2565, 262.3047
768.7386, 258.5664
769.2207, 286.4141
769.7028, 351.1055
770.1849, 383.1758
770.6671, 346.5820
771.1492, 278.4414
771.6313, 215.2695
772.1134, 165.2617
772.5955, 148.8984
773.0776, 214.5156
773.5598, 281.1250
774.0419, 290.4062
774.5240, 252.5469
775.0061, 235.5234
775.4882, 275.3516
775.9703, 308.0547
776.4525, 323.8438
776.9346, 319.3281
777.4167, 253.0703
777.8988, 116.9102
778.3809, 33.07812
778.8630, 103.9258
779.3452, 245.6875
779.8273, 299.3359
780.3094, 277.0625
780.7915, 241.2383
781.2736, 212.5195
781.7557, 191.2812
782.2379, 178.4688
782.7200, 173.9844
783.2021, 176.1094
783.6842, 192.4062
784.1663, 203.1602
784.6484, 197.9727
785.1306, 179.8047
785.6127, 175.5352
786.0948, 185.7461
786.5769, 203.8047
787.0590, 227.6719
787.5411, 255.4492
788.0233, 298.6914
788.5054, 349.3945
788.9875, 353.3789
789.4696, 222.0781
789.9517, 86.25781
790.4338, 19.32422
790.9160, 27.44531
791.3981, 58.67578
791.8802, 131.4492
792.3623, 192.8477
792.8444, 221.9492
793.3265, 219.7773
793.8087, 172.5703
794.2908, 80.14844
794.7729, 4.382813
795.2550, 8.945313
795.7371, 17.98438
796.2192, 66.86719
796.7014, 134.2539
797.1835, 192.2695
797.6656, 227.4688
798.1477, 249.2227
798.6298, 259.9062
799.1119, 259.3633
799.5941, 249.1836
800.0762, 216.1172
800.5583, 205.1602
801.0404, 258.1797
801.5225, 354.5586
802.0046, 383.7344
802.4868, 351.7578
802.9689, 307.7500
803.4510, 276.1797
803.9331, 255.9961
804.4152, 261.0508
804.8973, 292.0703
805.3795, 289.7617
805.8616, 191.3867
806.3437, 100.2070
806.8258, 68.82422
807.3079, 98.57031
807.7900, 101.2930
808.2722, 67.33594
808.7543, 44.91406
809.2364, 77.30469
809.7185, 142.6133
810.2006, 158.1250
810.6827, 126.4570
811.1649, 112.8477
811.6470, 210.8008
812.1291, 311.0781
812.6112, 303.9297
813.0933, 186.0156
813.5754, 117.7969
814.0576, 173.0938
814.5397, 223.4414
815.0218, 210.7109
815.5039, 141.4180
815.9860, 125.1406
816.4681, 166.6797
816.9503, 206.3984
817.4324, 202.7891
817.9145, 174.2617
818.3966, 138.2227
818.8787, 101.1797
819.3608, 99.34375
819.8430, 218.9492
820.3251, 319.0352
820.8072, 289.1328
821.2893, 130.4688
821.7714, 79.93359
822.2535, 200.9531
822.7357, 294.8281
823.2178, 256.9609
823.6999, 125.8008
824.1820, 91.25781
824.6641, 146.4961
825.1462, 197.0977
825.6284, 171.9648
826.1105, 124.9102
826.5926, 120.5664
827.0747, 147.5703
827.5568, 143.7539
828.0389, 14.92188
828.5211, 64.40625
829.0032, 1.414063
829.4853, 171.4805
829.9674, 215.5117
830.4495, 109.6758
830.9316, 10.41016
831.4138, 14.56250
831.8959, 7.582031
832.3780, 21.59766
832.8601, 30.37891
833.3422, 46.14062
833.8243, 99.71484
834.3065, 137.9102
834.7886, 120.4648
835.2707, 60.07031
835.7528, 5.339844
836.2349, 63.52344
836.7170, 85.37500
837.1992, 31.03516
837.6813, 67.48438
838.1634, 127.9336
838.6455, 152.1328
839.1276, 156.8438
839.6097, 145.1602
840.0919, 123.7109
840.5740, 102.5898
841.0561, 86.12891
841.5382, 77.58203
842.0203, 93.17578
842.5024, 99.61719
842.9846, 73.64062
843.4667, 38.67578
843.9488, 43.95312
844.4309, 102.3086
844.9130, 140.4453
845.3951, 140.1602
845.8773, 119.7578
846.3594, 97.21094
846.8415, 73.92578
847.3236, 58.51172
847.8057, 52.50781
848.2878, 56.69531
848.7700, 86.53906
849.2521, 121.9570
849.7342, 132.1641
850.2163, 76.93750
850.6984, 67.03516
851.1805, 129.5234
851.6627, 209.7773
852.1448, 230.5117
852.6269, 197.4375
853.1090, 162.4688
853.5911, 130.9336
854.0732, 105.0117
854.5554, 67.53906
855.0375, 43.66406
855.5196, 77.01172
856.0017, 229.0742
856.4838, 306.1602
856.9659, 220.5430
857.4481, 90.29688
857.9302, 5.867188
858.4123, 70.24219
858.8944, 65.98828
859.3765, 20.71094
859.8586, 109.8164
860.3408, 109.7227
860.8229, 63.83203
861.3050, 53.48438
861.7871, 90.74609
862.2692, 113.8164
862.7513, 68.64844
863.2335, 17.19531
863.7156, 5.351563
864.1977, 37.33984
864.6798, 67.24609
865.1619, 94.91406
865.6440, 119.9961
866.1262, 146.6094
866.6083, 169.8984
867.0904, 156.6250
867.5725, 111.5273
868.0546, 88.41797
868.5367, 144.7656
869.0189, 216.0469
869.5010, 261.3516
869.9831, 278.6758
870.4652, 271.4727
870.9473, 221.5625
871.4294, 179.4023
871.9116, 164.5977
872.3937, 169.8828
872.8758, 165.2148
873.3579, 151.6797
873.8400, 138.8516
874.3221, 129.7812
874.8043, 126.5391
875.2864, 138.6680
875.7685, 158.8984
876.2506, 166.8516
876.7327, 152.7578
877.2148, 129.6289
877.6970, 92.96094
878.1791, 53.96484
878.6612, 39.74219
879.1433, 53.07422
879.6254, 59.85938
880.1075, 48.62500
880.5897, 38.16406
881.0718, 61.64453
881.5539, 103.3125
882.0360, 131.9180
882.5181, 124.0078
883.0002, 127.1758
883.4824, 185.1445
883.9645, 245.8867
884.4466, 249.6758
884.9287, 176.3789
885.4108, 106.4609
885.8929, 32.52734
886.3751, 6.765625
886.8572, 95.32422
887.3393, 264.2734
887.8214, 322.1484
888.3035, 237.0312
888.7856, 145.1914
889.2678, 113.8633
889.7499, 120.4062
890.2320, 159.5664
890.7141, 243.0430
891.1962, 272.4141
891.6783, 235.3242
892.1605, 177.9961
892.6426, 120.8555
893.1247, 67.78125
893.6068, 28.16406
894.0889, 0.2460940
894.5710, 1.007813
895.0532, 89.23047
895.5353, 167.6836
896.0174, 131.0273
896.4995, 5.234375
896.9816, 74.53516
897.4637, 39.99609
897.9459, 8.570313
898.4280, 50.52344
898.9101, 82.50391
899.3922, 79.60938
899.8743, 49.74609
900.3564, 47.12891
900.8386, 127.5156
901.3207, 198.8203
901.8028, 166.2031
902.2849, 75.23828
902.7670, 5.421875
903.2491, 21.10156
903.7313, 26.53516
904.2134, 4.343750
904.6955, 30.14453
905.1776, 57.98047
905.6597, 79.63672
906.1418, 88.40234
906.6240, 80.83203
907.1061, 75.08984
907.5882, 101.0703
908.0703, 131.4102
908.5524, 133.3438
909.0345, 91.93750
909.5167, 50.85156
909.9988, 9.914063
910.4809, 38.06641
910.9630, 23.58984
911.4451, 177.7109
911.9272, 218.1992
912.4094, 141.4648
912.8915, 68.29297
913.3736, 117.3555
913.8557, 199.6602
914.3378, 203.3711
914.8199, 135.8516
915.3021, 99.24609
915.7842, 175.9258
916.2663, 219.3633
916.7484, 169.3945
917.2305, 66.05469
917.7126, 59.14062
918.1948, 148.9844
918.6769, 208.5352
919.1590, 171.4180
919.6411, 108.4023
920.1232, 112.5234
920.6053, 155.7070
921.0875, 181.0625
921.5696, 170.0898
922.0517, 141.0430
922.5338, 72.61719
923.0159, 6.441406
923.4980, 3.332031
923.9802, 68.14062
924.4623, 114.5039
924.9444, 130.5312
925.4265, 130.5664
925.9086, 125.4453
926.3907, 115.6055
926.8729, 94.96484
927.3550, 60.01172
927.8371, 46.14062
928.3192, 79.65625
928.8013, 122.0352
929.2834, 161.3086
929.7656, 197.0898
930.2477, 184.5781
930.7298, 120.7695
931.2119, 73.65234
931.6940, 110.9414
932.1761, 173.9805
932.6583, 184.2422
933.1404, 155.4648
933.6225, 139.5117
934.1046, 179.9219
934.5867, 206.4102
935.0688, 195.8203
935.5510, 164.2500
936.0331, 149.0352
936.5152, 151.2383
936.9973, 158.1172
937.4794, 168.6914
937.9615, 178.4375
938.4437, 180.2656
938.9258, 177.1016
939.4079, 178.3086
939.8900, 193.8242
940.3721, 192.0195
940.8542, 133.2344
941.3364, 91.28906
941.8185, 143.4492
942.3006, 293.1992
942.7827, 361.4688
943.2648, 340.0391
943.7469, 287.4961
944.2291, 213.6953
944.7112, 160.5156
945.1933, 193.9102
945.6754, 309.1172
946.1575, 372.4766
946.6396, 286.0781
947.1218, 230.4102
947.6039, 262.6680
948.0860, 365.5273
948.5681, 492.6211
949.0502, 639.6094
949.5323, 742.6055
950.0145, 750.5234
950.4966, 745.1758
950.9787, 786.6914
951.4608, 873.0664
951.9429, 1000.523
952.4250, 1196.223
952.9072, 1395.309
953.3893, 1593.062
953.8714, 1792.445
954.3535, 1991.410
954.8356, 2187.484
955.3177, 2410.113
955.7999, 2661.820
956.2820, 2936.777
956.7640, 3203.383
957.2462, 3513.262
957.7283, 3902.207
958.2104, 4380.570
958.6925, 4963.590
959.1746, 5679.051
959.6567, 6447.633
960.1389, 7242.953
960.6210, 8066.055
961.1031, 8926.984
961.5852, 9816.934
962.0673, 10650.51
962.5494, 11556.14
963.0316, 12222.94
963.5137, 12498.83
963.9958, 12411.31
964.4779, 12022.52
964.9600, 11310.00
965.4421, 10357.34
965.9243, 9101.844
966.4064, 7803.031
966.8885, 6747.402
967.3706, 5900.570
967.8527, 5164.223
968.3348, 4532.383
968.8170, 3978.559
969.2991, 3477.453
969.7812, 3064.004
970.2633, 2788.289
970.7454, 2646.836
971.2275, 2437.371
971.7097, 2147.336
972.1918, 1855.020
972.6739, 1578.188
973.1560, 1338.230
973.6381, 1191.598
974.1202, 1112.242
974.6024, 1026.938
975.0845, 879.0938
975.5666, 756.0703
976.0487, 697.3359
976.5308, 662.6641
977.0129, 584.8359
977.4951, 460.9258
977.9772, 387.5977
978.4593, 384.8242
978.9414, 393.5625
979.4235, 350.3438
979.9056, 287.3164
980.3878, 244.5039
980.8699, 231.3242
981.3520, 213.9883
981.8341, 197.6484
982.3162, 161.6992
982.7983, 78.49219
983.2805, 31.99609
983.7626, 42.21094
984.2447, 36.72266
984.7268, 105.4922
985.2089, 104.8086
985.6910, 82.93359
986.1732, 62.21094
986.6553, 46.71875
987.1374, 46.93750
987.6195, 73.65234
988.1016, 93.94922
988.5837, 108.2461
989.0659, 105.7305
989.5480, 52.89844
990.0301, 26.67188
990.5122, 60.87891
990.9943, 38.95703
991.4764, 8.113281
991.9586, 13.45703
992.4407, 27.56250
992.9228, 34.23438
993.4049, 34.37109
993.8870, 39.32422
994.3691, 51.72266
994.8513, 50.42969
995.3334, 8.480469
995.8155, 32.82812
996.2976, 22.01953
996.7797, 124.8750
997.2618, 169.9844
997.7440, 47.14453
998.2261, 40.53125
998.7082, 58.07422
999.1903, 30.51562
999.6724, 35.03125
1000.155, 134.5078
1000.637, 158.5977
1001.119, 93.16406
1001.601, 36.46484
1002.083, 93.22656
1002.565, 179.8672
1003.047, 226.8359
1003.529, 226.1016
1004.011, 202.6602
1004.494, 150.2422
1004.976, 93.88281
1005.458, 35.28906
1005.940, 13.59375
1006.422, 15.83594
1006.904, 18.82031
1007.386, 54.67578
1007.868, 83.80078
1008.351, 106.2734
1008.833, 127.2109
1009.315, 139.3047
1009.797, 133.8398
1010.279, 104.1484
1010.761, 85.72656
1011.243, 79.89844
1011.725, 75.76562
1012.207, 50.67969
1012.690, 27.07031
1013.172, 44.21484
1013.654, 98.52344
1014.136, 144.2188
1014.618, 155.9062
1015.100, 176.3203
1015.582, 234.8438
1016.064, 293.6484
1016.547, 228.2539
1017.029, 61.75781
1017.511, 2.562500
1017.993, 114.2344
1018.475, 248.3906
1018.957, 267.0898
1019.439, 234.2812
1019.921, 214.7227
1020.403, 222.8555
1020.886, 209.5938
1021.368, 164.8359
1021.850, 129.4062
1022.332, 124.7305
1022.814, 149.0195
1023.296, 223.1992
1023.778, 327.3320
1024.260, 389.1758
1024.743, 319.6055
1025.225, 269.8633
1025.707, 301.1719
1026.189, 371.5820
1026.671, 428.9570
1027.153, 473.4453
1027.635, 500.2188
1028.117, 507.8086
1028.599, 508.3594
1029.082, 497.9062
1029.564, 497.7383
1030.046, 544.0195
1030.528, 644.9688
1031.010, 692.4805
1031.492, 653.9336
1031.974, 627.4492
1032.456, 658.5273
1032.938, 715.5273
1033.421, 714.3633
1033.903, 668.8398
1034.385, 627.9727
1034.867, 625.8555
1035.349, 605.0742
1035.831, 488.8242
1036.313, 375.1172
1036.795, 376.2070
1037.278, 520.4648
1037.760, 588.4414
1038.242, 573.1211
1038.724, 527.9961
1039.206, 476.4609
1039.688, 431.0664
1040.170, 409.3438
1040.652, 408.4258
1041.135, 407.9297
1041.617, 387.3359
1042.099, 405.6250
1042.581, 494.0703
1043.063, 593.1328
1043.545, 580.4102
1044.027, 490.2422
1044.509, 433.4023
1044.991, 433.2266
1045.474, 459.8672
1045.956, 528.9648
1046.438, 589.5820
1046.920, 596.4062
1047.402, 551.2969
1047.884, 550.0977
1048.366, 596.3047
1048.848, 622.4414
1049.330, 572.3828
1049.813, 510.6641
1050.295, 517.2422
1050.777, 568.2891
1051.259, 619.4219
1051.741, 681.1523
1052.223, 707.9414
1052.705, 694.2812
1053.187, 656.0742
1053.670, 583.1328
1054.152, 500.6797
1054.634, 511.3789
1055.116, 610.3594
1055.598, 673.8086
1056.080, 580.7695
1056.562, 489.7617
1057.044, 478.1328
1057.526, 526.3672
1058.009, 598.2109
1058.491, 696.3789
1058.973, 771.0703
1059.455, 816.7812
1059.937, 812.7891
1060.419, 693.4258
1060.901, 538.3008
1061.383, 438.0977
1061.865, 418.1641
1062.348, 402.4766
1062.830, 383.0508
1063.312, 382.9609
1063.794, 442.2422
1064.276, 508.9375
1064.758, 401.4062
1065.240, 183.5273
1065.722, 46.74219
1066.205, 140.5430
1066.687, 233.5742
1067.169, 278.7852
1067.651, 277.3281
1068.133, 205.4180
1068.615, 61.79688
1069.097, 4.308594
1069.579, 12.90234
1070.062, 39.73438
1070.544, 1.027344
1071.026, 32.67188
1071.508, 5.046875
1071.990, 99.63672
1072.472, 168.8828
1072.954, 208.1328
1073.436, 235.2539
1073.918, 258.5742
1074.401, 259.8359
1074.883, 170.1602
1075.365, 61.25391
1075.847, 72.70312
1076.329, 246.2188
1076.811, 366.2070
1077.293, 329.9414
1077.775, 279.1914
1078.257, 263.7188
1078.740, 279.2227
1079.222, 341.3047
1079.704, 429.7109
1080.186, 441.3906
1080.668, 278.1758
1081.150, 136.3633
1081.632, 162.0469
1082.114, 243.2148
1082.596, 255.1523
1083.079, 177.4141
1083.561, 153.5586
1084.043, 186.9609
1084.525, 226.1641
1085.007, 228.8594
1085.489, 222.9180
1085.971, 252.7500
1086.453, 299.3477
1086.936, 298.6406
1087.418, 224.8398
1087.900, 139.3750
1088.382, 40.32422
1088.864, 45.26172
1089.346, 73.23438
1089.828, 62.80469
1090.310, 58.39453
1090.792, 68.06641
1091.275, 67.52734
1091.757, 34.79688
1092.239, 5.253906
1092.721, 1.722656
1093.203, 1.125000
1093.685, 47.70312
1094.167, 130.0664
1094.649, 173.4688
1095.131, 142.3828
1095.614, 117.7383
1096.096, 168.0469
1096.578, 238.3867
1097.060, 288.3359
1097.542, 316.8984
1098.024, 285.1406
1098.506, 185.7383
1098.988, 113.1641
1099.471, 148.7383
1099.953, 200.5547
1100.435, 128.8594
1100.917, 11.00000
1101.399, 11.37500
1101.881, 173.1875
1102.363, 298.1758
1102.845, 355.0430
1103.328, 370.3633
1103.810, 353.4727
1104.292, 318.1445
1104.774, 292.0820
1105.256, 274.8594
1105.738, 258.6914
1106.220, 257.5938
1106.702, 230.2227
1107.184, 144.4023
1107.667, 55.91016
1108.149, 71.83594
1108.631, 166.8789
1109.113, 206.9883
1109.595, 173.5781
1110.077, 137.3164
1110.559, 151.2031
1111.041, 166.8008
1111.523, 139.4922
1112.006, 89.42578
1112.488, 116.6367
1112.970, 222.2109
1113.452, 301.6602
1113.934, 328.8633
1114.416, 311.9141
1114.898, 214.1055
1115.380, 104.1367
1115.863, 63.69922
1116.345, 110.8359
1116.827, 157.3086
1117.309, 211.5703
1117.791, 226.4102
1118.273, 145.9805
1118.755, 50.82812
1119.237, 72.24219
1119.719, 165.5273
1120.202, 245.2070
1120.684, 300.8594
1121.166, 314.9180
1121.648, 275.4570
1122.130, 220.8281
1122.612, 171.9688
1123.094, 134.3906
1123.576, 128.9570
1124.058, 150.7383
1124.541, 176.8672
1125.023, 212.0391
1125.505, 229.4570
1125.987, 216.2812
1126.469, 190.2930
1126.951, 174.2188
1127.433, 166.6719
1127.915, 148.8633
1128.398, 119.5625
1128.880, 106.6680
1129.362, 149.0586
1129.844, 198.5703
1130.326, 244.4297
1130.808, 275.6484
1131.290, 250.8633
1131.772, 169.7188
1132.255, 116.3906
1132.737, 113.6406
1133.219, 111.4531
1133.701, 35.95312
1134.183, 35.77344
1134.665, 12.33203
1135.147, 108.8242
1135.629, 140.2344
1136.111, 65.64844
1136.594, 22.08984
1137.076, 61.31250
1137.558, 144.1055
1138.040, 263.1797
1138.522, 373.5352
1139.004, 403.4180
1139.486, 293.7266
1139.968, 258.0625
1140.450, 328.4570
1140.933, 382.8633
1141.415, 341.6250
1141.897, 254.1719
1142.379, 204.5391
1142.861, 185.2539
1143.343, 178.5391
1143.825, 189.9688
1144.307, 200.4414
1144.790, 215.7031
1145.272, 219.4375
1145.754, 195.8125
1146.236, 150.2539
1146.718, 66.82422
1147.200, 33.20312
1147.682, 58.40625
1148.164, 129.3008
1148.646, 266.7539
1149.129, 288.9492
1149.611, 245.8867
1150.093, 172.0469
1150.575, 79.52344
1151.057, 58.48438
1151.539, 111.4414
1152.021, 155.3125
1152.503, 128.5781
1152.985, 96.44922
1153.468, 83.94531
1153.950, 90.00391
1154.432, 122.6836
1154.914, 179.2539
1155.396, 210.7070
1155.878, 208.8750
1156.360, 179.5898
1156.842, 81.97266
1157.325, 2.457031
1157.807, 5.535156
1158.289, 55.64062
1158.771, 135.2305
1159.253, 233.2695
1159.735, 255.2656
1160.217, 146.8320
1160.699, 58.84375
1161.182, 190.9336
1161.664, 373.5430
1162.146, 427.7070
1162.628, 339.6094
1163.110, 281.1562
1163.592, 253.2852
1164.074, 250.6758
1164.556, 282.3828
1165.038, 318.2305
1165.521, 332.7773
1166.003, 326.4727
1166.485, 295.1641
1166.967, 229.4805
1167.449, 179.1484
1167.931, 145.1680
1168.413, 123.2305
1168.895, 110.9414
1169.377, 109.4883
1169.860, 140.0352
1170.342, 177.3242
1170.824, 173.3086
1171.306, 73.08594
1171.788, 7.585938
1172.270, 25.48047
1172.752, 18.37500
1173.234, 73.24219
1173.717, 187.0273
1174.199, 204.2148
1174.681, 151.2656
1175.163, 108.0391
1175.645, 85.17578
1176.127, 104.1172
1176.609, 191.8555
1177.091, 265.5000
1177.573, 214.1836
1178.056, 100.9062
1178.538, 64.72266
1179.020, 96.99219
1179.502, 119.1445
1179.984, 90.04297
1180.466, 73.39844
1180.948, 77.53906
1181.430, 95.22656
1181.912, 117.9219
1182.395, 149.0703
1182.877, 209.9141
1183.359, 294.8945
1183.841, 327.6562
1184.323, 222.4414
1184.805, 121.4961
1185.287, 49.85938
1185.769, 11.27344
1186.252, 13.03125
1186.734, 52.82812
1187.216, 143.1562
1187.698, 288.0742
1188.180, 386.1836
1188.662, 355.6992
1189.144, 310.2266
1189.626, 287.0273
1190.109, 275.5508
1190.591, 261.2773
1191.073, 238.2930
1191.555, 165.7305
1192.037, 19.82422
1192.519, 63.26172
1193.001, 34.42969
1193.483, 148.7109
1193.965, 215.1367
1194.448, 239.0938
1194.930, 208.4180
1195.412, 147.6680
1195.894, 167.2070
1196.376, 328.0586
1196.858, 445.8203
1197.340, 417.6250
1197.822, 335.6680
1198.304, 224.9609
1198.787, 103.0508
1199.269, 44.86328
1199.751, 41.61719
1200.233, 50.42969
1200.715, 61.98047
1201.197, 70.66406
1201.679, 47.04297
1202.161, 47.61719
1202.644, 120.0156
1203.126, 249.5469
1203.608, 347.1133
1204.090, 411.0859
1204.572, 439.7734
1205.054, 431.7969
1205.536, 384.2812
1206.018, 242.2031
1206.500, 111.7930
1206.983, 96.14844
1207.465, 180.5039
1207.947, 184.6094
1208.429, 122.0781
1208.911, 78.29688
1209.393, 125.0312
1209.875, 164.2656
1210.357, 125.1367
1210.839, 83.81641
1211.322, 123.6641
1211.804, 235.5195
1212.286, 245.6641
1212.768, 165.9258
1213.250, 95.67188
1213.732, 84.79297
1214.214, 99.83203
1214.696, 151.8242
1215.179, 202.5234
1215.661, 202.1211
1216.143, 158.4102
1216.625, 157.1875
1217.107, 199.1719
1217.589, 241.3047
1218.071, 279.8555
1218.553, 290.3711
1219.036, 236.2344
1219.518, 173.3438
1220.000, 176.9922
1220.482, 236.5547
1220.964, 268.8672
1221.446, 270.1836
1221.928, 261.3906
1222.410, 257.8594
1222.892, 237.9531
1223.375, 171.1875
1223.857, 104.7695
1224.339, 115.1562
1224.821, 188.1406
1225.303, 243.1523
1225.785, 274.6680
1226.267, 300.3047
1226.749, 371.9531
1227.231, 380.8320
1227.714, 250.8828
1228.196, 94.26562
1228.678, 125.9180
1229.160, 286.6367
1229.642, 304.9492
1230.124, 162.8008
1230.606, 58.55859
1231.088, 146.8945
1231.571, 212.3711
1232.053, 172.4727
1232.535, 94.16406
1233.017, 93.67578
1233.499, 147.5664
1233.981, 184.4766
1234.463, 196.3203
1234.945, 212.8164
1235.427, 296.2891
1235.910, 313.0938
1236.392, 206.1250
1236.874, 49.98438
1237.356, 31.82812
1237.838, 54.98438
1238.320, 55.29688
1238.802, 35.86719
1239.284, 4.261719
1239.766, 119.6094
1240.249, 171.6953
1240.731, 98.88281
1241.213, 3.242188
1241.695, 40.61719
1242.177, 164.3359
1242.659, 229.8008
1243.141, 214.4336
1243.623, 192.5312
1244.106, 162.2734
1244.588, 161.7812
1245.070, 214.6992
1245.552, 268.5391
1246.034, 222.0820
1246.516, 140.3320
1246.998, 158.4219
1247.480, 303.0703
1247.963, 369.4141
1248.445, 312.5859
1248.927, 258.0664
1249.409, 248.0977
1249.891, 246.5625
1250.373, 196.4766
1250.855, 125.3750
1251.337, 67.79688
1251.819, 30.64844
1252.302, 0.8203130
1252.784, 25.24219
1253.266, 26.11328
1253.748, 14.09375
1254.230, 55.76172
1254.712, 10.36719
1255.194, 36.14062
1255.676, 48.44922
1256.158, 278.6172
1256.641, 353.9805
1257.123, 250.7344
1257.605, 152.1953
1258.087, 112.8984
1258.569, 100.6797
1259.051, 61.08984
1259.533, 48.01562
1260.015, 156.0859
1260.498, 365.6367
1260.980, 431.1680
1261.462, 350.5898
1261.944, 281.8945
1262.426, 272.3672
1262.908, 290.4141
1263.390, 319.9219
1263.872, 359.1797
1264.354, 414.1484
1264.837, 478.0547
1265.319, 507.7227
1265.801, 505.1289
1266.283, 490.8789
1266.765, 473.1172
1267.247, 434.2383
1267.729, 320.8398
1268.211, 216.6211
1268.693, 203.8906
1269.176, 264.1094
1269.658, 253.7812
1270.140, 191.0234
1270.622, 170.8164
1271.104, 227.8477
1271.586, 276.6875
1272.068, 287.3008
1272.550, 271.5312
1273.033, 228.9258
1273.515, 167.3555
1273.997, 76.49219
1274.479, 13.23828
1274.961, 7.398438
1275.443, 140.2969
1275.925, 223.8438
1276.407, 191.4844
1276.890, 165.5234
1277.372, 231.6836
1277.854, 328.9180
1278.336, 362.4766
1278.818, 359.1016
1279.300, 371.4219
1279.782, 417.0000
1280.264, 435.9922
1280.746, 432.7930
1281.229, 375.0781
1281.711, 227.6055
1282.193, 74.44922
1282.675, 17.71094
1283.157, 29.70703
1283.639, 95.68359
1284.121, 218.8867
1284.603, 269.2070
1285.085, 241.5859
1285.568, 179.2500
1286.050, 77.52734
1286.532, 11.41016
1287.014, 11.15234
1287.496, 81.89844
1287.978, 125.0273
1288.460, 141.6797
1288.942, 162.5195
1289.425, 187.4805
1289.907, 232.2773
1290.389, 311.7930
1290.871, 346.2344
1291.353, 264.7109
1291.835, 176.9570
1292.317, 147.4570
1292.799, 145.5469
1293.281, 198.3477
1293.764, 272.1953
1294.246, 325.0039
1294.728, 353.5391
1295.210, 323.8594
1295.692, 125.0742
1296.174, 2.238281
1296.656, 49.43359
1297.138, 188.9570
1297.620, 122.7539
1298.103, 0.0000000E+00
##END=



